Data from HighRes_H2_15_09_11_07_2024_HR4C61891__116__15-11-08-001.txt Node

Date: Thu Nov 07 15:11:08 EST 2024
User: crc00042
Spectrometer: HR4C6189
Trigger mode: 4
Integration Time (sec): 1.000000E-1
Scans to average: 1
Electric dark correction enabled: true
Nonlinearity correction enabled: false
Boxcar width: 0
XAxis mode: Wavelengths
Number of Pixels in Spectrum: 3648
>>>>>Begin Spectral Data<<<<<
639.567	-39.23
639.602	-39.23
639.636	-39.23
639.67	-62.23
639.704	-25.23
639.738	-7.23
639.773	0.77
639.807	-13.23
639.841	7.77
639.875	10.77
639.909	-13.23
639.943	-24.23
639.978	-3.23
640.012	3.77
640.046	28.77
640.08	1.77
640.114	7.77
640.148	-0.23
640.182	-14.23
640.217	-18.23
640.251	10.77
640.285	-4.23
640.319	-24.23
640.353	-16.23
640.387	-1.23
640.421	-2.23
640.455	-0.23
640.49	1.77
640.524	-7.23
640.558	6.77
640.592	2.77
640.626	1.77
640.66	-3.23
640.694	-0.23
640.728	1.77
640.762	8.77
640.796	5.77
640.83	9.77
640.865	-5.23
640.899	4.77
640.933	-11.23
640.967	-4.23
641.001	-0.23
641.035	0.77
641.069	-3.23
641.103	-8.23
641.137	-11.23
641.171	-16.23
641.205	4.77
641.239	12.77
641.273	7.77
641.307	-3.23
641.341	-6.23
641.375	-11.23
641.409	1.77
641.443	3.77
641.477	0.77
641.511	3.77
641.545	-1.23
641.579	-19.23
641.614	6.77
641.648	1.77
641.682	2.77
641.716	14.77
641.75	4.77
641.784	-1.23
641.818	-10.23
641.852	-6.23
641.886	8.77
641.919	24.77
641.953	12.77
641.987	-26.23
642.021	-3.23
642.055	14.77
642.089	7.77
642.123	-11.23
642.157	-19.23
642.191	-18.23
642.225	-5.23
642.259	-11.23
642.293	4.77
642.327	0.77
642.361	-5.23
642.395	-5.23
642.429	13.77
642.463	-2.23
642.497	13.77
642.531	4.77
642.565	-4.23
642.599	3.77
642.633	-3.23
642.666	-0.23
642.7	3.77
642.734	5.77
642.768	-8.23
642.802	-13.23
642.836	7.77
642.87	-15.23
642.904	7.77
642.938	5.77
642.972	4.77
643.005	-3.23
643.039	10.77
643.073	2.77
643.107	13.77
643.141	-2.23
643.175	-0.23
643.209	-3.23
643.243	-0.23
643.276	-1.23
643.31	-3.23
643.344	-17.23
643.378	-16.23
643.412	11.77
643.446	8.77
643.48	1.77
643.513	9.77
643.547	-3.23
643.581	-15.23
643.615	1.77
643.649	1.77
643.683	4.77
643.716	-1.23
643.75	-3.23
643.784	-2.23
643.818	11.77
643.852	2.77
643.886	-9.23
643.919	3.77
643.953	-4.23
643.987	-16.23
644.021	1.77
644.055	9.77
644.088	-14.23
644.122	-11.23
644.156	-4.23
644.19	1.77
644.224	1.77
644.257	-6.23
644.291	12.77
644.325	4.77
644.359	-10.23
644.392	16.77
644.426	1.77
644.46	-0.23
644.494	-19.23
644.527	-9.23
644.561	0.77
644.595	1.77
644.629	1.77
644.662	4.77
644.696	2.77
644.73	0.77
644.764	16.77
644.797	-3.23
644.831	2.77
644.865	2.77
644.899	-3.23
644.932	13.77
644.966	-5.23
645	5.77
645.033	9.77
645.067	-4.23
645.101	1.77
645.135	-14.23
645.168	-7.23
645.202	-8.23
645.236	-2.23
645.269	3.77
645.303	6.77
645.337	-8.23
645.37	-18.23
645.404	-0.23
645.438	-5.23
645.471	6.77
645.505	-8.23
645.539	-1.23
645.572	-15.23
645.606	4.77
645.64	-0.23
645.673	12.77
645.707	10.77
645.741	-0.23
645.774	-15.23
645.808	8.77
645.842	-7.23
645.875	-5.23
645.909	1.77
645.943	-3.23
645.976	-9.23
646.01	-0.23
646.043	7.77
646.077	4.77
646.111	18.77
646.144	1.77
646.178	7.77
646.212	1.77
646.245	-6.23
646.279	-2.23
646.312	3.77
646.346	22.77
646.38	-6.23
646.413	3.77
646.447	-5.23
646.48	-8.23
646.514	0.77
646.547	-9.23
646.581	-16.23
646.615	-3.23
646.648	-13.23
646.682	7.77
646.715	0.77
646.749	5.77
646.782	-5.23
646.816	7.77
646.85	-6.23
646.883	-2.23
646.917	10.77
646.95	-12.23
646.984	-1.23
647.017	-5.23
647.051	3.77
647.084	12.77
647.118	-26.23
647.151	0.77
647.185	3.77
647.218	-14.23
647.252	8.77
647.285	-11.23
647.319	-6.23
647.353	3.77
647.386	20.77
647.42	0.77
647.453	-13.23
647.487	7.77
647.52	4.77
647.553	0.77
647.587	-5.23
647.62	-1.23
647.654	18.77
647.687	-2.23
647.721	14.77
647.754	10.77
647.788	-1.23
647.821	-9.23
647.855	-0.23
647.888	3.77
647.922	8.77
647.955	9.77
647.989	7.77
648.022	1.77
648.055	-11.23
648.089	-4.23
648.122	21.77
648.156	-22.23
648.189	-6.23
648.223	5.77
648.256	21.77
648.29	11.77
648.323	-4.23
648.356	-5.23
648.39	1.77
648.423	-3.23
648.457	-15.23
648.49	7.77
648.523	-15.23
648.557	6.77
648.59	-6.23
648.624	-7.23
648.657	-16.23
648.69	-1.23
648.724	-2.23
648.757	6.77
648.791	24.77
648.824	5.77
648.857	24.77
648.891	7.77
648.924	0.77
648.957	4.77
648.991	-6.23
649.024	-1.23
649.057	6.77
649.091	-0.23
649.124	-7.23
649.158	-1.23
649.191	18.77
649.224	21.77
649.258	5.77
649.291	-2.23
649.324	0.77
649.358	-5.23
649.391	-4.23
649.424	-1.23
649.458	19.77
649.491	5.77
649.524	-14.23
649.557	5.77
649.591	-0.23
649.624	14.77
649.657	-11.23
649.691	9.77
649.724	5.77
649.757	5.77
649.791	-15.23
649.824	10.77
649.857	1.77
649.89	-4.23
649.924	-13.23
649.957	-8.23
649.99	-11.23
650.023	-3.23
650.057	-12.23
650.09	-8.23
650.123	6.77
650.157	16.77
650.19	17.77
650.223	-8.23
650.256	-12.23
650.29	-10.23
650.323	-6.23
650.356	12.77
650.389	-7.23
650.423	-9.23
650.456	-15.23
650.489	2.77
650.522	10.77
650.555	9.77
650.589	18.77
650.622	0.77
650.655	16.77
650.688	8.77
650.721	6.77
650.755	16.77
650.788	10.77
650.821	-0.23
650.854	-1.23
650.887	-4.23
650.921	-14.23
650.954	-2.23
650.987	-1.23
651.02	-3.23
651.053	-12.23
651.087	-10.23
651.12	21.77
651.153	-5.23
651.186	-18.23
651.219	-5.23
651.252	3.77
651.286	-2.23
651.319	-9.23
651.352	-0.23
651.385	-7.23
651.418	-2.23
651.451	4.77
651.484	-4.23
651.518	-8.23
651.551	14.77
651.584	4.77
651.617	11.77
651.65	15.77
651.683	4.77
651.716	-9.23
651.749	-10.23
651.783	7.77
651.816	6.77
651.849	5.77
651.882	-5.23
651.915	-5.23
651.948	6.77
651.981	-7.23
652.014	-23.23
652.047	-23.23
652.08	-16.23
652.114	-3.23
652.147	-13.23
652.18	5.77
652.213	25.77
652.246	-10.23
652.279	-19.23
652.312	12.77
652.345	-2.23
652.378	-0.23
652.411	9.77
652.444	13.77
652.477	4.77
652.51	-9.23
652.543	-29.23
652.576	-10.23
652.609	-4.23
652.642	-7.23
652.675	13.77
652.709	-13.23
652.742	9.77
652.775	-0.23
652.808	13.77
652.841	0.77
652.874	-3.23
652.907	-5.23
652.94	-2.23
652.973	-3.23
653.006	-7.23
653.039	-8.23
653.072	11.77
653.105	-0.23
653.138	-11.23
653.171	2.77
653.204	-9.23
653.237	-1.23
653.27	-11.23
653.303	5.77
653.336	-3.23
653.368	6.77
653.401	-1.23
653.434	-5.23
653.467	11.77
653.5	-28.23
653.533	-23.23
653.566	-8.23
653.599	-0.23
653.632	17.77
653.665	12.77
653.698	-13.23
653.731	2.77
653.764	7.77
653.797	-20.23
653.83	-12.23
653.863	-14.23
653.896	11.77
653.929	19.77
653.961	1.77
653.994	1.77
654.027	-4.23
654.06	4.77
654.093	-6.23
654.126	3.77
654.159	-18.23
654.192	-3.23
654.225	1.77
654.258	4.77
654.29	-17.23
654.323	-5.23
654.356	-10.23
654.389	5.77
654.422	4.77
654.455	-2.23
654.488	-0.23
654.521	-17.23
654.553	-8.23
654.586	2.77
654.619	-9.23
654.652	-1.23
654.685	11.77
654.718	3.77
654.751	0.77
654.783	-4.23
654.816	15.77
654.849	3.77
654.882	0.77
654.915	-26.23
654.948	-1.23
654.98	-16.23
655.013	1.77
655.046	4.77
655.079	4.77
655.112	9.77
655.144	-5.23
655.177	3.77
655.21	6.77
655.243	18.77
655.276	15.77
655.308	-18.23
655.341	5.77
655.374	11.77
655.407	-3.23
655.44	-11.23
655.472	2.77
655.505	20.77
655.538	-2.23
655.571	15.77
655.603	7.77
655.636	0.77
655.669	20.77
655.702	21.77
655.734	-9.23
655.767	11.77
655.8	20.77
655.833	26.77
655.865	44.77
655.898	26.77
655.931	42.77
655.964	34.77
655.996	41.77
656.029	72.77
656.062	61.77
656.095	60.77
656.127	62.77
656.16	112.77
656.193	129.77
656.225	176.77
656.258	269.77
656.291	504.77
656.324	1133.77
656.356	3385.77
656.389	7516.77
656.422	6020.77
656.454	2072.77
656.487	684.77
656.52	265.77
656.552	114.77
656.585	74.77
656.618	57.77
656.65	32.77
656.683	29.77
656.716	19.77
656.748	12.77
656.781	-2.23
656.814	11.77
656.846	1.77
656.879	-22.23
656.912	1.77
656.944	-17.23
656.977	-6.23
657.01	9.77
657.042	-9.23
657.075	11.77
657.108	0.77
657.14	0.77
657.173	17.77
657.205	24.77
657.238	4.77
657.271	1.77
657.303	-4.23
657.336	-11.23
657.369	-9.23
657.401	-11.23
657.434	0.77
657.466	0.77
657.499	-5.23
657.532	4.77
657.564	0.77
657.597	-2.23
657.629	12.77
657.662	-2.23
657.694	-9.23
657.727	-16.23
657.76	8.77
657.792	-14.23
657.825	-11.23
657.857	1.77
657.89	-1.23
657.922	-3.23
657.955	1.77
657.987	-4.23
658.02	19.77
658.053	-5.23
658.085	-10.23
658.118	2.77
658.15	3.77
658.183	6.77
658.215	-7.23
658.248	-4.23
658.28	-26.23
658.313	14.77
658.345	13.77
658.378	-4.23
658.41	4.77
658.443	4.77
658.475	2.77
658.508	-8.23
658.54	-17.23
658.573	-3.23
658.605	8.77
658.638	-2.23
658.67	-1.23
658.703	-15.23
658.735	-18.23
658.768	-6.23
658.8	-12.23
658.833	-7.23
658.865	-6.23
658.898	3.77
658.93	-11.23
658.963	-11.23
658.995	-13.23
659.028	0.77
659.06	-6.23
659.092	-19.23
659.125	-21.23
659.157	4.77
659.19	-8.23
659.222	-7.23
659.255	-2.23
659.287	9.77
659.32	5.77
659.352	1.77
659.384	7.77
659.417	-7.23
659.449	13.77
659.482	9.77
659.514	-10.23
659.546	1.77
659.579	-16.23
659.611	-9.23
659.644	-1.23
659.676	-25.23
659.708	-6.23
659.741	-17.23
659.773	-2.23
659.806	-6.23
659.838	-4.23
659.87	-1.23
659.903	-5.23
659.935	-0.23
659.967	-0.23
660	5.77
660.032	-29.23
660.065	6.77
660.097	-11.23
660.129	-6.23
660.162	-15.23
660.194	-10.23
660.226	9.77
660.259	-0.23
660.291	-3.23
660.323	-19.23
660.356	-19.23
660.388	-16.23
660.42	-15.23
660.453	17.77
660.485	20.77
660.517	1.77
660.55	7.77
660.582	-6.23
660.614	-8.23
660.647	-19.23
660.679	-12.23
660.711	3.77
660.743	-13.23
660.776	15.77
660.808	8.77
660.84	-2.23
660.873	3.77
660.905	4.77
660.937	-0.23
660.969	-3.23
661.002	-0.23
661.034	2.77
661.066	8.77
661.099	6.77
661.131	6.77
661.163	-2.23
661.195	-9.23
661.228	-1.23
661.26	-12.23
661.292	-13.23
661.324	2.77
661.357	-8.23
661.389	-3.23
661.421	6.77
661.453	-23.23
661.485	-3.23
661.518	3.77
661.55	-19.23
661.582	-16.23
661.614	-13.23
661.647	-3.23
661.679	-3.23
661.711	18.77
661.743	-7.23
661.775	2.77
661.808	9.77
661.84	-11.23
661.872	0.77
661.904	-11.23
661.936	2.77
661.969	-19.23
662.001	-3.23
662.033	-3.23
662.065	-12.23
662.097	-2.23
662.129	1.77
662.162	-15.23
662.194	-2.23
662.226	-11.23
662.258	5.77
662.29	9.77
662.322	-2.23
662.355	-17.23
662.387	23.77
662.419	2.77
662.451	6.77
662.483	-3.23
662.515	-9.23
662.547	-13.23
662.58	-11.23
662.612	-19.23
662.644	-10.23
662.676	7.77
662.708	12.77
662.74	-3.23
662.772	-2.23
662.804	10.77
662.836	1.77
662.869	-0.23
662.901	-2.23
662.933	-1.23
662.965	0.77
662.997	-2.23
663.029	-16.23
663.061	-4.23
663.093	4.77
663.125	1.77
663.157	5.77
663.189	3.77
663.221	4.77
663.254	-2.23
663.286	10.77
663.318	-22.23
663.35	-23.23
663.382	-9.23
663.414	8.77
663.446	12.77
663.478	-22.23
663.51	10.77
663.542	-7.23
663.574	-9.23
663.606	2.77
663.638	3.77
663.67	-10.23
663.702	-6.23
663.734	-7.23
663.766	-4.23
663.798	-21.23
663.83	-1.23
663.862	-6.23
663.894	8.77
663.926	5.77
663.958	21.77
663.99	2.77
664.022	1.77
664.054	7.77
664.086	-4.23
664.118	-20.23
664.15	-7.23
664.182	0.77
664.214	-14.23
664.246	4.77
664.278	-2.23
664.31	3.77
664.342	4.77
664.374	-10.23
664.406	-8.23
664.438	-11.23
664.47	19.77
664.502	-10.23
664.534	-11.23
664.566	-10.23
664.598	7.77
664.63	-15.23
664.662	9.77
664.693	-0.23
664.725	4.77
664.757	-3.23
664.789	-7.23
664.821	-9.23
664.853	-6.23
664.885	0.77
664.917	-1.23
664.949	12.77
664.981	5.77
665.013	-1.23
665.045	-7.23
665.076	-0.23
665.108	5.77
665.14	6.77
665.172	-18.23
665.204	-0.23
665.236	-0.23
665.268	18.77
665.3	-3.23
665.331	-10.23
665.363	3.77
665.395	-6.23
665.427	-22.23
665.459	1.77
665.491	-5.23
665.523	2.77
665.555	0.77
665.586	7.77
665.618	-0.23
665.65	-13.23
665.682	5.77
665.714	10.77
665.746	0.77
665.777	5.77
665.809	-2.23
665.841	2.77
665.873	4.77
665.905	-3.23
665.937	6.77
665.968	14.77
666	4.77
666.032	-12.23
666.064	3.77
666.096	2.77
666.127	-2.23
666.159	-9.23
666.191	-2.23
666.223	4.77
666.255	8.77
666.286	2.77
666.318	15.77
666.35	31.77
666.382	9.77
666.413	-16.23
666.445	-23.23
666.477	-14.23
666.509	3.77
666.54	7.77
666.572	6.77
666.604	-1.23
666.636	-13.23
666.667	15.77
666.699	11.77
666.731	0.77
666.763	-14.23
666.794	-2.23
666.826	-8.23
666.858	-7.23
666.89	-7.23
666.921	-8.23
666.953	1.77
666.985	0.77
667.017	19.77
667.048	-10.23
667.08	-2.23
667.112	-3.23
667.143	-24.23
667.175	-0.23
667.207	2.77
667.238	-1.23
667.27	-15.23
667.302	-10.23
667.334	-2.23
667.365	13.77
667.397	-0.23
667.429	-2.23
667.46	10.77
667.492	1.77
667.524	-3.23
667.555	-15.23
667.587	-18.23
667.619	-6.23
667.65	-12.23
667.682	-3.23
667.714	0.77
667.745	1.77
667.777	9.77
667.808	7.77
667.84	2.77
667.872	-1.23
667.903	11.77
667.935	-6.23
667.967	-9.23
667.998	5.77
668.03	0.77
668.061	-15.23
668.093	2.77
668.125	4.77
668.156	3.77
668.188	17.77
668.22	-2.23
668.251	7.77
668.283	3.77
668.314	5.77
668.346	-16.23
668.377	-3.23
668.409	-9.23
668.441	-15.23
668.472	-1.23
668.504	5.77
668.535	-1.23
668.567	11.77
668.599	9.77
668.63	2.77
668.662	2.77
668.693	15.77
668.725	-4.23
668.756	8.77
668.788	-3.23
668.819	6.77
668.851	-15.23
668.882	-2.23
668.914	-4.23
668.946	-14.23
668.977	-24.23
669.009	-18.23
669.04	-28.23
669.072	1.77
669.103	0.77
669.135	1.77
669.166	0.77
669.198	-13.23
669.229	-0.23
669.261	-11.23
669.292	-3.23
669.324	6.77
669.355	-6.23
669.387	-18.23
669.418	6.77
669.45	-10.23
669.481	13.77
669.513	8.77
669.544	0.77
669.576	-13.23
669.607	2.77
669.639	14.77
669.67	-9.23
669.701	17.77
669.733	-8.23
669.764	-8.23
669.796	-0.23
669.827	-4.23
669.859	-11.23
669.89	-3.23
669.922	6.77
669.953	-0.23
669.985	-3.23
670.016	16.77
670.047	-0.23
670.079	2.77
670.11	14.77
670.142	-10.23
670.173	-0.23
670.204	-13.23
670.236	14.77
670.267	-11.23
670.299	-3.23
670.33	11.77
670.362	7.77
670.393	0.77
670.424	11.77
670.456	-20.23
670.487	-7.23
670.518	1.77
670.55	-1.23
670.581	4.77
670.613	3.77
670.644	-22.23
670.675	-16.23
670.707	-16.23
670.738	-2.23
670.769	-19.23
670.801	-35.23
670.832	-7.23
670.864	-9.23
670.895	-1.23
670.926	2.77
670.958	-5.23
670.989	-4.23
671.02	-1.23
671.052	-14.23
671.083	-2.23
671.114	-7.23
671.146	-0.23
671.177	0.77
671.208	-2.23
671.24	-21.23
671.271	-2.23
671.302	5.77
671.333	-13.23
671.365	-19.23
671.396	-4.23
671.427	-1.23
671.459	-6.23
671.49	8.77
671.521	4.77
671.553	9.77
671.584	4.77
671.615	-13.23
671.646	4.77
671.678	5.77
671.709	-12.23
671.74	-11.23
671.771	-15.23
671.803	-4.23
671.834	12.77
671.865	-1.23
671.896	17.77
671.928	-10.23
671.959	-8.23
671.99	-16.23
672.021	-9.23
672.053	-7.23
672.084	9.77
672.115	1.77
672.146	-15.23
672.178	-7.23
672.209	-13.23
672.24	-11.23
672.271	11.77
672.303	-9.23
672.334	3.77
672.365	-17.23
672.396	6.77
672.427	-18.23
672.459	4.77
672.49	23.77
672.521	-10.23
672.552	6.77
672.583	0.77
672.615	-2.23
672.646	12.77
672.677	-7.23
672.708	1.77
672.739	3.77
672.77	1.77
672.802	16.77
672.833	4.77
672.864	-6.23
672.895	-7.23
672.926	2.77
672.957	-19.23
672.989	1.77
673.02	3.77
673.051	-8.23
673.082	-6.23
673.113	3.77
673.144	-0.23
673.175	-11.23
673.206	-15.23
673.238	-16.23
673.269	0.77
673.3	-23.23
673.331	-8.23
673.362	-10.23
673.393	-14.23
673.424	1.77
673.455	11.77
673.487	0.77
673.518	1.77
673.549	-8.23
673.58	1.77
673.611	-10.23
673.642	-22.23
673.673	-22.23
673.704	-13.23
673.735	-7.23
673.766	-9.23
673.797	-4.23
673.828	-2.23
673.86	-9.23
673.891	-4.23
673.922	-11.23
673.953	-8.23
673.984	7.77
674.015	13.77
674.046	-1.23
674.077	9.77
674.108	-14.23
674.139	-7.23
674.17	-11.23
674.201	-26.23
674.232	-1.23
674.263	-12.23
674.294	-15.23
674.325	-8.23
674.356	-1.23
674.387	6.77
674.418	-6.23
674.449	-6.23
674.48	-10.23
674.511	14.77
674.542	-7.23
674.573	-9.23
674.604	0.77
674.635	-4.23
674.666	-3.23
674.697	-4.23
674.728	1.77
674.759	10.77
674.79	-9.23
674.821	-22.23
674.852	-22.23
674.883	-9.23
674.914	-9.23
674.945	-14.23
674.976	-7.23
675.007	-17.23
675.038	4.77
675.069	-24.23
675.1	-23.23
675.131	-0.23
675.162	-11.23
675.193	-8.23
675.224	-19.23
675.254	8.77
675.285	-7.23
675.316	-5.23
675.347	-10.23
675.378	-8.23
675.409	-26.23
675.44	3.77
675.471	-6.23
675.502	-2.23
675.533	-6.23
675.564	-8.23
675.595	-5.23
675.625	19.77
675.656	13.77
675.687	-9.23
675.718	-10.23
675.749	4.77
675.78	1.77
675.811	-3.23
675.842	-8.23
675.873	0.77
675.903	-0.23
675.934	-5.23
675.965	7.77
675.996	-10.23
676.027	1.77
676.058	-8.23
676.089	-7.23
676.119	4.77
676.15	0.77
676.181	-7.23
676.212	-12.23
676.243	4.77
676.274	-2.23
676.304	16.77
676.335	-9.23
676.366	-3.23
676.397	-11.23
676.428	1.77
676.459	-7.23
676.489	16.77
676.52	-1.23
676.551	-0.23
676.582	-10.23
676.613	-5.23
676.643	-11.23
676.674	1.77
676.705	-9.23
676.736	7.77
676.767	8.77
676.797	10.77
676.828	11.77
676.859	-7.23
676.89	-3.23
676.92	-0.23
676.951	13.77
676.982	9.77
677.013	-0.23
677.044	9.77
677.074	-4.23
677.105	-2.23
677.136	-11.23
677.167	-0.23
677.197	0.77
677.228	1.77
677.259	-5.23
677.289	-6.23
677.32	-8.23
677.351	-11.23
677.382	-2.23
677.412	-7.23
677.443	-4.23
677.474	0.77
677.505	-8.23
677.535	5.77
677.566	-1.23
677.597	-10.23
677.627	-14.23
677.658	-13.23
677.689	-4.23
677.72	0.77
677.75	-0.23
677.781	-19.23
677.812	5.77
677.842	-0.23
677.873	-12.23
677.904	-19.23
677.934	-5.23
677.965	-14.23
677.996	-17.23
678.026	-2.23
678.057	-10.23
678.088	-3.23
678.118	-11.23
678.149	-4.23
678.18	0.77
678.21	5.77
678.241	-0.23
678.272	3.77
678.302	-9.23
678.333	-1.23
678.363	-6.23
678.394	-7.23
678.425	-9.23
678.455	-5.23
678.486	6.77
678.517	-12.23
678.547	-5.23
678.578	0.77
678.608	-19.23
678.639	16.77
678.67	4.77
678.7	-12.23
678.731	-12.23
678.761	-5.23
678.792	2.77
678.823	1.77
678.853	8.77
678.884	-24.23
678.914	8.77
678.945	-1.23
678.975	-14.23
679.006	7.77
679.037	5.77
679.067	21.77
679.098	11.77
679.128	-14.23
679.159	-2.23
679.189	1.77
679.22	-6.23
679.25	-3.23
679.281	0.77
679.312	-17.23
679.342	-7.23
679.373	13.77
679.403	-11.23
679.434	16.77
679.464	-4.23
679.495	-0.23
679.525	1.77
679.556	-3.23
679.586	17.77
679.617	-0.23
679.647	-10.23
679.678	-6.23
679.708	5.77
679.739	-3.23
679.769	4.77
679.8	0.77
679.83	-0.23
679.861	15.77
679.891	-13.23
679.922	-19.23
679.952	-6.23
679.983	-3.23
680.013	-5.23
680.044	-11.23
680.074	2.77
680.105	10.77
680.135	-13.23
680.165	20.77
680.196	11.77
680.226	9.77
680.257	-11.23
680.287	-3.23
680.318	-7.23
680.348	-2.23
680.379	8.77
680.409	0.77
680.439	-8.23
680.47	8.77
680.5	-6.23
680.531	2.77
680.561	1.77
680.592	3.77
680.622	3.77
680.652	13.77
680.683	-0.23
680.713	-3.23
680.744	-10.23
680.774	-11.23
680.804	30.77
680.835	-6.23
680.865	-10.23
680.896	8.77
680.926	4.77
680.956	5.77
680.987	-9.23
681.017	-13.23
681.047	-3.23
681.078	-19.23
681.108	-7.23
681.139	0.77
681.169	0.77
681.199	-17.23
681.23	1.77
681.26	-12.23
681.29	-5.23
681.321	-5.23
681.351	-1.23
681.381	-22.23
681.412	-6.23
681.442	-8.23
681.472	15.77
681.503	5.77
681.533	1.77
681.563	-14.23
681.594	-10.23
681.624	4.77
681.654	-8.23
681.685	-0.23
681.715	5.77
681.745	-9.23
681.775	-7.23
681.806	-15.23
681.836	-5.23
681.866	2.77
681.897	-0.23
681.927	0.77
681.957	-18.23
681.987	-14.23
682.018	-3.23
682.048	-3.23
682.078	11.77
682.109	9.77
682.139	12.77
682.169	1.77
682.199	0.77
682.23	-4.23
682.26	-2.23
682.29	-11.23
682.32	-4.23
682.351	-13.23
682.381	-8.23
682.411	2.77
682.441	-10.23
682.472	-2.23
682.502	-9.23
682.532	-18.23
682.562	5.77
682.592	-4.23
682.623	0.77
682.653	-0.23
682.683	-2.23
682.713	-15.23
682.743	-12.23
682.774	-15.23
682.804	-1.23
682.834	16.77
682.864	6.77
682.894	-6.23
682.925	-0.23
682.955	-1.23
682.985	-13.23
683.015	11.77
683.045	12.77
683.076	-2.23
683.106	3.77
683.136	-29.23
683.166	-23.23
683.196	-12.23
683.226	0.77
683.257	-10.23
683.287	-19.23
683.317	-2.23
683.347	-11.23
683.377	-12.23
683.407	16.77
683.437	19.77
683.468	10.77
683.498	-5.23
683.528	-5.23
683.558	5.77
683.588	-9.23
683.618	1.77
683.648	-19.23
683.678	0.77
683.708	-8.23
683.739	3.77
683.769	5.77
683.799	4.77
683.829	-3.23
683.859	8.77
683.889	14.77
683.919	-3.23
683.949	-5.23
683.979	-13.23
684.009	3.77
684.039	3.77
684.07	-7.23
684.1	-1.23
684.13	8.77
684.16	-0.23
684.19	9.77
684.22	-1.23
684.25	2.77
684.28	-4.23
684.31	9.77
684.34	6.77
684.37	10.77
684.4	-5.23
684.43	1.77
684.46	8.77
684.49	12.77
684.52	3.77
684.55	-5.23
684.58	8.77
684.61	0.77
684.64	16.77
684.67	0.77
684.7	-4.23
684.73	-3.23
684.76	1.77
684.79	8.77
684.82	0.77
684.85	-7.23
684.88	8.77
684.91	1.77
684.94	9.77
684.97	-9.23
685	-7.23
685.03	-17.23
685.06	-25.23
685.09	-19.23
685.12	16.77
685.15	-21.23
685.18	0.77
685.21	-3.23
685.24	-1.23
685.27	8.77
685.3	-9.23
685.33	1.77
685.36	-6.23
685.39	-0.23
685.42	-5.23
685.45	-5.23
685.48	-13.23
685.51	-6.23
685.54	8.77
685.569	12.77
685.599	-0.23
685.629	-7.23
685.659	2.77
685.689	4.77
685.719	4.77
685.749	-24.23
685.779	-0.23
685.809	5.77
685.839	-3.23
685.869	-10.23
685.898	1.77
685.928	-0.23
685.958	-4.23
685.988	17.77
686.018	-1.23
686.048	6.77
686.078	21.77
686.108	20.77
686.137	-3.23
686.167	5.77
686.197	-1.23
686.227	3.77
686.257	11.77
686.287	12.77
686.317	2.77
686.346	7.77
686.376	-11.23
686.406	-1.23
686.436	6.77
686.466	-7.23
686.496	-4.23
686.525	2.77
686.555	3.77
686.585	0.77
686.615	23.77
686.645	5.77
686.675	13.77
686.704	16.77
686.734	-4.23
686.764	0.77
686.794	3.77
686.824	-2.23
686.853	9.77
686.883	17.77
686.913	12.77
686.943	-13.23
686.973	-17.23
687.002	-14.23
687.032	-4.23
687.062	0.77
687.092	16.77
687.121	-4.23
687.151	-9.23
687.181	-15.23
687.211	0.77
687.24	3.77
687.27	3.77
687.3	-0.23
687.33	-9.23
687.359	-12.23
687.389	-2.23
687.419	-10.23
687.449	-14.23
687.478	-3.23
687.508	-4.23
687.538	1.77
687.568	-0.23
687.597	-5.23
687.627	2.77
687.657	-8.23
687.686	9.77
687.716	5.77
687.746	-13.23
687.776	-24.23
687.805	3.77
687.835	0.77
687.865	-2.23
687.894	11.77
687.924	-3.23
687.954	11.77
687.983	-11.23
688.013	2.77
688.043	-7.23
688.072	7.77
688.102	7.77
688.132	-8.23
688.161	-5.23
688.191	-9.23
688.221	0.77
688.25	-8.23
688.28	-20.23
688.31	2.77
688.339	8.77
688.369	-8.23
688.399	-9.23
688.428	-13.23
688.458	-4.23
688.488	-2.23
688.517	12.77
688.547	2.77
688.576	24.77
688.606	6.77
688.636	-8.23
688.665	-0.23
688.695	5.77
688.725	14.77
688.754	-3.23
688.784	-15.23
688.813	13.77
688.843	-10.23
688.873	-7.23
688.902	-0.23
688.932	-15.23
688.961	-5.23
688.991	28.77
689.02	12.77
689.05	-9.23
689.08	10.77
689.109	20.77
689.139	-9.23
689.168	-10.23
689.198	-15.23
689.227	-8.23
689.257	-11.23
689.287	10.77
689.316	10.77
689.346	-15.23
689.375	-24.23
689.405	4.77
689.434	-8.23
689.464	6.77
689.493	-0.23
689.523	-21.23
689.552	-7.23
689.582	-2.23
689.611	-1.23
689.641	10.77
689.67	-5.23
689.7	4.77
689.73	0.77
689.759	10.77
689.789	13.77
689.818	3.77
689.848	-15.23
689.877	0.77
689.906	-5.23
689.936	-4.23
689.965	-14.23
689.995	15.77
690.024	2.77
690.054	-18.23
690.083	4.77
690.113	-16.23
690.142	-3.23
690.172	7.77
690.201	8.77
690.231	14.77
690.26	14.77
690.29	-3.23
690.319	7.77
690.348	-12.23
690.378	-1.23
690.407	4.77
690.437	12.77
690.466	-5.23
690.496	-6.23
690.525	11.77
690.555	-8.23
690.584	-0.23
690.613	-3.23
690.643	-8.23
690.672	13.77
690.702	4.77
690.731	-10.23
690.76	0.77
690.79	-0.23
690.819	-4.23
690.849	19.77
690.878	-7.23
690.907	6.77
690.937	16.77
690.966	8.77
690.996	2.77
691.025	8.77
691.054	-10.23
691.084	6.77
691.113	-2.23
691.142	8.77
691.172	-1.23
691.201	5.77
691.23	9.77
691.26	-4.23
691.289	15.77
691.319	-10.23
691.348	3.77
691.377	21.77
691.407	-0.23
691.436	4.77
691.465	-1.23
691.495	-5.23
691.524	-5.23
691.553	-7.23
691.583	2.77
691.612	1.77
691.641	1.77
691.67	-9.23
691.7	-2.23
691.729	-22.23
691.758	-13.23
691.788	-0.23
691.817	-2.23
691.846	-20.23
691.876	-11.23
691.905	3.77
691.934	3.77
691.963	15.77
691.993	0.77
692.022	-4.23
692.051	-8.23
692.081	5.77
692.11	7.77
692.139	0.77
692.168	-5.23
692.198	7.77
692.227	0.77
692.256	-3.23
692.285	2.77
692.315	-0.23
692.344	1.77
692.373	-2.23
692.402	-19.23
692.432	-3.23
692.461	-9.23
692.49	-16.23
692.519	14.77
692.548	16.77
692.578	22.77
692.607	-6.23
692.636	-19.23
692.665	8.77
692.694	-3.23
692.724	-1.23
692.753	15.77
692.782	4.77
692.811	5.77
692.84	-1.23
692.87	-4.23
692.899	-7.23
692.928	-4.23
692.957	7.77
692.986	15.77
693.016	6.77
693.045	0.77
693.074	-1.23
693.103	-6.23
693.132	-1.23
693.161	7.77
693.191	-3.23
693.22	-16.23
693.249	8.77
693.278	-2.23
693.307	28.77
693.336	-10.23
693.365	-27.23
693.395	-8.23
693.424	-2.23
693.453	4.77
693.482	3.77
693.511	8.77
693.54	-4.23
693.569	-1.23
693.598	-10.23
693.628	12.77
693.657	16.77
693.686	9.77
693.715	19.77
693.744	10.77
693.773	19.77
693.802	11.77
693.831	-13.23
693.86	-0.23
693.889	-2.23
693.919	-4.23
693.948	-8.23
693.977	8.77
694.006	-19.23
694.035	-6.23
694.064	-3.23
694.093	-1.23
694.122	-3.23
694.151	-15.23
694.18	5.77
694.209	2.77
694.238	-7.23
694.267	13.77
694.296	2.77
694.325	2.77
694.354	4.77
694.383	-7.23
694.412	-3.23
694.441	1.77
694.471	0.77
694.5	13.77
694.529	8.77
694.558	18.77
694.587	7.77
694.616	-9.23
694.645	13.77
694.674	13.77
694.703	3.77
694.732	-7.23
694.761	15.77
694.79	1.77
694.819	-6.23
694.848	-6.23
694.877	13.77
694.906	22.77
694.935	-0.23
694.963	15.77
694.992	-9.23
695.021	7.77
695.05	10.77
695.079	-6.23
695.108	-1.23
695.137	10.77
695.166	19.77
695.195	5.77
695.224	2.77
695.253	3.77
695.282	2.77
695.311	10.77
695.34	-4.23
695.369	8.77
695.398	-9.23
695.427	1.77
695.456	4.77
695.485	0.77
695.513	5.77
695.542	-1.23
695.571	-12.23
695.6	30.77
695.629	-6.23
695.658	-2.23
695.687	-4.23
695.716	-1.23
695.745	20.77
695.774	-6.23
695.802	-14.23
695.831	9.77
695.86	4.77
695.889	15.77
695.918	-4.23
695.947	-1.23
695.976	-11.23
696.005	-1.23
696.033	-11.23
696.062	2.77
696.091	10.77
696.12	4.77
696.149	20.77
696.178	0.77
696.207	-1.23
696.235	-30.23
696.264	8.77
696.293	1.77
696.322	8.77
696.351	17.77
696.38	0.77
696.408	6.77
696.437	-6.23
696.466	8.77
696.495	14.77
696.524	-3.23
696.553	-0.23
696.581	9.77
696.61	3.77
696.639	-2.23
696.668	5.77
696.697	9.77
696.725	-5.23
696.754	6.77
696.783	-12.23
696.812	8.77
696.84	6.77
696.869	-2.23
696.898	-11.23
696.927	-8.23
696.956	4.77
696.984	-19.23
697.013	3.77
697.042	-10.23
697.071	5.77
697.099	20.77
697.128	-11.23
697.157	-13.23
697.186	-6.23
697.214	0.77
697.243	-8.23
697.272	-5.23
697.301	15.77
697.329	4.77
697.358	3.77
697.387	7.77
697.415	3.77
697.444	7.77
697.473	-4.23
697.502	-9.23
697.53	-6.23
697.559	-4.23
697.588	3.77
697.616	1.77
697.645	-3.23
697.674	10.77
697.703	-8.23
697.731	4.77
697.76	-12.23
697.789	9.77
697.817	1.77
697.846	7.77
697.875	5.77
697.903	7.77
697.932	14.77
697.961	2.77
697.989	14.77
698.018	-2.23
698.047	-0.23
698.075	5.77
698.104	-4.23
698.133	3.77
698.161	-10.23
698.19	0.77
698.218	12.77
698.247	1.77
698.276	-0.23
698.304	2.77
698.333	5.77
698.362	7.77
698.39	1.77
698.419	-4.23
698.447	-14.23
698.476	-7.23
698.505	11.77
698.533	17.77
698.562	-2.23
698.591	-1.23
698.619	-3.23
698.648	3.77
698.676	-6.23
698.705	-1.23
698.733	-18.23
698.762	1.77
698.791	3.77
698.819	-17.23
698.848	-8.23
698.876	7.77
698.905	-3.23
698.933	9.77
698.962	7.77
698.991	11.77
699.019	18.77
699.048	2.77
699.076	3.77
699.105	7.77
699.133	0.77
699.162	11.77
699.19	29.77
699.219	9.77
699.248	5.77
699.276	-6.23
699.305	4.77
699.333	15.77
699.362	4.77
699.39	9.77
699.419	-15.23
699.447	8.77
699.476	9.77
699.504	-8.23
699.533	-16.23
699.561	-3.23
699.59	7.77
699.618	14.77
699.647	3.77
699.675	5.77
699.704	-4.23
699.732	-2.23
699.761	17.77
699.789	13.77
699.818	9.77
699.846	-4.23
699.874	-5.23
699.903	0.77
699.931	-2.23
699.96	-7.23
699.988	-1.23
700.017	6.77
700.045	-3.23
700.074	-3.23
700.102	-10.23
700.13	-6.23
700.159	-12.23
700.187	6.77
700.216	16.77
700.244	-2.23
700.273	-1.23
700.301	0.77
700.329	23.77
700.358	3.77
700.386	-13.23
700.415	-9.23
700.443	-6.23
700.472	-4.23
700.5	-3.23
700.528	0.77
700.557	12.77
700.585	-4.23
700.614	-3.23
700.642	7.77
700.67	10.77
700.699	3.77
700.727	2.77
700.755	-6.23
700.784	-4.23
700.812	-6.23
700.841	-4.23
700.869	-9.23
700.897	-25.23
700.926	-11.23
700.954	-4.23
700.982	15.77
701.011	-9.23
701.039	-4.23
701.067	0.77
701.096	-2.23
701.124	-1.23
701.152	10.77
701.181	1.77
701.209	-7.23
701.237	5.77
701.266	-9.23
701.294	-0.23
701.322	-0.23
701.351	10.77
701.379	-5.23
701.407	-22.23
701.435	2.77
701.464	6.77
701.492	24.77
701.52	-2.23
701.549	-3.23
701.577	-26.23
701.605	-7.23
701.634	-0.23
701.662	13.77
701.69	-2.23
701.718	-17.23
701.747	2.77
701.775	-11.23
701.803	-8.23
701.831	15.77
701.86	-4.23
701.888	-1.23
701.916	-2.23
701.944	-2.23
701.973	5.77
702.001	-14.23
702.029	-5.23
702.057	-25.23
702.086	-9.23
702.114	-20.23
702.142	-2.23
702.17	-19.23
702.199	-1.23
702.227	-3.23
702.255	-3.23
702.283	-3.23
702.311	-0.23
702.34	-3.23
702.368	-11.23
702.396	-14.23
702.424	0.77
702.452	10.77
702.481	-0.23
702.509	8.77
702.537	-5.23
702.565	7.77
702.593	-17.23
702.621	-14.23
702.65	6.77
702.678	4.77
702.706	-2.23
702.734	-8.23
702.762	0.77
702.79	3.77
702.819	-6.23
702.847	-0.23
702.875	30.77
702.903	-3.23
702.931	-19.23
702.959	-1.23
702.988	15.77
703.016	-2.23
703.044	8.77
703.072	-1.23
703.1	-14.23
703.128	-6.23
703.156	4.77
703.184	-3.23
703.212	5.77
703.241	-1.23
703.269	0.77
703.297	-16.23
703.325	-14.23
703.353	-6.23
703.381	-11.23
703.409	0.77
703.437	-10.23
703.465	-18.23
703.493	-15.23
703.522	0.77
703.55	-0.23
703.578	-5.23
703.606	-15.23
703.634	-9.23
703.662	-11.23
703.69	-15.23
703.718	-4.23
703.746	6.77
703.774	-4.23
703.802	20.77
703.83	-4.23
703.858	0.77
703.886	-19.23
703.914	-6.23
703.942	-3.23
703.97	-10.23
703.998	-15.23
704.027	14.77
704.055	-1.23
704.083	0.77
704.111	8.77
704.139	-5.23
704.167	-11.23
704.195	-6.23
704.223	-6.23
704.251	-3.23
704.279	-0.23
704.307	-8.23
704.335	-6.23
704.363	-4.23
704.391	-7.23
704.419	-8.23
704.447	-12.23
704.475	-11.23
704.503	-25.23
704.531	14.77
704.558	11.77
704.586	1.77
704.614	4.77
704.642	4.77
704.67	0.77
704.698	-6.23
704.726	-8.23
704.754	6.77
704.782	5.77
704.81	3.77
704.838	25.77
704.866	6.77
704.894	-8.23
704.922	2.77
704.95	18.77
704.978	-2.23
705.006	3.77
705.034	1.77
705.061	-8.23
705.089	6.77
705.117	-10.23
705.145	-10.23
705.173	-4.23
705.201	8.77
705.229	-6.23
705.257	-11.23
705.285	4.77
705.313	7.77
705.34	0.77
705.368	-9.23
705.396	-2.23
705.424	2.77
705.452	1.77
705.48	12.77
705.508	-4.23
705.536	1.77
705.563	-6.23
705.591	1.77
705.619	4.77
705.647	-11.23
705.675	2.77
705.703	-11.23
705.731	-10.23
705.758	-19.23
705.786	-1.23
705.814	-0.23
705.842	4.77
705.87	5.77
705.898	16.77
705.925	-3.23
705.953	-1.23
705.981	-11.23
706.009	4.77
706.037	-2.23
706.065	-3.23
706.092	-0.23
706.12	6.77
706.148	-11.23
706.176	2.77
706.204	2.77
706.231	4.77
706.259	-9.23
706.287	-0.23
706.315	1.77
706.342	-9.23
706.37	7.77
706.398	-17.23
706.426	5.77
706.454	6.77
706.481	7.77
706.509	-14.23
706.537	-6.23
706.565	-8.23
706.592	-9.23
706.62	3.77
706.648	-7.23
706.676	2.77
706.703	-3.23
706.731	-7.23
706.759	-24.23
706.787	-10.23
706.814	-4.23
706.842	8.77
706.87	-8.23
706.897	2.77
706.925	-16.23
706.953	-3.23
706.981	11.77
707.008	2.77
707.036	-0.23
707.064	-15.23
707.091	-12.23
707.119	10.77
707.147	5.77
707.174	-6.23
707.202	11.77
707.23	3.77
707.258	7.77
707.285	-7.23
707.313	-5.23
707.341	-18.23
707.368	-4.23
707.396	-6.23
707.424	9.77
707.451	7.77
707.479	4.77
707.507	-2.23
707.534	-2.23
707.562	-12.23
707.59	-8.23
707.617	0.77
707.645	-3.23
707.672	-4.23
707.7	-1.23
707.728	15.77
707.755	-9.23
707.783	-9.23
707.811	-13.23
707.838	-7.23
707.866	-10.23
707.893	-7.23
707.921	-1.23
707.949	-10.23
707.976	-2.23
708.004	10.77
708.031	-7.23
708.059	2.77
708.087	-15.23
708.114	-8.23
708.142	-9.23
708.169	-10.23
708.197	-20.23
708.225	-16.23
708.252	-8.23
708.28	-3.23
708.307	1.77
708.335	-7.23
708.362	-8.23
708.39	-2.23
708.418	16.77
708.445	-0.23
708.473	3.77
708.5	-4.23
708.528	6.77
708.555	3.77
708.583	2.77
708.61	-2.23
708.638	9.77
708.665	-18.23
708.693	-4.23
708.72	-5.23
708.748	-13.23
708.776	-14.23
708.803	-1.23
708.831	-13.23
708.858	-3.23
708.886	-1.23
708.913	8.77
708.941	-11.23
708.968	12.77
708.996	-0.23
709.023	14.77
709.051	-11.23
709.078	-28.23
709.105	-10.23
709.133	-15.23
709.16	-9.23
709.188	-9.23
709.215	3.77
709.243	-2.23
709.27	-27.23
709.298	-10.23
709.325	4.77
709.353	2.77
709.38	-0.23
709.408	8.77
709.435	2.77
709.462	15.77
709.49	0.77
709.517	-7.23
709.545	-15.23
709.572	-23.23
709.6	-7.23
709.627	2.77
709.655	-18.23
709.682	-8.23
709.709	-3.23
709.737	-7.23
709.764	-31.23
709.792	8.77
709.819	-2.23
709.846	0.77
709.874	3.77
709.901	8.77
709.929	19.77
709.956	-2.23
709.983	-7.23
710.011	-16.23
710.038	2.77
710.066	2.77
710.093	5.77
710.12	-11.23
710.148	-10.23
710.175	-10.23
710.202	-1.23
710.23	-2.23
710.257	6.77
710.284	8.77
710.312	-3.23
710.339	-17.23
710.366	-4.23
710.394	-15.23
710.421	-1.23
710.448	-12.23
710.476	-24.23
710.503	16.77
710.53	12.77
710.558	20.77
710.585	-0.23
710.612	10.77
710.64	-3.23
710.667	-16.23
710.694	-12.23
710.722	-11.23
710.749	-12.23
710.776	-7.23
710.804	9.77
710.831	0.77
710.858	3.77
710.885	2.77
710.913	-6.23
710.94	22.77
710.967	-12.23
710.995	6.77
711.022	-20.23
711.049	2.77
711.076	-16.23
711.104	-7.23
711.131	-14.23
711.158	0.77
711.185	7.77
711.213	-22.23
711.24	-25.23
711.267	-12.23
711.294	-18.23
711.322	10.77
711.349	0.77
711.376	-7.23
711.403	-1.23
711.431	-14.23
711.458	-7.23
711.485	-20.23
711.512	3.77
711.54	-0.23
711.567	-7.23
711.594	-9.23
711.621	-3.23
711.648	-0.23
711.676	-12.23
711.703	-3.23
711.73	-16.23
711.757	-13.23
711.784	0.77
711.812	1.77
711.839	8.77
711.866	-4.23
711.893	-23.23
711.92	15.77
711.947	2.77
711.975	2.77
712.002	-8.23
712.029	6.77
712.056	1.77
712.083	7.77
712.11	-14.23
712.138	-2.23
712.165	-7.23
712.192	5.77
712.219	-2.23
712.246	2.77
712.273	-8.23
712.3	-1.23
712.328	7.77
712.355	-3.23
712.382	-2.23
712.409	4.77
712.436	-10.23
712.463	15.77
712.49	5.77
712.517	5.77
712.544	-7.23
712.572	-0.23
712.599	-25.23
712.626	6.77
712.653	-10.23
712.68	-10.23
712.707	-1.23
712.734	-0.23
712.761	3.77
712.788	-5.23
712.815	3.77
712.842	-7.23
712.87	-16.23
712.897	-6.23
712.924	-19.23
712.951	-2.23
712.978	4.77
713.005	-2.23
713.032	24.77
713.059	-8.23
713.086	-14.23
713.113	-23.23
713.14	-15.23
713.167	5.77
713.194	-1.23
713.221	-8.23
713.248	-2.23
713.275	-7.23
713.302	-24.23
713.329	-3.23
713.356	-5.23
713.383	-4.23
713.41	5.77
713.437	-16.23
713.464	4.77
713.491	7.77
713.518	-3.23
713.545	-8.23
713.572	-5.23
713.599	10.77
713.626	-7.23
713.653	-1.23
713.68	-15.23
713.707	-23.23
713.734	-4.23
713.761	-19.23
713.788	-3.23
713.815	-1.23
713.842	-5.23
713.869	-10.23
713.896	-12.23
713.923	-15.23
713.95	1.77
713.977	-2.23
714.004	-17.23
714.031	-24.23
714.058	-12.23
714.085	10.77
714.112	11.77
714.139	-12.23
714.165	-1.23
714.192	-7.23
714.219	2.77
714.246	1.77
714.273	0.77
714.3	-8.23
714.327	-9.23
714.354	4.77
714.381	-4.23
714.408	-3.23
714.435	-14.23
714.461	-14.23
714.488	-0.23
714.515	-20.23
714.542	-20.23
714.569	8.77
714.596	-14.23
714.623	-10.23
714.65	-19.23
714.677	3.77
714.703	9.77
714.73	4.77
714.757	-5.23
714.784	13.77
714.811	-8.23
714.838	-0.23
714.865	-8.23
714.891	-1.23
714.918	-3.23
714.945	-15.23
714.972	-5.23
714.999	-4.23
715.026	-8.23
715.052	10.77
715.079	-0.23
715.106	-14.23
715.133	-14.23
715.16	-5.23
715.187	2.77
715.213	0.77
715.24	0.77
715.267	-3.23
715.294	-2.23
715.321	4.77
715.347	-12.23
715.374	-14.23
715.401	-10.23
715.428	-6.23
715.455	-7.23
715.481	0.77
715.508	-0.23
715.535	-9.23
715.562	0.77
715.588	-19.23
715.615	-0.23
715.642	-1.23
715.669	8.77
715.695	-4.23
715.722	-15.23
715.749	-8.23
715.776	2.77
715.802	17.77
715.829	-6.23
715.856	-17.23
715.883	4.77
715.909	-12.23
715.936	-17.23
715.963	-11.23
715.99	-10.23
716.016	-10.23
716.043	-4.23
716.07	-10.23
716.096	-19.23
716.123	-3.23
716.15	-8.23
716.177	3.77
716.203	-3.23
716.23	6.77
716.257	14.77
716.283	7.77
716.31	-3.23
716.337	-11.23
716.363	-6.23
716.39	6.77
716.417	10.77
716.443	-0.23
716.47	8.77
716.497	-5.23
716.523	-8.23
716.55	3.77
716.577	16.77
716.603	2.77
716.63	6.77
716.657	11.77
716.683	-8.23
716.71	-8.23
716.737	-11.23
716.763	13.77
716.79	7.77
716.817	9.77
716.843	-9.23
716.87	-11.23
716.897	7.77
716.923	-0.23
716.95	-13.23
716.976	-12.23
717.003	-5.23
717.03	-10.23
717.056	11.77
717.083	12.77
717.109	9.77
717.136	6.77
717.163	-12.23
717.189	-3.23
717.216	1.77
717.242	7.77
717.269	-9.23
717.296	9.77
717.322	8.77
717.349	20.77
717.375	7.77
717.402	1.77
717.428	-13.23
717.455	-8.23
717.481	6.77
717.508	9.77
717.535	-6.23
717.561	1.77
717.588	-14.23
717.614	-8.23
717.641	-9.23
717.667	1.77
717.694	8.77
717.72	-10.23
717.747	-4.23
717.773	-13.23
717.8	-6.23
717.826	2.77
717.853	5.77
717.88	1.77
717.906	7.77
717.933	12.77
717.959	4.77
717.986	-2.23
718.012	4.77
718.039	14.77
718.065	13.77
718.092	0.77
718.118	-7.23
718.144	-2.23
718.171	0.77
718.197	16.77
718.224	-2.23
718.25	-7.23
718.277	13.77
718.303	4.77
718.33	3.77
718.356	-7.23
718.383	-14.23
718.409	-0.23
718.436	-11.23
718.462	-8.23
718.489	-7.23
718.515	5.77
718.541	-1.23
718.568	6.77
718.594	0.77
718.621	3.77
718.647	-13.23
718.674	19.77
718.7	7.77
718.726	-10.23
718.753	7.77
718.779	9.77
718.806	-1.23
718.832	-11.23
718.858	-9.23
718.885	-4.23
718.911	10.77
718.938	11.77
718.964	-0.23
718.99	-4.23
719.017	-8.23
719.043	-8.23
719.07	1.77
719.096	-17.23
719.122	0.77
719.149	-4.23
719.175	-5.23
719.201	-14.23
719.228	-7.23
719.254	-2.23
719.281	-3.23
719.307	-16.23
719.333	-15.23
719.36	19.77
719.386	7.77
719.412	-3.23
719.439	-11.23
719.465	-15.23
719.491	-16.23
719.518	-1.23
719.544	-4.23
719.57	2.77
719.597	-2.23
719.623	-13.23
719.649	12.77
719.675	-22.23
719.702	6.77
719.728	15.77
719.754	-7.23
719.781	-6.23
719.807	0.77
719.833	8.77
719.86	1.77
719.886	3.77
719.912	-13.23
719.938	-27.23
719.965	-9.23
719.991	7.77
720.017	-7.23
720.044	-17.23
720.07	-6.23
720.096	1.77
720.122	-4.23
720.149	7.77
720.175	13.77
720.201	-3.23
720.227	-6.23
720.254	-7.23
720.28	-3.23
720.306	-10.23
720.332	14.77
720.359	-5.23
720.385	9.77
720.411	-0.23
720.437	-15.23
720.463	3.77
720.49	-2.23
720.516	-12.23
720.542	-18.23
720.568	-7.23
720.595	1.77
720.621	-2.23
720.647	-2.23
720.673	5.77
720.699	-16.23
720.725	-0.23
720.752	5.77
720.778	3.77
720.804	15.77
720.83	15.77
720.856	-2.23
720.883	-9.23
720.909	12.77
720.935	-0.23
720.961	8.77
720.987	0.77
721.013	3.77
721.04	-15.23
721.066	5.77
721.092	-8.23
721.118	17.77
721.144	15.77
721.17	-10.23
721.196	2.77
721.223	-11.23
721.249	-1.23
721.275	17.77
721.301	3.77
721.327	8.77
721.353	7.77
721.379	-8.23
721.405	23.77
721.432	-4.23
721.458	0.77
721.484	-10.23
721.51	-13.23
721.536	-4.23
721.562	-12.23
721.588	-0.23
721.614	-10.23
721.64	-9.23
721.666	-9.23
721.693	-6.23
721.719	8.77
721.745	-4.23
721.771	-5.23
721.797	-11.23
721.823	-0.23
721.849	12.77
721.875	10.77
721.901	-2.23
721.927	0.77
721.953	-9.23
721.979	-8.23
722.005	4.77
722.031	-2.23
722.057	-5.23
722.083	16.77
722.109	6.77
722.135	19.77
722.161	12.77
722.187	-4.23
722.214	-1.23
722.24	-0.23
722.266	-6.23
722.292	3.77
722.318	4.77
722.344	-3.23
722.37	-0.23
722.396	12.77
722.422	-8.23
722.448	-4.23
722.474	-20.23
722.5	9.77
722.526	5.77
722.552	-5.23
722.578	-16.23
722.603	7.77
722.629	-6.23
722.655	-12.23
722.681	-12.23
722.707	-15.23
722.733	-10.23
722.759	-6.23
722.785	-4.23
722.811	-3.23
722.837	5.77
722.863	8.77
722.889	4.77
722.915	-1.23
722.941	-10.23
722.967	9.77
722.993	0.77
723.019	9.77
723.045	-6.23
723.071	3.77
723.097	11.77
723.122	-2.23
723.148	-7.23
723.174	-22.23
723.2	-2.23
723.226	0.77
723.252	3.77
723.278	-19.23
723.304	-12.23
723.33	-1.23
723.356	-2.23
723.381	-19.23
723.407	-16.23
723.433	5.77
723.459	1.77
723.485	-3.23
723.511	-14.23
723.537	-7.23
723.563	-7.23
723.588	-6.23
723.614	-4.23
723.64	-14.23
723.666	-8.23
723.692	-7.23
723.718	-12.23
723.744	12.77
723.769	-2.23
723.795	-8.23
723.821	8.77
723.847	-11.23
723.873	-2.23
723.899	10.77
723.924	-8.23
723.95	-6.23
723.976	-11.23
724.002	-5.23
724.028	1.77
724.053	0.77
724.079	10.77
724.105	6.77
724.131	-1.23
724.157	8.77
724.182	-9.23
724.208	-1.23
724.234	-6.23
724.26	-7.23
724.286	7.77
724.311	-3.23
724.337	5.77
724.363	-13.23
724.389	-1.23
724.415	5.77
724.44	16.77
724.466	-6.23
724.492	-7.23
724.518	-9.23
724.543	-7.23
724.569	10.77
724.595	14.77
724.621	-16.23
724.646	-9.23
724.672	-6.23
724.698	-10.23
724.723	-8.23
724.749	10.77
724.775	11.77
724.801	1.77
724.826	-9.23
724.852	0.77
724.878	2.77
724.904	-19.23
724.929	-4.23
724.955	-2.23
724.981	0.77
725.006	-8.23
725.032	7.77
725.058	3.77
725.083	-12.23
725.109	-9.23
725.135	-0.23
725.161	4.77
725.186	-7.23
725.212	-2.23
725.238	0.77
725.263	-4.23
725.289	-20.23
725.315	-9.23
725.34	1.77
725.366	-13.23
725.392	-0.23
725.417	-1.23
725.443	-8.23
725.468	14.77
725.494	20.77
725.52	18.77
725.545	4.77
725.571	10.77
725.597	3.77
725.622	-2.23
725.648	-8.23
725.674	13.77
725.699	7.77
725.725	2.77
725.75	25.77
725.776	-4.23
725.802	-1.23
725.827	-4.23
725.853	-4.23
725.878	-0.23
725.904	-15.23
725.93	-3.23
725.955	-17.23
725.981	-5.23
726.006	4.77
726.032	4.77
726.057	-0.23
726.083	0.77
726.109	0.77
726.134	-6.23
726.16	-9.23
726.185	9.77
726.211	-11.23
726.236	0.77
726.262	5.77
726.288	17.77
726.313	3.77
726.339	15.77
726.364	6.77
726.39	11.77
726.415	-0.23
726.441	-8.23
726.466	-3.23
726.492	8.77
726.517	-2.23
726.543	-15.23
726.568	-23.23
726.594	-17.23
726.619	-3.23
726.645	11.77
726.67	-8.23
726.696	-7.23
726.721	8.77
726.747	-6.23
726.772	-9.23
726.798	-8.23
726.823	-1.23
726.849	-4.23
726.874	2.77
726.9	11.77
726.925	7.77
726.951	-12.23
726.976	4.77
727.002	-10.23
727.027	-8.23
727.053	7.77
727.078	-3.23
727.104	-15.23
727.129	-16.23
727.155	10.77
727.18	5.77
727.205	-17.23
727.231	-19.23
727.256	-12.23
727.282	-1.23
727.307	15.77
727.333	-16.23
727.358	-16.23
727.383	-16.23
727.409	-14.23
727.434	-1.23
727.46	-18.23
727.485	-10.23
727.511	18.77
727.536	-10.23
727.561	-9.23
727.587	-4.23
727.612	-9.23
727.637	-13.23
727.663	-24.23
727.688	5.77
727.714	-11.23
727.739	-2.23
727.764	-4.23
727.79	10.77
727.815	7.77
727.841	9.77
727.866	0.77
727.891	-3.23
727.917	-36.23
727.942	-14.23
727.967	-4.23
727.993	-6.23
728.018	-11.23
728.043	12.77
728.069	-4.23
728.094	-9.23
728.119	-12.23
728.145	-0.23
728.17	-4.23
728.195	3.77
728.221	10.77
728.246	-0.23
728.271	-7.23
728.297	0.77
728.322	-12.23
728.347	-10.23
728.373	-10.23
728.398	-3.23
728.423	-4.23
728.448	-11.23
728.474	-7.23
728.499	2.77
728.524	-22.23
728.55	-20.23
728.575	-9.23
728.6	1.77
728.625	-4.23
728.651	-3.23
728.676	-12.23
728.701	-14.23
728.727	-10.23
728.752	-14.23
728.777	3.77
728.802	-21.23
728.828	-4.23
728.853	14.77
728.878	-13.23
728.903	-10.23
728.929	-25.23
728.954	-1.23
728.979	2.77
729.004	1.77
729.03	-16.23
729.055	13.77
729.08	-8.23
729.105	-8.23
729.13	8.77
729.156	3.77
729.181	-8.23
729.206	-20.23
729.231	-13.23
729.256	-1.23
729.282	8.77
729.307	-18.23
729.332	-15.23
729.357	-14.23
729.382	4.77
729.408	-8.23
729.433	-2.23
729.458	8.77
729.483	0.77
729.508	7.77
729.533	-7.23
729.559	-6.23
729.584	-9.23
729.609	6.77
729.634	-0.23
729.659	-11.23
729.684	-7.23
729.71	3.77
729.735	-0.23
729.76	-5.23
729.785	-7.23
729.81	9.77
729.835	-20.23
729.86	-13.23
729.886	0.77
729.911	1.77
729.936	-6.23
729.961	3.77
729.986	-0.23
730.011	-4.23
730.036	-3.23
730.061	-0.23
730.086	-0.23
730.112	4.77
730.137	11.77
730.162	0.77
730.187	-16.23
730.212	-8.23
730.237	-4.23
730.262	-0.23
730.287	-10.23
730.312	17.77
730.337	3.77
730.362	20.77
730.387	5.77
730.413	-24.23
730.438	-11.23
730.463	-12.23
730.488	0.77
730.513	-7.23
730.538	-9.23
730.563	8.77
730.588	9.77
730.613	23.77
730.638	-1.23
730.663	-19.23
730.688	21.77
730.713	-4.23
730.738	-4.23
730.763	-9.23
730.788	-9.23
730.813	-7.23
730.838	-5.23
730.863	-5.23
730.888	-14.23
730.913	-19.23
730.938	-14.23
730.963	-3.23
730.988	-6.23
731.013	10.77
731.038	-10.23
731.063	-8.23
731.088	10.77
731.113	1.77
731.138	-6.23
731.163	-8.23
731.188	-14.23
731.213	4.77
731.238	-4.23
731.263	-4.23
731.288	-15.23
731.313	-5.23
731.338	-18.23
731.363	4.77
731.388	-1.23
731.413	7.77
731.438	1.77
731.463	9.77
731.487	13.77
731.512	-11.23
731.537	-12.23
731.562	4.77
731.587	12.77
731.612	-15.23
731.637	2.77
731.662	4.77
731.687	3.77
731.712	-14.23
731.737	-4.23
731.762	-9.23
731.786	-8.23
731.811	-3.23
731.836	-5.23
731.861	-3.23
731.886	-8.23
731.911	-2.23
731.936	0.77
731.961	-0.23
731.986	-10.23
732.01	-10.23
732.035	-7.23
732.06	14.77
732.085	-9.23
732.11	-9.23
732.135	-10.23
732.16	-1.23
732.184	-4.23
732.209	-9.23
732.234	0.77
732.259	-5.23
732.284	4.77
732.309	-16.23
732.334	5.77
732.358	-9.23
732.383	-5.23
732.408	-3.23
732.433	-4.23
732.458	-14.23
732.482	-0.23
732.507	-6.23
732.532	-6.23
732.557	7.77
732.582	-3.23
732.607	-4.23
732.631	-11.23
732.656	-20.23
732.681	2.77
732.706	-2.23
732.73	2.77
732.755	-6.23
732.78	-4.23
732.805	9.77
732.83	-11.23
732.854	-1.23
732.879	-1.23
732.904	-18.23
732.929	-12.23
732.953	5.77
732.978	-2.23
733.003	-7.23
733.028	-16.23
733.052	-6.23
733.077	7.77
733.102	7.77
733.127	0.77
733.151	-11.23
733.176	7.77
733.201	-12.23
733.226	-8.23
733.25	0.77
733.275	2.77
733.3	-13.23
733.324	9.77
733.349	-11.23
733.374	6.77
733.399	-6.23
733.423	-13.23
733.448	-11.23
733.473	-14.23
733.497	-1.23
733.522	-10.23
733.547	5.77
733.571	14.77
733.596	13.77
733.621	1.77
733.646	-10.23
733.67	-10.23
733.695	-2.23
733.72	5.77
733.744	5.77
733.769	10.77
733.794	21.77
733.818	11.77
733.843	-12.23
733.867	-14.23
733.892	-13.23
733.917	-8.23
733.941	-0.23
733.966	-13.23
733.991	-5.23
734.015	2.77
734.04	-1.23
734.065	-3.23
734.089	9.77
734.114	5.77
734.138	16.77
734.163	-7.23
734.188	9.77
734.212	11.77
734.237	0.77
734.261	-10.23
734.286	-4.23
734.311	2.77
734.335	3.77
734.36	4.77
734.384	-2.23
734.409	10.77
734.434	-19.23
734.458	-9.23
734.483	-4.23
734.507	-16.23
734.532	-9.23
734.556	2.77
734.581	-4.23
734.606	-11.23
734.63	-9.23
734.655	-8.23
734.679	1.77
734.704	2.77
734.728	-6.23
734.753	-4.23
734.777	-3.23
734.802	-4.23
734.826	4.77
734.851	-3.23
734.876	-2.23
734.9	4.77
734.925	13.77
734.949	2.77
734.974	3.77
734.998	12.77
735.023	-14.23
735.047	-19.23
735.072	6.77
735.096	-15.23
735.121	7.77
735.145	-3.23
735.17	-10.23
735.194	-0.23
735.219	-4.23
735.243	8.77
735.268	-2.23
735.292	-7.23
735.317	-11.23
735.341	5.77
735.365	-15.23
735.39	3.77
735.414	-3.23
735.439	1.77
735.463	-0.23
735.488	-0.23
735.512	-2.23
735.537	0.77
735.561	-7.23
735.586	-4.23
735.61	11.77
735.634	-3.23
735.659	8.77
735.683	24.77
735.708	5.77
735.732	-14.23
735.757	-3.23
735.781	-4.23
735.805	12.77
735.83	-14.23
735.854	-9.23
735.879	-2.23
735.903	10.77
735.927	-0.23
735.952	4.77
735.976	-9.23
736.001	8.77
736.025	8.77
736.049	2.77
736.074	12.77
736.098	11.77
736.123	-9.23
736.147	-4.23
736.171	-1.23
736.196	7.77
736.22	-14.23
736.244	-3.23
736.269	-4.23
736.293	-15.23
736.317	-1.23
736.342	0.77
736.366	2.77
736.39	10.77
736.415	-0.23
736.439	0.77
736.463	13.77
736.488	-0.23
736.512	2.77
736.536	-0.23
736.561	-7.23
736.585	0.77
736.609	5.77
736.634	-2.23
736.658	1.77
736.682	-7.23
736.707	-5.23
736.731	-1.23
736.755	-4.23
736.78	4.77
736.804	8.77
736.828	7.77
736.852	-4.23
736.877	0.77
736.901	5.77
736.925	-1.23
736.949	14.77
736.974	-2.23
736.998	-18.23
737.022	-4.23
737.047	-8.23
737.071	13.77
737.095	0.77
737.119	9.77
737.144	1.77
737.168	-15.23
737.192	-10.23
737.216	-6.23
737.241	-4.23
737.265	-8.23
737.289	-7.23
737.313	-3.23
737.337	13.77
737.362	9.77
737.386	-8.23
737.41	-18.23
737.434	4.77
737.459	-4.23
737.483	14.77
737.507	-4.23
737.531	-2.23
737.555	2.77
737.58	3.77
737.604	0.77
737.628	-23.23
737.652	-4.23
737.676	-3.23
737.701	-15.23
737.725	0.77
737.749	15.77
737.773	-8.23
737.797	-21.23
737.821	-9.23
737.846	-4.23
737.87	30.77
737.894	-14.23
737.918	-8.23
737.942	-9.23
737.966	-3.23
737.99	4.77
738.015	3.77
738.039	7.77
738.063	-13.23
738.087	9.77
738.111	-3.23
738.135	16.77
738.159	5.77
738.184	4.77
738.208	5.77
738.232	-8.23
738.256	19.77
738.28	-2.23
738.304	-3.23
738.328	0.77
738.352	1.77
738.376	-4.23
738.4	-11.23
738.425	14.77
738.449	-1.23
738.473	-11.23
738.497	-10.23
738.521	-0.23
738.545	14.77
738.569	5.77
738.593	18.77
738.617	1.77
738.641	10.77
738.665	-14.23
738.689	4.77
738.713	-1.23
738.737	-1.23
738.762	15.77
738.786	1.77
738.81	-14.23
738.834	9.77
738.858	-2.23
738.882	13.77
738.906	10.77
738.93	8.77
738.954	-5.23
738.978	-2.23
739.002	-15.23
739.026	13.77
739.05	12.77
739.074	-0.23
739.098	21.77
739.122	-0.23
739.146	7.77
739.17	4.77
739.194	13.77
739.218	-7.23
739.242	-9.23
739.266	-5.23
739.29	12.77
739.314	3.77
739.338	-2.23
739.362	5.77
739.386	15.77
739.41	-8.23
739.434	-15.23
739.458	-4.23
739.482	1.77
739.506	5.77
739.53	-7.23
739.554	13.77
739.577	-10.23
739.601	2.77
739.625	-1.23
739.649	11.77
739.673	1.77
739.697	5.77
739.721	-11.23
739.745	6.77
739.769	12.77
739.793	5.77
739.817	7.77
739.841	-13.23
739.865	-11.23
739.889	-14.23
739.912	-4.23
739.936	-2.23
739.96	-11.23
739.984	-1.23
740.008	-3.23
740.032	-21.23
740.056	5.77
740.08	-6.23
740.104	4.77
740.127	9.77
740.151	6.77
740.175	11.77
740.199	7.77
740.223	47.77
740.247	13.77
740.271	0.77
740.295	-11.23
740.318	-30.23
740.342	0.77
740.366	-8.23
740.39	4.77
740.414	-6.23
740.438	-18.23
740.461	9.77
740.485	-1.23
740.509	-21.23
740.533	-7.23
740.557	-12.23
740.581	-4.23
740.604	-4.23
740.628	-6.23
740.652	0.77
740.676	-8.23
740.7	9.77
740.723	-8.23
740.747	-9.23
740.771	-0.23
740.795	-19.23
740.819	-7.23
740.842	-7.23
740.866	-1.23
740.89	1.77
740.914	-8.23
740.938	-16.23
740.961	9.77
740.985	5.77
741.009	-16.23
741.033	-0.23
741.056	-9.23
741.08	-8.23
741.104	1.77
741.128	3.77
741.151	0.77
741.175	-0.23
741.199	-3.23
741.223	18.77
741.246	-14.23
741.27	14.77
741.294	9.77
741.318	-18.23
741.341	-11.23
741.365	-9.23
741.389	2.77
741.413	0.77
741.436	6.77
741.46	12.77
741.484	12.77
741.507	7.77
741.531	20.77
741.555	11.77
741.579	10.77
741.602	12.77
741.626	16.77
741.65	-4.23
741.673	0.77
741.697	3.77
741.721	7.77
741.744	-17.23
741.768	-7.23
741.792	-10.23
741.815	-0.23
741.839	16.77
741.863	4.77
741.886	11.77
741.91	8.77
741.934	7.77
741.957	-9.23
741.981	9.77
742.005	-4.23
742.028	-17.23
742.052	-19.23
742.075	3.77
742.099	9.77
742.123	1.77
742.146	-0.23
742.17	7.77
742.194	-18.23
742.217	0.77
742.241	5.77
742.264	-14.23
742.288	16.77
742.312	2.77
742.335	2.77
742.359	-5.23
742.382	7.77
742.406	23.77
742.43	1.77
742.453	1.77
742.477	-6.23
742.5	1.77
742.524	-17.23
742.548	0.77
742.571	-5.23
742.595	-4.23
742.618	-12.23
742.642	-14.23
742.665	-1.23
742.689	-20.23
742.712	-8.23
742.736	3.77
742.76	-17.23
742.783	0.77
742.807	14.77
742.83	5.77
742.854	-16.23
742.877	-16.23
742.901	-6.23
742.924	-12.23
742.948	6.77
742.971	-2.23
742.995	-3.23
743.018	-24.23
743.042	-10.23
743.065	-0.23
743.089	-12.23
743.112	-1.23
743.136	-0.23
743.159	8.77
743.183	-16.23
743.206	-4.23
743.23	-9.23
743.253	0.77
743.277	7.77
743.3	-10.23
743.324	-3.23
743.347	-17.23
743.371	19.77
743.394	20.77
743.418	16.77
743.441	9.77
743.465	-11.23
743.488	13.77
743.512	-24.23
743.535	-5.23
743.558	-9.23
743.582	-7.23
743.605	-8.23
743.629	18.77
743.652	1.77
743.676	-12.23
743.699	8.77
743.723	11.77
743.746	-2.23
743.769	13.77
743.793	-9.23
743.816	-3.23
743.84	4.77
743.863	-3.23
743.886	1.77
743.91	8.77
743.933	-7.23
743.957	14.77
743.98	-2.23
744.003	2.77
744.027	-7.23
744.05	-0.23
744.074	15.77
744.097	-24.23
744.12	-14.23
744.144	-10.23
744.167	5.77
744.19	-5.23
744.214	-8.23
744.237	-19.23
744.26	8.77
744.284	-8.23
744.307	-15.23
744.331	-9.23
744.354	11.77
744.377	-9.23
744.401	-5.23
744.424	2.77
744.447	-17.23
744.471	1.77
