Data from HighRes_H2_15_09_11_07_2024_HR4C61891__165__15-11-12-901.txt Node

Date: Thu Nov 07 15:11:12 EST 2024
User: crc00042
Spectrometer: HR4C6189
Trigger mode: 4
Integration Time (sec): 1.000000E-1
Scans to average: 1
Electric dark correction enabled: true
Nonlinearity correction enabled: false
Boxcar width: 0
XAxis mode: Wavelengths
Number of Pixels in Spectrum: 3648
>>>>>Begin Spectral Data<<<<<
639.567	-41.38
639.602	-41.38
639.636	-41.38
639.67	-22.38
639.704	-23.38
639.738	13.62
639.773	5.62
639.807	-17.38
639.841	8.62
639.875	3.62
639.909	6.62
639.943	-10.38
639.978	0.62
640.012	9.62
640.046	-13.38
640.08	3.62
640.114	0.62
640.148	-11.38
640.182	-16.38
640.217	13.62
640.251	17.62
640.285	27.62
640.319	-3.38
640.353	1.62
640.387	16.62
640.421	5.62
640.455	6.62
640.49	-11.38
640.524	-2.38
640.558	7.62
640.592	-0.38
640.626	5.62
640.66	0.62
640.694	-11.38
640.728	5.62
640.762	8.62
640.796	23.62
640.83	5.62
640.865	-9.38
640.899	-2.38
640.933	-1.38
640.967	17.62
641.001	1.62
641.035	-1.38
641.069	4.62
641.103	-10.38
641.137	7.62
641.171	-6.38
641.205	9.62
641.239	2.62
641.273	14.62
641.307	10.62
641.341	10.62
641.375	-8.38
641.409	-0.38
641.443	-4.38
641.477	14.62
641.511	2.62
641.545	-8.38
641.579	-9.38
641.614	-5.38
641.648	-2.38
641.682	-5.38
641.716	19.62
641.75	20.62
641.784	13.62
641.818	6.62
641.852	17.62
641.886	9.62
641.919	26.62
641.953	7.62
641.987	0.62
642.021	-4.38
642.055	14.62
642.089	5.62
642.123	5.62
642.157	2.62
642.191	-10.38
642.225	6.62
642.259	8.62
642.293	1.62
642.327	0.62
642.361	-3.38
642.395	5.62
642.429	0.62
642.463	0.62
642.497	18.62
642.531	-0.38
642.565	-5.38
642.599	11.62
642.633	-10.38
642.666	15.62
642.7	23.62
642.734	7.62
642.768	4.62
642.802	-10.38
642.836	-7.38
642.87	-1.38
642.904	-4.38
642.938	11.62
642.972	-1.38
643.005	8.62
643.039	2.62
643.073	8.62
643.107	2.62
643.141	2.62
643.175	-8.38
643.209	5.62
643.243	-3.38
643.276	20.62
643.31	-8.38
643.344	-2.38
643.378	5.62
643.412	18.62
643.446	6.62
643.48	-3.38
643.513	6.62
643.547	16.62
643.581	-5.38
643.615	13.62
643.649	7.62
643.683	4.62
643.716	6.62
643.75	0.62
643.784	-8.38
643.818	7.62
643.852	-3.38
643.886	8.62
643.919	12.62
643.953	8.62
643.987	10.62
644.021	4.62
644.055	14.62
644.088	0.62
644.122	4.62
644.156	-10.38
644.19	7.62
644.224	6.62
644.257	-4.38
644.291	16.62
644.325	-5.38
644.359	9.62
644.392	17.62
644.426	11.62
644.46	11.62
644.494	10.62
644.527	0.62
644.561	5.62
644.595	-3.38
644.629	-1.38
644.662	-1.38
644.696	2.62
644.73	7.62
644.764	8.62
644.797	-6.38
644.831	6.62
644.865	15.62
644.899	25.62
644.932	11.62
644.966	9.62
645	-1.38
645.033	7.62
645.067	-0.38
645.101	23.62
645.135	2.62
645.168	-12.38
645.202	-16.38
645.236	8.62
645.269	3.62
645.303	9.62
645.337	-8.38
645.37	-4.38
645.404	-3.38
645.438	-12.38
645.471	-14.38
645.505	9.62
645.539	-9.38
645.572	-11.38
645.606	3.62
645.64	2.62
645.673	2.62
645.707	22.62
645.741	-2.38
645.774	-8.38
645.808	1.62
645.842	-5.38
645.875	13.62
645.909	-3.38
645.943	-7.38
645.976	7.62
646.01	4.62
646.043	18.62
646.077	26.62
646.111	13.62
646.144	5.62
646.178	7.62
646.212	-14.38
646.245	4.62
646.279	11.62
646.312	9.62
646.346	8.62
646.38	4.62
646.413	10.62
646.447	14.62
646.48	-6.38
646.514	10.62
646.547	6.62
646.581	-6.38
646.615	10.62
646.648	1.62
646.682	-1.38
646.715	-1.38
646.749	12.62
646.782	-17.38
646.816	-0.38
646.85	15.62
646.883	-0.38
646.917	2.62
646.95	1.62
646.984	-3.38
647.017	3.62
647.051	2.62
647.084	9.62
647.118	-12.38
647.151	-12.38
647.185	6.62
647.218	-9.38
647.252	1.62
647.285	-4.38
647.319	2.62
647.353	17.62
647.386	22.62
647.42	4.62
647.453	8.62
647.487	15.62
647.52	1.62
647.553	12.62
647.587	2.62
647.62	-0.38
647.654	3.62
647.687	4.62
647.721	13.62
647.754	15.62
647.788	2.62
647.821	-18.38
647.855	4.62
647.888	19.62
647.922	9.62
647.955	-0.38
647.989	3.62
648.022	8.62
648.055	10.62
648.089	-1.38
648.122	26.62
648.156	17.62
648.189	1.62
648.223	14.62
648.256	11.62
648.29	5.62
648.323	17.62
648.356	12.62
648.39	12.62
648.423	12.62
648.457	17.62
648.49	26.62
648.523	11.62
648.557	3.62
648.59	-0.38
648.624	4.62
648.657	7.62
648.69	19.62
648.724	5.62
648.757	18.62
648.791	10.62
648.824	12.62
648.857	20.62
648.891	-3.38
648.924	1.62
648.957	13.62
648.991	-23.38
649.024	9.62
649.057	4.62
649.091	0.62
649.124	14.62
649.158	3.62
649.191	39.62
649.224	8.62
649.258	17.62
649.291	11.62
649.324	14.62
649.358	14.62
649.391	18.62
649.424	10.62
649.458	-5.38
649.491	2.62
649.524	-4.38
649.557	-8.38
649.591	-18.38
649.624	4.62
649.657	-13.38
649.691	-0.38
649.724	-4.38
649.757	-3.38
649.791	-1.38
649.824	12.62
649.857	16.62
649.89	3.62
649.924	-24.38
649.957	5.62
649.99	-10.38
650.023	-4.38
650.057	7.62
650.09	-4.38
650.123	2.62
650.157	11.62
650.19	10.62
650.223	9.62
650.256	-13.38
650.29	-10.38
650.323	6.62
650.356	16.62
650.389	4.62
650.423	-11.38
650.456	5.62
650.489	13.62
650.522	12.62
650.555	24.62
650.589	28.62
650.622	10.62
650.655	7.62
650.688	-0.38
650.721	-12.38
650.755	2.62
650.788	9.62
650.821	-0.38
650.854	-4.38
650.887	-6.38
650.921	18.62
650.954	3.62
650.987	-2.38
651.02	5.62
651.053	-13.38
651.087	-5.38
651.12	25.62
651.153	21.62
651.186	14.62
651.219	-1.38
651.252	3.62
651.286	10.62
651.319	-0.38
651.352	-2.38
651.385	11.62
651.418	7.62
651.451	7.62
651.484	11.62
651.518	-1.38
651.551	18.62
651.584	-2.38
651.617	17.62
651.65	4.62
651.683	13.62
651.716	1.62
651.749	-16.38
651.783	5.62
651.816	4.62
651.849	-0.38
651.882	-6.38
651.915	13.62
651.948	-1.38
651.981	24.62
652.014	-14.38
652.047	-7.38
652.08	-4.38
652.114	6.62
652.147	5.62
652.18	8.62
652.213	32.62
652.246	-0.38
652.279	-10.38
652.312	14.62
652.345	3.62
652.378	0.62
652.411	25.62
652.444	15.62
652.477	7.62
652.51	-7.38
652.543	-10.38
652.576	4.62
652.609	4.62
652.642	8.62
652.675	16.62
652.709	9.62
652.742	8.62
652.775	-2.38
652.808	-4.38
652.841	0.62
652.874	18.62
652.907	6.62
652.94	-2.38
652.973	-8.38
653.006	-26.38
653.039	-2.38
653.072	-2.38
653.105	1.62
653.138	-12.38
653.171	0.62
653.204	4.62
653.237	8.62
653.27	-0.38
653.303	16.62
653.336	19.62
653.368	-2.38
653.401	0.62
653.434	9.62
653.467	8.62
653.5	-7.38
653.533	-16.38
653.566	13.62
653.599	2.62
653.632	-3.38
653.665	-2.38
653.698	-7.38
653.731	-15.38
653.764	1.62
653.797	-10.38
653.83	5.62
653.863	2.62
653.896	8.62
653.929	-3.38
653.961	4.62
653.994	-7.38
654.027	-6.38
654.06	9.62
654.093	18.62
654.126	6.62
654.159	-5.38
654.192	5.62
654.225	-21.38
654.258	3.62
654.29	10.62
654.323	10.62
654.356	-14.38
654.389	-1.38
654.422	-6.38
654.455	-7.38
654.488	4.62
654.521	-20.38
654.553	-10.38
654.586	4.62
654.619	-9.38
654.652	2.62
654.685	24.62
654.718	14.62
654.751	4.62
654.783	-12.38
654.816	23.62
654.849	8.62
654.882	-1.38
654.915	-2.38
654.948	4.62
654.98	-4.38
655.013	-1.38
655.046	-7.38
655.079	-10.38
655.112	10.62
655.144	-10.38
655.177	20.62
655.21	23.62
655.243	-2.38
655.276	-7.38
655.308	-0.38
655.341	-6.38
655.374	22.62
655.407	6.62
655.44	-4.38
655.472	19.62
655.505	-0.38
655.538	7.62
655.571	25.62
655.603	3.62
655.636	5.62
655.669	14.62
655.702	10.62
655.734	3.62
655.767	7.62
655.8	24.62
655.833	33.62
655.865	38.62
655.898	34.62
655.931	38.62
655.964	41.62
655.996	53.62
656.029	52.62
656.062	58.62
656.095	68.62
656.127	63.62
656.16	94.62
656.193	143.62
656.225	190.62
656.258	305.62
656.291	501.62
656.324	1137.62
656.356	3421.62
656.389	7648.62
656.422	6092.62
656.454	2093.62
656.487	692.62
656.52	267.62
656.552	130.62
656.585	79.62
656.618	67.62
656.65	50.62
656.683	21.62
656.716	7.62
656.748	20.62
656.781	10.62
656.814	11.62
656.846	10.62
656.879	14.62
656.912	14.62
656.944	-7.38
656.977	-5.38
657.01	16.62
657.042	3.62
657.075	5.62
657.108	-15.38
657.14	-11.38
657.173	11.62
657.205	29.62
657.238	10.62
657.271	16.62
657.303	0.62
657.336	6.62
657.369	4.62
657.401	-0.38
657.434	3.62
657.466	6.62
657.499	14.62
657.532	2.62
657.564	16.62
657.597	0.62
657.629	5.62
657.662	5.62
657.694	-0.38
657.727	-15.38
657.76	14.62
657.792	-6.38
657.825	-2.38
657.857	9.62
657.89	3.62
657.922	17.62
657.955	7.62
657.987	7.62
658.02	9.62
658.053	11.62
658.085	6.62
658.118	-0.38
658.15	1.62
658.183	21.62
658.215	11.62
658.248	16.62
658.28	-4.38
658.313	20.62
658.345	14.62
658.378	-6.38
658.41	-10.38
658.443	17.62
658.475	5.62
658.508	12.62
658.54	-0.38
658.573	2.62
658.605	3.62
658.638	4.62
658.67	6.62
658.703	-4.38
658.735	-3.38
658.768	0.62
658.8	-10.38
658.833	16.62
658.865	10.62
658.898	1.62
658.93	-9.38
658.963	4.62
658.995	-0.38
659.028	13.62
659.06	11.62
659.092	0.62
659.125	-9.38
659.157	8.62
659.19	2.62
659.222	3.62
659.255	-7.38
659.287	-1.38
659.32	8.62
659.352	5.62
659.384	11.62
659.417	-5.38
659.449	-2.38
659.482	13.62
659.514	-11.38
659.546	-0.38
659.579	-2.38
659.611	-3.38
659.644	-11.38
659.676	4.62
659.708	3.62
659.741	-1.38
659.773	10.62
659.806	13.62
659.838	-9.38
659.87	9.62
659.903	-20.38
659.935	8.62
659.967	9.62
660	9.62
660.032	-22.38
660.065	12.62
660.097	7.62
660.129	-1.38
660.162	-19.38
660.194	12.62
660.226	-0.38
660.259	17.62
660.291	0.62
660.323	-13.38
660.356	4.62
660.388	1.62
660.42	-9.38
660.453	11.62
660.485	23.62
660.517	8.62
660.55	26.62
660.582	1.62
660.614	-1.38
660.647	-4.38
660.679	-13.38
660.711	-6.38
660.743	-9.38
660.776	-12.38
660.808	-16.38
660.84	-2.38
660.873	3.62
660.905	6.62
660.937	5.62
660.969	1.62
661.002	-14.38
661.034	7.62
661.066	2.62
661.099	15.62
661.131	7.62
661.163	4.62
661.195	10.62
661.228	6.62
661.26	-20.38
661.292	2.62
661.324	15.62
661.357	-0.38
661.389	-5.38
661.421	7.62
661.453	9.62
661.485	17.62
661.518	3.62
661.55	-15.38
661.582	-12.38
661.614	1.62
661.647	19.62
661.679	-3.38
661.711	5.62
661.743	1.62
661.775	10.62
661.808	39.62
661.84	-0.38
661.872	13.62
661.904	5.62
661.936	-7.38
661.969	-10.38
662.001	-1.38
662.033	-3.38
662.065	-1.38
662.097	18.62
662.129	10.62
662.162	3.62
662.194	-5.38
662.226	2.62
662.258	2.62
662.29	14.62
662.322	8.62
662.355	-10.38
662.387	33.62
662.419	19.62
662.451	9.62
662.483	5.62
662.515	-5.38
662.547	-6.38
662.58	-8.38
662.612	-7.38
662.644	-6.38
662.676	6.62
662.708	5.62
662.74	-20.38
662.772	4.62
662.804	-2.38
662.836	9.62
662.869	-0.38
662.901	13.62
662.933	7.62
662.965	20.62
662.997	21.62
663.029	-12.38
663.061	-1.38
663.093	-7.38
663.125	-0.38
663.157	20.62
663.189	-11.38
663.221	-1.38
663.254	2.62
663.286	8.62
663.318	-1.38
663.35	-10.38
663.382	3.62
663.414	17.62
663.446	-0.38
663.478	-13.38
663.51	24.62
663.542	-5.38
663.574	6.62
663.606	7.62
663.638	-2.38
663.67	0.62
663.702	1.62
663.734	10.62
663.766	5.62
663.798	-14.38
663.83	4.62
663.862	8.62
663.894	25.62
663.926	-6.38
663.958	7.62
663.99	0.62
664.022	4.62
664.054	9.62
664.086	10.62
664.118	-13.38
664.15	-14.38
664.182	3.62
664.214	10.62
664.246	9.62
664.278	5.62
664.31	12.62
664.342	3.62
664.374	4.62
664.406	4.62
664.438	-7.38
664.47	16.62
664.502	12.62
664.534	1.62
664.566	-11.38
664.598	8.62
664.63	-2.38
664.662	7.62
664.693	8.62
664.725	-4.38
664.757	-8.38
664.789	-20.38
664.821	6.62
664.853	14.62
664.885	-3.38
664.917	-13.38
664.949	19.62
664.981	19.62
665.013	-13.38
665.045	-19.38
665.076	-6.38
665.108	8.62
665.14	14.62
665.172	-0.38
665.204	7.62
665.236	-4.38
665.268	20.62
665.3	-7.38
665.331	-12.38
665.363	8.62
665.395	-8.38
665.427	-3.38
665.459	3.62
665.491	5.62
665.523	18.62
665.555	6.62
665.586	6.62
665.618	17.62
665.65	-9.38
665.682	10.62
665.714	0.62
665.746	5.62
665.777	-10.38
665.809	-3.38
665.841	3.62
665.873	12.62
665.905	1.62
665.937	5.62
665.968	-7.38
666	-5.38
666.032	10.62
666.064	-10.38
666.096	-1.38
666.127	6.62
666.159	19.62
666.191	7.62
666.223	4.62
666.255	13.62
666.286	1.62
666.318	13.62
666.35	1.62
666.382	4.62
666.413	-6.38
666.445	-19.38
666.477	-14.38
666.509	3.62
666.54	-7.38
666.572	-7.38
666.604	3.62
666.636	3.62
666.667	22.62
666.699	19.62
666.731	-2.38
666.763	-0.38
666.794	0.62
666.826	1.62
666.858	-13.38
666.89	12.62
666.921	1.62
666.953	-6.38
666.985	10.62
667.017	18.62
667.048	9.62
667.08	-19.38
667.112	-5.38
667.143	-2.38
667.175	11.62
667.207	3.62
667.238	-4.38
667.27	-4.38
667.302	-4.38
667.334	-9.38
667.365	-2.38
667.397	11.62
667.429	-3.38
667.46	9.62
667.492	17.62
667.524	-9.38
667.555	-10.38
667.587	13.62
667.619	-11.38
667.65	-0.38
667.682	12.62
667.714	6.62
667.745	-1.38
667.777	0.62
667.808	7.62
667.84	7.62
667.872	-1.38
667.903	11.62
667.935	6.62
667.967	-8.38
667.998	-5.38
668.03	2.62
668.061	2.62
668.093	9.62
668.125	5.62
668.156	3.62
668.188	4.62
668.22	-2.38
668.251	8.62
668.283	13.62
668.314	13.62
668.346	-3.38
668.377	-14.38
668.409	-11.38
668.441	9.62
668.472	2.62
668.504	3.62
668.535	7.62
668.567	6.62
668.599	12.62
668.63	-3.38
668.662	-0.38
668.693	-3.38
668.725	-13.38
668.756	11.62
668.788	5.62
668.819	6.62
668.851	9.62
668.882	-4.38
668.914	-1.38
668.946	7.62
668.977	-6.38
669.009	-3.38
669.04	-15.38
669.072	1.62
669.103	5.62
669.135	0.62
669.166	11.62
669.198	4.62
669.229	4.62
669.261	0.62
669.292	1.62
669.324	8.62
669.355	19.62
669.387	3.62
669.418	7.62
669.45	-2.38
669.481	0.62
669.513	-3.38
669.544	-4.38
669.576	7.62
669.607	6.62
669.639	15.62
669.67	1.62
669.701	10.62
669.733	-2.38
669.764	7.62
669.796	10.62
669.827	-5.38
669.859	-6.38
669.89	5.62
669.922	12.62
669.953	14.62
669.985	10.62
670.016	4.62
670.047	-5.38
670.079	-5.38
670.11	12.62
670.142	-12.38
670.173	3.62
670.204	8.62
670.236	8.62
670.267	-2.38
670.299	8.62
670.33	16.62
670.362	-1.38
670.393	-7.38
670.424	5.62
670.456	-7.38
670.487	-1.38
670.518	16.62
670.55	-2.38
670.581	-0.38
670.613	-11.38
670.644	-0.38
670.675	-10.38
670.707	-2.38
670.738	3.62
670.769	9.62
670.801	-11.38
670.832	18.62
670.864	-2.38
670.895	16.62
670.926	16.62
670.958	12.62
670.989	5.62
671.02	18.62
671.052	-9.38
671.083	5.62
671.114	-11.38
671.146	4.62
671.177	6.62
671.208	-14.38
671.24	-8.38
671.271	1.62
671.302	3.62
671.333	-6.38
671.365	-22.38
671.396	-12.38
671.427	21.62
671.459	11.62
671.49	4.62
671.521	1.62
671.553	11.62
671.584	1.62
671.615	-4.38
671.646	10.62
671.678	9.62
671.709	-13.38
671.74	-12.38
671.771	-3.38
671.803	4.62
671.834	8.62
671.865	0.62
671.896	-14.38
671.928	3.62
671.959	3.62
671.99	10.62
672.021	2.62
672.053	-4.38
672.084	11.62
672.115	5.62
672.146	-2.38
672.178	-1.38
672.209	-7.38
672.24	-1.38
672.271	25.62
672.303	6.62
672.334	-6.38
672.365	-18.38
672.396	-15.38
672.427	-2.38
672.459	4.62
672.49	18.62
672.521	-1.38
672.552	6.62
672.583	5.62
672.615	9.62
672.646	15.62
672.677	8.62
672.708	-4.38
672.739	-10.38
672.77	8.62
672.802	1.62
672.833	-10.38
672.864	-0.38
672.895	-12.38
672.926	-7.38
672.957	-13.38
672.989	-6.38
673.02	-0.38
673.051	6.62
673.082	22.62
673.113	13.62
673.144	9.62
673.175	1.62
673.206	-10.38
673.238	-6.38
673.269	2.62
673.3	-5.38
673.331	14.62
673.362	-0.38
673.393	-2.38
673.424	-3.38
673.455	-6.38
673.487	-1.38
673.518	2.62
673.549	-5.38
673.58	-0.38
673.611	-13.38
673.642	2.62
673.673	-12.38
673.704	5.62
673.735	10.62
673.766	-4.38
673.797	-6.38
673.828	-5.38
673.86	-15.38
673.891	0.62
673.922	-4.38
673.953	-6.38
673.984	-6.38
674.015	4.62
674.046	13.62
674.077	13.62
674.108	1.62
674.139	0.62
674.17	-3.38
674.201	-11.38
674.232	12.62
674.263	-4.38
674.294	-1.38
674.325	-14.38
674.356	12.62
674.387	22.62
674.418	0.62
674.449	-17.38
674.48	-5.38
674.511	-0.38
674.542	-3.38
674.573	-5.38
674.604	17.62
674.635	-7.38
674.666	-1.38
674.697	-1.38
674.728	2.62
674.759	-13.38
674.79	0.62
674.821	-10.38
674.852	4.62
674.883	-12.38
674.914	-15.38
674.945	12.62
674.976	-0.38
675.007	4.62
675.038	-15.38
675.069	-19.38
675.1	-11.38
675.131	-4.38
675.162	-2.38
675.193	-3.38
675.224	10.62
675.254	11.62
675.285	11.62
675.316	2.62
675.347	8.62
675.378	0.62
675.409	-5.38
675.44	13.62
675.471	4.62
675.502	-6.38
675.533	-4.38
675.564	-15.38
675.595	-11.38
675.625	3.62
675.656	2.62
675.687	2.62
675.718	-20.38
675.749	0.62
675.78	-5.38
675.811	-7.38
675.842	2.62
675.873	9.62
675.903	5.62
675.934	-2.38
675.965	-4.38
675.996	-14.38
676.027	0.62
676.058	-7.38
676.089	-18.38
676.119	7.62
676.15	3.62
676.181	-6.38
676.212	2.62
676.243	-0.38
676.274	-10.38
676.304	4.62
676.335	-12.38
676.366	8.62
676.397	-3.38
676.428	8.62
676.459	9.62
676.489	20.62
676.52	17.62
676.551	0.62
676.582	-16.38
676.613	-1.38
676.643	-3.38
676.674	16.62
676.705	0.62
676.736	7.62
676.767	5.62
676.797	12.62
676.828	0.62
676.859	1.62
676.89	-2.38
676.92	4.62
676.951	6.62
676.982	-5.38
677.013	-7.38
677.044	13.62
677.074	13.62
677.105	-5.38
677.136	5.62
677.167	6.62
677.197	15.62
677.228	3.62
677.259	-13.38
677.289	7.62
677.32	-6.38
677.351	-6.38
677.382	-2.38
677.412	5.62
677.443	5.62
677.474	11.62
677.505	-2.38
677.535	-0.38
677.566	-5.38
677.597	-7.38
677.627	9.62
677.658	2.62
677.689	14.62
677.72	-11.38
677.75	-7.38
677.781	-3.38
677.812	4.62
677.842	2.62
677.873	-5.38
677.904	-13.38
677.934	3.62
677.965	0.62
677.996	-17.38
678.026	16.62
678.057	9.62
678.088	-13.38
678.118	-1.38
678.149	-22.38
678.18	1.62
678.21	-10.38
678.241	11.62
678.272	-1.38
678.302	10.62
678.333	14.62
678.363	11.62
678.394	9.62
678.425	3.62
678.455	-14.38
678.486	6.62
678.517	-6.38
678.547	1.62
678.578	-2.38
678.608	-9.38
678.639	3.62
678.67	0.62
678.7	-7.38
678.731	9.62
678.761	1.62
678.792	12.62
678.823	5.62
678.853	6.62
678.884	-3.38
678.914	17.62
678.945	0.62
678.975	-15.38
679.006	-2.38
679.037	-8.38
679.067	21.62
679.098	0.62
679.128	1.62
679.159	-5.38
679.189	9.62
679.22	-11.38
679.25	6.62
679.281	-6.38
679.312	1.62
679.342	3.62
679.373	8.62
679.403	-4.38
679.434	7.62
679.464	8.62
679.495	16.62
679.525	-4.38
679.556	-6.38
679.586	19.62
679.617	6.62
679.647	5.62
679.678	9.62
679.708	3.62
679.739	-8.38
679.769	-1.38
679.8	8.62
679.83	5.62
679.861	5.62
679.891	-6.38
679.922	-13.38
679.952	-12.38
679.983	2.62
680.013	11.62
680.044	-13.38
680.074	8.62
680.105	8.62
680.135	-3.38
680.165	5.62
680.196	16.62
680.226	-0.38
680.257	8.62
680.287	10.62
680.318	7.62
680.348	-9.38
680.379	14.62
680.409	27.62
680.439	-0.38
680.47	-2.38
680.5	3.62
680.531	2.62
680.561	13.62
680.592	6.62
680.622	34.62
680.652	2.62
680.683	-2.38
680.713	0.62
680.744	1.62
680.774	-6.38
680.804	17.62
680.835	24.62
680.865	9.62
680.896	21.62
680.926	22.62
680.956	-4.38
680.987	12.62
681.017	9.62
681.047	-5.38
681.078	4.62
681.108	11.62
681.139	11.62
681.169	-14.38
681.199	10.62
681.23	2.62
681.26	11.62
681.29	-4.38
681.321	-7.38
681.351	4.62
681.381	-11.38
681.412	1.62
681.442	-3.38
681.472	19.62
681.503	9.62
681.533	11.62
681.563	-4.38
681.594	-4.38
681.624	-1.38
681.654	-2.38
681.685	-2.38
681.715	-2.38
681.745	6.62
681.775	9.62
681.806	2.62
681.836	6.62
681.866	-2.38
681.897	3.62
681.927	4.62
681.957	-19.38
681.987	-12.38
682.018	2.62
682.048	17.62
682.078	4.62
682.109	13.62
682.139	-2.38
682.169	-8.38
682.199	6.62
682.23	-10.38
682.26	5.62
682.29	-5.38
682.32	2.62
682.351	4.62
682.381	-1.38
682.411	-7.38
682.441	-9.38
682.472	-0.38
682.502	-1.38
682.532	10.62
682.562	4.62
682.592	4.62
682.623	6.62
682.653	8.62
682.683	-11.38
682.713	3.62
682.743	1.62
682.774	-4.38
682.804	2.62
682.834	11.62
682.864	8.62
682.894	4.62
682.925	-3.38
682.955	2.62
682.985	1.62
683.015	12.62
683.045	9.62
683.076	-8.38
683.106	3.62
683.136	-19.38
683.166	-12.38
683.196	-4.38
683.226	-1.38
683.257	-2.38
683.287	6.62
683.317	2.62
683.347	-12.38
683.377	-7.38
683.407	2.62
683.437	16.62
683.468	3.62
683.498	-10.38
683.528	-1.38
683.558	5.62
683.588	-11.38
683.618	3.62
683.648	3.62
683.678	17.62
683.708	-1.38
683.739	0.62
683.769	0.62
683.799	1.62
683.829	8.62
683.859	7.62
683.889	13.62
683.919	-4.38
683.949	14.62
683.979	9.62
684.009	4.62
684.039	5.62
684.07	-13.38
684.1	8.62
684.13	0.62
684.16	2.62
684.19	-4.38
684.22	2.62
684.25	4.62
684.28	-3.38
684.31	16.62
684.34	4.62
684.37	10.62
684.4	3.62
684.43	-5.38
684.46	-4.38
684.49	-5.38
684.52	-7.38
684.55	5.62
684.58	-8.38
684.61	-14.38
684.64	6.62
684.67	12.62
684.7	3.62
684.73	1.62
684.76	-2.38
684.79	8.62
684.82	11.62
684.85	-2.38
684.88	9.62
684.91	14.62
684.94	-6.38
684.97	-4.38
685	0.62
685.03	-2.38
685.06	1.62
685.09	2.62
685.12	21.62
685.15	-0.38
685.18	3.62
685.21	5.62
685.24	23.62
685.27	11.62
685.3	3.62
685.33	8.62
685.36	25.62
685.39	3.62
685.42	-10.38
685.45	1.62
685.48	-3.38
685.51	-10.38
685.54	17.62
685.569	7.62
685.599	-5.38
685.629	-5.38
685.659	5.62
685.689	-4.38
685.719	9.62
685.749	-13.38
685.779	0.62
685.809	-2.38
685.839	6.62
685.869	15.62
685.898	9.62
685.928	-2.38
685.958	-4.38
685.988	12.62
686.018	3.62
686.048	3.62
686.078	4.62
686.108	5.62
686.137	7.62
686.167	14.62
686.197	-4.38
686.227	-0.38
686.257	21.62
686.287	19.62
686.317	22.62
686.346	6.62
686.376	-3.38
686.406	-7.38
686.436	-12.38
686.466	-2.38
686.496	0.62
686.525	-0.38
686.555	-17.38
686.585	24.62
686.615	32.62
686.645	5.62
686.675	2.62
686.704	5.62
686.734	12.62
686.764	14.62
686.794	8.62
686.824	2.62
686.853	8.62
686.883	18.62
686.913	7.62
686.943	-2.38
686.973	3.62
687.002	21.62
687.032	8.62
687.062	5.62
687.092	4.62
687.121	1.62
687.151	15.62
687.181	4.62
687.211	13.62
687.24	5.62
687.27	6.62
687.3	1.62
687.33	-0.38
687.359	-9.38
687.389	11.62
687.419	13.62
687.449	4.62
687.478	15.62
687.508	2.62
687.538	6.62
687.568	9.62
687.597	-10.38
687.627	0.62
687.657	-5.38
687.686	14.62
687.716	16.62
687.746	-21.38
687.776	5.62
687.805	10.62
687.835	2.62
687.865	12.62
687.894	21.62
687.924	4.62
687.954	-11.38
687.983	-4.38
688.013	9.62
688.043	6.62
688.072	2.62
688.102	18.62
688.132	-5.38
688.161	-4.38
688.191	-7.38
688.221	25.62
688.25	1.62
688.28	1.62
688.31	4.62
688.339	-0.38
688.369	-6.38
688.399	1.62
688.428	-14.38
688.458	2.62
688.488	-0.38
688.517	4.62
688.547	-4.38
688.576	43.62
688.606	11.62
688.636	-2.38
688.665	5.62
688.695	10.62
688.725	11.62
688.754	-0.38
688.784	-4.38
688.813	18.62
688.843	14.62
688.873	3.62
688.902	-6.38
688.932	0.62
688.961	9.62
688.991	12.62
689.02	6.62
689.05	-7.38
689.08	3.62
689.109	4.62
689.139	11.62
689.168	3.62
689.198	12.62
689.227	2.62
689.257	9.62
689.287	1.62
689.316	3.62
689.346	-4.38
689.375	-17.38
689.405	9.62
689.434	-14.38
689.464	13.62
689.493	-4.38
689.523	-5.38
689.552	-20.38
689.582	9.62
689.611	5.62
689.641	1.62
689.67	-10.38
689.7	9.62
689.73	6.62
689.759	6.62
689.789	19.62
689.818	3.62
689.848	12.62
689.877	1.62
689.906	3.62
689.936	-1.38
689.965	1.62
689.995	24.62
690.024	10.62
690.054	17.62
690.083	15.62
690.113	-5.38
690.142	-3.38
690.172	-2.38
690.201	10.62
690.231	-0.38
690.26	13.62
690.29	12.62
690.319	12.62
690.348	12.62
690.378	8.62
690.407	1.62
690.437	15.62
690.466	5.62
690.496	1.62
690.525	2.62
690.555	-3.38
690.584	8.62
690.613	2.62
690.643	4.62
690.672	7.62
690.702	22.62
690.731	5.62
690.76	3.62
690.79	-0.38
690.819	-3.38
690.849	11.62
690.878	6.62
690.907	4.62
690.937	6.62
690.966	15.62
690.996	2.62
691.025	17.62
691.054	1.62
691.084	6.62
691.113	-8.38
691.142	9.62
691.172	5.62
691.201	18.62
691.23	-4.38
691.26	25.62
691.289	12.62
691.319	2.62
691.348	-8.38
691.377	17.62
691.407	1.62
691.436	3.62
691.465	7.62
691.495	1.62
691.524	-10.38
691.553	-9.38
691.583	-17.38
691.612	25.62
691.641	1.62
691.67	4.62
691.7	5.62
691.729	-8.38
691.758	1.62
691.788	-6.38
691.817	-2.38
691.846	-3.38
691.876	-1.38
691.905	2.62
691.934	4.62
691.963	4.62
691.993	2.62
692.022	-8.38
692.051	-2.38
692.081	6.62
692.11	19.62
692.139	18.62
692.168	4.62
692.198	20.62
692.227	12.62
692.256	-3.38
692.285	7.62
692.315	9.62
692.344	9.62
692.373	3.62
692.402	-22.38
692.432	9.62
692.461	4.62
692.49	-1.38
692.519	-13.38
692.548	3.62
692.578	10.62
692.607	-2.38
692.636	4.62
692.665	7.62
692.694	-13.38
692.724	10.62
692.753	5.62
692.782	8.62
692.811	-4.38
692.84	9.62
692.87	2.62
692.899	5.62
692.928	-7.38
692.957	0.62
692.986	12.62
693.016	13.62
693.045	3.62
693.074	4.62
693.103	-3.38
693.132	0.62
693.161	0.62
693.191	-17.38
693.22	6.62
693.249	12.62
693.278	-1.38
693.307	19.62
693.336	-22.38
693.365	-4.38
693.395	3.62
693.424	7.62
693.453	21.62
693.482	3.62
693.511	-2.38
693.54	4.62
693.569	4.62
693.598	7.62
693.628	5.62
693.657	10.62
693.686	17.62
693.715	15.62
693.744	3.62
693.773	20.62
693.802	5.62
693.831	0.62
693.86	24.62
693.889	-11.38
693.919	1.62
693.948	4.62
693.977	12.62
694.006	8.62
694.035	-12.38
694.064	8.62
694.093	0.62
694.122	2.62
694.151	1.62
694.18	-10.38
694.209	14.62
694.238	15.62
694.267	21.62
694.296	26.62
694.325	13.62
694.354	17.62
694.383	14.62
694.412	4.62
694.441	3.62
694.471	11.62
694.5	-0.38
694.529	10.62
694.558	23.62
694.587	7.62
694.616	0.62
694.645	-8.38
694.674	14.62
694.703	-0.38
694.732	-6.38
694.761	12.62
694.79	22.62
694.819	-10.38
694.848	-4.38
694.877	33.62
694.906	36.62
694.935	1.62
694.963	34.62
694.992	13.62
695.021	12.62
695.05	11.62
695.079	15.62
695.108	9.62
695.137	17.62
695.166	-2.38
695.195	9.62
695.224	-1.38
695.253	4.62
695.282	-6.38
695.311	7.62
695.34	-1.38
695.369	12.62
695.398	11.62
695.427	21.62
695.456	6.62
695.485	-1.38
695.513	1.62
695.542	1.62
695.571	-15.38
695.6	7.62
695.629	6.62
695.658	6.62
695.687	2.62
695.716	7.62
695.745	9.62
695.774	-0.38
695.802	-0.38
695.831	4.62
695.86	14.62
695.889	11.62
695.918	7.62
695.947	-10.38
695.976	-7.38
696.005	-5.38
696.033	-3.38
696.062	14.62
696.091	8.62
696.12	8.62
696.149	17.62
696.178	1.62
696.207	8.62
696.235	-4.38
696.264	11.62
696.293	13.62
696.322	26.62
696.351	20.62
696.38	-12.38
696.408	7.62
696.437	-0.38
696.466	-1.38
696.495	12.62
696.524	20.62
696.553	1.62
696.581	12.62
696.61	1.62
696.639	2.62
696.668	-0.38
696.697	2.62
696.725	20.62
696.754	0.62
696.783	-4.38
696.812	-11.38
696.84	2.62
696.869	4.62
696.898	-6.38
696.927	11.62
696.956	28.62
696.984	3.62
697.013	8.62
697.042	-6.38
697.071	3.62
697.099	8.62
697.128	9.62
697.157	12.62
697.186	-2.38
697.214	-4.38
697.243	-8.38
697.272	1.62
697.301	-1.38
697.329	12.62
697.358	2.62
697.387	20.62
697.415	8.62
697.444	2.62
697.473	4.62
697.502	-8.38
697.53	12.62
697.559	-10.38
697.588	-6.38
697.616	5.62
697.645	8.62
697.674	12.62
697.703	4.62
697.731	-1.38
697.76	10.62
697.789	-13.38
697.817	4.62
697.846	11.62
697.875	-7.38
697.903	15.62
697.932	8.62
697.961	8.62
697.989	-2.38
698.018	2.62
698.047	-5.38
698.075	10.62
698.104	-1.38
698.133	1.62
698.161	0.62
698.19	-16.38
698.218	10.62
698.247	7.62
698.276	-9.38
698.304	10.62
698.333	9.62
698.362	9.62
698.39	1.62
698.419	10.62
698.447	5.62
698.476	-1.38
698.505	9.62
698.533	8.62
698.562	8.62
698.591	-5.38
698.619	-2.38
698.648	3.62
698.676	6.62
698.705	-4.38
698.733	1.62
698.762	2.62
698.791	-1.38
698.819	-7.38
698.848	-3.38
698.876	13.62
698.905	11.62
698.933	12.62
698.962	8.62
698.991	7.62
699.019	17.62
699.048	7.62
699.076	12.62
699.105	-13.38
699.133	7.62
699.162	-0.38
699.19	17.62
699.219	12.62
699.248	4.62
699.276	-14.38
699.305	-2.38
699.333	12.62
699.362	-5.38
699.39	6.62
699.419	-3.38
699.447	6.62
699.476	10.62
699.504	1.62
699.533	11.62
699.561	-18.38
699.59	-4.38
699.618	-9.38
699.647	-4.38
699.675	-17.38
699.704	6.62
699.732	3.62
699.761	7.62
699.789	6.62
699.818	18.62
699.846	11.62
699.874	-4.38
699.903	-13.38
699.931	-14.38
699.96	-2.38
699.988	10.62
700.017	8.62
700.045	9.62
700.074	15.62
700.102	9.62
700.13	-0.38
700.159	-2.38
700.187	-2.38
700.216	13.62
700.244	1.62
700.273	14.62
700.301	22.62
700.329	11.62
700.358	28.62
700.386	-1.38
700.415	11.62
700.443	-0.38
700.472	13.62
700.5	12.62
700.528	11.62
700.557	34.62
700.585	6.62
700.614	7.62
700.642	26.62
700.67	27.62
700.699	15.62
700.727	1.62
700.755	-2.38
700.784	-9.38
700.812	4.62
700.841	13.62
700.869	6.62
700.897	0.62
700.926	14.62
700.954	18.62
700.982	10.62
701.011	-6.38
701.039	1.62
701.067	-4.38
701.096	6.62
701.124	0.62
701.152	0.62
701.181	-8.38
701.209	-32.38
701.237	3.62
701.266	-6.38
701.294	-14.38
701.322	3.62
701.351	10.62
701.379	0.62
701.407	-1.38
701.435	9.62
701.464	20.62
701.492	19.62
701.52	-2.38
701.549	6.62
701.577	-3.38
701.605	-11.38
701.634	3.62
701.662	-4.38
701.69	5.62
701.718	-3.38
701.747	14.62
701.775	13.62
701.803	2.62
701.831	11.62
701.86	0.62
701.888	5.62
701.916	2.62
701.944	8.62
701.973	10.62
702.001	-6.38
702.029	-18.38
702.057	-3.38
702.086	-12.38
702.114	-5.38
702.142	8.62
702.17	-9.38
702.199	-6.38
702.227	21.62
702.255	4.62
702.283	-19.38
702.311	2.62
702.34	0.62
702.368	2.62
702.396	3.62
702.424	2.62
702.452	0.62
702.481	-0.38
702.509	-2.38
702.537	-0.38
702.565	2.62
702.593	-13.38
702.621	14.62
702.65	15.62
702.678	3.62
702.706	-2.38
702.734	-3.38
702.762	-5.38
702.79	8.62
702.819	23.62
702.847	-2.38
702.875	2.62
702.903	4.62
702.931	-8.38
702.959	-12.38
702.988	-1.38
703.016	-0.38
703.044	-11.38
703.072	4.62
703.1	-8.38
703.128	-2.38
703.156	10.62
703.184	3.62
703.212	11.62
703.241	7.62
703.269	10.62
703.297	10.62
703.325	9.62
703.353	2.62
703.381	-6.38
703.409	1.62
703.437	0.62
703.465	-5.38
703.493	-19.38
703.522	5.62
703.55	8.62
703.578	8.62
703.606	-7.38
703.634	-5.38
703.662	7.62
703.69	10.62
703.718	13.62
703.746	9.62
703.774	10.62
703.802	11.62
703.83	5.62
703.858	-12.38
703.886	0.62
703.914	-9.38
703.942	22.62
703.97	8.62
703.998	7.62
704.027	4.62
704.055	9.62
704.083	-14.38
704.111	-1.38
704.139	4.62
704.167	2.62
704.195	15.62
704.223	-3.38
704.251	2.62
704.279	-5.38
704.307	-0.38
704.335	-27.38
704.363	1.62
704.391	-1.38
704.419	1.62
704.447	-16.38
704.475	24.62
704.503	-3.38
704.531	8.62
704.558	-10.38
704.586	2.62
704.614	-0.38
704.642	6.62
704.67	1.62
704.698	-13.38
704.726	9.62
704.754	-0.38
704.782	-1.38
704.81	1.62
704.838	5.62
704.866	9.62
704.894	-11.38
704.922	-7.38
704.95	3.62
704.978	6.62
705.006	5.62
705.034	6.62
705.061	4.62
705.089	11.62
705.117	-4.38
705.145	-5.38
705.173	-12.38
705.201	4.62
705.229	18.62
705.257	-4.38
705.285	14.62
705.313	18.62
705.34	-0.38
705.368	-12.38
705.396	4.62
705.424	0.62
705.452	0.62
705.48	6.62
705.508	-2.38
705.536	-1.38
705.563	-8.38
705.591	1.62
705.619	15.62
705.647	-9.38
705.675	-8.38
705.703	1.62
705.731	-13.38
705.758	9.62
705.786	-6.38
705.814	17.62
705.842	9.62
705.87	12.62
705.898	6.62
705.925	2.62
705.953	1.62
705.981	-1.38
706.009	9.62
706.037	11.62
706.065	-2.38
706.092	-19.38
706.12	-6.38
706.148	-11.38
706.176	3.62
706.204	12.62
706.231	6.62
706.259	-8.38
706.287	-0.38
706.315	1.62
706.342	-7.38
706.37	3.62
706.398	-1.38
706.426	0.62
706.454	-1.38
706.481	5.62
706.509	-1.38
706.537	8.62
706.565	-1.38
706.592	2.62
706.62	7.62
706.648	1.62
706.676	-11.38
706.703	-2.38
706.731	-1.38
706.759	13.62
706.787	5.62
706.814	-0.38
706.842	-4.38
706.87	6.62
706.897	3.62
706.925	-3.38
706.953	-1.38
706.981	11.62
707.008	2.62
707.036	10.62
707.064	0.62
707.091	-3.38
707.119	6.62
707.147	9.62
707.174	-4.38
707.202	9.62
707.23	-17.38
707.258	-1.38
707.285	-4.38
707.313	7.62
707.341	-12.38
707.368	-19.38
707.396	-7.38
707.424	11.62
707.451	5.62
707.479	1.62
707.507	-9.38
707.534	-3.38
707.562	-1.38
707.59	-23.38
707.617	-10.38
707.645	-4.38
707.672	-1.38
707.7	8.62
707.728	13.62
707.755	-5.38
707.783	-14.38
707.811	10.62
707.838	13.62
707.866	2.62
707.893	-5.38
707.921	-19.38
707.949	1.62
707.976	-1.38
708.004	-12.38
708.031	0.62
708.059	-11.38
708.087	-14.38
708.114	-14.38
708.142	-1.38
708.169	1.62
708.197	-15.38
708.225	-3.38
708.252	-6.38
708.28	4.62
708.307	-0.38
708.335	-2.38
708.362	-3.38
708.39	0.62
708.418	13.62
708.445	-4.38
708.473	-5.38
708.5	-4.38
708.528	0.62
708.555	-14.38
708.583	-3.38
708.61	6.62
708.638	2.62
708.665	-4.38
708.693	-2.38
708.72	-5.38
708.748	4.62
708.776	2.62
708.803	20.62
708.831	21.62
708.858	7.62
708.886	3.62
708.913	1.62
708.941	-4.38
708.968	26.62
708.996	-8.38
709.023	23.62
709.051	8.62
709.078	-8.38
709.105	9.62
709.133	5.62
709.16	5.62
709.188	6.62
709.215	4.62
709.243	10.62
709.27	-20.38
709.298	-10.38
709.325	-13.38
709.353	-1.38
709.38	-5.38
709.408	2.62
709.435	0.62
709.462	-1.38
709.49	7.62
709.517	11.62
709.545	5.62
709.572	1.62
709.6	-6.38
709.627	9.62
709.655	4.62
709.682	11.62
709.709	-0.38
709.737	-3.38
709.764	-3.38
709.792	10.62
709.819	1.62
709.846	-7.38
709.874	12.62
709.901	8.62
709.929	18.62
709.956	13.62
709.983	1.62
710.011	-8.38
710.038	4.62
710.066	10.62
710.093	8.62
710.12	-9.38
710.148	-14.38
710.175	-7.38
710.202	-13.38
710.23	6.62
710.257	8.62
710.284	29.62
710.312	1.62
710.339	-24.38
710.366	-11.38
710.394	2.62
710.421	-1.38
710.448	15.62
710.476	0.62
710.503	6.62
710.53	6.62
710.558	26.62
710.585	20.62
710.612	1.62
710.64	1.62
710.667	-11.38
710.694	-8.38
710.722	0.62
710.749	4.62
710.776	5.62
710.804	18.62
710.831	6.62
710.858	2.62
710.885	-4.38
710.913	4.62
710.94	9.62
710.967	23.62
710.995	5.62
711.022	-0.38
711.049	10.62
711.076	-14.38
711.104	0.62
711.131	-14.38
711.158	2.62
711.185	15.62
711.213	-0.38
711.24	1.62
711.267	12.62
711.294	0.62
711.322	8.62
711.349	-3.38
711.376	-6.38
711.403	6.62
711.431	-5.38
711.458	4.62
711.485	-5.38
711.512	19.62
711.54	3.62
711.567	-12.38
711.594	4.62
711.621	0.62
711.648	15.62
711.676	1.62
711.703	9.62
711.73	2.62
711.757	-0.38
711.784	-2.38
711.812	2.62
711.839	2.62
711.866	-4.38
711.893	-12.38
711.92	6.62
711.947	0.62
711.975	4.62
712.002	-3.38
712.029	29.62
712.056	6.62
712.083	3.62
712.11	-1.38
712.138	-2.38
712.165	5.62
712.192	-7.38
712.219	8.62
712.246	-1.38
712.273	4.62
712.3	2.62
712.328	15.62
712.355	4.62
712.382	-3.38
712.409	5.62
712.436	-6.38
712.463	13.62
712.49	19.62
712.517	18.62
712.544	-5.38
712.572	-7.38
712.599	-1.38
712.626	5.62
712.653	10.62
712.68	-10.38
712.707	13.62
712.734	6.62
712.761	8.62
712.788	-0.38
712.815	7.62
712.842	14.62
712.87	0.62
712.897	-3.38
712.924	-8.38
712.951	11.62
712.978	16.62
713.005	4.62
713.032	-6.38
713.059	1.62
713.086	8.62
713.113	-9.38
713.14	-26.38
713.167	-0.38
713.194	5.62
713.221	-7.38
713.248	11.62
713.275	14.62
713.302	-2.38
713.329	-6.38
713.356	-1.38
713.383	4.62
713.41	19.62
713.437	-7.38
713.464	5.62
713.491	18.62
713.518	1.62
713.545	-7.38
713.572	-1.38
713.599	23.62
713.626	-6.38
713.653	23.62
713.68	4.62
713.707	-8.38
713.734	12.62
713.761	-1.38
713.788	-1.38
713.815	18.62
713.842	-0.38
713.869	11.62
713.896	6.62
713.923	-13.38
713.95	-12.38
713.977	-23.38
714.004	7.62
714.031	-8.38
714.058	-9.38
714.085	-10.38
714.112	22.62
714.139	3.62
714.165	0.62
714.192	2.62
714.219	-2.38
714.246	13.62
714.273	9.62
714.3	7.62
714.327	-6.38
714.354	9.62
714.381	-5.38
714.408	-3.38
714.435	-1.38
714.461	0.62
714.488	9.62
714.515	21.62
714.542	-11.38
714.569	-15.38
714.596	-13.38
714.623	-5.38
714.65	3.62
714.677	8.62
714.703	-19.38
714.73	0.62
714.757	-12.38
714.784	6.62
714.811	1.62
714.838	20.62
714.865	-0.38
714.891	14.62
714.918	-6.38
714.945	-6.38
714.972	-22.38
714.999	-0.38
715.026	3.62
715.052	14.62
715.079	3.62
715.106	-1.38
715.133	-1.38
715.16	-5.38
715.187	18.62
715.213	6.62
715.24	-6.38
715.267	4.62
715.294	6.62
715.321	-3.38
715.347	7.62
715.374	1.62
715.401	1.62
715.428	5.62
715.455	10.62
715.481	-17.38
715.508	-1.38
715.535	-4.38
715.562	24.62
715.588	1.62
715.615	-1.38
715.642	-0.38
715.669	2.62
715.695	-1.38
715.722	10.62
715.749	-3.38
715.776	8.62
715.802	-7.38
715.829	-5.38
715.856	-21.38
715.883	9.62
715.909	0.62
715.936	2.62
715.963	13.62
715.99	8.62
716.016	9.62
716.043	-9.38
716.07	-10.38
716.096	-10.38
716.123	3.62
716.15	-15.38
716.177	7.62
716.203	17.62
716.23	-0.38
716.257	6.62
716.283	20.62
716.31	22.62
716.337	-3.38
716.363	-5.38
716.39	-5.38
716.417	9.62
716.443	-4.38
716.47	17.62
716.497	9.62
716.523	15.62
716.55	0.62
716.577	5.62
716.603	2.62
716.63	1.62
716.657	20.62
716.683	1.62
716.71	13.62
716.737	5.62
716.763	4.62
716.79	10.62
716.817	21.62
716.843	1.62
716.87	-15.38
716.897	-18.38
716.923	24.62
716.95	1.62
716.976	-7.38
717.003	7.62
717.03	-0.38
717.056	-2.38
717.083	5.62
717.109	0.62
717.136	5.62
717.163	11.62
717.189	3.62
717.216	4.62
717.242	-4.38
717.269	7.62
717.296	16.62
717.322	10.62
717.349	13.62
717.375	7.62
717.402	2.62
717.428	17.62
717.455	-1.38
717.481	0.62
717.508	18.62
717.535	7.62
717.561	-2.38
717.588	-11.38
717.614	0.62
717.641	0.62
717.667	8.62
717.694	16.62
717.72	-7.38
717.747	-2.38
717.773	2.62
717.8	-2.38
717.826	-11.38
717.853	-5.38
717.88	11.62
717.906	2.62
717.933	15.62
717.959	13.62
717.986	4.62
718.012	-6.38
718.039	6.62
718.065	12.62
718.092	14.62
718.118	-11.38
718.144	-6.38
718.171	27.62
718.197	24.62
718.224	-6.38
718.25	-3.38
718.277	11.62
718.303	6.62
718.33	10.62
718.356	1.62
718.383	-6.38
718.409	2.62
718.436	-7.38
718.462	4.62
718.489	-6.38
718.515	12.62
718.541	3.62
718.568	-9.38
718.594	14.62
718.621	10.62
718.647	-5.38
718.674	15.62
718.7	2.62
718.726	4.62
718.753	-2.38
718.779	9.62
718.806	6.62
718.832	-4.38
718.858	0.62
718.885	-3.38
718.911	16.62
718.938	8.62
718.964	-3.38
718.99	3.62
719.017	5.62
719.043	6.62
719.07	13.62
719.096	-9.38
719.122	0.62
719.149	-7.38
719.175	17.62
719.201	-10.38
719.228	-13.38
719.254	3.62
719.281	-0.38
719.307	-11.38
719.333	-3.38
719.36	14.62
719.386	5.62
719.412	1.62
719.439	-8.38
719.465	-4.38
719.491	-0.38
719.518	9.62
719.544	8.62
719.57	19.62
719.597	8.62
719.623	2.62
719.649	12.62
719.675	0.62
719.702	-11.38
719.728	21.62
719.754	-12.38
719.781	-2.38
719.807	-8.38
719.833	-3.38
719.86	-2.38
719.886	12.62
719.912	12.62
719.938	3.62
719.965	-3.38
719.991	8.62
720.017	2.62
720.044	-3.38
720.07	14.62
720.096	18.62
720.122	4.62
720.149	6.62
720.175	18.62
720.201	19.62
720.227	-3.38
720.254	-2.38
720.28	0.62
720.306	-11.38
720.332	3.62
720.359	0.62
720.385	11.62
720.411	-3.38
720.437	4.62
720.463	5.62
720.49	11.62
720.516	7.62
720.542	10.62
720.568	-8.38
720.595	1.62
720.621	-0.38
720.647	-9.38
720.673	6.62
720.699	9.62
720.725	10.62
720.752	0.62
720.778	18.62
720.804	12.62
720.83	17.62
720.856	-17.38
720.883	-1.38
720.909	-2.38
720.935	4.62
720.961	0.62
720.987	-1.38
721.013	1.62
721.04	1.62
721.066	-6.38
721.092	-1.38
721.118	-1.38
721.144	13.62
721.17	-4.38
721.196	-5.38
721.223	-10.38
721.249	-20.38
721.275	1.62
721.301	-4.38
721.327	15.62
721.353	6.62
721.379	-5.38
721.405	11.62
721.432	6.62
721.458	-2.38
721.484	-2.38
721.51	-18.38
721.536	4.62
721.562	4.62
721.588	14.62
721.614	-8.38
721.64	-1.38
721.666	-3.38
721.693	1.62
721.719	9.62
721.745	-18.38
721.771	-10.38
721.797	-4.38
721.823	-4.38
721.849	5.62
721.875	1.62
721.901	10.62
721.927	8.62
721.953	10.62
721.979	18.62
722.005	22.62
722.031	-2.38
722.057	6.62
722.083	-0.38
722.109	1.62
722.135	5.62
722.161	14.62
722.187	5.62
722.214	4.62
722.24	6.62
722.266	-4.38
722.292	6.62
722.318	11.62
722.344	8.62
722.37	22.62
722.396	26.62
722.422	-13.38
722.448	-2.38
722.474	-11.38
722.5	21.62
722.526	4.62
722.552	6.62
722.578	-2.38
722.603	4.62
722.629	2.62
722.655	6.62
722.681	-11.38
722.707	0.62
722.733	-4.38
722.759	-5.38
722.785	0.62
722.811	0.62
722.837	12.62
722.863	6.62
722.889	9.62
722.915	0.62
722.941	-1.38
722.967	-7.38
722.993	5.62
723.019	1.62
723.045	7.62
723.071	-0.38
723.097	-3.38
723.122	-4.38
723.148	-4.38
723.174	-3.38
723.2	13.62
723.226	6.62
723.252	9.62
723.278	-8.38
723.304	-3.38
723.33	-15.38
723.356	-14.38
723.381	-10.38
723.407	4.62
723.433	15.62
723.459	8.62
723.485	-7.38
723.511	14.62
723.537	-6.38
723.563	4.62
723.588	3.62
723.614	6.62
723.64	9.62
723.666	6.62
723.692	29.62
723.718	6.62
723.744	-3.38
723.769	-13.38
723.795	-19.38
723.821	-4.38
723.847	1.62
723.873	5.62
723.899	2.62
723.924	-2.38
723.95	-3.38
723.976	-9.38
724.002	4.62
724.028	15.62
724.053	-5.38
724.079	7.62
724.105	1.62
724.131	-1.38
724.157	-16.38
724.182	-7.38
724.208	-6.38
724.234	-4.38
724.26	1.62
724.286	-4.38
724.311	-2.38
724.337	-9.38
724.363	-5.38
724.389	0.62
724.415	-15.38
724.44	15.62
724.466	1.62
724.492	1.62
724.518	10.62
724.543	-6.38
724.569	4.62
724.595	1.62
724.621	-14.38
724.646	-11.38
724.672	-2.38
724.698	2.62
724.723	-2.38
724.749	-6.38
724.775	6.62
724.801	8.62
724.826	-4.38
724.852	11.62
724.878	-2.38
724.904	-2.38
724.929	14.62
724.955	1.62
724.981	3.62
725.006	1.62
725.032	-2.38
725.058	5.62
725.083	3.62
725.109	-2.38
725.135	-1.38
725.161	-2.38
725.186	13.62
725.212	-1.38
725.238	19.62
725.263	5.62
725.289	-4.38
725.315	-8.38
725.34	7.62
725.366	8.62
725.392	-8.38
725.417	-4.38
725.443	0.62
725.468	-0.38
725.494	13.62
725.52	18.62
725.545	11.62
725.571	-0.38
725.597	-7.38
725.622	5.62
725.648	2.62
725.674	13.62
725.699	1.62
725.725	0.62
725.75	21.62
725.776	7.62
725.802	7.62
725.827	-5.38
725.853	20.62
725.878	6.62
725.904	-2.38
725.93	1.62
725.955	-11.38
725.981	-14.38
726.006	3.62
726.032	24.62
726.057	-6.38
726.083	-11.38
726.109	-11.38
726.134	-8.38
726.16	-6.38
726.185	-10.38
726.211	-16.38
726.236	-1.38
726.262	-7.38
726.288	-5.38
726.313	0.62
726.339	-1.38
726.364	9.62
726.39	5.62
726.415	3.62
726.441	10.62
726.466	6.62
726.492	5.62
726.517	7.62
726.543	0.62
726.568	-27.38
726.594	-8.38
726.619	6.62
726.645	1.62
726.67	-1.38
726.696	15.62
726.721	-5.38
726.747	-20.38
726.772	12.62
726.798	-1.38
726.823	19.62
726.849	-3.38
726.874	22.62
726.9	34.62
726.925	11.62
726.951	2.62
726.976	5.62
727.002	-15.38
727.027	-10.38
727.053	2.62
727.078	9.62
727.104	-1.38
727.129	-7.38
727.155	-6.38
727.18	10.62
727.205	1.62
727.231	0.62
727.256	-6.38
727.282	9.62
727.307	6.62
727.333	-0.38
727.358	-3.38
727.383	-0.38
727.409	16.62
727.434	23.62
727.46	-12.38
727.485	2.62
727.511	6.62
727.536	-14.38
727.561	-5.38
727.587	9.62
727.612	1.62
727.637	-8.38
727.663	-2.38
727.688	11.62
727.714	4.62
727.739	-4.38
727.764	1.62
727.79	-1.38
727.815	2.62
727.841	4.62
727.866	4.62
727.891	-1.38
727.917	-4.38
727.942	1.62
727.967	3.62
727.993	-15.38
728.018	-0.38
728.043	-3.38
728.069	4.62
728.094	-1.38
728.119	3.62
728.145	13.62
728.17	13.62
728.195	8.62
728.221	22.62
728.246	3.62
728.271	-11.38
728.297	-13.38
728.322	4.62
728.347	6.62
728.373	7.62
728.398	6.62
728.423	2.62
728.448	2.62
728.474	7.62
728.499	13.62
728.524	-10.38
728.55	-15.38
728.575	-0.38
728.6	11.62
728.625	0.62
728.651	1.62
728.676	-4.38
728.701	-10.38
728.727	-0.38
728.752	-12.38
728.777	-17.38
728.802	-13.38
728.828	12.62
728.853	4.62
728.878	-2.38
728.903	-10.38
728.929	-13.38
728.954	-1.38
728.979	10.62
729.004	2.62
729.03	-16.38
729.055	-4.38
729.08	0.62
729.105	-7.38
729.13	7.62
729.156	16.62
729.181	2.62
729.206	-21.38
729.231	-6.38
729.256	11.62
729.282	11.62
729.307	-10.38
729.332	-6.38
729.357	-5.38
729.382	1.62
729.408	-3.38
729.433	1.62
729.458	6.62
729.483	7.62
729.508	25.62
729.533	3.62
729.559	-5.38
729.584	-15.38
729.609	6.62
729.634	10.62
729.659	14.62
729.684	-10.38
729.71	6.62
729.735	1.62
729.76	-4.38
729.785	20.62
729.81	15.62
729.835	2.62
729.86	-3.38
729.886	0.62
729.911	11.62
729.936	-6.38
729.961	10.62
729.986	-15.38
730.011	-3.38
730.036	1.62
730.061	5.62
730.086	8.62
730.112	14.62
730.137	17.62
730.162	1.62
730.187	-10.38
730.212	18.62
730.237	-14.38
730.262	2.62
730.287	0.62
730.312	11.62
730.337	-2.38
730.362	15.62
730.387	-3.38
730.413	-10.38
730.438	2.62
730.463	-0.38
730.488	-2.38
730.513	-4.38
730.538	-6.38
730.563	24.62
730.588	8.62
730.613	9.62
730.638	6.62
730.663	0.62
730.688	26.62
730.713	17.62
730.738	4.62
730.763	-7.38
730.788	-0.38
730.813	3.62
730.838	-2.38
730.863	16.62
730.888	-2.38
730.913	-8.38
730.938	-17.38
730.963	-0.38
730.988	4.62
731.013	8.62
731.038	-11.38
731.063	-6.38
731.088	2.62
731.113	1.62
731.138	10.62
731.163	13.62
731.188	2.62
731.213	0.62
731.238	0.62
731.263	-8.38
731.288	-21.38
731.313	-7.38
731.338	0.62
731.363	-8.38
731.388	1.62
731.413	-1.38
731.438	22.62
731.463	1.62
731.487	-1.38
731.512	-10.38
731.537	-3.38
731.562	-10.38
731.587	9.62
731.612	0.62
731.637	2.62
731.662	-10.38
731.687	-10.38
731.712	-9.38
731.737	-4.38
731.762	-5.38
731.786	22.62
731.811	12.62
731.836	8.62
731.861	8.62
731.886	-6.38
731.911	16.62
731.936	15.62
731.961	-4.38
731.986	3.62
732.01	4.62
732.035	2.62
732.06	-3.38
732.085	17.62
732.11	0.62
732.135	-7.38
732.16	21.62
732.184	4.62
732.209	5.62
732.234	20.62
732.259	-2.38
732.284	10.62
732.309	-6.38
732.334	-26.38
732.358	-21.38
732.383	-9.38
732.408	-10.38
732.433	8.62
732.458	0.62
732.482	6.62
732.507	-2.38
732.532	6.62
732.557	2.62
732.582	2.62
732.607	0.62
732.631	-11.38
732.656	-3.38
732.681	13.62
732.706	8.62
732.73	-5.38
732.755	1.62
732.78	-11.38
732.805	17.62
732.83	10.62
732.854	3.62
732.879	2.62
732.904	1.62
732.929	-1.38
732.953	13.62
732.978	8.62
733.003	-3.38
733.028	-1.38
733.052	20.62
733.077	19.62
733.102	10.62
733.127	1.62
733.151	-4.38
733.176	10.62
733.201	9.62
733.226	-10.38
733.25	4.62
733.275	-1.38
733.3	5.62
733.324	20.62
733.349	4.62
733.374	14.62
733.399	-3.38
733.423	4.62
733.448	-5.38
733.473	0.62
733.497	4.62
733.522	0.62
733.547	15.62
733.571	25.62
733.596	1.62
733.621	13.62
733.646	1.62
733.67	-1.38
733.695	-6.38
733.72	4.62
733.744	1.62
733.769	11.62
733.794	11.62
733.818	4.62
733.843	-8.38
733.867	-4.38
733.892	-5.38
733.917	-10.38
733.941	-5.38
733.966	8.62
733.991	-14.38
734.015	9.62
734.04	-3.38
734.065	13.62
734.089	13.62
734.114	-1.38
734.138	7.62
734.163	-1.38
734.188	11.62
734.212	4.62
734.237	21.62
734.261	7.62
734.286	-6.38
734.311	1.62
734.335	-2.38
734.36	22.62
734.384	1.62
734.409	-6.38
734.434	-3.38
734.458	3.62
734.483	2.62
734.507	-19.38
734.532	-11.38
734.556	12.62
734.581	-2.38
734.606	-4.38
734.63	-6.38
734.655	7.62
734.679	-9.38
734.704	-9.38
734.728	7.62
734.753	-23.38
734.777	8.62
734.802	-18.38
734.826	14.62
734.851	8.62
734.876	2.62
734.9	20.62
734.925	12.62
734.949	8.62
734.974	12.62
734.998	14.62
735.023	-7.38
735.047	-11.38
735.072	15.62
735.096	4.62
735.121	13.62
735.145	12.62
735.17	8.62
735.194	1.62
735.219	8.62
735.243	4.62
735.268	9.62
735.292	12.62
735.317	-1.38
735.341	19.62
735.365	-9.38
735.39	4.62
735.414	16.62
735.439	0.62
735.463	-2.38
735.488	5.62
735.512	8.62
735.537	16.62
735.561	-9.38
735.586	-3.38
735.61	8.62
735.634	-11.38
735.659	3.62
735.683	11.62
735.708	-10.38
735.732	-3.38
735.757	-0.38
735.781	5.62
735.805	3.62
735.83	-3.38
735.854	-14.38
735.879	-6.38
735.903	1.62
735.927	3.62
735.952	-1.38
735.976	10.62
736.001	-2.38
736.025	-10.38
736.049	3.62
736.074	-8.38
736.098	-8.38
736.123	3.62
736.147	4.62
736.171	11.62
736.196	0.62
736.22	1.62
736.244	7.62
736.269	-2.38
736.293	2.62
736.317	9.62
736.342	12.62
736.366	9.62
736.39	8.62
736.415	4.62
736.439	1.62
736.463	18.62
736.488	10.62
736.512	12.62
736.536	12.62
736.561	20.62
736.585	1.62
736.609	8.62
736.634	-5.38
736.658	0.62
736.682	-1.38
736.707	-5.38
736.731	-3.38
736.755	1.62
736.78	7.62
736.804	25.62
736.828	18.62
736.852	-4.38
736.877	-7.38
736.901	-2.38
736.925	0.62
736.949	17.62
736.974	3.62
736.998	12.62
737.022	14.62
737.047	-4.38
737.071	5.62
737.095	19.62
737.119	36.62
737.144	8.62
737.168	5.62
737.192	-8.38
737.216	-3.38
737.241	-4.38
737.265	6.62
737.289	1.62
737.313	-2.38
737.337	5.62
737.362	16.62
737.386	-0.38
737.41	3.62
737.434	1.62
737.459	10.62
737.483	22.62
737.507	14.62
737.531	25.62
737.555	4.62
737.58	9.62
737.604	5.62
737.628	-7.38
737.652	-3.38
737.676	1.62
737.701	9.62
737.725	3.62
737.749	8.62
737.773	4.62
737.797	-15.38
737.821	-3.38
737.846	-1.38
737.87	22.62
737.894	-2.38
737.918	-3.38
737.942	-11.38
737.966	14.62
737.99	16.62
738.015	-1.38
738.039	5.62
738.063	3.62
738.087	1.62
738.111	-9.38
738.135	7.62
738.159	14.62
738.184	7.62
738.208	5.62
738.232	0.62
738.256	2.62
738.28	1.62
738.304	3.62
738.328	-5.38
738.352	13.62
738.376	-9.38
738.4	7.62
738.425	12.62
738.449	4.62
738.473	24.62
738.497	11.62
738.521	9.62
738.545	13.62
738.569	13.62
738.593	19.62
738.617	-2.38
738.641	8.62
738.665	1.62
738.689	1.62
738.713	-9.38
738.737	-2.38
738.762	23.62
738.786	6.62
738.81	-5.38
738.834	11.62
738.858	-1.38
738.882	-1.38
738.906	-5.38
738.93	-10.38
738.954	8.62
738.978	3.62
739.002	-7.38
739.026	24.62
739.05	16.62
739.074	-10.38
739.098	23.62
739.122	13.62
739.146	12.62
739.17	11.62
739.194	14.62
739.218	-0.38
739.242	-5.38
739.266	-2.38
739.29	6.62
739.314	4.62
739.338	-6.38
739.362	-2.38
739.386	2.62
739.41	-0.38
739.434	-12.38
739.458	18.62
739.482	4.62
739.506	2.62
739.53	-0.38
739.554	4.62
739.577	4.62
739.601	4.62
739.625	-13.38
739.649	2.62
739.673	-4.38
739.697	13.62
739.721	5.62
739.745	6.62
739.769	-1.38
739.793	14.62
739.817	13.62
739.841	-1.38
739.865	0.62
739.889	-11.38
739.912	16.62
739.936	-10.38
739.96	4.62
739.984	21.62
740.008	1.62
740.032	1.62
740.056	10.62
740.08	-6.38
740.104	-1.38
740.127	9.62
740.151	16.62
740.175	17.62
740.199	-4.38
740.223	60.62
740.247	13.62
740.271	-2.38
740.295	-3.38
740.318	-11.38
740.342	-1.38
740.366	-1.38
740.39	10.62
740.414	9.62
740.438	-5.38
740.461	22.62
740.485	10.62
740.509	-4.38
740.533	4.62
740.557	20.62
740.581	9.62
740.604	-0.38
740.628	6.62
740.652	5.62
740.676	-8.38
740.7	-1.38
740.723	0.62
740.747	-17.38
740.771	-5.38
740.795	-14.38
740.819	7.62
740.842	0.62
740.866	11.62
740.89	-6.38
740.914	-8.38
740.938	-5.38
740.961	12.62
740.985	4.62
741.009	-0.38
741.033	10.62
741.056	7.62
741.08	4.62
741.104	-3.38
741.128	-2.38
741.151	13.62
741.175	-0.38
741.199	-3.38
741.223	14.62
741.246	-2.38
741.27	2.62
741.294	12.62
741.318	-12.38
741.341	-4.38
741.365	-3.38
741.389	5.62
741.413	14.62
741.436	4.62
741.46	9.62
741.484	10.62
741.507	3.62
741.531	30.62
741.555	4.62
741.579	-1.38
741.602	1.62
741.626	16.62
741.65	0.62
741.673	-4.38
741.697	26.62
741.721	9.62
741.744	-18.38
741.768	-19.38
741.792	2.62
741.815	3.62
741.839	4.62
741.863	19.62
741.886	6.62
741.91	30.62
741.934	3.62
741.957	-14.38
741.981	28.62
742.005	-1.38
742.028	21.62
742.052	2.62
742.075	17.62
742.099	20.62
742.123	2.62
742.146	-2.38
742.17	11.62
742.194	-6.38
742.217	-10.38
742.241	-8.38
742.264	3.62
742.288	12.62
742.312	7.62
742.335	3.62
742.359	9.62
742.382	13.62
742.406	28.62
742.43	-7.38
742.453	-1.38
742.477	-7.38
742.5	6.62
742.524	7.62
742.548	-1.38
742.571	-0.38
742.595	-7.38
742.618	0.62
742.642	10.62
742.665	-3.38
742.689	-14.38
742.712	16.62
742.736	-7.38
742.76	4.62
742.783	9.62
742.807	10.62
742.83	8.62
742.854	-8.38
742.877	-10.38
742.901	-14.38
742.924	0.62
742.948	2.62
742.971	23.62
742.995	14.62
743.018	1.62
743.042	1.62
743.065	-3.38
743.089	-5.38
743.112	11.62
743.136	-20.38
743.159	-12.38
743.183	-6.38
743.206	-1.38
743.23	9.62
743.253	-0.38
743.277	5.62
743.3	-12.38
743.324	-1.38
743.347	4.62
743.371	12.62
743.394	3.62
743.418	17.62
743.441	13.62
743.465	4.62
743.488	12.62
743.512	-18.38
743.535	-0.38
743.558	-4.38
743.582	-6.38
743.605	3.62
743.629	7.62
743.652	1.62
743.676	-1.38
743.699	10.62
743.723	8.62
743.746	6.62
743.769	0.62
743.793	11.62
743.816	6.62
743.84	7.62
743.863	-12.38
743.886	7.62
743.91	23.62
743.933	-6.38
743.957	10.62
743.98	-1.38
744.003	5.62
744.027	1.62
744.05	5.62
744.074	24.62
744.097	-9.38
744.12	-1.38
744.144	-0.38
744.167	13.62
744.19	-11.38
744.214	-4.38
744.237	1.62
744.26	6.62
744.284	-7.38
744.307	-3.38
744.331	-3.38
744.354	-10.38
744.377	-7.38
744.401	-2.38
744.424	-5.38
744.447	-7.38
744.471	-7.38
