Data from HighRes_H2_15_09_11_07_2024_HR4C61891__81__15-11-04-502.txt Node

Date: Thu Nov 07 15:11:04 EST 2024
User: crc00042
Spectrometer: HR4C6189
Trigger mode: 4
Integration Time (sec): 1.000000E-1
Scans to average: 1
Electric dark correction enabled: true
Nonlinearity correction enabled: false
Boxcar width: 0
XAxis mode: Wavelengths
Number of Pixels in Spectrum: 3648
>>>>>Begin Spectral Data<<<<<
639.567	-67.77
639.602	-67.77
639.636	-67.77
639.67	-43.77
639.704	-9.77
639.738	9.23
639.773	9.23
639.807	-0.77
639.841	-7.77
639.875	11.23
639.909	-3.77
639.943	-5.77
639.978	9.23
640.012	-3.77
640.046	-9.77
640.08	0.23
640.114	-5.77
640.148	-1.77
640.182	6.23
640.217	-0.77
640.251	16.23
640.285	26.23
640.319	7.23
640.353	16.23
640.387	12.23
640.421	8.23
640.455	-18.77
640.49	-4.77
640.524	-11.77
640.558	7.23
640.592	0.23
640.626	-0.77
640.66	7.23
640.694	-3.77
640.728	-4.77
640.762	13.23
640.796	16.23
640.83	13.23
640.865	4.23
640.899	-1.77
640.933	-8.77
640.967	-4.77
641.001	7.23
641.035	9.23
641.069	3.23
641.103	-5.77
641.137	-4.77
641.171	-17.77
641.205	7.23
641.239	-4.77
641.273	0.23
641.307	0.23
641.341	5.23
641.375	8.23
641.409	-7.77
641.443	13.23
641.477	8.23
641.511	5.23
641.545	10.23
641.579	18.23
641.614	8.23
641.648	11.23
641.682	8.23
641.716	19.23
641.75	8.23
641.784	-1.77
641.818	-5.77
641.852	-4.77
641.886	11.23
641.919	26.23
641.953	-2.77
641.987	-5.77
642.021	5.23
642.055	4.23
642.089	15.23
642.123	-2.77
642.157	0.23
642.191	-3.77
642.225	-4.77
642.259	-9.77
642.293	13.23
642.327	9.23
642.361	-5.77
642.395	5.23
642.429	23.23
642.463	11.23
642.497	2.23
642.531	-4.77
642.565	-0.77
642.599	23.23
642.633	1.23
642.666	6.23
642.7	15.23
642.734	11.23
642.768	-0.77
642.802	-2.77
642.836	0.23
642.87	8.23
642.904	14.23
642.938	20.23
642.972	1.23
643.005	0.23
643.039	7.23
643.073	4.23
643.107	12.23
643.141	9.23
643.175	10.23
643.209	12.23
643.243	13.23
643.276	5.23
643.31	-2.77
643.344	1.23
643.378	-5.77
643.412	10.23
643.446	17.23
643.48	9.23
643.513	4.23
643.547	9.23
643.581	-5.77
643.615	17.23
643.649	15.23
643.683	16.23
643.716	17.23
643.75	9.23
643.784	-12.77
643.818	11.23
643.852	17.23
643.886	-8.77
643.919	7.23
643.953	0.23
643.987	-5.77
644.021	17.23
644.055	-13.77
644.088	-14.77
644.122	2.23
644.156	-1.77
644.19	7.23
644.224	-1.77
644.257	18.23
644.291	8.23
644.325	8.23
644.359	-0.77
644.392	32.23
644.426	24.23
644.46	7.23
644.494	4.23
644.527	-18.77
644.561	-7.77
644.595	-3.77
644.629	0.23
644.662	-5.77
644.696	16.23
644.73	7.23
644.764	15.23
644.797	-0.77
644.831	18.23
644.865	1.23
644.899	17.23
644.932	33.23
644.966	-3.77
645	23.23
645.033	16.23
645.067	4.23
645.101	21.23
645.135	7.23
645.168	-5.77
645.202	5.23
645.236	5.23
645.269	9.23
645.303	22.23
645.337	-16.77
645.37	2.23
645.404	2.23
645.438	17.23
645.471	-2.77
645.505	13.23
645.539	17.23
645.572	2.23
645.606	-8.77
645.64	5.23
645.673	6.23
645.707	1.23
645.741	0.23
645.774	-9.77
645.808	16.23
645.842	2.23
645.875	23.23
645.909	13.23
645.943	2.23
645.976	3.23
646.01	14.23
646.043	12.23
646.077	5.23
646.111	2.23
646.144	19.23
646.178	17.23
646.212	-8.77
646.245	5.23
646.279	8.23
646.312	5.23
646.346	12.23
646.38	15.23
646.413	16.23
646.447	0.23
646.48	0.23
646.514	15.23
646.547	-18.77
646.581	-1.77
646.615	11.23
646.648	3.23
646.682	-1.77
646.715	1.23
646.749	1.23
646.782	-5.77
646.816	3.23
646.85	6.23
646.883	-4.77
646.917	16.23
646.95	11.23
646.984	10.23
647.017	14.23
647.051	15.23
647.084	11.23
647.118	-4.77
647.151	4.23
647.185	14.23
647.218	-7.77
647.252	14.23
647.285	12.23
647.319	4.23
647.353	8.23
647.386	39.23
647.42	22.23
647.453	14.23
647.487	11.23
647.52	1.23
647.553	-1.77
647.587	8.23
647.62	-2.77
647.654	7.23
647.687	15.23
647.721	16.23
647.754	6.23
647.788	-2.77
647.821	-16.77
647.855	3.23
647.888	15.23
647.922	18.23
647.955	10.23
647.989	11.23
648.022	5.23
648.055	-4.77
648.089	-3.77
648.122	5.23
648.156	6.23
648.189	11.23
648.223	11.23
648.256	18.23
648.29	8.23
648.323	17.23
648.356	7.23
648.39	18.23
648.423	9.23
648.457	8.23
648.49	22.23
648.523	14.23
648.557	-6.77
648.59	-4.77
648.624	8.23
648.657	18.23
648.69	19.23
648.724	16.23
648.757	19.23
648.791	15.23
648.824	20.23
648.857	21.23
648.891	7.23
648.924	8.23
648.957	21.23
648.991	0.23
649.024	14.23
649.057	-1.77
649.091	15.23
649.124	21.23
649.158	23.23
649.191	33.23
649.224	26.23
649.258	12.23
649.291	10.23
649.324	20.23
649.358	-5.77
649.391	5.23
649.424	23.23
649.458	17.23
649.491	5.23
649.524	-11.77
649.557	6.23
649.591	-14.77
649.624	23.23
649.657	-3.77
649.691	7.23
649.724	9.23
649.757	8.23
649.791	9.23
649.824	21.23
649.857	16.23
649.89	14.23
649.924	-8.77
649.957	3.23
649.99	0.23
650.023	3.23
650.057	-0.77
650.09	10.23
650.123	8.23
650.157	46.23
650.19	35.23
650.223	-2.77
650.256	-14.77
650.29	6.23
650.323	2.23
650.356	11.23
650.389	-1.77
650.423	-2.77
650.456	8.23
650.489	5.23
650.522	9.23
650.555	28.23
650.589	20.23
650.622	11.23
650.655	22.23
650.688	-7.77
650.721	6.23
650.755	9.23
650.788	23.23
650.821	1.23
650.854	-0.77
650.887	-3.77
650.921	4.23
650.954	-0.77
650.987	13.23
651.02	-7.77
651.053	7.23
651.087	2.23
651.12	10.23
651.153	6.23
651.186	7.23
651.219	-5.77
651.252	14.23
651.286	28.23
651.319	14.23
651.352	15.23
651.385	0.23
651.418	4.23
651.451	2.23
651.484	17.23
651.518	1.23
651.551	27.23
651.584	1.23
651.617	20.23
651.65	4.23
651.683	16.23
651.716	-9.77
651.749	-3.77
651.783	13.23
651.816	14.23
651.849	13.23
651.882	-5.77
651.915	-0.77
651.948	14.23
651.981	-6.77
652.014	-3.77
652.047	-0.77
652.08	-4.77
652.114	14.23
652.147	7.23
652.18	6.23
652.213	46.23
652.246	9.23
652.279	-10.77
652.312	10.23
652.345	-4.77
652.378	12.23
652.411	28.23
652.444	4.23
652.477	4.23
652.51	3.23
652.543	-1.77
652.576	16.23
652.609	10.23
652.642	0.23
652.675	9.23
652.709	-2.77
652.742	16.23
652.775	11.23
652.808	-0.77
652.841	-5.77
652.874	5.23
652.907	19.23
652.94	-8.77
652.973	1.23
653.006	6.23
653.039	11.23
653.072	7.23
653.105	-5.77
653.138	-7.77
653.171	-5.77
653.204	-1.77
653.237	14.23
653.27	5.23
653.303	7.23
653.336	-1.77
653.368	-1.77
653.401	4.23
653.434	7.23
653.467	13.23
653.5	-1.77
653.533	15.23
653.566	0.23
653.599	2.23
653.632	19.23
653.665	1.23
653.698	6.23
653.731	10.23
653.764	13.23
653.797	10.23
653.83	11.23
653.863	1.23
653.896	8.23
653.929	3.23
653.961	12.23
653.994	18.23
654.027	6.23
654.06	13.23
654.093	11.23
654.126	14.23
654.159	10.23
654.192	12.23
654.225	7.23
654.258	2.23
654.29	8.23
654.323	16.23
654.356	20.23
654.389	20.23
654.422	10.23
654.455	0.23
654.488	4.23
654.521	-4.77
654.553	-7.77
654.586	7.23
654.619	17.23
654.652	7.23
654.685	13.23
654.718	15.23
654.751	18.23
654.783	11.23
654.816	41.23
654.849	4.23
654.882	-11.77
654.915	-16.77
654.948	20.23
654.98	-3.77
655.013	2.23
655.046	11.23
655.079	-4.77
655.112	5.23
655.144	3.23
655.177	16.23
655.21	23.23
655.243	27.23
655.276	25.23
655.308	1.23
655.341	-19.77
655.374	20.23
655.407	1.23
655.44	20.23
655.472	10.23
655.505	6.23
655.538	14.23
655.571	29.23
655.603	17.23
655.636	6.23
655.669	20.23
655.702	18.23
655.734	1.23
655.767	13.23
655.8	27.23
655.833	27.23
655.865	41.23
655.898	31.23
655.931	52.23
655.964	54.23
655.996	60.23
656.029	64.23
656.062	67.23
656.095	85.23
656.127	84.23
656.16	94.23
656.193	113.23
656.225	182.23
656.258	258.23
656.291	500.23
656.324	1135.23
656.356	3346.23
656.389	7429.23
656.422	5996.23
656.454	2067.23
656.487	680.23
656.52	262.23
656.552	117.23
656.585	84.23
656.618	84.23
656.65	61.23
656.683	26.23
656.716	25.23
656.748	18.23
656.781	15.23
656.814	13.23
656.846	8.23
656.879	0.23
656.912	-1.77
656.944	-6.77
656.977	-7.77
657.01	17.23
657.042	15.23
657.075	15.23
657.108	-7.77
657.14	1.23
657.173	17.23
657.205	37.23
657.238	3.23
657.271	7.23
657.303	-11.77
657.336	11.23
657.369	4.23
657.401	-8.77
657.434	-5.77
657.466	10.23
657.499	11.23
657.532	16.23
657.564	13.23
657.597	7.23
657.629	18.23
657.662	6.23
657.694	8.23
657.727	-17.77
657.76	21.23
657.792	-15.77
657.825	-9.77
657.857	9.23
657.89	-3.77
657.922	10.23
657.955	8.23
657.987	8.23
658.02	28.23
658.053	20.23
658.085	5.23
658.118	6.23
658.15	16.23
658.183	26.23
658.215	3.23
658.248	2.23
658.28	-0.77
658.313	18.23
658.345	18.23
658.378	9.23
658.41	-6.77
658.443	12.23
658.475	1.23
658.508	-3.77
658.54	-1.77
658.573	-2.77
658.605	1.23
658.638	8.23
658.67	0.23
658.703	13.23
658.735	0.23
658.768	11.23
658.8	-7.77
658.833	11.23
658.865	2.23
658.898	14.23
658.93	5.23
658.963	17.23
658.995	4.23
659.028	15.23
659.06	20.23
659.092	1.23
659.125	4.23
659.157	25.23
659.19	6.23
659.222	-10.77
659.255	5.23
659.287	7.23
659.32	14.23
659.352	23.23
659.384	8.23
659.417	1.23
659.449	15.23
659.482	16.23
659.514	-1.77
659.546	-1.77
659.579	-15.77
659.611	8.23
659.644	21.23
659.676	5.23
659.708	0.23
659.741	10.23
659.773	11.23
659.806	17.23
659.838	6.23
659.87	6.23
659.903	-5.77
659.935	23.23
659.967	12.23
660	24.23
660.032	-2.77
660.065	17.23
660.097	0.23
660.129	-7.77
660.162	-6.77
660.194	-0.77
660.226	-7.77
660.259	1.23
660.291	14.23
660.323	-2.77
660.356	18.23
660.388	8.23
660.42	0.23
660.453	10.23
660.485	22.23
660.517	33.23
660.55	20.23
660.582	4.23
660.614	12.23
660.647	10.23
660.679	2.23
660.711	9.23
660.743	0.23
660.776	12.23
660.808	-5.77
660.84	5.23
660.873	-2.77
660.905	11.23
660.937	3.23
660.969	14.23
661.002	6.23
661.034	22.23
661.066	19.23
661.099	14.23
661.131	16.23
661.163	5.23
661.195	4.23
661.228	29.23
661.26	-8.77
661.292	-6.77
661.324	9.23
661.357	16.23
661.389	3.23
661.421	-5.77
661.453	15.23
661.485	12.23
661.518	8.23
661.55	-10.77
661.582	-7.77
661.614	-0.77
661.647	16.23
661.679	13.23
661.711	1.23
661.743	10.23
661.775	8.23
661.808	32.23
661.84	-12.77
661.872	11.23
661.904	9.23
661.936	16.23
661.969	-11.77
662.001	-3.77
662.033	-2.77
662.065	-7.77
662.097	24.23
662.129	22.23
662.162	13.23
662.194	10.23
662.226	14.23
662.258	15.23
662.29	10.23
662.322	-6.77
662.355	-5.77
662.387	21.23
662.419	24.23
662.451	13.23
662.483	23.23
662.515	-4.77
662.547	0.23
662.58	-4.77
662.612	-16.77
662.644	-14.77
662.676	7.23
662.708	10.23
662.74	11.23
662.772	-1.77
662.804	15.23
662.836	17.23
662.869	15.23
662.901	-9.77
662.933	-5.77
662.965	4.23
662.997	9.23
663.029	-13.77
663.061	-21.77
663.093	-8.77
663.125	7.23
663.157	5.23
663.189	9.23
663.221	17.23
663.254	2.23
663.286	-2.77
663.318	-9.77
663.35	4.23
663.382	5.23
663.414	12.23
663.446	9.23
663.478	-8.77
663.51	36.23
663.542	-2.77
663.574	-1.77
663.606	17.23
663.638	-4.77
663.67	4.23
663.702	-6.77
663.734	10.23
663.766	19.23
663.798	-13.77
663.83	-1.77
663.862	5.23
663.894	23.23
663.926	7.23
663.958	7.23
663.99	7.23
664.022	-9.77
664.054	3.23
664.086	4.23
664.118	5.23
664.15	0.23
664.182	8.23
664.214	-4.77
664.246	13.23
664.278	3.23
664.31	27.23
664.342	16.23
664.374	20.23
664.406	11.23
664.438	7.23
664.47	19.23
664.502	4.23
664.534	1.23
664.566	-2.77
664.598	24.23
664.63	16.23
664.662	4.23
664.693	2.23
664.725	-18.77
664.757	2.23
664.789	-9.77
664.821	20.23
664.853	2.23
664.885	5.23
664.917	-15.77
664.949	17.23
664.981	20.23
665.013	9.23
665.045	5.23
665.076	-3.77
665.108	11.23
665.14	8.23
665.172	1.23
665.204	5.23
665.236	-1.77
665.268	31.23
665.3	-4.77
665.331	-5.77
665.363	4.23
665.395	-6.77
665.427	0.23
665.459	-1.77
665.491	-0.77
665.523	6.23
665.555	7.23
665.586	5.23
665.618	10.23
665.65	-8.77
665.682	13.23
665.714	8.23
665.746	4.23
665.777	-3.77
665.809	7.23
665.841	11.23
665.873	4.23
665.905	2.23
665.937	6.23
665.968	15.23
666	0.23
666.032	6.23
666.064	7.23
666.096	17.23
666.127	18.23
666.159	17.23
666.191	24.23
666.223	-5.77
666.255	6.23
666.286	5.23
666.318	7.23
666.35	16.23
666.382	8.23
666.413	-3.77
666.445	0.23
666.477	-0.77
666.509	0.23
666.54	11.23
666.572	6.23
666.604	-0.77
666.636	6.23
666.667	23.23
666.699	11.23
666.731	10.23
666.763	-6.77
666.794	12.23
666.826	20.23
666.858	-9.77
666.89	25.23
666.921	8.23
666.953	15.23
666.985	20.23
667.017	21.23
667.048	1.23
667.08	11.23
667.112	2.23
667.143	-2.77
667.175	-4.77
667.207	4.23
667.238	12.23
667.27	16.23
667.302	-2.77
667.334	3.23
667.365	20.23
667.397	9.23
667.429	-20.77
667.46	11.23
667.492	15.23
667.524	-2.77
667.555	-8.77
667.587	-1.77
667.619	-0.77
667.65	9.23
667.682	11.23
667.714	20.23
667.745	15.23
667.777	14.23
667.808	5.23
667.84	21.23
667.872	3.23
667.903	10.23
667.935	26.23
667.967	0.23
667.998	-2.77
668.03	-7.77
668.061	19.23
668.093	7.23
668.125	9.23
668.156	9.23
668.188	9.23
668.22	-10.77
668.251	17.23
668.283	17.23
668.314	6.23
668.346	3.23
668.377	18.23
668.409	-11.77
668.441	7.23
668.472	-7.77
668.504	8.23
668.535	5.23
668.567	14.23
668.599	17.23
668.63	3.23
668.662	2.23
668.693	20.23
668.725	22.23
668.756	21.23
668.788	2.23
668.819	7.23
668.851	16.23
668.882	11.23
668.914	1.23
668.946	-9.77
668.977	-6.77
669.009	-8.77
669.04	-0.77
669.072	10.23
669.103	-5.77
669.135	8.23
669.166	-1.77
669.198	-4.77
669.229	-2.77
669.261	14.23
669.292	5.23
669.324	27.23
669.355	14.23
669.387	-3.77
669.418	10.23
669.45	-2.77
669.481	7.23
669.513	8.23
669.544	14.23
669.576	6.23
669.607	25.23
669.639	7.23
669.67	-5.77
669.701	17.23
669.733	-5.77
669.764	8.23
669.796	5.23
669.827	-6.77
669.859	13.23
669.89	14.23
669.922	17.23
669.953	18.23
669.985	-3.77
670.016	7.23
670.047	6.23
670.079	-5.77
670.11	-3.77
670.142	15.23
670.173	7.23
670.204	-10.77
670.236	7.23
670.267	-6.77
670.299	-1.77
670.33	11.23
670.362	-3.77
670.393	0.23
670.424	4.23
670.456	1.23
670.487	11.23
670.518	6.23
670.55	12.23
670.581	22.23
670.613	8.23
670.644	-8.77
670.675	8.23
670.707	-1.77
670.738	12.23
670.769	8.23
670.801	12.23
670.832	20.23
670.864	-2.77
670.895	2.23
670.926	11.23
670.958	2.23
670.989	11.23
671.02	7.23
671.052	2.23
671.083	-1.77
671.114	-16.77
671.146	0.23
671.177	0.23
671.208	-0.77
671.24	0.23
671.271	5.23
671.302	12.23
671.333	-5.77
671.365	5.23
671.396	-7.77
671.427	7.23
671.459	7.23
671.49	6.23
671.521	21.23
671.553	8.23
671.584	18.23
671.615	-5.77
671.646	14.23
671.678	11.23
671.709	-6.77
671.74	-30.77
671.771	-9.77
671.803	-12.77
671.834	4.23
671.865	8.23
671.896	4.23
671.928	2.23
671.959	-12.77
671.99	15.23
672.021	7.23
672.053	5.23
672.084	20.23
672.115	0.23
672.146	2.23
672.178	-4.77
672.209	0.23
672.24	4.23
672.271	33.23
672.303	15.23
672.334	3.23
672.365	9.23
672.396	3.23
672.427	-6.77
672.459	14.23
672.49	37.23
672.521	10.23
672.552	10.23
672.583	6.23
672.615	9.23
672.646	12.23
672.677	3.23
672.708	0.23
672.739	16.23
672.77	29.23
672.802	14.23
672.833	10.23
672.864	5.23
672.895	-11.77
672.926	4.23
672.957	11.23
672.989	-2.77
673.02	10.23
673.051	3.23
673.082	15.23
673.113	0.23
673.144	15.23
673.175	6.23
673.206	-6.77
673.238	-8.77
673.269	-15.77
673.3	-4.77
673.331	9.23
673.362	-7.77
673.393	13.23
673.424	20.23
673.455	14.23
673.487	10.23
673.518	11.23
673.549	-5.77
673.58	6.23
673.611	21.23
673.642	-7.77
673.673	-8.77
673.704	9.23
673.735	3.23
673.766	-8.77
673.797	1.23
673.828	1.23
673.86	8.23
673.891	-0.77
673.922	12.23
673.953	-10.77
673.984	4.23
674.015	6.23
674.046	-2.77
674.077	-0.77
674.108	-0.77
674.139	-0.77
674.17	6.23
674.201	-3.77
674.232	-6.77
674.263	12.23
674.294	-1.77
674.325	1.23
674.356	20.23
674.387	18.23
674.418	11.23
674.449	2.23
674.48	-5.77
674.511	15.23
674.542	6.23
674.573	9.23
674.604	10.23
674.635	4.23
674.666	11.23
674.697	11.23
674.728	5.23
674.759	5.23
674.79	14.23
674.821	19.23
674.852	-0.77
674.883	4.23
674.914	4.23
674.945	23.23
674.976	10.23
675.007	9.23
675.038	3.23
675.069	3.23
675.1	15.23
675.131	5.23
675.162	3.23
675.193	5.23
675.224	-3.77
675.254	7.23
675.285	6.23
675.316	18.23
675.347	-18.77
675.378	-8.77
675.409	14.23
675.44	28.23
675.471	5.23
675.502	-9.77
675.533	3.23
675.564	12.23
675.595	3.23
675.625	9.23
675.656	14.23
675.687	10.23
675.718	-7.77
675.749	15.23
675.78	-3.77
675.811	-6.77
675.842	-11.77
675.873	10.23
675.903	0.23
675.934	9.23
675.965	-4.77
675.996	-1.77
676.027	2.23
676.058	-10.77
676.089	-14.77
676.119	-2.77
676.15	-11.77
676.181	1.23
676.212	10.23
676.243	23.23
676.274	-8.77
676.304	10.23
676.335	-4.77
676.366	8.23
676.397	-0.77
676.428	-9.77
676.459	13.23
676.489	10.23
676.52	1.23
676.551	16.23
676.582	3.23
676.613	3.23
676.643	-8.77
676.674	5.23
676.705	-9.77
676.736	4.23
676.767	8.23
676.797	21.23
676.828	-0.77
676.859	14.23
676.89	-2.77
676.92	-6.77
676.951	7.23
676.982	11.23
677.013	13.23
677.044	19.23
677.074	9.23
677.105	-2.77
677.136	11.23
677.167	-9.77
677.197	12.23
677.228	7.23
677.259	2.23
677.289	10.23
677.32	0.23
677.351	-0.77
677.382	7.23
677.412	-1.77
677.443	12.23
677.474	5.23
677.505	4.23
677.535	18.23
677.566	10.23
677.597	-9.77
677.627	5.23
677.658	12.23
677.689	8.23
677.72	-0.77
677.75	8.23
677.781	14.23
677.812	-0.77
677.842	8.23
677.873	8.23
677.904	-5.77
677.934	4.23
677.965	-14.77
677.996	-8.77
678.026	1.23
678.057	1.23
678.088	2.23
678.118	4.23
678.149	-11.77
678.18	1.23
678.21	3.23
678.241	-1.77
678.272	-18.77
678.302	0.23
678.333	20.23
678.363	7.23
678.394	5.23
678.425	5.23
678.455	4.23
678.486	15.23
678.517	-4.77
678.547	-2.77
678.578	-1.77
678.608	-7.77
678.639	4.23
678.67	-3.77
678.7	-13.77
678.731	6.23
678.761	-1.77
678.792	2.23
678.823	12.23
678.853	6.23
678.884	-0.77
678.914	11.23
678.945	-2.77
678.975	-5.77
679.006	7.23
679.037	3.23
679.067	14.23
679.098	0.23
679.128	3.23
679.159	6.23
679.189	24.23
679.22	-3.77
679.25	2.23
679.281	6.23
679.312	6.23
679.342	3.23
679.373	32.23
679.403	20.23
679.434	9.23
679.464	-7.77
679.495	-10.77
679.525	-3.77
679.556	-2.77
679.586	9.23
679.617	8.23
679.647	10.23
679.678	2.23
679.708	-0.77
679.739	-3.77
679.769	7.23
679.8	4.23
679.83	-0.77
679.861	4.23
679.891	1.23
679.922	0.23
679.952	0.23
679.983	13.23
680.013	0.23
680.044	-12.77
680.074	12.23
680.105	3.23
680.135	8.23
680.165	10.23
680.196	4.23
680.226	9.23
680.257	13.23
680.287	-5.77
680.318	1.23
680.348	-8.77
680.379	19.23
680.409	6.23
680.439	8.23
680.47	6.23
680.5	6.23
680.531	-3.77
680.561	13.23
680.592	3.23
680.622	7.23
680.652	0.23
680.683	13.23
680.713	-4.77
680.744	3.23
680.774	1.23
680.804	10.23
680.835	-9.77
680.865	5.23
680.896	17.23
680.926	9.23
680.956	3.23
680.987	9.23
681.017	13.23
681.047	9.23
681.078	-12.77
681.108	8.23
681.139	14.23
681.169	9.23
681.199	4.23
681.23	-2.77
681.26	12.23
681.29	2.23
681.321	-9.77
681.351	2.23
681.381	-3.77
681.412	5.23
681.442	5.23
681.472	23.23
681.503	13.23
681.533	6.23
681.563	-6.77
681.594	6.23
681.624	13.23
681.654	-7.77
681.685	5.23
681.715	24.23
681.745	-1.77
681.775	-8.77
681.806	2.23
681.836	13.23
681.866	-4.77
681.897	9.23
681.927	-3.77
681.957	-22.77
681.987	15.23
682.018	0.23
682.048	-2.77
682.078	0.23
682.109	30.23
682.139	16.23
682.169	23.23
682.199	7.23
682.23	8.23
682.26	10.23
682.29	1.23
682.32	-0.77
682.351	-0.77
682.381	6.23
682.411	1.23
682.441	12.23
682.472	-8.77
682.502	-2.77
682.532	-4.77
682.562	12.23
682.592	11.23
682.623	16.23
682.653	7.23
682.683	1.23
682.713	8.23
682.743	5.23
682.774	2.23
682.804	9.23
682.834	24.23
682.864	7.23
682.894	2.23
682.925	-7.77
682.955	1.23
682.985	1.23
683.015	2.23
683.045	5.23
683.076	6.23
683.106	9.23
683.136	11.23
683.166	4.23
683.196	4.23
683.226	7.23
683.257	14.23
683.287	3.23
683.317	-1.77
683.347	14.23
683.377	18.23
683.407	9.23
683.437	23.23
683.468	20.23
683.498	11.23
683.528	14.23
683.558	7.23
683.588	1.23
683.618	-1.77
683.648	-2.77
683.678	-4.77
683.708	23.23
683.739	8.23
683.769	-5.77
683.799	5.23
683.829	-6.77
683.859	6.23
683.889	22.23
683.919	5.23
683.949	1.23
683.979	-11.77
684.009	6.23
684.039	-2.77
684.07	-8.77
684.1	6.23
684.13	6.23
684.16	5.23
684.19	-7.77
684.22	-1.77
684.25	6.23
684.28	1.23
684.31	24.23
684.34	23.23
684.37	24.23
684.4	10.23
684.43	28.23
684.46	3.23
684.49	6.23
684.52	14.23
684.55	19.23
684.58	-1.77
684.61	4.23
684.64	18.23
684.67	21.23
684.7	3.23
684.73	22.23
684.76	7.23
684.79	24.23
684.82	-1.77
684.85	-19.77
684.88	-3.77
684.91	-12.77
684.94	-6.77
684.97	-9.77
685	6.23
685.03	-4.77
685.06	-11.77
685.09	11.23
685.12	16.23
685.15	4.23
685.18	7.23
685.21	10.23
685.24	10.23
685.27	23.23
685.3	0.23
685.33	7.23
685.36	4.23
685.39	8.23
685.42	-0.77
685.45	-4.77
685.48	-0.77
685.51	-11.77
685.54	18.23
685.569	5.23
685.599	27.23
685.629	-3.77
685.659	-10.77
685.689	3.23
685.719	-7.77
685.749	7.23
685.779	5.23
685.809	14.23
685.839	14.23
685.869	18.23
685.898	14.23
685.928	-4.77
685.958	7.23
685.988	10.23
686.018	-4.77
686.048	4.23
686.078	9.23
686.108	8.23
686.137	-10.77
686.167	13.23
686.197	-15.77
686.227	13.23
686.257	36.23
686.287	17.23
686.317	3.23
686.346	14.23
686.376	-1.77
686.406	-4.77
686.436	8.23
686.466	7.23
686.496	5.23
686.525	17.23
686.555	9.23
686.585	15.23
686.615	29.23
686.645	19.23
686.675	-0.77
686.704	11.23
686.734	3.23
686.764	-7.77
686.794	-7.77
686.824	-5.77
686.853	19.23
686.883	24.23
686.913	21.23
686.943	5.23
686.973	2.23
687.002	-0.77
687.032	24.23
687.062	2.23
687.092	21.23
687.121	-11.77
687.151	-3.77
687.181	4.23
687.211	23.23
687.24	0.23
687.27	10.23
687.3	6.23
687.33	10.23
687.359	-0.77
687.389	9.23
687.419	-2.77
687.449	1.23
687.478	16.23
687.508	7.23
687.538	20.23
687.568	7.23
687.597	-11.77
687.627	7.23
687.657	2.23
687.686	4.23
687.716	10.23
687.746	6.23
687.776	8.23
687.805	9.23
687.835	1.23
687.865	17.23
687.894	14.23
687.924	-8.77
687.954	-3.77
687.983	7.23
688.013	0.23
688.043	0.23
688.072	4.23
688.102	7.23
688.132	-1.77
688.161	6.23
688.191	-6.77
688.221	23.23
688.25	12.23
688.28	16.23
688.31	-1.77
688.339	3.23
688.369	2.23
688.399	9.23
688.428	-0.77
688.458	16.23
688.488	-1.77
688.517	-3.77
688.547	1.23
688.576	28.23
688.606	4.23
688.636	-7.77
688.665	5.23
688.695	12.23
688.725	0.23
688.754	1.23
688.784	7.23
688.813	20.23
688.843	0.23
688.873	-10.77
688.902	-16.77
688.932	-1.77
688.961	0.23
688.991	27.23
689.02	12.23
689.05	10.23
689.08	22.23
689.109	21.23
689.139	6.23
689.168	9.23
689.198	-8.77
689.227	-1.77
689.257	1.23
689.287	27.23
689.316	16.23
689.346	-9.77
689.375	-0.77
689.405	26.23
689.434	3.23
689.464	8.23
689.493	5.23
689.523	3.23
689.552	-15.77
689.582	19.23
689.611	2.23
689.641	3.23
689.67	-3.77
689.7	17.23
689.73	20.23
689.759	21.23
689.789	20.23
689.818	5.23
689.848	0.23
689.877	21.23
689.906	10.23
689.936	-4.77
689.965	-1.77
689.995	10.23
690.024	16.23
690.054	-0.77
690.083	12.23
690.113	13.23
690.142	12.23
690.172	27.23
690.201	13.23
690.231	2.23
690.26	13.23
690.29	15.23
690.319	11.23
690.348	2.23
690.378	1.23
690.407	11.23
690.437	4.23
690.466	-5.77
690.496	17.23
690.525	15.23
690.555	7.23
690.584	3.23
690.613	0.23
690.643	-9.77
690.672	8.23
690.702	4.23
690.731	5.23
690.76	2.23
690.79	-9.77
690.819	11.23
690.849	1.23
690.878	2.23
690.907	7.23
690.937	31.23
690.966	24.23
690.996	13.23
691.025	8.23
691.054	6.23
691.084	19.23
691.113	14.23
691.142	12.23
691.172	8.23
691.201	8.23
691.23	25.23
691.26	10.23
691.289	0.23
691.319	6.23
691.348	5.23
691.377	20.23
691.407	20.23
691.436	6.23
691.465	8.23
691.495	15.23
691.524	5.23
691.553	1.23
691.583	12.23
691.612	19.23
691.641	10.23
691.67	18.23
691.7	9.23
691.729	-8.77
691.758	-0.77
691.788	-3.77
691.817	-13.77
691.846	-10.77
691.876	14.23
691.905	15.23
691.934	-0.77
691.963	6.23
691.993	25.23
692.022	3.23
692.051	-2.77
692.081	6.23
692.11	29.23
692.139	30.23
692.168	13.23
692.198	21.23
692.227	13.23
692.256	15.23
692.285	18.23
692.315	7.23
692.344	8.23
692.373	10.23
692.402	-9.77
692.432	-8.77
692.461	-7.77
692.49	11.23
692.519	15.23
692.548	8.23
692.578	15.23
692.607	2.23
692.636	-11.77
692.665	17.23
692.694	7.23
692.724	2.23
692.753	22.23
692.782	7.23
692.811	5.23
692.84	20.23
692.87	0.23
692.899	0.23
692.928	-0.77
692.957	6.23
692.986	22.23
693.016	9.23
693.045	11.23
693.074	16.23
693.103	10.23
693.132	0.23
693.161	11.23
693.191	-1.77
693.22	-9.77
693.249	17.23
693.278	-4.77
693.307	22.23
693.336	4.23
693.365	-25.77
693.395	-2.77
693.424	10.23
693.453	25.23
693.482	15.23
693.511	23.23
693.54	8.23
693.569	-5.77
693.598	-1.77
693.628	10.23
693.657	19.23
693.686	20.23
693.715	17.23
693.744	27.23
693.773	20.23
693.802	24.23
693.831	20.23
693.86	29.23
693.889	4.23
693.919	10.23
693.948	9.23
693.977	-2.77
694.006	-5.77
694.035	-3.77
694.064	-1.77
694.093	8.23
694.122	-0.77
694.151	5.23
694.18	10.23
694.209	22.23
694.238	21.23
694.267	23.23
694.296	19.23
694.325	13.23
694.354	9.23
694.383	17.23
694.412	6.23
694.441	9.23
694.471	6.23
694.5	0.23
694.529	3.23
694.558	33.23
694.587	23.23
694.616	-4.77
694.645	12.23
694.674	16.23
694.703	6.23
694.732	8.23
694.761	11.23
694.79	9.23
694.819	-5.77
694.848	-4.77
694.877	19.23
694.906	18.23
694.935	2.23
694.963	20.23
694.992	7.23
695.021	15.23
695.05	14.23
695.079	9.23
695.108	18.23
695.137	15.23
695.166	7.23
695.195	-8.77
695.224	17.23
695.253	11.23
695.282	5.23
695.311	16.23
695.34	0.23
695.369	15.23
695.398	9.23
695.427	19.23
695.456	5.23
695.485	8.23
695.513	-1.77
695.542	2.23
695.571	12.23
695.6	17.23
695.629	18.23
695.658	20.23
695.687	3.23
695.716	4.23
695.745	10.23
695.774	-9.77
695.802	-10.77
695.831	15.23
695.86	17.23
695.889	20.23
695.918	-1.77
695.947	-4.77
695.976	-5.77
696.005	12.23
696.033	10.23
696.062	7.23
696.091	13.23
696.12	9.23
696.149	21.23
696.178	11.23
696.207	7.23
696.235	2.23
696.264	12.23
696.293	5.23
696.322	17.23
696.351	22.23
696.38	6.23
696.408	-3.77
696.437	6.23
696.466	23.23
696.495	17.23
696.524	25.23
696.553	7.23
696.581	9.23
696.61	7.23
696.639	9.23
696.668	16.23
696.697	5.23
696.725	18.23
696.754	16.23
696.783	4.23
696.812	-4.77
696.84	9.23
696.869	12.23
696.898	-2.77
696.927	0.23
696.956	19.23
696.984	5.23
697.013	13.23
697.042	5.23
697.071	20.23
697.099	28.23
697.128	13.23
697.157	14.23
697.186	6.23
697.214	0.23
697.243	15.23
697.272	-1.77
697.301	4.23
697.329	14.23
697.358	11.23
697.387	34.23
697.415	0.23
697.444	0.23
697.473	10.23
697.502	-0.77
697.53	17.23
697.559	9.23
697.588	15.23
697.616	-5.77
697.645	-2.77
697.674	15.23
697.703	1.23
697.731	15.23
697.76	17.23
697.789	10.23
697.817	2.23
697.846	10.23
697.875	11.23
697.903	16.23
697.932	17.23
697.961	13.23
697.989	8.23
698.018	10.23
698.047	15.23
698.075	11.23
698.104	8.23
698.133	2.23
698.161	-0.77
698.19	20.23
698.218	5.23
698.247	-2.77
698.276	-4.77
698.304	19.23
698.333	0.23
698.362	14.23
698.39	6.23
698.419	4.23
698.447	1.23
698.476	-1.77
698.505	3.23
698.533	14.23
698.562	5.23
698.591	2.23
698.619	-6.77
698.648	4.23
698.676	15.23
698.705	8.23
698.733	2.23
698.762	9.23
698.791	3.23
698.819	-1.77
698.848	5.23
698.876	24.23
698.905	16.23
698.933	17.23
698.962	1.23
698.991	15.23
699.019	31.23
699.048	13.23
699.076	7.23
699.105	-12.77
699.133	-6.77
699.162	10.23
699.19	16.23
699.219	-8.77
699.248	15.23
699.276	16.23
699.305	1.23
699.333	6.23
699.362	6.23
699.39	13.23
699.419	-8.77
699.447	-9.77
699.476	12.23
699.504	3.23
699.533	0.23
699.561	7.23
699.59	22.23
699.618	4.23
699.647	9.23
699.675	8.23
699.704	4.23
699.732	-0.77
699.761	0.23
699.789	-0.77
699.818	10.23
699.846	14.23
699.874	-1.77
699.903	3.23
699.931	3.23
699.96	13.23
699.988	-7.77
700.017	-1.77
700.045	1.23
700.074	11.23
700.102	1.23
700.13	3.23
700.159	-0.77
700.187	25.23
700.216	4.23
700.244	1.23
700.273	15.23
700.301	16.23
700.329	16.23
700.358	20.23
700.386	-0.77
700.415	4.23
700.443	7.23
700.472	8.23
700.5	5.23
700.528	1.23
700.557	12.23
700.585	11.23
700.614	3.23
700.642	2.23
700.67	17.23
700.699	5.23
700.727	3.23
700.755	17.23
700.784	6.23
700.812	0.23
700.841	3.23
700.869	0.23
700.897	-12.77
700.926	2.23
700.954	0.23
700.982	4.23
701.011	-2.77
701.039	22.23
701.067	4.23
701.096	13.23
701.124	6.23
701.152	4.23
701.181	-7.77
701.209	-1.77
701.237	1.23
701.266	2.23
701.294	-13.77
701.322	0.23
701.351	23.23
701.379	9.23
701.407	-4.77
701.435	12.23
701.464	24.23
701.492	22.23
701.52	4.23
701.549	16.23
701.577	10.23
701.605	12.23
701.634	-0.77
701.662	21.23
701.69	-3.77
701.718	10.23
701.747	17.23
701.775	13.23
701.803	7.23
701.831	15.23
701.86	6.23
701.888	20.23
701.916	11.23
701.944	-0.77
701.973	-2.77
702.001	-5.77
702.029	-5.77
702.057	0.23
702.086	-6.77
702.114	-2.77
702.142	8.23
702.17	-1.77
702.199	4.23
702.227	7.23
702.255	15.23
702.283	-0.77
702.311	8.23
702.34	-9.77
702.368	-4.77
702.396	-4.77
702.424	9.23
702.452	4.23
702.481	8.23
702.509	13.23
702.537	8.23
702.565	-2.77
702.593	-8.77
702.621	-0.77
702.65	15.23
702.678	20.23
702.706	20.23
702.734	4.23
702.762	1.23
702.79	3.23
702.819	14.23
702.847	-0.77
702.875	0.23
702.903	7.23
702.931	-4.77
702.959	25.23
702.988	17.23
703.016	-6.77
703.044	11.23
703.072	-10.77
703.1	-14.77
703.128	-1.77
703.156	3.23
703.184	-1.77
703.212	12.23
703.241	4.23
703.269	0.23
703.297	-4.77
703.325	8.23
703.353	3.23
703.381	-0.77
703.409	10.23
703.437	4.23
703.465	-12.77
703.493	-10.77
703.522	15.23
703.55	13.23
703.578	11.23
703.606	6.23
703.634	-2.77
703.662	2.23
703.69	22.23
703.718	9.23
703.746	3.23
703.774	-6.77
703.802	30.23
703.83	-4.77
703.858	7.23
703.886	-8.77
703.914	-2.77
703.942	15.23
703.97	2.23
703.998	-0.77
704.027	12.23
704.055	18.23
704.083	5.23
704.111	3.23
704.139	7.23
704.167	8.23
704.195	12.23
704.223	-5.77
704.251	-3.77
704.279	7.23
704.307	8.23
704.335	-5.77
704.363	16.23
704.391	-3.77
704.419	-5.77
704.447	-3.77
704.475	-1.77
704.503	-8.77
704.531	-3.77
704.558	22.23
704.586	2.23
704.614	1.23
704.642	13.23
704.67	12.23
704.698	8.23
704.726	8.23
704.754	4.23
704.782	-11.77
704.81	-16.77
704.838	22.23
704.866	14.23
704.894	1.23
704.922	-0.77
704.95	10.23
704.978	5.23
705.006	-1.77
705.034	4.23
705.061	-1.77
705.089	6.23
705.117	-9.77
705.145	13.23
705.173	11.23
705.201	5.23
705.229	-1.77
705.257	7.23
705.285	7.23
705.313	3.23
705.34	15.23
705.368	2.23
705.396	7.23
705.424	4.23
705.452	-7.77
705.48	-2.77
705.508	-8.77
705.536	8.23
705.563	4.23
705.591	26.23
705.619	12.23
705.647	4.23
705.675	-0.77
705.703	12.23
705.731	-7.77
705.758	5.23
705.786	6.23
705.814	19.23
705.842	15.23
705.87	14.23
705.898	15.23
705.925	-1.77
705.953	9.23
705.981	5.23
706.009	8.23
706.037	7.23
706.065	-18.77
706.092	-4.77
706.12	16.23
706.148	3.23
706.176	7.23
706.204	5.23
706.231	-4.77
706.259	4.23
706.287	6.23
706.315	-7.77
706.342	1.23
706.37	11.23
706.398	10.23
706.426	-9.77
706.454	4.23
706.481	3.23
706.509	6.23
706.537	3.23
706.565	-3.77
706.592	0.23
706.62	-15.77
706.648	11.23
706.676	-16.77
706.703	15.23
706.731	4.23
706.759	-7.77
706.787	0.23
706.814	-2.77
706.842	7.23
706.87	9.23
706.897	16.23
706.925	-3.77
706.953	14.23
706.981	5.23
707.008	2.23
707.036	0.23
707.064	2.23
707.091	-9.77
707.119	12.23
707.147	1.23
707.174	-1.77
707.202	26.23
707.23	-10.77
707.258	5.23
707.285	-8.77
707.313	9.23
707.341	3.23
707.368	-19.77
707.396	6.23
707.424	17.23
707.451	18.23
707.479	10.23
707.507	-2.77
707.534	-0.77
707.562	0.23
707.59	-0.77
707.617	4.23
707.645	9.23
707.672	1.23
707.7	8.23
707.728	18.23
707.755	10.23
707.783	4.23
707.811	-0.77
707.838	-5.77
707.866	-5.77
707.893	6.23
707.921	13.23
707.949	-1.77
707.976	13.23
708.004	12.23
708.031	5.23
708.059	5.23
708.087	7.23
708.114	-7.77
708.142	1.23
708.169	7.23
708.197	4.23
708.225	0.23
708.252	-18.77
708.28	10.23
708.307	-11.77
708.335	10.23
708.362	5.23
708.39	-21.77
708.418	-7.77
708.445	-8.77
708.473	2.23
708.5	7.23
708.528	16.23
708.555	-2.77
708.583	-1.77
708.61	-7.77
708.638	4.23
708.665	-3.77
708.693	-4.77
708.72	-12.77
708.748	-19.77
708.776	0.23
708.803	18.23
708.831	-0.77
708.858	7.23
708.886	5.23
708.913	-11.77
708.941	-11.77
708.968	1.23
708.996	0.23
709.023	31.23
709.051	7.23
709.078	21.23
709.105	11.23
709.133	9.23
709.16	4.23
709.188	8.23
709.215	10.23
709.243	0.23
709.27	-22.77
709.298	-16.77
709.325	8.23
709.353	4.23
709.38	25.23
709.408	16.23
709.435	17.23
709.462	9.23
709.49	12.23
709.517	-7.77
709.545	-7.77
709.572	-12.77
709.6	-1.77
709.627	5.23
709.655	7.23
709.682	-0.77
709.709	2.23
709.737	-0.77
709.764	-0.77
709.792	12.23
709.819	10.23
709.846	11.23
709.874	3.23
709.901	18.23
709.929	23.23
709.956	5.23
709.983	2.23
710.011	9.23
710.038	-0.77
710.066	-2.77
710.093	9.23
710.12	7.23
710.148	5.23
710.175	5.23
710.202	-7.77
710.23	-0.77
710.257	12.23
710.284	15.23
710.312	12.23
710.339	1.23
710.366	6.23
710.394	-0.77
710.421	-9.77
710.448	1.23
710.476	-20.77
710.503	3.23
710.53	20.23
710.558	23.23
710.585	28.23
710.612	-3.77
710.64	-0.77
710.667	3.23
710.694	-4.77
710.722	3.23
710.749	7.23
710.776	10.23
710.804	31.23
710.831	5.23
710.858	1.23
710.885	-0.77
710.913	7.23
710.94	23.23
710.967	-7.77
710.995	9.23
711.022	-2.77
711.049	6.23
711.076	-7.77
711.104	20.23
711.131	4.23
711.158	-0.77
711.185	1.23
711.213	-10.77
711.24	1.23
711.267	-6.77
711.294	16.23
711.322	23.23
711.349	7.23
711.376	12.23
711.403	0.23
711.431	-8.77
711.458	4.23
711.485	20.23
711.512	7.23
711.54	10.23
711.567	4.23
711.594	11.23
711.621	3.23
711.648	13.23
711.676	4.23
711.703	-1.77
711.73	-4.77
711.757	11.23
711.784	-1.77
711.812	6.23
711.839	-2.77
711.866	-14.77
711.893	-7.77
711.92	9.23
711.947	7.23
711.975	1.23
712.002	-7.77
712.029	1.23
712.056	6.23
712.083	-0.77
712.11	-3.77
712.138	12.23
712.165	16.23
712.192	1.23
712.219	-7.77
712.246	-7.77
712.273	-9.77
712.3	9.23
712.328	6.23
712.355	11.23
712.382	-3.77
712.409	9.23
712.436	-10.77
712.463	16.23
712.49	9.23
712.517	9.23
712.544	9.23
712.572	4.23
712.599	-15.77
712.626	17.23
712.653	5.23
712.68	5.23
712.707	8.23
712.734	0.23
712.761	16.23
712.788	7.23
712.815	-8.77
712.842	15.23
712.87	8.23
712.897	-11.77
712.924	-18.77
712.951	13.23
712.978	5.23
713.005	10.23
713.032	13.23
713.059	-3.77
713.086	6.23
713.113	-12.77
713.14	2.23
713.167	5.23
713.194	14.23
713.221	-11.77
713.248	20.23
713.275	3.23
713.302	-6.77
713.329	5.23
713.356	9.23
713.383	16.23
713.41	11.23
713.437	-5.77
713.464	16.23
713.491	17.23
713.518	15.23
713.545	-6.77
713.572	-3.77
713.599	9.23
713.626	1.23
713.653	11.23
713.68	-0.77
713.707	7.23
713.734	4.23
713.761	-0.77
713.788	-5.77
713.815	3.23
713.842	3.23
713.869	18.23
713.896	7.23
713.923	8.23
713.95	-8.77
713.977	1.23
714.004	4.23
714.031	1.23
714.058	0.23
714.085	4.23
714.112	4.23
714.139	5.23
714.165	15.23
714.192	2.23
714.219	-3.77
714.246	-1.77
714.273	5.23
714.3	-7.77
714.327	8.23
714.354	12.23
714.381	-1.77
714.408	9.23
714.435	-1.77
714.461	-0.77
714.488	16.23
714.515	9.23
714.542	-1.77
714.569	-9.77
714.596	0.23
714.623	-10.77
714.65	-18.77
714.677	16.23
714.703	8.23
714.73	8.23
714.757	8.23
714.784	-5.77
714.811	7.23
714.838	15.23
714.865	-2.77
714.891	17.23
714.918	-2.77
714.945	0.23
714.972	12.23
714.999	0.23
715.026	8.23
715.052	17.23
715.079	-10.77
715.106	0.23
715.133	-3.77
715.16	-2.77
715.187	7.23
715.213	8.23
715.24	-14.77
715.267	-7.77
715.294	0.23
715.321	4.23
715.347	8.23
715.374	-2.77
715.401	0.23
715.428	13.23
715.455	6.23
715.481	-5.77
715.508	12.23
715.535	6.23
715.562	25.23
715.588	-0.77
715.615	-14.77
715.642	-16.77
715.669	9.23
715.695	-9.77
715.722	1.23
715.749	9.23
715.776	20.23
715.802	8.23
715.829	9.23
715.856	-6.77
715.883	11.23
715.909	-1.77
715.936	-2.77
715.963	-1.77
715.99	-4.77
716.016	-0.77
716.043	-5.77
716.07	-8.77
716.096	-12.77
716.123	-0.77
716.15	-2.77
716.177	7.23
716.203	12.23
716.23	11.23
716.257	3.23
716.283	20.23
716.31	-12.77
716.337	1.23
716.363	-10.77
716.39	18.23
716.417	19.23
716.443	3.23
716.47	-2.77
716.497	12.23
716.523	19.23
716.55	7.23
716.577	19.23
716.603	1.23
716.63	13.23
716.657	19.23
716.683	11.23
716.71	15.23
716.737	-7.77
716.763	-4.77
716.79	4.23
716.817	17.23
716.843	0.23
716.87	0.23
716.897	8.23
716.923	16.23
716.95	9.23
716.976	-2.77
717.003	-10.77
717.03	7.23
717.056	20.23
717.083	-3.77
717.109	13.23
717.136	24.23
717.163	7.23
717.189	10.23
717.216	-8.77
717.242	-3.77
717.269	-8.77
717.296	12.23
717.322	8.23
717.349	12.23
717.375	6.23
717.402	-6.77
717.428	4.23
717.455	12.23
717.481	2.23
717.508	6.23
717.535	17.23
717.561	11.23
717.588	-1.77
717.614	5.23
717.641	-5.77
717.667	9.23
717.694	20.23
717.72	6.23
717.747	14.23
717.773	8.23
717.8	12.23
717.826	0.23
717.853	8.23
717.88	17.23
717.906	-14.77
717.933	11.23
717.959	7.23
717.986	5.23
718.012	-5.77
718.039	7.23
718.065	5.23
718.092	12.23
718.118	7.23
718.144	7.23
718.171	6.23
718.197	23.23
718.224	-4.77
718.25	1.23
718.277	4.23
718.303	4.23
718.33	-0.77
718.356	7.23
718.383	-1.77
718.409	-3.77
718.436	7.23
718.462	1.23
718.489	-2.77
718.515	23.23
718.541	9.23
718.568	19.23
718.594	10.23
718.621	22.23
718.647	-5.77
718.674	7.23
718.7	17.23
718.726	2.23
718.753	3.23
718.779	3.23
718.806	5.23
718.832	13.23
718.858	15.23
718.885	3.23
718.911	-2.77
718.938	15.23
718.964	3.23
718.99	12.23
719.017	3.23
719.043	23.23
719.07	8.23
719.096	-0.77
719.122	3.23
719.149	-4.77
719.175	6.23
719.201	11.23
719.228	8.23
719.254	3.23
719.281	-6.77
719.307	-2.77
719.333	-0.77
719.36	16.23
719.386	11.23
719.412	10.23
719.439	5.23
719.465	-3.77
719.491	-4.77
719.518	4.23
719.544	11.23
719.57	17.23
719.597	7.23
719.623	-6.77
719.649	13.23
719.675	-6.77
719.702	8.23
719.728	13.23
719.754	-2.77
719.781	3.23
719.807	-7.77
719.833	8.23
719.86	-0.77
719.886	-6.77
719.912	-4.77
719.938	-10.77
719.965	6.23
719.991	9.23
720.017	17.23
720.044	10.23
720.07	6.23
720.096	7.23
720.122	10.23
720.149	21.23
720.175	26.23
720.201	2.23
720.227	3.23
720.254	6.23
720.28	3.23
720.306	3.23
720.332	8.23
720.359	10.23
720.385	23.23
720.411	13.23
720.437	7.23
720.463	-9.77
720.49	13.23
720.516	-5.77
720.542	4.23
720.568	4.23
720.595	14.23
720.621	7.23
720.647	-0.77
720.673	29.23
720.699	4.23
720.725	-9.77
720.752	8.23
720.778	5.23
720.804	10.23
720.83	14.23
720.856	-1.77
720.883	-3.77
720.909	1.23
720.935	7.23
720.961	25.23
720.987	15.23
721.013	12.23
721.04	-6.77
721.066	-4.77
721.092	-12.77
721.118	19.23
721.144	5.23
721.17	7.23
721.196	-7.77
721.223	1.23
721.249	19.23
721.275	19.23
721.301	-0.77
721.327	15.23
721.353	5.23
721.379	13.23
721.405	8.23
721.432	7.23
721.458	4.23
721.484	17.23
721.51	0.23
721.536	8.23
721.562	8.23
721.588	-1.77
721.614	-0.77
721.64	-15.77
721.666	-1.77
721.693	8.23
721.719	6.23
721.745	0.23
721.771	3.23
721.797	-3.77
721.823	8.23
721.849	16.23
721.875	3.23
721.901	9.23
721.927	7.23
721.953	18.23
721.979	13.23
722.005	8.23
722.031	-1.77
722.057	7.23
722.083	0.23
722.109	18.23
722.135	17.23
722.161	4.23
722.187	-8.77
722.214	4.23
722.24	2.23
722.266	1.23
722.292	24.23
722.318	0.23
722.344	6.23
722.37	14.23
722.396	20.23
722.422	4.23
722.448	1.23
722.474	-17.77
722.5	30.23
722.526	11.23
722.552	17.23
722.578	14.23
722.603	24.23
722.629	11.23
722.655	1.23
722.681	-0.77
722.707	-0.77
722.733	10.23
722.759	-4.77
722.785	4.23
722.811	-3.77
722.837	3.23
722.863	11.23
722.889	12.23
722.915	3.23
722.941	-8.77
722.967	10.23
722.993	21.23
723.019	24.23
723.045	12.23
723.071	-2.77
723.097	13.23
723.122	7.23
723.148	0.23
723.174	-4.77
723.2	0.23
723.226	5.23
723.252	8.23
723.278	0.23
723.304	-3.77
723.33	-2.77
723.356	-15.77
723.381	6.23
723.407	-3.77
723.433	5.23
723.459	-0.77
723.485	-2.77
723.511	19.23
723.537	17.23
723.563	7.23
723.588	4.23
723.614	14.23
723.64	18.23
723.666	-3.77
723.692	13.23
723.718	7.23
723.744	-0.77
723.769	4.23
723.795	8.23
723.821	5.23
723.847	5.23
723.873	17.23
723.899	7.23
723.924	-2.77
723.95	1.23
723.976	-0.77
724.002	11.23
724.028	-1.77
724.053	-3.77
724.079	1.23
724.105	1.23
724.131	-5.77
724.157	13.23
724.182	14.23
724.208	9.23
724.234	1.23
724.26	-4.77
724.286	19.23
724.311	11.23
724.337	-5.77
724.363	-1.77
724.389	8.23
724.415	6.23
724.44	21.23
724.466	0.23
724.492	1.23
724.518	12.23
724.543	-0.77
724.569	5.23
724.595	5.23
724.621	14.23
724.646	7.23
724.672	-4.77
724.698	-2.77
724.723	-3.77
724.749	11.23
724.775	23.23
724.801	3.23
724.826	-9.77
724.852	0.23
724.878	-8.77
724.904	-14.77
724.929	8.23
724.955	-1.77
724.981	-1.77
725.006	-1.77
725.032	5.23
725.058	23.23
725.083	5.23
725.109	-6.77
725.135	8.23
725.161	2.23
725.186	4.23
725.212	13.23
725.238	5.23
725.263	-0.77
725.289	4.23
725.315	-0.77
725.34	8.23
725.366	6.23
725.392	4.23
725.417	0.23
725.443	12.23
725.468	11.23
725.494	19.23
725.52	23.23
725.545	0.23
725.571	3.23
725.597	3.23
725.622	10.23
725.648	-4.77
725.674	13.23
725.699	13.23
725.725	0.23
725.75	20.23
725.776	14.23
725.802	9.23
725.827	13.23
725.853	-6.77
725.878	12.23
725.904	15.23
725.93	3.23
725.955	0.23
725.981	-3.77
726.006	-2.77
726.032	15.23
726.057	-4.77
726.083	5.23
726.109	12.23
726.134	12.23
726.16	15.23
726.185	1.23
726.211	-0.77
726.236	18.23
726.262	0.23
726.288	10.23
726.313	20.23
726.339	24.23
726.364	25.23
726.39	15.23
726.415	7.23
726.441	14.23
726.466	8.23
726.492	18.23
726.517	11.23
726.543	13.23
726.568	-10.77
726.594	5.23
726.619	-4.77
726.645	18.23
726.67	4.23
726.696	1.23
726.721	5.23
726.747	2.23
726.772	14.23
726.798	7.23
726.823	16.23
726.849	4.23
726.874	14.23
726.9	21.23
726.925	22.23
726.951	5.23
726.976	13.23
727.002	2.23
727.027	14.23
727.053	25.23
727.078	20.23
727.104	6.23
727.129	-2.77
727.155	-4.77
727.18	3.23
727.205	14.23
727.231	-8.77
727.256	8.23
727.282	22.23
727.307	12.23
727.333	0.23
727.358	-1.77
727.383	-5.77
727.409	4.23
727.434	23.23
727.46	8.23
727.485	4.23
727.511	2.23
727.536	-4.77
727.561	11.23
727.587	-3.77
727.612	-2.77
727.637	5.23
727.663	-8.77
727.688	20.23
727.714	10.23
727.739	4.23
727.764	-1.77
727.79	23.23
727.815	8.23
727.841	19.23
727.866	16.23
727.891	12.23
727.917	2.23
727.942	-5.77
727.967	0.23
727.993	1.23
728.018	19.23
728.043	11.23
728.069	3.23
728.094	17.23
728.119	12.23
728.145	13.23
728.17	10.23
728.195	23.23
728.221	17.23
728.246	-7.77
728.271	-9.77
728.297	3.23
728.322	6.23
728.347	7.23
728.373	-1.77
728.398	6.23
728.423	-0.77
728.448	10.23
728.474	-3.77
728.499	10.23
728.524	-18.77
728.55	3.23
728.575	-5.77
728.6	0.23
728.625	6.23
728.651	21.23
728.676	-4.77
728.701	-4.77
728.727	-6.77
728.752	3.23
728.777	-6.77
728.802	4.23
728.828	5.23
728.853	8.23
728.878	1.23
728.903	-3.77
728.929	-17.77
728.954	-16.77
728.979	0.23
729.004	2.23
729.03	7.23
729.055	11.23
729.08	-4.77
729.105	-7.77
729.13	14.23
729.156	11.23
729.181	3.23
729.206	-3.77
729.231	-4.77
729.256	7.23
729.282	2.23
729.307	-10.77
729.332	-3.77
729.357	1.23
729.382	-0.77
729.408	10.23
729.433	3.23
729.458	3.23
729.483	16.23
729.508	6.23
729.533	17.23
729.559	3.23
729.584	-6.77
729.609	1.23
729.634	11.23
729.659	-1.77
729.684	3.23
729.71	24.23
729.735	19.23
729.76	0.23
729.785	9.23
729.81	17.23
729.835	2.23
729.86	0.23
729.886	17.23
729.911	4.23
729.936	3.23
729.961	16.23
729.986	-11.77
730.011	1.23
730.036	-1.77
730.061	17.23
730.086	11.23
730.112	12.23
730.137	27.23
730.162	4.23
730.187	3.23
730.212	6.23
730.237	-3.77
730.262	2.23
730.287	-4.77
730.312	23.23
730.337	13.23
730.362	27.23
730.387	12.23
730.413	-3.77
730.438	-4.77
730.463	11.23
730.488	-14.77
730.513	-1.77
730.538	5.23
730.563	30.23
730.588	11.23
730.613	15.23
730.638	-1.77
730.663	7.23
730.688	36.23
730.713	11.23
730.738	3.23
730.763	6.23
730.788	1.23
730.813	26.23
730.838	17.23
730.863	18.23
730.888	1.23
730.913	-0.77
730.938	-2.77
730.963	-5.77
730.988	11.23
731.013	21.23
731.038	8.23
731.063	-5.77
731.088	17.23
731.113	3.23
731.138	-11.77
731.163	-6.77
731.188	-11.77
731.213	2.23
731.238	23.23
731.263	-4.77
731.288	-2.77
731.313	4.23
731.338	11.23
731.363	12.23
731.388	17.23
731.413	1.23
731.438	14.23
731.463	7.23
731.487	7.23
731.512	3.23
731.537	6.23
731.562	15.23
731.587	3.23
731.612	0.23
731.637	-8.77
731.662	13.23
731.687	-8.77
731.712	8.23
731.737	17.23
731.762	11.23
731.786	25.23
731.811	7.23
731.836	3.23
731.861	-2.77
731.886	-5.77
731.911	-0.77
731.936	11.23
731.961	-3.77
731.986	0.23
732.01	2.23
732.035	3.23
732.06	15.23
732.085	9.23
732.11	14.23
732.135	-1.77
732.16	-0.77
732.184	4.23
732.209	10.23
732.234	1.23
732.259	-1.77
732.284	25.23
732.309	8.23
732.334	-8.77
732.358	-17.77
732.383	-4.77
732.408	-9.77
732.433	3.23
732.458	-8.77
732.482	-4.77
732.507	0.23
732.532	0.23
732.557	1.23
732.582	8.23
732.607	3.23
732.631	-9.77
732.656	-17.77
732.681	-8.77
732.706	3.23
732.73	8.23
732.755	1.23
732.78	7.23
732.805	4.23
732.83	-5.77
732.854	-6.77
732.879	6.23
732.904	8.23
732.929	0.23
732.953	15.23
732.978	9.23
733.003	1.23
733.028	-2.77
733.052	-0.77
733.077	-5.77
733.102	8.23
733.127	-3.77
733.151	15.23
733.176	11.23
733.201	11.23
733.226	-3.77
733.25	-1.77
733.275	12.23
733.3	1.23
733.324	27.23
733.349	21.23
733.374	14.23
733.399	-9.77
733.423	-26.77
733.448	3.23
733.473	-3.77
733.497	-1.77
733.522	-0.77
733.547	32.23
733.571	23.23
733.596	4.23
733.621	5.23
733.646	-1.77
733.67	10.23
733.695	1.23
733.72	8.23
733.744	14.23
733.769	10.23
733.794	16.23
733.818	4.23
733.843	7.23
733.867	-9.77
733.892	-7.77
733.917	-2.77
733.941	-0.77
733.966	1.23
733.991	-1.77
734.015	15.23
734.04	9.23
734.065	15.23
734.089	16.23
734.114	-0.77
734.138	8.23
734.163	0.23
734.188	11.23
734.212	7.23
734.237	10.23
734.261	3.23
734.286	19.23
734.311	15.23
734.335	13.23
734.36	0.23
734.384	25.23
734.409	11.23
734.434	-1.77
734.458	1.23
734.483	-5.77
734.507	-0.77
734.532	8.23
734.556	0.23
734.581	6.23
734.606	10.23
734.63	-17.77
734.655	0.23
734.679	13.23
734.704	0.23
734.728	3.23
734.753	4.23
734.777	0.23
734.802	1.23
734.826	15.23
734.851	3.23
734.876	22.23
734.9	16.23
734.925	18.23
734.949	17.23
734.974	-1.77
734.998	4.23
735.023	-4.77
735.047	4.23
735.072	32.23
735.096	9.23
735.121	25.23
735.145	3.23
735.17	-3.77
735.194	14.23
735.219	-3.77
735.243	3.23
735.268	5.23
735.292	23.23
735.317	0.23
735.341	1.23
735.365	-0.77
735.39	6.23
735.414	4.23
735.439	-0.77
735.463	5.23
735.488	15.23
735.512	12.23
735.537	11.23
735.561	4.23
735.586	11.23
735.61	6.23
735.634	-10.77
735.659	10.23
735.683	14.23
735.708	-4.77
735.732	9.23
735.757	1.23
735.781	16.23
735.805	17.23
735.83	2.23
735.854	19.23
735.879	-1.77
735.903	18.23
735.927	19.23
735.952	12.23
735.976	-1.77
736.001	-6.77
736.025	13.23
736.049	6.23
736.074	13.23
736.098	9.23
736.123	14.23
736.147	0.23
736.171	8.23
736.196	13.23
736.22	4.23
736.244	28.23
736.269	7.23
736.293	-9.77
736.317	11.23
736.342	8.23
736.366	20.23
736.39	1.23
736.415	1.23
736.439	4.23
736.463	8.23
736.488	14.23
736.512	3.23
736.536	4.23
736.561	25.23
736.585	15.23
736.609	39.23
736.634	-3.77
736.658	-0.77
736.682	0.23
736.707	0.23
736.731	6.23
736.755	9.23
736.78	10.23
736.804	3.23
736.828	0.23
736.852	2.23
736.877	6.23
736.901	11.23
736.925	11.23
736.949	18.23
736.974	-9.77
736.998	-2.77
737.022	-6.77
737.047	-3.77
737.071	-2.77
737.095	12.23
737.119	22.23
737.144	12.23
737.168	4.23
737.192	4.23
737.216	4.23
737.241	8.23
737.265	12.23
737.289	4.23
737.313	-7.77
737.337	8.23
737.362	4.23
737.386	-0.77
737.41	-5.77
737.434	-3.77
737.459	-1.77
737.483	1.23
737.507	4.23
737.531	19.23
737.555	18.23
737.58	7.23
737.604	3.23
737.628	-14.77
737.652	-3.77
737.676	-8.77
737.701	4.23
737.725	2.23
737.749	7.23
737.773	4.23
737.797	0.23
737.821	11.23
737.846	0.23
737.87	29.23
737.894	14.23
737.918	12.23
737.942	1.23
737.966	11.23
737.99	5.23
738.015	8.23
738.039	6.23
738.063	7.23
738.087	9.23
738.111	19.23
738.135	9.23
738.159	5.23
738.184	10.23
738.208	0.23
738.232	22.23
738.256	15.23
738.28	-0.77
738.304	5.23
738.328	3.23
738.352	-5.77
738.376	-2.77
738.4	5.23
738.425	10.23
738.449	-14.77
738.473	10.23
738.497	14.23
738.521	4.23
738.545	3.23
738.569	8.23
738.593	15.23
738.617	14.23
738.641	14.23
738.665	10.23
738.689	16.23
738.713	-0.77
738.737	7.23
738.762	21.23
738.786	15.23
738.81	-18.77
738.834	-0.77
738.858	-1.77
738.882	8.23
738.906	6.23
738.93	17.23
738.954	7.23
738.978	19.23
739.002	5.23
739.026	20.23
739.05	5.23
739.074	4.23
739.098	15.23
739.122	15.23
739.146	24.23
739.17	28.23
739.194	6.23
739.218	-0.77
739.242	0.23
739.266	-11.77
739.29	15.23
739.314	8.23
739.338	13.23
739.362	17.23
739.386	27.23
739.41	12.23
739.434	4.23
739.458	21.23
739.482	10.23
739.506	17.23
739.53	-0.77
739.554	27.23
739.577	-4.77
739.601	15.23
739.625	3.23
739.649	0.23
739.673	6.23
739.697	1.23
739.721	0.23
739.745	17.23
739.769	5.23
739.793	13.23
739.817	23.23
739.841	0.23
739.865	3.23
739.889	0.23
739.912	11.23
739.936	-4.77
739.96	5.23
739.984	4.23
740.008	3.23
740.032	0.23
740.056	-5.77
740.08	3.23
740.104	2.23
740.127	12.23
740.151	22.23
740.175	7.23
740.199	9.23
740.223	53.23
740.247	12.23
740.271	24.23
740.295	4.23
740.318	-3.77
740.342	6.23
740.366	10.23
740.39	-1.77
740.414	7.23
740.438	10.23
740.461	29.23
740.485	10.23
740.509	13.23
740.533	18.23
740.557	0.23
740.581	7.23
740.604	-6.77
740.628	7.23
740.652	16.23
740.676	4.23
740.7	15.23
740.723	13.23
740.747	6.23
740.771	0.23
740.795	-3.77
740.819	0.23
740.842	11.23
740.866	4.23
740.89	1.23
740.914	2.23
740.938	2.23
740.961	20.23
740.985	14.23
741.009	5.23
741.033	25.23
741.056	5.23
741.08	3.23
741.104	8.23
741.128	20.23
741.151	9.23
741.175	8.23
741.199	2.23
741.223	10.23
741.246	-3.77
741.27	3.23
741.294	13.23
741.318	-4.77
741.341	-16.77
741.365	7.23
741.389	17.23
741.413	21.23
741.436	22.23
741.46	4.23
741.484	5.23
741.507	2.23
741.531	16.23
741.555	-7.77
741.579	17.23
741.602	25.23
741.626	18.23
741.65	20.23
741.673	3.23
741.697	14.23
741.721	4.23
741.744	-12.77
741.768	8.23
741.792	6.23
741.815	5.23
741.839	31.23
741.863	20.23
741.886	12.23
741.91	27.23
741.934	26.23
741.957	-8.77
741.981	16.23
742.005	-0.77
742.028	-0.77
742.052	-10.77
742.075	16.23
742.099	28.23
742.123	6.23
742.146	10.23
742.17	22.23
742.194	2.23
742.217	4.23
742.241	1.23
742.264	-0.77
742.288	16.23
742.312	17.23
742.335	-10.77
742.359	7.23
742.382	8.23
742.406	15.23
742.43	-8.77
742.453	7.23
742.477	-1.77
742.5	15.23
742.524	12.23
742.548	-6.77
742.571	6.23
742.595	7.23
742.618	3.23
742.642	-2.77
742.665	14.23
742.689	-2.77
742.712	5.23
742.736	1.23
742.76	-2.77
742.783	5.23
742.807	0.23
742.83	12.23
742.854	3.23
742.877	18.23
742.901	-0.77
742.924	-3.77
742.948	4.23
742.971	4.23
742.995	10.23
743.018	-10.77
743.042	-5.77
743.065	6.23
743.089	-4.77
743.112	3.23
743.136	3.23
743.159	4.23
743.183	-2.77
743.206	3.23
743.23	0.23
743.253	10.23
743.277	19.23
743.3	-1.77
743.324	2.23
743.347	7.23
743.371	22.23
743.394	26.23
743.418	14.23
743.441	4.23
743.465	4.23
743.488	13.23
743.512	11.23
743.535	8.23
743.558	10.23
743.582	9.23
743.605	2.23
743.629	13.23
743.652	9.23
743.676	4.23
743.699	10.23
743.723	16.23
743.746	19.23
743.769	1.23
743.793	3.23
743.816	8.23
743.84	22.23
743.863	3.23
743.886	13.23
743.91	28.23
743.933	10.23
743.957	14.23
743.98	0.23
744.003	1.23
744.027	16.23
744.05	3.23
744.074	3.23
744.097	-0.77
744.12	-3.77
744.144	19.23
744.167	18.23
744.19	8.23
744.214	7.23
744.237	-1.77
744.26	20.23
744.284	9.23
744.307	-1.77
744.331	13.23
744.354	5.23
744.377	1.23
744.401	6.23
744.424	8.23
744.447	-10.77
744.471	-7.77
