Data from HighRes_H2_15_09_11_07_2024_HR4C61891__145__15-11-10-901.txt Node

Date: Thu Nov 07 15:11:10 EST 2024
User: crc00042
Spectrometer: HR4C6189
Trigger mode: 4
Integration Time (sec): 1.000000E-1
Scans to average: 1
Electric dark correction enabled: true
Nonlinearity correction enabled: false
Boxcar width: 0
XAxis mode: Wavelengths
Number of Pixels in Spectrum: 3648
>>>>>Begin Spectral Data<<<<<
639.567	-37.85
639.602	-37.85
639.636	-37.85
639.67	-51.85
639.704	-26.85
639.738	13.15
639.773	12.15
639.807	-11.85
639.841	2.15
639.875	18.15
639.909	5.15
639.943	-14.85
639.978	1.15
640.012	-7.85
640.046	8.15
640.08	-5.85
640.114	0.15
640.148	-19.85
640.182	-14.85
640.217	-5.85
640.251	17.15
640.285	-11.85
640.319	-30.85
640.353	-10.85
640.387	-15.85
640.421	-6.85
640.455	3.15
640.49	1.15
640.524	-8.85
640.558	-12.85
640.592	4.15
640.626	-9.85
640.66	-7.85
640.694	-3.85
640.728	-1.85
640.762	1.15
640.796	6.15
640.83	6.15
640.865	-10.85
640.899	4.15
640.933	3.15
640.967	-16.85
641.001	-3.85
641.035	-1.85
641.069	-9.85
641.103	-12.85
641.137	6.15
641.171	-11.85
641.205	-2.85
641.239	-12.85
641.273	12.15
641.307	21.15
641.341	11.15
641.375	-12.85
641.409	-3.85
641.443	1.15
641.477	6.15
641.511	-2.85
641.545	7.15
641.579	-7.85
641.614	8.15
641.648	10.15
641.682	-15.85
641.716	-1.85
641.75	9.15
641.784	-4.85
641.818	-3.85
641.852	2.15
641.886	-2.85
641.919	10.15
641.953	-5.85
641.987	-13.85
642.021	2.15
642.055	0.15
642.089	-13.85
642.123	-6.85
642.157	0.15
642.191	1.15
642.225	2.15
642.259	-2.85
642.293	8.15
642.327	-8.85
642.361	-3.85
642.395	-4.85
642.429	11.15
642.463	18.15
642.497	21.15
642.531	6.15
642.565	-6.85
642.599	7.15
642.633	-10.85
642.666	22.15
642.7	11.15
642.734	2.15
642.768	-27.85
642.802	-2.85
642.836	-10.85
642.87	-19.85
642.904	2.15
642.938	7.15
642.972	-5.85
643.005	-2.85
643.039	9.15
643.073	-4.85
643.107	13.15
643.141	-0.85
643.175	0.15
643.209	-10.85
643.243	6.15
643.276	-7.85
643.31	-14.85
643.344	-1.85
643.378	-0.85
643.412	12.15
643.446	14.15
643.48	-8.85
643.513	-1.85
643.547	6.15
643.581	-18.85
643.615	-5.85
643.649	-4.85
643.683	-2.85
643.716	-2.85
643.75	1.15
643.784	-9.85
643.818	-5.85
643.852	-12.85
643.886	-0.85
643.919	10.15
643.953	8.15
643.987	-3.85
644.021	10.15
644.055	16.15
644.088	0.15
644.122	-12.85
644.156	-4.85
644.19	-3.85
644.224	-8.85
644.257	-6.85
644.291	2.15
644.325	10.15
644.359	1.15
644.392	14.15
644.426	16.15
644.46	8.15
644.494	-16.85
644.527	-12.85
644.561	-3.85
644.595	-13.85
644.629	-10.85
644.662	-5.85
644.696	10.15
644.73	2.15
644.764	-6.85
644.797	-9.85
644.831	-1.85
644.865	12.15
644.899	-7.85
644.932	19.15
644.966	-6.85
645	-6.85
645.033	19.15
645.067	-13.85
645.101	15.15
645.135	-1.85
645.168	-5.85
645.202	-6.85
645.236	-0.85
645.269	30.15
645.303	-7.85
645.337	-26.85
645.37	-14.85
645.404	0.15
645.438	21.15
645.471	4.15
645.505	9.15
645.539	-0.85
645.572	-9.85
645.606	-3.85
645.64	11.15
645.673	19.15
645.707	10.15
645.741	-7.85
645.774	-13.85
645.808	5.15
645.842	-12.85
645.875	-3.85
645.909	1.15
645.943	-3.85
645.976	-5.85
646.01	2.15
646.043	2.15
646.077	3.15
646.111	3.15
646.144	13.15
646.178	22.15
646.212	-24.85
646.245	-6.85
646.279	-16.85
646.312	-8.85
646.346	1.15
646.38	-0.85
646.413	10.15
646.447	-0.85
646.48	-1.85
646.514	3.15
646.547	8.15
646.581	5.15
646.615	-0.85
646.648	-21.85
646.682	3.15
646.715	0.15
646.749	7.15
646.782	-5.85
646.816	-18.85
646.85	5.15
646.883	-13.85
646.917	4.15
646.95	-8.85
646.984	-1.85
647.017	3.15
647.051	-7.85
647.084	5.15
647.118	-7.85
647.151	0.15
647.185	10.15
647.218	-9.85
647.252	-4.85
647.285	-19.85
647.319	-24.85
647.353	-11.85
647.386	21.15
647.42	3.15
647.453	-6.85
647.487	-8.85
647.52	17.15
647.553	3.15
647.587	-2.85
647.62	-7.85
647.654	-0.85
647.687	7.15
647.721	2.15
647.754	2.15
647.788	-21.85
647.821	-13.85
647.855	-0.85
647.888	8.15
647.922	15.15
647.955	7.15
647.989	1.15
648.022	8.15
648.055	4.15
648.089	-4.85
648.122	17.15
648.156	1.15
648.189	8.15
648.223	1.15
648.256	32.15
648.29	2.15
648.323	-4.85
648.356	5.15
648.39	-3.85
648.423	-0.85
648.457	2.15
648.49	0.15
648.523	4.15
648.557	-0.85
648.59	-2.85
648.624	-14.85
648.657	-9.85
648.69	0.15
648.724	10.15
648.757	18.15
648.791	14.15
648.824	-10.85
648.857	20.15
648.891	9.15
648.924	0.15
648.957	18.15
648.991	-12.85
649.024	15.15
649.057	0.15
649.091	-12.85
649.124	13.15
649.158	7.15
649.191	27.15
649.224	-6.85
649.258	-11.85
649.291	0.15
649.324	10.15
649.358	-0.85
649.391	0.15
649.424	-7.85
649.458	-16.85
649.491	-4.85
649.524	-17.85
649.557	-17.85
649.591	-19.85
649.624	13.15
649.657	7.15
649.691	-6.85
649.724	-0.85
649.757	-4.85
649.791	-22.85
649.824	2.15
649.857	5.15
649.89	-7.85
649.924	-18.85
649.957	-14.85
649.99	-4.85
650.023	-13.85
650.057	0.15
650.09	6.15
650.123	-6.85
650.157	-0.85
650.19	16.15
650.223	-3.85
650.256	-13.85
650.29	-13.85
650.323	2.15
650.356	3.15
650.389	6.15
650.423	-13.85
650.456	-9.85
650.489	1.15
650.522	-3.85
650.555	11.15
650.589	5.15
650.622	-11.85
650.655	1.15
650.688	2.15
650.721	-9.85
650.755	18.15
650.788	18.15
650.821	18.15
650.854	-9.85
650.887	1.15
650.921	-8.85
650.954	-2.85
650.987	-15.85
651.02	-13.85
651.053	-11.85
651.087	-22.85
651.12	19.15
651.153	0.15
651.186	9.15
651.219	-14.85
651.252	-4.85
651.286	13.15
651.319	-6.85
651.352	-0.85
651.385	-0.85
651.418	0.15
651.451	11.15
651.484	4.15
651.518	-4.85
651.551	6.15
651.584	-22.85
651.617	25.15
651.65	4.15
651.683	5.15
651.716	-11.85
651.749	-8.85
651.783	3.15
651.816	5.15
651.849	3.15
651.882	15.15
651.915	0.15
651.948	-1.85
651.981	4.15
652.014	-1.85
652.047	-6.85
652.08	-15.85
652.114	-14.85
652.147	-17.85
652.18	-7.85
652.213	12.15
652.246	5.15
652.279	-6.85
652.312	12.15
652.345	1.15
652.378	13.15
652.411	8.15
652.444	-9.85
652.477	-13.85
652.51	-20.85
652.543	-10.85
652.576	9.15
652.609	-21.85
652.642	-10.85
652.675	17.15
652.709	-0.85
652.742	-14.85
652.775	-3.85
652.808	2.15
652.841	-2.85
652.874	-0.85
652.907	-2.85
652.94	-1.85
652.973	-17.85
653.006	-7.85
653.039	25.15
653.072	8.15
653.105	0.15
653.138	-19.85
653.171	-16.85
653.204	-1.85
653.237	1.15
653.27	-13.85
653.303	1.15
653.336	8.15
653.368	-0.85
653.401	-5.85
653.434	-10.85
653.467	9.15
653.5	-15.85
653.533	-16.85
653.566	-2.85
653.599	-3.85
653.632	-12.85
653.665	-3.85
653.698	-12.85
653.731	-26.85
653.764	-0.85
653.797	-0.85
653.83	13.15
653.863	6.15
653.896	-13.85
653.929	-0.85
653.961	3.15
653.994	14.15
654.027	-20.85
654.06	-8.85
654.093	6.15
654.126	23.15
654.159	-13.85
654.192	-3.85
654.225	-13.85
654.258	-5.85
654.29	1.15
654.323	9.15
654.356	3.15
654.389	-6.85
654.422	2.15
654.455	-1.85
654.488	6.15
654.521	-11.85
654.553	-17.85
654.586	18.15
654.619	-3.85
654.652	2.15
654.685	22.15
654.718	20.15
654.751	0.15
654.783	-1.85
654.816	7.15
654.849	-0.85
654.882	0.15
654.915	-12.85
654.948	-10.85
654.98	-15.85
655.013	0.15
655.046	10.15
655.079	1.15
655.112	-6.85
655.144	-16.85
655.177	6.15
655.21	17.15
655.243	18.15
655.276	0.15
655.308	-3.85
655.341	-19.85
655.374	7.15
655.407	-9.85
655.44	11.15
655.472	-3.85
655.505	10.15
655.538	1.15
655.571	23.15
655.603	23.15
655.636	12.15
655.669	25.15
655.702	11.15
655.734	7.15
655.767	9.15
655.8	14.15
655.833	29.15
655.865	19.15
655.898	16.15
655.931	20.15
655.964	35.15
655.996	56.15
656.029	74.15
656.062	54.15
656.095	61.15
656.127	62.15
656.16	114.15
656.193	122.15
656.225	176.15
656.258	270.15
656.291	483.15
656.324	1108.15
656.356	3380.15
656.389	7506.15
656.422	6057.15
656.454	2073.15
656.487	674.15
656.52	267.15
656.552	118.15
656.585	68.15
656.618	64.15
656.65	53.15
656.683	18.15
656.716	7.15
656.748	13.15
656.781	3.15
656.814	-14.85
656.846	6.15
656.879	12.15
656.912	2.15
656.944	-17.85
656.977	-12.85
657.01	-3.85
657.042	9.15
657.075	0.15
657.108	-22.85
657.14	4.15
657.173	-0.85
657.205	25.15
657.238	6.15
657.271	4.15
657.303	3.15
657.336	3.15
657.369	16.15
657.401	1.15
657.434	8.15
657.466	15.15
657.499	2.15
657.532	-2.85
657.564	11.15
657.597	10.15
657.629	12.15
657.662	11.15
657.694	1.15
657.727	-20.85
657.76	7.15
657.792	0.15
657.825	-11.85
657.857	1.15
657.89	-4.85
657.922	13.15
657.955	-9.85
657.987	0.15
658.02	20.15
658.053	1.15
658.085	-4.85
658.118	1.15
658.15	7.15
658.183	21.15
658.215	-2.85
658.248	-12.85
658.28	-10.85
658.313	6.15
658.345	0.15
658.378	2.15
658.41	-2.85
658.443	-2.85
658.475	-4.85
658.508	-16.85
658.54	-2.85
658.573	8.15
658.605	19.15
658.638	10.15
658.67	6.15
658.703	2.15
658.735	-22.85
658.768	-4.85
658.8	-23.85
658.833	0.15
658.865	-1.85
658.898	-4.85
658.93	-19.85
658.963	-13.85
658.995	-14.85
659.028	-8.85
659.06	-3.85
659.092	4.15
659.125	-11.85
659.157	8.15
659.19	-8.85
659.222	9.15
659.255	-16.85
659.287	-4.85
659.32	-5.85
659.352	-1.85
659.384	11.15
659.417	-5.85
659.449	9.15
659.482	4.15
659.514	-5.85
659.546	-11.85
659.579	-3.85
659.611	-11.85
659.644	-8.85
659.676	-25.85
659.708	-11.85
659.741	-24.85
659.773	6.15
659.806	3.15
659.838	7.15
659.87	-6.85
659.903	-11.85
659.935	-7.85
659.967	-9.85
660	8.15
660.032	-24.85
660.065	11.15
660.097	11.15
660.129	-9.85
660.162	-12.85
660.194	5.15
660.226	4.15
660.259	9.15
660.291	9.15
660.323	-10.85
660.356	7.15
660.388	-0.85
660.42	-11.85
660.453	13.15
660.485	9.15
660.517	10.15
660.55	19.15
660.582	0.15
660.614	13.15
660.647	-3.85
660.679	-12.85
660.711	-4.85
660.743	-17.85
660.776	-7.85
660.808	-0.85
660.84	-5.85
660.873	14.15
660.905	6.15
660.937	2.15
660.969	-7.85
661.002	10.15
661.034	-1.85
661.066	-3.85
661.099	-5.85
661.131	19.15
661.163	-2.85
661.195	-1.85
661.228	17.15
661.26	-9.85
661.292	-7.85
661.324	5.15
661.357	0.15
661.389	-3.85
661.421	-0.85
661.453	10.15
661.485	1.15
661.518	2.15
661.55	-18.85
661.582	-13.85
661.614	-5.85
661.647	5.15
661.679	-5.85
661.711	-0.85
661.743	-5.85
661.775	10.15
661.808	15.15
661.84	-5.85
661.872	-2.85
661.904	-13.85
661.936	-11.85
661.969	-11.85
662.001	-11.85
662.033	-2.85
662.065	-6.85
662.097	17.15
662.129	18.15
662.162	-3.85
662.194	12.15
662.226	14.15
662.258	17.15
662.29	6.15
662.322	-8.85
662.355	-3.85
662.387	13.15
662.419	18.15
662.451	18.15
662.483	7.15
662.515	1.15
662.547	4.15
662.58	-2.85
662.612	-7.85
662.644	-0.85
662.676	1.15
662.708	16.15
662.74	-8.85
662.772	-7.85
662.804	1.15
662.836	-2.85
662.869	-18.85
662.901	12.15
662.933	5.15
662.965	5.15
662.997	4.15
663.029	-2.85
663.061	-2.85
663.093	1.15
663.125	0.15
663.157	7.15
663.189	-8.85
663.221	11.15
663.254	7.15
663.286	7.15
663.318	-13.85
663.35	-7.85
663.382	6.15
663.414	11.15
663.446	1.15
663.478	-5.85
663.51	17.15
663.542	-6.85
663.574	10.15
663.606	5.15
663.638	-13.85
663.67	1.15
663.702	-16.85
663.734	-16.85
663.766	1.15
663.798	-5.85
663.83	-18.85
663.862	0.15
663.894	3.15
663.926	-15.85
663.958	7.15
663.99	-3.85
664.022	-19.85
664.054	5.15
664.086	-10.85
664.118	-8.85
664.15	-9.85
664.182	0.15
664.214	-8.85
664.246	14.15
664.278	-1.85
664.31	8.15
664.342	-7.85
664.374	3.15
664.406	-13.85
664.438	1.15
664.47	16.15
664.502	-6.85
664.534	-12.85
664.566	-17.85
664.598	-2.85
664.63	-6.85
664.662	-9.85
664.693	8.15
664.725	-4.85
664.757	-29.85
664.789	-23.85
664.821	10.15
664.853	-5.85
664.885	0.15
664.917	-9.85
664.949	9.15
664.981	21.15
665.013	-9.85
665.045	-21.85
665.076	1.15
665.108	-4.85
665.14	-23.85
665.172	-7.85
665.204	-15.85
665.236	-3.85
665.268	4.15
665.3	-3.85
665.331	-4.85
665.363	5.15
665.395	-4.85
665.427	-24.85
665.459	9.15
665.491	-1.85
665.523	-5.85
665.555	-10.85
665.586	1.15
665.618	3.15
665.65	-11.85
665.682	14.15
665.714	9.15
665.746	1.15
665.777	-12.85
665.809	-5.85
665.841	12.15
665.873	-0.85
665.905	-11.85
665.937	-0.85
665.968	5.15
666	-6.85
666.032	10.15
666.064	2.15
666.096	-6.85
666.127	-2.85
666.159	1.15
666.191	9.15
666.223	12.15
666.255	4.15
666.286	-5.85
666.318	-17.85
666.35	16.15
666.382	6.15
666.413	-12.85
666.445	-17.85
666.477	-6.85
666.509	-9.85
666.54	-18.85
666.572	-11.85
666.604	-7.85
666.636	-0.85
666.667	23.15
666.699	2.15
666.731	-13.85
666.763	-18.85
666.794	1.15
666.826	-7.85
666.858	-7.85
666.89	-0.85
666.921	1.15
666.953	22.15
666.985	17.15
667.017	1.15
667.048	9.15
667.08	-7.85
667.112	-6.85
667.143	-12.85
667.175	-3.85
667.207	1.15
667.238	2.15
667.27	-0.85
667.302	-3.85
667.334	-4.85
667.365	9.15
667.397	11.15
667.429	-14.85
667.46	13.15
667.492	1.15
667.524	-5.85
667.555	-4.85
667.587	8.15
667.619	0.15
667.65	2.15
667.682	1.15
667.714	10.15
667.745	-2.85
667.777	-4.85
667.808	0.15
667.84	-9.85
667.872	0.15
667.903	6.15
667.935	-8.85
667.967	13.15
667.998	-1.85
668.03	-9.85
668.061	-6.85
668.093	-6.85
668.125	0.15
668.156	-7.85
668.188	-9.85
668.22	-5.85
668.251	6.15
668.283	-3.85
668.314	5.15
668.346	-5.85
668.377	15.15
668.409	-6.85
668.441	7.15
668.472	-5.85
668.504	11.15
668.535	-7.85
668.567	6.15
668.599	-6.85
668.63	14.15
668.662	4.15
668.693	15.15
668.725	3.15
668.756	-6.85
668.788	-17.85
668.819	-6.85
668.851	-14.85
668.882	-16.85
668.914	-11.85
668.946	-18.85
668.977	-6.85
669.009	5.15
669.04	0.15
669.072	7.15
669.103	1.15
669.135	0.15
669.166	1.15
669.198	0.15
669.229	1.15
669.261	10.15
669.292	-9.85
669.324	0.15
669.355	4.15
669.387	-9.85
669.418	1.15
669.45	-5.85
669.481	-15.85
669.513	0.15
669.544	5.15
669.576	-19.85
669.607	16.15
669.639	7.15
669.67	-7.85
669.701	-6.85
669.733	-14.85
669.764	-14.85
669.796	-2.85
669.827	-8.85
669.859	-1.85
669.89	-8.85
669.922	10.15
669.953	-6.85
669.985	5.15
670.016	9.15
670.047	-10.85
670.079	-3.85
670.11	7.15
670.142	14.15
670.173	-3.85
670.204	2.15
670.236	2.15
670.267	-5.85
670.299	-8.85
670.33	-1.85
670.362	-5.85
670.393	-23.85
670.424	-11.85
670.456	-26.85
670.487	-3.85
670.518	5.15
670.55	-6.85
670.581	-8.85
670.613	14.15
670.644	-0.85
670.675	-21.85
670.707	-11.85
670.738	-2.85
670.769	1.15
670.801	-0.85
670.832	4.15
670.864	-1.85
670.895	5.15
670.926	-0.85
670.958	-15.85
670.989	5.15
671.02	-2.85
671.052	6.15
671.083	-5.85
671.114	-4.85
671.146	20.15
671.177	-0.85
671.208	-16.85
671.24	-16.85
671.271	-15.85
671.302	1.15
671.333	-11.85
671.365	-2.85
671.396	-8.85
671.427	1.15
671.459	-0.85
671.49	7.15
671.521	2.15
671.553	21.15
671.584	5.15
671.615	-8.85
671.646	6.15
671.678	-7.85
671.709	-22.85
671.74	-26.85
671.771	-0.85
671.803	-0.85
671.834	0.15
671.865	-10.85
671.896	0.15
671.928	2.15
671.959	-12.85
671.99	-6.85
672.021	-8.85
672.053	-5.85
672.084	0.15
672.115	7.15
672.146	-10.85
672.178	-21.85
672.209	-8.85
672.24	-2.85
672.271	11.15
672.303	3.15
672.334	-3.85
672.365	-10.85
672.396	-7.85
672.427	4.15
672.459	3.15
672.49	22.15
672.521	15.15
672.552	6.15
672.583	-5.85
672.615	-14.85
672.646	0.15
672.677	6.15
672.708	2.15
672.739	-7.85
672.77	-15.85
672.802	-13.85
672.833	-15.85
672.864	0.15
672.895	-3.85
672.926	-13.85
672.957	-11.85
672.989	-4.85
673.02	18.15
673.051	-13.85
673.082	15.15
673.113	-2.85
673.144	9.15
673.175	-4.85
673.206	-10.85
673.238	-8.85
673.269	-7.85
673.3	-3.85
673.331	13.15
673.362	-0.85
673.393	-8.85
673.424	-0.85
673.455	6.15
673.487	1.15
673.518	9.15
673.549	9.15
673.58	-8.85
673.611	6.15
673.642	2.15
673.673	-27.85
673.704	-14.85
673.735	-4.85
673.766	-15.85
673.797	10.15
673.828	-3.85
673.86	-24.85
673.891	-19.85
673.922	-15.85
673.953	-1.85
673.984	7.15
674.015	7.15
674.046	1.15
674.077	-12.85
674.108	-7.85
674.139	-2.85
674.17	-3.85
674.201	-9.85
674.232	-10.85
674.263	-12.85
674.294	-17.85
674.325	-14.85
674.356	-7.85
674.387	3.15
674.418	-6.85
674.449	-16.85
674.48	-14.85
674.511	11.15
674.542	7.15
674.573	-4.85
674.604	9.15
674.635	6.15
674.666	-1.85
674.697	-2.85
674.728	-2.85
674.759	3.15
674.79	-1.85
674.821	-9.85
674.852	0.15
674.883	10.15
674.914	-12.85
674.945	-5.85
674.976	-7.85
675.007	-8.85
675.038	-3.85
675.069	-23.85
675.1	-3.85
675.131	-5.85
675.162	-14.85
675.193	-7.85
675.224	-2.85
675.254	-4.85
675.285	-11.85
675.316	8.15
675.347	-7.85
675.378	-13.85
675.409	-24.85
675.44	5.15
675.471	-9.85
675.502	-13.85
675.533	-15.85
675.564	6.15
675.595	-6.85
675.625	15.15
675.656	4.15
675.687	-9.85
675.718	-5.85
675.749	5.15
675.78	7.15
675.811	-2.85
675.842	-3.85
675.873	-2.85
675.903	2.15
675.934	-8.85
675.965	-11.85
675.996	-2.85
676.027	2.15
676.058	0.15
676.089	-18.85
676.119	-6.85
676.15	4.15
676.181	-6.85
676.212	-9.85
676.243	3.15
676.274	-17.85
676.304	2.15
676.335	-23.85
676.366	-1.85
676.397	-2.85
676.428	-11.85
676.459	-3.85
676.489	-6.85
676.52	-6.85
676.551	-20.85
676.582	-18.85
676.613	0.15
676.643	3.15
676.674	1.15
676.705	0.15
676.736	5.15
676.767	9.15
676.797	3.15
676.828	-1.85
676.859	-23.85
676.89	-6.85
676.92	7.15
676.951	0.15
676.982	-1.85
677.013	-1.85
677.044	15.15
677.074	-7.85
677.105	-11.85
677.136	16.15
677.167	5.15
677.197	2.15
677.228	3.15
677.259	-14.85
677.289	-21.85
677.32	-26.85
677.351	-26.85
677.382	-8.85
677.412	-23.85
677.443	5.15
677.474	5.15
677.505	-14.85
677.535	-11.85
677.566	-0.85
677.597	-8.85
677.627	-9.85
677.658	-3.85
677.689	1.15
677.72	1.15
677.75	-15.85
677.781	9.15
677.812	3.15
677.842	-0.85
677.873	1.15
677.904	-2.85
677.934	-16.85
677.965	2.15
677.996	-13.85
678.026	-2.85
678.057	-5.85
678.088	-21.85
678.118	3.15
678.149	-10.85
678.18	-10.85
678.21	-5.85
678.241	4.15
678.272	4.15
678.302	-2.85
678.333	-2.85
678.363	-8.85
678.394	10.15
678.425	-0.85
678.455	2.15
678.486	-3.85
678.517	-15.85
678.547	-5.85
678.578	-5.85
678.608	-16.85
678.639	5.15
678.67	-9.85
678.7	-20.85
678.731	-10.85
678.761	7.15
678.792	-2.85
678.823	4.15
678.853	-4.85
678.884	-12.85
678.914	0.15
678.945	-3.85
678.975	-10.85
679.006	10.15
679.037	2.15
679.067	11.15
679.098	-18.85
679.128	-6.85
679.159	12.15
679.189	-3.85
679.22	1.15
679.25	14.15
679.281	-6.85
679.312	-11.85
679.342	-5.85
679.373	3.15
679.403	3.15
679.434	4.15
679.464	5.15
679.495	2.15
679.525	-4.85
679.556	-5.85
679.586	22.15
679.617	10.15
679.647	-0.85
679.678	-13.85
679.708	12.15
679.739	-3.85
679.769	-4.85
679.8	-8.85
679.83	-4.85
679.861	0.15
679.891	-14.85
679.922	-24.85
679.952	-11.85
679.983	-1.85
680.013	4.15
680.044	4.15
680.074	1.15
680.105	1.15
680.135	-10.85
680.165	-4.85
680.196	5.15
680.226	5.15
680.257	2.15
680.287	3.15
680.318	-13.85
680.348	-3.85
680.379	12.15
680.409	10.15
680.439	-5.85
680.47	-7.85
680.5	-1.85
680.531	6.15
680.561	8.15
680.592	-0.85
680.622	4.15
680.652	-15.85
680.683	10.15
680.713	2.15
680.744	-0.85
680.774	-23.85
680.804	5.15
680.835	-14.85
680.865	-7.85
680.896	1.15
680.926	2.15
680.956	2.15
680.987	-2.85
681.017	1.15
681.047	0.15
681.078	-20.85
681.108	-10.85
681.139	-1.85
681.169	6.15
681.199	-9.85
681.23	-13.85
681.26	7.15
681.29	1.15
681.321	-3.85
681.351	-6.85
681.381	-16.85
681.412	-14.85
681.442	-18.85
681.472	-1.85
681.503	3.15
681.533	-0.85
681.563	-9.85
681.594	-11.85
681.624	-1.85
681.654	-9.85
681.685	-8.85
681.715	-15.85
681.745	-8.85
681.775	-19.85
681.806	-8.85
681.836	-6.85
681.866	-3.85
681.897	3.15
681.927	16.15
681.957	-4.85
681.987	17.15
682.018	5.15
682.048	4.15
682.078	3.15
682.109	-4.85
682.139	-2.85
682.169	-8.85
682.199	-7.85
682.23	1.15
682.26	-2.85
682.29	-13.85
682.32	-4.85
682.351	-6.85
682.381	7.15
682.411	0.15
682.441	-14.85
682.472	-25.85
682.502	-3.85
682.532	2.15
682.562	-13.85
682.592	1.15
682.623	9.15
682.653	0.15
682.683	-1.85
682.713	7.15
682.743	-0.85
682.774	-9.85
682.804	1.15
682.834	6.15
682.864	-16.85
682.894	-4.85
682.925	7.15
682.955	-6.85
682.985	-18.85
683.015	0.15
683.045	6.15
683.076	0.15
683.106	0.15
683.136	-6.85
683.166	-5.85
683.196	-18.85
683.226	-10.85
683.257	9.15
683.287	-2.85
683.317	-8.85
683.347	-9.85
683.377	2.15
683.407	-10.85
683.437	12.15
683.468	17.15
683.498	-23.85
683.528	-5.85
683.558	6.15
683.588	2.15
683.618	-12.85
683.648	-7.85
683.678	-5.85
683.708	4.15
683.739	13.15
683.769	3.15
683.799	-12.85
683.829	-0.85
683.859	-12.85
683.889	9.15
683.919	1.15
683.949	-6.85
683.979	-14.85
684.009	0.15
684.039	0.15
684.07	-5.85
684.1	0.15
684.13	1.15
684.16	7.15
684.19	2.15
684.22	12.15
684.25	-3.85
684.28	-13.85
684.31	6.15
684.34	3.15
684.37	4.15
684.4	-5.85
684.43	-6.85
684.46	-5.85
684.49	-4.85
684.52	2.15
684.55	1.15
684.58	1.15
684.61	-4.85
684.64	2.15
684.67	-4.85
684.7	-4.85
684.73	7.15
684.76	-5.85
684.79	13.15
684.82	1.15
684.85	3.15
684.88	8.15
684.91	5.15
684.94	-5.85
684.97	-19.85
685	-2.85
685.03	-24.85
685.06	-11.85
685.09	-2.85
685.12	18.15
685.15	-1.85
685.18	10.15
685.21	4.15
685.24	7.15
685.27	16.15
685.3	-1.85
685.33	-1.85
685.36	-6.85
685.39	0.15
685.42	0.15
685.45	-3.85
685.48	-14.85
685.51	2.15
685.54	14.15
685.569	14.15
685.599	10.15
685.629	10.15
685.659	-7.85
685.689	-17.85
685.719	-5.85
685.749	1.15
685.779	-2.85
685.809	-4.85
685.839	2.15
685.869	-7.85
685.898	17.15
685.928	4.15
685.958	9.15
685.988	18.15
686.018	-4.85
686.048	4.15
686.078	3.15
686.108	25.15
686.137	7.15
686.167	20.15
686.197	-17.85
686.227	-4.85
686.257	24.15
686.287	8.15
686.317	1.15
686.346	-7.85
686.376	-18.85
686.406	-10.85
686.436	-2.85
686.466	4.15
686.496	9.15
686.525	-1.85
686.555	-4.85
686.585	18.15
686.615	18.15
686.645	15.15
686.675	4.15
686.704	-0.85
686.734	-10.85
686.764	-5.85
686.794	2.15
686.824	2.15
686.853	22.15
686.883	9.15
686.913	23.15
686.943	27.15
686.973	-25.85
687.002	-16.85
687.032	-0.85
687.062	-10.85
687.092	13.15
687.121	-9.85
687.151	-6.85
687.181	-9.85
687.211	10.15
687.24	-7.85
687.27	-6.85
687.3	-2.85
687.33	10.15
687.359	-26.85
687.389	-11.85
687.419	-2.85
687.449	-7.85
687.478	3.15
687.508	2.15
687.538	-10.85
687.568	-7.85
687.597	-11.85
687.627	0.15
687.657	0.15
687.686	9.15
687.716	10.15
687.746	-7.85
687.776	-2.85
687.805	5.15
687.835	-5.85
687.865	17.15
687.894	14.15
687.924	-8.85
687.954	-10.85
687.983	0.15
688.013	12.15
688.043	16.15
688.072	-5.85
688.102	5.15
688.132	2.15
688.161	-3.85
688.191	-8.85
688.221	5.15
688.25	6.15
688.28	5.15
688.31	-12.85
688.339	7.15
688.369	-11.85
688.399	-15.85
688.428	-21.85
688.458	2.15
688.488	-16.85
688.517	6.15
688.547	7.15
688.576	29.15
688.606	6.15
688.636	-3.85
688.665	0.15
688.695	-5.85
688.725	-7.85
688.754	5.15
688.784	-11.85
688.813	10.15
688.843	-1.85
688.873	-7.85
688.902	-20.85
688.932	-4.85
688.961	-10.85
688.991	6.15
689.02	3.15
689.05	-15.85
689.08	-0.85
689.109	8.15
689.139	-13.85
689.168	5.15
689.198	1.15
689.227	-1.85
689.257	-1.85
689.287	9.15
689.316	-3.85
689.346	-15.85
689.375	-6.85
689.405	7.15
689.434	-12.85
689.464	9.15
689.493	-2.85
689.523	7.15
689.552	-3.85
689.582	-3.85
689.611	-10.85
689.641	5.15
689.67	-11.85
689.7	2.15
689.73	-1.85
689.759	1.15
689.789	3.15
689.818	-3.85
689.848	2.15
689.877	22.15
689.906	1.15
689.936	-15.85
689.965	-4.85
689.995	13.15
690.024	-8.85
690.054	3.15
690.083	4.15
690.113	-20.85
690.142	-5.85
690.172	1.15
690.201	16.15
690.231	8.15
690.26	16.15
690.29	4.15
690.319	14.15
690.348	-4.85
690.378	-6.85
690.407	-2.85
690.437	0.15
690.466	-6.85
690.496	-1.85
690.525	7.15
690.555	-5.85
690.584	-0.85
690.613	-12.85
690.643	1.15
690.672	9.15
690.702	4.15
690.731	7.15
690.76	1.15
690.79	-11.85
690.819	-3.85
690.849	-3.85
690.878	0.15
690.907	-2.85
690.937	0.15
690.966	22.15
690.996	20.15
691.025	1.15
691.054	-11.85
691.084	-6.85
691.113	-12.85
691.142	1.15
691.172	-1.85
691.201	8.15
691.23	6.15
691.26	14.15
691.289	-5.85
691.319	-2.85
691.348	1.15
691.377	2.15
691.407	15.15
691.436	3.15
691.465	-11.85
691.495	5.15
691.524	-7.85
691.553	-3.85
691.583	-3.85
691.612	20.15
691.641	10.15
691.67	-2.85
691.7	1.15
691.729	-26.85
691.758	3.15
691.788	1.15
691.817	-1.85
691.846	-17.85
691.876	13.15
691.905	9.15
691.934	1.15
691.963	16.15
691.993	17.15
692.022	-7.85
692.051	-22.85
692.081	6.15
692.11	11.15
692.139	-6.85
692.168	11.15
692.198	24.15
692.227	5.15
692.256	-7.85
692.285	2.15
692.315	-17.85
692.344	-8.85
692.373	-3.85
692.402	-19.85
692.432	-7.85
692.461	0.15
692.49	-11.85
692.519	12.15
692.548	2.15
692.578	9.15
692.607	-11.85
692.636	-9.85
692.665	4.15
692.694	-14.85
692.724	11.15
692.753	2.15
692.782	13.15
692.811	1.15
692.84	7.15
692.87	16.15
692.899	1.15
692.928	0.15
692.957	-2.85
692.986	12.15
693.016	-8.85
693.045	2.15
693.074	1.15
693.103	-7.85
693.132	0.15
693.161	3.15
693.191	-6.85
693.22	-13.85
693.249	-2.85
693.278	-0.85
693.307	5.15
693.336	5.15
693.365	-9.85
693.395	-7.85
693.424	-14.85
693.453	2.15
693.482	-2.85
693.511	3.15
693.54	7.15
693.569	-13.85
693.598	2.15
693.628	4.15
693.657	15.15
693.686	9.15
693.715	8.15
693.744	12.15
693.773	16.15
693.802	7.15
693.831	4.15
693.86	25.15
693.889	-9.85
693.919	5.15
693.948	4.15
693.977	3.15
694.006	7.15
694.035	-1.85
694.064	-29.85
694.093	1.15
694.122	-23.85
694.151	1.15
694.18	0.15
694.209	35.15
694.238	7.15
694.267	12.15
694.296	13.15
694.325	5.15
694.354	6.15
694.383	26.15
694.412	3.15
694.441	9.15
694.471	2.15
694.5	-5.85
694.529	6.15
694.558	23.15
694.587	13.15
694.616	8.15
694.645	-2.85
694.674	4.15
694.703	2.15
694.732	-0.85
694.761	11.15
694.79	18.15
694.819	-20.85
694.848	-9.85
694.877	2.15
694.906	-2.85
694.935	-5.85
694.963	25.15
694.992	-8.85
695.021	3.15
695.05	11.15
695.079	1.15
695.108	0.15
695.137	11.15
695.166	2.15
695.195	-17.85
695.224	3.15
695.253	2.15
695.282	-1.85
695.311	9.15
695.34	-2.85
695.369	0.15
695.398	1.15
695.427	8.15
695.456	-0.85
695.485	-2.85
695.513	-1.85
695.542	7.15
695.571	10.15
695.6	17.15
695.629	19.15
695.658	4.15
695.687	-2.85
695.716	0.15
695.745	20.15
695.774	2.15
695.802	-2.85
695.831	0.15
695.86	6.15
695.889	16.15
695.918	7.15
695.947	-1.85
695.976	-0.85
696.005	8.15
696.033	3.15
696.062	11.15
696.091	4.15
696.12	-9.85
696.149	-4.85
696.178	3.15
696.207	1.15
696.235	-13.85
696.264	-1.85
696.293	0.15
696.322	1.15
696.351	6.15
696.38	7.15
696.408	0.15
696.437	-8.85
696.466	-4.85
696.495	16.15
696.524	12.15
696.553	3.15
696.581	3.15
696.61	-9.85
696.639	-0.85
696.668	17.15
696.697	-8.85
696.725	7.15
696.754	-2.85
696.783	3.15
696.812	-10.85
696.84	8.15
696.869	-6.85
696.898	-2.85
696.927	8.15
696.956	30.15
696.984	-16.85
697.013	0.15
697.042	5.15
697.071	9.15
697.099	-0.85
697.128	13.15
697.157	-1.85
697.186	-1.85
697.214	-5.85
697.243	-7.85
697.272	-0.85
697.301	6.15
697.329	9.15
697.358	12.15
697.387	9.15
697.415	20.15
697.444	6.15
697.473	1.15
697.502	-9.85
697.53	-4.85
697.559	-9.85
697.588	-19.85
697.616	-13.85
697.645	-2.85
697.674	11.15
697.703	1.15
697.731	22.15
697.76	10.15
697.789	1.15
697.817	13.15
697.846	19.15
697.875	12.15
697.903	23.15
697.932	3.15
697.961	-7.85
697.989	17.15
698.018	11.15
698.047	6.15
698.075	12.15
698.104	-10.85
698.133	-25.85
698.161	-5.85
698.19	0.15
698.218	-7.85
698.247	-6.85
698.276	-13.85
698.304	1.15
698.333	-2.85
698.362	5.15
698.39	0.15
698.419	9.15
698.447	-8.85
698.476	-5.85
698.505	-1.85
698.533	0.15
698.562	-1.85
698.591	-11.85
698.619	-7.85
698.648	-2.85
698.676	-2.85
698.705	-3.85
698.733	1.15
698.762	7.15
698.791	8.15
698.819	-3.85
698.848	-5.85
698.876	15.15
698.905	-16.85
698.933	-14.85
698.962	-3.85
698.991	0.15
699.019	10.15
699.048	-12.85
699.076	2.15
699.105	-10.85
699.133	-9.85
699.162	1.15
699.19	3.15
699.219	14.15
699.248	-13.85
699.276	-7.85
699.305	-15.85
699.333	-3.85
699.362	-21.85
699.39	15.15
699.419	-1.85
699.447	7.15
699.476	9.15
699.504	3.15
699.533	-3.85
699.561	-21.85
699.59	-2.85
699.618	6.15
699.647	8.15
699.675	-6.85
699.704	6.15
699.732	-0.85
699.761	14.15
699.789	-4.85
699.818	9.15
699.846	9.15
699.874	-12.85
699.903	-0.85
699.931	-2.85
699.96	6.15
699.988	10.15
700.017	-2.85
700.045	-6.85
700.074	-10.85
700.102	-15.85
700.13	-6.85
700.159	9.15
700.187	19.15
700.216	5.15
700.244	10.15
700.273	-2.85
700.301	4.15
700.329	6.15
700.358	18.15
700.386	-8.85
700.415	-11.85
700.443	-0.85
700.472	-10.85
700.5	1.15
700.528	2.15
700.557	8.15
700.585	16.15
700.614	1.15
700.642	13.15
700.67	21.15
700.699	5.15
700.727	14.15
700.755	8.15
700.784	-2.85
700.812	-9.85
700.841	-6.85
700.869	-4.85
700.897	-3.85
700.926	9.15
700.954	2.15
700.982	0.15
701.011	-0.85
701.039	10.15
701.067	1.15
701.096	-0.85
701.124	-2.85
701.152	2.15
701.181	-8.85
701.209	-6.85
701.237	-4.85
701.266	-3.85
701.294	-10.85
701.322	14.15
701.351	3.15
701.379	-7.85
701.407	0.15
701.435	3.15
701.464	12.15
701.492	15.15
701.52	-1.85
701.549	4.15
701.577	6.15
701.605	-0.85
701.634	19.15
701.662	15.15
701.69	-25.85
701.718	-14.85
701.747	-1.85
701.775	-6.85
701.803	-6.85
701.831	6.15
701.86	-11.85
701.888	1.15
701.916	-4.85
701.944	-6.85
701.973	-14.85
702.001	-18.85
702.029	-25.85
702.057	-0.85
702.086	-3.85
702.114	-10.85
702.142	3.15
702.17	-17.85
702.199	1.15
702.227	12.15
702.255	-10.85
702.283	-14.85
702.311	14.15
702.34	7.15
702.368	-8.85
702.396	-0.85
702.424	-2.85
702.452	-8.85
702.481	-3.85
702.509	-14.85
702.537	10.15
702.565	9.15
702.593	-2.85
702.621	3.15
702.65	-2.85
702.678	2.15
702.706	14.15
702.734	-0.85
702.762	-7.85
702.79	-0.85
702.819	-2.85
702.847	-6.85
702.875	9.15
702.903	22.15
702.931	-0.85
702.959	-4.85
702.988	6.15
703.016	-16.85
703.044	-16.85
703.072	-10.85
703.1	-13.85
703.128	4.15
703.156	-3.85
703.184	-9.85
703.212	8.15
703.241	-6.85
703.269	-8.85
703.297	17.15
703.325	-2.85
703.353	-3.85
703.381	-9.85
703.409	5.15
703.437	-17.85
703.465	7.15
703.493	-9.85
703.522	-1.85
703.55	8.15
703.578	2.15
703.606	-14.85
703.634	-7.85
703.662	-27.85
703.69	-15.85
703.718	7.15
703.746	10.15
703.774	11.15
703.802	25.15
703.83	-11.85
703.858	-3.85
703.886	-10.85
703.914	-17.85
703.942	2.15
703.97	-14.85
703.998	4.15
704.027	-0.85
704.055	11.15
704.083	6.15
704.111	-19.85
704.139	-4.85
704.167	0.15
704.195	-4.85
704.223	-2.85
704.251	-2.85
704.279	-3.85
704.307	-1.85
704.335	-9.85
704.363	0.15
704.391	-9.85
704.419	-4.85
704.447	-16.85
704.475	-6.85
704.503	1.15
704.531	4.15
704.558	-14.85
704.586	5.15
704.614	-15.85
704.642	-7.85
704.67	0.15
704.698	0.15
704.726	2.15
704.754	-4.85
704.782	-8.85
704.81	-1.85
704.838	23.15
704.866	16.15
704.894	-5.85
704.922	3.15
704.95	-1.85
704.978	5.15
705.006	5.15
705.034	0.15
705.061	-26.85
705.089	0.15
705.117	-18.85
705.145	-10.85
705.173	-15.85
705.201	-9.85
705.229	9.15
705.257	7.15
705.285	-0.85
705.313	-2.85
705.34	6.15
705.368	-3.85
705.396	12.15
705.424	0.15
705.452	3.15
705.48	10.15
705.508	-8.85
705.536	-1.85
705.563	-8.85
705.591	1.15
705.619	-4.85
705.647	-11.85
705.675	4.15
705.703	14.15
705.731	1.15
705.758	5.15
705.786	-3.85
705.814	24.15
705.842	-13.85
705.87	8.15
705.898	5.15
705.925	-10.85
705.953	11.15
705.981	3.15
706.009	1.15
706.037	8.15
706.065	-0.85
706.092	-4.85
706.12	-9.85
706.148	8.15
706.176	-6.85
706.204	11.15
706.231	-2.85
706.259	-6.85
706.287	-6.85
706.315	2.15
706.342	-17.85
706.37	16.15
706.398	-1.85
706.426	-5.85
706.454	-2.85
706.481	-0.85
706.509	10.15
706.537	-2.85
706.565	-9.85
706.592	24.15
706.62	12.15
706.648	1.15
706.676	-0.85
706.703	-0.85
706.731	-4.85
706.759	-23.85
706.787	-4.85
706.814	6.15
706.842	-10.85
706.87	-8.85
706.897	-0.85
706.925	-8.85
706.953	13.15
706.981	21.15
707.008	6.15
707.036	10.15
707.064	3.15
707.091	-13.85
707.119	15.15
707.147	-11.85
707.174	-22.85
707.202	5.15
707.23	-13.85
707.258	-3.85
707.285	-0.85
707.313	8.15
707.341	-1.85
707.368	-3.85
707.396	-3.85
707.424	-6.85
707.451	8.15
707.479	-0.85
707.507	-8.85
707.534	-15.85
707.562	-14.85
707.59	-6.85
707.617	-7.85
707.645	-3.85
707.672	4.15
707.7	2.15
707.728	18.15
707.755	9.15
707.783	-12.85
707.811	0.15
707.838	-9.85
707.866	0.15
707.893	-1.85
707.921	-0.85
707.949	-15.85
707.976	-12.85
708.004	-3.85
708.031	-4.85
708.059	-3.85
708.087	-6.85
708.114	-8.85
708.142	-20.85
708.169	2.15
708.197	-10.85
708.225	-15.85
708.252	-10.85
708.28	6.15
708.307	-2.85
708.335	-9.85
708.362	-6.85
708.39	1.15
708.418	-5.85
708.445	-2.85
708.473	-3.85
708.5	6.15
708.528	-6.85
708.555	-9.85
708.583	-3.85
708.61	-6.85
708.638	-2.85
708.665	-7.85
708.693	1.15
708.72	-25.85
708.748	-0.85
708.776	-2.85
708.803	11.15
708.831	23.15
708.858	24.15
708.886	14.15
708.913	8.15
708.941	-9.85
708.968	-2.85
708.996	-7.85
709.023	41.15
709.051	-3.85
709.078	-4.85
709.105	1.15
709.133	3.15
709.16	-1.85
709.188	-1.85
709.215	-3.85
709.243	1.15
709.27	-13.85
709.298	-17.85
709.325	-11.85
709.353	-9.85
709.38	-13.85
709.408	-8.85
709.435	-1.85
709.462	8.15
709.49	1.15
709.517	2.15
709.545	1.15
709.572	-2.85
709.6	-25.85
709.627	2.15
709.655	-5.85
709.682	-15.85
709.709	13.15
709.737	-0.85
709.764	-20.85
709.792	-2.85
709.819	4.15
709.846	-0.85
709.874	2.15
709.901	18.15
709.929	25.15
709.956	14.15
709.983	6.15
710.011	4.15
710.038	-9.85
710.066	19.15
710.093	5.15
710.12	0.15
710.148	-6.85
710.175	-23.85
710.202	-5.85
710.23	1.15
710.257	-2.85
710.284	2.15
710.312	-5.85
710.339	0.15
710.366	4.15
710.394	-5.85
710.421	-1.85
710.448	2.15
710.476	-22.85
710.503	0.15
710.53	4.15
710.558	4.15
710.585	5.15
710.612	1.15
710.64	2.15
710.667	-11.85
710.694	5.15
710.722	-10.85
710.749	-9.85
710.776	-4.85
710.804	6.15
710.831	-0.85
710.858	2.15
710.885	4.15
710.913	15.15
710.94	4.15
710.967	-3.85
710.995	-3.85
711.022	4.15
711.049	-5.85
711.076	-3.85
711.104	-12.85
711.131	-23.85
711.158	-6.85
711.185	11.15
711.213	-15.85
711.24	-5.85
711.267	1.15
711.294	-9.85
711.322	3.15
711.349	0.15
711.376	7.15
711.403	0.15
711.431	-6.85
711.458	-17.85
711.485	-19.85
711.512	-9.85
711.54	-7.85
711.567	9.15
711.594	-7.85
711.621	8.15
711.648	-1.85
711.676	0.15
711.703	-7.85
711.73	-13.85
711.757	3.15
711.784	-9.85
711.812	-8.85
711.839	-2.85
711.866	-14.85
711.893	-5.85
711.92	-2.85
711.947	-2.85
711.975	10.15
712.002	-5.85
712.029	14.15
712.056	10.15
712.083	22.15
712.11	-21.85
712.138	1.15
712.165	-0.85
712.192	8.15
712.219	-2.85
712.246	-4.85
712.273	-11.85
712.3	-7.85
712.328	7.15
712.355	-3.85
712.382	-13.85
712.409	17.15
712.436	0.15
712.463	7.15
712.49	6.15
712.517	-4.85
712.544	-7.85
712.572	6.15
712.599	0.15
712.626	3.15
712.653	-9.85
712.68	-6.85
712.707	0.15
712.734	4.15
712.761	8.15
712.788	21.15
712.815	-1.85
712.842	14.15
712.87	-1.85
712.897	-26.85
712.924	-26.85
712.951	14.15
712.978	10.15
713.005	22.15
713.032	1.15
713.059	0.15
713.086	-6.85
713.113	-11.85
713.14	-0.85
713.167	7.15
713.194	-7.85
713.221	-7.85
713.248	6.15
713.275	2.15
713.302	-5.85
713.329	5.15
713.356	-0.85
713.383	-3.85
713.41	10.15
713.437	-12.85
713.464	8.15
713.491	9.15
713.518	12.15
713.545	4.15
713.572	0.15
713.599	-3.85
713.626	2.15
713.653	4.15
713.68	-12.85
713.707	5.15
713.734	2.15
713.761	5.15
713.788	4.15
713.815	14.15
713.842	4.15
713.869	-6.85
713.896	8.15
713.923	-6.85
713.95	4.15
713.977	-11.85
714.004	-2.85
714.031	-25.85
714.058	-3.85
714.085	0.15
714.112	8.15
714.139	11.15
714.165	-2.85
714.192	2.15
714.219	-2.85
714.246	1.15
714.273	5.15
714.3	-2.85
714.327	13.15
714.354	-10.85
714.381	-7.85
714.408	-7.85
714.435	-2.85
714.461	1.15
714.488	-10.85
714.515	-6.85
714.542	2.15
714.569	2.15
714.596	-5.85
714.623	-3.85
714.65	-18.85
714.677	3.15
714.703	-4.85
714.73	-0.85
714.757	-2.85
714.784	0.15
714.811	-8.85
714.838	-0.85
714.865	-11.85
714.891	2.15
714.918	-2.85
714.945	-6.85
714.972	4.15
714.999	22.15
715.026	-0.85
715.052	15.15
715.079	5.15
715.106	8.15
715.133	4.15
715.16	-7.85
715.187	2.15
715.213	5.15
715.24	1.15
715.267	8.15
715.294	-2.85
715.321	2.15
715.347	-10.85
715.374	-11.85
715.401	-0.85
715.428	-8.85
715.455	0.15
715.481	-11.85
715.508	2.15
715.535	-6.85
715.562	0.15
715.588	-13.85
715.615	-7.85
715.642	1.15
715.669	7.15
715.695	-2.85
715.722	-1.85
715.749	-1.85
715.776	7.15
715.802	6.15
715.829	4.15
715.856	-22.85
715.883	13.15
715.909	-12.85
715.936	-12.85
715.963	4.15
715.99	-20.85
716.016	-5.85
716.043	0.15
716.07	6.15
716.096	-16.85
716.123	-8.85
716.15	-1.85
716.177	-1.85
716.203	-5.85
716.23	3.15
716.257	7.15
716.283	9.15
716.31	0.15
716.337	-10.85
716.363	-21.85
716.39	4.15
716.417	6.15
716.443	1.15
716.47	8.15
716.497	2.15
716.523	7.15
716.55	-3.85
716.577	12.15
716.603	7.15
716.63	12.15
716.657	6.15
716.683	-13.85
716.71	-19.85
716.737	-12.85
716.763	-7.85
716.79	-7.85
716.817	8.15
716.843	-9.85
716.87	-2.85
716.897	0.15
716.923	5.15
716.95	-9.85
716.976	-15.85
717.003	4.15
717.03	10.15
717.056	5.15
717.083	-9.85
717.109	7.15
717.136	3.15
717.163	4.15
717.189	-3.85
717.216	12.15
717.242	-5.85
717.269	-5.85
717.296	-7.85
717.322	-1.85
717.349	9.15
717.375	9.15
717.402	-9.85
717.428	5.15
717.455	10.15
717.481	1.15
717.508	9.15
717.535	16.15
717.561	10.15
717.588	-8.85
717.614	-4.85
717.641	-8.85
717.667	-2.85
717.694	11.15
717.72	5.15
717.747	-0.85
717.773	-13.85
717.8	-3.85
717.826	3.15
717.853	-5.85
717.88	9.15
717.906	2.15
717.933	11.15
717.959	16.15
717.986	11.15
718.012	1.15
718.039	4.15
718.065	15.15
718.092	6.15
718.118	-9.85
718.144	-11.85
718.171	4.15
718.197	9.15
718.224	-5.85
718.25	-3.85
718.277	0.15
718.303	-2.85
718.33	0.15
718.356	0.15
718.383	3.15
718.409	-1.85
718.436	-1.85
718.462	-5.85
718.489	-9.85
718.515	8.15
718.541	8.15
718.568	-7.85
718.594	-8.85
718.621	-7.85
718.647	3.15
718.674	10.15
718.7	-8.85
718.726	2.15
718.753	-5.85
718.779	2.15
718.806	-9.85
718.832	11.15
718.858	2.15
718.885	2.15
718.911	0.15
718.938	3.15
718.964	-16.85
718.99	1.15
719.017	-16.85
719.043	3.15
719.07	9.15
719.096	-8.85
719.122	9.15
719.149	-6.85
719.175	9.15
719.201	-12.85
719.228	-3.85
719.254	2.15
719.281	-3.85
719.307	0.15
719.333	-3.85
719.36	10.15
719.386	-0.85
719.412	1.15
719.439	-6.85
719.465	1.15
719.491	-11.85
719.518	3.15
719.544	8.15
719.57	10.15
719.597	5.15
719.623	-6.85
719.649	11.15
719.675	17.15
719.702	-2.85
719.728	-2.85
719.754	-19.85
719.781	-11.85
719.807	-12.85
719.833	-2.85
719.86	-7.85
719.886	-4.85
719.912	-18.85
719.938	-11.85
719.965	0.15
719.991	8.15
720.017	-4.85
720.044	-8.85
720.07	3.15
720.096	10.15
720.122	-6.85
720.149	5.15
720.175	14.15
720.201	-13.85
720.227	7.15
720.254	1.15
720.28	-4.85
720.306	-1.85
720.332	-3.85
720.359	1.15
720.385	-1.85
720.411	15.15
720.437	3.15
720.463	-6.85
720.49	19.15
720.516	-9.85
720.542	-16.85
720.568	-9.85
720.595	11.15
720.621	-5.85
720.647	-1.85
720.673	6.15
720.699	-5.85
720.725	5.15
720.752	0.15
720.778	9.15
720.804	7.15
720.83	15.15
720.856	-10.85
720.883	5.15
720.909	1.15
720.935	-1.85
720.961	13.15
720.987	-3.85
721.013	-6.85
721.04	-6.85
721.066	-4.85
721.092	-3.85
721.118	10.15
721.144	-10.85
721.17	5.15
721.196	6.15
721.223	-2.85
721.249	-5.85
721.275	0.15
721.301	-7.85
721.327	-2.85
721.353	11.15
721.379	-0.85
721.405	1.15
721.432	3.15
721.458	-21.85
721.484	0.15
721.51	-18.85
721.536	-13.85
721.562	5.15
721.588	3.15
721.614	-5.85
721.64	1.15
721.666	8.15
721.693	-9.85
721.719	-3.85
721.745	-1.85
721.771	-10.85
721.797	-5.85
721.823	8.15
721.849	14.15
721.875	10.15
721.901	0.15
721.927	-4.85
721.953	1.15
721.979	12.15
722.005	2.15
722.031	-10.85
722.057	-2.85
722.083	0.15
722.109	13.15
722.135	8.15
722.161	5.15
722.187	-8.85
722.214	-1.85
722.24	-16.85
722.266	1.15
722.292	13.15
722.318	18.15
722.344	5.15
722.37	-0.85
722.396	-5.85
722.422	-9.85
722.448	-2.85
722.474	-5.85
722.5	20.15
722.526	14.15
722.552	-3.85
722.578	-3.85
722.603	16.15
722.629	-2.85
722.655	7.15
722.681	-8.85
722.707	4.15
722.733	-11.85
722.759	-0.85
722.785	5.15
722.811	-15.85
722.837	1.15
722.863	18.15
722.889	13.15
722.915	3.15
722.941	-15.85
722.967	5.15
722.993	-4.85
723.019	13.15
723.045	4.15
723.071	5.15
723.097	-6.85
723.122	7.15
723.148	-13.85
723.174	-4.85
723.2	-3.85
723.226	3.15
723.252	5.15
723.278	-5.85
723.304	5.15
723.33	16.15
723.356	-3.85
723.381	-9.85
723.407	-18.85
723.433	7.15
723.459	-3.85
723.485	-8.85
723.511	5.15
723.537	-19.85
723.563	0.15
723.588	-2.85
723.614	15.15
723.64	-6.85
723.666	2.15
723.692	-3.85
723.718	1.15
723.744	2.15
723.769	-6.85
723.795	-9.85
723.821	5.15
723.847	-3.85
723.873	0.15
723.899	3.15
723.924	15.15
723.95	0.15
723.976	-4.85
724.002	4.15
724.028	4.15
724.053	-7.85
724.079	1.15
724.105	4.15
724.131	-7.85
724.157	-5.85
724.182	-4.85
724.208	-10.85
724.234	-2.85
724.26	4.15
724.286	5.15
724.311	-7.85
724.337	-3.85
724.363	0.15
724.389	9.15
724.415	7.15
724.44	8.15
724.466	2.15
724.492	-14.85
724.518	4.15
724.543	-2.85
724.569	4.15
724.595	14.15
724.621	8.15
724.646	8.15
724.672	-4.85
724.698	-7.85
724.723	-14.85
724.749	-3.85
724.775	2.15
724.801	6.15
724.826	1.15
724.852	4.15
724.878	-15.85
724.904	-24.85
724.929	1.15
724.955	-8.85
724.981	-5.85
725.006	-11.85
725.032	1.15
725.058	-0.85
725.083	0.15
725.109	6.15
725.135	-6.85
725.161	10.15
725.186	-2.85
725.212	-5.85
725.238	-5.85
725.263	6.15
725.289	-20.85
725.315	-12.85
725.34	-10.85
725.366	-1.85
725.392	2.15
725.417	2.15
725.443	-14.85
725.468	6.15
725.494	1.15
725.52	16.15
725.545	-7.85
725.571	-3.85
725.597	5.15
725.622	5.15
725.648	-1.85
725.674	14.15
725.699	3.15
725.725	-11.85
725.75	20.15
725.776	-11.85
725.802	0.15
725.827	0.15
725.853	-3.85
725.878	-5.85
725.904	-15.85
725.93	-9.85
725.955	-12.85
725.981	-10.85
726.006	-9.85
726.032	19.15
726.057	3.15
726.083	-6.85
726.109	13.15
726.134	-3.85
726.16	-9.85
726.185	-18.85
726.211	-16.85
726.236	-5.85
726.262	-1.85
726.288	-10.85
726.313	5.15
726.339	1.15
726.364	-7.85
726.39	7.15
726.415	-2.85
726.441	-8.85
726.466	-3.85
726.492	-2.85
726.517	-5.85
726.543	-3.85
726.568	-18.85
726.594	1.15
726.619	2.15
726.645	-9.85
726.67	-6.85
726.696	18.15
726.721	-24.85
726.747	-21.85
726.772	-3.85
726.798	-7.85
726.823	-1.85
726.849	-0.85
726.874	6.15
726.9	12.15
726.925	6.15
726.951	7.15
726.976	14.15
727.002	0.15
727.027	5.15
727.053	21.15
727.078	-13.85
727.104	3.15
727.129	-10.85
727.155	-2.85
727.18	-9.85
727.205	-10.85
727.231	-9.85
727.256	-8.85
727.282	16.15
727.307	23.15
727.333	-3.85
727.358	-11.85
727.383	-4.85
727.409	-31.85
727.434	5.15
727.46	2.15
727.485	-11.85
727.511	1.15
727.536	-6.85
727.561	-2.85
727.587	-6.85
727.612	-11.85
727.637	2.15
727.663	-7.85
727.688	9.15
727.714	-7.85
727.739	-3.85
727.764	-1.85
727.79	1.15
727.815	3.15
727.841	5.15
727.866	16.15
727.891	11.15
727.917	4.15
727.942	4.15
727.967	-6.85
727.993	-21.85
728.018	-3.85
728.043	8.15
728.069	-8.85
728.094	8.15
728.119	-5.85
728.145	20.15
728.17	-1.85
728.195	6.15
728.221	16.15
728.246	0.15
728.271	-5.85
728.297	-2.85
728.322	-13.85
728.347	9.15
728.373	-6.85
728.398	8.15
728.423	2.15
728.448	-1.85
728.474	-7.85
728.499	-1.85
728.524	-3.85
728.55	-0.85
728.575	-9.85
728.6	8.15
728.625	6.15
728.651	4.15
728.676	-10.85
728.701	-13.85
728.727	-1.85
728.752	-13.85
728.777	8.15
728.802	-7.85
728.828	-6.85
728.853	-20.85
728.878	-2.85
728.903	-11.85
728.929	-13.85
728.954	-7.85
728.979	7.15
729.004	-14.85
729.03	1.15
729.055	5.15
729.08	-10.85
729.105	-1.85
729.13	4.15
729.156	4.15
729.181	4.15
729.206	-27.85
729.231	-6.85
729.256	15.15
729.282	5.15
729.307	-18.85
729.332	-1.85
729.357	-6.85
729.382	-14.85
729.408	-6.85
729.433	-10.85
729.458	-11.85
729.483	3.15
729.508	17.15
729.533	5.15
729.559	0.15
729.584	4.15
729.609	-6.85
729.634	1.15
729.659	-6.85
729.684	-6.85
729.71	17.15
729.735	0.15
729.76	-3.85
729.785	1.15
729.81	2.15
729.835	-9.85
729.86	-4.85
729.886	6.15
729.911	-3.85
729.936	-16.85
729.961	2.15
729.986	-13.85
730.011	7.15
730.036	-3.85
730.061	-2.85
730.086	-11.85
730.112	0.15
730.137	10.15
730.162	-2.85
730.187	-11.85
730.212	-9.85
730.237	-7.85
730.262	5.15
730.287	-2.85
730.312	29.15
730.337	-5.85
730.362	16.15
730.387	8.15
730.413	-23.85
730.438	-5.85
730.463	-10.85
730.488	2.15
730.513	10.15
730.538	-0.85
730.563	19.15
730.588	6.15
730.613	-2.85
730.638	-7.85
730.663	-3.85
730.688	12.15
730.713	15.15
730.738	2.15
730.763	-5.85
730.788	-13.85
730.813	-10.85
730.838	-8.85
730.863	-7.85
730.888	-19.85
730.913	-14.85
730.938	-16.85
730.963	-12.85
730.988	10.15
731.013	9.15
731.038	4.15
731.063	-1.85
731.088	2.15
731.113	0.15
731.138	-12.85
731.163	-10.85
731.188	-6.85
731.213	4.15
731.238	21.15
731.263	1.15
731.288	-11.85
731.313	7.15
731.338	9.15
731.363	0.15
731.388	-6.85
731.413	4.15
731.438	11.15
731.463	-7.85
731.487	13.15
731.512	3.15
731.537	-3.85
731.562	-14.85
731.587	13.15
731.612	4.15
731.637	-8.85
731.662	0.15
731.687	-6.85
731.712	-22.85
731.737	-6.85
731.762	-8.85
731.786	3.15
731.811	23.15
731.836	4.15
731.861	1.15
731.886	6.15
731.911	12.15
731.936	18.15
731.961	8.15
731.986	-9.85
732.01	5.15
732.035	10.15
732.06	17.15
732.085	5.15
732.11	8.15
732.135	-15.85
732.16	5.15
732.184	-4.85
732.209	-7.85
732.234	-8.85
732.259	-6.85
732.284	-3.85
732.309	-10.85
732.334	-15.85
732.358	-29.85
732.383	-13.85
732.408	-2.85
732.433	-3.85
732.458	0.15
732.482	0.15
732.507	-2.85
732.532	-8.85
732.557	6.15
732.582	1.15
732.607	-1.85
732.631	-27.85
732.656	-8.85
732.681	-11.85
732.706	2.15
732.73	-0.85
732.755	-15.85
732.78	-7.85
732.805	3.15
732.83	-4.85
732.854	1.15
732.879	4.15
732.904	-11.85
732.929	-2.85
732.953	9.15
732.978	8.15
733.003	-14.85
733.028	3.15
733.052	1.15
733.077	-6.85
733.102	13.15
733.127	0.15
733.151	-3.85
733.176	6.15
733.201	-15.85
733.226	-17.85
733.25	3.15
733.275	-9.85
733.3	6.15
733.324	23.15
733.349	-3.85
733.374	1.15
733.399	3.15
733.423	2.15
733.448	1.15
733.473	-0.85
733.497	-3.85
733.522	0.15
733.547	7.15
733.571	20.15
733.596	21.15
733.621	21.15
733.646	9.15
733.67	12.15
733.695	2.15
733.72	6.15
733.744	0.15
733.769	-13.85
733.794	-1.85
733.818	3.15
733.843	-2.85
733.867	-8.85
733.892	-1.85
733.917	-16.85
733.941	-7.85
733.966	-3.85
733.991	-9.85
734.015	14.15
734.04	3.15
734.065	4.15
734.089	18.15
734.114	-4.85
734.138	9.15
734.163	-9.85
734.188	8.15
734.212	5.15
734.237	-4.85
734.261	2.15
734.286	-2.85
734.311	0.15
734.335	-9.85
734.36	3.15
734.384	-1.85
734.409	8.15
734.434	-9.85
734.458	-7.85
734.483	-18.85
734.507	-13.85
734.532	0.15
734.556	10.15
734.581	-7.85
734.606	-3.85
734.63	-11.85
734.655	1.15
734.679	2.15
734.704	1.15
734.728	19.15
734.753	-19.85
734.777	-3.85
734.802	-6.85
734.826	-1.85
734.851	-7.85
734.876	-1.85
734.9	1.15
734.925	-2.85
734.949	-1.85
734.974	-11.85
734.998	0.15
735.023	-15.85
735.047	-4.85
735.072	23.15
735.096	2.15
735.121	-1.85
735.145	6.15
735.17	5.15
735.194	4.15
735.219	-2.85
735.243	-1.85
735.268	1.15
735.292	-6.85
735.317	-8.85
735.341	-6.85
735.365	-6.85
735.39	8.15
735.414	2.15
735.439	2.15
735.463	6.15
735.488	13.15
735.512	-0.85
735.537	-15.85
735.561	-11.85
735.586	-11.85
735.61	11.15
735.634	-12.85
735.659	6.15
735.683	13.15
735.708	5.15
735.732	-9.85
735.757	-10.85
735.781	4.15
735.805	5.15
735.83	-18.85
735.854	-6.85
735.879	2.15
735.903	2.15
735.927	4.15
735.952	-0.85
735.976	3.15
736.001	-5.85
736.025	-19.85
736.049	-4.85
736.074	0.15
736.098	-12.85
736.123	-11.85
736.147	-5.85
736.171	-13.85
736.196	-7.85
736.22	-22.85
736.244	-3.85
736.269	9.15
736.293	6.15
736.317	0.15
736.342	-6.85
736.366	16.15
736.39	14.15
736.415	-5.85
736.439	5.15
736.463	4.15
736.488	2.15
736.512	6.15
736.536	18.15
736.561	17.15
736.585	-21.85
736.609	-10.85
736.634	0.15
736.658	3.15
736.682	-10.85
736.707	-14.85
736.731	-15.85
736.755	-9.85
736.78	4.15
736.804	-3.85
736.828	5.15
736.852	-10.85
736.877	-11.85
736.901	-7.85
736.925	2.15
736.949	11.15
736.974	8.15
736.998	-9.85
737.022	-19.85
737.047	-9.85
737.071	1.15
737.095	10.15
737.119	17.15
737.144	7.15
737.168	-3.85
737.192	-12.85
737.216	8.15
737.241	-23.85
737.265	-17.85
737.289	-19.85
737.313	-11.85
737.337	-4.85
737.362	-4.85
737.386	-7.85
737.41	-4.85
737.434	-0.85
737.459	-3.85
737.483	6.15
737.507	-2.85
737.531	13.15
737.555	9.15
737.58	20.15
737.604	-8.85
737.628	-8.85
737.652	-8.85
737.676	-2.85
737.701	0.15
737.725	6.15
737.749	4.15
737.773	-8.85
737.797	6.15
737.821	-4.85
737.846	-8.85
737.87	10.15
737.894	0.15
737.918	-3.85
737.942	0.15
737.966	-9.85
737.99	-15.85
738.015	6.15
738.039	-1.85
738.063	17.15
738.087	8.15
738.111	-6.85
738.135	24.15
738.159	-6.85
738.184	-5.85
738.208	5.15
738.232	3.15
738.256	14.15
738.28	-0.85
738.304	6.15
738.328	-14.85
738.352	-3.85
738.376	-10.85
738.4	-2.85
738.425	0.15
738.449	-6.85
738.473	15.15
738.497	2.15
738.521	-10.85
738.545	-8.85
738.569	-1.85
738.593	8.15
738.617	4.15
738.641	1.15
738.665	7.15
738.689	9.15
738.713	2.15
738.737	8.15
738.762	0.15
738.786	7.15
738.81	-14.85
738.834	-0.85
738.858	-4.85
738.882	5.15
738.906	-13.85
738.93	9.15
738.954	-3.85
738.978	0.15
739.002	3.15
739.026	13.15
739.05	-3.85
739.074	-15.85
739.098	39.15
739.122	1.15
739.146	12.15
739.17	2.15
739.194	-2.85
739.218	-4.85
739.242	-16.85
739.266	4.15
739.29	13.15
739.314	2.15
739.338	-5.85
739.362	0.15
739.386	7.15
739.41	-2.85
739.434	-8.85
739.458	-5.85
739.482	-1.85
739.506	-2.85
739.53	-14.85
739.554	7.15
739.577	-2.85
739.601	0.15
739.625	-11.85
739.649	-0.85
739.673	8.15
739.697	-6.85
739.721	2.15
739.745	10.15
739.769	9.15
739.793	11.15
739.817	12.15
739.841	-9.85
739.865	-2.85
739.889	-9.85
739.912	5.15
739.936	-10.85
739.96	-1.85
739.984	11.15
740.008	-3.85
740.032	-10.85
740.056	-7.85
740.08	6.15
740.104	-17.85
740.127	1.15
740.151	15.15
740.175	-2.85
740.199	0.15
740.223	49.15
740.247	10.15
740.271	7.15
740.295	-11.85
740.318	-16.85
740.342	-13.85
740.366	3.15
740.39	7.15
740.414	-0.85
740.438	-4.85
740.461	13.15
740.485	14.15
740.509	-11.85
740.533	-8.85
740.557	-2.85
740.581	-3.85
740.604	-23.85
740.628	-12.85
740.652	7.15
740.676	3.15
740.7	6.15
740.723	-8.85
740.747	-18.85
740.771	9.15
740.795	-8.85
740.819	-0.85
740.842	3.15
740.866	-0.85
740.89	4.15
740.914	0.15
740.938	5.15
740.961	18.15
740.985	2.15
741.009	-1.85
741.033	8.15
741.056	5.15
741.08	1.15
741.104	-8.85
741.128	-15.85
741.151	10.15
741.175	0.15
741.199	-11.85
741.223	5.15
741.246	-5.85
741.27	6.15
741.294	1.15
741.318	-11.85
741.341	-11.85
741.365	7.15
741.389	-17.85
741.413	-5.85
741.436	9.15
741.46	5.15
741.484	19.15
741.507	1.15
741.531	22.15
741.555	1.15
741.579	-1.85
741.602	-9.85
741.626	12.15
741.65	2.15
741.673	-7.85
741.697	-9.85
741.721	0.15
741.744	-17.85
741.768	-15.85
741.792	-3.85
741.815	-7.85
741.839	-6.85
741.863	5.15
741.886	7.15
741.91	-4.85
741.934	15.15
741.957	-8.85
741.981	15.15
742.005	11.15
742.028	-8.85
742.052	14.15
742.075	8.15
742.099	13.15
742.123	2.15
742.146	-2.85
742.17	4.15
742.194	-9.85
742.217	-11.85
742.241	-2.85
742.264	9.15
742.288	23.15
742.312	1.15
742.335	-2.85
742.359	-3.85
742.382	11.15
742.406	6.15
742.43	0.15
742.453	6.15
742.477	-10.85
742.5	6.15
742.524	8.15
742.548	-4.85
742.571	1.15
742.595	-3.85
742.618	-3.85
742.642	-10.85
742.665	13.15
742.689	-6.85
742.712	1.15
742.736	4.15
742.76	4.15
742.783	-19.85
742.807	1.15
742.83	-0.85
742.854	-18.85
742.877	-3.85
742.901	-0.85
742.924	-6.85
742.948	-6.85
742.971	-2.85
742.995	11.15
743.018	-6.85
743.042	-14.85
743.065	-11.85
743.089	4.15
743.112	-5.85
743.136	-2.85
743.159	-5.85
743.183	3.15
743.206	1.15
743.23	-0.85
743.253	18.15
743.277	1.15
743.3	-2.85
743.324	1.15
743.347	-3.85
743.371	26.15
743.394	-1.85
743.418	6.15
743.441	0.15
743.465	-1.85
743.488	9.15
743.512	-25.85
743.535	-3.85
743.558	6.15
743.582	2.15
743.605	-0.85
743.629	1.15
743.652	0.15
743.676	2.15
743.699	9.15
743.723	9.15
743.746	15.15
743.769	4.15
743.793	-8.85
743.816	-9.85
743.84	9.15
743.863	-2.85
743.886	-1.85
743.91	15.15
743.933	2.15
743.957	16.15
743.98	-0.85
744.003	-3.85
744.027	3.15
744.05	4.15
744.074	-2.85
744.097	-18.85
744.12	1.15
744.144	3.15
744.167	10.15
744.19	-2.85
744.214	1.15
744.237	-6.85
744.26	9.15
744.284	-6.85
744.307	-8.85
744.331	-1.85
744.354	-13.85
744.377	-16.85
744.401	-0.85
744.424	-1.85
744.447	-12.85
744.471	-10.85
