Data from HighRes_H2_15_09_11_07_2024_HR4C61891__146__15-11-11-001.txt Node

Date: Thu Nov 07 15:11:11 EST 2024
User: crc00042
Spectrometer: HR4C6189
Trigger mode: 4
Integration Time (sec): 1.000000E-1
Scans to average: 1
Electric dark correction enabled: true
Nonlinearity correction enabled: false
Boxcar width: 0
XAxis mode: Wavelengths
Number of Pixels in Spectrum: 3648
>>>>>Begin Spectral Data<<<<<
639.567	-59.92
639.602	-59.92
639.636	-59.92
639.67	-39.92
639.704	-10.92
639.738	0.08
639.773	7.08
639.807	-11.92
639.841	7.08
639.875	4.08
639.909	4.08
639.943	-19.92
639.978	-10.92
640.012	6.08
640.046	13.08
640.08	3.08
640.114	1.08
640.148	-2.92
640.182	-10.92
640.217	-4.92
640.251	18.08
640.285	7.08
640.319	5.08
640.353	-7.92
640.387	-2.92
640.421	-8.92
640.455	-0.92
640.49	5.08
640.524	7.08
640.558	-6.92
640.592	-5.92
640.626	0.08
640.66	-0.92
640.694	-5.92
640.728	-6.92
640.762	-4.92
640.796	17.08
640.83	0.08
640.865	-6.92
640.899	-14.92
640.933	-1.92
640.967	-5.92
641.001	7.08
641.035	-7.92
641.069	12.08
641.103	-2.92
641.137	-13.92
641.171	-9.92
641.205	6.08
641.239	-9.92
641.273	11.08
641.307	1.08
641.341	2.08
641.375	-2.92
641.409	-16.92
641.443	-7.92
641.477	15.08
641.511	-2.92
641.545	-0.92
641.579	5.08
641.614	0.08
641.648	-20.92
641.682	-23.92
641.716	-7.92
641.75	9.08
641.784	-6.92
641.818	-3.92
641.852	-3.92
641.886	-12.92
641.919	16.08
641.953	-4.92
641.987	-25.92
642.021	-22.92
642.055	1.08
642.089	-5.92
642.123	-8.92
642.157	-16.92
642.191	0.08
642.225	6.08
642.259	-12.92
642.293	3.08
642.327	-4.92
642.361	-13.92
642.395	4.08
642.429	11.08
642.463	12.08
642.497	25.08
642.531	12.08
642.565	1.08
642.599	11.08
642.633	-8.92
642.666	17.08
642.7	-9.92
642.734	8.08
642.768	-11.92
642.802	-16.92
642.836	1.08
642.87	-2.92
642.904	6.08
642.938	11.08
642.972	18.08
643.005	5.08
643.039	8.08
643.073	1.08
643.107	10.08
643.141	7.08
643.175	0.08
643.209	-14.92
643.243	-4.92
643.276	-1.92
643.31	-2.92
643.344	0.08
643.378	0.08
643.412	26.08
643.446	-4.92
643.48	-16.92
643.513	9.08
643.547	-11.92
643.581	-8.92
643.615	4.08
643.649	1.08
643.683	4.08
643.716	-2.92
643.75	14.08
643.784	-10.92
643.818	1.08
643.852	0.08
643.886	-3.92
643.919	9.08
643.953	-0.92
643.987	-1.92
644.021	4.08
644.055	0.08
644.088	-3.92
644.122	-22.92
644.156	-9.92
644.19	12.08
644.224	10.08
644.257	11.08
644.291	13.08
644.325	5.08
644.359	-1.92
644.392	8.08
644.426	7.08
644.46	0.08
644.494	-2.92
644.527	-17.92
644.561	6.08
644.595	7.08
644.629	-8.92
644.662	0.08
644.696	3.08
644.73	-5.92
644.764	-2.92
644.797	-15.92
644.831	5.08
644.865	6.08
644.899	-4.92
644.932	6.08
644.966	-7.92
645	11.08
645.033	21.08
645.067	-10.92
645.101	4.08
645.135	9.08
645.168	-12.92
645.202	-14.92
645.236	-18.92
645.269	20.08
645.303	-3.92
645.337	-16.92
645.37	-13.92
645.404	-8.92
645.438	4.08
645.471	0.08
645.505	5.08
645.539	-9.92
645.572	-16.92
645.606	-6.92
645.64	-11.92
645.673	0.08
645.707	12.08
645.741	8.08
645.774	0.08
645.808	8.08
645.842	-13.92
645.875	7.08
645.909	-12.92
645.943	-1.92
645.976	-3.92
646.01	5.08
646.043	13.08
646.077	1.08
646.111	0.08
646.144	6.08
646.178	-3.92
646.212	-21.92
646.245	-15.92
646.279	2.08
646.312	0.08
646.346	-1.92
646.38	7.08
646.413	7.08
646.447	3.08
646.48	1.08
646.514	1.08
646.547	3.08
646.581	1.08
646.615	-5.92
646.648	-5.92
646.682	-0.92
646.715	-2.92
646.749	1.08
646.782	-13.92
646.816	-15.92
646.85	11.08
646.883	-6.92
646.917	4.08
646.95	6.08
646.984	3.08
647.017	4.08
647.051	0.08
647.084	2.08
647.118	-11.92
647.151	-12.92
647.185	-11.92
647.218	-14.92
647.252	4.08
647.285	-17.92
647.319	-21.92
647.353	5.08
647.386	8.08
647.42	2.08
647.453	5.08
647.487	-2.92
647.52	0.08
647.553	-2.92
647.587	-18.92
647.62	1.08
647.654	5.08
647.687	8.08
647.721	2.08
647.754	19.08
647.788	-0.92
647.821	-25.92
647.855	5.08
647.888	20.08
647.922	9.08
647.955	12.08
647.989	-10.92
648.022	-28.92
648.055	5.08
648.089	-1.92
648.122	23.08
648.156	-7.92
648.189	5.08
648.223	2.08
648.256	17.08
648.29	1.08
648.323	-18.92
648.356	1.08
648.39	-1.92
648.423	-2.92
648.457	-7.92
648.49	3.08
648.523	2.08
648.557	-6.92
648.59	-18.92
648.624	-5.92
648.657	1.08
648.69	-7.92
648.724	7.08
648.757	-6.92
648.791	-0.92
648.824	7.08
648.857	14.08
648.891	-8.92
648.924	5.08
648.957	20.08
648.991	-11.92
649.024	20.08
649.057	-7.92
649.091	1.08
649.124	25.08
649.158	10.08
649.191	7.08
649.224	3.08
649.258	1.08
649.291	-2.92
649.324	4.08
649.358	-2.92
649.391	1.08
649.424	1.08
649.458	0.08
649.491	-8.92
649.524	-11.92
649.557	-15.92
649.591	-14.92
649.624	15.08
649.657	-18.92
649.691	-6.92
649.724	4.08
649.757	4.08
649.791	-8.92
649.824	13.08
649.857	1.08
649.89	-9.92
649.924	-11.92
649.957	8.08
649.99	-19.92
650.023	-1.92
650.057	-2.92
650.09	3.08
650.123	1.08
650.157	-2.92
650.19	14.08
650.223	-6.92
650.256	-2.92
650.29	0.08
650.323	8.08
650.356	-3.92
650.389	-10.92
650.423	-3.92
650.456	-9.92
650.489	-9.92
650.522	-2.92
650.555	20.08
650.589	19.08
650.622	9.08
650.655	5.08
650.688	8.08
650.721	20.08
650.755	-6.92
650.788	5.08
650.821	4.08
650.854	0.08
650.887	3.08
650.921	-5.92
650.954	-5.92
650.987	11.08
651.02	16.08
651.053	-6.92
651.087	-12.92
651.12	10.08
651.153	6.08
651.186	6.08
651.219	-18.92
651.252	-6.92
651.286	4.08
651.319	-16.92
651.352	-2.92
651.385	8.08
651.418	-1.92
651.451	7.08
651.484	11.08
651.518	-5.92
651.551	11.08
651.584	6.08
651.617	16.08
651.65	2.08
651.683	8.08
651.716	11.08
651.749	7.08
651.783	-14.92
651.816	5.08
651.849	6.08
651.882	19.08
651.915	7.08
651.948	8.08
651.981	0.08
652.014	-33.92
652.047	-18.92
652.08	-14.92
652.114	-8.92
652.147	-0.92
652.18	5.08
652.213	26.08
652.246	-0.92
652.279	4.08
652.312	10.08
652.345	4.08
652.378	-1.92
652.411	3.08
652.444	27.08
652.477	5.08
652.51	-4.92
652.543	-22.92
652.576	0.08
652.609	-3.92
652.642	-13.92
652.675	24.08
652.709	-1.92
652.742	2.08
652.775	1.08
652.808	17.08
652.841	4.08
652.874	3.08
652.907	4.08
652.94	-4.92
652.973	-4.92
653.006	6.08
653.039	5.08
653.072	1.08
653.105	-9.92
653.138	-37.92
653.171	-14.92
653.204	4.08
653.237	20.08
653.27	-2.92
653.303	5.08
653.336	4.08
653.368	-11.92
653.401	4.08
653.434	1.08
653.467	-0.92
653.5	-15.92
653.533	-11.92
653.566	11.08
653.599	9.08
653.632	-9.92
653.665	11.08
653.698	-14.92
653.731	-8.92
653.764	15.08
653.797	-23.92
653.83	9.08
653.863	-8.92
653.896	-3.92
653.929	-5.92
653.961	-11.92
653.994	-14.92
654.027	0.08
654.06	17.08
654.093	6.08
654.126	4.08
654.159	-4.92
654.192	3.08
654.225	-6.92
654.258	-3.92
654.29	6.08
654.323	0.08
654.356	-19.92
654.389	-0.92
654.422	-1.92
654.455	-4.92
654.488	10.08
654.521	-7.92
654.553	-15.92
654.586	8.08
654.619	-1.92
654.652	0.08
654.685	4.08
654.718	17.08
654.751	16.08
654.783	4.08
654.816	8.08
654.849	4.08
654.882	-14.92
654.915	0.08
654.948	9.08
654.98	-3.92
655.013	5.08
655.046	0.08
655.079	4.08
655.112	10.08
655.144	-2.92
655.177	4.08
655.21	17.08
655.243	23.08
655.276	15.08
655.308	-2.92
655.341	-11.92
655.374	10.08
655.407	3.08
655.44	-5.92
655.472	17.08
655.505	14.08
655.538	4.08
655.571	16.08
655.603	-2.92
655.636	5.08
655.669	17.08
655.702	11.08
655.734	17.08
655.767	10.08
655.8	7.08
655.833	9.08
655.865	21.08
655.898	19.08
655.931	42.08
655.964	31.08
655.996	43.08
656.029	72.08
656.062	61.08
656.095	63.08
656.127	52.08
656.16	97.08
656.193	127.08
656.225	166.08
656.258	261.08
656.291	489.08
656.324	1154.08
656.356	3390.08
656.389	7535.08
656.422	6021.08
656.454	2108.08
656.487	707.08
656.52	273.08
656.552	99.08
656.585	81.08
656.618	37.08
656.65	28.08
656.683	34.08
656.716	23.08
656.748	14.08
656.781	6.08
656.814	0.08
656.846	6.08
656.879	-9.92
656.912	0.08
656.944	-21.92
656.977	-0.92
657.01	-2.92
657.042	15.08
657.075	25.08
657.108	0.08
657.14	1.08
657.173	11.08
657.205	33.08
657.238	25.08
657.271	12.08
657.303	-17.92
657.336	11.08
657.369	7.08
657.401	4.08
657.434	8.08
657.466	6.08
657.499	4.08
657.532	11.08
657.564	14.08
657.597	-12.92
657.629	6.08
657.662	3.08
657.694	-4.92
657.727	-7.92
657.76	5.08
657.792	-11.92
657.825	-11.92
657.857	-3.92
657.89	-9.92
657.922	7.08
657.955	-7.92
657.987	-3.92
658.02	12.08
658.053	23.08
658.085	11.08
658.118	0.08
658.15	22.08
658.183	6.08
658.215	-1.92
658.248	-10.92
658.28	-5.92
658.313	14.08
658.345	14.08
658.378	21.08
658.41	-2.92
658.443	8.08
658.475	-8.92
658.508	-7.92
658.54	-6.92
658.573	-8.92
658.605	-2.92
658.638	-5.92
658.67	-9.92
658.703	12.08
658.735	3.08
658.768	12.08
658.8	-8.92
658.833	5.08
658.865	-11.92
658.898	10.08
658.93	-8.92
658.963	-0.92
658.995	-2.92
659.028	0.08
659.06	-6.92
659.092	-10.92
659.125	-7.92
659.157	-11.92
659.19	-18.92
659.222	-0.92
659.255	17.08
659.287	-9.92
659.32	-10.92
659.352	-8.92
659.384	5.08
659.417	-3.92
659.449	2.08
659.482	-5.92
659.514	-2.92
659.546	9.08
659.579	-4.92
659.611	-13.92
659.644	-4.92
659.676	-13.92
659.708	-7.92
659.741	-19.92
659.773	3.08
659.806	-3.92
659.838	15.08
659.87	2.08
659.903	3.08
659.935	5.08
659.967	1.08
660	3.08
660.032	-7.92
660.065	28.08
660.097	9.08
660.129	-5.92
660.162	-3.92
660.194	5.08
660.226	1.08
660.259	5.08
660.291	-10.92
660.323	-2.92
660.356	-0.92
660.388	-6.92
660.42	-5.92
660.453	-0.92
660.485	10.08
660.517	2.08
660.55	22.08
660.582	-2.92
660.614	9.08
660.647	-0.92
660.679	-5.92
660.711	18.08
660.743	-0.92
660.776	-14.92
660.808	-1.92
660.84	-2.92
660.873	10.08
660.905	10.08
660.937	5.08
660.969	4.08
661.002	-5.92
661.034	9.08
661.066	-0.92
661.099	-11.92
661.131	14.08
661.163	9.08
661.195	3.08
661.228	8.08
661.26	-8.92
661.292	-4.92
661.324	1.08
661.357	12.08
661.389	4.08
661.421	9.08
661.453	-1.92
661.485	0.08
661.518	4.08
661.55	-23.92
661.582	-26.92
661.614	-9.92
661.647	9.08
661.679	0.08
661.711	-12.92
661.743	-12.92
661.775	6.08
661.808	10.08
661.84	-7.92
661.872	-13.92
661.904	-10.92
661.936	-9.92
661.969	-5.92
662.001	-7.92
662.033	4.08
662.065	8.08
662.097	1.08
662.129	3.08
662.162	-7.92
662.194	17.08
662.226	0.08
662.258	16.08
662.29	-11.92
662.322	-9.92
662.355	-31.92
662.387	26.08
662.419	5.08
662.451	17.08
662.483	5.08
662.515	-4.92
662.547	-2.92
662.58	-5.92
662.612	1.08
662.644	-9.92
662.676	-6.92
662.708	2.08
662.74	-5.92
662.772	-9.92
662.804	7.08
662.836	-12.92
662.869	-1.92
662.901	24.08
662.933	10.08
662.965	16.08
662.997	22.08
663.029	2.08
663.061	-3.92
663.093	-16.92
663.125	7.08
663.157	2.08
663.189	-16.92
663.221	12.08
663.254	3.08
663.286	9.08
663.318	-9.92
663.35	2.08
663.382	-2.92
663.414	4.08
663.446	-2.92
663.478	1.08
663.51	24.08
663.542	-12.92
663.574	-20.92
663.606	7.08
663.638	-0.92
663.67	-15.92
663.702	-13.92
663.734	1.08
663.766	2.08
663.798	-10.92
663.83	1.08
663.862	1.08
663.894	-0.92
663.926	-2.92
663.958	2.08
663.99	-11.92
664.022	-17.92
664.054	4.08
664.086	-15.92
664.118	-16.92
664.15	1.08
664.182	9.08
664.214	3.08
664.246	7.08
664.278	-6.92
664.31	10.08
664.342	2.08
664.374	-3.92
664.406	-4.92
664.438	10.08
664.47	10.08
664.502	5.08
664.534	2.08
664.566	-4.92
664.598	16.08
664.63	5.08
664.662	4.08
664.693	-0.92
664.725	-0.92
664.757	-4.92
664.789	-22.92
664.821	-4.92
664.853	-5.92
664.885	3.08
664.917	-8.92
664.949	-10.92
664.981	0.08
665.013	-4.92
665.045	-14.92
665.076	-19.92
665.108	0.08
665.14	-5.92
665.172	4.08
665.204	-2.92
665.236	-22.92
665.268	6.08
665.3	3.08
665.331	-3.92
665.363	16.08
665.395	3.08
665.427	-2.92
665.459	-6.92
665.491	3.08
665.523	-3.92
665.555	-3.92
665.586	-5.92
665.618	-11.92
665.65	-24.92
665.682	9.08
665.714	4.08
665.746	-7.92
665.777	-1.92
665.809	-6.92
665.841	19.08
665.873	2.08
665.905	-1.92
665.937	4.08
665.968	4.08
666	0.08
666.032	4.08
666.064	-4.92
666.096	-0.92
666.127	11.08
666.159	12.08
666.191	5.08
666.223	0.08
666.255	9.08
666.286	1.08
666.318	-1.92
666.35	28.08
666.382	3.08
666.413	-8.92
666.445	-18.92
666.477	-2.92
666.509	-13.92
666.54	1.08
666.572	-3.92
666.604	-14.92
666.636	-17.92
666.667	1.08
666.699	7.08
666.731	-4.92
666.763	1.08
666.794	-11.92
666.826	6.08
666.858	-13.92
666.89	-12.92
666.921	8.08
666.953	7.08
666.985	1.08
667.017	22.08
667.048	0.08
667.08	-6.92
667.112	-13.92
667.143	-13.92
667.175	13.08
667.207	7.08
667.238	-0.92
667.27	-6.92
667.302	-0.92
667.334	2.08
667.365	6.08
667.397	-6.92
667.429	-9.92
667.46	11.08
667.492	11.08
667.524	-10.92
667.555	-11.92
667.587	-12.92
667.619	-11.92
667.65	7.08
667.682	8.08
667.714	8.08
667.745	-5.92
667.777	-11.92
667.808	-6.92
667.84	8.08
667.872	8.08
667.903	15.08
667.935	-3.92
667.967	-11.92
667.998	6.08
668.03	-16.92
668.061	-8.92
668.093	-16.92
668.125	19.08
668.156	13.08
668.188	-20.92
668.22	-8.92
668.251	13.08
668.283	17.08
668.314	9.08
668.346	-11.92
668.377	-2.92
668.409	-7.92
668.441	-0.92
668.472	-4.92
668.504	5.08
668.535	2.08
668.567	11.08
668.599	-5.92
668.63	-11.92
668.662	-5.92
668.693	21.08
668.725	10.08
668.756	9.08
668.788	-10.92
668.819	-5.92
668.851	-15.92
668.882	3.08
668.914	3.08
668.946	11.08
668.977	-1.92
669.009	0.08
669.04	-19.92
669.072	1.08
669.103	3.08
669.135	-14.92
669.166	-2.92
669.198	-14.92
669.229	3.08
669.261	-5.92
669.292	-8.92
669.324	-5.92
669.355	-0.92
669.387	-5.92
669.418	9.08
669.45	-14.92
669.481	-4.92
669.513	20.08
669.544	7.08
669.576	-16.92
669.607	2.08
669.639	20.08
669.67	3.08
669.701	5.08
669.733	-21.92
669.764	-7.92
669.796	-7.92
669.827	-19.92
669.859	-16.92
669.89	-2.92
669.922	-1.92
669.953	-8.92
669.985	-8.92
670.016	-1.92
670.047	-2.92
670.079	3.08
670.11	8.08
670.142	-1.92
670.173	-4.92
670.204	4.08
670.236	12.08
670.267	-7.92
670.299	-1.92
670.33	-6.92
670.362	10.08
670.393	3.08
670.424	5.08
670.456	-18.92
670.487	3.08
670.518	6.08
670.55	5.08
670.581	-3.92
670.613	-1.92
670.644	4.08
670.675	-30.92
670.707	-4.92
670.738	-6.92
670.769	-1.92
670.801	-6.92
670.832	11.08
670.864	1.08
670.895	-6.92
670.926	-6.92
670.958	0.08
670.989	-0.92
671.02	-19.92
671.052	3.08
671.083	5.08
671.114	11.08
671.146	-0.92
671.177	-2.92
671.208	-16.92
671.24	-24.92
671.271	-12.92
671.302	4.08
671.333	-12.92
671.365	-17.92
671.396	-5.92
671.427	8.08
671.459	3.08
671.49	18.08
671.521	1.08
671.553	6.08
671.584	1.08
671.615	-4.92
671.646	-1.92
671.678	8.08
671.709	-10.92
671.74	-20.92
671.771	-9.92
671.803	0.08
671.834	8.08
671.865	-7.92
671.896	0.08
671.928	-4.92
671.959	-12.92
671.99	-9.92
672.021	-9.92
672.053	-1.92
672.084	15.08
672.115	0.08
672.146	-14.92
672.178	-10.92
672.209	-15.92
672.24	-5.92
672.271	23.08
672.303	-12.92
672.334	-10.92
672.365	-6.92
672.396	-9.92
672.427	-8.92
672.459	4.08
672.49	17.08
672.521	1.08
672.552	0.08
672.583	-7.92
672.615	-2.92
672.646	18.08
672.677	-11.92
672.708	-12.92
672.739	1.08
672.77	14.08
672.802	-1.92
672.833	10.08
672.864	3.08
672.895	-10.92
672.926	2.08
672.957	-7.92
672.989	-9.92
673.02	-17.92
673.051	-5.92
673.082	5.08
673.113	-9.92
673.144	-6.92
673.175	-2.92
673.206	13.08
673.238	-9.92
673.269	-10.92
673.3	-13.92
673.331	-15.92
673.362	-2.92
673.393	14.08
673.424	19.08
673.455	16.08
673.487	11.08
673.518	-10.92
673.549	1.08
673.58	-8.92
673.611	0.08
673.642	6.08
673.673	-8.92
673.704	-0.92
673.735	-11.92
673.766	12.08
673.797	-5.92
673.828	-0.92
673.86	-15.92
673.891	-23.92
673.922	-4.92
673.953	-6.92
673.984	9.08
674.015	0.08
674.046	-17.92
674.077	-1.92
674.108	-17.92
674.139	2.08
674.17	-6.92
674.201	-10.92
674.232	-13.92
674.263	-11.92
674.294	-15.92
674.325	-11.92
674.356	14.08
674.387	7.08
674.418	0.08
674.449	-16.92
674.48	-12.92
674.511	-13.92
674.542	8.08
674.573	-0.92
674.604	1.08
674.635	-2.92
674.666	4.08
674.697	-13.92
674.728	15.08
674.759	-1.92
674.79	-5.92
674.821	-5.92
674.852	1.08
674.883	-6.92
674.914	1.08
674.945	-5.92
674.976	4.08
675.007	-4.92
675.038	-30.92
675.069	-10.92
675.1	-12.92
675.131	10.08
675.162	1.08
675.193	-2.92
675.224	-2.92
675.254	8.08
675.285	9.08
675.316	21.08
675.347	0.08
675.378	-10.92
675.409	-7.92
675.44	-1.92
675.471	5.08
675.502	1.08
675.533	-16.92
675.564	-9.92
675.595	-11.92
675.625	-4.92
675.656	3.08
675.687	0.08
675.718	-9.92
675.749	-4.92
675.78	3.08
675.811	-8.92
675.842	-5.92
675.873	-6.92
675.903	-8.92
675.934	-16.92
675.965	-10.92
675.996	-1.92
676.027	-7.92
676.058	-9.92
676.089	-11.92
676.119	-2.92
676.15	-4.92
676.181	2.08
676.212	-9.92
676.243	7.08
676.274	1.08
676.304	22.08
676.335	-6.92
676.366	-19.92
676.397	-11.92
676.428	-7.92
676.459	1.08
676.489	6.08
676.52	5.08
676.551	0.08
676.582	-8.92
676.613	3.08
676.643	0.08
676.674	-5.92
676.705	-10.92
676.736	14.08
676.767	17.08
676.797	10.08
676.828	-1.92
676.859	-2.92
676.89	-2.92
676.92	-5.92
676.951	0.08
676.982	8.08
677.013	-15.92
677.044	18.08
677.074	5.08
677.105	-15.92
677.136	-4.92
677.167	-3.92
677.197	19.08
677.228	8.08
677.259	-10.92
677.289	-2.92
677.32	-8.92
677.351	-1.92
677.382	3.08
677.412	-10.92
677.443	13.08
677.474	5.08
677.505	-5.92
677.535	-9.92
677.566	-7.92
677.597	-4.92
677.627	-3.92
677.658	0.08
677.689	1.08
677.72	0.08
677.75	-12.92
677.781	0.08
677.812	3.08
677.842	1.08
677.873	-9.92
677.904	-10.92
677.934	1.08
677.965	-10.92
677.996	-21.92
678.026	-2.92
678.057	-9.92
678.088	-11.92
678.118	-0.92
678.149	-23.92
678.18	-16.92
678.21	4.08
678.241	-0.92
678.272	-6.92
678.302	5.08
678.333	1.08
678.363	-10.92
678.394	-0.92
678.425	-18.92
678.455	-5.92
678.486	14.08
678.517	-2.92
678.547	-5.92
678.578	3.08
678.608	-10.92
678.639	0.08
678.67	7.08
678.7	-1.92
678.731	-19.92
678.761	-7.92
678.792	3.08
678.823	14.08
678.853	7.08
678.884	-9.92
678.914	1.08
678.945	-0.92
678.975	-0.92
679.006	-9.92
679.037	-17.92
679.067	22.08
679.098	-5.92
679.128	-11.92
679.159	-12.92
679.189	8.08
679.22	-18.92
679.25	-2.92
679.281	5.08
679.312	-9.92
679.342	0.08
679.373	36.08
679.403	-0.92
679.434	-2.92
679.464	3.08
679.495	15.08
679.525	18.08
679.556	-0.92
679.586	2.08
679.617	0.08
679.647	7.08
679.678	8.08
679.708	3.08
679.739	0.08
679.769	0.08
679.8	-6.92
679.83	-13.92
679.861	11.08
679.891	1.08
679.922	-16.92
679.952	-0.92
679.983	19.08
680.013	-12.92
680.044	-15.92
680.074	7.08
680.105	20.08
680.135	10.08
680.165	20.08
680.196	2.08
680.226	-2.92
680.257	21.08
680.287	0.08
680.318	1.08
680.348	-6.92
680.379	3.08
680.409	-0.92
680.439	-4.92
680.47	-1.92
680.5	-10.92
680.531	13.08
680.561	16.08
680.592	-2.92
680.622	23.08
680.652	-5.92
680.683	4.08
680.713	-6.92
680.744	-11.92
680.774	-2.92
680.804	23.08
680.835	-4.92
680.865	-18.92
680.896	1.08
680.926	-4.92
680.956	8.08
680.987	-1.92
681.017	-7.92
681.047	1.08
681.078	4.08
681.108	0.08
681.139	-10.92
681.169	4.08
681.199	13.08
681.23	2.08
681.26	-3.92
681.29	6.08
681.321	-6.92
681.351	1.08
681.381	-14.92
681.412	-6.92
681.442	-0.92
681.472	22.08
681.503	11.08
681.533	3.08
681.563	-3.92
681.594	0.08
681.624	-4.92
681.654	-5.92
681.685	-15.92
681.715	7.08
681.745	-2.92
681.775	-13.92
681.806	-19.92
681.836	-17.92
681.866	-16.92
681.897	-6.92
681.927	7.08
681.957	-26.92
681.987	0.08
682.018	-1.92
682.048	4.08
682.078	19.08
682.109	10.08
682.139	1.08
682.169	-1.92
682.199	-16.92
682.23	-2.92
682.26	9.08
682.29	-3.92
682.32	12.08
682.351	-5.92
682.381	-9.92
682.411	-6.92
682.441	-0.92
682.472	-20.92
682.502	-9.92
682.532	-8.92
682.562	-6.92
682.592	10.08
682.623	6.08
682.653	4.08
682.683	1.08
682.713	-0.92
682.743	-10.92
682.774	-16.92
682.804	2.08
682.834	3.08
682.864	-20.92
682.894	-8.92
682.925	2.08
682.955	9.08
682.985	1.08
683.015	-1.92
683.045	-7.92
683.076	-14.92
683.106	3.08
683.136	-3.92
683.166	12.08
683.196	-16.92
683.226	-4.92
683.257	3.08
683.287	-5.92
683.317	-16.92
683.347	-23.92
683.377	-16.92
683.407	-10.92
683.437	9.08
683.468	10.08
683.498	-16.92
683.528	-0.92
683.558	7.08
683.588	-3.92
683.618	-12.92
683.648	-17.92
683.678	-3.92
683.708	3.08
683.739	-7.92
683.769	-7.92
683.799	-8.92
683.829	3.08
683.859	-3.92
683.889	4.08
683.919	-1.92
683.949	14.08
683.979	-12.92
684.009	0.08
684.039	-1.92
684.07	-8.92
684.1	8.08
684.13	7.08
684.16	-7.92
684.19	-21.92
684.22	-7.92
684.25	8.08
684.28	-0.92
684.31	26.08
684.34	14.08
684.37	12.08
684.4	-19.92
684.43	-4.92
684.46	-14.92
684.49	-14.92
684.52	1.08
684.55	-2.92
684.58	8.08
684.61	1.08
684.64	18.08
684.67	1.08
684.7	2.08
684.73	8.08
684.76	-19.92
684.79	13.08
684.82	-5.92
684.85	5.08
684.88	2.08
684.91	-2.92
684.94	5.08
684.97	-0.92
685	-14.92
685.03	-2.92
685.06	-12.92
685.09	4.08
685.12	4.08
685.15	-1.92
685.18	5.08
685.21	-2.92
685.24	13.08
685.27	11.08
685.3	3.08
685.33	18.08
685.36	1.08
685.39	2.08
685.42	-17.92
685.45	-17.92
685.48	-7.92
685.51	-10.92
685.54	1.08
685.569	-6.92
685.599	12.08
685.629	5.08
685.659	-12.92
685.689	10.08
685.719	6.08
685.749	-14.92
685.779	9.08
685.809	3.08
685.839	10.08
685.869	-9.92
685.898	16.08
685.928	-14.92
685.958	3.08
685.988	12.08
686.018	3.08
686.048	-9.92
686.078	1.08
686.108	8.08
686.137	7.08
686.167	1.08
686.197	-13.92
686.227	-0.92
686.257	17.08
686.287	18.08
686.317	0.08
686.346	-6.92
686.376	-10.92
686.406	-8.92
686.436	-1.92
686.466	-17.92
686.496	1.08
686.525	9.08
686.555	-7.92
686.585	7.08
686.615	36.08
686.645	14.08
686.675	-11.92
686.704	0.08
686.734	5.08
686.764	-9.92
686.794	0.08
686.824	-9.92
686.853	-4.92
686.883	16.08
686.913	14.08
686.943	-3.92
686.973	-1.92
687.002	12.08
687.032	5.08
687.062	-9.92
687.092	12.08
687.121	3.08
687.151	-7.92
687.181	-1.92
687.211	-3.92
687.24	4.08
687.27	21.08
687.3	8.08
687.33	-6.92
687.359	-14.92
687.389	-13.92
687.419	-11.92
687.449	-1.92
687.478	9.08
687.508	-5.92
687.538	10.08
687.568	8.08
687.597	-9.92
687.627	-8.92
687.657	2.08
687.686	8.08
687.716	21.08
687.746	-3.92
687.776	-16.92
687.805	-0.92
687.835	-2.92
687.865	12.08
687.894	2.08
687.924	2.08
687.954	-2.92
687.983	-5.92
688.013	5.08
688.043	24.08
688.072	4.08
688.102	4.08
688.132	-11.92
688.161	8.08
688.191	11.08
688.221	10.08
688.25	-12.92
688.28	0.08
688.31	7.08
688.339	-6.92
688.369	-14.92
688.399	-30.92
688.428	-10.92
688.458	12.08
688.488	-11.92
688.517	5.08
688.547	14.08
688.576	28.08
688.606	-6.92
688.636	-9.92
688.665	8.08
688.695	20.08
688.725	16.08
688.754	15.08
688.784	-1.92
688.813	2.08
688.843	9.08
688.873	5.08
688.902	7.08
688.932	-6.92
688.961	-0.92
688.991	6.08
689.02	26.08
689.05	-0.92
689.08	0.08
689.109	12.08
689.139	-18.92
689.168	2.08
689.198	-4.92
689.227	7.08
689.257	7.08
689.287	6.08
689.316	-17.92
689.346	-12.92
689.375	-8.92
689.405	-1.92
689.434	-14.92
689.464	2.08
689.493	-13.92
689.523	-10.92
689.552	1.08
689.582	-5.92
689.611	-3.92
689.641	-0.92
689.67	10.08
689.7	21.08
689.73	8.08
689.759	-6.92
689.789	22.08
689.818	-2.92
689.848	-4.92
689.877	10.08
689.906	-3.92
689.936	-7.92
689.965	4.08
689.995	27.08
690.024	14.08
690.054	2.08
690.083	-1.92
690.113	-3.92
690.142	2.08
690.172	9.08
690.201	-2.92
690.231	-3.92
690.26	1.08
690.29	-14.92
690.319	-0.92
690.348	-1.92
690.378	13.08
690.407	-0.92
690.437	-12.92
690.466	-1.92
690.496	-11.92
690.525	-1.92
690.555	-9.92
690.584	-0.92
690.613	-6.92
690.643	-3.92
690.672	6.08
690.702	0.08
690.731	2.08
690.76	1.08
690.79	-9.92
690.819	-4.92
690.849	8.08
690.878	-3.92
690.907	5.08
690.937	12.08
690.966	21.08
690.996	9.08
691.025	6.08
691.054	-14.92
691.084	-11.92
691.113	-5.92
691.142	-2.92
691.172	2.08
691.201	16.08
691.23	-1.92
691.26	15.08
691.289	-0.92
691.319	8.08
691.348	-0.92
691.377	9.08
691.407	-1.92
691.436	17.08
691.465	6.08
691.495	-0.92
691.524	-10.92
691.553	5.08
691.583	-16.92
691.612	21.08
691.641	-2.92
691.67	-7.92
691.7	-2.92
691.729	-12.92
691.758	1.08
691.788	-0.92
691.817	-11.92
691.846	-23.92
691.876	11.08
691.905	21.08
691.934	-1.92
691.963	-2.92
691.993	-12.92
692.022	-5.92
692.051	-2.92
692.081	14.08
692.11	8.08
692.139	-2.92
692.168	11.08
692.198	10.08
692.227	9.08
692.256	-1.92
692.285	-4.92
692.315	-14.92
692.344	17.08
692.373	-1.92
692.402	-24.92
692.432	-10.92
692.461	-1.92
692.49	0.08
692.519	-15.92
692.548	2.08
692.578	-3.92
692.607	-3.92
692.636	-15.92
692.665	3.08
692.694	5.08
692.724	5.08
692.753	0.08
692.782	12.08
692.811	-6.92
692.84	-1.92
692.87	-5.92
692.899	-2.92
692.928	-3.92
692.957	-6.92
692.986	5.08
693.016	-4.92
693.045	12.08
693.074	0.08
693.103	-3.92
693.132	-5.92
693.161	9.08
693.191	4.08
693.22	-12.92
693.249	4.08
693.278	0.08
693.307	11.08
693.336	-13.92
693.365	-18.92
693.395	2.08
693.424	-6.92
693.453	9.08
693.482	0.08
693.511	11.08
693.54	7.08
693.569	2.08
693.598	-5.92
693.628	7.08
693.657	4.08
693.686	14.08
693.715	3.08
693.744	18.08
693.773	14.08
693.802	-14.92
693.831	-14.92
693.86	17.08
693.889	9.08
693.919	10.08
693.948	-1.92
693.977	3.08
694.006	2.08
694.035	0.08
694.064	-7.92
694.093	-11.92
694.122	-1.92
694.151	-10.92
694.18	1.08
694.209	16.08
694.238	-2.92
694.267	11.08
694.296	10.08
694.325	9.08
694.354	7.08
694.383	12.08
694.412	4.08
694.441	-5.92
694.471	-12.92
694.5	1.08
694.529	-0.92
694.558	16.08
694.587	14.08
694.616	-11.92
694.645	-1.92
694.674	18.08
694.703	5.08
694.732	-8.92
694.761	4.08
694.79	9.08
694.819	-7.92
694.848	17.08
694.877	18.08
694.906	19.08
694.935	11.08
694.963	20.08
694.992	-8.92
695.021	6.08
695.05	11.08
695.079	4.08
695.108	-5.92
695.137	18.08
695.166	6.08
695.195	-0.92
695.224	8.08
695.253	-6.92
695.282	-3.92
695.311	-2.92
695.34	0.08
695.369	6.08
695.398	-4.92
695.427	23.08
695.456	20.08
695.485	13.08
695.513	11.08
695.542	0.08
695.571	-3.92
695.6	20.08
695.629	-7.92
695.658	-7.92
695.687	8.08
695.716	-12.92
695.745	15.08
695.774	5.08
695.802	-0.92
695.831	6.08
695.86	6.08
695.889	20.08
695.918	14.08
695.947	8.08
695.976	2.08
696.005	9.08
696.033	15.08
696.062	13.08
696.091	2.08
696.12	10.08
696.149	22.08
696.178	13.08
696.207	-6.92
696.235	-11.92
696.264	12.08
696.293	0.08
696.322	1.08
696.351	8.08
696.38	7.08
696.408	-5.92
696.437	-3.92
696.466	-2.92
696.495	6.08
696.524	-1.92
696.553	12.08
696.581	13.08
696.61	25.08
696.639	-2.92
696.668	1.08
696.697	1.08
696.725	11.08
696.754	3.08
696.783	1.08
696.812	-6.92
696.84	5.08
696.869	2.08
696.898	-12.92
696.927	-4.92
696.956	11.08
696.984	-5.92
697.013	-2.92
697.042	-3.92
697.071	10.08
697.099	16.08
697.128	7.08
697.157	16.08
697.186	1.08
697.214	-2.92
697.243	-0.92
697.272	-9.92
697.301	7.08
697.329	-5.92
697.358	3.08
697.387	21.08
697.415	4.08
697.444	2.08
697.473	2.08
697.502	-21.92
697.53	-2.92
697.559	-4.92
697.588	-6.92
697.616	8.08
697.645	19.08
697.674	24.08
697.703	3.08
697.731	9.08
697.76	-3.92
697.789	1.08
697.817	-2.92
697.846	11.08
697.875	7.08
697.903	2.08
697.932	-2.92
697.961	0.08
697.989	13.08
698.018	8.08
698.047	0.08
698.075	4.08
698.104	-1.92
698.133	5.08
698.161	1.08
698.19	-5.92
698.218	-10.92
698.247	1.08
698.276	-2.92
698.304	20.08
698.333	13.08
698.362	3.08
698.39	7.08
698.419	11.08
698.447	0.08
698.476	-5.92
698.505	1.08
698.533	15.08
698.562	4.08
698.591	1.08
698.619	4.08
698.648	2.08
698.676	-3.92
698.705	-6.92
698.733	-9.92
698.762	10.08
698.791	7.08
698.819	6.08
698.848	2.08
698.876	13.08
698.905	16.08
698.933	4.08
698.962	3.08
698.991	1.08
699.019	18.08
699.048	11.08
699.076	-6.92
699.105	-11.92
699.133	-13.92
699.162	-1.92
699.19	20.08
699.219	10.08
699.248	10.08
699.276	-10.92
699.305	-5.92
699.333	5.08
699.362	-11.92
699.39	4.08
699.419	0.08
699.447	-3.92
699.476	2.08
699.504	-3.92
699.533	-1.92
699.561	-4.92
699.59	1.08
699.618	-11.92
699.647	-11.92
699.675	-2.92
699.704	3.08
699.732	3.08
699.761	-3.92
699.789	-5.92
699.818	10.08
699.846	0.08
699.874	-6.92
699.903	-1.92
699.931	0.08
699.96	17.08
699.988	1.08
700.017	0.08
700.045	0.08
700.074	-1.92
700.102	0.08
700.13	-13.92
700.159	2.08
700.187	19.08
700.216	4.08
700.244	-10.92
700.273	5.08
700.301	20.08
700.329	18.08
700.358	13.08
700.386	-2.92
700.415	2.08
700.443	-7.92
700.472	-1.92
700.5	-2.92
700.528	10.08
700.557	1.08
700.585	-3.92
700.614	-0.92
700.642	14.08
700.67	7.08
700.699	8.08
700.727	4.08
700.755	2.08
700.784	-3.92
700.812	-9.92
700.841	9.08
700.869	14.08
700.897	-16.92
700.926	-6.92
700.954	0.08
700.982	-0.92
701.011	7.08
701.039	9.08
701.067	10.08
701.096	16.08
701.124	-5.92
701.152	10.08
701.181	9.08
701.209	-16.92
701.237	-7.92
701.266	-12.92
701.294	10.08
701.322	-1.92
701.351	-2.92
701.379	2.08
701.407	-6.92
701.435	-2.92
701.464	8.08
701.492	16.08
701.52	-6.92
701.549	-3.92
701.577	-12.92
701.605	-10.92
701.634	-16.92
701.662	-0.92
701.69	2.08
701.718	10.08
701.747	4.08
701.775	6.08
701.803	-13.92
701.831	16.08
701.86	-8.92
701.888	2.08
701.916	13.08
701.944	8.08
701.973	-8.92
702.001	-3.92
702.029	-9.92
702.057	-10.92
702.086	-1.92
702.114	-6.92
702.142	3.08
702.17	-10.92
702.199	1.08
702.227	-5.92
702.255	-10.92
702.283	-11.92
702.311	1.08
702.34	2.08
702.368	-3.92
702.396	1.08
702.424	-0.92
702.452	-8.92
702.481	2.08
702.509	-0.92
702.537	-4.92
702.565	2.08
702.593	-29.92
702.621	-7.92
702.65	4.08
702.678	1.08
702.706	12.08
702.734	-3.92
702.762	-12.92
702.79	-7.92
702.819	-9.92
702.847	-13.92
702.875	9.08
702.903	2.08
702.931	-10.92
702.959	-1.92
702.988	3.08
703.016	-10.92
703.044	1.08
703.072	-11.92
703.1	-1.92
703.128	-10.92
703.156	-8.92
703.184	0.08
703.212	7.08
703.241	-6.92
703.269	-4.92
703.297	-1.92
703.325	6.08
703.353	-1.92
703.381	-0.92
703.409	-0.92
703.437	-6.92
703.465	-4.92
703.493	-18.92
703.522	0.08
703.55	6.08
703.578	-1.92
703.606	-3.92
703.634	-4.92
703.662	-0.92
703.69	1.08
703.718	6.08
703.746	6.08
703.774	-12.92
703.802	18.08
703.83	9.08
703.858	-6.92
703.886	2.08
703.914	-8.92
703.942	8.08
703.97	-4.92
703.998	1.08
704.027	5.08
704.055	18.08
704.083	-7.92
704.111	-16.92
704.139	-8.92
704.167	-3.92
704.195	9.08
704.223	-9.92
704.251	0.08
704.279	5.08
704.307	7.08
704.335	-7.92
704.363	-1.92
704.391	-8.92
704.419	-5.92
704.447	-11.92
704.475	-2.92
704.503	-15.92
704.531	7.08
704.558	7.08
704.586	13.08
704.614	-17.92
704.642	-1.92
704.67	-11.92
704.698	-9.92
704.726	-2.92
704.754	1.08
704.782	-3.92
704.81	-16.92
704.838	3.08
704.866	3.08
704.894	-8.92
704.922	0.08
704.95	-1.92
704.978	14.08
705.006	4.08
705.034	-4.92
705.061	-26.92
705.089	-1.92
705.117	-21.92
705.145	1.08
705.173	12.08
705.201	-3.92
705.229	5.08
705.257	-4.92
705.285	1.08
705.313	-6.92
705.34	-15.92
705.368	-15.92
705.396	-12.92
705.424	-1.92
705.452	-0.92
705.48	-0.92
705.508	-8.92
705.536	-6.92
705.563	-11.92
705.591	0.08
705.619	2.08
705.647	6.08
705.675	-5.92
705.703	-0.92
705.731	-13.92
705.758	-5.92
705.786	-3.92
705.814	12.08
705.842	7.08
705.87	1.08
705.898	-5.92
705.925	-8.92
705.953	12.08
705.981	-9.92
706.009	-5.92
706.037	10.08
706.065	-6.92
706.092	-10.92
706.12	-2.92
706.148	-3.92
706.176	-15.92
706.204	11.08
706.231	-1.92
706.259	-8.92
706.287	-2.92
706.315	1.08
706.342	-7.92
706.37	0.08
706.398	0.08
706.426	-1.92
706.454	-6.92
706.481	2.08
706.509	-3.92
706.537	-11.92
706.565	-19.92
706.592	-0.92
706.62	-8.92
706.648	0.08
706.676	-17.92
706.703	-7.92
706.731	-11.92
706.759	-2.92
706.787	-2.92
706.814	4.08
706.842	-11.92
706.87	-17.92
706.897	-13.92
706.925	-13.92
706.953	21.08
706.981	19.08
707.008	1.08
707.036	-2.92
707.064	-9.92
707.091	-13.92
707.119	4.08
707.147	0.08
707.174	-14.92
707.202	15.08
707.23	5.08
707.258	-4.92
707.285	-24.92
707.313	0.08
707.341	-1.92
707.368	-0.92
707.396	-3.92
707.424	25.08
707.451	4.08
707.479	0.08
707.507	-4.92
707.534	-5.92
707.562	16.08
707.59	-11.92
707.617	-14.92
707.645	0.08
707.672	2.08
707.7	1.08
707.728	2.08
707.755	-10.92
707.783	-5.92
707.811	-2.92
707.838	-16.92
707.866	3.08
707.893	-2.92
707.921	-8.92
707.949	-9.92
707.976	-0.92
708.004	-7.92
708.031	-9.92
708.059	-1.92
708.087	6.08
708.114	-13.92
708.142	-12.92
708.169	-4.92
708.197	-11.92
708.225	1.08
708.252	7.08
708.28	0.08
708.307	-0.92
708.335	7.08
708.362	-9.92
708.39	-12.92
708.418	5.08
708.445	-11.92
708.473	-18.92
708.5	-6.92
708.528	4.08
708.555	2.08
708.583	-7.92
708.61	4.08
708.638	8.08
708.665	2.08
708.693	-1.92
708.72	-16.92
708.748	-10.92
708.776	-9.92
708.803	4.08
708.831	8.08
708.858	9.08
708.886	-6.92
708.913	-5.92
708.941	-13.92
708.968	8.08
708.996	-7.92
709.023	23.08
709.051	-2.92
709.078	-11.92
709.105	-8.92
709.133	-7.92
709.16	-0.92
709.188	26.08
709.215	6.08
709.243	-4.92
709.27	-10.92
709.298	1.08
709.325	-5.92
709.353	-18.92
709.38	0.08
709.408	3.08
709.435	3.08
709.462	-2.92
709.49	-6.92
709.517	-5.92
709.545	-12.92
709.572	1.08
709.6	3.08
709.627	2.08
709.655	1.08
709.682	-5.92
709.709	3.08
709.737	-1.92
709.764	-5.92
709.792	3.08
709.819	-2.92
709.846	-3.92
709.874	22.08
709.901	12.08
709.929	30.08
709.956	3.08
709.983	-15.92
710.011	0.08
710.038	-10.92
710.066	4.08
710.093	4.08
710.12	-7.92
710.148	-15.92
710.175	-6.92
710.202	-8.92
710.23	5.08
710.257	-3.92
710.284	8.08
710.312	-4.92
710.339	-11.92
710.366	0.08
710.394	-7.92
710.421	-1.92
710.448	3.08
710.476	-2.92
710.503	0.08
710.53	23.08
710.558	20.08
710.585	17.08
710.612	-2.92
710.64	-11.92
710.667	2.08
710.694	-13.92
710.722	-5.92
710.749	-7.92
710.776	4.08
710.804	16.08
710.831	-5.92
710.858	10.08
710.885	-2.92
710.913	1.08
710.94	15.08
710.967	-2.92
710.995	-7.92
711.022	-4.92
711.049	-6.92
711.076	-14.92
711.104	-18.92
711.131	-21.92
711.158	-10.92
711.185	-0.92
711.213	-15.92
711.24	-19.92
711.267	-6.92
711.294	5.08
711.322	0.08
711.349	3.08
711.376	-7.92
711.403	5.08
711.431	-15.92
711.458	-15.92
711.485	0.08
711.512	9.08
711.54	7.08
711.567	2.08
711.594	-17.92
711.621	-3.92
711.648	-7.92
711.676	10.08
711.703	-4.92
711.73	-7.92
711.757	-11.92
711.784	1.08
711.812	-2.92
711.839	-11.92
711.866	-22.92
711.893	-4.92
711.92	9.08
711.947	10.08
711.975	-5.92
712.002	1.08
712.029	-7.92
712.056	-6.92
712.083	-2.92
712.11	-11.92
712.138	2.08
712.165	-1.92
712.192	-7.92
712.219	-7.92
712.246	-9.92
712.273	-5.92
712.3	-10.92
712.328	-9.92
712.355	-7.92
712.382	-22.92
712.409	-0.92
712.436	-10.92
712.463	11.08
712.49	3.08
712.517	-1.92
712.544	0.08
712.572	14.08
712.599	-8.92
712.626	-0.92
712.653	-11.92
712.68	-25.92
712.707	-2.92
712.734	-2.92
712.761	7.08
712.788	0.08
712.815	-6.92
712.842	1.08
712.87	-3.92
712.897	-18.92
712.924	-10.92
712.951	7.08
712.978	-6.92
713.005	6.08
713.032	-5.92
713.059	-18.92
713.086	-12.92
713.113	-10.92
713.14	-13.92
713.167	3.08
713.194	9.08
713.221	-5.92
713.248	7.08
713.275	-9.92
713.302	-24.92
713.329	5.08
713.356	-10.92
713.383	4.08
713.41	-6.92
713.437	-13.92
713.464	-10.92
713.491	15.08
713.518	1.08
713.545	0.08
713.572	-1.92
713.599	1.08
713.626	0.08
713.653	-1.92
713.68	3.08
713.707	0.08
713.734	4.08
713.761	-26.92
713.788	5.08
713.815	8.08
713.842	-3.92
713.869	-8.92
713.896	-1.92
713.923	3.08
713.95	-6.92
713.977	0.08
714.004	-6.92
714.031	3.08
714.058	-6.92
714.085	0.08
714.112	4.08
714.139	13.08
714.165	-2.92
714.192	-15.92
714.219	0.08
714.246	0.08
714.273	-0.92
714.3	-2.92
714.327	-4.92
714.354	6.08
714.381	-12.92
714.408	-3.92
714.435	10.08
714.461	5.08
714.488	8.08
714.515	-2.92
714.542	-7.92
714.569	-11.92
714.596	-11.92
714.623	-10.92
714.65	-17.92
714.677	-5.92
714.703	1.08
714.73	11.08
714.757	5.08
714.784	8.08
714.811	-8.92
714.838	6.08
714.865	-14.92
714.891	4.08
714.918	-0.92
714.945	-6.92
714.972	-13.92
714.999	-3.92
715.026	-6.92
715.052	17.08
715.079	3.08
715.106	-5.92
715.133	5.08
715.16	-2.92
715.187	8.08
715.213	10.08
715.24	-7.92
715.267	-9.92
715.294	-1.92
715.321	5.08
715.347	2.08
715.374	1.08
715.401	0.08
715.428	-3.92
715.455	0.08
715.481	-22.92
715.508	13.08
715.535	6.08
715.562	15.08
715.588	0.08
715.615	4.08
715.642	9.08
715.669	-3.92
715.695	-16.92
715.722	-7.92
715.749	6.08
715.776	11.08
715.802	-6.92
715.829	-9.92
715.856	-1.92
715.883	8.08
715.909	-16.92
715.936	-7.92
715.963	5.08
715.99	-25.92
716.016	14.08
716.043	-3.92
716.07	-7.92
716.096	-15.92
716.123	-2.92
716.15	-3.92
716.177	10.08
716.203	25.08
716.23	14.08
716.257	18.08
716.283	22.08
716.31	8.08
716.337	0.08
716.363	4.08
716.39	-4.92
716.417	10.08
716.443	-5.92
716.47	20.08
716.497	18.08
716.523	11.08
716.55	16.08
716.577	4.08
716.603	-6.92
716.63	-2.92
716.657	6.08
716.683	-10.92
716.71	-2.92
716.737	-8.92
716.763	-3.92
716.79	20.08
716.817	7.08
716.843	6.08
716.87	-6.92
716.897	-6.92
716.923	13.08
716.95	4.08
716.976	-1.92
717.003	-2.92
717.03	-13.92
717.056	-5.92
717.083	4.08
717.109	1.08
717.136	8.08
717.163	-9.92
717.189	7.08
717.216	-13.92
717.242	-8.92
717.269	-3.92
717.296	2.08
717.322	7.08
717.349	-0.92
717.375	10.08
717.402	-4.92
717.428	-0.92
717.455	17.08
717.481	18.08
717.508	8.08
717.535	0.08
717.561	-8.92
717.588	-13.92
717.614	-8.92
717.641	-14.92
717.667	-2.92
717.694	-6.92
717.72	3.08
717.747	-6.92
717.773	-18.92
717.8	7.08
717.826	-3.92
717.853	-0.92
717.88	-0.92
717.906	4.08
717.933	4.08
717.959	-6.92
717.986	7.08
718.012	1.08
718.039	33.08
718.065	10.08
718.092	-9.92
718.118	-7.92
718.144	-18.92
718.171	12.08
718.197	26.08
718.224	-7.92
718.25	10.08
718.277	9.08
718.303	-3.92
718.33	-8.92
718.356	-8.92
718.383	-19.92
718.409	-11.92
718.436	-9.92
718.462	-16.92
718.489	-9.92
718.515	-1.92
718.541	7.08
718.568	8.08
718.594	6.08
718.621	1.08
718.647	10.08
718.674	18.08
718.7	10.08
718.726	-14.92
718.753	6.08
718.779	9.08
718.806	-8.92
718.832	-21.92
718.858	1.08
718.885	2.08
718.911	7.08
718.938	4.08
718.964	-3.92
718.99	1.08
719.017	2.08
719.043	11.08
719.07	22.08
719.096	-14.92
719.122	5.08
719.149	-0.92
719.175	2.08
719.201	0.08
719.228	-7.92
719.254	-5.92
719.281	1.08
719.307	0.08
719.333	4.08
719.36	15.08
719.386	1.08
719.412	5.08
719.439	4.08
719.465	-1.92
719.491	-10.92
719.518	-2.92
719.544	-6.92
719.57	-7.92
719.597	-2.92
719.623	11.08
719.649	-4.92
719.675	3.08
719.702	3.08
719.728	20.08
719.754	-6.92
719.781	-11.92
719.807	-2.92
719.833	8.08
719.86	-8.92
719.886	-5.92
719.912	3.08
719.938	-2.92
719.965	-14.92
719.991	-7.92
720.017	1.08
720.044	3.08
720.07	6.08
720.096	4.08
720.122	8.08
720.149	2.08
720.175	18.08
720.201	-2.92
720.227	-15.92
720.254	-1.92
720.28	-1.92
720.306	0.08
720.332	-3.92
720.359	13.08
720.385	10.08
720.411	12.08
720.437	6.08
720.463	-7.92
720.49	11.08
720.516	18.08
720.542	-13.92
720.568	-2.92
720.595	15.08
720.621	10.08
720.647	8.08
720.673	5.08
720.699	-8.92
720.725	-3.92
720.752	15.08
720.778	17.08
720.804	12.08
720.83	-3.92
720.856	-9.92
720.883	-11.92
720.909	11.08
720.935	1.08
720.961	14.08
720.987	12.08
721.013	-2.92
721.04	-4.92
721.066	2.08
721.092	-9.92
721.118	13.08
721.144	-4.92
721.17	-12.92
721.196	4.08
721.223	0.08
721.249	15.08
721.275	16.08
721.301	-1.92
721.327	0.08
721.353	7.08
721.379	16.08
721.405	14.08
721.432	16.08
721.458	11.08
721.484	0.08
721.51	-6.92
721.536	-3.92
721.562	0.08
721.588	-7.92
721.614	-10.92
721.64	-9.92
721.666	-3.92
721.693	-3.92
721.719	-7.92
721.745	-5.92
721.771	-9.92
721.797	10.08
721.823	-3.92
721.849	9.08
721.875	-2.92
721.901	-2.92
721.927	1.08
721.953	7.08
721.979	-1.92
722.005	-3.92
722.031	-3.92
722.057	3.08
722.083	0.08
722.109	1.08
722.135	0.08
722.161	0.08
722.187	-0.92
722.214	1.08
722.24	-14.92
722.266	-11.92
722.292	-0.92
722.318	17.08
722.344	6.08
722.37	-0.92
722.396	0.08
722.422	-6.92
722.448	-10.92
722.474	-7.92
722.5	17.08
722.526	0.08
722.552	-1.92
722.578	4.08
722.603	11.08
722.629	-1.92
722.655	-0.92
722.681	3.08
722.707	-1.92
722.733	-1.92
722.759	-11.92
722.785	-7.92
722.811	4.08
722.837	-7.92
722.863	1.08
722.889	-0.92
722.915	-13.92
722.941	-6.92
722.967	-5.92
722.993	0.08
723.019	-10.92
723.045	-2.92
723.071	8.08
723.097	-1.92
723.122	-11.92
723.148	2.08
723.174	-14.92
723.2	2.08
723.226	6.08
723.252	-5.92
723.278	-7.92
723.304	-3.92
723.33	14.08
723.356	-11.92
723.381	-6.92
723.407	-7.92
723.433	2.08
723.459	-6.92
723.485	0.08
723.511	9.08
723.537	-6.92
723.563	0.08
723.588	-15.92
723.614	-2.92
723.64	0.08
723.666	2.08
723.692	1.08
723.718	-9.92
723.744	0.08
723.769	-6.92
723.795	-3.92
723.821	-15.92
723.847	1.08
723.873	7.08
723.899	10.08
723.924	4.08
723.95	0.08
723.976	1.08
724.002	5.08
724.028	4.08
724.053	-0.92
724.079	-6.92
724.105	4.08
724.131	-15.92
724.157	-7.92
724.182	10.08
724.208	5.08
724.234	-3.92
724.26	-4.92
724.286	-2.92
724.311	1.08
724.337	-12.92
724.363	-10.92
724.389	-0.92
724.415	9.08
724.44	28.08
724.466	-5.92
724.492	3.08
724.518	-2.92
724.543	-5.92
724.569	4.08
724.595	1.08
724.621	-13.92
724.646	-15.92
724.672	-13.92
724.698	-14.92
724.723	-25.92
724.749	-17.92
724.775	-3.92
724.801	-1.92
724.826	-6.92
724.852	-18.92
724.878	-7.92
724.904	-25.92
724.929	5.08
724.955	-10.92
724.981	-1.92
725.006	-10.92
725.032	-10.92
725.058	10.08
725.083	-12.92
725.109	-7.92
725.135	7.08
725.161	16.08
725.186	-6.92
725.212	-8.92
725.238	-2.92
725.263	-9.92
725.289	-15.92
725.315	-14.92
725.34	-0.92
725.366	-10.92
725.392	3.08
725.417	-21.92
725.443	-15.92
725.468	8.08
725.494	18.08
725.52	12.08
725.545	-7.92
725.571	6.08
725.597	-0.92
725.622	2.08
725.648	11.08
725.674	5.08
725.699	-3.92
725.725	5.08
725.75	24.08
725.776	-5.92
725.802	-11.92
725.827	5.08
725.853	1.08
725.878	-8.92
725.904	-0.92
725.93	14.08
725.955	-12.92
725.981	-3.92
726.006	-14.92
726.032	6.08
726.057	-6.92
726.083	-15.92
726.109	-3.92
726.134	2.08
726.16	-3.92
726.185	-2.92
726.211	-8.92
726.236	1.08
726.262	-9.92
726.288	3.08
726.313	5.08
726.339	3.08
726.364	5.08
726.39	7.08
726.415	-13.92
726.441	-1.92
726.466	-2.92
726.492	4.08
726.517	-1.92
726.543	6.08
726.568	-8.92
726.594	12.08
726.619	5.08
726.645	10.08
726.67	10.08
726.696	-10.92
726.721	-21.92
726.747	-10.92
726.772	-6.92
726.798	-5.92
726.823	-12.92
726.849	-2.92
726.874	-1.92
726.9	26.08
726.925	20.08
726.951	5.08
726.976	-1.92
727.002	-4.92
727.027	-6.92
727.053	-4.92
727.078	-2.92
727.104	-5.92
727.129	-11.92
727.155	-10.92
727.18	12.08
727.205	-7.92
727.231	-22.92
727.256	0.08
727.282	-5.92
727.307	4.08
727.333	3.08
727.358	-6.92
727.383	-18.92
727.409	-10.92
727.434	8.08
727.46	6.08
727.485	-8.92
727.511	2.08
727.536	-22.92
727.561	-1.92
727.587	-3.92
727.612	-3.92
727.637	-3.92
727.663	-3.92
727.688	1.08
727.714	-12.92
727.739	-8.92
727.764	-22.92
727.79	0.08
727.815	-6.92
727.841	13.08
727.866	1.08
727.891	1.08
727.917	-8.92
727.942	-13.92
727.967	-1.92
727.993	-15.92
728.018	-7.92
728.043	8.08
728.069	12.08
728.094	3.08
728.119	-8.92
728.145	3.08
728.17	-7.92
728.195	1.08
728.221	1.08
728.246	-5.92
728.271	-21.92
728.297	3.08
728.322	-1.92
728.347	8.08
728.373	-0.92
728.398	-4.92
728.423	-6.92
728.448	12.08
728.474	0.08
728.499	6.08
728.524	-11.92
728.55	0.08
728.575	-6.92
728.6	4.08
728.625	-5.92
728.651	0.08
728.676	11.08
728.701	2.08
728.727	5.08
728.752	-7.92
728.777	0.08
728.802	-7.92
728.828	-4.92
728.853	-4.92
728.878	4.08
728.903	-0.92
728.929	-7.92
728.954	-7.92
728.979	0.08
729.004	-2.92
729.03	-15.92
729.055	5.08
729.08	-10.92
729.105	-6.92
729.13	5.08
729.156	8.08
729.181	-0.92
729.206	-16.92
729.231	-5.92
729.256	2.08
729.282	5.08
729.307	-11.92
729.332	-16.92
729.357	-10.92
729.382	-2.92
729.408	5.08
729.433	1.08
729.458	3.08
729.483	19.08
729.508	22.08
729.533	2.08
729.559	-1.92
729.584	8.08
729.609	-10.92
729.634	0.08
729.659	-19.92
729.684	-14.92
729.71	-3.92
729.735	-14.92
729.76	-10.92
729.785	-1.92
729.81	5.08
729.835	-0.92
729.86	-15.92
729.886	17.08
729.911	10.08
729.936	-3.92
729.961	9.08
729.986	-13.92
730.011	-0.92
730.036	-19.92
730.061	-8.92
730.086	6.08
730.112	-7.92
730.137	7.08
730.162	-7.92
730.187	-9.92
730.212	12.08
730.237	-2.92
730.262	-2.92
730.287	0.08
730.312	0.08
730.337	-20.92
730.362	-0.92
730.387	3.08
730.413	-6.92
730.438	-12.92
730.463	-2.92
730.488	0.08
730.513	-2.92
730.538	-11.92
730.563	18.08
730.588	16.08
730.613	13.08
730.638	1.08
730.663	-5.92
730.688	14.08
730.713	-3.92
730.738	0.08
730.763	-6.92
730.788	-14.92
730.813	-0.92
730.838	-2.92
730.863	-10.92
730.888	4.08
730.913	-7.92
730.938	-21.92
730.963	-0.92
730.988	1.08
731.013	21.08
731.038	-2.92
731.063	-2.92
731.088	-2.92
731.113	-8.92
731.138	-12.92
731.163	-10.92
731.188	-6.92
731.213	4.08
731.238	16.08
731.263	-2.92
731.288	-7.92
731.313	-5.92
731.338	5.08
731.363	-0.92
731.388	-5.92
731.413	-2.92
731.438	2.08
731.463	12.08
731.487	-9.92
731.512	-11.92
731.537	-14.92
731.562	-14.92
731.587	8.08
731.612	-8.92
731.637	4.08
731.662	3.08
731.687	-3.92
731.712	-25.92
731.737	-0.92
731.762	-3.92
731.786	13.08
731.811	-13.92
731.836	14.08
731.861	-10.92
731.886	-16.92
731.911	-1.92
731.936	5.08
731.961	-3.92
731.986	-3.92
732.01	-0.92
732.035	8.08
732.06	12.08
732.085	-3.92
732.11	1.08
732.135	-23.92
732.16	-3.92
732.184	-9.92
732.209	-16.92
732.234	0.08
732.259	1.08
732.284	9.08
732.309	-0.92
732.334	-9.92
732.358	-18.92
732.383	-13.92
732.408	-24.92
732.433	0.08
732.458	-1.92
732.482	10.08
732.507	5.08
732.532	-9.92
732.557	0.08
732.582	-2.92
732.607	1.08
732.631	-21.92
732.656	0.08
732.681	-3.92
732.706	-4.92
732.73	1.08
732.755	-22.92
732.78	-6.92
732.805	-2.92
732.83	-5.92
732.854	0.08
732.879	10.08
732.904	-2.92
732.929	-10.92
732.953	9.08
732.978	-6.92
733.003	-2.92
733.028	-6.92
733.052	4.08
733.077	4.08
733.102	3.08
733.127	-8.92
733.151	-0.92
733.176	2.08
733.201	2.08
733.226	1.08
733.25	-3.92
733.275	-8.92
733.3	-7.92
733.324	9.08
733.349	1.08
733.374	3.08
733.399	3.08
733.423	5.08
733.448	-1.92
733.473	4.08
733.497	5.08
733.522	-9.92
733.547	0.08
733.571	9.08
733.596	4.08
733.621	10.08
733.646	-6.92
733.67	14.08
733.695	5.08
733.72	2.08
733.744	2.08
733.769	-10.92
733.794	11.08
733.818	9.08
733.843	-1.92
733.867	-16.92
733.892	-11.92
733.917	-0.92
733.941	5.08
733.966	-21.92
733.991	-8.92
734.015	17.08
734.04	2.08
734.065	0.08
734.089	10.08
734.114	10.08
734.138	0.08
734.163	-17.92
734.188	4.08
734.212	-2.92
734.237	2.08
734.261	1.08
734.286	-7.92
734.311	-9.92
734.335	-14.92
734.36	-11.92
734.384	11.08
734.409	0.08
734.434	-17.92
734.458	0.08
734.483	-17.92
734.507	-22.92
734.532	-2.92
734.556	-3.92
734.581	-7.92
734.606	-5.92
734.63	-17.92
734.655	-14.92
734.679	-4.92
734.704	-0.92
734.728	-7.92
734.753	0.08
734.777	4.08
734.802	8.08
734.826	-6.92
734.851	3.08
734.876	0.08
734.9	8.08
734.925	9.08
734.949	10.08
734.974	-9.92
734.998	12.08
735.023	-4.92
735.047	-15.92
735.072	8.08
735.096	8.08
735.121	-4.92
735.145	8.08
735.17	0.08
735.194	9.08
735.219	0.08
735.243	-7.92
735.268	2.08
735.292	8.08
735.317	9.08
735.341	9.08
735.365	-7.92
735.39	15.08
735.414	4.08
735.439	3.08
735.463	-10.92
735.488	1.08
735.512	-5.92
735.537	14.08
735.561	-3.92
735.586	-6.92
735.61	3.08
735.634	-13.92
735.659	16.08
735.683	22.08
735.708	5.08
735.732	-12.92
735.757	-7.92
735.781	-14.92
735.805	5.08
735.83	-15.92
735.854	-16.92
735.879	-8.92
735.903	6.08
735.927	3.08
735.952	-9.92
735.976	-11.92
736.001	7.08
736.025	2.08
736.049	-3.92
736.074	6.08
736.098	-9.92
736.123	16.08
736.147	-18.92
736.171	-16.92
736.196	0.08
736.22	-9.92
736.244	5.08
736.269	4.08
736.293	-7.92
736.317	-7.92
736.342	13.08
736.366	9.08
736.39	-3.92
736.415	-7.92
736.439	1.08
736.463	-1.92
736.488	4.08
736.512	14.08
736.536	7.08
736.561	24.08
736.585	-1.92
736.609	0.08
736.634	-10.92
736.658	-6.92
736.682	-9.92
736.707	-10.92
736.731	-3.92
736.755	0.08
736.78	5.08
736.804	9.08
736.828	10.08
736.852	8.08
736.877	1.08
736.901	-1.92
736.925	4.08
736.949	-11.92
736.974	-17.92
736.998	-8.92
737.022	11.08
737.047	-3.92
737.071	0.08
737.095	-4.92
737.119	25.08
737.144	-2.92
737.168	-8.92
737.192	-11.92
737.216	1.08
737.241	-11.92
737.265	6.08
737.289	0.08
737.313	8.08
737.337	-2.92
737.362	-15.92
737.386	-4.92
737.41	-4.92
737.434	9.08
737.459	-11.92
737.483	1.08
737.507	0.08
737.531	8.08
737.555	-9.92
737.58	10.08
737.604	4.08
737.628	-15.92
737.652	-10.92
737.676	2.08
737.701	13.08
737.725	6.08
737.749	4.08
737.773	-11.92
737.797	-11.92
737.821	-4.92
737.846	10.08
737.87	23.08
737.894	13.08
737.918	6.08
737.942	-0.92
737.966	19.08
737.99	-2.92
738.015	-3.92
738.039	1.08
738.063	2.08
738.087	12.08
738.111	-0.92
738.135	5.08
738.159	-17.92
738.184	-22.92
738.208	-4.92
738.232	-3.92
738.256	9.08
738.28	6.08
738.304	10.08
738.328	-9.92
738.352	16.08
738.376	-10.92
738.4	-8.92
738.425	10.08
738.449	6.08
738.473	12.08
738.497	1.08
738.521	-2.92
738.545	-11.92
738.569	5.08
738.593	13.08
738.617	6.08
738.641	3.08
738.665	6.08
738.689	6.08
738.713	7.08
738.737	-1.92
738.762	5.08
738.786	-5.92
738.81	-16.92
738.834	7.08
738.858	-5.92
738.882	5.08
738.906	-14.92
738.93	-12.92
738.954	-2.92
738.978	18.08
739.002	0.08
739.026	5.08
739.05	0.08
739.074	-6.92
739.098	18.08
739.122	10.08
739.146	8.08
739.17	10.08
739.194	9.08
739.218	-3.92
739.242	0.08
739.266	-4.92
739.29	-1.92
739.314	9.08
739.338	1.08
739.362	-7.92
739.386	-6.92
739.41	2.08
739.434	-2.92
739.458	10.08
739.482	0.08
739.506	17.08
739.53	-6.92
739.554	18.08
739.577	1.08
739.601	9.08
739.625	6.08
739.649	1.08
739.673	-10.92
739.697	-2.92
739.721	-5.92
739.745	5.08
739.769	4.08
739.793	13.08
739.817	17.08
739.841	-7.92
739.865	-5.92
739.889	-9.92
739.912	10.08
739.936	1.08
739.96	4.08
739.984	7.08
740.008	-5.92
740.032	-12.92
740.056	8.08
740.08	16.08
740.104	5.08
740.127	2.08
740.151	-10.92
740.175	7.08
740.199	10.08
740.223	37.08
740.247	5.08
740.271	2.08
740.295	4.08
740.318	-17.92
740.342	-14.92
740.366	5.08
740.39	10.08
740.414	7.08
740.438	-6.92
740.461	10.08
740.485	-3.92
740.509	-11.92
740.533	-11.92
740.557	-15.92
740.581	5.08
740.604	-17.92
740.628	-4.92
740.652	0.08
740.676	-11.92
740.7	5.08
740.723	3.08
740.747	-10.92
740.771	-4.92
740.795	-7.92
740.819	4.08
740.842	-8.92
740.866	20.08
740.89	16.08
740.914	-18.92
740.938	-12.92
740.961	2.08
740.985	5.08
741.009	0.08
741.033	0.08
741.056	8.08
741.08	-6.92
741.104	-17.92
741.128	-6.92
741.151	2.08
741.175	0.08
741.199	5.08
741.223	-3.92
741.246	-15.92
741.27	2.08
741.294	12.08
741.318	-8.92
741.341	-11.92
741.365	-8.92
741.389	3.08
741.413	12.08
741.436	5.08
741.46	4.08
741.484	16.08
741.507	-7.92
741.531	11.08
741.555	12.08
741.579	19.08
741.602	1.08
741.626	7.08
741.65	1.08
741.673	17.08
741.697	2.08
741.721	1.08
741.744	-27.92
741.768	-10.92
741.792	5.08
741.815	7.08
741.839	19.08
741.863	12.08
741.886	11.08
741.91	9.08
741.934	0.08
741.957	-8.92
741.981	1.08
742.005	1.08
742.028	-24.92
742.052	-3.92
742.075	11.08
742.099	9.08
742.123	-0.92
742.146	-7.92
742.17	-5.92
742.194	-14.92
742.217	-19.92
742.241	5.08
742.264	8.08
742.288	2.08
742.312	-0.92
742.335	6.08
742.359	-4.92
742.382	1.08
742.406	13.08
742.43	-18.92
742.453	4.08
742.477	-7.92
742.5	9.08
742.524	-7.92
742.548	0.08
742.571	0.08
742.595	-16.92
742.618	-11.92
742.642	-6.92
742.665	13.08
742.689	-13.92
742.712	3.08
742.736	-1.92
742.76	3.08
742.783	8.08
742.807	2.08
742.83	2.08
742.854	-6.92
742.877	1.08
742.901	1.08
742.924	-5.92
742.948	1.08
742.971	2.08
742.995	-8.92
743.018	-4.92
743.042	-2.92
743.065	-5.92
743.089	-10.92
743.112	10.08
743.136	3.08
743.159	3.08
743.183	-3.92
743.206	11.08
743.23	0.08
743.253	17.08
743.277	13.08
743.3	-8.92
743.324	-8.92
743.347	-6.92
743.371	24.08
743.394	8.08
743.418	8.08
743.441	-0.92
743.465	-6.92
743.488	2.08
743.512	-0.92
743.535	-4.92
743.558	1.08
743.582	-0.92
743.605	3.08
743.629	-2.92
743.652	-9.92
743.676	-1.92
743.699	10.08
743.723	-2.92
743.746	-0.92
743.769	-2.92
743.793	22.08
743.816	3.08
743.84	22.08
743.863	-2.92
743.886	-6.92
743.91	2.08
743.933	6.08
743.957	0.08
743.98	-5.92
744.003	6.08
744.027	9.08
744.05	2.08
744.074	5.08
744.097	-19.92
744.12	-6.92
744.144	-6.92
744.167	17.08
744.19	-0.92
744.214	-16.92
744.237	-8.92
744.26	3.08
744.284	-3.92
744.307	-15.92
744.331	0.08
744.354	-24.92
744.377	-0.92
744.401	-5.92
744.424	4.08
744.447	-25.92
744.471	-27.92
