Data from HighRes_H2_15_09_11_07_2024_HR4C61891__73__15-11-03-702.txt Node

Date: Thu Nov 07 15:11:03 EST 2024
User: crc00042
Spectrometer: HR4C6189
Trigger mode: 4
Integration Time (sec): 1.000000E-1
Scans to average: 1
Electric dark correction enabled: true
Nonlinearity correction enabled: false
Boxcar width: 0
XAxis mode: Wavelengths
Number of Pixels in Spectrum: 3648
>>>>>Begin Spectral Data<<<<<
639.567	-46.15
639.602	-46.15
639.636	-46.15
639.67	-53.15
639.704	-27.15
639.738	-10.15
639.773	10.85
639.807	-11.15
639.841	3.85
639.875	4.85
639.909	9.85
639.943	-15.15
639.978	-15.15
640.012	-0.15
640.046	5.85
640.08	4.85
640.114	7.85
640.148	3.85
640.182	-9.15
640.217	-22.15
640.251	12.85
640.285	5.85
640.319	-18.15
640.353	-10.15
640.387	-13.15
640.421	-18.15
640.455	0.85
640.49	1.85
640.524	-0.15
640.558	6.85
640.592	1.85
640.626	5.85
640.66	0.85
640.694	-17.15
640.728	-11.15
640.762	8.85
640.796	13.85
640.83	17.85
640.865	-5.15
640.899	0.85
640.933	-5.15
640.967	-4.15
641.001	-4.15
641.035	-1.15
641.069	-9.15
641.103	-10.15
641.137	-4.15
641.171	-5.15
641.205	0.85
641.239	3.85
641.273	8.85
641.307	14.85
641.341	0.85
641.375	-0.15
641.409	-1.15
641.443	-14.15
641.477	-1.15
641.511	-4.15
641.545	1.85
641.579	-1.15
641.614	-2.15
641.648	-7.15
641.682	-9.15
641.716	1.85
641.75	17.85
641.784	10.85
641.818	-8.15
641.852	-4.15
641.886	-3.15
641.919	21.85
641.953	1.85
641.987	-14.15
642.021	-12.15
642.055	10.85
642.089	6.85
642.123	-0.15
642.157	-23.15
642.191	-6.15
642.225	-4.15
642.259	-11.15
642.293	3.85
642.327	-6.15
642.361	-9.15
642.395	8.85
642.429	10.85
642.463	6.85
642.497	2.85
642.531	7.85
642.565	0.85
642.599	5.85
642.633	-22.15
642.666	13.85
642.7	15.85
642.734	4.85
642.768	-7.15
642.802	-3.15
642.836	-1.15
642.87	1.85
642.904	-8.15
642.938	-2.15
642.972	-12.15
643.005	14.85
643.039	15.85
643.073	-12.15
643.107	-2.15
643.141	7.85
643.175	2.85
643.209	-1.15
643.243	-13.15
643.276	-6.15
643.31	-12.15
643.344	2.85
643.378	-5.15
643.412	23.85
643.446	-7.15
643.48	3.85
643.513	0.85
643.547	4.85
643.581	-24.15
643.615	2.85
643.649	-2.15
643.683	-1.15
643.716	2.85
643.75	-1.15
643.784	-30.15
643.818	10.85
643.852	-7.15
643.886	-9.15
643.919	-1.15
643.953	6.85
643.987	-8.15
644.021	12.85
644.055	24.85
644.088	1.85
644.122	0.85
644.156	-1.15
644.19	-1.15
644.224	-4.15
644.257	9.85
644.291	9.85
644.325	-1.15
644.359	3.85
644.392	13.85
644.426	10.85
644.46	2.85
644.494	-15.15
644.527	-12.15
644.561	-5.15
644.595	13.85
644.629	-2.15
644.662	-17.15
644.696	-0.15
644.73	5.85
644.764	16.85
644.797	1.85
644.831	-1.15
644.865	15.85
644.899	-2.15
644.932	22.85
644.966	-18.15
645	6.85
645.033	16.85
645.067	-7.15
645.101	23.85
645.135	-0.15
645.168	-4.15
645.202	0.85
645.236	1.85
645.269	10.85
645.303	-1.15
645.337	-19.15
645.37	-8.15
645.404	-11.15
645.438	1.85
645.471	-8.15
645.505	4.85
645.539	-5.15
645.572	-10.15
645.606	8.85
645.64	5.85
645.673	2.85
645.707	15.85
645.741	-7.15
645.774	-13.15
645.808	-15.15
645.842	-3.15
645.875	0.85
645.909	-10.15
645.943	-11.15
645.976	1.85
646.01	3.85
646.043	3.85
646.077	1.85
646.111	3.85
646.144	0.85
646.178	24.85
646.212	-12.15
646.245	-9.15
646.279	-0.15
646.312	2.85
646.346	3.85
646.38	-11.15
646.413	7.85
646.447	-0.15
646.48	-2.15
646.514	-2.15
646.547	3.85
646.581	-12.15
646.615	-2.15
646.648	-3.15
646.682	2.85
646.715	-3.15
646.749	-13.15
646.782	-18.15
646.816	-10.15
646.85	-0.15
646.883	-7.15
646.917	-2.15
646.95	0.85
646.984	10.85
647.017	-1.15
647.051	5.85
647.084	10.85
647.118	3.85
647.151	1.85
647.185	3.85
647.218	-14.15
647.252	-4.15
647.285	-16.15
647.319	-6.15
647.353	-0.15
647.386	4.85
647.42	5.85
647.453	-3.15
647.487	-1.15
647.52	7.85
647.553	10.85
647.587	6.85
647.62	-2.15
647.654	-15.15
647.687	7.85
647.721	0.85
647.754	-6.15
647.788	0.85
647.821	-3.15
647.855	15.85
647.888	4.85
647.922	6.85
647.955	-9.15
647.989	4.85
648.022	-8.15
648.055	2.85
648.089	1.85
648.122	19.85
648.156	-8.15
648.189	0.85
648.223	16.85
648.256	10.85
648.29	4.85
648.323	-3.15
648.356	9.85
648.39	-5.15
648.423	11.85
648.457	10.85
648.49	-0.15
648.523	8.85
648.557	2.85
648.59	-9.15
648.624	-6.15
648.657	-6.15
648.69	21.85
648.724	3.85
648.757	12.85
648.791	8.85
648.824	6.85
648.857	15.85
648.891	-0.15
648.924	-0.15
648.957	13.85
648.991	-3.15
649.024	12.85
649.057	2.85
649.091	-8.15
649.124	14.85
649.158	1.85
649.191	39.85
649.224	-2.15
649.258	0.85
649.291	14.85
649.324	2.85
649.358	-1.15
649.391	5.85
649.424	-2.15
649.458	-5.15
649.491	-13.15
649.524	-12.15
649.557	-16.15
649.591	-25.15
649.624	3.85
649.657	-11.15
649.691	22.85
649.724	8.85
649.757	1.85
649.791	-14.15
649.824	10.85
649.857	9.85
649.89	-4.15
649.924	-7.15
649.957	-2.15
649.99	-3.15
650.023	-12.15
650.057	-4.15
650.09	-0.15
650.123	-3.15
650.157	12.85
650.19	22.85
650.223	-5.15
650.256	-9.15
650.29	-8.15
650.323	-6.15
650.356	-4.15
650.389	-3.15
650.423	-16.15
650.456	-6.15
650.489	9.85
650.522	5.85
650.555	13.85
650.589	14.85
650.622	4.85
650.655	8.85
650.688	-0.15
650.721	3.85
650.755	3.85
650.788	-5.15
650.821	-10.15
650.854	-15.15
650.887	2.85
650.921	3.85
650.954	-10.15
650.987	-6.15
651.02	-11.15
651.053	-25.15
651.087	-13.15
651.12	18.85
651.153	9.85
651.186	0.85
651.219	-12.15
651.252	14.85
651.286	13.85
651.319	-15.15
651.352	-4.15
651.385	3.85
651.418	4.85
651.451	7.85
651.484	3.85
651.518	-8.15
651.551	15.85
651.584	-12.15
651.617	3.85
651.65	0.85
651.683	-0.15
651.716	-7.15
651.749	-7.15
651.783	1.85
651.816	-0.15
651.849	3.85
651.882	7.85
651.915	6.85
651.948	-4.15
651.981	-6.15
652.014	-18.15
652.047	-4.15
652.08	-25.15
652.114	-7.15
652.147	-1.15
652.18	3.85
652.213	23.85
652.246	-4.15
652.279	-1.15
652.312	3.85
652.345	-2.15
652.378	3.85
652.411	4.85
652.444	11.85
652.477	-9.15
652.51	-12.15
652.543	-19.15
652.576	-13.15
652.609	-16.15
652.642	0.85
652.675	4.85
652.709	-2.15
652.742	21.85
652.775	7.85
652.808	-4.15
652.841	-2.15
652.874	19.85
652.907	-5.15
652.94	2.85
652.973	-12.15
653.006	-2.15
653.039	0.85
653.072	-1.15
653.105	-2.15
653.138	-19.15
653.171	0.85
653.204	5.85
653.237	-12.15
653.27	10.85
653.303	13.85
653.336	7.85
653.368	-16.15
653.401	-4.15
653.434	-0.15
653.467	-5.15
653.5	-12.15
653.533	-8.15
653.566	-8.15
653.599	5.85
653.632	15.85
653.665	16.85
653.698	1.85
653.731	-6.15
653.764	-4.15
653.797	-8.15
653.83	4.85
653.863	1.85
653.896	-5.15
653.929	5.85
653.961	9.85
653.994	-12.15
654.027	-10.15
654.06	2.85
654.093	0.85
654.126	14.85
654.159	-14.15
654.192	-8.15
654.225	-17.15
654.258	9.85
654.29	5.85
654.323	0.85
654.356	-1.15
654.389	3.85
654.422	-14.15
654.455	-13.15
654.488	16.85
654.521	-7.15
654.553	-9.15
654.586	1.85
654.619	5.85
654.652	-3.15
654.685	1.85
654.718	7.85
654.751	-12.15
654.783	-4.15
654.816	24.85
654.849	3.85
654.882	-7.15
654.915	-19.15
654.948	-13.15
654.98	-11.15
655.013	12.85
655.046	1.85
655.079	-11.15
655.112	-2.15
655.144	-16.15
655.177	16.85
655.21	14.85
655.243	20.85
655.276	-0.15
655.308	-1.15
655.341	-3.15
655.374	3.85
655.407	-7.15
655.44	2.85
655.472	5.85
655.505	16.85
655.538	-2.15
655.571	-3.15
655.603	25.85
655.636	-7.15
655.669	9.85
655.702	-2.15
655.734	-2.15
655.767	19.85
655.8	18.85
655.833	23.85
655.865	25.85
655.898	10.85
655.931	36.85
655.964	43.85
655.996	52.85
656.029	74.85
656.062	52.85
656.095	66.85
656.127	64.85
656.16	100.85
656.193	118.85
656.225	186.85
656.258	279.85
656.291	521.85
656.324	1164.85
656.356	3506.85
656.389	7712.85
656.422	6207.85
656.454	2115.85
656.487	685.85
656.52	261.85
656.552	128.85
656.585	80.85
656.618	61.85
656.65	44.85
656.683	28.85
656.716	17.85
656.748	12.85
656.781	-8.15
656.814	-2.15
656.846	2.85
656.879	-12.15
656.912	14.85
656.944	-29.15
656.977	-10.15
657.01	-10.15
657.042	15.85
657.075	18.85
657.108	-16.15
657.14	3.85
657.173	19.85
657.205	18.85
657.238	6.85
657.271	2.85
657.303	-15.15
657.336	-7.15
657.369	-8.15
657.401	3.85
657.434	1.85
657.466	3.85
657.499	-5.15
657.532	-7.15
657.564	6.85
657.597	-12.15
657.629	-2.15
657.662	0.85
657.694	-0.15
657.727	-25.15
657.76	-3.15
657.792	-17.15
657.825	-10.15
657.857	-3.15
657.89	-1.15
657.922	3.85
657.955	-19.15
657.987	-7.15
658.02	17.85
658.053	8.85
658.085	-10.15
658.118	-7.15
658.15	4.85
658.183	22.85
658.215	3.85
658.248	-24.15
658.28	-1.15
658.313	11.85
658.345	-4.15
658.378	-3.15
658.41	-13.15
658.443	15.85
658.475	-0.15
658.508	-18.15
658.54	-16.15
658.573	-15.15
658.605	1.85
658.638	-4.15
658.67	9.85
658.703	11.85
658.735	-12.15
658.768	6.85
658.8	-6.15
658.833	13.85
658.865	5.85
658.898	-7.15
658.93	-17.15
658.963	-13.15
658.995	-7.15
659.028	9.85
659.06	-6.15
659.092	1.85
659.125	-8.15
659.157	-9.15
659.19	-7.15
659.222	-18.15
659.255	-1.15
659.287	-8.15
659.32	-5.15
659.352	-6.15
659.384	0.85
659.417	-0.15
659.449	3.85
659.482	11.85
659.514	-11.15
659.546	-15.15
659.579	-10.15
659.611	-0.15
659.644	-7.15
659.676	-11.15
659.708	8.85
659.741	-12.15
659.773	3.85
659.806	14.85
659.838	-9.15
659.87	-11.15
659.903	-2.15
659.935	-3.15
659.967	-10.15
660	-6.15
660.032	-27.15
660.065	-8.15
660.097	-8.15
660.129	-11.15
660.162	-18.15
660.194	4.85
660.226	2.85
660.259	2.85
660.291	2.85
660.323	-20.15
660.356	-15.15
660.388	-19.15
660.42	6.85
660.453	15.85
660.485	22.85
660.517	1.85
660.55	-0.15
660.582	-14.15
660.614	2.85
660.647	-0.15
660.679	-16.15
660.711	-8.15
660.743	-11.15
660.776	-8.15
660.808	9.85
660.84	-23.15
660.873	-9.15
660.905	0.85
660.937	6.85
660.969	-7.15
661.002	-0.15
661.034	30.85
661.066	-6.15
661.099	-10.15
661.131	3.85
661.163	4.85
661.195	8.85
661.228	-3.15
661.26	-9.15
661.292	-14.15
661.324	2.85
661.357	-2.15
661.389	1.85
661.421	7.85
661.453	-1.15
661.485	-7.15
661.518	11.85
661.55	5.85
661.582	-11.15
661.614	-15.15
661.647	-7.15
661.679	-9.15
661.711	-3.15
661.743	-13.15
661.775	1.85
661.808	11.85
661.84	-9.15
661.872	-5.15
661.904	3.85
661.936	-2.15
661.969	-14.15
662.001	-9.15
662.033	-3.15
662.065	-3.15
662.097	15.85
662.129	24.85
662.162	-10.15
662.194	-6.15
662.226	-14.15
662.258	-17.15
662.29	6.85
662.322	0.85
662.355	-6.15
662.387	23.85
662.419	7.85
662.451	14.85
662.483	12.85
662.515	1.85
662.547	5.85
662.58	-1.15
662.612	-16.15
662.644	-2.15
662.676	3.85
662.708	18.85
662.74	-2.15
662.772	3.85
662.804	3.85
662.836	11.85
662.869	-10.15
662.901	5.85
662.933	-7.15
662.965	20.85
662.997	24.85
663.029	-25.15
663.061	-16.15
663.093	-23.15
663.125	0.85
663.157	1.85
663.189	-6.15
663.221	4.85
663.254	-24.15
663.286	-17.15
663.318	-3.15
663.35	-15.15
663.382	3.85
663.414	7.85
663.446	10.85
663.478	-6.15
663.51	28.85
663.542	1.85
663.574	12.85
663.606	1.85
663.638	0.85
663.67	-2.15
663.702	-3.15
663.734	0.85
663.766	3.85
663.798	-12.15
663.83	6.85
663.862	10.85
663.894	2.85
663.926	-9.15
663.958	11.85
663.99	-8.15
664.022	-14.15
664.054	1.85
664.086	-13.15
664.118	-18.15
664.15	-15.15
664.182	-0.15
664.214	3.85
664.246	11.85
664.278	1.85
664.31	2.85
664.342	-13.15
664.374	-0.15
664.406	3.85
664.438	-6.15
664.47	21.85
664.502	-2.15
664.534	3.85
664.566	-14.15
664.598	10.85
664.63	-1.15
664.662	4.85
664.693	-10.15
664.725	-19.15
664.757	8.85
664.789	4.85
664.821	16.85
664.853	8.85
664.885	-4.15
664.917	-9.15
664.949	15.85
664.981	16.85
665.013	-5.15
665.045	-10.15
665.076	-0.15
665.108	-2.15
665.14	-19.15
665.172	-16.15
665.204	-12.15
665.236	-14.15
665.268	11.85
665.3	2.85
665.331	-4.15
665.363	1.85
665.395	-9.15
665.427	-7.15
665.459	-4.15
665.491	-4.15
665.523	-15.15
665.555	-16.15
665.586	-17.15
665.618	-12.15
665.65	-15.15
665.682	22.85
665.714	16.85
665.746	-3.15
665.777	-14.15
665.809	-3.15
665.841	-1.15
665.873	-18.15
665.905	9.85
665.937	-8.15
665.968	0.85
666	-5.15
666.032	-3.15
666.064	-1.15
666.096	3.85
666.127	1.85
666.159	-0.15
666.191	5.85
666.223	-5.15
666.255	-10.15
666.286	-2.15
666.318	1.85
666.35	4.85
666.382	0.85
666.413	0.85
666.445	-11.15
666.477	-18.15
666.509	-18.15
666.54	4.85
666.572	-3.15
666.604	8.85
666.636	-9.15
666.667	15.85
666.699	2.85
666.731	11.85
666.763	-10.15
666.794	2.85
666.826	-8.15
666.858	1.85
666.89	8.85
666.921	-8.15
666.953	1.85
666.985	13.85
667.017	16.85
667.048	-2.15
667.08	-23.15
667.112	-12.15
667.143	-14.15
667.175	10.85
667.207	0.85
667.238	4.85
667.27	1.85
667.302	0.85
667.334	4.85
667.365	16.85
667.397	-15.15
667.429	-14.15
667.46	-7.15
667.492	-15.15
667.524	-3.15
667.555	-11.15
667.587	1.85
667.619	-0.15
667.65	-15.15
667.682	5.85
667.714	-4.15
667.745	-21.15
667.777	-11.15
667.808	22.85
667.84	-3.15
667.872	-2.15
667.903	18.85
667.935	-2.15
667.967	-19.15
667.998	-8.15
668.03	9.85
668.061	5.85
668.093	-5.15
668.125	8.85
668.156	6.85
668.188	1.85
668.22	-29.15
668.251	-3.15
668.283	-4.15
668.314	20.85
668.346	-10.15
668.377	0.85
668.409	-8.15
668.441	-9.15
668.472	14.85
668.504	7.85
668.535	9.85
668.567	-3.15
668.599	-10.15
668.63	-0.15
668.662	-12.15
668.693	8.85
668.725	-0.15
668.756	15.85
668.788	-26.15
668.819	-7.15
668.851	-3.15
668.882	3.85
668.914	0.85
668.946	-12.15
668.977	-0.15
669.009	-17.15
669.04	-9.15
669.072	6.85
669.103	-9.15
669.135	-13.15
669.166	-8.15
669.198	-0.15
669.229	0.85
669.261	-4.15
669.292	5.85
669.324	1.85
669.355	1.85
669.387	8.85
669.418	-4.15
669.45	-22.15
669.481	-9.15
669.513	4.85
669.544	-1.15
669.576	-13.15
669.607	-4.15
669.639	7.85
669.67	5.85
669.701	-0.15
669.733	-14.15
669.764	-2.15
669.796	-4.15
669.827	-11.15
669.859	-11.15
669.89	4.85
669.922	24.85
669.953	-5.15
669.985	-3.15
670.016	-6.15
670.047	-8.15
670.079	0.85
670.11	3.85
670.142	-21.15
670.173	-3.15
670.204	-17.15
670.236	-1.15
670.267	-6.15
670.299	-3.15
670.33	-2.15
670.362	-0.15
670.393	-9.15
670.424	12.85
670.456	-10.15
670.487	-15.15
670.518	0.85
670.55	-1.15
670.581	8.85
670.613	13.85
670.644	-4.15
670.675	-10.15
670.707	-1.15
670.738	-16.15
670.769	-0.15
670.801	-13.15
670.832	5.85
670.864	-10.15
670.895	14.85
670.926	-10.15
670.958	-3.15
670.989	-7.15
671.02	-7.15
671.052	-11.15
671.083	-18.15
671.114	-20.15
671.146	14.85
671.177	-3.15
671.208	-18.15
671.24	-17.15
671.271	-6.15
671.302	-2.15
671.333	-6.15
671.365	-25.15
671.396	-6.15
671.427	1.85
671.459	-1.15
671.49	4.85
671.521	-7.15
671.553	4.85
671.584	13.85
671.615	-9.15
671.646	-11.15
671.678	-2.15
671.709	-15.15
671.74	-7.15
671.771	-13.15
671.803	-22.15
671.834	2.85
671.865	1.85
671.896	7.85
671.928	-1.15
671.959	-18.15
671.99	-15.15
672.021	-9.15
672.053	-0.15
672.084	8.85
672.115	5.85
672.146	-5.15
672.178	-22.15
672.209	-14.15
672.24	6.85
672.271	13.85
672.303	-4.15
672.334	-8.15
672.365	-13.15
672.396	2.85
672.427	-2.15
672.459	12.85
672.49	9.85
672.521	-0.15
672.552	-0.15
672.583	-1.15
672.615	-12.15
672.646	-3.15
672.677	-11.15
672.708	-7.15
672.739	-17.15
672.77	-4.15
672.802	-19.15
672.833	-5.15
672.864	-15.15
672.895	-6.15
672.926	2.85
672.957	0.85
672.989	-2.15
673.02	-0.15
673.051	-6.15
673.082	6.85
673.113	10.85
673.144	5.85
673.175	-7.15
673.206	2.85
673.238	-9.15
673.269	-12.15
673.3	-12.15
673.331	-1.15
673.362	-15.15
673.393	-15.15
673.424	3.85
673.455	23.85
673.487	-8.15
673.518	9.85
673.549	-8.15
673.58	-13.15
673.611	-14.15
673.642	4.85
673.673	-26.15
673.704	-6.15
673.735	-9.15
673.766	3.85
673.797	-13.15
673.828	-7.15
673.86	-11.15
673.891	-23.15
673.922	-13.15
673.953	-1.15
673.984	23.85
674.015	14.85
674.046	1.85
674.077	11.85
674.108	-6.15
674.139	-0.15
674.17	-8.15
674.201	-13.15
674.232	-0.15
674.263	-25.15
674.294	-31.15
674.325	-12.15
674.356	-1.15
674.387	-11.15
674.418	6.85
674.449	3.85
674.48	-25.15
674.511	-7.15
674.542	-2.15
674.573	-13.15
674.604	7.85
674.635	-10.15
674.666	-3.15
674.697	0.85
674.728	7.85
674.759	1.85
674.79	-1.15
674.821	-2.15
674.852	5.85
674.883	-16.15
674.914	4.85
674.945	-5.15
674.976	6.85
675.007	-4.15
675.038	-8.15
675.069	-23.15
675.1	-15.15
675.131	-0.15
675.162	-16.15
675.193	-4.15
675.224	-12.15
675.254	-2.15
675.285	-0.15
675.316	-0.15
675.347	-15.15
675.378	-16.15
675.409	-24.15
675.44	0.85
675.471	-3.15
675.502	-4.15
675.533	-2.15
675.564	-0.15
675.595	-12.15
675.625	5.85
675.656	5.85
675.687	2.85
675.718	-6.15
675.749	14.85
675.78	-15.15
675.811	-18.15
675.842	11.85
675.873	-11.15
675.903	-15.15
675.934	-1.15
675.965	-3.15
675.996	-18.15
676.027	10.85
676.058	-1.15
676.089	-16.15
676.119	-3.15
676.15	-8.15
676.181	0.85
676.212	-1.15
676.243	12.85
676.274	-1.15
676.304	5.85
676.335	-15.15
676.366	7.85
676.397	-12.15
676.428	1.85
676.459	-8.15
676.489	8.85
676.52	14.85
676.551	-1.15
676.582	-8.15
676.613	-5.15
676.643	-1.15
676.674	1.85
676.705	-8.15
676.736	-10.15
676.767	25.85
676.797	-10.15
676.828	-1.15
676.859	-1.15
676.89	-12.15
676.92	1.85
676.951	2.85
676.982	-2.15
677.013	-5.15
677.044	19.85
677.074	-8.15
677.105	-12.15
677.136	0.85
677.167	-9.15
677.197	1.85
677.228	-0.15
677.259	-19.15
677.289	2.85
677.32	-18.15
677.351	-10.15
677.382	-2.15
677.412	-11.15
677.443	-9.15
677.474	-0.15
677.505	-19.15
677.535	-7.15
677.566	-5.15
677.597	-3.15
677.627	-17.15
677.658	-4.15
677.689	-16.15
677.72	-11.15
677.75	-13.15
677.781	4.85
677.812	-3.15
677.842	1.85
677.873	3.85
677.904	-10.15
677.934	-8.15
677.965	-7.15
677.996	-11.15
678.026	-22.15
678.057	-2.15
678.088	-7.15
678.118	-19.15
678.149	-15.15
678.18	-9.15
678.21	13.85
678.241	-14.15
678.272	-11.15
678.302	-6.15
678.333	-5.15
678.363	2.85
678.394	3.85
678.425	-4.15
678.455	-7.15
678.486	-1.15
678.517	-8.15
678.547	2.85
678.578	-0.15
678.608	-4.15
678.639	9.85
678.67	-11.15
678.7	-8.15
678.731	-21.15
678.761	-4.15
678.792	6.85
678.823	12.85
678.853	-0.15
678.884	-17.15
678.914	4.85
678.945	-10.15
678.975	-8.15
679.006	-3.15
679.037	-13.15
679.067	31.85
679.098	4.85
679.128	4.85
679.159	-16.15
679.189	15.85
679.22	-16.15
679.25	7.85
679.281	-4.15
679.312	-10.15
679.342	-12.15
679.373	22.85
679.403	0.85
679.434	20.85
679.464	-0.15
679.495	-19.15
679.525	-3.15
679.556	-9.15
679.586	9.85
679.617	15.85
679.647	-3.15
679.678	-3.15
679.708	11.85
679.739	-5.15
679.769	-8.15
679.8	2.85
679.83	1.85
679.861	5.85
679.891	0.85
679.922	-3.15
679.952	-8.15
679.983	14.85
680.013	8.85
680.044	-4.15
680.074	4.85
680.105	-5.15
680.135	-7.15
680.165	-2.15
680.196	9.85
680.226	-9.15
680.257	6.85
680.287	-0.15
680.318	-4.15
680.348	-23.15
680.379	14.85
680.409	-4.15
680.439	-15.15
680.47	0.85
680.5	-1.15
680.531	1.85
680.561	-5.15
680.592	-11.15
680.622	5.85
680.652	5.85
680.683	3.85
680.713	7.85
680.744	-6.15
680.774	-7.15
680.804	4.85
680.835	-1.15
680.865	-17.15
680.896	14.85
680.926	17.85
680.956	7.85
680.987	-9.15
681.017	-15.15
681.047	1.85
681.078	-16.15
681.108	-7.15
681.139	-1.15
681.169	-3.15
681.199	-11.15
681.23	-5.15
681.26	-1.15
681.29	-3.15
681.321	3.85
681.351	0.85
681.381	-18.15
681.412	7.85
681.442	-6.15
681.472	6.85
681.503	8.85
681.533	0.85
681.563	-2.15
681.594	-24.15
681.624	0.85
681.654	-12.15
681.685	0.85
681.715	1.85
681.745	-7.15
681.775	-22.15
681.806	-2.15
681.836	-0.15
681.866	-7.15
681.897	0.85
681.927	12.85
681.957	-10.15
681.987	-15.15
682.018	-3.15
682.048	0.85
682.078	-6.15
682.109	18.85
682.139	6.85
682.169	3.85
682.199	-3.15
682.23	-15.15
682.26	-13.15
682.29	-24.15
682.32	9.85
682.351	-2.15
682.381	2.85
682.411	2.85
682.441	-10.15
682.472	-7.15
682.502	-2.15
682.532	-13.15
682.562	-7.15
682.592	2.85
682.623	10.85
682.653	-8.15
682.683	-8.15
682.713	10.85
682.743	-3.15
682.774	-2.15
682.804	-1.15
682.834	7.85
682.864	-1.15
682.894	-3.15
682.925	-2.15
682.955	-3.15
682.985	-7.15
683.015	4.85
683.045	7.85
683.076	-7.15
683.106	0.85
683.136	-2.15
683.166	-5.15
683.196	-6.15
683.226	-7.15
683.257	-1.15
683.287	0.85
683.317	-1.15
683.347	-8.15
683.377	-16.15
683.407	0.85
683.437	15.85
683.468	17.85
683.498	-6.15
683.528	1.85
683.558	-10.15
683.588	-11.15
683.618	-26.15
683.648	-13.15
683.678	0.85
683.708	10.85
683.739	-2.15
683.769	7.85
683.799	-5.15
683.829	-5.15
683.859	-8.15
683.889	-0.15
683.919	-7.15
683.949	-6.15
683.979	1.85
684.009	-13.15
684.039	-13.15
684.07	-18.15
684.1	5.85
684.13	-2.15
684.16	6.85
684.19	11.85
684.22	-5.15
684.25	2.85
684.28	-0.15
684.31	22.85
684.34	10.85
684.37	0.85
684.4	-9.15
684.43	-0.15
684.46	-3.15
684.49	3.85
684.52	-11.15
684.55	18.85
684.58	-3.15
684.61	-4.15
684.64	12.85
684.67	3.85
684.7	-0.15
684.73	8.85
684.76	10.85
684.79	25.85
684.82	17.85
684.85	3.85
684.88	2.85
684.91	0.85
684.94	-1.15
684.97	-9.15
685	-4.15
685.03	-14.15
685.06	-20.15
685.09	-13.15
685.12	2.85
685.15	-15.15
685.18	16.85
685.21	8.85
685.24	5.85
685.27	2.85
685.3	10.85
685.33	3.85
685.36	2.85
685.39	-3.15
685.42	0.85
685.45	-6.15
685.48	14.85
685.51	-13.15
685.54	13.85
685.569	0.85
685.599	5.85
685.629	4.85
685.659	-2.15
685.689	25.85
685.719	17.85
685.749	-6.15
685.779	4.85
685.809	4.85
685.839	-5.15
685.869	-1.15
685.898	13.85
685.928	1.85
685.958	-6.15
685.988	23.85
686.018	2.85
686.048	-4.15
686.078	-7.15
686.108	-3.15
686.137	-3.15
686.167	9.85
686.197	-6.15
686.227	-2.15
686.257	26.85
686.287	11.85
686.317	-0.15
686.346	-8.15
686.376	-12.15
686.406	-11.15
686.436	10.85
686.466	0.85
686.496	16.85
686.525	-2.15
686.555	-5.15
686.585	12.85
686.615	16.85
686.645	12.85
686.675	-7.15
686.704	2.85
686.734	2.85
686.764	5.85
686.794	14.85
686.824	-4.15
686.853	19.85
686.883	14.85
686.913	10.85
686.943	17.85
686.973	3.85
687.002	10.85
687.032	9.85
687.062	-7.15
687.092	0.85
687.121	-16.15
687.151	3.85
687.181	9.85
687.211	11.85
687.24	0.85
687.27	-0.15
687.3	-12.15
687.33	-2.15
687.359	-14.15
687.389	13.85
687.419	-11.15
687.449	1.85
687.478	-1.15
687.508	-2.15
687.538	-1.15
687.568	-8.15
687.597	1.85
687.627	-8.15
687.657	-12.15
687.686	13.85
687.716	22.85
687.746	1.85
687.776	-8.15
687.805	-3.15
687.835	8.85
687.865	10.85
687.894	0.85
687.924	-6.15
687.954	-7.15
687.983	3.85
688.013	2.85
688.043	14.85
688.072	-7.15
688.102	19.85
688.132	-3.15
688.161	8.85
688.191	4.85
688.221	30.85
688.25	-7.15
688.28	-10.15
688.31	0.85
688.339	4.85
688.369	-0.15
688.399	-6.15
688.428	-7.15
688.458	-12.15
688.488	-11.15
688.517	11.85
688.547	-10.15
688.576	34.85
688.606	7.85
688.636	-15.15
688.665	6.85
688.695	-2.15
688.725	-3.15
688.754	10.85
688.784	-4.15
688.813	-5.15
688.843	-2.15
688.873	-3.15
688.902	-15.15
688.932	3.85
688.961	3.85
688.991	4.85
689.02	2.85
689.05	-4.15
689.08	-5.15
689.109	1.85
689.139	9.85
689.168	-0.15
689.198	3.85
689.227	-5.15
689.257	2.85
689.287	-0.15
689.316	3.85
689.346	-7.15
689.375	-8.15
689.405	-0.15
689.434	-6.15
689.464	11.85
689.493	4.85
689.523	5.85
689.552	-7.15
689.582	-8.15
689.611	-0.15
689.641	-3.15
689.67	-7.15
689.7	13.85
689.73	1.85
689.759	-1.15
689.789	4.85
689.818	-1.15
689.848	1.85
689.877	18.85
689.906	7.85
689.936	-0.15
689.965	7.85
689.995	8.85
690.024	10.85
690.054	3.85
690.083	-8.15
690.113	-11.15
690.142	-0.15
690.172	4.85
690.201	-3.15
690.231	-14.15
690.26	21.85
690.29	13.85
690.319	19.85
690.348	-7.15
690.378	-12.15
690.407	11.85
690.437	13.85
690.466	8.85
690.496	0.85
690.525	6.85
690.555	3.85
690.584	-0.15
690.613	-2.15
690.643	3.85
690.672	19.85
690.702	-0.15
690.731	-4.15
690.76	-2.15
690.79	-8.15
690.819	14.85
690.849	15.85
690.878	-1.15
690.907	-11.15
690.937	3.85
690.966	-1.15
690.996	1.85
691.025	6.85
691.054	5.85
691.084	9.85
691.113	-2.15
691.142	4.85
691.172	13.85
691.201	22.85
691.23	-10.15
691.26	1.85
691.289	8.85
691.319	0.85
691.348	16.85
691.377	2.85
691.407	-3.15
691.436	-2.15
691.465	-4.15
691.495	-9.15
691.524	-0.15
691.553	-6.15
691.583	-2.15
691.612	27.85
691.641	-9.15
691.67	-9.15
691.7	-1.15
691.729	-8.15
691.758	1.85
691.788	0.85
691.817	-10.15
691.846	-8.15
691.876	-4.15
691.905	-6.15
691.934	1.85
691.963	11.85
691.993	-2.15
692.022	-20.15
692.051	-9.15
692.081	-1.15
692.11	9.85
692.139	3.85
692.168	13.85
692.198	28.85
692.227	7.85
692.256	-7.15
692.285	9.85
692.315	-3.15
692.344	7.85
692.373	-3.15
692.402	-22.15
692.432	-3.15
692.461	1.85
692.49	4.85
692.519	0.85
692.548	-0.15
692.578	-1.15
692.607	-8.15
692.636	-11.15
692.665	13.85
692.694	1.85
692.724	-3.15
692.753	6.85
692.782	-4.15
692.811	-5.15
692.84	-1.15
692.87	-1.15
692.899	-10.15
692.928	-12.15
692.957	18.85
692.986	16.85
693.016	1.85
693.045	3.85
693.074	10.85
693.103	10.85
693.132	2.85
693.161	-1.15
693.191	-6.15
693.22	-5.15
693.249	-1.15
693.278	-8.15
693.307	2.85
693.336	-10.15
693.365	-7.15
693.395	-8.15
693.424	-29.15
693.453	12.85
693.482	0.85
693.511	-0.15
693.54	-12.15
693.569	0.85
693.598	-1.15
693.628	8.85
693.657	12.85
693.686	17.85
693.715	19.85
693.744	12.85
693.773	18.85
693.802	10.85
693.831	-2.15
693.86	5.85
693.889	-9.15
693.919	-1.15
693.948	8.85
693.977	8.85
694.006	0.85
694.035	-2.15
694.064	0.85
694.093	9.85
694.122	1.85
694.151	-0.15
694.18	1.85
694.209	20.85
694.238	4.85
694.267	19.85
694.296	11.85
694.325	9.85
694.354	4.85
694.383	15.85
694.412	-9.15
694.441	-11.15
694.471	-8.15
694.5	-21.15
694.529	0.85
694.558	10.85
694.587	9.85
694.616	-6.15
694.645	8.85
694.674	11.85
694.703	0.85
694.732	-15.15
694.761	15.85
694.79	17.85
694.819	0.85
694.848	-3.15
694.877	0.85
694.906	20.85
694.935	-11.15
694.963	15.85
694.992	-3.15
695.021	7.85
695.05	13.85
695.079	5.85
695.108	-9.15
695.137	12.85
695.166	4.85
695.195	-9.15
695.224	-0.15
695.253	-2.15
695.282	7.85
695.311	5.85
695.34	4.85
695.369	14.85
695.398	-2.15
695.427	14.85
695.456	-9.15
695.485	-8.15
695.513	-1.15
695.542	-2.15
695.571	-2.15
695.6	0.85
695.629	5.85
695.658	5.85
695.687	6.85
695.716	7.85
695.745	18.85
695.774	-20.15
695.802	-16.15
695.831	4.85
695.86	10.85
695.889	-4.15
695.918	-9.15
695.947	-8.15
695.976	-5.15
696.005	0.85
696.033	5.85
696.062	4.85
696.091	-4.15
696.12	-8.15
696.149	8.85
696.178	-4.15
696.207	0.85
696.235	-31.15
696.264	-7.15
696.293	2.85
696.322	12.85
696.351	6.85
696.38	6.85
696.408	-4.15
696.437	-4.15
696.466	4.85
696.495	-8.15
696.524	2.85
696.553	4.85
696.581	-3.15
696.61	-6.15
696.639	-5.15
696.668	1.85
696.697	-22.15
696.725	5.85
696.754	19.85
696.783	-3.15
696.812	-1.15
696.84	9.85
696.869	10.85
696.898	-14.15
696.927	-14.15
696.956	14.85
696.984	-2.15
697.013	-7.15
697.042	-5.15
697.071	3.85
697.099	4.85
697.128	5.85
697.157	13.85
697.186	-3.15
697.214	0.85
697.243	-4.15
697.272	-5.15
697.301	5.85
697.329	9.85
697.358	-6.15
697.387	14.85
697.415	9.85
697.444	-2.15
697.473	0.85
697.502	-10.15
697.53	22.85
697.559	8.85
697.588	1.85
697.616	-0.15
697.645	-0.15
697.674	9.85
697.703	-1.15
697.731	-0.15
697.76	-12.15
697.789	-11.15
697.817	8.85
697.846	22.85
697.875	2.85
697.903	20.85
697.932	0.85
697.961	4.85
697.989	8.85
698.018	3.85
698.047	-8.15
698.075	3.85
698.104	4.85
698.133	-8.15
698.161	-1.15
698.19	16.85
698.218	4.85
698.247	7.85
698.276	2.85
698.304	8.85
698.333	2.85
698.362	0.85
698.39	-2.15
698.419	0.85
698.447	-24.15
698.476	9.85
698.505	22.85
698.533	3.85
698.562	-3.15
698.591	-0.15
698.619	-1.15
698.648	2.85
698.676	12.85
698.705	0.85
698.733	-16.15
698.762	-2.15
698.791	9.85
698.819	-5.15
698.848	7.85
698.876	18.85
698.905	4.85
698.933	2.85
698.962	-1.15
698.991	-3.15
699.019	-7.15
699.048	7.85
699.076	13.85
699.105	-11.15
699.133	-7.15
699.162	-8.15
699.19	12.85
699.219	3.85
699.248	-20.15
699.276	-4.15
699.305	-2.15
699.333	13.85
699.362	-6.15
699.39	14.85
699.419	-14.15
699.447	-2.15
699.476	0.85
699.504	-8.15
699.533	-2.15
699.561	-9.15
699.59	2.85
699.618	-7.15
699.647	-5.15
699.675	-2.15
699.704	3.85
699.732	-8.15
699.761	0.85
699.789	-19.15
699.818	6.85
699.846	-4.15
699.874	-13.15
699.903	-2.15
699.931	8.85
699.96	-6.15
699.988	-12.15
700.017	2.85
700.045	-1.15
700.074	-2.15
700.102	-8.15
700.13	-13.15
700.159	-4.15
700.187	1.85
700.216	-6.15
700.244	-3.15
700.273	23.85
700.301	12.85
700.329	2.85
700.358	1.85
700.386	9.85
700.415	12.85
700.443	10.85
700.472	-5.15
700.5	-2.15
700.528	-5.15
700.557	-7.15
700.585	-11.15
700.614	-0.15
700.642	24.85
700.67	5.85
700.699	3.85
700.727	-7.15
700.755	-3.15
700.784	-3.15
700.812	8.85
700.841	6.85
700.869	-14.15
700.897	-6.15
700.926	-2.15
700.954	-2.15
700.982	-3.15
701.011	15.85
701.039	4.85
701.067	-2.15
701.096	5.85
701.124	-6.15
701.152	-7.15
701.181	-8.15
701.209	-8.15
701.237	-1.15
701.266	-19.15
701.294	-16.15
701.322	-26.15
701.351	-9.15
701.379	-1.15
701.407	-8.15
701.435	-4.15
701.464	-2.15
701.492	13.85
701.52	-0.15
701.549	-14.15
701.577	-10.15
701.605	1.85
701.634	5.85
701.662	8.85
701.69	-15.15
701.718	-8.15
701.747	2.85
701.775	-10.15
701.803	-9.15
701.831	2.85
701.86	-4.15
701.888	1.85
701.916	-2.15
701.944	2.85
701.973	1.85
702.001	-0.15
702.029	-6.15
702.057	-6.15
702.086	-1.15
702.114	-15.15
702.142	-6.15
702.17	-10.15
702.199	1.85
702.227	5.85
702.255	-0.15
702.283	-15.15
702.311	-1.15
702.34	-12.15
702.368	-16.15
702.396	-0.15
702.424	-16.15
702.452	6.85
702.481	-6.15
702.509	-4.15
702.537	13.85
702.565	-0.15
702.593	-13.15
702.621	5.85
702.65	5.85
702.678	2.85
702.706	-6.15
702.734	6.85
702.762	11.85
702.79	4.85
702.819	-1.15
702.847	4.85
702.875	10.85
702.903	-4.15
702.931	-9.15
702.959	-2.15
702.988	-4.15
703.016	-11.15
703.044	0.85
703.072	7.85
703.1	-28.15
703.128	-1.15
703.156	0.85
703.184	-7.15
703.212	-2.15
703.241	2.85
703.269	-4.15
703.297	-13.15
703.325	-2.15
703.353	-13.15
703.381	-7.15
703.409	-1.15
703.437	-3.15
703.465	1.85
703.493	-15.15
703.522	2.85
703.55	2.85
703.578	-7.15
703.606	-10.15
703.634	-7.15
703.662	-11.15
703.69	-3.15
703.718	0.85
703.746	9.85
703.774	-5.15
703.802	12.85
703.83	-4.15
703.858	-15.15
703.886	-2.15
703.914	1.85
703.942	17.85
703.97	6.85
703.998	-20.15
704.027	2.85
704.055	6.85
704.083	-9.15
704.111	-5.15
704.139	-13.15
704.167	-2.15
704.195	6.85
704.223	5.85
704.251	-3.15
704.279	6.85
704.307	-4.15
704.335	-25.15
704.363	-19.15
704.391	-13.15
704.419	-5.15
704.447	-14.15
704.475	-3.15
704.503	-1.15
704.531	9.85
704.558	-4.15
704.586	-6.15
704.614	-9.15
704.642	-2.15
704.67	-16.15
704.698	-14.15
704.726	2.85
704.754	5.85
704.782	-8.15
704.81	-3.15
704.838	12.85
704.866	1.85
704.894	-16.15
704.922	-3.15
704.95	-9.15
704.978	7.85
705.006	10.85
705.034	1.85
705.061	-1.15
705.089	-11.15
705.117	-21.15
705.145	0.85
705.173	-9.15
705.201	-5.15
705.229	1.85
705.257	6.85
705.285	-7.15
705.313	-3.15
705.34	1.85
705.368	-22.15
705.396	3.85
705.424	2.85
705.452	-16.15
705.48	2.85
705.508	-1.15
705.536	-0.15
705.563	7.85
705.591	0.85
705.619	1.85
705.647	8.85
705.675	-0.15
705.703	-9.15
705.731	-6.15
705.758	5.85
705.786	6.85
705.814	23.85
705.842	25.85
705.87	16.85
705.898	10.85
705.925	-3.15
705.953	0.85
705.981	-20.15
706.009	-6.15
706.037	-9.15
706.065	7.85
706.092	-3.15
706.12	0.85
706.148	5.85
706.176	-3.15
706.204	9.85
706.231	0.85
706.259	-7.15
706.287	-3.15
706.315	2.85
706.342	-11.15
706.37	11.85
706.398	7.85
706.426	-4.15
706.454	-17.15
706.481	0.85
706.509	-0.15
706.537	-9.15
706.565	-9.15
706.592	7.85
706.62	-12.15
706.648	-9.15
706.676	-9.15
706.703	1.85
706.731	-8.15
706.759	-19.15
706.787	-8.15
706.814	-6.15
706.842	-9.15
706.87	-12.15
706.897	1.85
706.925	-2.15
706.953	-1.15
706.981	9.85
707.008	7.85
707.036	0.85
707.064	-6.15
707.091	-15.15
707.119	3.85
707.147	-23.15
707.174	-9.15
707.202	5.85
707.23	-8.15
707.258	-0.15
707.285	-10.15
707.313	-4.15
707.341	-9.15
707.368	-11.15
707.396	5.85
707.424	14.85
707.451	-4.15
707.479	-7.15
707.507	4.85
707.534	-7.15
707.562	-5.15
707.59	-3.15
707.617	-12.15
707.645	-11.15
707.672	-14.15
707.7	-9.15
707.728	6.85
707.755	-1.15
707.783	3.85
707.811	-3.15
707.838	-0.15
707.866	7.85
707.893	-15.15
707.921	2.85
707.949	-33.15
707.976	-13.15
708.004	-2.15
708.031	-17.15
708.059	-20.15
708.087	6.85
708.114	-8.15
708.142	-9.15
708.169	3.85
708.197	-19.15
708.225	-19.15
708.252	-8.15
708.28	5.85
708.307	-6.15
708.335	-10.15
708.362	-7.15
708.39	-8.15
708.418	-13.15
708.445	-17.15
708.473	-13.15
708.5	-19.15
708.528	7.85
708.555	3.85
708.583	-11.15
708.61	-16.15
708.638	-10.15
708.665	-10.15
708.693	-2.15
708.72	6.85
708.748	-6.15
708.776	1.85
708.803	-0.15
708.831	7.85
708.858	7.85
708.886	10.85
708.913	-2.15
708.941	-5.15
708.968	-6.15
708.996	-10.15
709.023	23.85
709.051	-5.15
709.078	-4.15
709.105	1.85
709.133	-5.15
709.16	-7.15
709.188	9.85
709.215	14.85
709.243	-2.15
709.27	-8.15
709.298	-6.15
709.325	0.85
709.353	5.85
709.38	-3.15
709.408	4.85
709.435	-5.15
709.462	2.85
709.49	-2.15
709.517	0.85
709.545	1.85
709.572	-8.15
709.6	-4.15
709.627	-0.15
709.655	-6.15
709.682	-6.15
709.709	6.85
709.737	2.85
709.764	-9.15
709.792	-4.15
709.819	-1.15
709.846	7.85
709.874	10.85
709.901	15.85
709.929	20.85
709.956	8.85
709.983	-7.15
710.011	-9.15
710.038	-7.15
710.066	6.85
710.093	21.85
710.12	-3.15
710.148	6.85
710.175	-29.15
710.202	-24.15
710.23	1.85
710.257	-5.15
710.284	-0.15
710.312	-4.15
710.339	-3.15
710.366	-1.15
710.394	-1.15
710.421	-6.15
710.448	3.85
710.476	-5.15
710.503	-9.15
710.53	4.85
710.558	30.85
710.585	-8.15
710.612	-9.15
710.64	3.85
710.667	-6.15
710.694	-11.15
710.722	-3.15
710.749	6.85
710.776	0.85
710.804	13.85
710.831	-4.15
710.858	-4.15
710.885	-14.15
710.913	-2.15
710.94	31.85
710.967	-5.15
710.995	-4.15
711.022	-22.15
711.049	1.85
711.076	-18.15
711.104	-2.15
711.131	-24.15
711.158	-1.15
711.185	-8.15
711.213	-8.15
711.24	-3.15
711.267	-8.15
711.294	-2.15
711.322	13.85
711.349	-0.15
711.376	-2.15
711.403	11.85
711.431	0.85
711.458	-9.15
711.485	-20.15
711.512	7.85
711.54	7.85
711.567	3.85
711.594	-0.15
711.621	-10.15
711.648	-15.15
711.676	-3.15
711.703	-8.15
711.73	-10.15
711.757	4.85
711.784	-2.15
711.812	11.85
711.839	-12.15
711.866	1.85
711.893	-19.15
711.92	0.85
711.947	3.85
711.975	0.85
712.002	-8.15
712.029	-2.15
712.056	-9.15
712.083	7.85
712.11	-15.15
712.138	13.85
712.165	4.85
712.192	-0.15
712.219	-9.15
712.246	-4.15
712.273	-17.15
712.3	-8.15
712.328	-1.15
712.355	4.85
712.382	-2.15
712.409	25.85
712.436	-8.15
712.463	2.85
712.49	22.85
712.517	2.85
712.544	-0.15
712.572	-1.15
712.599	-12.15
712.626	-8.15
712.653	-7.15
712.68	-10.15
712.707	19.85
712.734	8.85
712.761	-11.15
712.788	-3.15
712.815	7.85
712.842	12.85
712.87	7.85
712.897	-20.15
712.924	-8.15
712.951	-7.15
712.978	-3.15
713.005	-7.15
713.032	3.85
713.059	-15.15
713.086	-3.15
713.113	-6.15
713.14	2.85
713.167	1.85
713.194	-4.15
713.221	-8.15
713.248	14.85
713.275	-11.15
713.302	-2.15
713.329	-3.15
713.356	-11.15
713.383	-2.15
713.41	4.85
713.437	-11.15
713.464	-9.15
713.491	-1.15
713.518	-18.15
713.545	0.85
713.572	-5.15
713.599	1.85
713.626	-12.15
713.653	11.85
713.68	-4.15
713.707	-8.15
713.734	-12.15
713.761	-10.15
713.788	-7.15
713.815	-0.15
713.842	-1.15
713.869	2.85
713.896	9.85
713.923	-11.15
713.95	-2.15
713.977	-4.15
714.004	-18.15
714.031	-15.15
714.058	-16.15
714.085	-8.15
714.112	15.85
714.139	-6.15
714.165	-27.15
714.192	-17.15
714.219	0.85
714.246	2.85
714.273	-3.15
714.3	2.85
714.327	0.85
714.354	-2.15
714.381	-10.15
714.408	7.85
714.435	-13.15
714.461	-0.15
714.488	2.85
714.515	-3.15
714.542	-15.15
714.569	-9.15
714.596	-22.15
714.623	-15.15
714.65	-10.15
714.677	3.85
714.703	-2.15
714.73	-0.15
714.757	-6.15
714.784	-2.15
714.811	-5.15
714.838	1.85
714.865	-14.15
714.891	-3.15
714.918	-2.15
714.945	-4.15
714.972	-7.15
714.999	0.85
715.026	-1.15
715.052	3.85
715.079	-4.15
715.106	3.85
715.133	1.85
715.16	-13.15
715.187	-9.15
715.213	-8.15
715.24	-14.15
715.267	-5.15
715.294	-1.15
715.321	-13.15
715.347	-8.15
715.374	-14.15
715.401	-12.15
715.428	-0.15
715.455	-3.15
715.481	-12.15
715.508	3.85
715.535	-1.15
715.562	23.85
715.588	6.85
715.615	1.85
715.642	2.85
715.669	-5.15
715.695	-16.15
715.722	-26.15
715.749	4.85
715.776	4.85
715.802	6.85
715.829	-13.15
715.856	-9.15
715.883	11.85
715.909	1.85
715.936	-7.15
715.963	-14.15
715.99	-5.15
716.016	2.85
716.043	-1.15
716.07	-12.15
716.096	-12.15
716.123	-2.15
716.15	-10.15
716.177	-12.15
716.203	15.85
716.23	7.85
716.257	-2.15
716.283	-2.15
716.31	-6.15
716.337	-13.15
716.363	-14.15
716.39	-4.15
716.417	-6.15
716.443	-0.15
716.47	7.85
716.497	-4.15
716.523	8.85
716.55	12.85
716.577	10.85
716.603	0.85
716.63	2.85
716.657	5.85
716.683	-7.15
716.71	3.85
716.737	-9.15
716.763	3.85
716.79	-3.15
716.817	-0.15
716.843	-3.15
716.87	-8.15
716.897	5.85
716.923	5.85
716.95	-12.15
716.976	-20.15
717.003	-14.15
717.03	1.85
717.056	4.85
717.083	-1.15
717.109	3.85
717.136	3.85
717.163	-8.15
717.189	-11.15
717.216	-7.15
717.242	2.85
717.269	-8.15
717.296	-3.15
717.322	-4.15
717.349	-6.15
717.375	8.85
717.402	-15.15
717.428	5.85
717.455	2.85
717.481	11.85
717.508	2.85
717.535	-1.15
717.561	-3.15
717.588	-9.15
717.614	-2.15
717.641	-2.15
717.667	-15.15
717.694	-5.15
717.72	-14.15
717.747	0.85
717.773	-12.15
717.8	7.85
717.826	6.85
717.853	-3.15
717.88	-4.15
717.906	-9.15
717.933	-6.15
717.959	5.85
717.986	-18.15
718.012	-6.15
718.039	-12.15
718.065	6.85
718.092	-8.15
718.118	-11.15
718.144	-4.15
718.171	9.85
718.197	15.85
718.224	-0.15
718.25	-11.15
718.277	-1.15
718.303	1.85
718.33	-15.15
718.356	-17.15
718.383	-17.15
718.409	-3.15
718.436	-6.15
718.462	2.85
718.489	-5.15
718.515	4.85
718.541	-5.15
718.568	-2.15
718.594	0.85
718.621	-11.15
718.647	-2.15
718.674	13.85
718.7	2.85
718.726	-10.15
718.753	3.85
718.779	-2.15
718.806	-9.15
718.832	-4.15
718.858	-23.15
718.885	-13.15
718.911	-5.15
718.938	-4.15
718.964	-19.15
718.99	2.85
719.017	3.85
719.043	1.85
719.07	-1.15
719.096	-4.15
719.122	22.85
719.149	-3.15
719.175	-0.15
719.201	1.85
719.228	6.85
719.254	15.85
719.281	-8.15
719.307	0.85
719.333	-3.15
719.36	6.85
719.386	1.85
719.412	-7.15
719.439	-16.15
719.465	-16.15
719.491	-13.15
719.518	1.85
719.544	-9.15
719.57	5.85
719.597	1.85
719.623	-10.15
719.649	4.85
719.675	4.85
719.702	4.85
719.728	-0.15
719.754	-11.15
719.781	-15.15
719.807	-11.15
719.833	-4.15
719.86	-16.15
719.886	-13.15
719.912	22.85
719.938	3.85
719.965	-1.15
719.991	-4.15
720.017	-6.15
720.044	0.85
720.07	1.85
720.096	-0.15
720.122	-4.15
720.149	5.85
720.175	9.85
720.201	12.85
720.227	-11.15
720.254	-10.15
720.28	-13.15
720.306	-4.15
720.332	4.85
720.359	10.85
720.385	7.85
720.411	0.85
720.437	2.85
720.463	-2.15
720.49	15.85
720.516	-16.15
720.542	-11.15
720.568	-1.15
720.595	-2.15
720.621	0.85
720.647	-4.15
720.673	11.85
720.699	-11.15
720.725	3.85
720.752	11.85
720.778	-7.15
720.804	-15.15
720.83	-2.15
720.856	-1.15
720.883	-19.15
720.909	2.85
720.935	-0.15
720.961	7.85
720.987	-4.15
721.013	-11.15
721.04	-6.15
721.066	-4.15
721.092	-0.15
721.118	5.85
721.144	-3.15
721.17	-1.15
721.196	-9.15
721.223	-16.15
721.249	0.85
721.275	9.85
721.301	-5.15
721.327	-3.15
721.353	5.85
721.379	-10.15
721.405	-7.15
721.432	17.85
721.458	-2.15
721.484	15.85
721.51	-11.15
721.536	-5.15
721.562	3.85
721.588	-8.15
721.614	-14.15
721.64	-12.15
721.666	-10.15
721.693	-9.15
721.719	-2.15
721.745	-15.15
721.771	-2.15
721.797	-4.15
721.823	-8.15
721.849	10.85
721.875	1.85
721.901	3.85
721.927	5.85
721.953	-3.15
721.979	5.85
722.005	7.85
722.031	5.85
722.057	10.85
722.083	0.85
722.109	-4.15
722.135	-18.15
722.161	0.85
722.187	-6.15
722.214	-4.15
722.24	1.85
722.266	-10.15
722.292	3.85
722.318	17.85
722.344	0.85
722.37	-3.15
722.396	2.85
722.422	-12.15
722.448	-16.15
722.474	-12.15
722.5	-2.15
722.526	-3.15
722.552	3.85
722.578	-7.15
722.603	-2.15
722.629	-6.15
722.655	-6.15
722.681	-10.15
722.707	-8.15
722.733	-5.15
722.759	-2.15
722.785	-2.15
722.811	-4.15
722.837	2.85
722.863	12.85
722.889	10.85
722.915	-10.15
722.941	-20.15
722.967	-7.15
722.993	4.85
723.019	-11.15
723.045	-3.15
723.071	-0.15
723.097	2.85
723.122	11.85
723.148	-3.15
723.174	0.85
723.2	-7.15
723.226	-8.15
723.252	-8.15
723.278	-4.15
723.304	-10.15
723.33	2.85
723.356	-8.15
723.381	-9.15
723.407	-4.15
723.433	9.85
723.459	-1.15
723.485	5.85
723.511	6.85
723.537	-16.15
723.563	-0.15
723.588	7.85
723.614	-4.15
723.64	-1.15
723.666	2.85
723.692	-2.15
723.718	-10.15
723.744	-18.15
723.769	5.85
723.795	-7.15
723.821	5.85
723.847	-8.15
723.873	-6.15
723.899	3.85
723.924	-0.15
723.95	-14.15
723.976	-10.15
724.002	-4.15
724.028	2.85
724.053	-15.15
724.079	-14.15
724.105	-19.15
724.131	-19.15
724.157	-10.15
724.182	-11.15
724.208	-10.15
724.234	-12.15
724.26	-19.15
724.286	-7.15
724.311	-10.15
724.337	-11.15
724.363	-10.15
724.389	8.85
724.415	-6.15
724.44	17.85
724.466	2.85
724.492	-0.15
724.518	5.85
724.543	-8.15
724.569	-8.15
724.595	1.85
724.621	-1.15
724.646	-26.15
724.672	-15.15
724.698	-8.15
724.723	-7.15
724.749	-12.15
724.775	-1.15
724.801	-9.15
724.826	-10.15
724.852	-6.15
724.878	-7.15
724.904	-20.15
724.929	-6.15
724.955	-14.15
724.981	-0.15
725.006	3.85
725.032	1.85
725.058	-2.15
725.083	-14.15
725.109	-8.15
725.135	-0.15
725.161	4.85
725.186	-13.15
725.212	-8.15
725.238	-15.15
725.263	-3.15
725.289	-9.15
725.315	-15.15
725.34	3.85
725.366	11.85
725.392	-3.15
725.417	-15.15
725.443	7.85
725.468	5.85
725.494	0.85
725.52	20.85
725.545	-4.15
725.571	-0.15
725.597	11.85
725.622	12.85
725.648	3.85
725.674	1.85
725.699	-7.15
725.725	-1.15
725.75	19.85
725.776	-11.15
725.802	7.85
725.827	15.85
725.853	3.85
725.878	2.85
725.904	13.85
725.93	-3.15
725.955	-16.15
725.981	-2.15
726.006	-7.15
726.032	-11.15
726.057	-10.15
726.083	-12.15
726.109	4.85
726.134	-5.15
726.16	5.85
726.185	-4.15
726.211	-6.15
726.236	0.85
726.262	-6.15
726.288	-7.15
726.313	-6.15
726.339	15.85
726.364	-5.15
726.39	6.85
726.415	-4.15
726.441	-1.15
726.466	-6.15
726.492	0.85
726.517	-3.15
726.543	-0.15
726.568	-10.15
726.594	-14.15
726.619	-3.15
726.645	-1.15
726.67	-4.15
726.696	-8.15
726.721	-11.15
726.747	-15.15
726.772	-3.15
726.798	-3.15
726.823	3.85
726.849	-7.15
726.874	-9.15
726.9	22.85
726.925	-6.15
726.951	-3.15
726.976	1.85
727.002	-4.15
727.027	-9.15
727.053	6.85
727.078	-4.15
727.104	-0.15
727.129	-27.15
727.155	-1.15
727.18	16.85
727.205	-0.15
727.231	-6.15
727.256	0.85
727.282	-3.15
727.307	10.85
727.333	1.85
727.358	-6.15
727.383	-16.15
727.409	-14.15
727.434	-11.15
727.46	-11.15
727.485	5.85
727.511	-2.15
727.536	-19.15
727.561	-8.15
727.587	-6.15
727.612	0.85
727.637	-4.15
727.663	-18.15
727.688	10.85
727.714	-1.15
727.739	-10.15
727.764	-4.15
727.79	4.85
727.815	7.85
727.841	13.85
727.866	2.85
727.891	-9.15
727.917	-13.15
727.942	-7.15
727.967	-6.15
727.993	-16.15
728.018	7.85
728.043	5.85
728.069	-8.15
728.094	-6.15
728.119	-3.15
728.145	4.85
728.17	4.85
728.195	-4.15
728.221	2.85
728.246	0.85
728.271	-7.15
728.297	6.85
728.322	-4.15
728.347	-9.15
728.373	9.85
728.398	12.85
728.423	-6.15
728.448	-8.15
728.474	-8.15
728.499	9.85
728.524	-11.15
728.55	-24.15
728.575	-6.15
728.6	12.85
728.625	1.85
728.651	1.85
728.676	-1.15
728.701	7.85
728.727	4.85
728.752	-4.15
728.777	-0.15
728.802	0.85
728.828	2.85
728.853	-18.15
728.878	-8.15
728.903	-13.15
728.929	-20.15
728.954	-18.15
728.979	-3.15
729.004	-11.15
729.03	-10.15
729.055	-2.15
729.08	-14.15
729.105	-7.15
729.13	0.85
729.156	4.85
729.181	-10.15
729.206	-7.15
729.231	-10.15
729.256	7.85
729.282	3.85
729.307	-14.15
729.332	-15.15
729.357	-7.15
729.382	-6.15
729.408	-8.15
729.433	-4.15
729.458	-11.15
729.483	6.85
729.508	17.85
729.533	-0.15
729.559	-13.15
729.584	-15.15
729.609	-0.15
729.634	-0.15
729.659	-0.15
729.684	-6.15
729.71	30.85
729.735	13.85
729.76	-14.15
729.785	2.85
729.81	4.85
729.835	-7.15
729.86	-6.15
729.886	10.85
729.911	-9.15
729.936	-13.15
729.961	-0.15
729.986	-32.15
730.011	-4.15
730.036	-6.15
730.061	-2.15
730.086	-9.15
730.112	-10.15
730.137	0.85
730.162	0.85
730.187	-11.15
730.212	-0.15
730.237	-6.15
730.262	-9.15
730.287	2.85
730.312	23.85
730.337	-7.15
730.362	2.85
730.387	7.85
730.413	-10.15
730.438	-12.15
730.463	-8.15
730.488	0.85
730.513	-0.15
730.538	-8.15
730.563	5.85
730.588	12.85
730.613	4.85
730.638	-18.15
730.663	-6.15
730.688	19.85
730.713	6.85
730.738	-1.15
730.763	0.85
730.788	-18.15
730.813	4.85
730.838	-9.15
730.863	-7.15
730.888	-11.15
730.913	-4.15
730.938	-11.15
730.963	-15.15
730.988	-5.15
731.013	13.85
731.038	-2.15
731.063	-18.15
731.088	1.85
731.113	-16.15
731.138	-7.15
731.163	-13.15
731.188	-6.15
731.213	7.85
731.238	4.85
731.263	-10.15
731.288	-0.15
731.313	5.85
731.338	-2.15
731.363	-0.15
731.388	-10.15
731.413	12.85
731.438	4.85
731.463	8.85
731.487	2.85
731.512	-6.15
731.537	2.85
731.562	11.85
731.587	2.85
731.612	-6.15
731.637	-15.15
731.662	-16.15
731.687	-8.15
731.712	-16.15
731.737	11.85
731.762	5.85
731.786	-4.15
731.811	5.85
731.836	17.85
731.861	0.85
731.886	-5.15
731.911	17.85
731.936	13.85
731.961	-9.15
731.986	-14.15
732.01	-1.15
732.035	7.85
732.06	7.85
732.085	-16.15
732.11	-4.15
732.135	-17.15
732.16	-6.15
732.184	-3.15
732.209	-4.15
732.234	3.85
732.259	-8.15
732.284	6.85
732.309	0.85
732.334	0.85
732.358	-6.15
732.383	-11.15
732.408	-3.15
732.433	-4.15
732.458	0.85
732.482	-2.15
732.507	-14.15
732.532	-15.15
732.557	-3.15
732.582	-0.15
732.607	-14.15
732.631	-13.15
732.656	4.85
732.681	-6.15
732.706	-12.15
732.73	-0.15
732.755	1.85
732.78	-3.15
732.805	11.85
732.83	3.85
732.854	2.85
732.879	5.85
732.904	-16.15
732.929	-3.15
732.953	-5.15
732.978	-1.15
733.003	-17.15
733.028	-10.15
733.052	-15.15
733.077	-0.15
733.102	19.85
733.127	-14.15
733.151	-2.15
733.176	7.85
733.201	-3.15
733.226	-10.15
733.25	-11.15
733.275	-12.15
733.3	15.85
733.324	9.85
733.349	0.85
733.374	12.85
733.399	-9.15
733.423	-6.15
733.448	-13.15
733.473	-1.15
733.497	-18.15
733.522	-12.15
733.547	-5.15
733.571	10.85
733.596	-4.15
733.621	-4.15
733.646	-11.15
733.67	3.85
733.695	-19.15
733.72	-2.15
733.744	10.85
733.769	-1.15
733.794	9.85
733.818	-1.15
733.843	-9.15
733.867	-24.15
733.892	-29.15
733.917	-10.15
733.941	2.85
733.966	-8.15
733.991	-12.15
734.015	16.85
734.04	-2.15
734.065	2.85
734.089	0.85
734.114	-2.15
734.138	-4.15
734.163	-3.15
734.188	9.85
734.212	8.85
734.237	2.85
734.261	-0.15
734.286	0.85
734.311	9.85
734.335	0.85
734.36	-6.15
734.384	-4.15
734.409	-10.15
734.434	-4.15
734.458	-0.15
734.483	-3.15
734.507	-14.15
734.532	-6.15
734.556	3.85
734.581	12.85
734.606	-4.15
734.63	4.85
734.655	-1.15
734.679	9.85
734.704	-1.15
734.728	-16.15
734.753	-9.15
734.777	-2.15
734.802	-3.15
734.826	6.85
734.851	0.85
734.876	21.85
734.9	17.85
734.925	12.85
734.949	1.85
734.974	-7.15
734.998	5.85
735.023	-8.15
735.047	-3.15
735.072	7.85
735.096	10.85
735.121	-7.15
735.145	-10.15
735.17	-2.15
735.194	-6.15
735.219	-5.15
735.243	-3.15
735.268	-10.15
735.292	-4.15
735.317	-5.15
735.341	-4.15
735.365	-15.15
735.39	21.85
735.414	-7.15
735.439	-0.15
735.463	-3.15
735.488	13.85
735.512	-3.15
735.537	-8.15
735.561	-11.15
735.586	-11.15
735.61	3.85
735.634	-4.15
735.659	-6.15
735.683	2.85
735.708	-8.15
735.732	1.85
735.757	4.85
735.781	5.85
735.805	7.85
735.83	-25.15
735.854	-3.15
735.879	-10.15
735.903	3.85
735.927	-3.15
735.952	14.85
735.976	0.85
736.001	-9.15
736.025	-4.15
736.049	-4.15
736.074	-6.15
736.098	6.85
736.123	-0.15
736.147	-3.15
736.171	6.85
736.196	1.85
736.22	-15.15
736.244	3.85
736.269	6.85
736.293	-3.15
736.317	9.85
736.342	-5.15
736.366	5.85
736.39	16.85
736.415	-5.15
736.439	-11.15
736.463	9.85
736.488	-0.15
736.512	1.85
736.536	-4.15
736.561	7.85
736.585	-0.15
736.609	-0.15
736.634	-10.15
736.658	-4.15
736.682	-13.15
736.707	-20.15
736.731	-6.15
736.755	2.85
736.78	8.85
736.804	2.85
736.828	15.85
736.852	-4.15
736.877	0.85
736.901	-10.15
736.925	7.85
736.949	-0.15
736.974	-1.15
736.998	-16.15
737.022	-6.15
737.047	-15.15
737.071	-13.15
737.095	15.85
737.119	24.85
737.144	8.85
737.168	-5.15
737.192	-9.15
737.216	4.85
737.241	-7.15
737.265	-6.15
737.289	-7.15
737.313	-0.15
737.337	16.85
737.362	-7.15
737.386	2.85
737.41	-4.15
737.434	8.85
737.459	5.85
737.483	2.85
737.507	5.85
737.531	1.85
737.555	11.85
737.58	-1.15
737.604	6.85
737.628	-4.15
737.652	-9.15
737.676	-2.15
737.701	2.85
737.725	4.85
737.749	16.85
737.773	13.85
737.797	-1.15
737.821	7.85
737.846	1.85
737.87	31.85
737.894	5.85
737.918	-8.15
737.942	-7.15
737.966	21.85
737.99	2.85
738.015	15.85
738.039	8.85
738.063	-6.15
738.087	16.85
738.111	5.85
738.135	16.85
738.159	-5.15
738.184	-13.15
738.208	4.85
738.232	0.85
738.256	12.85
738.28	8.85
738.304	12.85
738.328	-1.15
738.352	2.85
738.376	-2.15
738.4	-1.15
738.425	6.85
738.449	3.85
738.473	15.85
738.497	4.85
738.521	-3.15
738.545	13.85
738.569	0.85
738.593	-1.15
738.617	-14.15
738.641	4.85
738.665	7.85
738.689	2.85
738.713	-6.15
738.737	-14.15
738.762	15.85
738.786	7.85
738.81	-8.15
738.834	20.85
738.858	-4.15
738.882	2.85
738.906	-7.15
738.93	-10.15
738.954	-11.15
738.978	9.85
739.002	-22.15
739.026	1.85
739.05	-7.15
739.074	-3.15
739.098	-2.15
739.122	12.85
739.146	-2.15
739.17	20.85
739.194	7.85
739.218	-5.15
739.242	-0.15
739.266	1.85
739.29	16.85
739.314	8.85
739.338	-1.15
739.362	0.85
739.386	2.85
739.41	-19.15
739.434	-17.15
739.458	15.85
739.482	10.85
739.506	8.85
739.53	-8.15
739.554	15.85
739.577	-11.15
739.601	4.85
739.625	-20.15
739.649	-2.15
739.673	-2.15
739.697	8.85
739.721	4.85
739.745	0.85
739.769	12.85
739.793	7.85
739.817	6.85
739.841	4.85
739.865	4.85
739.889	-7.15
739.912	6.85
739.936	-7.15
739.96	-1.15
739.984	10.85
740.008	-8.15
740.032	-14.15
740.056	-5.15
740.08	-11.15
740.104	-0.15
740.127	-2.15
740.151	5.85
740.175	15.85
740.199	-7.15
740.223	43.85
740.247	8.85
740.271	3.85
740.295	-16.15
740.318	-22.15
740.342	-20.15
740.366	-14.15
740.39	-1.15
740.414	-17.15
740.438	-7.15
740.461	14.85
740.485	-6.15
740.509	-15.15
740.533	-5.15
740.557	-6.15
740.581	6.85
740.604	0.85
740.628	-10.15
740.652	3.85
740.676	-4.15
740.7	1.85
740.723	-14.15
740.747	-4.15
740.771	7.85
740.795	-4.15
740.819	2.85
740.842	1.85
740.866	-1.15
740.89	-7.15
740.914	-6.15
740.938	-5.15
740.961	9.85
740.985	-2.15
741.009	5.85
741.033	15.85
741.056	-3.15
741.08	-11.15
741.104	-5.15
741.128	6.85
741.151	12.85
741.175	7.85
741.199	-3.15
741.223	-2.15
741.246	-7.15
741.27	-0.15
741.294	5.85
741.318	-12.15
741.341	-0.15
741.365	-10.15
741.389	-1.15
741.413	20.85
741.436	-2.15
741.46	-2.15
741.484	9.85
741.507	-10.15
741.531	13.85
741.555	6.85
741.579	5.85
741.602	-2.15
741.626	14.85
741.65	-3.15
741.673	-0.15
741.697	5.85
741.721	-11.15
741.744	-9.15
741.768	1.85
741.792	-1.15
741.815	-6.15
741.839	4.85
741.863	11.85
741.886	1.85
741.91	11.85
741.934	4.85
741.957	-9.15
741.981	17.85
742.005	5.85
742.028	-11.15
742.052	-17.15
742.075	7.85
742.099	10.85
742.123	-14.15
742.146	8.85
742.17	-2.15
742.194	-15.15
742.217	-7.15
742.241	-10.15
742.264	-3.15
742.288	13.85
742.312	5.85
742.335	-3.15
742.359	-4.15
742.382	4.85
742.406	17.85
742.43	-5.15
742.453	-0.15
742.477	-19.15
742.5	7.85
742.524	5.85
742.548	17.85
742.571	-3.15
742.595	-9.15
742.618	-14.15
742.642	-5.15
742.665	-3.15
742.689	-23.15
742.712	11.85
742.736	1.85
742.76	16.85
742.783	12.85
742.807	-0.15
742.83	9.85
742.854	-2.15
742.877	-8.15
742.901	-0.15
742.924	-10.15
742.948	-0.15
742.971	8.85
742.995	-2.15
743.018	-10.15
743.042	-8.15
743.065	8.85
743.089	-14.15
743.112	4.85
743.136	-11.15
743.159	-14.15
743.183	-10.15
743.206	-3.15
743.23	-4.15
743.253	8.85
743.277	6.85
743.3	-6.15
743.324	-12.15
743.347	1.85
743.371	13.85
743.394	15.85
743.418	23.85
743.441	-13.15
743.465	-0.15
743.488	2.85
743.512	-9.15
743.535	-3.15
743.558	0.85
743.582	-13.15
743.605	5.85
743.629	-5.15
743.652	5.85
743.676	-6.15
743.699	-0.15
743.723	-3.15
743.746	5.85
743.769	8.85
743.793	9.85
743.816	-10.15
743.84	6.85
743.863	0.85
743.886	12.85
743.91	19.85
743.933	16.85
743.957	-6.15
743.98	-4.15
744.003	-9.15
744.027	-3.15
744.05	-14.15
744.074	-4.15
744.097	-20.15
744.12	-2.15
744.144	-8.15
744.167	4.85
744.19	9.85
744.214	-10.15
744.237	-7.15
744.26	8.85
744.284	-11.15
744.307	-11.15
744.331	7.85
744.354	0.85
744.377	9.85
744.401	-10.15
744.424	10.85
744.447	-5.15
744.471	-14.15
