Data from HighRes_H2_15_09_11_07_2024_HR4C61891__85__15-11-04-902.txt Node

Date: Thu Nov 07 15:11:04 EST 2024
User: crc00042
Spectrometer: HR4C6189
Trigger mode: 4
Integration Time (sec): 1.000000E-1
Scans to average: 1
Electric dark correction enabled: true
Nonlinearity correction enabled: false
Boxcar width: 0
XAxis mode: Wavelengths
Number of Pixels in Spectrum: 3648
>>>>>Begin Spectral Data<<<<<
639.567	-32.62
639.602	-32.62
639.636	-32.62
639.67	-38.62
639.704	-23.62
639.738	-9.62
639.773	5.38
639.807	0.38
639.841	3.38
639.875	15.38
639.909	2.38
639.943	-10.62
639.978	4.38
640.012	-7.62
640.046	1.38
640.08	9.38
640.114	4.38
640.148	-18.62
640.182	-18.62
640.217	2.38
640.251	9.38
640.285	2.38
640.319	-5.62
640.353	8.38
640.387	9.38
640.421	-2.62
640.455	-20.62
640.49	-5.62
640.524	-6.62
640.558	10.38
640.592	2.38
640.626	7.38
640.66	3.38
640.694	4.38
640.728	11.38
640.762	-4.62
640.796	7.38
640.83	19.38
640.865	-7.62
640.899	-10.62
640.933	2.38
640.967	-0.62
641.001	-7.62
641.035	-3.62
641.069	-4.62
641.103	-12.62
641.137	-14.62
641.171	-20.62
641.205	7.38
641.239	2.38
641.273	22.38
641.307	7.38
641.341	4.38
641.375	-6.62
641.409	-6.62
641.443	8.38
641.477	15.38
641.511	-8.62
641.545	10.38
641.579	-0.62
641.614	-0.62
641.648	4.38
641.682	-11.62
641.716	5.38
641.75	7.38
641.784	-4.62
641.818	-0.62
641.852	10.38
641.886	-8.62
641.919	13.38
641.953	3.38
641.987	-12.62
642.021	-13.62
642.055	-1.62
642.089	-15.62
642.123	-22.62
642.157	-12.62
642.191	-4.62
642.225	17.38
642.259	-7.62
642.293	3.38
642.327	2.38
642.361	-9.62
642.395	7.38
642.429	13.38
642.463	2.38
642.497	9.38
642.531	-3.62
642.565	8.38
642.599	12.38
642.633	-0.62
642.666	1.38
642.7	11.38
642.734	11.38
642.768	-3.62
642.802	-7.62
642.836	-5.62
642.87	16.38
642.904	14.38
642.938	11.38
642.972	4.38
643.005	-3.62
643.039	9.38
643.073	-7.62
643.107	6.38
643.141	3.38
643.175	0.38
643.209	-16.62
643.243	1.38
643.276	17.38
643.31	-7.62
643.344	6.38
643.378	-0.62
643.412	11.38
643.446	4.38
643.48	-9.62
643.513	-0.62
643.547	-1.62
643.581	-16.62
643.615	4.38
643.649	16.38
643.683	-16.62
643.716	-9.62
643.75	7.38
643.784	-7.62
643.818	3.38
643.852	4.38
643.886	9.38
643.919	13.38
643.953	2.38
643.987	-15.62
644.021	15.38
644.055	9.38
644.088	-3.62
644.122	-13.62
644.156	-7.62
644.19	4.38
644.224	-1.62
644.257	-3.62
644.291	6.38
644.325	2.38
644.359	8.38
644.392	4.38
644.426	28.38
644.46	-0.62
644.494	-4.62
644.527	3.38
644.561	18.38
644.595	0.38
644.629	-3.62
644.662	-5.62
644.696	17.38
644.73	-4.62
644.764	8.38
644.797	-9.62
644.831	-14.62
644.865	23.38
644.899	-1.62
644.932	5.38
644.966	-17.62
645	8.38
645.033	3.38
645.067	5.38
645.101	3.38
645.135	-3.62
645.168	0.38
645.202	-11.62
645.236	7.38
645.269	-0.62
645.303	-11.62
645.337	-25.62
645.37	0.38
645.404	10.38
645.438	4.38
645.471	-18.62
645.505	23.38
645.539	0.38
645.572	-10.62
645.606	-15.62
645.64	8.38
645.673	-16.62
645.707	17.38
645.741	-9.62
645.774	-11.62
645.808	6.38
645.842	0.38
645.875	4.38
645.909	2.38
645.943	3.38
645.976	-2.62
646.01	2.38
646.043	13.38
646.077	-5.62
646.111	6.38
646.144	-5.62
646.178	9.38
646.212	-21.62
646.245	-11.62
646.279	0.38
646.312	2.38
646.346	23.38
646.38	9.38
646.413	3.38
646.447	1.38
646.48	-5.62
646.514	4.38
646.547	7.38
646.581	2.38
646.615	-2.62
646.648	-3.62
646.682	-6.62
646.715	0.38
646.749	1.38
646.782	-4.62
646.816	-11.62
646.85	-4.62
646.883	-21.62
646.917	13.38
646.95	2.38
646.984	1.38
647.017	-12.62
647.051	3.38
647.084	-3.62
647.118	-9.62
647.151	-6.62
647.185	5.38
647.218	3.38
647.252	6.38
647.285	-11.62
647.319	-10.62
647.353	2.38
647.386	28.38
647.42	4.38
647.453	8.38
647.487	-3.62
647.52	-0.62
647.553	7.38
647.587	2.38
647.62	-14.62
647.654	-6.62
647.687	6.38
647.721	2.38
647.754	2.38
647.788	4.38
647.821	-21.62
647.855	-4.62
647.888	14.38
647.922	5.38
647.955	1.38
647.989	8.38
648.022	5.38
648.055	18.38
648.089	-2.62
648.122	12.38
648.156	1.38
648.189	8.38
648.223	3.38
648.256	18.38
648.29	-5.62
648.323	-9.62
648.356	26.38
648.39	8.38
648.423	-5.62
648.457	-2.62
648.49	6.38
648.523	5.38
648.557	-1.62
648.59	-3.62
648.624	-4.62
648.657	0.38
648.69	15.38
648.724	14.38
648.757	16.38
648.791	-3.62
648.824	-13.62
648.857	18.38
648.891	3.38
648.924	1.38
648.957	10.38
648.991	-14.62
649.024	6.38
649.057	-0.62
649.091	-5.62
649.124	11.38
649.158	17.38
649.191	23.38
649.224	-4.62
649.258	2.38
649.291	8.38
649.324	17.38
649.358	14.38
649.391	12.38
649.424	9.38
649.458	1.38
649.491	5.38
649.524	-11.62
649.557	3.38
649.591	-0.62
649.624	12.38
649.657	-13.62
649.691	-20.62
649.724	-7.62
649.757	-6.62
649.791	-19.62
649.824	9.38
649.857	18.38
649.89	5.38
649.924	-6.62
649.957	-10.62
649.99	-11.62
650.023	-5.62
650.057	-14.62
650.09	11.38
650.123	9.38
650.157	16.38
650.19	13.38
650.223	0.38
650.256	3.38
650.29	6.38
650.323	14.38
650.356	14.38
650.389	13.38
650.423	-5.62
650.456	4.38
650.489	10.38
650.522	11.38
650.555	27.38
650.589	4.38
650.622	-2.62
650.655	16.38
650.688	5.38
650.721	0.38
650.755	-3.62
650.788	8.38
650.821	-5.62
650.854	-0.62
650.887	2.38
650.921	1.38
650.954	-2.62
650.987	7.38
651.02	-1.62
651.053	-9.62
651.087	-6.62
651.12	17.38
651.153	8.38
651.186	3.38
651.219	-6.62
651.252	8.38
651.286	15.38
651.319	8.38
651.352	-9.62
651.385	5.38
651.418	-4.62
651.451	11.38
651.484	4.38
651.518	-20.62
651.551	1.38
651.584	1.38
651.617	22.38
651.65	10.38
651.683	28.38
651.716	0.38
651.749	-16.62
651.783	-12.62
651.816	-4.62
651.849	3.38
651.882	13.38
651.915	7.38
651.948	11.38
651.981	-4.62
652.014	-18.62
652.047	-22.62
652.08	3.38
652.114	13.38
652.147	0.38
652.18	5.38
652.213	31.38
652.246	7.38
652.279	9.38
652.312	11.38
652.345	-11.62
652.378	8.38
652.411	2.38
652.444	-0.62
652.477	-5.62
652.51	-3.62
652.543	-11.62
652.576	-5.62
652.609	-3.62
652.642	10.38
652.675	10.38
652.709	-8.62
652.742	7.38
652.775	32.38
652.808	25.38
652.841	1.38
652.874	9.38
652.907	6.38
652.94	-7.62
652.973	-31.62
653.006	-5.62
653.039	-1.62
653.072	8.38
653.105	-5.62
653.138	-5.62
653.171	-3.62
653.204	10.38
653.237	2.38
653.27	9.38
653.303	2.38
653.336	17.38
653.368	-6.62
653.401	7.38
653.434	2.38
653.467	23.38
653.5	-9.62
653.533	-5.62
653.566	14.38
653.599	11.38
653.632	1.38
653.665	4.38
653.698	-6.62
653.731	-5.62
653.764	7.38
653.797	6.38
653.83	10.38
653.863	17.38
653.896	-9.62
653.929	-0.62
653.961	11.38
653.994	9.38
654.027	-10.62
654.06	-5.62
654.093	-7.62
654.126	10.38
654.159	-3.62
654.192	-9.62
654.225	-15.62
654.258	-12.62
654.29	-1.62
654.323	5.38
654.356	14.38
654.389	14.38
654.422	2.38
654.455	3.38
654.488	1.38
654.521	-13.62
654.553	-23.62
654.586	15.38
654.619	-5.62
654.652	-0.62
654.685	13.38
654.718	6.38
654.751	9.38
654.783	0.38
654.816	14.38
654.849	-10.62
654.882	-3.62
654.915	-14.62
654.948	1.38
654.98	3.38
655.013	-4.62
655.046	-4.62
655.079	-0.62
655.112	1.38
655.144	5.38
655.177	10.38
655.21	7.38
655.243	9.38
655.276	6.38
655.308	5.38
655.341	4.38
655.374	7.38
655.407	-6.62
655.44	3.38
655.472	13.38
655.505	6.38
655.538	3.38
655.571	10.38
655.603	1.38
655.636	1.38
655.669	20.38
655.702	16.38
655.734	-6.62
655.767	16.38
655.8	11.38
655.833	27.38
655.865	44.38
655.898	32.38
655.931	33.38
655.964	39.38
655.996	44.38
656.029	65.38
656.062	52.38
656.095	73.38
656.127	77.38
656.16	100.38
656.193	126.38
656.225	179.38
656.258	283.38
656.291	502.38
656.324	1109.38
656.356	3343.38
656.389	7470.38
656.422	5935.38
656.454	2036.38
656.487	680.38
656.52	247.38
656.552	125.38
656.585	74.38
656.618	55.38
656.65	30.38
656.683	7.38
656.716	17.38
656.748	13.38
656.781	10.38
656.814	4.38
656.846	9.38
656.879	6.38
656.912	16.38
656.944	-8.62
656.977	-5.62
657.01	5.38
657.042	8.38
657.075	6.38
657.108	3.38
657.14	1.38
657.173	18.38
657.205	24.38
657.238	19.38
657.271	2.38
657.303	2.38
657.336	1.38
657.369	-8.62
657.401	-7.62
657.434	7.38
657.466	-3.62
657.499	-5.62
657.532	-3.62
657.564	3.38
657.597	8.38
657.629	6.38
657.662	-11.62
657.694	14.38
657.727	-8.62
657.76	18.38
657.792	-5.62
657.825	-5.62
657.857	-8.62
657.89	6.38
657.922	2.38
657.955	-4.62
657.987	-0.62
658.02	-1.62
658.053	21.38
658.085	12.38
658.118	1.38
658.15	3.38
658.183	8.38
658.215	-12.62
658.248	-4.62
658.28	-8.62
658.313	13.38
658.345	5.38
658.378	-16.62
658.41	0.38
658.443	19.38
658.475	4.38
658.508	-8.62
658.54	-11.62
658.573	-13.62
658.605	3.38
658.638	-1.62
658.67	-11.62
658.703	-13.62
658.735	-0.62
658.768	5.38
658.8	-2.62
658.833	7.38
658.865	2.38
658.898	5.38
658.93	-11.62
658.963	-13.62
658.995	-3.62
659.028	1.38
659.06	11.38
659.092	-8.62
659.125	-0.62
659.157	2.38
659.19	-0.62
659.222	-1.62
659.255	-1.62
659.287	7.38
659.32	11.38
659.352	8.38
659.384	-0.62
659.417	-5.62
659.449	4.38
659.482	-4.62
659.514	-1.62
659.546	10.38
659.579	-7.62
659.611	5.38
659.644	-0.62
659.676	-6.62
659.708	-8.62
659.741	-10.62
659.773	18.38
659.806	-4.62
659.838	8.38
659.87	7.38
659.903	-15.62
659.935	-5.62
659.967	13.38
660	2.38
660.032	-24.62
660.065	17.38
660.097	13.38
660.129	6.38
660.162	-14.62
660.194	22.38
660.226	22.38
660.259	13.38
660.291	0.38
660.323	7.38
660.356	3.38
660.388	2.38
660.42	-8.62
660.453	-1.62
660.485	13.38
660.517	3.38
660.55	15.38
660.582	-3.62
660.614	14.38
660.647	9.38
660.679	-4.62
660.711	0.38
660.743	-4.62
660.776	-8.62
660.808	-11.62
660.84	-6.62
660.873	7.38
660.905	-4.62
660.937	-8.62
660.969	-3.62
661.002	4.38
661.034	9.38
661.066	15.38
661.099	16.38
661.131	12.38
661.163	7.38
661.195	7.38
661.228	19.38
661.26	8.38
661.292	-17.62
661.324	1.38
661.357	4.38
661.389	6.38
661.421	-8.62
661.453	0.38
661.485	-1.62
661.518	-9.62
661.55	-14.62
661.582	-8.62
661.614	17.38
661.647	-4.62
661.679	3.38
661.711	17.38
661.743	-14.62
661.775	0.38
661.808	21.38
661.84	-2.62
661.872	-3.62
661.904	0.38
661.936	8.38
661.969	5.38
662.001	1.38
662.033	16.38
662.065	-11.62
662.097	4.38
662.129	0.38
662.162	6.38
662.194	13.38
662.226	6.38
662.258	3.38
662.29	6.38
662.322	2.38
662.355	-4.62
662.387	21.38
662.419	3.38
662.451	15.38
662.483	-0.62
662.515	-9.62
662.547	-6.62
662.58	-16.62
662.612	-13.62
662.644	-7.62
662.676	24.38
662.708	17.38
662.74	-7.62
662.772	0.38
662.804	12.38
662.836	0.38
662.869	-9.62
662.901	19.38
662.933	4.38
662.965	17.38
662.997	10.38
663.029	-2.62
663.061	-7.62
663.093	-6.62
663.125	21.38
663.157	10.38
663.189	2.38
663.221	18.38
663.254	2.38
663.286	1.38
663.318	-20.62
663.35	-11.62
663.382	1.38
663.414	13.38
663.446	-0.62
663.478	-9.62
663.51	21.38
663.542	1.38
663.574	5.38
663.606	-2.62
663.638	-6.62
663.67	-7.62
663.702	-23.62
663.734	-15.62
663.766	-0.62
663.798	-6.62
663.83	7.38
663.862	2.38
663.894	8.38
663.926	2.38
663.958	9.38
663.99	-18.62
664.022	-22.62
664.054	16.38
664.086	-3.62
664.118	-14.62
664.15	-15.62
664.182	8.38
664.214	4.38
664.246	10.38
664.278	9.38
664.31	16.38
664.342	5.38
664.374	-13.62
664.406	2.38
664.438	-10.62
664.47	21.38
664.502	8.38
664.534	-5.62
664.566	-0.62
664.598	16.38
664.63	-16.62
664.662	0.38
664.693	-2.62
664.725	-1.62
664.757	0.38
664.789	-12.62
664.821	0.38
664.853	3.38
664.885	-2.62
664.917	-3.62
664.949	3.38
664.981	6.38
665.013	1.38
665.045	-4.62
665.076	-7.62
665.108	-1.62
665.14	-10.62
665.172	-6.62
665.204	4.38
665.236	-3.62
665.268	19.38
665.3	-9.62
665.331	-0.62
665.363	-0.62
665.395	-5.62
665.427	-5.62
665.459	8.38
665.491	-3.62
665.523	-2.62
665.555	8.38
665.586	5.38
665.618	-7.62
665.65	-5.62
665.682	-1.62
665.714	11.38
665.746	-0.62
665.777	-0.62
665.809	-6.62
665.841	-4.62
665.873	-1.62
665.905	3.38
665.937	18.38
665.968	0.38
666	2.38
666.032	14.38
666.064	-7.62
666.096	-13.62
666.127	22.38
666.159	9.38
666.191	-4.62
666.223	3.38
666.255	13.38
666.286	2.38
666.318	-1.62
666.35	16.38
666.382	2.38
666.413	-4.62
666.445	-13.62
666.477	-3.62
666.509	1.38
666.54	10.38
666.572	-6.62
666.604	0.38
666.636	-8.62
666.667	14.38
666.699	-2.62
666.731	-8.62
666.763	-2.62
666.794	-1.62
666.826	-3.62
666.858	-17.62
666.89	1.38
666.921	-3.62
666.953	8.38
666.985	7.38
667.017	3.38
667.048	1.38
667.08	0.38
667.112	-15.62
667.143	-12.62
667.175	10.38
667.207	-7.62
667.238	23.38
667.27	4.38
667.302	17.38
667.334	0.38
667.365	8.38
667.397	3.38
667.429	5.38
667.46	7.38
667.492	-7.62
667.524	0.38
667.555	-5.62
667.587	-12.62
667.619	-4.62
667.65	-1.62
667.682	-4.62
667.714	11.38
667.745	-0.62
667.777	-9.62
667.808	-1.62
667.84	8.38
667.872	-1.62
667.903	28.38
667.935	8.38
667.967	-3.62
667.998	6.38
668.03	8.38
668.061	12.38
668.093	-2.62
668.125	1.38
668.156	18.38
668.188	-7.62
668.22	-12.62
668.251	2.38
668.283	-2.62
668.314	-4.62
668.346	-6.62
668.377	0.38
668.409	-14.62
668.441	-0.62
668.472	5.38
668.504	0.38
668.535	-2.62
668.567	9.38
668.599	-8.62
668.63	-3.62
668.662	14.38
668.693	9.38
668.725	19.38
668.756	17.38
668.788	-10.62
668.819	-10.62
668.851	4.38
668.882	-0.62
668.914	5.38
668.946	5.38
668.977	1.38
669.009	10.38
669.04	-5.62
669.072	18.38
669.103	19.38
669.135	-7.62
669.166	3.38
669.198	-7.62
669.229	7.38
669.261	-1.62
669.292	-6.62
669.324	-10.62
669.355	2.38
669.387	-12.62
669.418	9.38
669.45	0.38
669.481	3.38
669.513	9.38
669.544	4.38
669.576	-9.62
669.607	20.38
669.639	22.38
669.67	-5.62
669.701	11.38
669.733	-25.62
669.764	-5.62
669.796	9.38
669.827	-12.62
669.859	2.38
669.89	8.38
669.922	2.38
669.953	-6.62
669.985	-2.62
670.016	24.38
670.047	11.38
670.079	-0.62
670.11	3.38
670.142	-2.62
670.173	0.38
670.204	-4.62
670.236	1.38
670.267	-4.62
670.299	-7.62
670.33	8.38
670.362	17.38
670.393	-15.62
670.424	11.38
670.456	-1.62
670.487	-18.62
670.518	-21.62
670.55	-4.62
670.581	1.38
670.613	3.38
670.644	4.38
670.675	1.38
670.707	-8.62
670.738	-2.62
670.769	-11.62
670.801	-11.62
670.832	3.38
670.864	-11.62
670.895	-1.62
670.926	-0.62
670.958	10.38
670.989	0.38
671.02	-21.62
671.052	5.38
671.083	-4.62
671.114	3.38
671.146	14.38
671.177	3.38
671.208	3.38
671.24	-9.62
671.271	-6.62
671.302	-11.62
671.333	-12.62
671.365	-19.62
671.396	-7.62
671.427	12.38
671.459	2.38
671.49	-5.62
671.521	14.38
671.553	3.38
671.584	1.38
671.615	-22.62
671.646	13.38
671.678	1.38
671.709	-1.62
671.74	-3.62
671.771	-11.62
671.803	-10.62
671.834	-7.62
671.865	-8.62
671.896	16.38
671.928	-10.62
671.959	-6.62
671.99	-4.62
672.021	-1.62
672.053	-23.62
672.084	2.38
672.115	-8.62
672.146	-11.62
672.178	-14.62
672.209	8.38
672.24	-1.62
672.271	20.38
672.303	-7.62
672.334	-17.62
672.365	-4.62
672.396	0.38
672.427	-3.62
672.459	7.38
672.49	22.38
672.521	10.38
672.552	7.38
672.583	10.38
672.615	3.38
672.646	12.38
672.677	-5.62
672.708	9.38
672.739	-3.62
672.77	14.38
672.802	0.38
672.833	-3.62
672.864	1.38
672.895	-7.62
672.926	-20.62
672.957	-24.62
672.989	10.38
673.02	11.38
673.051	-3.62
673.082	19.38
673.113	3.38
673.144	-0.62
673.175	-9.62
673.206	-6.62
673.238	-8.62
673.269	6.38
673.3	-19.62
673.331	-4.62
673.362	-2.62
673.393	-6.62
673.424	4.38
673.455	16.38
673.487	-14.62
673.518	7.38
673.549	12.38
673.58	-6.62
673.611	5.38
673.642	10.38
673.673	-29.62
673.704	5.38
673.735	7.38
673.766	-1.62
673.797	-3.62
673.828	2.38
673.86	3.38
673.891	-17.62
673.922	-12.62
673.953	-5.62
673.984	-0.62
674.015	1.38
674.046	-14.62
674.077	-13.62
674.108	-12.62
674.139	-10.62
674.17	-16.62
674.201	-4.62
674.232	-7.62
674.263	-2.62
674.294	3.38
674.325	-10.62
674.356	-5.62
674.387	7.38
674.418	7.38
674.449	-7.62
674.48	-8.62
674.511	0.38
674.542	20.38
674.573	-2.62
674.604	2.38
674.635	-2.62
674.666	10.38
674.697	-13.62
674.728	4.38
674.759	-8.62
674.79	-13.62
674.821	-4.62
674.852	-9.62
674.883	-21.62
674.914	-9.62
674.945	-5.62
674.976	7.38
675.007	-2.62
675.038	3.38
675.069	-14.62
675.1	-8.62
675.131	-7.62
675.162	0.38
675.193	-19.62
675.224	-10.62
675.254	-1.62
675.285	13.38
675.316	19.38
675.347	3.38
675.378	-16.62
675.409	-5.62
675.44	3.38
675.471	4.38
675.502	-9.62
675.533	-10.62
675.564	4.38
675.595	3.38
675.625	10.38
675.656	11.38
675.687	1.38
675.718	-7.62
675.749	-0.62
675.78	-4.62
675.811	-15.62
675.842	3.38
675.873	9.38
675.903	10.38
675.934	-8.62
675.965	-22.62
675.996	-10.62
676.027	17.38
676.058	0.38
676.089	-4.62
676.119	6.38
676.15	2.38
676.181	-0.62
676.212	2.38
676.243	20.38
676.274	-7.62
676.304	5.38
676.335	-0.62
676.366	6.38
676.397	0.38
676.428	-5.62
676.459	6.38
676.489	7.38
676.52	14.38
676.551	-6.62
676.582	-11.62
676.613	-8.62
676.643	-11.62
676.674	4.38
676.705	4.38
676.736	-4.62
676.767	20.38
676.797	15.38
676.828	5.38
676.859	-9.62
676.89	-2.62
676.92	3.38
676.951	9.38
676.982	15.38
677.013	-0.62
677.044	7.38
677.074	-1.62
677.105	-16.62
677.136	7.38
677.167	6.38
677.197	-0.62
677.228	-7.62
677.259	-11.62
677.289	-3.62
677.32	-13.62
677.351	-5.62
677.382	-24.62
677.412	-34.62
677.443	-7.62
677.474	-5.62
677.505	-7.62
677.535	-13.62
677.566	-9.62
677.597	-12.62
677.627	6.38
677.658	-2.62
677.689	6.38
677.72	-0.62
677.75	-5.62
677.781	-7.62
677.812	3.38
677.842	8.38
677.873	2.38
677.904	-4.62
677.934	-14.62
677.965	1.38
677.996	-0.62
678.026	9.38
678.057	3.38
678.088	-15.62
678.118	-1.62
678.149	-13.62
678.18	-3.62
678.21	0.38
678.241	2.38
678.272	1.38
678.302	10.38
678.333	-4.62
678.363	0.38
678.394	6.38
678.425	-5.62
678.455	-3.62
678.486	2.38
678.517	-3.62
678.547	1.38
678.578	3.38
678.608	-27.62
678.639	-6.62
678.67	-4.62
678.7	-8.62
678.731	-9.62
678.761	-7.62
678.792	-11.62
678.823	14.38
678.853	-3.62
678.884	-10.62
678.914	-9.62
678.945	1.38
678.975	-10.62
679.006	-0.62
679.037	-3.62
679.067	10.38
679.098	-3.62
679.128	-7.62
679.159	-6.62
679.189	4.38
679.22	-3.62
679.25	5.38
679.281	-4.62
679.312	-17.62
679.342	4.38
679.373	22.38
679.403	-2.62
679.434	-0.62
679.464	2.38
679.495	-8.62
679.525	7.38
679.556	-12.62
679.586	1.38
679.617	-4.62
679.647	-12.62
679.678	-2.62
679.708	-9.62
679.739	3.38
679.769	-2.62
679.8	0.38
679.83	-6.62
679.861	6.38
679.891	4.38
679.922	-13.62
679.952	4.38
679.983	14.38
680.013	2.38
680.044	-9.62
680.074	-3.62
680.105	14.38
680.135	2.38
680.165	6.38
680.196	-2.62
680.226	0.38
680.257	15.38
680.287	5.38
680.318	2.38
680.348	-15.62
680.379	3.38
680.409	-0.62
680.439	-3.62
680.47	1.38
680.5	-0.62
680.531	-10.62
680.561	7.38
680.592	9.38
680.622	10.38
680.652	3.38
680.683	16.38
680.713	-4.62
680.744	8.38
680.774	-0.62
680.804	10.38
680.835	8.38
680.865	-16.62
680.896	12.38
680.926	12.38
680.956	7.38
680.987	-6.62
681.017	-4.62
681.047	-8.62
681.078	1.38
681.108	1.38
681.139	-14.62
681.169	4.38
681.199	-2.62
681.23	4.38
681.26	4.38
681.29	7.38
681.321	-16.62
681.351	-7.62
681.381	-5.62
681.412	5.38
681.442	5.38
681.472	19.38
681.503	15.38
681.533	4.38
681.563	-6.62
681.594	2.38
681.624	0.38
681.654	-8.62
681.685	-4.62
681.715	-6.62
681.745	-10.62
681.775	-5.62
681.806	3.38
681.836	6.38
681.866	-4.62
681.897	3.38
681.927	-7.62
681.957	-7.62
681.987	11.38
682.018	7.38
682.048	-2.62
682.078	-15.62
682.109	16.38
682.139	0.38
682.169	-0.62
682.199	-11.62
682.23	-8.62
682.26	7.38
682.29	-6.62
682.32	-3.62
682.351	-0.62
682.381	-2.62
682.411	-0.62
682.441	7.38
682.472	-4.62
682.502	-0.62
682.532	-4.62
682.562	-6.62
682.592	11.38
682.623	3.38
682.653	10.38
682.683	-12.62
682.713	4.38
682.743	-15.62
682.774	-8.62
682.804	-14.62
682.834	5.38
682.864	-13.62
682.894	-11.62
682.925	-6.62
682.955	-1.62
682.985	-10.62
683.015	1.38
683.045	-1.62
683.076	1.38
683.106	12.38
683.136	4.38
683.166	3.38
683.196	-2.62
683.226	-10.62
683.257	-13.62
683.287	1.38
683.317	-0.62
683.347	-15.62
683.377	3.38
683.407	3.38
683.437	-7.62
683.468	-2.62
683.498	-1.62
683.528	-7.62
683.558	2.38
683.588	-4.62
683.618	-8.62
683.648	-2.62
683.678	-0.62
683.708	2.38
683.739	-2.62
683.769	-15.62
683.799	-11.62
683.829	-10.62
683.859	10.38
683.889	-1.62
683.919	1.38
683.949	3.38
683.979	-13.62
684.009	-2.62
684.039	1.38
684.07	3.38
684.1	7.38
684.13	1.38
684.16	5.38
684.19	-1.62
684.22	-8.62
684.25	1.38
684.28	-13.62
684.31	16.38
684.34	9.38
684.37	-0.62
684.4	-10.62
684.43	-0.62
684.46	-3.62
684.49	5.38
684.52	3.38
684.55	12.38
684.58	-1.62
684.61	12.38
684.64	4.38
684.67	14.38
684.7	-8.62
684.73	3.38
684.76	2.38
684.79	3.38
684.82	-8.62
684.85	-21.62
684.88	6.38
684.91	0.38
684.94	-1.62
684.97	-6.62
685	-10.62
685.03	-1.62
685.06	-2.62
685.09	-4.62
685.12	11.38
685.15	-7.62
685.18	-5.62
685.21	-6.62
685.24	6.38
685.27	11.38
685.3	8.38
685.33	7.38
685.36	-6.62
685.39	-13.62
685.42	-16.62
685.45	2.38
685.48	1.38
685.51	-5.62
685.54	-0.62
685.569	-0.62
685.599	6.38
685.629	-2.62
685.659	-0.62
685.689	3.38
685.719	-1.62
685.749	-6.62
685.779	-1.62
685.809	11.38
685.839	5.38
685.869	-4.62
685.898	-5.62
685.928	15.38
685.958	2.38
685.988	13.38
686.018	4.38
686.048	-0.62
686.078	8.38
686.108	5.38
686.137	-4.62
686.167	13.38
686.197	-16.62
686.227	2.38
686.257	27.38
686.287	25.38
686.317	5.38
686.346	0.38
686.376	-5.62
686.406	-1.62
686.436	-2.62
686.466	-3.62
686.496	6.38
686.525	6.38
686.555	-5.62
686.585	15.38
686.615	39.38
686.645	18.38
686.675	1.38
686.704	11.38
686.734	2.38
686.764	-6.62
686.794	-10.62
686.824	-0.62
686.853	17.38
686.883	23.38
686.913	9.38
686.943	-3.62
686.973	-4.62
687.002	-8.62
687.032	16.38
687.062	3.38
687.092	8.38
687.121	-4.62
687.151	1.38
687.181	4.38
687.211	2.38
687.24	1.38
687.27	1.38
687.3	4.38
687.33	7.38
687.359	-13.62
687.389	11.38
687.419	3.38
687.449	10.38
687.478	21.38
687.508	-3.62
687.538	3.38
687.568	15.38
687.597	4.38
687.627	9.38
687.657	-2.62
687.686	4.38
687.716	25.38
687.746	-0.62
687.776	-10.62
687.805	20.38
687.835	3.38
687.865	16.38
687.894	11.38
687.924	0.38
687.954	-0.62
687.983	9.38
688.013	11.38
688.043	-0.62
688.072	7.38
688.102	10.38
688.132	-18.62
688.161	-3.62
688.191	-0.62
688.221	0.38
688.25	1.38
688.28	-0.62
688.31	-8.62
688.339	7.38
688.369	-16.62
688.399	-16.62
688.428	-4.62
688.458	14.38
688.488	-4.62
688.517	3.38
688.547	-4.62
688.576	37.38
688.606	6.38
688.636	-5.62
688.665	-1.62
688.695	2.38
688.725	14.38
688.754	2.38
688.784	6.38
688.813	18.38
688.843	12.38
688.873	-5.62
688.902	-3.62
688.932	-11.62
688.961	5.38
688.991	17.38
689.02	1.38
689.05	-0.62
689.08	16.38
689.109	8.38
689.139	2.38
689.168	0.38
689.198	-0.62
689.227	-8.62
689.257	9.38
689.287	9.38
689.316	-6.62
689.346	1.38
689.375	-15.62
689.405	10.38
689.434	-1.62
689.464	12.38
689.493	-12.62
689.523	-1.62
689.552	-0.62
689.582	6.38
689.611	-7.62
689.641	11.38
689.67	-6.62
689.7	3.38
689.73	15.38
689.759	2.38
689.789	6.38
689.818	-11.62
689.848	-2.62
689.877	13.38
689.906	3.38
689.936	-5.62
689.965	19.38
689.995	10.38
690.024	19.38
690.054	-5.62
690.083	5.38
690.113	-10.62
690.142	-8.62
690.172	-0.62
690.201	-1.62
690.231	2.38
690.26	-2.62
690.29	-15.62
690.319	1.38
690.348	-0.62
690.378	12.38
690.407	-3.62
690.437	-8.62
690.466	-10.62
690.496	-0.62
690.525	4.38
690.555	1.38
690.584	6.38
690.613	3.38
690.643	8.38
690.672	12.38
690.702	6.38
690.731	-26.62
690.76	0.38
690.79	0.38
690.819	-3.62
690.849	-13.62
690.878	0.38
690.907	1.38
690.937	17.38
690.966	12.38
690.996	-9.62
691.025	-1.62
691.054	6.38
691.084	-6.62
691.113	2.38
691.142	3.38
691.172	5.38
691.201	20.38
691.23	5.38
691.26	0.38
691.289	-0.62
691.319	-4.62
691.348	13.38
691.377	15.38
691.407	1.38
691.436	2.38
691.465	1.38
691.495	-2.62
691.524	-8.62
691.553	-8.62
691.583	-10.62
691.612	11.38
691.641	3.38
691.67	-0.62
691.7	0.38
691.729	-6.62
691.758	0.38
691.788	0.38
691.817	-3.62
691.846	-4.62
691.876	-7.62
691.905	-14.62
691.934	-7.62
691.963	5.38
691.993	1.38
692.022	9.38
692.051	-24.62
692.081	16.38
692.11	30.38
692.139	18.38
692.168	12.38
692.198	17.38
692.227	12.38
692.256	-0.62
692.285	-4.62
692.315	22.38
692.344	-0.62
692.373	1.38
692.402	-3.62
692.432	-7.62
692.461	6.38
692.49	0.38
692.519	-7.62
692.548	-5.62
692.578	3.38
692.607	-5.62
692.636	-3.62
692.665	5.38
692.694	2.38
692.724	9.38
692.753	3.38
692.782	-1.62
692.811	0.38
692.84	0.38
692.87	13.38
692.899	6.38
692.928	13.38
692.957	12.38
692.986	5.38
693.016	3.38
693.045	12.38
693.074	1.38
693.103	6.38
693.132	2.38
693.161	15.38
693.191	2.38
693.22	-23.62
693.249	1.38
693.278	-3.62
693.307	17.38
693.336	-0.62
693.365	-5.62
693.395	7.38
693.424	3.38
693.453	25.38
693.482	1.38
693.511	5.38
693.54	3.38
693.569	11.38
693.598	4.38
693.628	15.38
693.657	7.38
693.686	12.38
693.715	20.38
693.744	5.38
693.773	27.38
693.802	-1.62
693.831	-5.62
693.86	18.38
693.889	-11.62
693.919	-4.62
693.948	-2.62
693.977	11.38
694.006	13.38
694.035	-11.62
694.064	-14.62
694.093	-17.62
694.122	-3.62
694.151	-4.62
694.18	9.38
694.209	25.38
694.238	3.38
694.267	21.38
694.296	-2.62
694.325	6.38
694.354	2.38
694.383	-0.62
694.412	-10.62
694.441	-5.62
694.471	7.38
694.5	-10.62
694.529	-5.62
694.558	24.38
694.587	3.38
694.616	-12.62
694.645	-7.62
694.674	7.38
694.703	16.38
694.732	-1.62
694.761	3.38
694.79	23.38
694.819	-10.62
694.848	5.38
694.877	21.38
694.906	23.38
694.935	-2.62
694.963	17.38
694.992	-7.62
695.021	11.38
695.05	14.38
695.079	5.38
695.108	15.38
695.137	13.38
695.166	9.38
695.195	6.38
695.224	11.38
695.253	5.38
695.282	0.38
695.311	2.38
695.34	7.38
695.369	6.38
695.398	4.38
695.427	23.38
695.456	16.38
695.485	-3.62
695.513	11.38
695.542	1.38
695.571	-1.62
695.6	9.38
695.629	-0.62
695.658	9.38
695.687	1.38
695.716	-3.62
695.745	20.38
695.774	-8.62
695.802	-7.62
695.831	10.38
695.86	10.38
695.889	14.38
695.918	-2.62
695.947	-16.62
695.976	-15.62
696.005	4.38
696.033	4.38
696.062	4.38
696.091	7.38
696.12	0.38
696.149	21.38
696.178	-3.62
696.207	0.38
696.235	-5.62
696.264	9.38
696.293	9.38
696.322	2.38
696.351	11.38
696.38	2.38
696.408	15.38
696.437	12.38
696.466	-3.62
696.495	23.38
696.524	13.38
696.553	14.38
696.581	5.38
696.61	-15.62
696.639	-0.62
696.668	3.38
696.697	5.38
696.725	6.38
696.754	-2.62
696.783	-4.62
696.812	-8.62
696.84	5.38
696.869	-1.62
696.898	-5.62
696.927	-11.62
696.956	19.38
696.984	1.38
697.013	5.38
697.042	-2.62
697.071	10.38
697.099	6.38
697.128	15.38
697.157	14.38
697.186	-4.62
697.214	-11.62
697.243	-6.62
697.272	0.38
697.301	8.38
697.329	-7.62
697.358	12.38
697.387	8.38
697.415	0.38
697.444	0.38
697.473	-1.62
697.502	-9.62
697.53	2.38
697.559	5.38
697.588	12.38
697.616	-2.62
697.645	-8.62
697.674	24.38
697.703	3.38
697.731	4.38
697.76	-0.62
697.789	-4.62
697.817	1.38
697.846	17.38
697.875	-6.62
697.903	21.38
697.932	16.38
697.961	7.38
697.989	8.38
698.018	-1.62
698.047	6.38
698.075	10.38
698.104	5.38
698.133	10.38
698.161	-5.62
698.19	7.38
698.218	5.38
698.247	7.38
698.276	2.38
698.304	18.38
698.333	16.38
698.362	16.38
698.39	11.38
698.419	8.38
698.447	4.38
698.476	-5.62
698.505	2.38
698.533	5.38
698.562	4.38
698.591	2.38
698.619	-12.62
698.648	8.38
698.676	11.38
698.705	-3.62
698.733	3.38
698.762	12.38
698.791	-3.62
698.819	9.38
698.848	5.38
698.876	11.38
698.905	-13.62
698.933	6.38
698.962	-0.62
698.991	-2.62
699.019	14.38
699.048	7.38
699.076	17.38
699.105	-19.62
699.133	-0.62
699.162	2.38
699.19	18.38
699.219	3.38
699.248	2.38
699.276	-8.62
699.305	-4.62
699.333	9.38
699.362	8.38
699.39	8.38
699.419	-13.62
699.447	19.38
699.476	6.38
699.504	-7.62
699.533	0.38
699.561	-6.62
699.59	3.38
699.618	-9.62
699.647	-3.62
699.675	2.38
699.704	9.38
699.732	10.38
699.761	5.38
699.789	6.38
699.818	1.38
699.846	-1.62
699.874	0.38
699.903	-0.62
699.931	-8.62
699.96	4.38
699.988	2.38
700.017	4.38
700.045	9.38
700.074	3.38
700.102	-16.62
700.13	2.38
700.159	-0.62
700.187	2.38
700.216	0.38
700.244	-14.62
700.273	5.38
700.301	9.38
700.329	23.38
700.358	16.38
700.386	-11.62
700.415	-8.62
700.443	3.38
700.472	9.38
700.5	12.38
700.528	16.38
700.557	6.38
700.585	-4.62
700.614	2.38
700.642	-1.62
700.67	7.38
700.699	2.38
700.727	-0.62
700.755	6.38
700.784	-2.62
700.812	1.38
700.841	11.38
700.869	8.38
700.897	-10.62
700.926	4.38
700.954	6.38
700.982	2.38
701.011	3.38
701.039	7.38
701.067	7.38
701.096	7.38
701.124	-6.62
701.152	-4.62
701.181	1.38
701.209	-11.62
701.237	-1.62
701.266	-8.62
701.294	-1.62
701.322	-4.62
701.351	16.38
701.379	7.38
701.407	-1.62
701.435	-1.62
701.464	8.38
701.492	24.38
701.52	3.38
701.549	-7.62
701.577	-16.62
701.605	-3.62
701.634	-12.62
701.662	-1.62
701.69	-10.62
701.718	3.38
701.747	6.38
701.775	-6.62
701.803	2.38
701.831	-4.62
701.86	-1.62
701.888	5.38
701.916	1.38
701.944	6.38
701.973	0.38
702.001	-12.62
702.029	-1.62
702.057	-0.62
702.086	-14.62
702.114	-8.62
702.142	6.38
702.17	-12.62
702.199	-3.62
702.227	-9.62
702.255	-13.62
702.283	-4.62
702.311	2.38
702.34	-8.62
702.368	-21.62
702.396	7.38
702.424	-0.62
702.452	-9.62
702.481	-0.62
702.509	2.38
702.537	0.38
702.565	-5.62
702.593	-6.62
702.621	3.38
702.65	14.38
702.678	8.38
702.706	11.38
702.734	-8.62
702.762	5.38
702.79	3.38
702.819	-4.62
702.847	-0.62
702.875	8.38
702.903	18.38
702.931	-1.62
702.959	-4.62
702.988	7.38
703.016	-18.62
703.044	7.38
703.072	-8.62
703.1	0.38
703.128	-0.62
703.156	3.38
703.184	-4.62
703.212	9.38
703.241	0.38
703.269	0.38
703.297	10.38
703.325	1.38
703.353	-32.62
703.381	-19.62
703.409	8.38
703.437	-8.62
703.465	6.38
703.493	-0.62
703.522	5.38
703.55	11.38
703.578	12.38
703.606	-1.62
703.634	1.38
703.662	-10.62
703.69	-6.62
703.718	-1.62
703.746	15.38
703.774	0.38
703.802	14.38
703.83	-7.62
703.858	-5.62
703.886	-1.62
703.914	-21.62
703.942	0.38
703.97	-1.62
703.998	3.38
704.027	16.38
704.055	5.38
704.083	7.38
704.111	6.38
704.139	-2.62
704.167	-14.62
704.195	1.38
704.223	4.38
704.251	12.38
704.279	15.38
704.307	0.38
704.335	-0.62
704.363	4.38
704.391	-12.62
704.419	0.38
704.447	13.38
704.475	2.38
704.503	-14.62
704.531	6.38
704.558	1.38
704.586	2.38
704.614	5.38
704.642	12.38
704.67	-15.62
704.698	-5.62
704.726	-0.62
704.754	-6.62
704.782	-5.62
704.81	6.38
704.838	4.38
704.866	9.38
704.894	-0.62
704.922	-14.62
704.95	7.38
704.978	6.38
705.006	-0.62
705.034	18.38
705.061	0.38
705.089	-6.62
705.117	-6.62
705.145	3.38
705.173	-4.62
705.201	7.38
705.229	5.38
705.257	5.38
705.285	2.38
705.313	0.38
705.34	-7.62
705.368	-3.62
705.396	2.38
705.424	-3.62
705.452	-7.62
705.48	12.38
705.508	-4.62
705.536	0.38
705.563	-23.62
705.591	2.38
705.619	4.38
705.647	-13.62
705.675	6.38
705.703	15.38
705.731	8.38
705.758	23.38
705.786	4.38
705.814	10.38
705.842	7.38
705.87	12.38
705.898	2.38
705.925	-8.62
705.953	13.38
705.981	-11.62
706.009	2.38
706.037	2.38
706.065	-4.62
706.092	-15.62
706.12	1.38
706.148	-1.62
706.176	4.38
706.204	5.38
706.231	4.38
706.259	6.38
706.287	-3.62
706.315	6.38
706.342	-3.62
706.37	9.38
706.398	3.38
706.426	-17.62
706.454	5.38
706.481	12.38
706.509	2.38
706.537	-14.62
706.565	2.38
706.592	10.38
706.62	-3.62
706.648	-1.62
706.676	-11.62
706.703	2.38
706.731	-15.62
706.759	-12.62
706.787	-4.62
706.814	0.38
706.842	-17.62
706.87	-3.62
706.897	1.38
706.925	-12.62
706.953	9.38
706.981	23.38
707.008	14.38
707.036	1.38
707.064	-4.62
707.091	-28.62
707.119	-1.62
707.147	-5.62
707.174	-14.62
707.202	14.38
707.23	-1.62
707.258	-0.62
707.285	-13.62
707.313	-8.62
707.341	8.38
707.368	-4.62
707.396	-5.62
707.424	14.38
707.451	-0.62
707.479	-3.62
707.507	-0.62
707.534	-10.62
707.562	-1.62
707.59	-8.62
707.617	-8.62
707.645	3.38
707.672	4.38
707.7	-3.62
707.728	1.38
707.755	-0.62
707.783	-9.62
707.811	4.38
707.838	9.38
707.866	2.38
707.893	-9.62
707.921	2.38
707.949	-5.62
707.976	3.38
708.004	3.38
708.031	-1.62
708.059	-16.62
708.087	-7.62
708.114	-12.62
708.142	-3.62
708.169	-10.62
708.197	-13.62
708.225	-8.62
708.252	0.38
708.28	5.38
708.307	0.38
708.335	-7.62
708.362	-15.62
708.39	-9.62
708.418	-5.62
708.445	2.38
708.473	-7.62
708.5	-12.62
708.528	9.38
708.555	3.38
708.583	-11.62
708.61	-1.62
708.638	8.38
708.665	-4.62
708.693	-11.62
708.72	-7.62
708.748	-4.62
708.776	3.38
708.803	9.38
708.831	19.38
708.858	-0.62
708.886	0.38
708.913	1.38
708.941	4.38
708.968	8.38
708.996	-14.62
709.023	25.38
709.051	-13.62
709.078	-7.62
709.105	5.38
709.133	-2.62
709.16	-1.62
709.188	12.38
709.215	8.38
709.243	5.38
709.27	-5.62
709.298	-4.62
709.325	-1.62
709.353	2.38
709.38	15.38
709.408	9.38
709.435	2.38
709.462	-7.62
709.49	7.38
709.517	-10.62
709.545	-6.62
709.572	-13.62
709.6	5.38
709.627	9.38
709.655	-10.62
709.682	-11.62
709.709	-6.62
709.737	-7.62
709.764	-3.62
709.792	19.38
709.819	5.38
709.846	-5.62
709.874	7.38
709.901	12.38
709.929	24.38
709.956	19.38
709.983	-2.62
710.011	6.38
710.038	-3.62
710.066	11.38
710.093	0.38
710.12	-5.62
710.148	0.38
710.175	4.38
710.202	-1.62
710.23	15.38
710.257	-4.62
710.284	13.38
710.312	10.38
710.339	5.38
710.366	-2.62
710.394	6.38
710.421	6.38
710.448	-3.62
710.476	-9.62
710.503	-1.62
710.53	29.38
710.558	29.38
710.585	16.38
710.612	-8.62
710.64	4.38
710.667	-15.62
710.694	-6.62
710.722	2.38
710.749	-5.62
710.776	8.38
710.804	14.38
710.831	-7.62
710.858	4.38
710.885	-3.62
710.913	12.38
710.94	24.38
710.967	-5.62
710.995	2.38
711.022	-3.62
711.049	-3.62
711.076	-19.62
711.104	-0.62
711.131	-14.62
711.158	-13.62
711.185	9.38
711.213	-8.62
711.24	-4.62
711.267	-6.62
711.294	4.38
711.322	12.38
711.349	-7.62
711.376	-15.62
711.403	-9.62
711.431	-9.62
711.458	-3.62
711.485	-9.62
711.512	-9.62
711.54	-9.62
711.567	2.38
711.594	-0.62
711.621	-4.62
711.648	3.38
711.676	3.38
711.703	-9.62
711.73	-1.62
711.757	5.38
711.784	-0.62
711.812	-4.62
711.839	7.38
711.866	-1.62
711.893	-9.62
711.92	-4.62
711.947	22.38
711.975	11.38
712.002	-7.62
712.029	16.38
712.056	-2.62
712.083	15.38
712.11	-10.62
712.138	-1.62
712.165	8.38
712.192	3.38
712.219	-10.62
712.246	-11.62
712.273	-6.62
712.3	0.38
712.328	5.38
712.355	7.38
712.382	-5.62
712.409	5.38
712.436	-12.62
712.463	5.38
712.49	0.38
712.517	-8.62
712.544	-7.62
712.572	-0.62
712.599	-5.62
712.626	23.38
712.653	0.38
712.68	-12.62
712.707	10.38
712.734	-6.62
712.761	-1.62
712.788	-1.62
712.815	-7.62
712.842	6.38
712.87	-1.62
712.897	-7.62
712.924	-6.62
712.951	3.38
712.978	16.38
713.005	22.38
713.032	14.38
713.059	4.38
713.086	-1.62
713.113	-5.62
713.14	-3.62
713.167	9.38
713.194	13.38
713.221	4.38
713.248	19.38
713.275	16.38
713.302	-4.62
713.329	4.38
713.356	20.38
713.383	-1.62
713.41	9.38
713.437	-19.62
713.464	-6.62
713.491	15.38
713.518	-15.62
713.545	-14.62
713.572	-2.62
713.599	25.38
713.626	4.38
713.653	8.38
713.68	-4.62
713.707	2.38
713.734	6.38
713.761	-0.62
713.788	-8.62
713.815	14.38
713.842	-17.62
713.869	-2.62
713.896	-2.62
713.923	7.38
713.95	-3.62
713.977	-1.62
714.004	-21.62
714.031	-9.62
714.058	-4.62
714.085	-2.62
714.112	9.38
714.139	-3.62
714.165	-5.62
714.192	13.38
714.219	14.38
714.246	-4.62
714.273	-4.62
714.3	-7.62
714.327	-1.62
714.354	15.38
714.381	9.38
714.408	6.38
714.435	-1.62
714.461	-8.62
714.488	8.38
714.515	6.38
714.542	-7.62
714.569	-6.62
714.596	-1.62
714.623	-1.62
714.65	-12.62
714.677	-0.62
714.703	8.38
714.73	8.38
714.757	0.38
714.784	11.38
714.811	-1.62
714.838	11.38
714.865	3.38
714.891	0.38
714.918	-9.62
714.945	-15.62
714.972	-8.62
714.999	12.38
715.026	-4.62
715.052	18.38
715.079	12.38
715.106	13.38
715.133	19.38
715.16	18.38
715.187	-1.62
715.213	18.38
715.24	-2.62
715.267	8.38
715.294	-4.62
715.321	4.38
715.347	-7.62
715.374	-17.62
715.401	-14.62
715.428	-9.62
715.455	6.38
715.481	-22.62
715.508	3.38
715.535	-4.62
715.562	18.38
715.588	-6.62
715.615	-10.62
715.642	-5.62
715.669	3.38
715.695	-11.62
715.722	-9.62
715.749	-1.62
715.776	-2.62
715.802	2.38
715.829	-0.62
715.856	-14.62
715.883	0.38
715.909	-0.62
715.936	-4.62
715.963	4.38
715.99	-1.62
716.016	6.38
716.043	4.38
716.07	-6.62
716.096	-19.62
716.123	-2.62
716.15	-13.62
716.177	-1.62
716.203	-0.62
716.23	4.38
716.257	-1.62
716.283	8.38
716.31	0.38
716.337	-2.62
716.363	4.38
716.39	-4.62
716.417	7.38
716.443	-1.62
716.47	-3.62
716.497	5.38
716.523	8.38
716.55	9.38
716.577	21.38
716.603	6.38
716.63	10.38
716.657	15.38
716.683	2.38
716.71	-3.62
716.737	-9.62
716.763	7.38
716.79	7.38
716.817	11.38
716.843	5.38
716.87	-7.62
716.897	-5.62
716.923	9.38
716.95	-1.62
716.976	-1.62
717.003	6.38
717.03	3.38
717.056	14.38
717.083	0.38
717.109	8.38
717.136	2.38
717.163	1.38
717.189	14.38
717.216	-0.62
717.242	4.38
717.269	-1.62
717.296	5.38
717.322	-4.62
717.349	17.38
717.375	11.38
717.402	-0.62
717.428	6.38
717.455	17.38
717.481	10.38
717.508	14.38
717.535	9.38
717.561	-4.62
717.588	-18.62
717.614	-8.62
717.641	6.38
717.667	-3.62
717.694	9.38
717.72	3.38
717.747	2.38
717.773	-7.62
717.8	3.38
717.826	5.38
717.853	6.38
717.88	7.38
717.906	-4.62
717.933	6.38
717.959	-3.62
717.986	12.38
718.012	1.38
718.039	22.38
718.065	7.38
718.092	11.38
718.118	-13.62
718.144	-8.62
718.171	5.38
718.197	6.38
718.224	0.38
718.25	11.38
718.277	12.38
718.303	17.38
718.33	-7.62
718.356	-4.62
718.383	-20.62
718.409	10.38
718.436	-9.62
718.462	-1.62
718.489	5.38
718.515	11.38
718.541	7.38
718.568	6.38
718.594	-12.62
718.621	28.38
718.647	16.38
718.674	6.38
718.7	14.38
718.726	1.38
718.753	-2.62
718.779	9.38
718.806	8.38
718.832	-5.62
718.858	-3.62
718.885	3.38
718.911	4.38
718.938	26.38
718.964	-3.62
718.99	2.38
719.017	-0.62
719.043	-6.62
719.07	15.38
719.096	7.38
719.122	8.38
719.149	2.38
719.175	-0.62
719.201	5.38
719.228	6.38
719.254	6.38
719.281	-14.62
719.307	-10.62
719.333	-17.62
719.36	2.38
719.386	-7.62
719.412	-0.62
719.439	-1.62
719.465	-6.62
719.491	-0.62
719.518	16.38
719.544	3.38
719.57	8.38
719.597	1.38
719.623	-0.62
719.649	18.38
719.675	-5.62
719.702	0.38
719.728	3.38
719.754	-15.62
719.781	-3.62
719.807	-0.62
719.833	-3.62
719.86	-4.62
719.886	-9.62
719.912	0.38
719.938	-5.62
719.965	-1.62
719.991	10.38
720.017	-4.62
720.044	9.38
720.07	-5.62
720.096	5.38
720.122	-6.62
720.149	5.38
720.175	17.38
720.201	3.38
720.227	-0.62
720.254	9.38
720.28	4.38
720.306	-6.62
720.332	9.38
720.359	-3.62
720.385	-4.62
720.411	5.38
720.437	5.38
720.463	-5.62
720.49	3.38
720.516	-9.62
720.542	-9.62
720.568	9.38
720.595	-0.62
720.621	-3.62
720.647	6.38
720.673	20.38
720.699	-12.62
720.725	3.38
720.752	8.38
720.778	-20.62
720.804	14.38
720.83	17.38
720.856	6.38
720.883	1.38
720.909	-4.62
720.935	3.38
720.961	20.38
720.987	-0.62
721.013	-1.62
721.04	-9.62
721.066	-6.62
721.092	4.38
721.118	6.38
721.144	-6.62
721.17	1.38
721.196	-1.62
721.223	-13.62
721.249	-1.62
721.275	11.38
721.301	5.38
721.327	12.38
721.353	-1.62
721.379	-1.62
721.405	5.38
721.432	17.38
721.458	-8.62
721.484	10.38
721.51	-22.62
721.536	9.38
721.562	7.38
721.588	11.38
721.614	-10.62
721.64	-0.62
721.666	-1.62
721.693	6.38
721.719	-11.62
721.745	-11.62
721.771	-1.62
721.797	-4.62
721.823	15.38
721.849	12.38
721.875	1.38
721.901	-0.62
721.927	-0.62
721.953	5.38
721.979	1.38
722.005	3.38
722.031	4.38
722.057	11.38
722.083	12.38
722.109	-1.62
722.135	23.38
722.161	11.38
722.187	0.38
722.214	-13.62
722.24	-4.62
722.266	-8.62
722.292	2.38
722.318	9.38
722.344	10.38
722.37	8.38
722.396	19.38
722.422	-3.62
722.448	2.38
722.474	-3.62
722.5	22.38
722.526	5.38
722.552	1.38
722.578	14.38
722.603	10.38
722.629	-4.62
722.655	12.38
722.681	-1.62
722.707	10.38
722.733	-2.62
722.759	-6.62
722.785	-3.62
722.811	4.38
722.837	1.38
722.863	4.38
722.889	7.38
722.915	1.38
722.941	0.38
722.967	-6.62
722.993	5.38
723.019	-0.62
723.045	12.38
723.071	-1.62
723.097	-0.62
723.122	0.38
723.148	-0.62
723.174	3.38
723.2	2.38
723.226	2.38
723.252	3.38
723.278	3.38
723.304	-9.62
723.33	1.38
723.356	-2.62
723.381	-12.62
723.407	-10.62
723.433	10.38
723.459	-5.62
723.485	4.38
723.511	14.38
723.537	2.38
723.563	-7.62
723.588	16.38
723.614	13.38
723.64	7.38
723.666	-5.62
723.692	-0.62
723.718	-3.62
723.744	-1.62
723.769	4.38
723.795	-10.62
723.821	3.38
723.847	3.38
723.873	1.38
723.899	-3.62
723.924	-7.62
723.95	12.38
723.976	3.38
724.002	4.38
724.028	21.38
724.053	-4.62
724.079	-6.62
724.105	-0.62
724.131	-2.62
724.157	15.38
724.182	11.38
724.208	-2.62
724.234	2.38
724.26	-4.62
724.286	9.38
724.311	14.38
724.337	-5.62
724.363	3.38
724.389	6.38
724.415	-6.62
724.44	11.38
724.466	-9.62
724.492	8.38
724.518	11.38
724.543	-8.62
724.569	17.38
724.595	-1.62
724.621	0.38
724.646	-11.62
724.672	-0.62
724.698	-1.62
724.723	-0.62
724.749	-0.62
724.775	18.38
724.801	0.38
724.826	-13.62
724.852	-6.62
724.878	-21.62
724.904	-8.62
724.929	7.38
724.955	-10.62
724.981	-1.62
725.006	-13.62
725.032	-4.62
725.058	12.38
725.083	-3.62
725.109	-11.62
725.135	-6.62
725.161	1.38
725.186	5.38
725.212	-16.62
725.238	20.38
725.263	7.38
725.289	-4.62
725.315	-12.62
725.34	3.38
725.366	0.38
725.392	-0.62
725.417	-8.62
725.443	-0.62
725.468	16.38
725.494	22.38
725.52	4.38
725.545	-1.62
725.571	-16.62
725.597	3.38
725.622	-2.62
725.648	-1.62
725.674	17.38
725.699	-0.62
725.725	-0.62
725.75	18.38
725.776	2.38
725.802	13.38
725.827	7.38
725.853	7.38
725.878	3.38
725.904	-4.62
725.93	-2.62
725.955	-15.62
725.981	-8.62
726.006	1.38
726.032	-13.62
726.057	-1.62
726.083	0.38
726.109	6.38
726.134	4.38
726.16	11.38
726.185	-5.62
726.211	0.38
726.236	-4.62
726.262	-4.62
726.288	9.38
726.313	11.38
726.339	5.38
726.364	-7.62
726.39	7.38
726.415	-17.62
726.441	0.38
726.466	-14.62
726.492	-0.62
726.517	4.38
726.543	-1.62
726.568	-12.62
726.594	-0.62
726.619	9.38
726.645	13.38
726.67	16.38
726.696	1.38
726.721	0.38
726.747	-0.62
726.772	-3.62
726.798	-5.62
726.823	6.38
726.849	-5.62
726.874	8.38
726.9	33.38
726.925	7.38
726.951	6.38
726.976	10.38
727.002	0.38
727.027	6.38
727.053	17.38
727.078	-0.62
727.104	3.38
727.129	-17.62
727.155	2.38
727.18	12.38
727.205	15.38
727.231	2.38
727.256	2.38
727.282	0.38
727.307	2.38
727.333	-8.62
727.358	-19.62
727.383	-9.62
727.409	-11.62
727.434	0.38
727.46	6.38
727.485	19.38
727.511	2.38
727.536	-5.62
727.561	-8.62
727.587	6.38
727.612	3.38
727.637	1.38
727.663	-19.62
727.688	11.38
727.714	-8.62
727.739	-9.62
727.764	8.38
727.79	4.38
727.815	-2.62
727.841	11.38
727.866	15.38
727.891	-3.62
727.917	-9.62
727.942	-5.62
727.967	2.38
727.993	-17.62
728.018	-0.62
728.043	2.38
728.069	8.38
728.094	8.38
728.119	-4.62
728.145	13.38
728.17	-1.62
728.195	-1.62
728.221	2.38
728.246	-20.62
728.271	-16.62
728.297	-6.62
728.322	-3.62
728.347	8.38
728.373	10.38
728.398	1.38
728.423	-5.62
728.448	2.38
728.474	-3.62
728.499	8.38
728.524	-20.62
728.55	-13.62
728.575	-0.62
728.6	-6.62
728.625	-13.62
728.651	-2.62
728.676	6.38
728.701	-16.62
728.727	-0.62
728.752	-11.62
728.777	-11.62
728.802	-15.62
728.828	2.38
728.853	-3.62
728.878	-0.62
728.903	-11.62
728.929	6.38
728.954	-5.62
728.979	17.38
729.004	-3.62
729.03	-8.62
729.055	3.38
729.08	-7.62
729.105	-1.62
729.13	28.38
729.156	-3.62
729.181	-11.62
729.206	-10.62
729.231	-24.62
729.256	-8.62
729.282	-1.62
729.307	-10.62
729.332	-6.62
729.357	6.38
729.382	-5.62
729.408	2.38
729.433	2.38
729.458	-0.62
729.483	17.38
729.508	15.38
729.533	-5.62
729.559	-9.62
729.584	-16.62
729.609	-0.62
729.634	15.38
729.659	-1.62
729.684	-5.62
729.71	18.38
729.735	-6.62
729.76	-2.62
729.785	-0.62
729.81	4.38
729.835	3.38
729.86	-16.62
729.886	10.38
729.911	6.38
729.936	-11.62
729.961	-8.62
729.986	-17.62
730.011	-4.62
730.036	-1.62
730.061	-9.62
730.086	4.38
730.112	5.38
730.137	9.38
730.162	15.38
730.187	-14.62
730.212	-1.62
730.237	-6.62
730.262	5.38
730.287	-0.62
730.312	21.38
730.337	-2.62
730.362	10.38
730.387	-17.62
730.413	-8.62
730.438	-6.62
730.463	-3.62
730.488	-19.62
730.513	-22.62
730.538	-0.62
730.563	17.38
730.588	16.38
730.613	12.38
730.638	-17.62
730.663	-20.62
730.688	-0.62
730.713	-8.62
730.738	-1.62
730.763	6.38
730.788	-6.62
730.813	16.38
730.838	2.38
730.863	0.38
730.888	-11.62
730.913	-13.62
730.938	-31.62
730.963	-1.62
730.988	0.38
731.013	20.38
731.038	-11.62
731.063	-14.62
731.088	7.38
731.113	-9.62
731.138	-9.62
731.163	-5.62
731.188	-15.62
731.213	-13.62
731.238	7.38
731.263	-5.62
731.288	-9.62
731.313	2.38
731.338	2.38
731.363	-1.62
731.388	5.38
731.413	0.38
731.438	11.38
731.463	13.38
731.487	0.38
731.512	-24.62
731.537	-5.62
731.562	-8.62
731.587	-9.62
731.612	3.38
731.637	-5.62
731.662	-0.62
731.687	1.38
731.712	-14.62
731.737	13.38
731.762	-3.62
731.786	6.38
731.811	-0.62
731.836	-7.62
731.861	-10.62
731.886	-10.62
731.911	19.38
731.936	2.38
731.961	5.38
731.986	-3.62
732.01	0.38
732.035	6.38
732.06	5.38
732.085	-0.62
732.11	2.38
732.135	-22.62
732.16	0.38
732.184	-4.62
732.209	1.38
732.234	-3.62
732.259	-9.62
732.284	4.38
732.309	-11.62
732.334	-9.62
732.358	-24.62
732.383	-4.62
732.408	2.38
732.433	6.38
732.458	3.38
732.482	4.38
732.507	8.38
732.532	-5.62
732.557	7.38
732.582	-2.62
732.607	-7.62
732.631	-8.62
732.656	4.38
732.681	3.38
732.706	2.38
732.73	2.38
732.755	-8.62
732.78	-0.62
732.805	-1.62
732.83	-8.62
732.854	-5.62
732.879	12.38
732.904	-1.62
732.929	-0.62
732.953	14.38
732.978	1.38
733.003	-1.62
733.028	-6.62
733.052	-0.62
733.077	0.38
733.102	-1.62
733.127	-16.62
733.151	0.38
733.176	20.38
733.201	-3.62
733.226	-4.62
733.25	-9.62
733.275	-3.62
733.3	-7.62
733.324	11.38
733.349	12.38
733.374	13.38
733.399	15.38
733.423	3.38
733.448	9.38
733.473	-1.62
733.497	-8.62
733.522	0.38
733.547	18.38
733.571	18.38
733.596	8.38
733.621	3.38
733.646	-9.62
733.67	14.38
733.695	9.38
733.72	-8.62
733.744	3.38
733.769	9.38
733.794	18.38
733.818	4.38
733.843	-7.62
733.867	-8.62
733.892	-5.62
733.917	-1.62
733.941	7.38
733.966	-9.62
733.991	-15.62
734.015	4.38
734.04	-6.62
734.065	6.38
734.089	3.38
734.114	0.38
734.138	-10.62
734.163	4.38
734.188	0.38
734.212	5.38
734.237	5.38
734.261	2.38
734.286	-21.62
734.311	5.38
734.335	4.38
734.36	-16.62
734.384	-0.62
734.409	9.38
734.434	1.38
734.458	11.38
734.483	-1.62
734.507	0.38
734.532	3.38
734.556	0.38
734.581	-6.62
734.606	-7.62
734.63	-5.62
734.655	-0.62
734.679	4.38
734.704	4.38
734.728	1.38
734.753	-1.62
734.777	-9.62
734.802	-2.62
734.826	14.38
734.851	3.38
734.876	6.38
734.9	4.38
734.925	8.38
734.949	-1.62
734.974	-14.62
734.998	-3.62
735.023	-5.62
735.047	-10.62
735.072	9.38
735.096	3.38
735.121	9.38
735.145	2.38
735.17	-8.62
735.194	11.38
735.219	-1.62
735.243	8.38
735.268	15.38
735.292	8.38
735.317	11.38
735.341	0.38
735.365	-5.62
735.39	25.38
735.414	-8.62
735.439	8.38
735.463	0.38
735.488	10.38
735.512	0.38
735.537	-3.62
735.561	-6.62
735.586	6.38
735.61	9.38
735.634	-3.62
735.659	0.38
735.683	27.38
735.708	-6.62
735.732	8.38
735.757	-0.62
735.781	-5.62
735.805	4.38
735.83	-7.62
735.854	7.38
735.879	-3.62
735.903	15.38
735.927	12.38
735.952	-0.62
735.976	-12.62
736.001	5.38
736.025	-5.62
736.049	4.38
736.074	4.38
736.098	-1.62
736.123	4.38
736.147	-5.62
736.171	-7.62
736.196	0.38
736.22	-7.62
736.244	6.38
736.269	-2.62
736.293	1.38
736.317	8.38
736.342	15.38
736.366	19.38
736.39	13.38
736.415	2.38
736.439	-9.62
736.463	-4.62
736.488	-13.62
736.512	13.38
736.536	9.38
736.561	12.38
736.585	11.38
736.609	3.38
736.634	-3.62
736.658	2.38
736.682	-7.62
736.707	-1.62
736.731	-2.62
736.755	7.38
736.78	21.38
736.804	10.38
736.828	-6.62
736.852	-15.62
736.877	1.38
736.901	-3.62
736.925	3.38
736.949	12.38
736.974	-6.62
736.998	-5.62
737.022	0.38
737.047	-3.62
737.071	0.38
737.095	17.38
737.119	26.38
737.144	1.38
737.168	-22.62
737.192	-7.62
737.216	7.38
737.241	2.38
737.265	11.38
737.289	15.38
737.313	2.38
737.337	2.38
737.362	3.38
737.386	-0.62
737.41	-25.62
737.434	6.38
737.459	8.38
737.483	9.38
737.507	2.38
737.531	9.38
737.555	-2.62
737.58	7.38
737.604	6.38
737.628	-14.62
737.652	4.38
737.676	-2.62
737.701	8.38
737.725	4.38
737.749	8.38
737.773	8.38
737.797	-1.62
737.821	6.38
737.846	-3.62
737.87	26.38
737.894	-9.62
737.918	-5.62
737.942	-3.62
737.966	10.38
737.99	3.38
738.015	6.38
738.039	7.38
738.063	-1.62
738.087	14.38
738.111	-0.62
738.135	11.38
738.159	-3.62
738.184	1.38
738.208	25.38
738.232	16.38
738.256	12.38
738.28	0.38
738.304	11.38
738.328	-11.62
738.352	-22.62
738.376	0.38
738.4	16.38
738.425	-0.62
738.449	4.38
738.473	6.38
738.497	2.38
738.521	1.38
738.545	-4.62
738.569	-0.62
738.593	4.38
738.617	17.38
738.641	-1.62
738.665	-6.62
738.689	7.38
738.713	11.38
738.737	6.38
738.762	20.38
738.786	-2.62
738.81	-4.62
738.834	16.38
738.858	-21.62
738.882	-8.62
738.906	1.38
738.93	-0.62
738.954	14.38
738.978	6.38
739.002	3.38
739.026	11.38
739.05	20.38
739.074	5.38
739.098	22.38
739.122	6.38
739.146	3.38
739.17	9.38
739.194	6.38
739.218	-27.62
739.242	-0.62
739.266	-8.62
739.29	12.38
739.314	10.38
739.338	10.38
739.362	6.38
739.386	0.38
739.41	2.38
739.434	-3.62
739.458	15.38
739.482	14.38
739.506	10.38
739.53	-6.62
739.554	19.38
739.577	-5.62
739.601	7.38
739.625	-3.62
739.649	-3.62
739.673	-1.62
739.697	6.38
739.721	0.38
739.745	8.38
739.769	9.38
739.793	10.38
739.817	7.38
739.841	-11.62
739.865	12.38
739.889	-15.62
739.912	-1.62
739.936	5.38
739.96	-3.62
739.984	9.38
740.008	5.38
740.032	-8.62
740.056	-0.62
740.08	7.38
740.104	-7.62
740.127	13.38
740.151	16.38
740.175	13.38
740.199	5.38
740.223	48.38
740.247	1.38
740.271	-4.62
740.295	-24.62
740.318	-17.62
740.342	-3.62
740.366	-8.62
740.39	15.38
740.414	-17.62
740.438	-7.62
740.461	10.38
740.485	8.38
740.509	-8.62
740.533	-2.62
740.557	-0.62
740.581	-6.62
740.604	-13.62
740.628	-7.62
740.652	14.38
740.676	-5.62
740.7	6.38
740.723	-1.62
740.747	-13.62
740.771	-14.62
740.795	-7.62
740.819	17.38
740.842	-2.62
740.866	11.38
740.89	16.38
740.914	0.38
740.938	-0.62
740.961	0.38
740.985	1.38
741.009	2.38
741.033	6.38
741.056	6.38
741.08	-4.62
741.104	-5.62
741.128	13.38
741.151	15.38
741.175	12.38
741.199	4.38
741.223	12.38
741.246	0.38
741.27	-0.62
741.294	5.38
741.318	2.38
741.341	-7.62
741.365	5.38
741.389	3.38
741.413	9.38
741.436	31.38
741.46	0.38
741.484	1.38
741.507	-0.62
741.531	15.38
741.555	24.38
741.579	-0.62
741.602	-1.62
741.626	-4.62
741.65	-15.62
741.673	-7.62
741.697	-3.62
741.721	10.38
741.744	-13.62
741.768	-5.62
741.792	4.38
741.815	-0.62
741.839	22.38
741.863	18.38
741.886	12.38
741.91	7.38
741.934	2.38
741.957	-25.62
741.981	21.38
742.005	7.38
742.028	5.38
742.052	3.38
742.075	4.38
742.099	21.38
742.123	-1.62
742.146	4.38
742.17	0.38
742.194	2.38
742.217	-2.62
742.241	-3.62
742.264	0.38
742.288	28.38
742.312	-3.62
742.335	-8.62
742.359	-1.62
742.382	15.38
742.406	8.38
742.43	2.38
742.453	8.38
742.477	-8.62
742.5	0.38
742.524	-1.62
742.548	4.38
742.571	6.38
742.595	-0.62
742.618	-6.62
742.642	4.38
742.665	19.38
742.689	-12.62
742.712	14.38
742.736	0.38
742.76	-7.62
742.783	11.38
742.807	2.38
742.83	11.38
742.854	-3.62
742.877	-3.62
742.901	-6.62
742.924	-8.62
742.948	7.38
742.971	-1.62
742.995	-9.62
743.018	-1.62
743.042	2.38
743.065	-15.62
743.089	-8.62
743.112	-14.62
743.136	-4.62
743.159	-15.62
743.183	-8.62
743.206	-10.62
743.23	0.38
743.253	-3.62
743.277	6.38
743.3	-1.62
743.324	10.38
743.347	-6.62
743.371	8.38
743.394	17.38
743.418	31.38
743.441	-1.62
743.465	11.38
743.488	3.38
743.512	-15.62
743.535	-9.62
743.558	-6.62
743.582	12.38
743.605	0.38
743.629	6.38
743.652	4.38
743.676	-1.62
743.699	12.38
743.723	5.38
743.746	2.38
743.769	5.38
743.793	-0.62
743.816	0.38
743.84	24.38
743.863	-3.62
743.886	-3.62
743.91	-1.62
743.933	5.38
743.957	-1.62
743.98	-5.62
744.003	6.38
744.027	-5.62
744.05	-2.62
744.074	2.38
744.097	-5.62
744.12	-2.62
744.144	-12.62
744.167	16.38
744.19	-16.62
744.214	6.38
744.237	-13.62
744.26	23.38
744.284	7.38
744.307	-5.62
744.331	-8.62
744.354	-5.62
744.377	-6.62
744.401	-7.62
744.424	-0.62
744.447	-8.62
744.471	-8.62
