Data from HighRes_H2_15_09_11_07_2024_HR4C61891__160__15-11-12-401.txt Node

Date: Thu Nov 07 15:11:12 EST 2024
User: crc00042
Spectrometer: HR4C6189
Trigger mode: 4
Integration Time (sec): 1.000000E-1
Scans to average: 1
Electric dark correction enabled: true
Nonlinearity correction enabled: false
Boxcar width: 0
XAxis mode: Wavelengths
Number of Pixels in Spectrum: 3648
>>>>>Begin Spectral Data<<<<<
639.567	-40.85
639.602	-40.85
639.636	-40.85
639.67	-50.85
639.704	-10.85
639.738	-7.85
639.773	4.15
639.807	-8.85
639.841	12.15
639.875	5.15
639.909	5.15
639.943	-15.85
639.978	-8.85
640.012	2.15
640.046	14.15
640.08	9.15
640.114	-7.85
640.148	-2.85
640.182	-9.85
640.217	-3.85
640.251	10.15
640.285	0.15
640.319	0.15
640.353	-2.85
640.387	-1.85
640.421	-2.85
640.455	-1.85
640.49	4.15
640.524	14.15
640.558	7.15
640.592	20.15
640.626	11.15
640.66	8.15
640.694	1.15
640.728	7.15
640.762	14.15
640.796	6.15
640.83	10.15
640.865	-14.85
640.899	12.15
640.933	9.15
640.967	5.15
641.001	7.15
641.035	6.15
641.069	3.15
641.103	-4.85
641.137	10.15
641.171	-11.85
641.205	12.15
641.239	4.15
641.273	5.15
641.307	19.15
641.341	-11.85
641.375	-7.85
641.409	18.15
641.443	4.15
641.477	5.15
641.511	7.15
641.545	5.15
641.579	-9.85
641.614	10.15
641.648	9.15
641.682	-1.85
641.716	9.15
641.75	29.15
641.784	-5.85
641.818	-16.85
641.852	1.15
641.886	-8.85
641.919	25.15
641.953	-3.85
641.987	-31.85
642.021	10.15
642.055	0.15
642.089	-3.85
642.123	-19.85
642.157	14.15
642.191	-7.85
642.225	16.15
642.259	-5.85
642.293	-1.85
642.327	-2.85
642.361	-10.85
642.395	14.15
642.429	2.15
642.463	5.15
642.497	13.15
642.531	-3.85
642.565	0.15
642.599	9.15
642.633	-5.85
642.666	7.15
642.7	-0.85
642.734	14.15
642.768	-11.85
642.802	11.15
642.836	10.15
642.87	6.15
642.904	10.15
642.938	-1.85
642.972	-2.85
643.005	-4.85
643.039	11.15
643.073	4.15
643.107	20.15
643.141	4.15
643.175	0.15
643.209	-0.85
643.243	-2.85
643.276	-3.85
643.31	12.15
643.344	4.15
643.378	0.15
643.412	13.15
643.446	-15.85
643.48	0.15
643.513	14.15
643.547	3.15
643.581	-4.85
643.615	6.15
643.649	7.15
643.683	9.15
643.716	-10.85
643.75	-5.85
643.784	-6.85
643.818	9.15
643.852	-13.85
643.886	-6.85
643.919	17.15
643.953	5.15
643.987	4.15
644.021	8.15
644.055	9.15
644.088	-8.85
644.122	-3.85
644.156	-5.85
644.19	8.15
644.224	-8.85
644.257	4.15
644.291	11.15
644.325	9.15
644.359	-12.85
644.392	22.15
644.426	20.15
644.46	12.15
644.494	7.15
644.527	-6.85
644.561	-2.85
644.595	2.15
644.629	-10.85
644.662	10.15
644.696	28.15
644.73	-1.85
644.764	5.15
644.797	10.15
644.831	-2.85
644.865	-0.85
644.899	-6.85
644.932	19.15
644.966	6.15
645	10.15
645.033	11.15
645.067	-11.85
645.101	18.15
645.135	-3.85
645.168	2.15
645.202	-6.85
645.236	-3.85
645.269	16.15
645.303	-4.85
645.337	-24.85
645.37	-7.85
645.404	6.15
645.438	5.15
645.471	6.15
645.505	18.15
645.539	10.15
645.572	7.15
645.606	3.15
645.64	8.15
645.673	-3.85
645.707	19.15
645.741	0.15
645.774	-3.85
645.808	9.15
645.842	4.15
645.875	1.15
645.909	-7.85
645.943	2.15
645.976	10.15
646.01	3.15
646.043	6.15
646.077	24.15
646.111	5.15
646.144	13.15
646.178	19.15
646.212	3.15
646.245	-5.85
646.279	11.15
646.312	-4.85
646.346	13.15
646.38	7.15
646.413	17.15
646.447	6.15
646.48	14.15
646.514	21.15
646.547	-5.85
646.581	1.15
646.615	4.15
646.648	-7.85
646.682	1.15
646.715	-11.85
646.749	12.15
646.782	-0.85
646.816	4.15
646.85	16.15
646.883	-18.85
646.917	2.15
646.95	12.15
646.984	-3.85
647.017	0.15
647.051	2.15
647.084	9.15
647.118	-23.85
647.151	-1.85
647.185	18.15
647.218	-3.85
647.252	1.15
647.285	-8.85
647.319	-11.85
647.353	20.15
647.386	31.15
647.42	17.15
647.453	0.15
647.487	7.15
647.52	5.15
647.553	0.15
647.587	-9.85
647.62	-1.85
647.654	-9.85
647.687	-13.85
647.721	5.15
647.754	9.15
647.788	12.15
647.821	-11.85
647.855	4.15
647.888	-14.85
647.922	1.15
647.955	-11.85
647.989	12.15
648.022	16.15
648.055	4.15
648.089	0.15
648.122	17.15
648.156	7.15
648.189	4.15
648.223	-1.85
648.256	13.15
648.29	1.15
648.323	-2.85
648.356	10.15
648.39	-1.85
648.423	1.15
648.457	-10.85
648.49	9.15
648.523	-0.85
648.557	-10.85
648.59	11.15
648.624	14.15
648.657	14.15
648.69	7.15
648.724	12.15
648.757	-7.85
648.791	2.15
648.824	13.15
648.857	31.15
648.891	9.15
648.924	19.15
648.957	30.15
648.991	6.15
649.024	13.15
649.057	-14.85
649.091	2.15
649.124	2.15
649.158	5.15
649.191	19.15
649.224	-1.85
649.258	2.15
649.291	7.15
649.324	2.15
649.358	3.15
649.391	14.15
649.424	6.15
649.458	-5.85
649.491	7.15
649.524	-4.85
649.557	8.15
649.591	2.15
649.624	7.15
649.657	-3.85
649.691	2.15
649.724	3.15
649.757	4.15
649.791	6.15
649.824	19.15
649.857	7.15
649.89	5.15
649.924	-4.85
649.957	7.15
649.99	-22.85
650.023	12.15
650.057	8.15
650.09	-3.85
650.123	-15.85
650.157	19.15
650.19	20.15
650.223	1.15
650.256	-13.85
650.29	-6.85
650.323	8.15
650.356	7.15
650.389	-3.85
650.423	-13.85
650.456	-9.85
650.489	-9.85
650.522	11.15
650.555	18.15
650.589	-2.85
650.622	3.15
650.655	12.15
650.688	8.15
650.721	4.15
650.755	-2.85
650.788	2.15
650.821	1.15
650.854	13.15
650.887	-4.85
650.921	1.15
650.954	1.15
650.987	6.15
651.02	15.15
651.053	-2.85
651.087	-11.85
651.12	16.15
651.153	10.15
651.186	3.15
651.219	-7.85
651.252	24.15
651.286	16.15
651.319	-8.85
651.352	-9.85
651.385	9.15
651.418	8.15
651.451	25.15
651.484	17.15
651.518	-4.85
651.551	22.15
651.584	-1.85
651.617	3.15
651.65	8.15
651.683	18.15
651.716	-21.85
651.749	-13.85
651.783	4.15
651.816	-1.85
651.849	6.15
651.882	5.15
651.915	5.15
651.948	12.15
651.981	5.15
652.014	9.15
652.047	-11.85
652.08	-1.85
652.114	20.15
652.147	-2.85
652.18	-5.85
652.213	17.15
652.246	-4.85
652.279	3.15
652.312	9.15
652.345	-19.85
652.378	-3.85
652.411	16.15
652.444	14.15
652.477	4.15
652.51	-4.85
652.543	-11.85
652.576	-6.85
652.609	-7.85
652.642	21.15
652.675	12.15
652.709	6.15
652.742	5.15
652.775	14.15
652.808	-4.85
652.841	9.15
652.874	2.15
652.907	6.15
652.94	-6.85
652.973	-10.85
653.006	-5.85
653.039	13.15
653.072	0.15
653.105	-11.85
653.138	-8.85
653.171	3.15
653.204	1.15
653.237	5.15
653.27	-5.85
653.303	-11.85
653.336	9.15
653.368	-2.85
653.401	1.15
653.434	8.15
653.467	10.15
653.5	-14.85
653.533	-17.85
653.566	2.15
653.599	10.15
653.632	4.15
653.665	9.15
653.698	-1.85
653.731	-2.85
653.764	-5.85
653.797	-11.85
653.83	0.15
653.863	4.15
653.896	9.15
653.929	-0.85
653.961	3.15
653.994	3.15
654.027	-12.85
654.06	5.15
654.093	14.15
654.126	0.15
654.159	3.15
654.192	14.15
654.225	-9.85
654.258	-2.85
654.29	2.15
654.323	-1.85
654.356	-4.85
654.389	0.15
654.422	-7.85
654.455	-2.85
654.488	15.15
654.521	-20.85
654.553	-8.85
654.586	10.15
654.619	9.15
654.652	10.15
654.685	12.15
654.718	3.15
654.751	20.15
654.783	-11.85
654.816	4.15
654.849	21.15
654.882	-9.85
654.915	-11.85
654.948	-2.85
654.98	4.15
655.013	13.15
655.046	-5.85
655.079	-1.85
655.112	-1.85
655.144	-4.85
655.177	-3.85
655.21	21.15
655.243	5.15
655.276	10.15
655.308	2.15
655.341	4.15
655.374	11.15
655.407	-4.85
655.44	8.15
655.472	9.15
655.505	-5.85
655.538	4.15
655.571	13.15
655.603	9.15
655.636	17.15
655.669	16.15
655.702	16.15
655.734	13.15
655.767	8.15
655.8	9.15
655.833	11.15
655.865	34.15
655.898	26.15
655.931	51.15
655.964	34.15
655.996	49.15
656.029	57.15
656.062	61.15
656.095	64.15
656.127	56.15
656.16	92.15
656.193	124.15
656.225	186.15
656.258	284.15
656.291	524.15
656.324	1125.15
656.356	3368.15
656.389	7623.15
656.422	6147.15
656.454	2091.15
656.487	693.15
656.52	271.15
656.552	126.15
656.585	70.15
656.618	60.15
656.65	53.15
656.683	40.15
656.716	17.15
656.748	16.15
656.781	7.15
656.814	12.15
656.846	13.15
656.879	-3.85
656.912	11.15
656.944	-0.85
656.977	-14.85
657.01	3.15
657.042	4.15
657.075	3.15
657.108	11.15
657.14	8.15
657.173	28.15
657.205	25.15
657.238	10.15
657.271	10.15
657.303	-9.85
657.336	0.15
657.369	-10.85
657.401	13.15
657.434	5.15
657.466	10.15
657.499	-0.85
657.532	14.15
657.564	3.15
657.597	-2.85
657.629	2.15
657.662	3.15
657.694	7.15
657.727	2.15
657.76	4.15
657.792	-4.85
657.825	-6.85
657.857	-8.85
657.89	6.15
657.922	8.15
657.955	4.15
657.987	14.15
658.02	8.15
658.053	18.15
658.085	-4.85
658.118	8.15
658.15	5.15
658.183	16.15
658.215	3.15
658.248	-19.85
658.28	2.15
658.313	22.15
658.345	8.15
658.378	4.15
658.41	-8.85
658.443	6.15
658.475	5.15
658.508	1.15
658.54	-8.85
658.573	-5.85
658.605	-4.85
658.638	-0.85
658.67	-13.85
658.703	-3.85
658.735	-3.85
658.768	2.15
658.8	-18.85
658.833	13.15
658.865	-1.85
658.898	-7.85
658.93	4.15
658.963	16.15
658.995	0.15
659.028	5.15
659.06	3.15
659.092	0.15
659.125	-5.85
659.157	10.15
659.19	-0.85
659.222	1.15
659.255	5.15
659.287	-6.85
659.32	-2.85
659.352	-5.85
659.384	6.15
659.417	-1.85
659.449	6.15
659.482	16.15
659.514	-15.85
659.546	-4.85
659.579	-7.85
659.611	3.15
659.644	-2.85
659.676	-23.85
659.708	-19.85
659.741	0.15
659.773	4.15
659.806	-8.85
659.838	1.15
659.87	-1.85
659.903	0.15
659.935	26.15
659.967	11.15
660	11.15
660.032	6.15
660.065	26.15
660.097	-6.85
660.129	6.15
660.162	-26.85
660.194	-2.85
660.226	6.15
660.259	4.15
660.291	-13.85
660.323	-6.85
660.356	-0.85
660.388	-9.85
660.42	1.15
660.453	9.15
660.485	-1.85
660.517	14.15
660.55	15.15
660.582	1.15
660.614	8.15
660.647	0.15
660.679	0.15
660.711	14.15
660.743	-11.85
660.776	-18.85
660.808	-0.85
660.84	-5.85
660.873	2.15
660.905	-11.85
660.937	13.15
660.969	8.15
661.002	9.15
661.034	3.15
661.066	2.15
661.099	11.15
661.131	15.15
661.163	7.15
661.195	4.15
661.228	18.15
661.26	-9.85
661.292	-11.85
661.324	25.15
661.357	-4.85
661.389	-17.85
661.421	9.15
661.453	6.15
661.485	2.15
661.518	-8.85
661.55	-16.85
661.582	-7.85
661.614	-5.85
661.647	3.15
661.679	10.15
661.711	-2.85
661.743	-0.85
661.775	-4.85
661.808	21.15
661.84	-17.85
661.872	5.15
661.904	8.15
661.936	5.15
661.969	-19.85
662.001	-8.85
662.033	-1.85
662.065	2.15
662.097	-2.85
662.129	5.15
662.162	-4.85
662.194	-2.85
662.226	1.15
662.258	21.15
662.29	-9.85
662.322	-3.85
662.355	-11.85
662.387	11.15
662.419	9.15
662.451	12.15
662.483	3.15
662.515	-2.85
662.547	-14.85
662.58	-7.85
662.612	1.15
662.644	-10.85
662.676	13.15
662.708	33.15
662.74	-5.85
662.772	-4.85
662.804	11.15
662.836	11.15
662.869	4.15
662.901	10.15
662.933	-8.85
662.965	22.15
662.997	7.15
663.029	-28.85
663.061	4.15
663.093	12.15
663.125	4.15
663.157	-4.85
663.189	2.15
663.221	18.15
663.254	3.15
663.286	8.15
663.318	9.15
663.35	-8.85
663.382	-14.85
663.414	7.15
663.446	-1.85
663.478	-4.85
663.51	21.15
663.542	-6.85
663.574	10.15
663.606	11.15
663.638	0.15
663.67	1.15
663.702	-1.85
663.734	9.15
663.766	20.15
663.798	-3.85
663.83	8.15
663.862	-4.85
663.894	16.15
663.926	-8.85
663.958	-5.85
663.99	-18.85
664.022	-2.85
664.054	7.15
664.086	4.15
664.118	4.15
664.15	-9.85
664.182	-2.85
664.214	0.15
664.246	14.15
664.278	16.15
664.31	5.15
664.342	2.15
664.374	-2.85
664.406	0.15
664.438	0.15
664.47	5.15
664.502	6.15
664.534	0.15
664.566	2.15
664.598	3.15
664.63	-3.85
664.662	3.15
664.693	8.15
664.725	-2.85
664.757	6.15
664.789	-1.85
664.821	7.15
664.853	3.15
664.885	-3.85
664.917	7.15
664.949	22.15
664.981	21.15
665.013	11.15
665.045	-8.85
665.076	-4.85
665.108	18.15
665.14	13.15
665.172	2.15
665.204	-7.85
665.236	6.15
665.268	8.15
665.3	1.15
665.331	-15.85
665.363	-1.85
665.395	-3.85
665.427	1.15
665.459	3.15
665.491	-7.85
665.523	-8.85
665.555	0.15
665.586	7.15
665.618	-25.85
665.65	-15.85
665.682	5.15
665.714	7.15
665.746	3.15
665.777	0.15
665.809	13.15
665.841	3.15
665.873	0.15
665.905	11.15
665.937	4.15
665.968	6.15
666	14.15
666.032	15.15
666.064	-1.85
666.096	1.15
666.127	-4.85
666.159	15.15
666.191	1.15
666.223	7.15
666.255	2.15
666.286	5.15
666.318	16.15
666.35	34.15
666.382	13.15
666.413	3.15
666.445	-18.85
666.477	-4.85
666.509	3.15
666.54	-5.85
666.572	-4.85
666.604	-8.85
666.636	-12.85
666.667	18.15
666.699	12.15
666.731	8.15
666.763	-4.85
666.794	1.15
666.826	1.15
666.858	0.15
666.89	13.15
666.921	-6.85
666.953	-2.85
666.985	15.15
667.017	12.15
667.048	-10.85
667.08	-1.85
667.112	-10.85
667.143	-31.85
667.175	3.15
667.207	6.15
667.238	19.15
667.27	-2.85
667.302	8.15
667.334	-1.85
667.365	14.15
667.397	-15.85
667.429	-9.85
667.46	20.15
667.492	2.15
667.524	4.15
667.555	3.15
667.587	4.15
667.619	3.15
667.65	4.15
667.682	12.15
667.714	12.15
667.745	8.15
667.777	8.15
667.808	13.15
667.84	6.15
667.872	-1.85
667.903	21.15
667.935	-13.85
667.967	5.15
667.998	8.15
668.03	1.15
668.061	-2.85
668.093	-4.85
668.125	5.15
668.156	6.15
668.188	6.15
668.22	-14.85
668.251	11.15
668.283	0.15
668.314	22.15
668.346	-4.85
668.377	-3.85
668.409	-3.85
668.441	6.15
668.472	3.15
668.504	17.15
668.535	-1.85
668.567	12.15
668.599	7.15
668.63	-5.85
668.662	-10.85
668.693	13.15
668.725	8.15
668.756	13.15
668.788	10.15
668.819	-7.85
668.851	2.15
668.882	-3.85
668.914	-8.85
668.946	-7.85
668.977	0.15
669.009	0.15
669.04	-11.85
669.072	14.15
669.103	11.15
669.135	0.15
669.166	5.15
669.198	10.15
669.229	-8.85
669.261	-2.85
669.292	9.15
669.324	7.15
669.355	9.15
669.387	4.15
669.418	16.15
669.45	-6.85
669.481	0.15
669.513	4.15
669.544	-2.85
669.576	5.15
669.607	0.15
669.639	11.15
669.67	-4.85
669.701	13.15
669.733	-13.85
669.764	-4.85
669.796	-2.85
669.827	-12.85
669.859	-11.85
669.89	-8.85
669.922	15.15
669.953	26.15
669.985	17.15
670.016	8.15
670.047	2.15
670.079	-6.85
670.11	1.15
670.142	-9.85
670.173	5.15
670.204	11.15
670.236	3.15
670.267	-9.85
670.299	-4.85
670.33	8.15
670.362	4.15
670.393	-13.85
670.424	14.15
670.456	-8.85
670.487	1.15
670.518	-8.85
670.55	9.15
670.581	-7.85
670.613	5.15
670.644	-16.85
670.675	-18.85
670.707	-0.85
670.738	0.15
670.769	11.15
670.801	-13.85
670.832	9.15
670.864	-5.85
670.895	8.15
670.926	2.15
670.958	-0.85
670.989	-5.85
671.02	2.15
671.052	1.15
671.083	8.15
671.114	-9.85
671.146	9.15
671.177	-4.85
671.208	-6.85
671.24	-3.85
671.271	2.15
671.302	9.15
671.333	-0.85
671.365	-19.85
671.396	-0.85
671.427	0.15
671.459	14.15
671.49	9.15
671.521	4.15
671.553	-5.85
671.584	16.15
671.615	-0.85
671.646	4.15
671.678	-8.85
671.709	-12.85
671.74	-13.85
671.771	-0.85
671.803	3.15
671.834	-4.85
671.865	-10.85
671.896	4.15
671.928	-0.85
671.959	-5.85
671.99	6.15
672.021	-3.85
672.053	-3.85
672.084	-2.85
672.115	-6.85
672.146	0.15
672.178	6.15
672.209	-1.85
672.24	-2.85
672.271	20.15
672.303	10.15
672.334	3.15
672.365	6.15
672.396	-0.85
672.427	2.15
672.459	2.15
672.49	17.15
672.521	7.15
672.552	5.15
672.583	2.15
672.615	3.15
672.646	1.15
672.677	-10.85
672.708	20.15
672.739	-4.85
672.77	8.15
672.802	-13.85
672.833	6.15
672.864	-6.85
672.895	-8.85
672.926	-3.85
672.957	-5.85
672.989	2.15
673.02	9.15
673.051	1.15
673.082	4.15
673.113	3.15
673.144	7.15
673.175	7.15
673.206	7.15
673.238	-1.85
673.269	3.15
673.3	-3.85
673.331	10.15
673.362	0.15
673.393	-3.85
673.424	6.15
673.455	9.15
673.487	0.15
673.518	12.15
673.549	4.15
673.58	-3.85
673.611	6.15
673.642	-7.85
673.673	-21.85
673.704	4.15
673.735	6.15
673.766	2.15
673.797	9.15
673.828	2.15
673.86	2.15
673.891	-14.85
673.922	-7.85
673.953	-11.85
673.984	14.15
674.015	9.15
674.046	-0.85
674.077	0.15
674.108	-8.85
674.139	-4.85
674.17	4.15
674.201	0.15
674.232	4.15
674.263	11.15
674.294	-7.85
674.325	-11.85
674.356	13.15
674.387	20.15
674.418	2.15
674.449	-4.85
674.48	-7.85
674.511	-6.85
674.542	7.15
674.573	-8.85
674.604	11.15
674.635	-10.85
674.666	7.15
674.697	6.15
674.728	-5.85
674.759	2.15
674.79	-6.85
674.821	1.15
674.852	-5.85
674.883	-10.85
674.914	-4.85
674.945	-5.85
674.976	5.15
675.007	8.15
675.038	-14.85
675.069	-1.85
675.1	-3.85
675.131	3.15
675.162	2.15
675.193	4.15
675.224	4.15
675.254	17.15
675.285	10.15
675.316	32.15
675.347	17.15
675.378	-15.85
675.409	3.15
675.44	-0.85
675.471	3.15
675.502	1.15
675.533	6.15
675.564	0.15
675.595	0.15
675.625	13.15
675.656	1.15
675.687	-0.85
675.718	-9.85
675.749	4.15
675.78	13.15
675.811	-12.85
675.842	-4.85
675.873	-0.85
675.903	3.15
675.934	-15.85
675.965	3.15
675.996	8.15
676.027	-6.85
676.058	3.15
676.089	0.15
676.119	11.15
676.15	3.15
676.181	-4.85
676.212	-5.85
676.243	12.15
676.274	5.15
676.304	22.15
676.335	-13.85
676.366	-8.85
676.397	-10.85
676.428	-8.85
676.459	9.15
676.489	-0.85
676.52	6.15
676.551	5.15
676.582	-3.85
676.613	-0.85
676.643	0.15
676.674	14.15
676.705	3.15
676.736	1.15
676.767	15.15
676.797	-5.85
676.828	-7.85
676.859	-0.85
676.89	-2.85
676.92	1.15
676.951	-2.85
676.982	-10.85
677.013	-3.85
677.044	13.15
677.074	-6.85
677.105	-13.85
677.136	-4.85
677.167	4.15
677.197	-0.85
677.228	-1.85
677.259	6.15
677.289	5.15
677.32	-14.85
677.351	-6.85
677.382	-20.85
677.412	-11.85
677.443	8.15
677.474	12.15
677.505	-12.85
677.535	-11.85
677.566	-10.85
677.597	-15.85
677.627	-16.85
677.658	-13.85
677.689	2.15
677.72	1.15
677.75	-7.85
677.781	-8.85
677.812	-11.85
677.842	10.15
677.873	-2.85
677.904	16.15
677.934	-3.85
677.965	-3.85
677.996	-14.85
678.026	10.15
678.057	-9.85
678.088	-12.85
678.118	-8.85
678.149	-5.85
678.18	-2.85
678.21	6.15
678.241	-14.85
678.272	-8.85
678.302	7.15
678.333	11.15
678.363	19.15
678.394	8.15
678.425	1.15
678.455	-6.85
678.486	-10.85
678.517	0.15
678.547	0.15
678.578	-1.85
678.608	-20.85
678.639	14.15
678.67	2.15
678.7	2.15
678.731	-7.85
678.761	2.15
678.792	9.15
678.823	10.15
678.853	14.15
678.884	-2.85
678.914	18.15
678.945	-6.85
678.975	-3.85
679.006	-3.85
679.037	-0.85
679.067	28.15
679.098	4.15
679.128	-0.85
679.159	0.15
679.189	18.15
679.22	-15.85
679.25	-0.85
679.281	1.15
679.312	-8.85
679.342	-5.85
679.373	17.15
679.403	-0.85
679.434	7.15
679.464	-13.85
679.495	-10.85
679.525	9.15
679.556	-12.85
679.586	1.15
679.617	0.15
679.647	-6.85
679.678	-4.85
679.708	-6.85
679.739	3.15
679.769	-0.85
679.8	0.15
679.83	-4.85
679.861	5.15
679.891	-11.85
679.922	-19.85
679.952	-8.85
679.983	1.15
680.013	11.15
680.044	0.15
680.074	3.15
680.105	0.15
680.135	-4.85
680.165	9.15
680.196	11.15
680.226	-5.85
680.257	1.15
680.287	1.15
680.318	-14.85
680.348	-11.85
680.379	12.15
680.409	9.15
680.439	1.15
680.47	-8.85
680.5	-13.85
680.531	0.15
680.561	11.15
680.592	3.15
680.622	10.15
680.652	-8.85
680.683	6.15
680.713	0.15
680.744	0.15
680.774	-20.85
680.804	1.15
680.835	-2.85
680.865	-7.85
680.896	9.15
680.926	-6.85
680.956	6.15
680.987	6.15
681.017	-4.85
681.047	-2.85
681.078	-4.85
681.108	-4.85
681.139	-0.85
681.169	4.15
681.199	15.15
681.23	1.15
681.26	4.15
681.29	1.15
681.321	-2.85
681.351	1.15
681.381	-15.85
681.412	3.15
681.442	-7.85
681.472	13.15
681.503	9.15
681.533	-7.85
681.563	2.15
681.594	-3.85
681.624	1.15
681.654	8.15
681.685	11.15
681.715	-5.85
681.745	2.15
681.775	-5.85
681.806	-11.85
681.836	1.15
681.866	-15.85
681.897	2.15
681.927	-0.85
681.957	-5.85
681.987	17.15
682.018	-11.85
682.048	8.15
682.078	5.15
682.109	29.15
682.139	2.15
682.169	12.15
682.199	10.15
682.23	-14.85
682.26	11.15
682.29	-18.85
682.32	-1.85
682.351	0.15
682.381	-8.85
682.411	-20.85
682.441	-22.85
682.472	-12.85
682.502	-9.85
682.532	-23.85
682.562	-9.85
682.592	-7.85
682.623	9.15
682.653	-8.85
682.683	-1.85
682.713	7.15
682.743	5.15
682.774	12.15
682.804	8.15
682.834	5.15
682.864	-13.85
682.894	-8.85
682.925	-17.85
682.955	-5.85
682.985	-5.85
683.015	21.15
683.045	28.15
683.076	2.15
683.106	-15.85
683.136	-5.85
683.166	-12.85
683.196	-0.85
683.226	2.15
683.257	-8.85
683.287	-12.85
683.317	-3.85
683.347	-12.85
683.377	-2.85
683.407	5.15
683.437	5.15
683.468	15.15
683.498	-16.85
683.528	0.15
683.558	15.15
683.588	-5.85
683.618	-15.85
683.648	6.15
683.678	2.15
683.708	-3.85
683.739	7.15
683.769	-5.85
683.799	16.15
683.829	-2.85
683.859	7.15
683.889	2.15
683.919	-5.85
683.949	9.15
683.979	5.15
684.009	8.15
684.039	3.15
684.07	-0.85
684.1	10.15
684.13	-4.85
684.16	4.15
684.19	-2.85
684.22	-8.85
684.25	-9.85
684.28	-9.85
684.31	22.15
684.34	17.15
684.37	6.15
684.4	-6.85
684.43	7.15
684.46	4.15
684.49	-3.85
684.52	2.15
684.55	9.15
684.58	1.15
684.61	8.15
684.64	23.15
684.67	3.15
684.7	3.15
684.73	6.15
684.76	-3.85
684.79	17.15
684.82	-6.85
684.85	-10.85
684.88	4.15
684.91	-4.85
684.94	-1.85
684.97	-5.85
685	-12.85
685.03	-28.85
685.06	-7.85
685.09	6.15
685.12	9.15
685.15	-4.85
685.18	2.15
685.21	8.15
685.24	13.15
685.27	1.15
685.3	-19.85
685.33	9.15
685.36	14.15
685.39	3.15
685.42	-3.85
685.45	1.15
685.48	10.15
685.51	-9.85
685.54	1.15
685.569	3.15
685.599	3.15
685.629	4.15
685.659	12.15
685.689	5.15
685.719	1.15
685.749	20.15
685.779	12.15
685.809	9.15
685.839	15.15
685.869	10.15
685.898	11.15
685.928	1.15
685.958	8.15
685.988	17.15
686.018	7.15
686.048	-0.85
686.078	0.15
686.108	3.15
686.137	-0.85
686.167	5.15
686.197	-8.85
686.227	0.15
686.257	32.15
686.287	10.15
686.317	0.15
686.346	-1.85
686.376	-10.85
686.406	-13.85
686.436	8.15
686.466	9.15
686.496	8.15
686.525	4.15
686.555	-2.85
686.585	8.15
686.615	13.15
686.645	6.15
686.675	-0.85
686.704	-11.85
686.734	-2.85
686.764	-6.85
686.794	1.15
686.824	-13.85
686.853	11.15
686.883	5.15
686.913	7.15
686.943	-2.85
686.973	2.15
687.002	8.15
687.032	6.15
687.062	-7.85
687.092	13.15
687.121	-11.85
687.151	5.15
687.181	2.15
687.211	23.15
687.24	11.15
687.27	-7.85
687.3	-2.85
687.33	-7.85
687.359	-21.85
687.389	6.15
687.419	-10.85
687.449	-3.85
687.478	1.15
687.508	7.15
687.538	5.15
687.568	2.15
687.597	-14.85
687.627	14.15
687.657	20.15
687.686	14.15
687.716	0.15
687.746	3.15
687.776	-1.85
687.805	-0.85
687.835	5.15
687.865	11.15
687.894	11.15
687.924	5.15
687.954	-12.85
687.983	-14.85
688.013	12.15
688.043	20.15
688.072	-5.85
688.102	11.15
688.132	-1.85
688.161	11.15
688.191	8.15
688.221	19.15
688.25	-0.85
688.28	0.15
688.31	-28.85
688.339	-13.85
688.369	-28.85
688.399	-15.85
688.428	-4.85
688.458	-4.85
688.488	-4.85
688.517	5.15
688.547	-14.85
688.576	43.15
688.606	11.15
688.636	14.15
688.665	-10.85
688.695	10.15
688.725	18.15
688.754	13.15
688.784	-2.85
688.813	12.15
688.843	-2.85
688.873	-3.85
688.902	1.15
688.932	-3.85
688.961	-0.85
688.991	3.15
689.02	11.15
689.05	4.15
689.08	-6.85
689.109	2.15
689.139	2.15
689.168	17.15
689.198	4.15
689.227	-15.85
689.257	-7.85
689.287	-8.85
689.316	10.15
689.346	-1.85
689.375	-9.85
689.405	-8.85
689.434	1.15
689.464	0.15
689.493	19.15
689.523	7.15
689.552	-14.85
689.582	-7.85
689.611	3.15
689.641	-1.85
689.67	5.15
689.7	23.15
689.73	16.15
689.759	2.15
689.789	15.15
689.818	7.15
689.848	1.15
689.877	23.15
689.906	-2.85
689.936	-18.85
689.965	10.15
689.995	5.15
690.024	21.15
690.054	-14.85
690.083	3.15
690.113	1.15
690.142	4.15
690.172	8.15
690.201	4.15
690.231	-0.85
690.26	4.15
690.29	3.15
690.319	17.15
690.348	5.15
690.378	-8.85
690.407	1.15
690.437	4.15
690.466	20.15
690.496	5.15
690.525	14.15
690.555	1.15
690.584	1.15
690.613	-6.85
690.643	10.15
690.672	12.15
690.702	-1.85
690.731	-2.85
690.76	-4.85
690.79	0.15
690.819	-20.85
690.849	20.15
690.878	18.15
690.907	2.15
690.937	13.15
690.966	13.15
690.996	7.15
691.025	-4.85
691.054	-0.85
691.084	2.15
691.113	7.15
691.142	-1.85
691.172	14.15
691.201	-0.85
691.23	-7.85
691.26	-3.85
691.289	-1.85
691.319	-3.85
691.348	-3.85
691.377	8.15
691.407	9.15
691.436	3.15
691.465	0.15
691.495	-12.85
691.524	-7.85
691.553	0.15
691.583	-7.85
691.612	9.15
691.641	1.15
691.67	0.15
691.7	12.15
691.729	-5.85
691.758	4.15
691.788	7.15
691.817	1.15
691.846	-12.85
691.876	-5.85
691.905	-8.85
691.934	-2.85
691.963	2.15
691.993	1.15
692.022	-1.85
692.051	-12.85
692.081	26.15
692.11	31.15
692.139	8.15
692.168	4.15
692.198	24.15
692.227	11.15
692.256	6.15
692.285	-2.85
692.315	-18.85
692.344	-0.85
692.373	6.15
692.402	-18.85
692.432	-9.85
692.461	-11.85
692.49	-19.85
692.519	4.15
692.548	25.15
692.578	23.15
692.607	-4.85
692.636	-20.85
692.665	10.15
692.694	4.15
692.724	8.15
692.753	19.15
692.782	12.15
692.811	1.15
692.84	-16.85
692.87	7.15
692.899	-9.85
692.928	-9.85
692.957	-5.85
692.986	4.15
693.016	-2.85
693.045	9.15
693.074	4.15
693.103	2.15
693.132	3.15
693.161	10.15
693.191	3.15
693.22	2.15
693.249	2.15
693.278	-6.85
693.307	9.15
693.336	2.15
693.365	-18.85
693.395	1.15
693.424	13.15
693.453	5.15
693.482	-7.85
693.511	-3.85
693.54	6.15
693.569	11.15
693.598	-3.85
693.628	2.15
693.657	7.15
693.686	26.15
693.715	12.15
693.744	19.15
693.773	24.15
693.802	7.15
693.831	-9.85
693.86	24.15
693.889	-4.85
693.919	13.15
693.948	-2.85
693.977	13.15
694.006	5.15
694.035	21.15
694.064	-1.85
694.093	-6.85
694.122	14.15
694.151	0.15
694.18	7.15
694.209	28.15
694.238	2.15
694.267	17.15
694.296	10.15
694.325	11.15
694.354	25.15
694.383	4.15
694.412	7.15
694.441	3.15
694.471	3.15
694.5	-14.85
694.529	-8.85
694.558	23.15
694.587	11.15
694.616	-10.85
694.645	8.15
694.674	-0.85
694.703	-1.85
694.732	-8.85
694.761	-2.85
694.79	17.15
694.819	-8.85
694.848	-1.85
694.877	11.15
694.906	20.15
694.935	-12.85
694.963	33.15
694.992	4.15
695.021	16.15
695.05	12.15
695.079	24.15
695.108	1.15
695.137	19.15
695.166	2.15
695.195	-9.85
695.224	12.15
695.253	-3.85
695.282	-5.85
695.311	7.15
695.34	-8.85
695.369	9.15
695.398	2.15
695.427	32.15
695.456	-2.85
695.485	16.15
695.513	13.15
695.542	-3.85
695.571	2.15
695.6	27.15
695.629	10.15
695.658	23.15
695.687	4.15
695.716	-2.85
695.745	14.15
695.774	-10.85
695.802	5.15
695.831	4.15
695.86	3.15
695.889	1.15
695.918	22.15
695.947	8.15
695.976	3.15
696.005	-0.85
696.033	-2.85
696.062	23.15
696.091	12.15
696.12	6.15
696.149	19.15
696.178	-0.85
696.207	5.15
696.235	-4.85
696.264	27.15
696.293	3.15
696.322	2.15
696.351	9.15
696.38	-4.85
696.408	4.15
696.437	3.15
696.466	-6.85
696.495	11.15
696.524	8.15
696.553	5.15
696.581	13.15
696.61	4.15
696.639	-4.85
696.668	15.15
696.697	-7.85
696.725	11.15
696.754	9.15
696.783	15.15
696.812	-0.85
696.84	-4.85
696.869	-0.85
696.898	6.15
696.927	-11.85
696.956	19.15
696.984	2.15
697.013	2.15
697.042	12.15
697.071	11.15
697.099	11.15
697.128	1.15
697.157	-2.85
697.186	-2.85
697.214	-5.85
697.243	-0.85
697.272	-5.85
697.301	1.15
697.329	14.15
697.358	7.15
697.387	14.15
697.415	24.15
697.444	4.15
697.473	-2.85
697.502	-8.85
697.53	2.15
697.559	9.15
697.588	9.15
697.616	-3.85
697.645	4.15
697.674	25.15
697.703	4.15
697.731	-1.85
697.76	-0.85
697.789	2.15
697.817	-8.85
697.846	16.15
697.875	3.15
697.903	15.15
697.932	5.15
697.961	-1.85
697.989	14.15
698.018	12.15
698.047	4.15
698.075	1.15
698.104	-9.85
698.133	5.15
698.161	-12.85
698.19	-0.85
698.218	-5.85
698.247	5.15
698.276	10.15
698.304	15.15
698.333	11.15
698.362	11.15
698.39	-1.85
698.419	14.15
698.447	14.15
698.476	8.15
698.505	4.15
698.533	8.15
698.562	8.15
698.591	-9.85
698.619	-9.85
698.648	8.15
698.676	10.15
698.705	-0.85
698.733	-6.85
698.762	1.15
698.791	8.15
698.819	4.15
698.848	-0.85
698.876	8.15
698.905	0.15
698.933	10.15
698.962	17.15
698.991	1.15
699.019	21.15
699.048	15.15
699.076	-1.85
699.105	-29.85
699.133	-15.85
699.162	9.15
699.19	18.15
699.219	7.15
699.248	0.15
699.276	3.15
699.305	-5.85
699.333	12.15
699.362	-1.85
699.39	14.15
699.419	8.15
699.447	14.15
699.476	19.15
699.504	-0.85
699.533	4.15
699.561	-9.85
699.59	-11.85
699.618	10.15
699.647	-3.85
699.675	10.15
699.704	4.15
699.732	1.15
699.761	1.15
699.789	7.15
699.818	9.15
699.846	5.15
699.874	4.15
699.903	3.15
699.931	11.15
699.96	22.15
699.988	0.15
700.017	0.15
700.045	12.15
700.074	-1.85
700.102	-0.85
700.13	-4.85
700.159	16.15
700.187	19.15
700.216	14.15
700.244	4.15
700.273	14.15
700.301	3.15
700.329	3.15
700.358	11.15
700.386	-8.85
700.415	0.15
700.443	1.15
700.472	-9.85
700.5	-3.85
700.528	9.15
700.557	7.15
700.585	4.15
700.614	-4.85
700.642	10.15
700.67	28.15
700.699	5.15
700.727	-5.85
700.755	0.15
700.784	-16.85
700.812	5.15
700.841	18.15
700.869	-2.85
700.897	-21.85
700.926	-1.85
700.954	9.15
700.982	8.15
701.011	13.15
701.039	10.15
701.067	9.15
701.096	4.15
701.124	-0.85
701.152	9.15
701.181	7.15
701.209	-6.85
701.237	4.15
701.266	6.15
701.294	4.15
701.322	-2.85
701.351	12.15
701.379	5.15
701.407	6.15
701.435	-0.85
701.464	4.15
701.492	26.15
701.52	-6.85
701.549	4.15
701.577	-10.85
701.605	5.15
701.634	-1.85
701.662	16.15
701.69	-7.85
701.718	-5.85
701.747	0.15
701.775	14.15
701.803	-2.85
701.831	15.15
701.86	-0.85
701.888	6.15
701.916	6.15
701.944	-5.85
701.973	-2.85
702.001	-0.85
702.029	-4.85
702.057	-1.85
702.086	-9.85
702.114	-8.85
702.142	-2.85
702.17	-15.85
702.199	-6.85
702.227	-3.85
702.255	0.15
702.283	0.15
702.311	14.15
702.34	-9.85
702.368	-16.85
702.396	0.15
702.424	-2.85
702.452	6.15
702.481	14.15
702.509	-14.85
702.537	5.15
702.565	7.15
702.593	2.15
702.621	9.15
702.65	21.15
702.678	3.15
702.706	-1.85
702.734	10.15
702.762	14.15
702.79	0.15
702.819	3.15
702.847	9.15
702.875	4.15
702.903	-6.85
702.931	-7.85
702.959	2.15
702.988	15.15
703.016	-14.85
703.044	2.15
703.072	11.15
703.1	5.15
703.128	-8.85
703.156	2.15
703.184	-6.85
703.212	20.15
703.241	8.15
703.269	1.15
703.297	6.15
703.325	-11.85
703.353	-13.85
703.381	-2.85
703.409	-9.85
703.437	-7.85
703.465	-2.85
703.493	3.15
703.522	6.15
703.55	6.15
703.578	-2.85
703.606	-7.85
703.634	3.15
703.662	-10.85
703.69	-0.85
703.718	0.15
703.746	16.15
703.774	8.15
703.802	8.15
703.83	3.15
703.858	1.15
703.886	-12.85
703.914	-2.85
703.942	21.15
703.97	1.15
703.998	1.15
704.027	20.15
704.055	0.15
704.083	-1.85
704.111	-18.85
704.139	-4.85
704.167	-6.85
704.195	9.15
704.223	-2.85
704.251	-3.85
704.279	2.15
704.307	0.15
704.335	5.15
704.363	25.15
704.391	1.15
704.419	-0.85
704.447	-5.85
704.475	3.15
704.503	-0.85
704.531	5.15
704.558	12.15
704.586	-5.85
704.614	2.15
704.642	19.15
704.67	-2.85
704.698	0.15
704.726	-0.85
704.754	4.15
704.782	5.15
704.81	-0.85
704.838	6.15
704.866	-1.85
704.894	5.15
704.922	6.15
704.95	6.15
704.978	-2.85
705.006	11.15
705.034	17.15
705.061	-5.85
705.089	5.15
705.117	-16.85
705.145	-11.85
705.173	-11.85
705.201	-4.85
705.229	6.15
705.257	-5.85
705.285	15.15
705.313	14.15
705.34	1.15
705.368	-14.85
705.396	-3.85
705.424	6.15
705.452	-3.85
705.48	1.15
705.508	5.15
705.536	-1.85
705.563	-3.85
705.591	10.15
705.619	16.15
705.647	0.15
705.675	-4.85
705.703	8.15
705.731	12.15
705.758	13.15
705.786	9.15
705.814	13.15
705.842	-5.85
705.87	30.15
705.898	23.15
705.925	9.15
705.953	-0.85
705.981	-17.85
706.009	0.15
706.037	24.15
706.065	3.15
706.092	-5.85
706.12	-0.85
706.148	-6.85
706.176	0.15
706.204	-2.85
706.231	2.15
706.259	-8.85
706.287	1.15
706.315	5.15
706.342	-4.85
706.37	19.15
706.398	11.15
706.426	-12.85
706.454	-3.85
706.481	17.15
706.509	8.15
706.537	-6.85
706.565	-7.85
706.592	19.15
706.62	4.15
706.648	-1.85
706.676	-8.85
706.703	-6.85
706.731	10.15
706.759	-4.85
706.787	4.15
706.814	2.15
706.842	5.15
706.87	-0.85
706.897	2.15
706.925	-3.85
706.953	16.15
706.981	1.15
707.008	8.15
707.036	10.15
707.064	-12.85
707.091	-5.85
707.119	16.15
707.147	-11.85
707.174	-3.85
707.202	15.15
707.23	-8.85
707.258	2.15
707.285	-12.85
707.313	-15.85
707.341	3.15
707.368	-1.85
707.396	12.15
707.424	20.15
707.451	8.15
707.479	6.15
707.507	1.15
707.534	0.15
707.562	3.15
707.59	-5.85
707.617	-18.85
707.645	5.15
707.672	0.15
707.7	8.15
707.728	9.15
707.755	13.15
707.783	2.15
707.811	-0.85
707.838	-4.85
707.866	-0.85
707.893	-13.85
707.921	-13.85
707.949	-6.85
707.976	-0.85
708.004	-7.85
708.031	-12.85
708.059	-8.85
708.087	-1.85
708.114	4.15
708.142	3.15
708.169	3.15
708.197	-5.85
708.225	-12.85
708.252	-16.85
708.28	4.15
708.307	-5.85
708.335	-5.85
708.362	10.15
708.39	7.15
708.418	10.15
708.445	-5.85
708.473	-7.85
708.5	-5.85
708.528	0.15
708.555	-2.85
708.583	-5.85
708.61	-8.85
708.638	2.15
708.665	-9.85
708.693	2.15
708.72	-7.85
708.748	1.15
708.776	-8.85
708.803	11.15
708.831	-0.85
708.858	-2.85
708.886	7.15
708.913	-8.85
708.941	-14.85
708.968	4.15
708.996	-0.85
709.023	18.15
709.051	-1.85
709.078	7.15
709.105	4.15
709.133	16.15
709.16	9.15
709.188	14.15
709.215	-3.85
709.243	-0.85
709.27	-8.85
709.298	10.15
709.325	-3.85
709.353	-8.85
709.38	2.15
709.408	4.15
709.435	2.15
709.462	-3.85
709.49	5.15
709.517	-1.85
709.545	-4.85
709.572	4.15
709.6	-19.85
709.627	8.15
709.655	-14.85
709.682	-13.85
709.709	4.15
709.737	-6.85
709.764	-9.85
709.792	5.15
709.819	6.15
709.846	-0.85
709.874	8.15
709.901	9.15
709.929	20.15
709.956	7.15
709.983	-7.85
710.011	0.15
710.038	-2.85
710.066	2.15
710.093	14.15
710.12	5.15
710.148	0.15
710.175	-12.85
710.202	-6.85
710.23	13.15
710.257	12.15
710.284	1.15
710.312	5.15
710.339	6.15
710.366	2.15
710.394	-6.85
710.421	14.15
710.448	8.15
710.476	3.15
710.503	4.15
710.53	5.15
710.558	22.15
710.585	16.15
710.612	-16.85
710.64	-4.85
710.667	-6.85
710.694	0.15
710.722	17.15
710.749	8.15
710.776	11.15
710.804	15.15
710.831	3.15
710.858	-3.85
710.885	2.15
710.913	0.15
710.94	25.15
710.967	5.15
710.995	7.15
711.022	-5.85
711.049	0.15
711.076	-9.85
711.104	-14.85
711.131	-13.85
711.158	0.15
711.185	-0.85
711.213	-0.85
711.24	-0.85
711.267	-5.85
711.294	7.15
711.322	16.15
711.349	-20.85
711.376	-9.85
711.403	7.15
711.431	-6.85
711.458	1.15
711.485	0.15
711.512	-2.85
711.54	0.15
711.567	7.15
711.594	-8.85
711.621	1.15
711.648	-11.85
711.676	1.15
711.703	-6.85
711.73	-10.85
711.757	-5.85
711.784	-6.85
711.812	9.15
711.839	-0.85
711.866	-8.85
711.893	-5.85
711.92	0.15
711.947	-5.85
711.975	3.15
712.002	-11.85
712.029	11.15
712.056	4.15
712.083	4.15
712.11	-14.85
712.138	13.15
712.165	1.15
712.192	-4.85
712.219	-11.85
712.246	-16.85
712.273	-28.85
712.3	-23.85
712.328	10.15
712.355	-4.85
712.382	-11.85
712.409	18.15
712.436	-2.85
712.463	25.15
712.49	20.15
712.517	12.15
712.544	-4.85
712.572	-6.85
712.599	2.15
712.626	3.15
712.653	4.15
712.68	9.15
712.707	10.15
712.734	1.15
712.761	-4.85
712.788	-0.85
712.815	6.15
712.842	24.15
712.87	3.15
712.897	-6.85
712.924	-7.85
712.951	12.15
712.978	9.15
713.005	13.15
713.032	11.15
713.059	-17.85
713.086	7.15
713.113	-16.85
713.14	2.15
713.167	10.15
713.194	14.15
713.221	-7.85
713.248	7.15
713.275	-5.85
713.302	-6.85
713.329	-6.85
713.356	2.15
713.383	-0.85
713.41	-0.85
713.437	-2.85
713.464	-6.85
713.491	3.15
713.518	-1.85
713.545	-12.85
713.572	1.15
713.599	13.15
713.626	8.15
713.653	6.15
713.68	-4.85
713.707	-6.85
713.734	-1.85
713.761	-19.85
713.788	0.15
713.815	-0.85
713.842	0.15
713.869	-4.85
713.896	-4.85
713.923	5.15
713.95	-6.85
713.977	-18.85
714.004	-21.85
714.031	-4.85
714.058	-9.85
714.085	-9.85
714.112	7.15
714.139	-3.85
714.165	1.15
714.192	-11.85
714.219	13.15
714.246	4.15
714.273	5.15
714.3	-1.85
714.327	-2.85
714.354	7.15
714.381	-2.85
714.408	-10.85
714.435	-5.85
714.461	4.15
714.488	0.15
714.515	0.15
714.542	-2.85
714.569	-2.85
714.596	-2.85
714.623	-3.85
714.65	-3.85
714.677	13.15
714.703	21.15
714.73	-1.85
714.757	4.15
714.784	-1.85
714.811	-3.85
714.838	-4.85
714.865	-4.85
714.891	1.15
714.918	0.15
714.945	-5.85
714.972	14.15
714.999	18.15
715.026	0.15
715.052	7.15
715.079	-12.85
715.106	-12.85
715.133	14.15
715.16	6.15
715.187	13.15
715.213	1.15
715.24	-8.85
715.267	1.15
715.294	-4.85
715.321	-6.85
715.347	-10.85
715.374	-16.85
715.401	5.15
715.428	0.15
715.455	6.15
715.481	-2.85
715.508	14.15
715.535	-12.85
715.562	14.15
715.588	4.15
715.615	-0.85
715.642	-9.85
715.669	16.15
715.695	-12.85
715.722	1.15
715.749	0.15
715.776	-12.85
715.802	-7.85
715.829	-7.85
715.856	-10.85
715.883	5.15
715.909	-1.85
715.936	-5.85
715.963	-3.85
715.99	1.15
716.016	19.15
716.043	16.15
716.07	-9.85
716.096	-1.85
716.123	-1.85
716.15	-5.85
716.177	19.15
716.203	7.15
716.23	-7.85
716.257	7.15
716.283	9.15
716.31	-1.85
716.337	-8.85
716.363	-8.85
716.39	3.15
716.417	13.15
716.443	-6.85
716.47	10.15
716.497	5.15
716.523	6.15
716.55	10.15
716.577	2.15
716.603	25.15
716.63	7.15
716.657	16.15
716.683	2.15
716.71	-13.85
716.737	-3.85
716.763	9.15
716.79	5.15
716.817	-0.85
716.843	2.15
716.87	13.15
716.897	26.15
716.923	20.15
716.95	-0.85
716.976	-10.85
717.003	-7.85
717.03	-13.85
717.056	-7.85
717.083	15.15
717.109	7.15
717.136	3.15
717.163	-4.85
717.189	11.15
717.216	-5.85
717.242	0.15
717.269	-2.85
717.296	8.15
717.322	0.15
717.349	-4.85
717.375	11.15
717.402	-10.85
717.428	-26.85
717.455	-0.85
717.481	0.15
717.508	16.15
717.535	22.15
717.561	12.15
717.588	-3.85
717.614	3.15
717.641	1.15
717.667	9.15
717.694	8.15
717.72	-2.85
717.747	7.15
717.773	0.15
717.8	2.15
717.826	11.15
717.853	-8.85
717.88	23.15
717.906	9.15
717.933	4.15
717.959	-12.85
717.986	-12.85
718.012	9.15
718.039	-0.85
718.065	9.15
718.092	-0.85
718.118	-11.85
718.144	-8.85
718.171	-2.85
718.197	28.15
718.224	1.15
718.25	3.15
718.277	2.15
718.303	1.15
718.33	-6.85
718.356	-3.85
718.383	5.15
718.409	-2.85
718.436	12.15
718.462	4.15
718.489	3.15
718.515	12.15
718.541	13.15
718.568	17.15
718.594	-2.85
718.621	11.15
718.647	11.15
718.674	6.15
718.7	12.15
718.726	-3.85
718.753	2.15
718.779	5.15
718.806	2.15
718.832	3.15
718.858	-0.85
718.885	-6.85
718.911	6.15
718.938	8.15
718.964	-8.85
718.99	-0.85
719.017	7.15
719.043	0.15
719.07	14.15
719.096	-10.85
719.122	21.15
719.149	4.15
719.175	7.15
719.201	4.15
719.228	-1.85
719.254	3.15
719.281	-14.85
719.307	-13.85
719.333	-8.85
719.36	14.15
719.386	-0.85
719.412	7.15
719.439	0.15
719.465	4.15
719.491	-8.85
719.518	21.15
719.544	6.15
719.57	5.15
719.597	0.15
719.623	0.15
719.649	-9.85
719.675	-5.85
719.702	0.15
719.728	9.15
719.754	-7.85
719.781	-5.85
719.807	-3.85
719.833	6.15
719.86	4.15
719.886	-5.85
719.912	10.15
719.938	-5.85
719.965	-2.85
719.991	-5.85
720.017	5.15
720.044	-7.85
720.07	5.15
720.096	15.15
720.122	0.15
720.149	18.15
720.175	33.15
720.201	9.15
720.227	6.15
720.254	-3.85
720.28	-4.85
720.306	4.15
720.332	9.15
720.359	-8.85
720.385	-5.85
720.411	4.15
720.437	-3.85
720.463	1.15
720.49	-8.85
720.516	-6.85
720.542	-3.85
720.568	2.15
720.595	1.15
720.621	-1.85
720.647	8.15
720.673	11.15
720.699	-7.85
720.725	1.15
720.752	-0.85
720.778	24.15
720.804	10.15
720.83	12.15
720.856	-0.85
720.883	-10.85
720.909	5.15
720.935	3.15
720.961	8.15
720.987	-0.85
721.013	-2.85
721.04	-8.85
721.066	-8.85
721.092	-4.85
721.118	11.15
721.144	-6.85
721.17	-3.85
721.196	7.15
721.223	-12.85
721.249	2.15
721.275	20.15
721.301	3.15
721.327	-0.85
721.353	-2.85
721.379	-4.85
721.405	3.15
721.432	15.15
721.458	6.15
721.484	16.15
721.51	-15.85
721.536	9.15
721.562	2.15
721.588	-5.85
721.614	-15.85
721.64	-0.85
721.666	-9.85
721.693	-7.85
721.719	4.15
721.745	2.15
721.771	-8.85
721.797	-0.85
721.823	14.15
721.849	0.15
721.875	1.15
721.901	8.15
721.927	8.15
721.953	2.15
721.979	12.15
722.005	19.15
722.031	10.15
722.057	4.15
722.083	7.15
722.109	16.15
722.135	27.15
722.161	16.15
722.187	1.15
722.214	6.15
722.24	2.15
722.266	-14.85
722.292	17.15
722.318	23.15
722.344	5.15
722.37	12.15
722.396	11.15
722.422	9.15
722.448	-15.85
722.474	-4.85
722.5	13.15
722.526	8.15
722.552	3.15
722.578	6.15
722.603	7.15
722.629	-4.85
722.655	7.15
722.681	-0.85
722.707	19.15
722.733	-8.85
722.759	-3.85
722.785	0.15
722.811	10.15
722.837	10.15
722.863	11.15
722.889	4.15
722.915	-3.85
722.941	-7.85
722.967	11.15
722.993	3.15
723.019	-12.85
723.045	12.15
723.071	4.15
723.097	3.15
723.122	-2.85
723.148	-22.85
723.174	-8.85
723.2	-0.85
723.226	2.15
723.252	12.15
723.278	3.15
723.304	1.15
723.33	4.15
723.356	-5.85
723.381	-14.85
723.407	-0.85
723.433	12.15
723.459	-11.85
723.485	-3.85
723.511	13.15
723.537	-1.85
723.563	5.15
723.588	3.15
723.614	15.15
723.64	-4.85
723.666	-6.85
723.692	22.15
723.718	0.15
723.744	7.15
723.769	9.15
723.795	12.15
723.821	2.15
723.847	0.15
723.873	0.15
723.899	-1.85
723.924	3.15
723.95	11.15
723.976	-4.85
724.002	3.15
724.028	0.15
724.053	-12.85
724.079	-1.85
724.105	18.15
724.131	3.15
724.157	8.15
724.182	5.15
724.208	0.15
724.234	7.15
724.26	-9.85
724.286	23.15
724.311	0.15
724.337	-5.85
724.363	-4.85
724.389	8.15
724.415	4.15
724.44	27.15
724.466	14.15
724.492	5.15
724.518	14.15
724.543	-8.85
724.569	-5.85
724.595	-1.85
724.621	5.15
724.646	3.15
724.672	-0.85
724.698	-6.85
724.723	-5.85
724.749	0.15
724.775	8.15
724.801	11.15
724.826	-14.85
724.852	-0.85
724.878	-4.85
724.904	-7.85
724.929	-0.85
724.955	-16.85
724.981	-3.85
725.006	-4.85
725.032	8.15
725.058	15.15
725.083	-5.85
725.109	-3.85
725.135	-0.85
725.161	-9.85
725.186	-2.85
725.212	-4.85
725.238	4.15
725.263	-1.85
725.289	9.15
725.315	10.15
725.34	-12.85
725.366	4.15
725.392	-19.85
725.417	-5.85
725.443	-0.85
725.468	8.15
725.494	12.15
725.52	19.15
725.545	10.15
725.571	-8.85
725.597	7.15
725.622	-0.85
725.648	-2.85
725.674	-0.85
725.699	-2.85
725.725	3.15
725.75	20.15
725.776	-7.85
725.802	-6.85
725.827	20.15
725.853	-6.85
725.878	-5.85
725.904	-9.85
725.93	-20.85
725.955	-15.85
725.981	6.15
726.006	3.15
726.032	7.15
726.057	-2.85
726.083	-0.85
726.109	-2.85
726.134	8.15
726.16	4.15
726.185	-3.85
726.211	-15.85
726.236	14.15
726.262	8.15
726.288	-0.85
726.313	9.15
726.339	12.15
726.364	3.15
726.39	8.15
726.415	-10.85
726.441	-1.85
726.466	0.15
726.492	11.15
726.517	3.15
726.543	10.15
726.568	-14.85
726.594	2.15
726.619	0.15
726.645	8.15
726.67	-0.85
726.696	11.15
726.721	-4.85
726.747	-9.85
726.772	-1.85
726.798	5.15
726.823	10.15
726.849	2.15
726.874	7.15
726.9	32.15
726.925	6.15
726.951	9.15
726.976	13.15
727.002	-4.85
727.027	6.15
727.053	20.15
727.078	-1.85
727.104	-7.85
727.129	-18.85
727.155	6.15
727.18	-4.85
727.205	15.15
727.231	-18.85
727.256	-8.85
727.282	2.15
727.307	12.15
727.333	5.15
727.358	-18.85
727.383	-21.85
727.409	-13.85
727.434	10.15
727.46	8.15
727.485	-4.85
727.511	-5.85
727.536	-20.85
727.561	-10.85
727.587	-11.85
727.612	-10.85
727.637	-3.85
727.663	-2.85
727.688	19.15
727.714	9.15
727.739	10.15
727.764	-7.85
727.79	12.15
727.815	16.15
727.841	-0.85
727.866	-2.85
727.891	12.15
727.917	-13.85
727.942	-6.85
727.967	5.15
727.993	-1.85
728.018	-0.85
728.043	-2.85
728.069	12.15
728.094	15.15
728.119	1.15
728.145	9.15
728.17	7.15
728.195	1.15
728.221	24.15
728.246	-6.85
728.271	-12.85
728.297	-5.85
728.322	4.15
728.347	2.15
728.373	1.15
728.398	7.15
728.423	-7.85
728.448	2.15
728.474	6.15
728.499	9.15
728.524	-6.85
728.55	-22.85
728.575	0.15
728.6	1.15
728.625	-13.85
728.651	3.15
728.676	-5.85
728.701	-9.85
728.727	-15.85
728.752	-12.85
728.777	-2.85
728.802	-0.85
728.828	0.15
728.853	-6.85
728.878	4.15
728.903	-10.85
728.929	-16.85
728.954	-7.85
728.979	1.15
729.004	-2.85
729.03	-0.85
729.055	8.15
729.08	-7.85
729.105	-7.85
729.13	20.15
729.156	4.15
729.181	-8.85
729.206	-22.85
729.231	12.15
729.256	16.15
729.282	13.15
729.307	-7.85
729.332	-0.85
729.357	-6.85
729.382	-0.85
729.408	-1.85
729.433	15.15
729.458	8.15
729.483	6.15
729.508	20.15
729.533	-4.85
729.559	-2.85
729.584	-7.85
729.609	-4.85
729.634	8.15
729.659	-12.85
729.684	-8.85
729.71	15.15
729.735	1.15
729.76	-3.85
729.785	12.15
729.81	11.15
729.835	1.15
729.86	-11.85
729.886	-6.85
729.911	9.15
729.936	-6.85
729.961	12.15
729.986	-0.85
730.011	0.15
730.036	3.15
730.061	0.15
730.086	-3.85
730.112	2.15
730.137	18.15
730.162	9.15
730.187	-2.85
730.212	14.15
730.237	-10.85
730.262	0.15
730.287	-0.85
730.312	3.15
730.337	-14.85
730.362	24.15
730.387	5.15
730.413	-11.85
730.438	0.15
730.463	-10.85
730.488	3.15
730.513	3.15
730.538	-8.85
730.563	20.15
730.588	10.15
730.613	27.15
730.638	2.15
730.663	4.15
730.688	17.15
730.713	4.15
730.738	-0.85
730.763	-4.85
730.788	-22.85
730.813	14.15
730.838	2.15
730.863	0.15
730.888	-6.85
730.913	-3.85
730.938	-15.85
730.963	7.15
730.988	-4.85
731.013	13.15
731.038	11.15
731.063	-7.85
731.088	-1.85
731.113	5.15
731.138	-11.85
731.163	-3.85
731.188	-8.85
731.213	4.15
731.238	-3.85
731.263	-4.85
731.288	3.15
731.313	6.15
731.338	-6.85
731.363	3.15
731.388	1.15
731.413	13.15
731.438	13.15
731.463	0.15
731.487	12.15
731.512	11.15
731.537	-1.85
731.562	-7.85
731.587	-2.85
731.612	-16.85
731.637	1.15
731.662	7.15
731.687	-2.85
731.712	-36.85
731.737	-4.85
731.762	-12.85
731.786	3.15
731.811	11.15
731.836	3.15
731.861	1.15
731.886	-6.85
731.911	0.15
731.936	4.15
731.961	-10.85
731.986	-4.85
732.01	-2.85
732.035	-7.85
732.06	8.15
732.085	-0.85
732.11	0.15
732.135	1.15
732.16	3.15
732.184	-2.85
732.209	5.15
732.234	9.15
732.259	3.15
732.284	19.15
732.309	-18.85
732.334	1.15
732.358	-14.85
732.383	-4.85
732.408	2.15
732.433	15.15
732.458	9.15
732.482	4.15
732.507	4.15
732.532	11.15
732.557	21.15
732.582	7.15
732.607	3.15
732.631	-8.85
732.656	-14.85
732.681	-7.85
732.706	-3.85
732.73	10.15
732.755	-1.85
732.78	1.15
732.805	6.15
732.83	-2.85
732.854	23.15
732.879	3.15
732.904	7.15
732.929	-6.85
732.953	3.15
732.978	7.15
733.003	4.15
733.028	7.15
733.052	6.15
733.077	3.15
733.102	10.15
733.127	12.15
733.151	-2.85
733.176	7.15
733.201	5.15
733.226	-6.85
733.25	4.15
733.275	-0.85
733.3	7.15
733.324	7.15
733.349	-3.85
733.374	11.15
733.399	-7.85
733.423	-1.85
733.448	-3.85
733.473	11.15
733.497	1.15
733.522	-4.85
733.547	5.15
733.571	15.15
733.596	0.15
733.621	3.15
733.646	-8.85
733.67	3.15
733.695	-6.85
733.72	-12.85
733.744	5.15
733.769	-2.85
733.794	22.15
733.818	1.15
733.843	15.15
733.867	-11.85
733.892	-5.85
733.917	-1.85
733.941	4.15
733.966	-2.85
733.991	-14.85
734.015	20.15
734.04	13.15
734.065	5.15
734.089	21.15
734.114	-0.85
734.138	-1.85
734.163	-4.85
734.188	23.15
734.212	14.15
734.237	6.15
734.261	11.15
734.286	-5.85
734.311	-6.85
734.335	-2.85
734.36	-7.85
734.384	8.15
734.409	14.15
734.434	-5.85
734.458	1.15
734.483	7.15
734.507	-6.85
734.532	-2.85
734.556	-2.85
734.581	-3.85
734.606	-16.85
734.63	-8.85
734.655	-2.85
734.679	9.15
734.704	1.15
734.728	14.15
734.753	-1.85
734.777	-3.85
734.802	-2.85
734.826	5.15
734.851	12.15
734.876	14.15
734.9	7.15
734.925	22.15
734.949	3.15
734.974	-13.85
734.998	20.15
735.023	-14.85
735.047	-12.85
735.072	9.15
735.096	12.15
735.121	-3.85
735.145	4.15
735.17	7.15
735.194	10.15
735.219	11.15
735.243	12.15
735.268	7.15
735.292	-18.85
735.317	-1.85
735.341	2.15
735.365	0.15
735.39	12.15
735.414	9.15
735.439	1.15
735.463	-5.85
735.488	8.15
735.512	-1.85
735.537	5.15
735.561	-4.85
735.586	2.15
735.61	7.15
735.634	-11.85
735.659	4.15
735.683	22.15
735.708	9.15
735.732	-6.85
735.757	0.15
735.781	10.15
735.805	0.15
735.83	-5.85
735.854	-0.85
735.879	4.15
735.903	2.15
735.927	-2.85
735.952	9.15
735.976	-4.85
736.001	5.15
736.025	-3.85
736.049	4.15
736.074	-4.85
736.098	-3.85
736.123	2.15
736.147	3.15
736.171	-2.85
736.196	1.15
736.22	3.15
736.244	3.15
736.269	0.15
736.293	-12.85
736.317	-8.85
736.342	18.15
736.366	13.15
736.39	20.15
736.415	9.15
736.439	4.15
736.463	2.15
736.488	10.15
736.512	16.15
736.536	6.15
736.561	21.15
736.585	5.15
736.609	12.15
736.634	-6.85
736.658	7.15
736.682	-12.85
736.707	-3.85
736.731	-17.85
736.755	7.15
736.78	12.15
736.804	28.15
736.828	6.15
736.852	-6.85
736.877	8.15
736.901	11.15
736.925	3.15
736.949	-7.85
736.974	5.15
736.998	-4.85
737.022	4.15
737.047	-0.85
737.071	-6.85
737.095	14.15
737.119	33.15
737.144	9.15
737.168	-10.85
737.192	-11.85
737.216	6.15
737.241	9.15
737.265	11.15
737.289	9.15
737.313	-2.85
737.337	0.15
737.362	4.15
737.386	4.15
737.41	-11.85
737.434	2.15
737.459	1.15
737.483	14.15
737.507	5.15
737.531	8.15
737.555	6.15
737.58	11.15
737.604	-1.85
737.628	-28.85
737.652	1.15
737.676	-19.85
737.701	5.15
737.725	-4.85
737.749	9.15
737.773	-8.85
737.797	-2.85
737.821	13.15
737.846	13.15
737.87	13.15
737.894	7.15
737.918	-5.85
737.942	12.15
737.966	-3.85
737.99	19.15
738.015	-2.85
738.039	2.15
738.063	-13.85
738.087	18.15
738.111	-2.85
738.135	11.15
738.159	8.15
738.184	0.15
738.208	-6.85
738.232	8.15
738.256	9.15
738.28	14.15
738.304	10.15
738.328	-11.85
738.352	13.15
738.376	4.15
738.4	2.15
738.425	13.15
738.449	3.15
738.473	8.15
738.497	7.15
738.521	7.15
738.545	10.15
738.569	13.15
738.593	13.15
738.617	-2.85
738.641	1.15
738.665	4.15
738.689	-0.85
738.713	-11.85
738.737	-1.85
738.762	24.15
738.786	11.15
738.81	-7.85
738.834	13.15
738.858	2.15
738.882	7.15
738.906	3.15
738.93	8.15
738.954	1.15
738.978	15.15
739.002	-10.85
739.026	17.15
739.05	12.15
739.074	-4.85
739.098	24.15
739.122	35.15
739.146	20.15
739.17	19.15
739.194	7.15
739.218	0.15
739.242	-3.85
739.266	-8.85
739.29	26.15
739.314	12.15
739.338	-8.85
739.362	1.15
739.386	-1.85
739.41	-14.85
739.434	-6.85
739.458	4.15
739.482	1.15
739.506	10.15
739.53	-7.85
739.554	10.15
739.577	2.15
739.601	7.15
739.625	-0.85
739.649	-3.85
739.673	-9.85
739.697	21.15
739.721	2.15
739.745	10.15
739.769	21.15
739.793	11.15
739.817	10.15
739.841	-6.85
739.865	1.15
739.889	-11.85
739.912	3.15
739.936	-5.85
739.96	8.15
739.984	-0.85
740.008	-3.85
740.032	-10.85
740.056	10.15
740.08	-6.85
740.104	8.15
740.127	18.15
740.151	-0.85
740.175	21.15
740.199	17.15
740.223	42.15
740.247	12.15
740.271	7.15
740.295	3.15
740.318	-10.85
740.342	-8.85
740.366	17.15
740.39	14.15
740.414	5.15
740.438	3.15
740.461	11.15
740.485	8.15
740.509	-15.85
740.533	13.15
740.557	-15.85
740.581	-11.85
740.604	-10.85
740.628	-7.85
740.652	3.15
740.676	1.15
740.7	3.15
740.723	-5.85
740.747	-2.85
740.771	-4.85
740.795	-9.85
740.819	13.15
740.842	-3.85
740.866	12.15
740.89	12.15
740.914	0.15
740.938	7.15
740.961	5.15
740.985	-4.85
741.009	-0.85
741.033	19.15
741.056	11.15
741.08	4.15
741.104	-0.85
741.128	-7.85
741.151	14.15
741.175	5.15
741.199	-1.85
741.223	21.15
741.246	0.15
741.27	-0.85
741.294	7.15
741.318	-8.85
741.341	-0.85
741.365	-3.85
741.389	-2.85
741.413	5.15
741.436	8.15
741.46	0.15
741.484	17.15
741.507	2.15
741.531	19.15
741.555	13.15
741.579	20.15
741.602	6.15
741.626	20.15
741.65	0.15
741.673	9.15
741.697	13.15
741.721	-9.85
741.744	-19.85
741.768	-8.85
741.792	-0.85
741.815	-9.85
741.839	8.15
741.863	4.15
741.886	14.15
741.91	7.15
741.934	16.15
741.957	-14.85
741.981	20.15
742.005	-3.85
742.028	-12.85
742.052	-11.85
742.075	17.15
742.099	19.15
742.123	-0.85
742.146	-19.85
742.17	3.15
742.194	-0.85
742.217	-5.85
742.241	6.15
742.264	0.15
742.288	20.15
742.312	-11.85
742.335	-2.85
742.359	-0.85
742.382	8.15
742.406	11.15
742.43	-12.85
742.453	-13.85
742.477	-16.85
742.5	-2.85
742.524	-11.85
742.548	-3.85
742.571	4.15
742.595	3.15
742.618	-23.85
742.642	-8.85
742.665	8.15
742.689	-9.85
742.712	11.15
742.736	-3.85
742.76	13.15
742.783	6.15
742.807	5.15
742.83	25.15
742.854	1.15
742.877	-6.85
742.901	-5.85
742.924	-6.85
742.948	0.15
742.971	3.15
742.995	16.15
743.018	-3.85
743.042	-9.85
743.065	0.15
743.089	-5.85
743.112	-1.85
743.136	-12.85
743.159	-10.85
743.183	-21.85
743.206	3.15
743.23	-3.85
743.253	1.15
743.277	15.15
743.3	-10.85
743.324	-0.85
743.347	-3.85
743.371	8.15
743.394	12.15
743.418	16.15
743.441	10.15
743.465	8.15
743.488	5.15
743.512	-6.85
743.535	0.15
743.558	-2.85
743.582	-3.85
743.605	0.15
743.629	4.15
743.652	3.15
743.676	-8.85
743.699	28.15
743.723	24.15
743.746	13.15
743.769	-11.85
743.793	-3.85
743.816	-6.85
743.84	-2.85
743.863	8.15
743.886	-2.85
743.91	5.15
743.933	1.15
743.957	-5.85
743.98	4.15
744.003	-5.85
744.027	10.15
744.05	3.15
744.074	8.15
744.097	-8.85
744.12	-3.85
744.144	3.15
744.167	9.15
744.19	6.15
744.214	-2.85
744.237	-12.85
744.26	-0.85
744.284	1.15
744.307	-15.85
744.331	-10.85
744.354	-3.85
744.377	-6.85
744.401	4.15
744.424	12.15
744.447	-15.85
744.471	-19.85
