Data from HighRes_H2_15_09_11_07_2024_HR4C61891__115__15-11-07-901.txt Node

Date: Thu Nov 07 15:11:07 EST 2024
User: crc00042
Spectrometer: HR4C6189
Trigger mode: 4
Integration Time (sec): 1.000000E-1
Scans to average: 1
Electric dark correction enabled: true
Nonlinearity correction enabled: false
Boxcar width: 0
XAxis mode: Wavelengths
Number of Pixels in Spectrum: 3648
>>>>>Begin Spectral Data<<<<<
639.567	-43
639.602	-43
639.636	-43
639.67	-35
639.704	-20
639.738	12
639.773	7
639.807	-23
639.841	16
639.875	6
639.909	6
639.943	-8
639.978	-11
640.012	5
640.046	9
640.08	-4
640.114	-10
640.148	-5
640.182	3
640.217	5
640.251	33
640.285	17
640.319	-9
640.353	-16
640.387	2
640.421	-4
640.455	21
640.49	7
640.524	1
640.558	7
640.592	4
640.626	-6
640.66	12
640.694	9
640.728	4
640.762	11
640.796	24
640.83	17
640.865	-6
640.899	7
640.933	5
640.967	7
641.001	9
641.035	4
641.069	10
641.103	-1
641.137	12
641.171	1
641.205	17
641.239	4
641.273	28
641.307	13
641.341	11
641.375	5
641.409	10
641.443	11
641.477	10
641.511	24
641.545	16
641.579	10
641.614	15
641.648	20
641.682	0
641.716	-6
641.75	13
641.784	10
641.818	11
641.852	7
641.886	-4
641.919	26
641.953	-2
641.987	8
642.021	14
642.055	5
642.089	-6
642.123	-21
642.157	-6
642.191	-7
642.225	2
642.259	1
642.293	7
642.327	16
642.361	11
642.395	17
642.429	29
642.463	24
642.497	25
642.531	18
642.565	-8
642.599	4
642.633	-4
642.666	19
642.7	14
642.734	19
642.768	2
642.802	16
642.836	12
642.87	-6
642.904	20
642.938	7
642.972	14
643.005	23
643.039	14
643.073	0
643.107	16
643.141	14
643.175	11
643.209	14
643.243	11
643.276	-6
643.31	2
643.344	5
643.378	6
643.412	27
643.446	30
643.48	12
643.513	11
643.547	19
643.581	-3
643.615	13
643.649	8
643.683	8
643.716	12
643.75	19
643.784	-9
643.818	4
643.852	3
643.886	9
643.919	9
643.953	1
643.987	3
644.021	4
644.055	6
644.088	0
644.122	-1
644.156	11
644.19	7
644.224	13
644.257	38
644.291	22
644.325	17
644.359	6
644.392	36
644.426	21
644.46	3
644.494	19
644.527	14
644.561	34
644.595	9
644.629	-7
644.662	-9
644.696	18
644.73	22
644.764	11
644.797	9
644.831	3
644.865	12
644.899	-3
644.932	27
644.966	-6
645	17
645.033	18
645.067	14
645.101	27
645.135	17
645.168	3
645.202	-25
645.236	-4
645.269	7
645.303	1
645.337	11
645.37	4
645.404	11
645.438	9
645.471	7
645.505	14
645.539	11
645.572	13
645.606	12
645.64	14
645.673	9
645.707	28
645.741	16
645.774	-13
645.808	6
645.842	1
645.875	16
645.909	4
645.943	2
645.976	4
646.01	8
646.043	13
646.077	10
646.111	5
646.144	19
646.178	20
646.212	-9
646.245	-8
646.279	21
646.312	21
646.346	11
646.38	5
646.413	30
646.447	22
646.48	11
646.514	10
646.547	6
646.581	-3
646.615	19
646.648	13
646.682	11
646.715	13
646.749	27
646.782	0
646.816	1
646.85	9
646.883	-5
646.917	10
646.95	23
646.984	4
647.017	10
647.051	14
647.084	17
647.118	5
647.151	4
647.185	10
647.218	1
647.252	10
647.285	1
647.319	-2
647.353	9
647.386	9
647.42	20
647.453	-7
647.487	10
647.52	3
647.553	2
647.587	3
647.62	-2
647.654	12
647.687	13
647.721	14
647.754	14
647.788	11
647.821	-8
647.855	-6
647.888	19
647.922	15
647.955	10
647.989	3
648.022	16
648.055	21
648.089	13
648.122	20
648.156	-4
648.189	-3
648.223	15
648.256	12
648.29	17
648.323	-2
648.356	17
648.39	4
648.423	20
648.457	10
648.49	8
648.523	22
648.557	-3
648.59	2
648.624	11
648.657	11
648.69	30
648.724	24
648.757	12
648.791	1
648.824	20
648.857	36
648.891	16
648.924	1
648.957	12
648.991	-8
649.024	18
649.057	-2
649.091	8
649.124	6
649.158	8
649.191	27
649.224	21
649.258	12
649.291	2
649.324	-1
649.358	8
649.391	-1
649.424	7
649.458	4
649.491	4
649.524	1
649.557	-9
649.591	-1
649.624	12
649.657	-11
649.691	-2
649.724	8
649.757	8
649.791	23
649.824	18
649.857	10
649.89	2
649.924	0
649.957	-4
649.99	-21
650.023	4
650.057	2
650.09	-3
650.123	2
650.157	0
650.19	4
650.223	12
650.256	-12
650.29	7
650.323	7
650.356	7
650.389	15
650.423	3
650.456	18
650.489	14
650.522	6
650.555	19
650.589	12
650.622	1
650.655	-3
650.688	14
650.721	11
650.755	12
650.788	25
650.821	11
650.854	0
650.887	22
650.921	20
650.954	2
650.987	7
651.02	10
651.053	-1
651.087	-10
651.12	24
651.153	8
651.186	2
651.219	0
651.252	7
651.286	11
651.319	9
651.352	24
651.385	11
651.418	2
651.451	13
651.484	6
651.518	-20
651.551	30
651.584	-6
651.617	31
651.65	9
651.683	13
651.716	-2
651.749	-8
651.783	11
651.816	8
651.849	16
651.882	14
651.915	8
651.948	7
651.981	12
652.014	-1
652.047	7
652.08	1
652.114	5
652.147	7
652.18	2
652.213	15
652.246	0
652.279	17
652.312	6
652.345	-3
652.378	14
652.411	4
652.444	12
652.477	10
652.51	-7
652.543	-4
652.576	-5
652.609	-2
652.642	2
652.675	17
652.709	10
652.742	13
652.775	11
652.808	15
652.841	13
652.874	7
652.907	-3
652.94	-5
652.973	-3
653.006	0
653.039	10
653.072	-1
653.105	7
653.138	-15
653.171	0
653.204	-8
653.237	15
653.27	0
653.303	15
653.336	19
653.368	0
653.401	13
653.434	-6
653.467	3
653.5	-10
653.533	-10
653.566	7
653.599	-4
653.632	7
653.665	18
653.698	-1
653.731	-4
653.764	4
653.797	12
653.83	13
653.863	8
653.896	-6
653.929	13
653.961	29
653.994	-1
654.027	-2
654.06	7
654.093	-3
654.126	15
654.159	-7
654.192	7
654.225	9
654.258	15
654.29	18
654.323	9
654.356	6
654.389	7
654.422	22
654.455	24
654.488	15
654.521	2
654.553	3
654.586	15
654.619	10
654.652	-9
654.685	3
654.718	23
654.751	14
654.783	3
654.816	20
654.849	4
654.882	11
654.915	-1
654.948	15
654.98	5
655.013	-1
655.046	-4
655.079	6
655.112	9
655.144	7
655.177	18
655.21	14
655.243	23
655.276	11
655.308	17
655.341	6
655.374	15
655.407	0
655.44	7
655.472	21
655.505	4
655.538	1
655.571	17
655.603	21
655.636	11
655.669	26
655.702	14
655.734	-4
655.767	18
655.8	18
655.833	26
655.865	37
655.898	25
655.931	29
655.964	46
655.996	56
656.029	77
656.062	69
656.095	77
656.127	64
656.16	92
656.193	145
656.225	193
656.258	274
656.291	510
656.324	1135
656.356	3363
656.389	7521
656.422	5989
656.454	2058
656.487	700
656.52	276
656.552	125
656.585	70
656.618	56
656.65	57
656.683	27
656.716	35
656.748	16
656.781	4
656.814	12
656.846	6
656.879	2
656.912	10
656.944	-9
656.977	-8
657.01	1
657.042	10
657.075	10
657.108	6
657.14	6
657.173	24
657.205	17
657.238	12
657.271	-8
657.303	-12
657.336	17
657.369	9
657.401	19
657.434	14
657.466	9
657.499	4
657.532	15
657.564	16
657.597	-3
657.629	16
657.662	-2
657.694	13
657.727	-2
657.76	17
657.792	5
657.825	10
657.857	17
657.89	13
657.922	6
657.955	6
657.987	25
658.02	5
658.053	3
658.085	3
658.118	10
658.15	21
658.183	24
658.215	-1
658.248	7
658.28	-7
658.313	20
658.345	22
658.378	4
658.41	7
658.443	16
658.475	-1
658.508	-3
658.54	6
658.573	-9
658.605	13
658.638	6
658.67	16
658.703	13
658.735	8
658.768	26
658.8	-13
658.833	26
658.865	20
658.898	26
658.93	-1
658.963	4
658.995	2
659.028	4
659.06	8
659.092	7
659.125	7
659.157	5
659.19	7
659.222	-8
659.255	-5
659.287	-2
659.32	-18
659.352	8
659.384	8
659.417	10
659.449	13
659.482	5
659.514	1
659.546	-17
659.579	-2
659.611	14
659.644	9
659.676	-11
659.708	6
659.741	-4
659.773	7
659.806	16
659.838	-3
659.87	6
659.903	-4
659.935	18
659.967	18
660	15
660.032	-7
660.065	23
660.097	-9
660.129	11
660.162	-12
660.194	13
660.226	21
660.259	12
660.291	21
660.323	6
660.356	1
660.388	7
660.42	11
660.453	14
660.485	12
660.517	4
660.55	11
660.582	14
660.614	9
660.647	7
660.679	-7
660.711	6
660.743	6
660.776	3
660.808	13
660.84	-8
660.873	13
660.905	18
660.937	20
660.969	8
661.002	1
661.034	6
661.066	10
661.099	21
661.131	17
661.163	23
661.195	11
661.228	23
661.26	5
661.292	-4
661.324	25
661.357	13
661.389	2
661.421	-1
661.453	-5
661.485	5
661.518	2
661.55	-15
661.582	-19
661.614	1
661.647	9
661.679	5
661.711	10
661.743	-11
661.775	-2
661.808	27
661.84	1
661.872	-2
661.904	0
661.936	2
661.969	-7
662.001	-9
662.033	7
662.065	11
662.097	38
662.129	17
662.162	-5
662.194	-4
662.226	2
662.258	10
662.29	5
662.322	-7
662.355	-10
662.387	19
662.419	15
662.451	12
662.483	19
662.515	7
662.547	9
662.58	4
662.612	8
662.644	4
662.676	12
662.708	35
662.74	1
662.772	13
662.804	9
662.836	10
662.869	-7
662.901	15
662.933	10
662.965	15
662.997	7
663.029	2
663.061	5
663.093	1
663.125	-2
663.157	-6
663.189	11
663.221	14
663.254	5
663.286	6
663.318	4
663.35	-8
663.382	8
663.414	15
663.446	15
663.478	3
663.51	28
663.542	-8
663.574	14
663.606	14
663.638	-1
663.67	8
663.702	-7
663.734	5
663.766	1
663.798	-6
663.83	-10
663.862	15
663.894	8
663.926	-1
663.958	16
663.99	3
664.022	-5
664.054	3
664.086	-15
664.118	-6
664.15	4
664.182	11
664.214	9
664.246	17
664.278	12
664.31	10
664.342	4
664.374	8
664.406	18
664.438	9
664.47	33
664.502	7
664.534	0
664.566	-17
664.598	9
664.63	-12
664.662	14
664.693	-2
664.725	-6
664.757	12
664.789	-14
664.821	15
664.853	8
664.885	11
664.917	6
664.949	11
664.981	11
665.013	11
665.045	-3
665.076	-5
665.108	9
665.14	10
665.172	8
665.204	6
665.236	9
665.268	23
665.3	4
665.331	-12
665.363	2
665.395	7
665.427	9
665.459	19
665.491	-17
665.523	-12
665.555	15
665.586	-2
665.618	-14
665.65	-4
665.682	0
665.714	11
665.746	10
665.777	15
665.809	14
665.841	10
665.873	-13
665.905	6
665.937	24
665.968	14
666	18
666.032	-5
666.064	-5
666.096	-1
666.127	1
666.159	10
666.191	18
666.223	8
666.255	18
666.286	14
666.318	-6
666.35	21
666.382	11
666.413	2
666.445	0
666.477	-16
666.509	-2
666.54	8
666.572	-15
666.604	-8
666.636	3
666.667	22
666.699	16
666.731	2
666.763	6
666.794	6
666.826	-5
666.858	-10
666.89	15
666.921	4
666.953	-9
666.985	15
667.017	16
667.048	8
667.08	-1
667.112	7
667.143	9
667.175	13
667.207	0
667.238	9
667.27	10
667.302	10
667.334	6
667.365	21
667.397	-1
667.429	8
667.46	7
667.492	7
667.524	-2
667.555	-10
667.587	-7
667.619	8
667.65	0
667.682	15
667.714	20
667.745	2
667.777	8
667.808	15
667.84	9
667.872	8
667.903	19
667.935	-2
667.967	1
667.998	22
668.03	-7
668.061	-1
668.093	18
668.125	10
668.156	10
668.188	-6
668.22	8
668.251	22
668.283	21
668.314	27
668.346	16
668.377	10
668.409	10
668.441	26
668.472	13
668.504	6
668.535	1
668.567	15
668.599	18
668.63	20
668.662	6
668.693	21
668.725	0
668.756	25
668.788	2
668.819	-2
668.851	7
668.882	0
668.914	10
668.946	10
668.977	-5
669.009	6
669.04	-16
669.072	16
669.103	13
669.135	8
669.166	-6
669.198	-5
669.229	9
669.261	12
669.292	6
669.324	8
669.355	5
669.387	5
669.418	8
669.45	-1
669.481	7
669.513	-2
669.544	10
669.576	1
669.607	12
669.639	28
669.67	3
669.701	19
669.733	7
669.764	-9
669.796	1
669.827	-2
669.859	-16
669.89	-2
669.922	14
669.953	16
669.985	18
670.016	9
670.047	6
670.079	4
670.11	-4
670.142	8
670.173	6
670.204	16
670.236	9
670.267	0
670.299	16
670.33	5
670.362	9
670.393	-7
670.424	5
670.456	-7
670.487	-1
670.518	9
670.55	7
670.581	10
670.613	8
670.644	-7
670.675	-4
670.707	-5
670.738	1
670.769	4
670.801	2
670.832	0
670.864	-9
670.895	5
670.926	-15
670.958	4
670.989	8
671.02	-1
671.052	11
671.083	-3
671.114	6
671.146	9
671.177	19
671.208	-2
671.24	-20
671.271	-8
671.302	-4
671.333	7
671.365	-11
671.396	-3
671.427	5
671.459	1
671.49	9
671.521	10
671.553	13
671.584	8
671.615	-2
671.646	8
671.678	-11
671.709	-8
671.74	-22
671.771	0
671.803	12
671.834	11
671.865	-1
671.896	6
671.928	-2
671.959	2
671.99	2
672.021	8
672.053	7
672.084	25
672.115	1
672.146	-5
672.178	-8
672.209	5
672.24	-17
672.271	37
672.303	-2
672.334	1
672.365	-5
672.396	17
672.427	11
672.459	17
672.49	23
672.521	11
672.552	13
672.583	5
672.615	2
672.646	10
672.677	-3
672.708	8
672.739	5
672.77	12
672.802	10
672.833	2
672.864	16
672.895	2
672.926	-5
672.957	-9
672.989	6
673.02	8
673.051	5
673.082	20
673.113	6
673.144	-5
673.175	3
673.206	-16
673.238	5
673.269	-8
673.3	-23
673.331	6
673.362	8
673.393	-4
673.424	23
673.455	31
673.487	15
673.518	22
673.549	26
673.58	6
673.611	1
673.642	8
673.673	-5
673.704	4
673.735	10
673.766	7
673.797	15
673.828	7
673.86	-3
673.891	7
673.922	4
673.953	2
673.984	10
674.015	14
674.046	-3
674.077	-20
674.108	14
674.139	1
674.17	-3
674.201	0
674.232	4
674.263	-7
674.294	-15
674.325	-24
674.356	8
674.387	38
674.418	10
674.449	-10
674.48	-5
674.511	-2
674.542	14
674.573	2
674.604	8
674.635	14
674.666	17
674.697	-3
674.728	2
674.759	0
674.79	0
674.821	-14
674.852	4
674.883	-3
674.914	-8
674.945	-3
674.976	17
675.007	12
675.038	-4
675.069	7
675.1	-3
675.131	-4
675.162	-12
675.193	-4
675.224	2
675.254	8
675.285	16
675.316	18
675.347	5
675.378	-10
675.409	-10
675.44	9
675.471	4
675.502	2
675.533	3
675.564	-11
675.595	-17
675.625	22
675.656	14
675.687	3
675.718	-10
675.749	25
675.78	8
675.811	9
675.842	-1
675.873	-8
675.903	-8
675.934	0
675.965	15
675.996	1
676.027	4
676.058	1
676.089	-22
676.119	-3
676.15	-2
676.181	-1
676.212	10
676.243	10
676.274	13
676.304	17
676.335	-2
676.366	7
676.397	-1
676.428	24
676.459	11
676.489	24
676.52	2
676.551	9
676.582	4
676.613	12
676.643	9
676.674	-2
676.705	14
676.736	11
676.767	8
676.797	17
676.828	21
676.859	8
676.89	-4
676.92	16
676.951	20
676.982	-4
677.013	9
677.044	28
677.074	2
677.105	-17
677.136	16
677.167	0
677.197	3
677.228	3
677.259	12
677.289	6
677.32	-4
677.351	-5
677.382	-7
677.412	-14
677.443	8
677.474	9
677.505	-4
677.535	4
677.566	7
677.597	-2
677.627	-1
677.658	2
677.689	17
677.72	4
677.75	5
677.781	-7
677.812	8
677.842	6
677.873	11
677.904	12
677.934	-3
677.965	-6
677.996	3
678.026	3
678.057	8
678.088	-18
678.118	8
678.149	1
678.18	14
678.21	-4
678.241	-2
678.272	-4
678.302	7
678.333	6
678.363	17
678.394	6
678.425	-4
678.455	1
678.486	1
678.517	-4
678.547	8
678.578	3
678.608	-26
678.639	4
678.67	15
678.7	-3
678.731	-2
678.761	-19
678.792	18
678.823	11
678.853	2
678.884	5
678.914	7
678.945	8
678.975	-20
679.006	-3
679.037	3
679.067	18
679.098	-1
679.128	-7
679.159	-1
679.189	14
679.22	-11
679.25	-1
679.281	7
679.312	3
679.342	2
679.373	29
679.403	17
679.434	15
679.464	-5
679.495	-9
679.525	4
679.556	-11
679.586	22
679.617	4
679.647	12
679.678	15
679.708	-2
679.739	-3
679.769	-3
679.8	-5
679.83	13
679.861	26
679.891	11
679.922	-8
679.952	-4
679.983	26
680.013	12
680.044	2
680.074	9
680.105	5
680.135	8
680.165	20
680.196	11
680.226	-4
680.257	9
680.287	-1
680.318	-9
680.348	-9
680.379	5
680.409	10
680.439	-10
680.47	5
680.5	4
680.531	5
680.561	13
680.592	14
680.622	17
680.652	4
680.683	4
680.713	-4
680.744	-12
680.774	1
680.804	16
680.835	1
680.865	-2
680.896	2
680.926	32
680.956	-15
680.987	-3
681.017	4
681.047	15
681.078	-12
681.108	18
681.139	10
681.169	8
681.199	3
681.23	14
681.26	4
681.29	-7
681.321	-9
681.351	2
681.381	-7
681.412	10
681.442	8
681.472	17
681.503	1
681.533	7
681.563	-12
681.594	9
681.624	12
681.654	11
681.685	10
681.715	16
681.745	3
681.775	-5
681.806	16
681.836	10
681.866	6
681.897	-4
681.927	-9
681.957	-26
681.987	13
682.018	7
682.048	-5
682.078	10
682.109	12
682.139	12
682.169	17
682.199	1
682.23	-9
682.26	5
682.29	-2
682.32	9
682.351	5
682.381	20
682.411	1
682.441	-9
682.472	3
682.502	11
682.532	4
682.562	5
682.592	12
682.623	4
682.653	12
682.683	-9
682.713	6
682.743	5
682.774	-2
682.804	9
682.834	16
682.864	20
682.894	15
682.925	20
682.955	2
682.985	-9
683.015	-5
683.045	18
683.076	-11
683.106	-12
683.136	1
683.166	3
683.196	-9
683.226	7
683.257	-10
683.287	-3
683.317	-4
683.347	-6
683.377	4
683.407	9
683.437	10
683.468	19
683.498	-1
683.528	-4
683.558	-6
683.588	-4
683.618	-7
683.648	-11
683.678	3
683.708	8
683.739	8
683.769	6
683.799	5
683.829	-9
683.859	3
683.889	13
683.919	-5
683.949	5
683.979	-5
684.009	-8
684.039	21
684.07	-3
684.1	12
684.13	-2
684.16	5
684.19	1
684.22	11
684.25	8
684.28	3
684.31	16
684.34	8
684.37	17
684.4	-12
684.43	17
684.46	-2
684.49	17
684.52	5
684.55	19
684.58	9
684.61	3
684.64	8
684.67	15
684.7	-9
684.73	-2
684.76	0
684.79	16
684.82	14
684.85	6
684.88	6
684.91	21
684.94	3
684.97	0
685	4
685.03	-5
685.06	4
685.09	-9
685.12	15
685.15	-4
685.18	25
685.21	3
685.24	8
685.27	16
685.3	8
685.33	3
685.36	1
685.39	-8
685.42	-17
685.45	8
685.48	-6
685.51	-3
685.54	15
685.569	16
685.599	11
685.629	-1
685.659	-4
685.689	5
685.719	7
685.749	-16
685.779	10
685.809	1
685.839	-3
685.869	10
685.898	16
685.928	-3
685.958	11
685.988	24
686.018	5
686.048	24
686.078	25
686.108	27
686.137	15
686.167	20
686.197	-16
686.227	-14
686.257	31
686.287	16
686.317	5
686.346	-2
686.376	-15
686.406	-13
686.436	-2
686.466	2
686.496	14
686.525	24
686.555	0
686.585	5
686.615	27
686.645	16
686.675	5
686.704	12
686.734	17
686.764	-3
686.794	15
686.824	6
686.853	-2
686.883	21
686.913	32
686.943	5
686.973	14
687.002	22
687.032	12
687.062	-1
687.092	23
687.121	9
687.151	14
687.181	6
687.211	11
687.24	-6
687.27	-4
687.3	8
687.33	7
687.359	-16
687.389	-4
687.419	-2
687.449	2
687.478	18
687.508	28
687.538	13
687.568	15
687.597	-22
687.627	4
687.657	5
687.686	-2
687.716	28
687.746	-4
687.776	3
687.805	14
687.835	1
687.865	21
687.894	22
687.924	-1
687.954	8
687.983	8
688.013	5
688.043	-3
688.072	1
688.102	8
688.132	8
688.161	-10
688.191	21
688.221	27
688.25	-9
688.28	0
688.31	1
688.339	15
688.369	-21
688.399	-4
688.428	-1
688.458	-2
688.488	-20
688.517	1
688.547	-4
688.576	24
688.606	20
688.636	-7
688.665	27
688.695	5
688.725	23
688.754	15
688.784	1
688.813	28
688.843	9
688.873	-2
688.902	3
688.932	18
688.961	-2
688.991	26
689.02	11
689.05	3
689.08	24
689.109	7
689.139	15
689.168	4
689.198	-9
689.227	17
689.257	3
689.287	9
689.316	-6
689.346	-9
689.375	-6
689.405	27
689.434	-11
689.464	4
689.493	20
689.523	13
689.552	2
689.582	-4
689.611	8
689.641	16
689.67	8
689.7	21
689.73	12
689.759	13
689.789	16
689.818	11
689.848	5
689.877	10
689.906	-3
689.936	1
689.965	14
689.995	20
690.024	5
690.054	3
690.083	-22
690.113	-8
690.142	3
690.172	7
690.201	17
690.231	7
690.26	4
690.29	8
690.319	17
690.348	-9
690.378	10
690.407	18
690.437	14
690.466	15
690.496	10
690.525	7
690.555	-1
690.584	6
690.613	8
690.643	9
690.672	1
690.702	5
690.731	6
690.76	1
690.79	-15
690.819	4
690.849	9
690.878	3
690.907	-10
690.937	20
690.966	15
690.996	-5
691.025	2
691.054	0
691.084	13
691.113	-2
691.142	15
691.172	13
691.201	10
691.23	-4
691.26	28
691.289	4
691.319	12
691.348	3
691.377	16
691.407	18
691.436	21
691.465	6
691.495	-7
691.524	3
691.553	-9
691.583	0
691.612	17
691.641	21
691.67	7
691.7	9
691.729	-15
691.758	19
691.788	2
691.817	-7
691.846	6
691.876	13
691.905	9
691.934	-3
691.963	17
691.993	10
692.022	12
692.051	13
692.081	29
692.11	32
692.139	10
692.168	27
692.198	25
692.227	11
692.256	11
692.285	4
692.315	3
692.344	16
692.373	3
692.402	-9
692.432	-12
692.461	9
692.49	1
692.519	0
692.548	6
692.578	15
692.607	1
692.636	-6
692.665	7
692.694	8
692.724	-4
692.753	10
692.782	21
692.811	6
692.84	3
692.87	11
692.899	-2
692.928	0
692.957	8
692.986	25
693.016	4
693.045	12
693.074	-3
693.103	-1
693.132	10
693.161	5
693.191	7
693.22	-14
693.249	-8
693.278	-9
693.307	3
693.336	-12
693.365	-8
693.395	-1
693.424	12
693.453	17
693.482	1
693.511	18
693.54	5
693.569	1
693.598	8
693.628	11
693.657	13
693.686	23
693.715	8
693.744	17
693.773	29
693.802	12
693.831	7
693.86	24
693.889	5
693.919	0
693.948	5
693.977	9
694.006	-3
694.035	-1
694.064	11
694.093	8
694.122	1
694.151	6
694.18	5
694.209	23
694.238	11
694.267	36
694.296	30
694.325	21
694.354	28
694.383	13
694.412	7
694.441	-3
694.471	0
694.5	-7
694.529	2
694.558	10
694.587	22
694.616	-7
694.645	10
694.674	21
694.703	24
694.732	8
694.761	4
694.79	17
694.819	0
694.848	-2
694.877	35
694.906	12
694.935	-3
694.963	21
694.992	11
695.021	7
695.05	10
695.079	8
695.108	2
695.137	18
695.166	7
695.195	3
695.224	25
695.253	15
695.282	0
695.311	13
695.34	8
695.369	4
695.398	3
695.427	26
695.456	4
695.485	12
695.513	6
695.542	6
695.571	-10
695.6	14
695.629	8
695.658	21
695.687	2
695.716	5
695.745	28
695.774	4
695.802	0
695.831	8
695.86	14
695.889	6
695.918	10
695.947	4
695.976	14
696.005	24
696.033	10
696.062	25
696.091	13
696.12	25
696.149	18
696.178	4
696.207	14
696.235	-2
696.264	15
696.293	15
696.322	7
696.351	10
696.38	-11
696.408	7
696.437	-2
696.466	16
696.495	22
696.524	24
696.553	17
696.581	25
696.61	7
696.639	1
696.668	11
696.697	8
696.725	20
696.754	17
696.783	-6
696.812	-6
696.84	7
696.869	17
696.898	-2
696.927	2
696.956	9
696.984	1
697.013	1
697.042	3
697.071	11
697.099	26
697.128	12
697.157	5
697.186	9
697.214	2
697.243	8
697.272	-2
697.301	-3
697.329	20
697.358	10
697.387	21
697.415	15
697.444	6
697.473	-7
697.502	15
697.53	9
697.559	9
697.588	36
697.616	18
697.645	15
697.674	15
697.703	-8
697.731	17
697.76	10
697.789	-4
697.817	7
697.846	26
697.875	14
697.903	19
697.932	23
697.961	19
697.989	5
698.018	14
698.047	4
698.075	9
698.104	4
698.133	11
698.161	-21
698.19	-12
698.218	7
698.247	12
698.276	6
698.304	15
698.333	9
698.362	25
698.39	15
698.419	14
698.447	3
698.476	16
698.505	7
698.533	1
698.562	23
698.591	7
698.619	6
698.648	4
698.676	-4
698.705	-6
698.733	-4
698.762	5
698.791	9
698.819	8
698.848	11
698.876	-4
698.905	18
698.933	22
698.962	3
698.991	5
699.019	25
699.048	13
699.076	-8
699.105	-7
699.133	2
699.162	25
699.19	22
699.219	22
699.248	1
699.276	-4
699.305	3
699.333	0
699.362	16
699.39	14
699.419	-7
699.447	-1
699.476	1
699.504	6
699.533	17
699.561	-1
699.59	-9
699.618	5
699.647	-3
699.675	7
699.704	27
699.732	6
699.761	14
699.789	-2
699.818	11
699.846	-21
699.874	-15
699.903	8
699.931	8
699.96	4
699.988	5
700.017	-6
700.045	7
700.074	13
700.102	5
700.13	11
700.159	8
700.187	6
700.216	1
700.244	8
700.273	12
700.301	9
700.329	31
700.358	7
700.386	2
700.415	9
700.443	2
700.472	2
700.5	15
700.528	16
700.557	21
700.585	4
700.614	2
700.642	29
700.67	25
700.699	21
700.727	9
700.755	10
700.784	15
700.812	6
700.841	13
700.869	9
700.897	-3
700.926	13
700.954	10
700.982	22
701.011	7
701.039	16
701.067	10
701.096	27
701.124	-1
701.152	-3
701.181	-1
701.209	-7
701.237	-4
701.266	2
701.294	-4
701.322	4
701.351	11
701.379	1
701.407	-7
701.435	12
701.464	12
701.492	23
701.52	0
701.549	13
701.577	5
701.605	-2
701.634	8
701.662	18
701.69	2
701.718	-4
701.747	1
701.775	-4
701.803	12
701.831	11
701.86	-7
701.888	2
701.916	4
701.944	2
701.973	-4
702.001	0
702.029	-7
702.057	-5
702.086	1
702.114	-18
702.142	11
702.17	3
702.199	2
702.227	11
702.255	10
702.283	3
702.311	7
702.34	-14
702.368	-1
702.396	4
702.424	0
702.452	-7
702.481	9
702.509	-7
702.537	11
702.565	6
702.593	-9
702.621	11
702.65	18
702.678	18
702.706	6
702.734	-8
702.762	2
702.79	10
702.819	18
702.847	22
702.875	25
702.903	9
702.931	-11
702.959	13
702.988	5
703.016	-11
703.044	15
703.072	4
703.1	-4
703.128	-5
703.156	12
703.184	7
703.212	25
703.241	16
703.269	6
703.297	-3
703.325	14
703.353	-1
703.381	-2
703.409	-7
703.437	-2
703.465	17
703.493	-5
703.522	8
703.55	2
703.578	27
703.606	2
703.634	-8
703.662	-8
703.69	7
703.718	-3
703.746	15
703.774	3
703.802	30
703.83	5
703.858	22
703.886	-3
703.914	0
703.942	23
703.97	11
703.998	8
704.027	0
704.055	11
704.083	12
704.111	-4
704.139	-1
704.167	-6
704.195	4
704.223	-7
704.251	-12
704.279	13
704.307	9
704.335	-19
704.363	2
704.391	0
704.419	-10
704.447	-8
704.475	14
704.503	3
704.531	21
704.558	7
704.586	5
704.614	7
704.642	15
704.67	-7
704.698	6
704.726	8
704.754	16
704.782	5
704.81	2
704.838	31
704.866	12
704.894	-18
704.922	2
704.95	16
704.978	20
705.006	-3
705.034	30
705.061	-1
705.089	9
705.117	-5
705.145	5
705.173	4
705.201	8
705.229	13
705.257	6
705.285	6
705.313	15
705.34	5
705.368	11
705.396	3
705.424	-6
705.452	-1
705.48	2
705.508	-22
705.536	6
705.563	9
705.591	15
705.619	3
705.647	4
705.675	4
705.703	14
705.731	23
705.758	2
705.786	9
705.814	26
705.842	0
705.87	27
705.898	17
705.925	-10
705.953	9
705.981	-7
706.009	0
706.037	1
706.065	6
706.092	-6
706.12	16
706.148	-11
706.176	4
706.204	17
706.231	3
706.259	-9
706.287	11
706.315	-2
706.342	-2
706.37	11
706.398	-2
706.426	-9
706.454	-1
706.481	0
706.509	-1
706.537	-1
706.565	-6
706.592	11
706.62	3
706.648	14
706.676	-1
706.703	8
706.731	-8
706.759	0
706.787	10
706.814	7
706.842	-5
706.87	-3
706.897	2
706.925	3
706.953	25
706.981	16
707.008	8
707.036	0
707.064	4
707.091	-7
707.119	9
707.147	13
707.174	-4
707.202	8
707.23	-12
707.258	10
707.285	4
707.313	2
707.341	-2
707.368	1
707.396	15
707.424	11
707.451	5
707.479	11
707.507	2
707.534	-6
707.562	17
707.59	1
707.617	-22
707.645	-5
707.672	-1
707.7	7
707.728	16
707.755	13
707.783	3
707.811	-6
707.838	4
707.866	8
707.893	11
707.921	3
707.949	-7
707.976	-2
708.004	12
708.031	-8
708.059	-4
708.087	-8
708.114	-1
708.142	3
708.169	-9
708.197	-12
708.225	1
708.252	1
708.28	-1
708.307	-2
708.335	-12
708.362	6
708.39	-7
708.418	4
708.445	5
708.473	-2
708.5	-1
708.528	20
708.555	-2
708.583	-6
708.61	-1
708.638	6
708.665	-2
708.693	-3
708.72	-13
708.748	6
708.776	16
708.803	23
708.831	15
708.858	21
708.886	1
708.913	-10
708.941	-4
708.968	20
708.996	-3
709.023	28
709.051	-4
709.078	-11
709.105	-5
709.133	5
709.16	-12
709.188	2
709.215	-2
709.243	5
709.27	-18
709.298	0
709.325	0
709.353	8
709.38	12
709.408	19
709.435	15
709.462	1
709.49	6
709.517	3
709.545	-8
709.572	-15
709.6	8
709.627	4
709.655	1
709.682	-4
709.709	7
709.737	9
709.764	-2
709.792	7
709.819	-8
709.846	-9
709.874	-1
709.901	8
709.929	23
709.956	13
709.983	6
710.011	-2
710.038	-8
710.066	4
710.093	18
710.12	5
710.148	1
710.175	-9
710.202	-11
710.23	1
710.257	10
710.284	19
710.312	-4
710.339	-6
710.366	11
710.394	-2
710.421	1
710.448	28
710.476	-10
710.503	17
710.53	13
710.558	9
710.585	16
710.612	0
710.64	7
710.667	9
710.694	-25
710.722	1
710.749	-13
710.776	-6
710.804	23
710.831	-5
710.858	4
710.885	6
710.913	-20
710.94	27
710.967	20
710.995	13
711.022	15
711.049	18
711.076	6
711.104	7
711.131	0
711.158	7
711.185	14
711.213	-9
711.24	5
711.267	6
711.294	2
711.322	6
711.349	-1
711.376	5
711.403	17
711.431	0
711.458	13
711.485	-8
711.512	33
711.54	8
711.567	15
711.594	-3
711.621	0
711.648	8
711.676	23
711.703	8
711.73	-5
711.757	10
711.784	6
711.812	9
711.839	10
711.866	-11
711.893	-1
711.92	-1
711.947	4
711.975	23
712.002	2
712.029	21
712.056	0
712.083	3
712.11	1
712.138	-8
712.165	-4
712.192	7
712.219	2
712.246	-3
712.273	0
712.3	-6
712.328	3
712.355	-5
712.382	-5
712.409	15
712.436	-5
712.463	14
712.49	5
712.517	1
712.544	16
712.572	11
712.599	-6
712.626	2
712.653	-3
712.68	-2
712.707	14
712.734	4
712.761	23
712.788	1
712.815	11
712.842	26
712.87	3
712.897	-3
712.924	-10
712.951	9
712.978	15
713.005	25
713.032	19
713.059	0
713.086	12
713.113	-4
713.14	-2
713.167	1
713.194	11
713.221	17
713.248	17
713.275	4
713.302	-4
713.329	12
713.356	5
713.383	7
713.41	8
713.437	3
713.464	3
713.491	21
713.518	19
713.545	6
713.572	-8
713.599	19
713.626	9
713.653	27
713.68	3
713.707	-4
713.734	3
713.761	4
713.788	-3
713.815	5
713.842	2
713.869	-3
713.896	10
713.923	9
713.95	4
713.977	4
714.004	4
714.031	-17
714.058	6
714.085	12
714.112	17
714.139	16
714.165	12
714.192	9
714.219	5
714.246	-2
714.273	1
714.3	2
714.327	25
714.354	17
714.381	-1
714.408	-4
714.435	9
714.461	8
714.488	4
714.515	12
714.542	3
714.569	0
714.596	0
714.623	6
714.65	3
714.677	13
714.703	-8
714.73	4
714.757	5
714.784	16
714.811	0
714.838	9
714.865	-1
714.891	12
714.918	1
714.945	-4
714.972	0
714.999	7
715.026	10
715.052	18
715.079	1
715.106	7
715.133	11
715.16	9
715.187	25
715.213	12
715.24	-2
715.267	5
715.294	12
715.321	5
715.347	4
715.374	-3
715.401	12
715.428	4
715.455	1
715.481	-1
715.508	16
715.535	-2
715.562	18
715.588	-1
715.615	4
715.642	-7
715.669	15
715.695	-3
715.722	4
715.749	19
715.776	13
715.802	0
715.829	4
715.856	-18
715.883	19
715.909	3
715.936	2
715.963	16
715.99	4
716.016	25
716.043	8
716.07	-3
716.096	-19
716.123	1
716.15	-3
716.177	6
716.203	6
716.23	12
716.257	25
716.283	4
716.31	15
716.337	0
716.363	2
716.39	9
716.417	15
716.443	5
716.47	13
716.497	20
716.523	18
716.55	22
716.577	25
716.603	-3
716.63	4
716.657	13
716.683	0
716.71	1
716.737	12
716.763	15
716.79	-1
716.817	21
716.843	7
716.87	-7
716.897	0
716.923	7
716.95	11
716.976	0
717.003	15
717.03	8
717.056	1
717.083	-1
717.109	-1
717.136	2
717.163	-10
717.189	8
717.216	11
717.242	-13
717.269	5
717.296	1
717.322	4
717.349	17
717.375	24
717.402	1
717.428	9
717.455	32
717.481	-4
717.508	11
717.535	16
717.561	9
717.588	-12
717.614	3
717.641	3
717.667	4
717.694	9
717.72	2
717.747	5
717.773	3
717.8	22
717.826	19
717.853	13
717.88	26
717.906	11
717.933	6
717.959	15
717.986	13
718.012	3
718.039	28
718.065	10
718.092	8
718.118	4
718.144	4
718.171	29
718.197	31
718.224	1
718.25	7
718.277	15
718.303	13
718.33	13
718.356	1
718.383	-8
718.409	5
718.436	12
718.462	3
718.489	-13
718.515	8
718.541	9
718.568	16
718.594	8
718.621	4
718.647	15
718.674	27
718.7	6
718.726	-8
718.753	3
718.779	20
718.806	2
718.832	8
718.858	12
718.885	15
718.911	9
718.938	15
718.964	-5
718.99	11
719.017	1
719.043	2
719.07	35
719.096	1
719.122	7
719.149	1
719.175	-5
719.201	-4
719.228	12
719.254	7
719.281	-6
719.307	-2
719.333	7
719.36	13
719.386	-2
719.412	-3
719.439	-7
719.465	-1
719.491	5
719.518	17
719.544	5
719.57	-1
719.597	9
719.623	2
719.649	17
719.675	21
719.702	7
719.728	15
719.754	3
719.781	4
719.807	15
719.833	-7
719.86	16
719.886	-5
719.912	0
719.938	-1
719.965	6
719.991	16
720.017	-1
720.044	4
720.07	0
720.096	12
720.122	-1
720.149	-5
720.175	9
720.201	-8
720.227	0
720.254	-7
720.28	-1
720.306	7
720.332	8
720.359	13
720.385	13
720.411	5
720.437	15
720.463	0
720.49	18
720.516	-1
720.542	0
720.568	18
720.595	22
720.621	1
720.647	9
720.673	29
720.699	10
720.725	16
720.752	4
720.778	27
720.804	16
720.83	4
720.856	15
720.883	3
720.909	0
720.935	6
720.961	29
720.987	11
721.013	5
721.04	-5
721.066	1
721.092	4
721.118	7
721.144	6
721.17	11
721.196	-5
721.223	3
721.249	19
721.275	18
721.301	9
721.327	31
721.353	11
721.379	-11
721.405	17
721.432	25
721.458	18
721.484	13
721.51	3
721.536	13
721.562	5
721.588	-5
721.614	-7
721.64	1
721.666	8
721.693	3
721.719	4
721.745	-25
721.771	-1
721.797	15
721.823	16
721.849	30
721.875	2
721.901	3
721.927	12
721.953	4
721.979	8
722.005	6
722.031	-1
722.057	9
722.083	8
722.109	11
722.135	17
722.161	3
722.187	-4
722.214	-2
722.24	3
722.266	-2
722.292	2
722.318	4
722.344	12
722.37	15
722.396	10
722.422	7
722.448	-2
722.474	-5
722.5	16
722.526	8
722.552	-2
722.578	6
722.603	12
722.629	-7
722.655	5
722.681	-10
722.707	12
722.733	5
722.759	-1
722.785	8
722.811	16
722.837	-4
722.863	5
722.889	17
722.915	9
722.941	7
722.967	0
722.993	13
723.019	11
723.045	18
723.071	13
723.097	11
723.122	5
723.148	-2
723.174	1
723.2	13
723.226	5
723.252	14
723.278	2
723.304	7
723.33	-2
723.356	-12
723.381	-15
723.407	6
723.433	13
723.459	-1
723.485	6
723.511	3
723.537	0
723.563	8
723.588	7
723.614	8
723.64	5
723.666	9
723.692	-4
723.718	-13
723.744	-3
723.769	-8
723.795	-24
723.821	9
723.847	4
723.873	3
723.899	6
723.924	13
723.95	30
723.976	7
724.002	-2
724.028	10
724.053	-1
724.079	0
724.105	15
724.131	3
724.157	-2
724.182	11
724.208	-2
724.234	2
724.26	9
724.286	0
724.311	7
724.337	7
724.363	-5
724.389	2
724.415	3
724.44	11
724.466	22
724.492	15
724.518	7
724.543	-1
724.569	1
724.595	2
724.621	7
724.646	0
724.672	18
724.698	-1
724.723	8
724.749	12
724.775	21
724.801	3
724.826	-5
724.852	-5
724.878	0
724.904	3
724.929	11
724.955	-2
724.981	-9
725.006	13
725.032	4
725.058	8
725.083	-8
725.109	-4
725.135	13
725.161	18
725.186	8
725.212	-1
725.238	2
725.263	-20
725.289	-26
725.315	-1
725.34	-1
725.366	7
725.392	-10
725.417	-3
725.443	-13
725.468	9
725.494	24
725.52	22
725.545	14
725.571	11
725.597	5
725.622	0
725.648	3
725.674	10
725.699	5
725.725	0
725.75	16
725.776	-1
725.802	7
725.827	9
725.853	4
725.878	1
725.904	2
725.93	10
725.955	-5
725.981	-2
726.006	-5
726.032	19
726.057	6
726.083	-6
726.109	-20
726.134	7
726.16	14
726.185	0
726.211	6
726.236	23
726.262	6
726.288	11
726.313	8
726.339	15
726.364	9
726.39	10
726.415	6
726.441	3
726.466	8
726.492	14
726.517	23
726.543	6
726.568	-18
726.594	1
726.619	2
726.645	4
726.67	15
726.696	3
726.721	-8
726.747	-5
726.772	9
726.798	-3
726.823	17
726.849	-2
726.874	-12
726.9	20
726.925	26
726.951	11
726.976	9
727.002	1
727.027	3
727.053	12
727.078	4
727.104	10
727.129	-16
727.155	-2
727.18	14
727.205	16
727.231	3
727.256	-4
727.282	20
727.307	10
727.333	12
727.358	-7
727.383	-13
727.409	2
727.434	6
727.46	-7
727.485	6
727.511	9
727.536	-2
727.561	-9
727.587	-4
727.612	3
727.637	10
727.663	-11
727.688	11
727.714	-1
727.739	-12
727.764	-2
727.79	6
727.815	-3
727.841	12
727.866	-1
727.891	4
727.917	-11
727.942	-13
727.967	0
727.993	-22
728.018	-7
728.043	-5
728.069	13
728.094	17
728.119	-3
728.145	17
728.17	8
728.195	6
728.221	21
728.246	-1
728.271	-8
728.297	-6
728.322	-5
728.347	0
728.373	-2
728.398	1
728.423	-4
728.448	8
728.474	8
728.499	16
728.524	-10
728.55	-9
728.575	-1
728.6	0
728.625	5
728.651	16
728.676	6
728.701	8
728.727	5
728.752	-8
728.777	9
728.802	12
728.828	11
728.853	22
728.878	9
728.903	4
728.929	-13
728.954	22
728.979	17
729.004	0
729.03	-15
729.055	0
729.08	-5
729.105	-4
729.13	11
729.156	7
729.181	3
729.206	-20
729.231	-11
729.256	11
729.282	2
729.307	1
729.332	12
729.357	-6
729.382	9
729.408	1
729.433	11
729.458	15
729.483	14
729.508	8
729.533	3
729.559	0
729.584	-7
729.609	-2
729.634	0
729.659	1
729.684	-3
729.71	14
729.735	8
729.76	9
729.785	-9
729.81	8
729.835	0
729.86	-9
729.886	0
729.911	5
729.936	-1
729.961	6
729.986	2
730.011	-7
730.036	5
730.061	-5
730.086	13
730.112	5
730.137	19
730.162	3
730.187	-3
730.212	13
730.237	-13
730.262	7
730.287	-15
730.312	11
730.337	3
730.362	22
730.387	-8
730.413	-6
730.438	-8
730.463	15
730.488	-3
730.513	-1
730.538	-4
730.563	24
730.588	13
730.613	-5
730.638	-12
730.663	-9
730.688	17
730.713	8
730.738	-3
730.763	-4
730.788	-13
730.813	-2
730.838	-17
730.863	-5
730.888	-11
730.913	3
730.938	-8
730.963	5
730.988	3
731.013	23
731.038	-2
731.063	-3
731.088	14
731.113	-9
731.138	3
731.163	-11
731.188	12
731.213	1
731.238	17
731.263	6
731.288	-3
731.313	3
731.338	9
731.363	-7
731.388	-4
731.413	1
731.438	12
731.463	3
731.487	5
731.512	-7
731.537	-11
731.562	11
731.587	-6
731.612	-5
731.637	-16
731.662	3
731.687	-9
731.712	-13
731.737	-9
731.762	4
731.786	-1
731.811	-1
731.836	-9
731.861	-2
731.886	7
731.911	11
731.936	13
731.961	4
731.986	-12
732.01	4
732.035	-4
732.06	8
732.085	13
732.11	8
732.135	3
732.16	10
732.184	14
732.209	19
732.234	23
732.259	8
732.284	12
732.309	-7
732.334	4
732.358	-3
732.383	-19
732.408	-6
732.433	0
732.458	10
732.482	8
732.507	-1
732.532	-4
732.557	15
732.582	15
732.607	-5
732.631	0
732.656	-2
732.681	8
732.706	0
732.73	-1
732.755	-1
732.78	10
732.805	12
732.83	16
732.854	11
732.879	14
732.904	10
732.929	-10
732.953	11
732.978	0
733.003	4
733.028	-10
733.052	3
733.077	-5
733.102	25
733.127	5
733.151	8
733.176	7
733.201	-7
733.226	-8
733.25	9
733.275	8
733.3	9
733.324	12
733.349	4
733.374	7
733.399	5
733.423	-8
733.448	-21
733.473	0
733.497	-1
733.522	2
733.547	13
733.571	-1
733.596	-4
733.621	6
733.646	5
733.67	6
733.695	10
733.72	1
733.744	10
733.769	15
733.794	8
733.818	8
733.843	-1
733.867	4
733.892	-8
733.917	-2
733.941	-1
733.966	-2
733.991	-2
734.015	21
734.04	9
734.065	7
734.089	19
734.114	2
734.138	11
734.163	9
734.188	-2
734.212	2
734.237	8
734.261	-7
734.286	-5
734.311	-2
734.335	-3
734.36	4
734.384	8
734.409	-1
734.434	-9
734.458	6
734.483	5
734.507	2
734.532	12
734.556	13
734.581	5
734.606	7
734.63	-6
734.655	23
734.679	0
734.704	6
734.728	8
734.753	1
734.777	10
734.802	11
734.826	3
734.851	7
734.876	28
734.9	14
734.925	16
734.949	10
734.974	6
734.998	14
735.023	2
735.047	7
735.072	26
735.096	13
735.121	4
735.145	16
735.17	-5
735.194	5
735.219	-11
735.243	5
735.268	9
735.292	3
735.317	14
735.341	16
735.365	-7
735.39	9
735.414	26
735.439	14
735.463	-6
735.488	24
735.512	11
735.537	-1
735.561	16
735.586	3
735.61	4
735.634	-4
735.659	13
735.683	29
735.708	-13
735.732	13
735.757	0
735.781	1
735.805	17
735.83	-7
735.854	-9
735.879	3
735.903	16
735.927	4
735.952	20
735.976	19
736.001	13
736.025	-3
736.049	8
736.074	3
736.098	1
736.123	7
736.147	12
736.171	15
736.196	17
736.22	-5
736.244	13
736.269	-4
736.293	-4
736.317	11
736.342	15
736.366	22
736.39	20
736.415	8
736.439	7
736.463	7
736.488	13
736.512	19
736.536	5
736.561	18
736.585	11
736.609	13
736.634	0
736.658	-5
736.682	3
736.707	-6
736.731	2
736.755	9
736.78	12
736.804	7
736.828	8
736.852	0
736.877	4
736.901	16
736.925	9
736.949	13
736.974	2
736.998	1
737.022	12
737.047	1
737.071	3
737.095	27
737.119	28
737.144	15
737.168	-1
737.192	8
737.216	6
737.241	14
737.265	14
737.289	-4
737.313	-12
737.337	10
737.362	10
737.386	10
737.41	8
737.434	21
737.459	5
737.483	21
737.507	10
737.531	35
737.555	8
737.58	15
737.604	8
737.628	1
737.652	13
737.676	3
737.701	17
737.725	2
737.749	10
737.773	4
737.797	-4
737.821	4
737.846	-1
737.87	52
737.894	13
737.918	-5
737.942	0
737.966	3
737.99	9
738.015	4
738.039	9
738.063	9
738.087	9
738.111	7
738.135	27
738.159	7
738.184	8
738.208	24
738.232	20
738.256	17
738.28	14
738.304	11
738.328	-3
738.352	10
738.376	0
738.4	25
738.425	-1
738.449	1
738.473	13
738.497	11
738.521	0
738.545	0
738.569	15
738.593	38
738.617	10
738.641	6
738.665	8
738.689	13
738.713	2
738.737	13
738.762	9
738.786	-3
738.81	-6
738.834	13
738.858	-1
738.882	2
738.906	13
738.93	7
738.954	9
738.978	3
739.002	1
739.026	20
739.05	3
739.074	-7
739.098	24
739.122	16
739.146	27
739.17	19
739.194	29
739.218	3
739.242	5
739.266	2
739.29	21
739.314	18
739.338	11
739.362	1
739.386	16
739.41	8
739.434	-2
739.458	15
739.482	24
739.506	8
739.53	-10
739.554	6
739.577	14
739.601	13
739.625	3
739.649	10
739.673	-3
739.697	12
739.721	5
739.745	16
739.769	7
739.793	4
739.817	19
739.841	16
739.865	18
739.889	8
739.912	25
739.936	-7
739.96	5
739.984	18
740.008	-9
740.032	5
740.056	16
740.08	9
740.104	21
740.127	28
740.151	15
740.175	20
740.199	5
740.223	36
740.247	9
740.271	8
740.295	-5
740.318	-8
740.342	-11
740.366	4
740.39	17
740.414	8
740.438	11
740.461	22
740.485	4
740.509	4
740.533	-2
740.557	-4
740.581	9
740.604	-12
740.628	1
740.652	26
740.676	12
740.7	20
740.723	4
740.747	3
740.771	5
740.795	8
740.819	31
740.842	27
740.866	16
740.89	4
740.914	0
740.938	-5
740.961	17
740.985	0
741.009	-4
741.033	6
741.056	7
741.08	-5
741.104	3
741.128	9
741.151	23
741.175	17
741.199	10
741.223	0
741.246	8
741.27	12
741.294	17
741.318	3
741.341	6
741.365	16
741.389	15
741.413	24
741.436	14
741.46	2
741.484	13
741.507	-2
741.531	10
741.555	13
741.579	-3
741.602	17
741.626	14
741.65	-1
741.673	9
741.697	8
741.721	-2
741.744	-10
741.768	15
741.792	12
741.815	1
741.839	3
741.863	30
741.886	22
741.91	21
741.934	15
741.957	-12
741.981	3
742.005	5
742.028	2
742.052	6
742.075	18
742.099	20
742.123	5
742.146	24
742.17	19
742.194	-7
742.217	-5
742.241	4
742.264	10
742.288	24
742.312	3
742.335	7
742.359	0
742.382	18
742.406	14
742.43	1
742.453	8
742.477	-7
742.5	-2
742.524	-15
742.548	-4
742.571	7
742.595	0
742.618	-8
742.642	-3
742.665	12
742.689	1
742.712	17
742.736	12
742.76	8
742.783	14
742.807	19
742.83	18
742.854	3
742.877	-2
742.901	8
742.924	4
742.948	3
742.971	6
742.995	3
743.018	-3
743.042	-1
743.065	12
743.089	-3
743.112	-9
743.136	0
743.159	-12
743.183	1
743.206	-1
743.23	4
743.253	14
743.277	22
743.3	3
743.324	0
743.347	4
743.371	17
743.394	30
743.418	34
743.441	27
743.465	18
743.488	5
743.512	1
743.535	12
743.558	5
743.582	19
743.605	5
743.629	6
743.652	22
743.676	15
743.699	9
743.723	20
743.746	22
743.769	12
743.793	8
743.816	1
743.84	37
743.863	6
743.886	17
743.91	15
743.933	16
743.957	11
743.98	7
744.003	18
744.027	12
744.05	9
744.074	10
744.097	-1
744.12	15
744.144	12
744.167	9
744.19	-1
744.214	15
744.237	-3
744.26	18
744.284	7
744.307	-12
744.331	8
744.354	-2
744.377	-5
744.401	-1
744.424	10
744.447	-5
744.471	-2
