Data from HighRes_H2_15_09_11_07_2024_HR4C61891__108__15-11-07-201.txt Node

Date: Thu Nov 07 15:11:07 EST 2024
User: crc00042
Spectrometer: HR4C6189
Trigger mode: 4
Integration Time (sec): 1.000000E-1
Scans to average: 1
Electric dark correction enabled: true
Nonlinearity correction enabled: false
Boxcar width: 0
XAxis mode: Wavelengths
Number of Pixels in Spectrum: 3648
>>>>>Begin Spectral Data<<<<<
639.567	-57.77
639.602	-57.77
639.636	-57.77
639.67	-57.77
639.704	-29.77
639.738	2.23
639.773	14.23
639.807	-16.77
639.841	-2.77
639.875	16.23
639.909	-4.77
639.943	-24.77
639.978	-2.77
640.012	12.23
640.046	8.23
640.08	22.23
640.114	-11.77
640.148	-11.77
640.182	0.23
640.217	-14.77
640.251	19.23
640.285	4.23
640.319	-18.77
640.353	13.23
640.387	-4.77
640.421	8.23
640.455	-0.77
640.49	3.23
640.524	10.23
640.558	-2.77
640.592	-14.77
640.626	-6.77
640.66	-1.77
640.694	-20.77
640.728	4.23
640.762	-5.77
640.796	17.23
640.83	17.23
640.865	-8.77
640.899	4.23
640.933	0.23
640.967	-5.77
641.001	2.23
641.035	-6.77
641.069	-8.77
641.103	-7.77
641.137	12.23
641.171	8.23
641.205	3.23
641.239	5.23
641.273	27.23
641.307	8.23
641.341	11.23
641.375	-11.77
641.409	-15.77
641.443	4.23
641.477	11.23
641.511	10.23
641.545	4.23
641.579	-15.77
641.614	0.23
641.648	0.23
641.682	-0.77
641.716	21.23
641.75	10.23
641.784	2.23
641.818	3.23
641.852	13.23
641.886	5.23
641.919	31.23
641.953	4.23
641.987	-3.77
642.021	-10.77
642.055	-1.77
642.089	14.23
642.123	7.23
642.157	-0.77
642.191	-13.77
642.225	16.23
642.259	0.23
642.293	7.23
642.327	1.23
642.361	-9.77
642.395	14.23
642.429	16.23
642.463	11.23
642.497	11.23
642.531	11.23
642.565	-4.77
642.599	-5.77
642.633	-8.77
642.666	16.23
642.7	3.23
642.734	6.23
642.768	-6.77
642.802	7.23
642.836	6.23
642.87	4.23
642.904	3.23
642.938	22.23
642.972	3.23
643.005	11.23
643.039	22.23
643.073	6.23
643.107	3.23
643.141	-12.77
643.175	4.23
643.209	-12.77
643.243	7.23
643.276	25.23
643.31	10.23
643.344	-1.77
643.378	6.23
643.412	14.23
643.446	-7.77
643.48	-12.77
643.513	-0.77
643.547	-3.77
643.581	2.23
643.615	12.23
643.649	7.23
643.683	21.23
643.716	12.23
643.75	18.23
643.784	-8.77
643.818	17.23
643.852	2.23
643.886	-6.77
643.919	10.23
643.953	-6.77
643.987	0.23
644.021	0.23
644.055	14.23
644.088	3.23
644.122	-11.77
644.156	-1.77
644.19	0.23
644.224	11.23
644.257	13.23
644.291	-1.77
644.325	5.23
644.359	0.23
644.392	13.23
644.426	13.23
644.46	-1.77
644.494	-10.77
644.527	3.23
644.561	11.23
644.595	-5.77
644.629	-8.77
644.662	-9.77
644.696	30.23
644.73	12.23
644.764	-0.77
644.797	-4.77
644.831	-2.77
644.865	-1.77
644.899	-1.77
644.932	20.23
644.966	4.23
645	17.23
645.033	26.23
645.067	1.23
645.101	9.23
645.135	4.23
645.168	-15.77
645.202	-13.77
645.236	-12.77
645.269	11.23
645.303	-3.77
645.337	-16.77
645.37	-14.77
645.404	8.23
645.438	4.23
645.471	7.23
645.505	0.23
645.539	-3.77
645.572	-8.77
645.606	14.23
645.64	7.23
645.673	4.23
645.707	24.23
645.741	14.23
645.774	3.23
645.808	1.23
645.842	-7.77
645.875	6.23
645.909	-4.77
645.943	-0.77
645.976	22.23
646.01	10.23
646.043	13.23
646.077	17.23
646.111	26.23
646.144	14.23
646.178	0.23
646.212	-13.77
646.245	0.23
646.279	22.23
646.312	14.23
646.346	11.23
646.38	10.23
646.413	12.23
646.447	12.23
646.48	-3.77
646.514	11.23
646.547	6.23
646.581	7.23
646.615	0.23
646.648	-9.77
646.682	-2.77
646.715	-2.77
646.749	15.23
646.782	-12.77
646.816	-10.77
646.85	8.23
646.883	-11.77
646.917	4.23
646.95	14.23
646.984	-10.77
647.017	6.23
647.051	0.23
647.084	11.23
647.118	-3.77
647.151	-11.77
647.185	-4.77
647.218	-24.77
647.252	3.23
647.285	-10.77
647.319	-4.77
647.353	-8.77
647.386	18.23
647.42	5.23
647.453	3.23
647.487	-14.77
647.52	-3.77
647.553	4.23
647.587	-9.77
647.62	-4.77
647.654	-2.77
647.687	-6.77
647.721	-3.77
647.754	-0.77
647.788	8.23
647.821	-4.77
647.855	9.23
647.888	8.23
647.922	13.23
647.955	18.23
647.989	20.23
648.022	12.23
648.055	17.23
648.089	8.23
648.122	25.23
648.156	10.23
648.189	19.23
648.223	6.23
648.256	-1.77
648.29	3.23
648.323	-4.77
648.356	19.23
648.39	5.23
648.423	3.23
648.457	3.23
648.49	5.23
648.523	23.23
648.557	9.23
648.59	15.23
648.624	10.23
648.657	5.23
648.69	16.23
648.724	6.23
648.757	4.23
648.791	6.23
648.824	6.23
648.857	26.23
648.891	-13.77
648.924	1.23
648.957	2.23
648.991	-2.77
649.024	15.23
649.057	-15.77
649.091	-11.77
649.124	8.23
649.158	11.23
649.191	18.23
649.224	6.23
649.258	3.23
649.291	12.23
649.324	1.23
649.358	-5.77
649.391	13.23
649.424	12.23
649.458	-8.77
649.491	9.23
649.524	-9.77
649.557	-5.77
649.591	-18.77
649.624	9.23
649.657	-4.77
649.691	2.23
649.724	1.23
649.757	-14.77
649.791	15.23
649.824	27.23
649.857	18.23
649.89	0.23
649.924	-11.77
649.957	11.23
649.99	-16.77
650.023	5.23
650.057	0.23
650.09	7.23
650.123	-10.77
650.157	15.23
650.19	1.23
650.223	-0.77
650.256	-6.77
650.29	10.23
650.323	3.23
650.356	27.23
650.389	9.23
650.423	-15.77
650.456	-4.77
650.489	-8.77
650.522	2.23
650.555	9.23
650.589	10.23
650.622	19.23
650.655	33.23
650.688	-6.77
650.721	-10.77
650.755	-14.77
650.788	9.23
650.821	-1.77
650.854	-8.77
650.887	2.23
650.921	2.23
650.954	-0.77
650.987	-8.77
651.02	-1.77
651.053	-22.77
651.087	-24.77
651.12	21.23
651.153	4.23
651.186	1.23
651.219	-16.77
651.252	13.23
651.286	8.23
651.319	-5.77
651.352	-4.77
651.385	19.23
651.418	8.23
651.451	10.23
651.484	11.23
651.518	-10.77
651.551	9.23
651.584	3.23
651.617	18.23
651.65	12.23
651.683	24.23
651.716	-5.77
651.749	-11.77
651.783	6.23
651.816	3.23
651.849	20.23
651.882	-6.77
651.915	-13.77
651.948	21.23
651.981	-5.77
652.014	-24.77
652.047	-10.77
652.08	4.23
652.114	6.23
652.147	0.23
652.18	18.23
652.213	26.23
652.246	-0.77
652.279	-10.77
652.312	13.23
652.345	-16.77
652.378	4.23
652.411	7.23
652.444	1.23
652.477	1.23
652.51	-2.77
652.543	-0.77
652.576	6.23
652.609	0.23
652.642	2.23
652.675	8.23
652.709	7.23
652.742	-2.77
652.775	-11.77
652.808	17.23
652.841	17.23
652.874	7.23
652.907	-6.77
652.94	9.23
652.973	-6.77
653.006	0.23
653.039	-2.77
653.072	5.23
653.105	-7.77
653.138	-16.77
653.171	-2.77
653.204	12.23
653.237	11.23
653.27	3.23
653.303	5.23
653.336	20.23
653.368	-1.77
653.401	5.23
653.434	-17.77
653.467	8.23
653.5	4.23
653.533	-12.77
653.566	-3.77
653.599	11.23
653.632	-3.77
653.665	21.23
653.698	-1.77
653.731	-4.77
653.764	19.23
653.797	0.23
653.83	10.23
653.863	9.23
653.896	3.23
653.929	-2.77
653.961	12.23
653.994	-0.77
654.027	-18.77
654.06	13.23
654.093	15.23
654.126	17.23
654.159	-6.77
654.192	-0.77
654.225	-8.77
654.258	-3.77
654.29	9.23
654.323	-15.77
654.356	-4.77
654.389	1.23
654.422	7.23
654.455	4.23
654.488	-3.77
654.521	-0.77
654.553	-13.77
654.586	5.23
654.619	3.23
654.652	-8.77
654.685	9.23
654.718	11.23
654.751	19.23
654.783	3.23
654.816	31.23
654.849	5.23
654.882	-0.77
654.915	-5.77
654.948	5.23
654.98	-6.77
655.013	6.23
655.046	2.23
655.079	-4.77
655.112	-4.77
655.144	-13.77
655.177	12.23
655.21	10.23
655.243	14.23
655.276	0.23
655.308	-13.77
655.341	-8.77
655.374	21.23
655.407	-7.77
655.44	8.23
655.472	12.23
655.505	7.23
655.538	8.23
655.571	14.23
655.603	-0.77
655.636	11.23
655.669	24.23
655.702	33.23
655.734	17.23
655.767	14.23
655.8	14.23
655.833	20.23
655.865	36.23
655.898	15.23
655.931	20.23
655.964	42.23
655.996	43.23
656.029	56.23
656.062	41.23
656.095	71.23
656.127	79.23
656.16	93.23
656.193	139.23
656.225	180.23
656.258	280.23
656.291	499.23
656.324	1120.23
656.356	3344.23
656.389	7463.23
656.422	5982.23
656.454	2061.23
656.487	675.23
656.52	256.23
656.552	126.23
656.585	78.23
656.618	46.23
656.65	32.23
656.683	24.23
656.716	22.23
656.748	18.23
656.781	3.23
656.814	1.23
656.846	10.23
656.879	4.23
656.912	2.23
656.944	-13.77
656.977	-3.77
657.01	-1.77
657.042	14.23
657.075	11.23
657.108	-19.77
657.14	7.23
657.173	15.23
657.205	22.23
657.238	18.23
657.271	14.23
657.303	2.23
657.336	0.23
657.369	18.23
657.401	-3.77
657.434	7.23
657.466	13.23
657.499	1.23
657.532	-15.77
657.564	-4.77
657.597	-5.77
657.629	8.23
657.662	-10.77
657.694	0.23
657.727	-4.77
657.76	7.23
657.792	2.23
657.825	0.23
657.857	7.23
657.89	5.23
657.922	5.23
657.955	-6.77
657.987	-6.77
658.02	8.23
658.053	14.23
658.085	18.23
658.118	10.23
658.15	13.23
658.183	24.23
658.215	8.23
658.248	-9.77
658.28	1.23
658.313	24.23
658.345	4.23
658.378	3.23
658.41	5.23
658.443	7.23
658.475	6.23
658.508	8.23
658.54	6.23
658.573	3.23
658.605	23.23
658.638	2.23
658.67	3.23
658.703	2.23
658.735	10.23
658.768	7.23
658.8	-8.77
658.833	27.23
658.865	3.23
658.898	2.23
658.93	-2.77
658.963	1.23
658.995	-28.77
659.028	12.23
659.06	6.23
659.092	21.23
659.125	-24.77
659.157	-10.77
659.19	-14.77
659.222	-3.77
659.255	10.23
659.287	9.23
659.32	8.23
659.352	4.23
659.384	-9.77
659.417	17.23
659.449	4.23
659.482	5.23
659.514	7.23
659.546	-11.77
659.579	-5.77
659.611	8.23
659.644	4.23
659.676	-13.77
659.708	3.23
659.741	-19.77
659.773	2.23
659.806	-12.77
659.838	-0.77
659.87	-12.77
659.903	3.23
659.935	0.23
659.967	19.23
660	3.23
660.032	-3.77
660.065	25.23
660.097	-4.77
660.129	-5.77
660.162	-21.77
660.194	8.23
660.226	-7.77
660.259	5.23
660.291	3.23
660.323	-3.77
660.356	-1.77
660.388	-0.77
660.42	-1.77
660.453	-7.77
660.485	3.23
660.517	7.23
660.55	15.23
660.582	9.23
660.614	2.23
660.647	-0.77
660.679	-19.77
660.711	-2.77
660.743	-9.77
660.776	-11.77
660.808	8.23
660.84	-7.77
660.873	-6.77
660.905	-4.77
660.937	-9.77
660.969	4.23
661.002	5.23
661.034	9.23
661.066	-2.77
661.099	9.23
661.131	9.23
661.163	3.23
661.195	10.23
661.228	9.23
661.26	7.23
661.292	-4.77
661.324	7.23
661.357	7.23
661.389	3.23
661.421	12.23
661.453	9.23
661.485	5.23
661.518	2.23
661.55	-13.77
661.582	-12.77
661.614	-9.77
661.647	2.23
661.679	-4.77
661.711	8.23
661.743	-2.77
661.775	8.23
661.808	17.23
661.84	-14.77
661.872	-2.77
661.904	-7.77
661.936	1.23
661.969	4.23
662.001	-5.77
662.033	5.23
662.065	-0.77
662.097	10.23
662.129	10.23
662.162	-6.77
662.194	11.23
662.226	6.23
662.258	15.23
662.29	2.23
662.322	-8.77
662.355	-10.77
662.387	22.23
662.419	0.23
662.451	8.23
662.483	20.23
662.515	4.23
662.547	0.23
662.58	-16.77
662.612	-6.77
662.644	-18.77
662.676	7.23
662.708	18.23
662.74	-3.77
662.772	3.23
662.804	5.23
662.836	0.23
662.869	5.23
662.901	9.23
662.933	-8.77
662.965	5.23
662.997	-2.77
663.029	2.23
663.061	-13.77
663.093	-5.77
663.125	16.23
663.157	8.23
663.189	7.23
663.221	16.23
663.254	-3.77
663.286	22.23
663.318	-19.77
663.35	13.23
663.382	-2.77
663.414	10.23
663.446	14.23
663.478	-12.77
663.51	9.23
663.542	2.23
663.574	4.23
663.606	6.23
663.638	-1.77
663.67	15.23
663.702	1.23
663.734	-14.77
663.766	11.23
663.798	-3.77
663.83	4.23
663.862	2.23
663.894	16.23
663.926	-7.77
663.958	1.23
663.99	3.23
664.022	-3.77
664.054	10.23
664.086	5.23
664.118	-5.77
664.15	1.23
664.182	-0.77
664.214	-17.77
664.246	7.23
664.278	10.23
664.31	11.23
664.342	-2.77
664.374	-1.77
664.406	-3.77
664.438	-2.77
664.47	11.23
664.502	5.23
664.534	-7.77
664.566	-9.77
664.598	-0.77
664.63	-1.77
664.662	-7.77
664.693	-19.77
664.725	-11.77
664.757	-14.77
664.789	-10.77
664.821	-3.77
664.853	15.23
664.885	1.23
664.917	-16.77
664.949	19.23
664.981	5.23
665.013	-4.77
665.045	-10.77
665.076	0.23
665.108	-0.77
665.14	-9.77
665.172	-5.77
665.204	-1.77
665.236	-6.77
665.268	24.23
665.3	-7.77
665.331	-0.77
665.363	7.23
665.395	-0.77
665.427	-6.77
665.459	4.23
665.491	-8.77
665.523	-16.77
665.555	4.23
665.586	4.23
665.618	2.23
665.65	-11.77
665.682	3.23
665.714	2.23
665.746	-11.77
665.777	2.23
665.809	-4.77
665.841	3.23
665.873	-4.77
665.905	16.23
665.937	7.23
665.968	5.23
666	-1.77
666.032	9.23
666.064	-2.77
666.096	-11.77
666.127	5.23
666.159	4.23
666.191	0.23
666.223	-24.77
666.255	-13.77
666.286	6.23
666.318	15.23
666.35	13.23
666.382	4.23
666.413	5.23
666.445	0.23
666.477	-9.77
666.509	-30.77
666.54	3.23
666.572	5.23
666.604	-2.77
666.636	-1.77
666.667	8.23
666.699	22.23
666.731	13.23
666.763	-5.77
666.794	1.23
666.826	-0.77
666.858	1.23
666.89	8.23
666.921	-0.77
666.953	6.23
666.985	10.23
667.017	14.23
667.048	7.23
667.08	-5.77
667.112	-11.77
667.143	-12.77
667.175	-8.77
667.207	-12.77
667.238	-7.77
667.27	5.23
667.302	3.23
667.334	-0.77
667.365	10.23
667.397	-4.77
667.429	-1.77
667.46	13.23
667.492	22.23
667.524	1.23
667.555	-5.77
667.587	-4.77
667.619	4.23
667.65	-10.77
667.682	1.23
667.714	11.23
667.745	14.23
667.777	5.23
667.808	10.23
667.84	11.23
667.872	-5.77
667.903	27.23
667.935	11.23
667.967	-1.77
667.998	8.23
668.03	13.23
668.061	9.23
668.093	1.23
668.125	-4.77
668.156	9.23
668.188	-11.77
668.22	-11.77
668.251	14.23
668.283	17.23
668.314	7.23
668.346	-9.77
668.377	6.23
668.409	-6.77
668.441	-14.77
668.472	6.23
668.504	10.23
668.535	-0.77
668.567	-0.77
668.599	9.23
668.63	-0.77
668.662	4.23
668.693	15.23
668.725	0.23
668.756	13.23
668.788	2.23
668.819	4.23
668.851	3.23
668.882	1.23
668.914	-12.77
668.946	-6.77
668.977	-13.77
669.009	-0.77
669.04	-21.77
669.072	-17.77
669.103	0.23
669.135	-6.77
669.166	2.23
669.198	8.23
669.229	0.23
669.261	4.23
669.292	0.23
669.324	-7.77
669.355	5.23
669.387	-2.77
669.418	2.23
669.45	-1.77
669.481	16.23
669.513	8.23
669.544	4.23
669.576	-3.77
669.607	9.23
669.639	22.23
669.67	-11.77
669.701	7.23
669.733	-7.77
669.764	9.23
669.796	-8.77
669.827	-13.77
669.859	-10.77
669.89	16.23
669.922	11.23
669.953	-0.77
669.985	0.23
670.016	3.23
670.047	-0.77
670.079	-11.77
670.11	-10.77
670.142	-13.77
670.173	13.23
670.204	-7.77
670.236	4.23
670.267	-6.77
670.299	-8.77
670.33	-10.77
670.362	5.23
670.393	-11.77
670.424	17.23
670.456	-5.77
670.487	-2.77
670.518	-3.77
670.55	1.23
670.581	-5.77
670.613	4.23
670.644	-11.77
670.675	-18.77
670.707	-6.77
670.738	-11.77
670.769	1.23
670.801	-3.77
670.832	4.23
670.864	-4.77
670.895	2.23
670.926	-1.77
670.958	6.23
670.989	-12.77
671.02	4.23
671.052	-0.77
671.083	11.23
671.114	4.23
671.146	12.23
671.177	12.23
671.208	-1.77
671.24	-9.77
671.271	7.23
671.302	3.23
671.333	-7.77
671.365	3.23
671.396	-2.77
671.427	0.23
671.459	26.23
671.49	14.23
671.521	8.23
671.553	-0.77
671.584	12.23
671.615	-6.77
671.646	5.23
671.678	7.23
671.709	-13.77
671.74	-9.77
671.771	-1.77
671.803	-6.77
671.834	-5.77
671.865	-9.77
671.896	4.23
671.928	8.23
671.959	13.23
671.99	-7.77
672.021	-14.77
672.053	-9.77
672.084	17.23
672.115	8.23
672.146	-0.77
672.178	-13.77
672.209	-4.77
672.24	-7.77
672.271	19.23
672.303	5.23
672.334	1.23
672.365	-11.77
672.396	9.23
672.427	15.23
672.459	8.23
672.49	11.23
672.521	4.23
672.552	5.23
672.583	-3.77
672.615	-5.77
672.646	4.23
672.677	2.23
672.708	-21.77
672.739	-8.77
672.77	8.23
672.802	8.23
672.833	6.23
672.864	12.23
672.895	2.23
672.926	0.23
672.957	-22.77
672.989	-9.77
673.02	13.23
673.051	-7.77
673.082	13.23
673.113	0.23
673.144	-3.77
673.175	3.23
673.206	-12.77
673.238	-5.77
673.269	11.23
673.3	-11.77
673.331	8.23
673.362	13.23
673.393	6.23
673.424	0.23
673.455	3.23
673.487	-3.77
673.518	-0.77
673.549	9.23
673.58	-2.77
673.611	1.23
673.642	-8.77
673.673	-15.77
673.704	-6.77
673.735	-3.77
673.766	-2.77
673.797	-2.77
673.828	-4.77
673.86	-8.77
673.891	1.23
673.922	1.23
673.953	-8.77
673.984	1.23
674.015	1.23
674.046	-0.77
674.077	6.23
674.108	-11.77
674.139	3.23
674.17	-20.77
674.201	-16.77
674.232	2.23
674.263	-7.77
674.294	-6.77
674.325	-14.77
674.356	12.23
674.387	26.23
674.418	6.23
674.449	-12.77
674.48	-14.77
674.511	-0.77
674.542	10.23
674.573	-8.77
674.604	6.23
674.635	-9.77
674.666	3.23
674.697	2.23
674.728	-12.77
674.759	-1.77
674.79	-5.77
674.821	2.23
674.852	4.23
674.883	-11.77
674.914	11.23
674.945	1.23
674.976	2.23
675.007	-16.77
675.038	-7.77
675.069	-6.77
675.1	4.23
675.131	3.23
675.162	-5.77
675.193	-13.77
675.224	-0.77
675.254	-4.77
675.285	4.23
675.316	9.23
675.347	7.23
675.378	1.23
675.409	-11.77
675.44	13.23
675.471	-9.77
675.502	2.23
675.533	-1.77
675.564	1.23
675.595	5.23
675.625	22.23
675.656	8.23
675.687	0.23
675.718	0.23
675.749	5.23
675.78	4.23
675.811	-10.77
675.842	5.23
675.873	-1.77
675.903	4.23
675.934	11.23
675.965	-9.77
675.996	-8.77
676.027	7.23
676.058	-4.77
676.089	-18.77
676.119	-8.77
676.15	-6.77
676.181	-5.77
676.212	-8.77
676.243	-7.77
676.274	-1.77
676.304	13.23
676.335	-12.77
676.366	1.23
676.397	-5.77
676.428	-15.77
676.459	6.23
676.489	10.23
676.52	6.23
676.551	-4.77
676.582	-9.77
676.613	-3.77
676.643	-3.77
676.674	11.23
676.705	2.23
676.736	-7.77
676.767	5.23
676.797	4.23
676.828	14.23
676.859	-1.77
676.89	-7.77
676.92	-7.77
676.951	-0.77
676.982	-1.77
677.013	-3.77
677.044	5.23
677.074	-6.77
677.105	-14.77
677.136	-0.77
677.167	10.23
677.197	14.23
677.228	0.23
677.259	-11.77
677.289	3.23
677.32	1.23
677.351	2.23
677.382	-12.77
677.412	2.23
677.443	16.23
677.474	-1.77
677.505	-13.77
677.535	-3.77
677.566	-11.77
677.597	-6.77
677.627	-6.77
677.658	-3.77
677.689	1.23
677.72	5.23
677.75	-13.77
677.781	6.23
677.812	-5.77
677.842	6.23
677.873	4.23
677.904	-9.77
677.934	-6.77
677.965	3.23
677.996	-12.77
678.026	3.23
678.057	-7.77
678.088	-14.77
678.118	-5.77
678.149	-15.77
678.18	-14.77
678.21	1.23
678.241	11.23
678.272	-0.77
678.302	-2.77
678.333	-12.77
678.363	-7.77
678.394	-0.77
678.425	3.23
678.455	-11.77
678.486	13.23
678.517	7.23
678.547	9.23
678.578	-3.77
678.608	-12.77
678.639	2.23
678.67	8.23
678.7	8.23
678.731	7.23
678.761	-3.77
678.792	-17.77
678.823	3.23
678.853	20.23
678.884	-5.77
678.914	10.23
678.945	3.23
678.975	-8.77
679.006	2.23
679.037	-6.77
679.067	26.23
679.098	7.23
679.128	3.23
679.159	5.23
679.189	2.23
679.22	-5.77
679.25	2.23
679.281	11.23
679.312	2.23
679.342	9.23
679.373	28.23
679.403	-3.77
679.434	4.23
679.464	6.23
679.495	-7.77
679.525	3.23
679.556	7.23
679.586	4.23
679.617	-2.77
679.647	-3.77
679.678	13.23
679.708	-7.77
679.739	2.23
679.769	9.23
679.8	4.23
679.83	-2.77
679.861	-9.77
679.891	6.23
679.922	-27.77
679.952	-16.77
679.983	-13.77
680.013	12.23
680.044	-6.77
680.074	10.23
680.105	1.23
680.135	-7.77
680.165	16.23
680.196	9.23
680.226	-4.77
680.257	4.23
680.287	3.23
680.318	-1.77
680.348	-6.77
680.379	6.23
680.409	-1.77
680.439	2.23
680.47	3.23
680.5	7.23
680.531	-6.77
680.561	5.23
680.592	-1.77
680.622	4.23
680.652	-0.77
680.683	25.23
680.713	6.23
680.744	-18.77
680.774	-4.77
680.804	11.23
680.835	1.23
680.865	2.23
680.896	8.23
680.926	23.23
680.956	9.23
680.987	2.23
681.017	0.23
681.047	5.23
681.078	-0.77
681.108	5.23
681.139	1.23
681.169	13.23
681.199	-2.77
681.23	12.23
681.26	4.23
681.29	1.23
681.321	3.23
681.351	3.23
681.381	-4.77
681.412	8.23
681.442	10.23
681.472	17.23
681.503	1.23
681.533	9.23
681.563	-5.77
681.594	-2.77
681.624	8.23
681.654	-3.77
681.685	13.23
681.715	-7.77
681.745	-0.77
681.775	-3.77
681.806	-2.77
681.836	1.23
681.866	-0.77
681.897	2.23
681.927	6.23
681.957	-11.77
681.987	12.23
682.018	2.23
682.048	-3.77
682.078	-1.77
682.109	9.23
682.139	8.23
682.169	2.23
682.199	10.23
682.23	4.23
682.26	-2.77
682.29	7.23
682.32	-8.77
682.351	0.23
682.381	0.23
682.411	-21.77
682.441	-11.77
682.472	-8.77
682.502	4.23
682.532	1.23
682.562	8.23
682.592	-6.77
682.623	4.23
682.653	6.23
682.683	2.23
682.713	1.23
682.743	-9.77
682.774	3.23
682.804	-12.77
682.834	3.23
682.864	11.23
682.894	-0.77
682.925	7.23
682.955	8.23
682.985	6.23
683.015	0.23
683.045	8.23
683.076	-3.77
683.106	0.23
683.136	-4.77
683.166	-6.77
683.196	-1.77
683.226	-17.77
683.257	-1.77
683.287	-7.77
683.317	-9.77
683.347	-4.77
683.377	-9.77
683.407	-2.77
683.437	15.23
683.468	14.23
683.498	-1.77
683.528	5.23
683.558	5.23
683.588	9.23
683.618	5.23
683.648	-4.77
683.678	-1.77
683.708	8.23
683.739	-7.77
683.769	-4.77
683.799	15.23
683.829	-2.77
683.859	-9.77
683.889	17.23
683.919	10.23
683.949	-4.77
683.979	-12.77
684.009	-12.77
684.039	-16.77
684.07	-4.77
684.1	10.23
684.13	9.23
684.16	-9.77
684.19	-14.77
684.22	-11.77
684.25	12.23
684.28	-9.77
684.31	22.23
684.34	0.23
684.37	-2.77
684.4	-0.77
684.43	4.23
684.46	-4.77
684.49	-8.77
684.52	1.23
684.55	2.23
684.58	8.23
684.61	4.23
684.64	11.23
684.67	0.23
684.7	-12.77
684.73	5.23
684.76	-7.77
684.79	17.23
684.82	11.23
684.85	-13.77
684.88	-4.77
684.91	-5.77
684.94	1.23
684.97	-17.77
685	5.23
685.03	-12.77
685.06	-9.77
685.09	-7.77
685.12	5.23
685.15	-10.77
685.18	1.23
685.21	7.23
685.24	4.23
685.27	8.23
685.3	-5.77
685.33	9.23
685.36	-6.77
685.39	9.23
685.42	-11.77
685.45	-1.77
685.48	11.23
685.51	-5.77
685.54	-13.77
685.569	11.23
685.599	3.23
685.629	-1.77
685.659	-0.77
685.689	-16.77
685.719	12.23
685.749	2.23
685.779	1.23
685.809	6.23
685.839	5.23
685.869	7.23
685.898	4.23
685.928	-1.77
685.958	2.23
685.988	16.23
686.018	3.23
686.048	2.23
686.078	17.23
686.108	10.23
686.137	2.23
686.167	4.23
686.197	-28.77
686.227	0.23
686.257	9.23
686.287	9.23
686.317	1.23
686.346	-15.77
686.376	-9.77
686.406	-16.77
686.436	2.23
686.466	-0.77
686.496	9.23
686.525	3.23
686.555	-3.77
686.585	8.23
686.615	26.23
686.645	11.23
686.675	-0.77
686.704	-2.77
686.734	-0.77
686.764	-2.77
686.794	-1.77
686.824	-17.77
686.853	21.23
686.883	12.23
686.913	9.23
686.943	11.23
686.973	-5.77
687.002	13.23
687.032	-1.77
687.062	-9.77
687.092	8.23
687.121	-5.77
687.151	-1.77
687.181	2.23
687.211	4.23
687.24	0.23
687.27	2.23
687.3	0.23
687.33	-5.77
687.359	-15.77
687.389	7.23
687.419	22.23
687.449	13.23
687.478	19.23
687.508	-1.77
687.538	-14.77
687.568	4.23
687.597	-7.77
687.627	1.23
687.657	1.23
687.686	13.23
687.716	20.23
687.746	-12.77
687.776	0.23
687.805	16.23
687.835	-7.77
687.865	-10.77
687.894	-2.77
687.924	3.23
687.954	5.23
687.983	2.23
688.013	14.23
688.043	21.23
688.072	14.23
688.102	16.23
688.132	-8.77
688.161	-0.77
688.191	-7.77
688.221	25.23
688.25	-11.77
688.28	-3.77
688.31	-16.77
688.339	0.23
688.369	-5.77
688.399	1.23
688.428	0.23
688.458	-11.77
688.488	1.23
688.517	4.23
688.547	-2.77
688.576	33.23
688.606	15.23
688.636	4.23
688.665	5.23
688.695	3.23
688.725	5.23
688.754	10.23
688.784	14.23
688.813	6.23
688.843	-9.77
688.873	-17.77
688.902	2.23
688.932	3.23
688.961	5.23
688.991	12.23
689.02	22.23
689.05	1.23
689.08	6.23
689.109	6.23
689.139	8.23
689.168	19.23
689.198	-8.77
689.227	3.23
689.257	8.23
689.287	7.23
689.316	-4.77
689.346	-1.77
689.375	-16.77
689.405	11.23
689.434	2.23
689.464	-0.77
689.493	-6.77
689.523	-6.77
689.552	-8.77
689.582	-6.77
689.611	-5.77
689.641	8.23
689.67	20.23
689.7	3.23
689.73	10.23
689.759	13.23
689.789	25.23
689.818	-3.77
689.848	-5.77
689.877	8.23
689.906	-6.77
689.936	10.23
689.965	8.23
689.995	1.23
690.024	8.23
690.054	3.23
690.083	-3.77
690.113	-2.77
690.142	-7.77
690.172	-2.77
690.201	4.23
690.231	-5.77
690.26	-6.77
690.29	-6.77
690.319	2.23
690.348	-8.77
690.378	12.23
690.407	4.23
690.437	6.23
690.466	2.23
690.496	7.23
690.525	24.23
690.555	-12.77
690.584	-11.77
690.613	0.23
690.643	2.23
690.672	6.23
690.702	11.23
690.731	3.23
690.76	14.23
690.79	-5.77
690.819	-7.77
690.849	-7.77
690.878	2.23
690.907	7.23
690.937	6.23
690.966	-0.77
690.996	2.23
691.025	-19.77
691.054	-10.77
691.084	8.23
691.113	10.23
691.142	9.23
691.172	17.23
691.201	3.23
691.23	-3.77
691.26	18.23
691.289	3.23
691.319	-1.77
691.348	-0.77
691.377	22.23
691.407	11.23
691.436	10.23
691.465	1.23
691.495	4.23
691.524	-24.77
691.553	-16.77
691.583	-9.77
691.612	5.23
691.641	-4.77
691.67	5.23
691.7	7.23
691.729	-6.77
691.758	-7.77
691.788	-12.77
691.817	2.23
691.846	-3.77
691.876	-8.77
691.905	12.23
691.934	-7.77
691.963	-1.77
691.993	-4.77
692.022	-1.77
692.051	-3.77
692.081	0.23
692.11	21.23
692.139	16.23
692.168	3.23
692.198	14.23
692.227	12.23
692.256	1.23
692.285	-0.77
692.315	5.23
692.344	20.23
692.373	13.23
692.402	-29.77
692.432	-9.77
692.461	-0.77
692.49	6.23
692.519	5.23
692.548	16.23
692.578	3.23
692.607	-8.77
692.636	8.23
692.665	10.23
692.694	-1.77
692.724	-4.77
692.753	7.23
692.782	8.23
692.811	-11.77
692.84	-0.77
692.87	-1.77
692.899	-0.77
692.928	8.23
692.957	10.23
692.986	14.23
693.016	-1.77
693.045	8.23
693.074	5.23
693.103	-2.77
693.132	-3.77
693.161	2.23
693.191	-5.77
693.22	-10.77
693.249	10.23
693.278	-0.77
693.307	20.23
693.336	-16.77
693.365	-12.77
693.395	3.23
693.424	-1.77
693.453	28.23
693.482	0.23
693.511	2.23
693.54	-0.77
693.569	6.23
693.598	-0.77
693.628	1.23
693.657	17.23
693.686	33.23
693.715	25.23
693.744	9.23
693.773	20.23
693.802	7.23
693.831	-9.77
693.86	6.23
693.889	-17.77
693.919	2.23
693.948	-0.77
693.977	1.23
694.006	-10.77
694.035	4.23
694.064	8.23
694.093	11.23
694.122	-0.77
694.151	-0.77
694.18	2.23
694.209	20.23
694.238	5.23
694.267	24.23
694.296	3.23
694.325	5.23
694.354	12.23
694.383	13.23
694.412	2.23
694.441	-1.77
694.471	-5.77
694.5	2.23
694.529	-4.77
694.558	8.23
694.587	7.23
694.616	-5.77
694.645	-0.77
694.674	1.23
694.703	12.23
694.732	-1.77
694.761	7.23
694.79	5.23
694.819	-12.77
694.848	13.23
694.877	22.23
694.906	18.23
694.935	4.23
694.963	10.23
694.992	15.23
695.021	7.23
695.05	11.23
695.079	8.23
695.108	2.23
695.137	3.23
695.166	-7.77
695.195	1.23
695.224	18.23
695.253	17.23
695.282	13.23
695.311	14.23
695.34	2.23
695.369	9.23
695.398	3.23
695.427	20.23
695.456	8.23
695.485	5.23
695.513	3.23
695.542	2.23
695.571	3.23
695.6	13.23
695.629	11.23
695.658	12.23
695.687	-3.77
695.716	1.23
695.745	2.23
695.774	-10.77
695.802	-3.77
695.831	7.23
695.86	19.23
695.889	21.23
695.918	3.23
695.947	13.23
695.976	8.23
696.005	3.23
696.033	9.23
696.062	5.23
696.091	-7.77
696.12	-3.77
696.149	11.23
696.178	4.23
696.207	12.23
696.235	-17.77
696.264	17.23
696.293	14.23
696.322	12.23
696.351	7.23
696.38	-7.77
696.408	6.23
696.437	3.23
696.466	-5.77
696.495	19.23
696.524	12.23
696.553	13.23
696.581	6.23
696.61	-12.77
696.639	16.23
696.668	2.23
696.697	-5.77
696.725	2.23
696.754	1.23
696.783	-3.77
696.812	-1.77
696.84	18.23
696.869	10.23
696.898	15.23
696.927	7.23
696.956	6.23
696.984	2.23
697.013	4.23
697.042	-0.77
697.071	14.23
697.099	23.23
697.128	12.23
697.157	4.23
697.186	-6.77
697.214	-8.77
697.243	0.23
697.272	1.23
697.301	9.23
697.329	8.23
697.358	4.23
697.387	8.23
697.415	10.23
697.444	-0.77
697.473	-4.77
697.502	-17.77
697.53	-0.77
697.559	17.23
697.588	18.23
697.616	-2.77
697.645	20.23
697.674	28.23
697.703	-5.77
697.731	7.23
697.76	12.23
697.789	10.23
697.817	8.23
697.846	17.23
697.875	11.23
697.903	26.23
697.932	13.23
697.961	-3.77
697.989	12.23
698.018	7.23
698.047	12.23
698.075	22.23
698.104	-18.77
698.133	-11.77
698.161	4.23
698.19	3.23
698.218	-2.77
698.247	-5.77
698.276	-5.77
698.304	3.23
698.333	4.23
698.362	-0.77
698.39	8.23
698.419	14.23
698.447	-17.77
698.476	-2.77
698.505	6.23
698.533	-3.77
698.562	9.23
698.591	9.23
698.619	-8.77
698.648	-4.77
698.676	2.23
698.705	-9.77
698.733	-8.77
698.762	4.23
698.791	5.23
698.819	1.23
698.848	-6.77
698.876	-0.77
698.905	-4.77
698.933	-2.77
698.962	7.23
698.991	-2.77
699.019	30.23
699.048	-10.77
699.076	-4.77
699.105	-9.77
699.133	3.23
699.162	5.23
699.19	14.23
699.219	7.23
699.248	4.23
699.276	-0.77
699.305	0.23
699.333	18.23
699.362	-8.77
699.39	19.23
699.419	-2.77
699.447	17.23
699.476	8.23
699.504	-9.77
699.533	-0.77
699.561	-16.77
699.59	0.23
699.618	-9.77
699.647	7.23
699.675	4.23
699.704	2.23
699.732	1.23
699.761	20.23
699.789	0.23
699.818	3.23
699.846	-5.77
699.874	-5.77
699.903	-11.77
699.931	-7.77
699.96	2.23
699.988	6.23
700.017	8.23
700.045	-0.77
700.074	-5.77
700.102	11.23
700.13	-13.77
700.159	-4.77
700.187	2.23
700.216	8.23
700.244	-7.77
700.273	-7.77
700.301	11.23
700.329	20.23
700.358	12.23
700.386	3.23
700.415	-2.77
700.443	-16.77
700.472	2.23
700.5	0.23
700.528	16.23
700.557	2.23
700.585	7.23
700.614	-17.77
700.642	16.23
700.67	14.23
700.699	17.23
700.727	-3.77
700.755	10.23
700.784	15.23
700.812	4.23
700.841	13.23
700.869	-2.77
700.897	-5.77
700.926	-6.77
700.954	10.23
700.982	4.23
701.011	7.23
701.039	8.23
701.067	5.23
701.096	-11.77
701.124	-5.77
701.152	-1.77
701.181	7.23
701.209	-4.77
701.237	-7.77
701.266	-3.77
701.294	-6.77
701.322	-12.77
701.351	6.23
701.379	-0.77
701.407	-17.77
701.435	4.23
701.464	24.23
701.492	34.23
701.52	-1.77
701.549	0.23
701.577	-19.77
701.605	-4.77
701.634	-1.77
701.662	-0.77
701.69	-13.77
701.718	-13.77
701.747	11.23
701.775	2.23
701.803	-4.77
701.831	14.23
701.86	-7.77
701.888	-8.77
701.916	-10.77
701.944	-5.77
701.973	-15.77
702.001	-1.77
702.029	1.23
702.057	-9.77
702.086	-2.77
702.114	-22.77
702.142	-14.77
702.17	-4.77
702.199	2.23
702.227	-10.77
702.255	-20.77
702.283	-2.77
702.311	13.23
702.34	-3.77
702.368	-3.77
702.396	-2.77
702.424	-0.77
702.452	-1.77
702.481	10.23
702.509	2.23
702.537	10.23
702.565	7.23
702.593	-13.77
702.621	7.23
702.65	3.23
702.678	-4.77
702.706	1.23
702.734	-6.77
702.762	12.23
702.79	1.23
702.819	6.23
702.847	-3.77
702.875	2.23
702.903	0.23
702.931	-4.77
702.959	1.23
702.988	4.23
703.016	-6.77
703.044	5.23
703.072	-9.77
703.1	-5.77
703.128	-1.77
703.156	4.23
703.184	4.23
703.212	9.23
703.241	1.23
703.269	-12.77
703.297	11.23
703.325	1.23
703.353	-19.77
703.381	-5.77
703.409	4.23
703.437	-7.77
703.465	2.23
703.493	-12.77
703.522	-0.77
703.55	-2.77
703.578	-7.77
703.606	-14.77
703.634	0.23
703.662	9.23
703.69	-9.77
703.718	-5.77
703.746	24.23
703.774	-6.77
703.802	22.23
703.83	-4.77
703.858	-2.77
703.886	-12.77
703.914	-16.77
703.942	3.23
703.97	-13.77
703.998	-6.77
704.027	21.23
704.055	12.23
704.083	7.23
704.111	-5.77
704.139	-2.77
704.167	-11.77
704.195	-2.77
704.223	-3.77
704.251	-4.77
704.279	7.23
704.307	0.23
704.335	-9.77
704.363	-0.77
704.391	-4.77
704.419	10.23
704.447	4.23
704.475	0.23
704.503	-7.77
704.531	11.23
704.558	2.23
704.586	-4.77
704.614	-0.77
704.642	6.23
704.67	1.23
704.698	-9.77
704.726	-7.77
704.754	0.23
704.782	12.23
704.81	-4.77
704.838	14.23
704.866	2.23
704.894	-10.77
704.922	-7.77
704.95	-2.77
704.978	9.23
705.006	7.23
705.034	9.23
705.061	-0.77
705.089	1.23
705.117	-12.77
705.145	-1.77
705.173	-0.77
705.201	-5.77
705.229	16.23
705.257	-0.77
705.285	11.23
705.313	10.23
705.34	1.23
705.368	-11.77
705.396	3.23
705.424	0.23
705.452	-7.77
705.48	-9.77
705.508	-12.77
705.536	-4.77
705.563	-7.77
705.591	-3.77
705.619	10.23
705.647	0.23
705.675	1.23
705.703	-13.77
705.731	-1.77
705.758	0.23
705.786	7.23
705.814	8.23
705.842	16.23
705.87	21.23
705.898	15.23
705.925	-6.77
705.953	4.23
705.981	-7.77
706.009	2.23
706.037	14.23
706.065	-5.77
706.092	-8.77
706.12	0.23
706.148	-9.77
706.176	5.23
706.204	11.23
706.231	2.23
706.259	-11.77
706.287	-1.77
706.315	10.23
706.342	-5.77
706.37	14.23
706.398	14.23
706.426	5.23
706.454	7.23
706.481	15.23
706.509	2.23
706.537	-0.77
706.565	-17.77
706.592	9.23
706.62	6.23
706.648	3.23
706.676	-2.77
706.703	-1.77
706.731	-4.77
706.759	5.23
706.787	-7.77
706.814	-4.77
706.842	-5.77
706.87	-15.77
706.897	-13.77
706.925	8.23
706.953	10.23
706.981	7.23
707.008	-4.77
707.036	7.23
707.064	2.23
707.091	-23.77
707.119	2.23
707.147	-5.77
707.174	-12.77
707.202	-3.77
707.23	0.23
707.258	6.23
707.285	-25.77
707.313	-3.77
707.341	-13.77
707.368	-3.77
707.396	-0.77
707.424	13.23
707.451	8.23
707.479	0.23
707.507	15.23
707.534	0.23
707.562	6.23
707.59	-8.77
707.617	-7.77
707.645	0.23
707.672	-1.77
707.7	7.23
707.728	17.23
707.755	10.23
707.783	-14.77
707.811	-13.77
707.838	-5.77
707.866	-2.77
707.893	-4.77
707.921	-11.77
707.949	-16.77
707.976	-0.77
708.004	0.23
708.031	-0.77
708.059	-0.77
708.087	1.23
708.114	-14.77
708.142	-13.77
708.169	-8.77
708.197	0.23
708.225	-12.77
708.252	-14.77
708.28	2.23
708.307	6.23
708.335	-3.77
708.362	-7.77
708.39	-12.77
708.418	6.23
708.445	6.23
708.473	-12.77
708.5	-14.77
708.528	20.23
708.555	-1.77
708.583	-0.77
708.61	-14.77
708.638	-1.77
708.665	-3.77
708.693	-10.77
708.72	-7.77
708.748	-3.77
708.776	3.23
708.803	16.23
708.831	1.23
708.858	-1.77
708.886	-10.77
708.913	1.23
708.941	-5.77
708.968	8.23
708.996	-12.77
709.023	22.23
709.051	-20.77
709.078	-23.77
709.105	-3.77
709.133	-8.77
709.16	-6.77
709.188	9.23
709.215	7.23
709.243	0.23
709.27	-3.77
709.298	-9.77
709.325	-8.77
709.353	-11.77
709.38	-7.77
709.408	14.23
709.435	16.23
709.462	5.23
709.49	3.23
709.517	-9.77
709.545	-4.77
709.572	5.23
709.6	7.23
709.627	9.23
709.655	-3.77
709.682	-15.77
709.709	7.23
709.737	0.23
709.764	-3.77
709.792	15.23
709.819	0.23
709.846	-10.77
709.874	8.23
709.901	9.23
709.929	27.23
709.956	4.23
709.983	-17.77
710.011	2.23
710.038	-13.77
710.066	-0.77
710.093	15.23
710.12	1.23
710.148	0.23
710.175	-6.77
710.202	3.23
710.23	15.23
710.257	5.23
710.284	3.23
710.312	5.23
710.339	14.23
710.366	-0.77
710.394	-2.77
710.421	-7.77
710.448	0.23
710.476	-19.77
710.503	2.23
710.53	4.23
710.558	8.23
710.585	15.23
710.612	-0.77
710.64	4.23
710.667	4.23
710.694	-15.77
710.722	-5.77
710.749	-0.77
710.776	-6.77
710.804	14.23
710.831	-0.77
710.858	-0.77
710.885	-6.77
710.913	-4.77
710.94	19.23
710.967	-2.77
710.995	-6.77
711.022	12.23
711.049	6.23
711.076	-3.77
711.104	-4.77
711.131	2.23
711.158	-13.77
711.185	4.23
711.213	-11.77
711.24	-16.77
711.267	-9.77
711.294	-4.77
711.322	0.23
711.349	-7.77
711.376	-17.77
711.403	8.23
711.431	-7.77
711.458	-9.77
711.485	-8.77
711.512	-3.77
711.54	-13.77
711.567	-12.77
711.594	0.23
711.621	-33.77
711.648	6.23
711.676	5.23
711.703	-2.77
711.73	-27.77
711.757	7.23
711.784	11.23
711.812	19.23
711.839	3.23
711.866	8.23
711.893	-4.77
711.92	13.23
711.947	-4.77
711.975	1.23
712.002	-13.77
712.029	7.23
712.056	7.23
712.083	2.23
712.11	-20.77
712.138	-4.77
712.165	8.23
712.192	4.23
712.219	-3.77
712.246	-15.77
712.273	-1.77
712.3	-18.77
712.328	-0.77
712.355	6.23
712.382	-9.77
712.409	3.23
712.436	-5.77
712.463	-1.77
712.49	16.23
712.517	-29.77
712.544	-14.77
712.572	5.23
712.599	5.23
712.626	12.23
712.653	-9.77
712.68	-8.77
712.707	11.23
712.734	-0.77
712.761	0.23
712.788	6.23
712.815	-0.77
712.842	16.23
712.87	-1.77
712.897	-0.77
712.924	-6.77
712.951	6.23
712.978	6.23
713.005	17.23
713.032	9.23
713.059	2.23
713.086	4.23
713.113	2.23
713.14	-15.77
713.167	6.23
713.194	12.23
713.221	-6.77
713.248	5.23
713.275	-2.77
713.302	-16.77
713.329	-5.77
713.356	-0.77
713.383	-4.77
713.41	0.23
713.437	-12.77
713.464	2.23
713.491	14.23
713.518	8.23
713.545	-10.77
713.572	1.23
713.599	16.23
713.626	-3.77
713.653	6.23
713.68	-12.77
713.707	-15.77
713.734	3.23
713.761	-2.77
713.788	15.23
713.815	24.23
713.842	-5.77
713.869	-9.77
713.896	-5.77
713.923	-10.77
713.95	-0.77
713.977	8.23
714.004	0.23
714.031	2.23
714.058	3.23
714.085	4.23
714.112	4.23
714.139	0.23
714.165	-4.77
714.192	-1.77
714.219	-2.77
714.246	-2.77
714.273	-7.77
714.3	1.23
714.327	0.23
714.354	-4.77
714.381	-7.77
714.408	0.23
714.435	3.23
714.461	3.23
714.488	4.23
714.515	-14.77
714.542	-14.77
714.569	-6.77
714.596	-14.77
714.623	-15.77
714.65	-16.77
714.677	-2.77
714.703	6.23
714.73	16.23
714.757	-7.77
714.784	7.23
714.811	-0.77
714.838	2.23
714.865	-4.77
714.891	-3.77
714.918	3.23
714.945	-7.77
714.972	-7.77
714.999	8.23
715.026	-0.77
715.052	18.23
715.079	-1.77
715.106	-0.77
715.133	6.23
715.16	-8.77
715.187	3.23
715.213	10.23
715.24	-1.77
715.267	2.23
715.294	-7.77
715.321	-9.77
715.347	-3.77
715.374	-6.77
715.401	-0.77
715.428	0.23
715.455	-5.77
715.481	-18.77
715.508	-0.77
715.535	1.23
715.562	26.23
715.588	13.23
715.615	-2.77
715.642	-9.77
715.669	-4.77
715.695	-10.77
715.722	-4.77
715.749	6.23
715.776	2.23
715.802	-23.77
715.829	-2.77
715.856	-16.77
715.883	0.23
715.909	-16.77
715.936	-1.77
715.963	-7.77
715.99	-17.77
716.016	-0.77
716.043	-8.77
716.07	-11.77
716.096	-5.77
716.123	-3.77
716.15	-1.77
716.177	-5.77
716.203	-0.77
716.23	-4.77
716.257	3.23
716.283	22.23
716.31	-9.77
716.337	-13.77
716.363	-16.77
716.39	9.23
716.417	6.23
716.443	5.23
716.47	19.23
716.497	21.23
716.523	0.23
716.55	15.23
716.577	21.23
716.603	22.23
716.63	23.23
716.657	10.23
716.683	-2.77
716.71	-5.77
716.737	-1.77
716.763	7.23
716.79	24.23
716.817	13.23
716.843	-0.77
716.87	-5.77
716.897	-0.77
716.923	13.23
716.95	-13.77
716.976	-0.77
717.003	0.23
717.03	9.23
717.056	6.23
717.083	8.23
717.109	-4.77
717.136	6.23
717.163	-5.77
717.189	4.23
717.216	-2.77
717.242	-0.77
717.269	2.23
717.296	5.23
717.322	2.23
717.349	8.23
717.375	11.23
717.402	-9.77
717.428	3.23
717.455	11.23
717.481	-3.77
717.508	13.23
717.535	5.23
717.561	-8.77
717.588	-10.77
717.614	1.23
717.641	1.23
717.667	3.23
717.694	8.23
717.72	-5.77
717.747	4.23
717.773	-6.77
717.8	11.23
717.826	-1.77
717.853	-1.77
717.88	4.23
717.906	4.23
717.933	6.23
717.959	0.23
717.986	15.23
718.012	-0.77
718.039	19.23
718.065	10.23
718.092	-1.77
718.118	-8.77
718.144	-6.77
718.171	3.23
718.197	6.23
718.224	4.23
718.25	0.23
718.277	6.23
718.303	2.23
718.33	-1.77
718.356	-5.77
718.383	-10.77
718.409	6.23
718.436	-5.77
718.462	-0.77
718.489	-23.77
718.515	11.23
718.541	25.23
718.568	12.23
718.594	1.23
718.621	6.23
718.647	-4.77
718.674	8.23
718.7	27.23
718.726	1.23
718.753	4.23
718.779	21.23
718.806	6.23
718.832	-3.77
718.858	-1.77
718.885	-8.77
718.911	2.23
718.938	4.23
718.964	-16.77
718.99	-13.77
719.017	3.23
719.043	-2.77
719.07	-3.77
719.096	-11.77
719.122	12.23
719.149	2.23
719.175	7.23
719.201	10.23
719.228	6.23
719.254	-5.77
719.281	-9.77
719.307	-4.77
719.333	-1.77
719.36	10.23
719.386	8.23
719.412	5.23
719.439	-8.77
719.465	7.23
719.491	2.23
719.518	12.23
719.544	2.23
719.57	13.23
719.597	12.23
719.623	-5.77
719.649	9.23
719.675	-0.77
719.702	-6.77
719.728	21.23
719.754	-15.77
719.781	-8.77
719.807	-2.77
719.833	19.23
719.86	6.23
719.886	3.23
719.912	10.23
719.938	0.23
719.965	4.23
719.991	18.23
720.017	-3.77
720.044	-5.77
720.07	-4.77
720.096	-7.77
720.122	-7.77
720.149	1.23
720.175	23.23
720.201	18.23
720.227	11.23
720.254	13.23
720.28	0.23
720.306	10.23
720.332	-8.77
720.359	-10.77
720.385	-15.77
720.411	-3.77
720.437	16.23
720.463	7.23
720.49	9.23
720.516	3.23
720.542	-0.77
720.568	-7.77
720.595	15.23
720.621	-0.77
720.647	10.23
720.673	16.23
720.699	-0.77
720.725	13.23
720.752	11.23
720.778	9.23
720.804	19.23
720.83	12.23
720.856	-7.77
720.883	-11.77
720.909	-13.77
720.935	1.23
720.961	-0.77
720.987	-1.77
721.013	2.23
721.04	-4.77
721.066	-5.77
721.092	2.23
721.118	12.23
721.144	3.23
721.17	-2.77
721.196	-3.77
721.223	-9.77
721.249	4.23
721.275	8.23
721.301	1.23
721.327	9.23
721.353	9.23
721.379	0.23
721.405	2.23
721.432	15.23
721.458	-0.77
721.484	2.23
721.51	-15.77
721.536	-20.77
721.562	0.23
721.588	-4.77
721.614	-12.77
721.64	-19.77
721.666	-1.77
721.693	-3.77
721.719	-0.77
721.745	-1.77
721.771	2.23
721.797	3.23
721.823	6.23
721.849	18.23
721.875	7.23
721.901	10.23
721.927	-15.77
721.953	-4.77
721.979	11.23
722.005	8.23
722.031	-0.77
722.057	2.23
722.083	-4.77
722.109	0.23
722.135	0.23
722.161	7.23
722.187	3.23
722.214	-12.77
722.24	-9.77
722.266	3.23
722.292	3.23
722.318	18.23
722.344	6.23
722.37	4.23
722.396	0.23
722.422	-8.77
722.448	-1.77
722.474	-13.77
722.5	-1.77
722.526	6.23
722.552	-4.77
722.578	-17.77
722.603	6.23
722.629	-6.77
722.655	0.23
722.681	-5.77
722.707	-11.77
722.733	-24.77
722.759	-10.77
722.785	-10.77
722.811	-0.77
722.837	4.23
722.863	4.23
722.889	-1.77
722.915	1.23
722.941	-9.77
722.967	3.23
722.993	11.23
723.019	6.23
723.045	17.23
723.071	7.23
723.097	18.23
723.122	-3.77
723.148	-6.77
723.174	-10.77
723.2	-6.77
723.226	-7.77
723.252	14.23
723.278	5.23
723.304	-7.77
723.33	3.23
723.356	-10.77
723.381	-16.77
723.407	-12.77
723.433	12.23
723.459	6.23
723.485	-10.77
723.511	-5.77
723.537	-13.77
723.563	0.23
723.588	3.23
723.614	19.23
723.64	5.23
723.666	6.23
723.692	-9.77
723.718	13.23
723.744	0.23
723.769	-1.77
723.795	-6.77
723.821	-2.77
723.847	-3.77
723.873	-5.77
723.899	7.23
723.924	-17.77
723.95	-4.77
723.976	-12.77
724.002	4.23
724.028	14.23
724.053	4.23
724.079	-5.77
724.105	7.23
724.131	-8.77
724.157	-16.77
724.182	-4.77
724.208	-7.77
724.234	-0.77
724.26	4.23
724.286	30.23
724.311	18.23
724.337	-6.77
724.363	-3.77
724.389	18.23
724.415	2.23
724.44	25.23
724.466	-1.77
724.492	-15.77
724.518	-7.77
724.543	-4.77
724.569	12.23
724.595	-0.77
724.621	-17.77
724.646	-9.77
724.672	-4.77
724.698	-0.77
724.723	0.23
724.749	6.23
724.775	16.23
724.801	1.23
724.826	-4.77
724.852	-4.77
724.878	-6.77
724.904	-24.77
724.929	2.23
724.955	-10.77
724.981	-0.77
725.006	-20.77
725.032	5.23
725.058	18.23
725.083	-9.77
725.109	-10.77
725.135	11.23
725.161	-0.77
725.186	-13.77
725.212	-6.77
725.238	-1.77
725.263	-4.77
725.289	-19.77
725.315	-14.77
725.34	-8.77
725.366	12.23
725.392	7.23
725.417	-12.77
725.443	5.23
725.468	-4.77
725.494	10.23
725.52	17.23
725.545	7.23
725.571	0.23
725.597	5.23
725.622	8.23
725.648	15.23
725.674	4.23
725.699	-1.77
725.725	5.23
725.75	28.23
725.776	-2.77
725.802	-12.77
725.827	-1.77
725.853	2.23
725.878	7.23
725.904	-2.77
725.93	8.23
725.955	-14.77
725.981	-0.77
726.006	4.23
726.032	12.23
726.057	-0.77
726.083	-1.77
726.109	-0.77
726.134	-8.77
726.16	2.23
726.185	7.23
726.211	-16.77
726.236	9.23
726.262	6.23
726.288	12.23
726.313	12.23
726.339	-2.77
726.364	-0.77
726.39	0.23
726.415	2.23
726.441	-10.77
726.466	-1.77
726.492	-1.77
726.517	8.23
726.543	-8.77
726.568	-4.77
726.594	9.23
726.619	11.23
726.645	4.23
726.67	2.23
726.696	8.23
726.721	-9.77
726.747	-11.77
726.772	-1.77
726.798	3.23
726.823	8.23
726.849	7.23
726.874	15.23
726.9	22.23
726.925	-1.77
726.951	2.23
726.976	4.23
727.002	8.23
727.027	1.23
727.053	15.23
727.078	6.23
727.104	22.23
727.129	1.23
727.155	-6.77
727.18	16.23
727.205	0.23
727.231	-16.77
727.256	-0.77
727.282	0.23
727.307	0.23
727.333	6.23
727.358	-9.77
727.383	-18.77
727.409	-8.77
727.434	25.23
727.46	0.23
727.485	1.23
727.511	7.23
727.536	-16.77
727.561	-11.77
727.587	-3.77
727.612	2.23
727.637	-0.77
727.663	-0.77
727.688	24.23
727.714	7.23
727.739	-0.77
727.764	-12.77
727.79	6.23
727.815	5.23
727.841	12.23
727.866	0.23
727.891	-13.77
727.917	-22.77
727.942	-0.77
727.967	-7.77
727.993	-16.77
728.018	-6.77
728.043	-11.77
728.069	2.23
728.094	5.23
728.119	-17.77
728.145	7.23
728.17	-0.77
728.195	-4.77
728.221	9.23
728.246	-7.77
728.271	-11.77
728.297	1.23
728.322	10.23
728.347	9.23
728.373	8.23
728.398	31.23
728.423	1.23
728.448	-4.77
728.474	-4.77
728.499	-0.77
728.524	-1.77
728.55	-10.77
728.575	1.23
728.6	6.23
728.625	-2.77
728.651	6.23
728.676	-9.77
728.701	-3.77
728.727	0.23
728.752	-2.77
728.777	-6.77
728.802	4.23
728.828	-1.77
728.853	3.23
728.878	-0.77
728.903	-4.77
728.929	-7.77
728.954	-14.77
728.979	-1.77
729.004	-7.77
729.03	-14.77
729.055	-6.77
729.08	-17.77
729.105	-5.77
729.13	12.23
729.156	4.23
729.181	-14.77
729.206	-17.77
729.231	-7.77
729.256	0.23
729.282	0.23
729.307	-9.77
729.332	-20.77
729.357	5.23
729.382	-0.77
729.408	-4.77
729.433	10.23
729.458	14.23
729.483	21.23
729.508	12.23
729.533	1.23
729.559	-1.77
729.584	-3.77
729.609	-0.77
729.634	-3.77
729.659	-7.77
729.684	-17.77
729.71	10.23
729.735	-1.77
729.76	-3.77
729.785	2.23
729.81	10.23
729.835	-4.77
729.86	-15.77
729.886	1.23
729.911	3.23
729.936	-10.77
729.961	1.23
729.986	-14.77
730.011	4.23
730.036	-3.77
730.061	-9.77
730.086	2.23
730.112	-5.77
730.137	11.23
730.162	-1.77
730.187	-2.77
730.212	16.23
730.237	-11.77
730.262	0.23
730.287	0.23
730.312	3.23
730.337	-0.77
730.362	23.23
730.387	3.23
730.413	-19.77
730.438	-17.77
730.463	-6.77
730.488	-22.77
730.513	-5.77
730.538	-3.77
730.563	20.23
730.588	10.23
730.613	9.23
730.638	2.23
730.663	-4.77
730.688	13.23
730.713	14.23
730.738	11.23
730.763	-0.77
730.788	-6.77
730.813	-5.77
730.838	-5.77
730.863	6.23
730.888	-5.77
730.913	-19.77
730.938	-14.77
730.963	2.23
730.988	3.23
731.013	27.23
731.038	0.23
731.063	-11.77
731.088	-3.77
731.113	-1.77
731.138	1.23
731.163	-5.77
731.188	-14.77
731.213	-2.77
731.238	16.23
731.263	2.23
731.288	-0.77
731.313	5.23
731.338	-15.77
731.363	-1.77
731.388	-3.77
731.413	-5.77
731.438	9.23
731.463	6.23
731.487	15.23
731.512	-1.77
731.537	-6.77
731.562	-7.77
731.587	-7.77
731.612	-4.77
731.637	11.23
731.662	-4.77
731.687	-1.77
731.712	-14.77
731.737	-4.77
731.762	-0.77
731.786	-5.77
731.811	16.23
731.836	16.23
731.861	2.23
731.886	-16.77
731.911	1.23
731.936	7.23
731.961	-10.77
731.986	-11.77
732.01	-6.77
732.035	-12.77
732.06	12.23
732.085	-13.77
732.11	3.23
732.135	-8.77
732.16	-3.77
732.184	-3.77
732.209	-6.77
732.234	1.23
732.259	-9.77
732.284	-4.77
732.309	-8.77
732.334	-7.77
732.358	-19.77
732.383	-8.77
732.408	-16.77
732.433	4.23
732.458	-4.77
732.482	4.23
732.507	5.23
732.532	7.23
732.557	3.23
732.582	6.23
732.607	-3.77
732.631	-31.77
732.656	-14.77
732.681	-2.77
732.706	-0.77
732.73	-10.77
732.755	-16.77
732.78	-6.77
732.805	-5.77
732.83	-8.77
732.854	6.23
732.879	13.23
732.904	-1.77
732.929	-1.77
732.953	0.23
732.978	-5.77
733.003	-5.77
733.028	-8.77
733.052	7.23
733.077	-5.77
733.102	-1.77
733.127	-16.77
733.151	-11.77
733.176	-4.77
733.201	-2.77
733.226	-6.77
733.25	-7.77
733.275	-13.77
733.3	-5.77
733.324	11.23
733.349	6.23
733.374	31.23
733.399	15.23
733.423	-10.77
733.448	-5.77
733.473	-4.77
733.497	-14.77
733.522	-13.77
733.547	12.23
733.571	22.23
733.596	-4.77
733.621	12.23
733.646	-5.77
733.67	-4.77
733.695	-1.77
733.72	16.23
733.744	0.23
733.769	8.23
733.794	4.23
733.818	9.23
733.843	-4.77
733.867	-6.77
733.892	-6.77
733.917	11.23
733.941	5.23
733.966	-15.77
733.991	2.23
734.015	6.23
734.04	-5.77
734.065	4.23
734.089	16.23
734.114	2.23
734.138	-0.77
734.163	-16.77
734.188	-1.77
734.212	10.23
734.237	15.23
734.261	9.23
734.286	-13.77
734.311	-1.77
734.335	-5.77
734.36	-1.77
734.384	5.23
734.409	4.23
734.434	-11.77
734.458	4.23
734.483	7.23
734.507	0.23
734.532	-4.77
734.556	6.23
734.581	-4.77
734.606	2.23
734.63	-12.77
734.655	-1.77
734.679	-4.77
734.704	11.23
734.728	-11.77
734.753	-14.77
734.777	6.23
734.802	-10.77
734.826	5.23
734.851	6.23
734.876	19.23
734.9	17.23
734.925	14.23
734.949	10.23
734.974	7.23
734.998	-9.77
735.023	-15.77
735.047	-20.77
735.072	-6.77
735.096	9.23
735.121	3.23
735.145	-14.77
735.17	7.23
735.194	-0.77
735.219	6.23
735.243	3.23
735.268	-6.77
735.292	8.23
735.317	3.23
735.341	-1.77
735.365	-24.77
735.39	0.23
735.414	-7.77
735.439	3.23
735.463	7.23
735.488	3.23
735.512	1.23
735.537	14.23
735.561	7.23
735.586	1.23
735.61	-7.77
735.634	3.23
735.659	7.23
735.683	1.23
735.708	0.23
735.732	-4.77
735.757	-17.77
735.781	5.23
735.805	12.23
735.83	-12.77
735.854	-5.77
735.879	-13.77
735.903	14.23
735.927	-11.77
735.952	2.23
735.976	3.23
736.001	-7.77
736.025	3.23
736.049	6.23
736.074	-6.77
736.098	6.23
736.123	6.23
736.147	-11.77
736.171	17.23
736.196	12.23
736.22	-9.77
736.244	12.23
736.269	11.23
736.293	3.23
736.317	8.23
736.342	7.23
736.366	26.23
736.39	7.23
736.415	-10.77
736.439	2.23
736.463	3.23
736.488	6.23
736.512	7.23
736.536	9.23
736.561	21.23
736.585	-3.77
736.609	13.23
736.634	-7.77
736.658	-7.77
736.682	-17.77
736.707	-7.77
736.731	4.23
736.755	3.23
736.78	13.23
736.804	16.23
736.828	3.23
736.852	-3.77
736.877	3.23
736.901	17.23
736.925	-14.77
736.949	7.23
736.974	-9.77
736.998	-14.77
737.022	18.23
737.047	11.23
737.071	6.23
737.095	6.23
737.119	3.23
737.144	-2.77
737.168	10.23
737.192	-15.77
737.216	15.23
737.241	4.23
737.265	5.23
737.289	3.23
737.313	7.23
737.337	0.23
737.362	7.23
737.386	6.23
737.41	3.23
737.434	-0.77
737.459	-0.77
737.483	9.23
737.507	1.23
737.531	-0.77
737.555	3.23
737.58	-5.77
737.604	3.23
737.628	-1.77
737.652	-17.77
737.676	-9.77
737.701	-0.77
737.725	8.23
737.749	2.23
737.773	-5.77
737.797	-0.77
737.821	1.23
737.846	-5.77
737.87	4.23
737.894	-3.77
737.918	4.23
737.942	-10.77
737.966	3.23
737.99	4.23
738.015	2.23
738.039	-2.77
738.063	6.23
738.087	19.23
738.111	1.23
738.135	10.23
738.159	2.23
738.184	12.23
738.208	-6.77
738.232	0.23
738.256	26.23
738.28	20.23
738.304	15.23
738.328	7.23
738.352	9.23
738.376	19.23
738.4	-6.77
738.425	1.23
738.449	-12.77
738.473	0.23
738.497	10.23
738.521	19.23
738.545	19.23
738.569	8.23
738.593	19.23
738.617	3.23
738.641	-11.77
738.665	9.23
738.689	17.23
738.713	-5.77
738.737	-0.77
738.762	26.23
738.786	19.23
738.81	-6.77
738.834	10.23
738.858	2.23
738.882	6.23
738.906	-8.77
738.93	3.23
738.954	-0.77
738.978	4.23
739.002	-0.77
739.026	10.23
739.05	-4.77
739.074	0.23
739.098	14.23
739.122	6.23
739.146	0.23
739.17	18.23
739.194	12.23
739.218	-10.77
739.242	-8.77
739.266	-0.77
739.29	11.23
739.314	-3.77
739.338	-3.77
739.362	-9.77
739.386	-6.77
739.41	0.23
739.434	4.23
739.458	12.23
739.482	-3.77
739.506	7.23
739.53	-1.77
739.554	22.23
739.577	-8.77
739.601	16.23
739.625	4.23
739.649	3.23
739.673	-3.77
739.697	-7.77
739.721	-13.77
739.745	-5.77
739.769	4.23
739.793	3.23
739.817	4.23
739.841	-12.77
739.865	1.23
739.889	-13.77
739.912	11.23
739.936	0.23
739.96	-6.77
739.984	11.23
740.008	17.23
740.032	1.23
740.056	-3.77
740.08	-5.77
740.104	-6.77
740.127	3.23
740.151	11.23
740.175	24.23
740.199	16.23
740.223	39.23
740.247	20.23
740.271	-11.77
740.295	9.23
740.318	-20.77
740.342	-9.77
740.366	-5.77
740.39	-5.77
740.414	-3.77
740.438	-17.77
740.461	9.23
740.485	-1.77
740.509	-1.77
740.533	1.23
740.557	-7.77
740.581	-7.77
740.604	-21.77
740.628	-0.77
740.652	8.23
740.676	0.23
740.7	2.23
740.723	-16.77
740.747	-14.77
740.771	-0.77
740.795	-16.77
740.819	4.23
740.842	2.23
740.866	3.23
740.89	-0.77
740.914	-5.77
740.938	4.23
740.961	13.23
740.985	4.23
741.009	-13.77
741.033	3.23
741.056	-5.77
741.08	-5.77
741.104	-5.77
741.128	6.23
741.151	12.23
741.175	4.23
741.199	5.23
741.223	2.23
741.246	-2.77
741.27	-5.77
741.294	-4.77
741.318	0.23
741.341	4.23
741.365	22.23
741.389	4.23
741.413	10.23
741.436	10.23
741.46	2.23
741.484	0.23
741.507	-8.77
741.531	19.23
741.555	11.23
741.579	1.23
741.602	8.23
741.626	1.23
741.65	-8.77
741.673	19.23
741.697	16.23
741.721	12.23
741.744	-14.77
741.768	-7.77
741.792	8.23
741.815	3.23
741.839	15.23
741.863	8.23
741.886	-0.77
741.91	4.23
741.934	-5.77
741.957	0.23
741.981	11.23
742.005	-0.77
742.028	-6.77
742.052	-0.77
742.075	-14.77
742.099	19.23
742.123	-10.77
742.146	2.23
742.17	-3.77
742.194	-21.77
742.217	-10.77
742.241	8.23
742.264	-15.77
742.288	17.23
742.312	6.23
742.335	0.23
742.359	12.23
742.382	-1.77
742.406	6.23
742.43	-8.77
742.453	3.23
742.477	-5.77
742.5	-0.77
742.524	-2.77
742.548	-5.77
742.571	1.23
742.595	2.23
742.618	-9.77
742.642	-2.77
742.665	12.23
742.689	7.23
742.712	13.23
742.736	-6.77
742.76	13.23
742.783	2.23
742.807	-0.77
742.83	10.23
742.854	14.23
742.877	24.23
742.901	3.23
742.924	-5.77
742.948	2.23
742.971	6.23
742.995	-1.77
743.018	-11.77
743.042	-15.77
743.065	-11.77
743.089	-4.77
743.112	1.23
743.136	-5.77
743.159	-11.77
743.183	-8.77
743.206	-3.77
743.23	-3.77
743.253	16.23
743.277	1.23
743.3	-12.77
743.324	-9.77
743.347	-12.77
743.371	15.23
743.394	4.23
743.418	13.23
743.441	8.23
743.465	-8.77
743.488	7.23
743.512	-3.77
743.535	-3.77
743.558	-6.77
743.582	-7.77
743.605	8.23
743.629	7.23
743.652	12.23
743.676	10.23
743.699	2.23
743.723	2.23
743.746	9.23
743.769	-1.77
743.793	-2.77
743.816	-6.77
743.84	9.23
743.863	4.23
743.886	7.23
743.91	2.23
743.933	5.23
743.957	10.23
743.98	3.23
744.003	7.23
744.027	0.23
744.05	-0.77
744.074	-1.77
744.097	-6.77
744.12	4.23
744.144	-12.77
744.167	2.23
744.19	-7.77
744.214	-1.77
744.237	-2.77
744.26	18.23
744.284	-9.77
744.307	-22.77
744.331	2.23
744.354	3.23
744.377	-3.77
744.401	14.23
744.424	-1.77
744.447	-8.77
744.471	-3.77
