Data from HighRes_H2_15_09_11_07_2024_HR4C61891__88__15-11-05-202.txt Node

Date: Thu Nov 07 15:11:05 EST 2024
User: crc00042
Spectrometer: HR4C6189
Trigger mode: 4
Integration Time (sec): 1.000000E-1
Scans to average: 1
Electric dark correction enabled: true
Nonlinearity correction enabled: false
Boxcar width: 0
XAxis mode: Wavelengths
Number of Pixels in Spectrum: 3648
>>>>>Begin Spectral Data<<<<<
639.567	-40.77
639.602	-40.77
639.636	-40.77
639.67	-47.77
639.704	-13.77
639.738	-12.77
639.773	15.23
639.807	-10.77
639.841	15.23
639.875	2.23
639.909	-5.77
639.943	-8.77
639.978	-6.77
640.012	11.23
640.046	1.23
640.08	4.23
640.114	0.23
640.148	-4.77
640.182	-19.77
640.217	-8.77
640.251	11.23
640.285	23.23
640.319	5.23
640.353	1.23
640.387	10.23
640.421	-1.77
640.455	12.23
640.49	5.23
640.524	10.23
640.558	3.23
640.592	2.23
640.626	9.23
640.66	2.23
640.694	3.23
640.728	14.23
640.762	5.23
640.796	21.23
640.83	22.23
640.865	-7.77
640.899	12.23
640.933	7.23
640.967	7.23
641.001	-1.77
641.035	10.23
641.069	2.23
641.103	-10.77
641.137	-2.77
641.171	-5.77
641.205	-9.77
641.239	-7.77
641.273	23.23
641.307	15.23
641.341	9.23
641.375	-2.77
641.409	3.23
641.443	2.23
641.477	-4.77
641.511	4.23
641.545	8.23
641.579	-6.77
641.614	5.23
641.648	8.23
641.682	-10.77
641.716	19.23
641.75	4.23
641.784	0.23
641.818	12.23
641.852	12.23
641.886	-1.77
641.919	14.23
641.953	7.23
641.987	-18.77
642.021	-4.77
642.055	17.23
642.089	5.23
642.123	-4.77
642.157	11.23
642.191	14.23
642.225	11.23
642.259	-1.77
642.293	12.23
642.327	-5.77
642.361	-13.77
642.395	12.23
642.429	1.23
642.463	8.23
642.497	19.23
642.531	2.23
642.565	-4.77
642.599	25.23
642.633	6.23
642.666	12.23
642.7	27.23
642.734	3.23
642.768	-12.77
642.802	11.23
642.836	8.23
642.87	-10.77
642.904	-5.77
642.938	21.23
642.972	-4.77
643.005	3.23
643.039	14.23
643.073	19.23
643.107	9.23
643.141	14.23
643.175	10.23
643.209	-1.77
643.243	13.23
643.276	7.23
643.31	-1.77
643.344	-3.77
643.378	2.23
643.412	21.23
643.446	13.23
643.48	-7.77
643.513	22.23
643.547	-3.77
643.581	1.23
643.615	8.23
643.649	1.23
643.683	13.23
643.716	-10.77
643.75	-4.77
643.784	-15.77
643.818	7.23
643.852	-1.77
643.886	5.23
643.919	2.23
643.953	3.23
643.987	4.23
644.021	10.23
644.055	8.23
644.088	-6.77
644.122	-5.77
644.156	-7.77
644.19	20.23
644.224	9.23
644.257	-1.77
644.291	9.23
644.325	5.23
644.359	9.23
644.392	21.23
644.426	5.23
644.46	7.23
644.494	6.23
644.527	-24.77
644.561	10.23
644.595	5.23
644.629	-2.77
644.662	-5.77
644.696	14.23
644.73	7.23
644.764	13.23
644.797	3.23
644.831	-3.77
644.865	-1.77
644.899	-20.77
644.932	30.23
644.966	4.23
645	11.23
645.033	23.23
645.067	2.23
645.101	-12.77
645.135	6.23
645.168	4.23
645.202	-10.77
645.236	-3.77
645.269	8.23
645.303	-3.77
645.337	-7.77
645.37	6.23
645.404	4.23
645.438	12.23
645.471	-0.77
645.505	-4.77
645.539	4.23
645.572	-18.77
645.606	-14.77
645.64	-2.77
645.673	4.23
645.707	24.23
645.741	16.23
645.774	-3.77
645.808	-2.77
645.842	8.23
645.875	19.23
645.909	-0.77
645.943	1.23
645.976	11.23
646.01	21.23
646.043	11.23
646.077	1.23
646.111	15.23
646.144	8.23
646.178	2.23
646.212	-9.77
646.245	11.23
646.279	11.23
646.312	12.23
646.346	18.23
646.38	9.23
646.413	17.23
646.447	6.23
646.48	5.23
646.514	1.23
646.547	-13.77
646.581	1.23
646.615	-8.77
646.648	-12.77
646.682	14.23
646.715	8.23
646.749	4.23
646.782	-22.77
646.816	-11.77
646.85	17.23
646.883	-12.77
646.917	13.23
646.95	0.23
646.984	8.23
647.017	6.23
647.051	8.23
647.084	2.23
647.118	-11.77
647.151	-3.77
647.185	17.23
647.218	-6.77
647.252	13.23
647.285	-10.77
647.319	-0.77
647.353	-8.77
647.386	12.23
647.42	-23.77
647.453	-1.77
647.487	6.23
647.52	4.23
647.553	21.23
647.587	9.23
647.62	4.23
647.654	9.23
647.687	12.23
647.721	1.23
647.754	9.23
647.788	-4.77
647.821	0.23
647.855	7.23
647.888	20.23
647.922	19.23
647.955	10.23
647.989	16.23
648.022	-2.77
648.055	3.23
648.089	-1.77
648.122	24.23
648.156	17.23
648.189	22.23
648.223	-1.77
648.256	-3.77
648.29	5.23
648.323	0.23
648.356	1.23
648.39	-3.77
648.423	-6.77
648.457	-8.77
648.49	0.23
648.523	7.23
648.557	0.23
648.59	3.23
648.624	-8.77
648.657	9.23
648.69	17.23
648.724	1.23
648.757	14.23
648.791	5.23
648.824	23.23
648.857	13.23
648.891	6.23
648.924	16.23
648.957	15.23
648.991	-23.77
649.024	13.23
649.057	8.23
649.091	7.23
649.124	21.23
649.158	4.23
649.191	23.23
649.224	-13.77
649.258	7.23
649.291	1.23
649.324	1.23
649.358	-1.77
649.391	12.23
649.424	18.23
649.458	-3.77
649.491	-1.77
649.524	-5.77
649.557	0.23
649.591	1.23
649.624	4.23
649.657	-20.77
649.691	7.23
649.724	4.23
649.757	-5.77
649.791	-12.77
649.824	2.23
649.857	18.23
649.89	4.23
649.924	-6.77
649.957	1.23
649.99	-2.77
650.023	-2.77
650.057	-9.77
650.09	-0.77
650.123	4.23
650.157	9.23
650.19	22.23
650.223	4.23
650.256	8.23
650.29	6.23
650.323	3.23
650.356	6.23
650.389	3.23
650.423	1.23
650.456	11.23
650.489	4.23
650.522	5.23
650.555	16.23
650.589	-10.77
650.622	18.23
650.655	21.23
650.688	-2.77
650.721	11.23
650.755	5.23
650.788	8.23
650.821	10.23
650.854	7.23
650.887	13.23
650.921	2.23
650.954	-2.77
650.987	10.23
651.02	-3.77
651.053	-7.77
651.087	-23.77
651.12	27.23
651.153	11.23
651.186	7.23
651.219	-5.77
651.252	12.23
651.286	6.23
651.319	5.23
651.352	14.23
651.385	10.23
651.418	7.23
651.451	18.23
651.484	7.23
651.518	-11.77
651.551	10.23
651.584	3.23
651.617	13.23
651.65	13.23
651.683	20.23
651.716	9.23
651.749	-18.77
651.783	-4.77
651.816	-4.77
651.849	15.23
651.882	-13.77
651.915	-11.77
651.948	21.23
651.981	8.23
652.014	-16.77
652.047	-18.77
652.08	-10.77
652.114	10.23
652.147	1.23
652.18	15.23
652.213	19.23
652.246	-11.77
652.279	-2.77
652.312	19.23
652.345	11.23
652.378	15.23
652.411	21.23
652.444	10.23
652.477	-8.77
652.51	2.23
652.543	2.23
652.576	10.23
652.609	-13.77
652.642	0.23
652.675	-4.77
652.709	6.23
652.742	10.23
652.775	15.23
652.808	23.23
652.841	-8.77
652.874	5.23
652.907	10.23
652.94	-9.77
652.973	-25.77
653.006	9.23
653.039	1.23
653.072	2.23
653.105	5.23
653.138	-17.77
653.171	-13.77
653.204	1.23
653.237	23.23
653.27	5.23
653.303	7.23
653.336	23.23
653.368	-2.77
653.401	-1.77
653.434	3.23
653.467	5.23
653.5	2.23
653.533	-0.77
653.566	-3.77
653.599	-3.77
653.632	4.23
653.665	9.23
653.698	5.23
653.731	3.23
653.764	11.23
653.797	-1.77
653.83	7.23
653.863	1.23
653.896	4.23
653.929	13.23
653.961	32.23
653.994	19.23
654.027	-2.77
654.06	10.23
654.093	-3.77
654.126	-1.77
654.159	4.23
654.192	4.23
654.225	4.23
654.258	10.23
654.29	2.23
654.323	10.23
654.356	5.23
654.389	9.23
654.422	-1.77
654.455	7.23
654.488	4.23
654.521	0.23
654.553	2.23
654.586	19.23
654.619	24.23
654.652	14.23
654.685	5.23
654.718	12.23
654.751	-1.77
654.783	-0.77
654.816	9.23
654.849	-5.77
654.882	1.23
654.915	-27.77
654.948	11.23
654.98	9.23
655.013	7.23
655.046	6.23
655.079	-4.77
655.112	2.23
655.144	-4.77
655.177	9.23
655.21	28.23
655.243	27.23
655.276	12.23
655.308	14.23
655.341	-4.77
655.374	15.23
655.407	1.23
655.44	-7.77
655.472	-0.77
655.505	23.23
655.538	7.23
655.571	18.23
655.603	7.23
655.636	7.23
655.669	11.23
655.702	14.23
655.734	24.23
655.767	17.23
655.8	17.23
655.833	21.23
655.865	40.23
655.898	25.23
655.931	40.23
655.964	47.23
655.996	54.23
656.029	65.23
656.062	58.23
656.095	71.23
656.127	59.23
656.16	117.23
656.193	119.23
656.225	166.23
656.258	299.23
656.291	513.23
656.324	1113.23
656.356	3387.23
656.389	7570.23
656.422	6041.23
656.454	2065.23
656.487	667.23
656.52	253.23
656.552	117.23
656.585	71.23
656.618	56.23
656.65	43.23
656.683	27.23
656.716	29.23
656.748	18.23
656.781	13.23
656.814	7.23
656.846	3.23
656.879	4.23
656.912	10.23
656.944	-9.77
656.977	-12.77
657.01	-8.77
657.042	10.23
657.075	17.23
657.108	-12.77
657.14	2.23
657.173	22.23
657.205	25.23
657.238	19.23
657.271	29.23
657.303	6.23
657.336	16.23
657.369	8.23
657.401	1.23
657.434	10.23
657.466	22.23
657.499	11.23
657.532	-10.77
657.564	9.23
657.597	4.23
657.629	6.23
657.662	-4.77
657.694	2.23
657.727	-2.77
657.76	-6.77
657.792	-3.77
657.825	-10.77
657.857	5.23
657.89	8.23
657.922	11.23
657.955	4.23
657.987	-1.77
658.02	7.23
658.053	16.23
658.085	-7.77
658.118	-10.77
658.15	10.23
658.183	19.23
658.215	8.23
658.248	-0.77
658.28	0.23
658.313	28.23
658.345	27.23
658.378	-6.77
658.41	1.23
658.443	12.23
658.475	6.23
658.508	6.23
658.54	-0.77
658.573	-1.77
658.605	6.23
658.638	-0.77
658.67	-11.77
658.703	-2.77
658.735	-9.77
658.768	13.23
658.8	4.23
658.833	25.23
658.865	-7.77
658.898	0.23
658.93	0.23
658.963	6.23
658.995	-22.77
659.028	-6.77
659.06	-6.77
659.092	1.23
659.125	-9.77
659.157	7.23
659.19	-4.77
659.222	-9.77
659.255	27.23
659.287	2.23
659.32	-8.77
659.352	2.23
659.384	18.23
659.417	-9.77
659.449	2.23
659.482	11.23
659.514	9.23
659.546	-0.77
659.579	-11.77
659.611	4.23
659.644	-1.77
659.676	-10.77
659.708	-8.77
659.741	0.23
659.773	3.23
659.806	-13.77
659.838	-0.77
659.87	-11.77
659.903	-12.77
659.935	2.23
659.967	6.23
660	1.23
660.032	-4.77
660.065	13.23
660.097	9.23
660.129	12.23
660.162	0.23
660.194	14.23
660.226	16.23
660.259	6.23
660.291	-8.77
660.323	-6.77
660.356	-1.77
660.388	1.23
660.42	-6.77
660.453	10.23
660.485	9.23
660.517	22.23
660.55	10.23
660.582	4.23
660.614	5.23
660.647	-1.77
660.679	-10.77
660.711	21.23
660.743	-7.77
660.776	-14.77
660.808	7.23
660.84	-9.77
660.873	-8.77
660.905	7.23
660.937	-1.77
660.969	10.23
661.002	9.23
661.034	20.23
661.066	3.23
661.099	13.23
661.131	26.23
661.163	24.23
661.195	-2.77
661.228	3.23
661.26	-1.77
661.292	9.23
661.324	2.23
661.357	9.23
661.389	6.23
661.421	8.23
661.453	-8.77
661.485	6.23
661.518	-3.77
661.55	-10.77
661.582	-17.77
661.614	10.23
661.647	12.23
661.679	4.23
661.711	3.23
661.743	-9.77
661.775	9.23
661.808	25.23
661.84	-1.77
661.872	0.23
661.904	-2.77
661.936	3.23
661.969	4.23
662.001	-10.77
662.033	8.23
662.065	0.23
662.097	8.23
662.129	18.23
662.162	-3.77
662.194	-1.77
662.226	-7.77
662.258	16.23
662.29	-3.77
662.322	-0.77
662.355	-11.77
662.387	9.23
662.419	14.23
662.451	3.23
662.483	4.23
662.515	-4.77
662.547	-10.77
662.58	-8.77
662.612	0.23
662.644	-5.77
662.676	12.23
662.708	32.23
662.74	12.23
662.772	7.23
662.804	6.23
662.836	8.23
662.869	1.23
662.901	-2.77
662.933	-2.77
662.965	8.23
662.997	12.23
663.029	-7.77
663.061	-14.77
663.093	2.23
663.125	11.23
663.157	8.23
663.189	6.23
663.221	6.23
663.254	1.23
663.286	25.23
663.318	-18.77
663.35	-22.77
663.382	-0.77
663.414	20.23
663.446	24.23
663.478	4.23
663.51	24.23
663.542	-5.77
663.574	0.23
663.606	26.23
663.638	0.23
663.67	5.23
663.702	-12.77
663.734	-6.77
663.766	5.23
663.798	15.23
663.83	8.23
663.862	21.23
663.894	5.23
663.926	-2.77
663.958	2.23
663.99	9.23
664.022	11.23
664.054	25.23
664.086	-17.77
664.118	-14.77
664.15	-13.77
664.182	5.23
664.214	-7.77
664.246	21.23
664.278	8.23
664.31	10.23
664.342	12.23
664.374	3.23
664.406	5.23
664.438	6.23
664.47	6.23
664.502	-7.77
664.534	3.23
664.566	0.23
664.598	28.23
664.63	16.23
664.662	16.23
664.693	4.23
664.725	-5.77
664.757	8.23
664.789	-1.77
664.821	1.23
664.853	14.23
664.885	2.23
664.917	-8.77
664.949	10.23
664.981	15.23
665.013	-1.77
665.045	-10.77
665.076	1.23
665.108	-2.77
665.14	-1.77
665.172	20.23
665.204	-0.77
665.236	-5.77
665.268	8.23
665.3	0.23
665.331	3.23
665.363	-6.77
665.395	-8.77
665.427	-15.77
665.459	6.23
665.491	-4.77
665.523	21.23
665.555	4.23
665.586	-3.77
665.618	-7.77
665.65	-2.77
665.682	22.23
665.714	11.23
665.746	-17.77
665.777	-3.77
665.809	-3.77
665.841	-9.77
665.873	0.23
665.905	0.23
665.937	20.23
665.968	-6.77
666	13.23
666.032	7.23
666.064	12.23
666.096	-2.77
666.127	6.23
666.159	13.23
666.191	17.23
666.223	1.23
666.255	4.23
666.286	11.23
666.318	-18.77
666.35	7.23
666.382	5.23
666.413	-9.77
666.445	3.23
666.477	-13.77
666.509	0.23
666.54	2.23
666.572	4.23
666.604	-8.77
666.636	-12.77
666.667	8.23
666.699	28.23
666.731	-1.77
666.763	2.23
666.794	-3.77
666.826	1.23
666.858	-20.77
666.89	10.23
666.921	1.23
666.953	-5.77
666.985	11.23
667.017	19.23
667.048	10.23
667.08	-2.77
667.112	-4.77
667.143	-12.77
667.175	7.23
667.207	-6.77
667.238	11.23
667.27	12.23
667.302	10.23
667.334	-6.77
667.365	34.23
667.397	4.23
667.429	-4.77
667.46	10.23
667.492	6.23
667.524	6.23
667.555	-0.77
667.587	-6.77
667.619	-9.77
667.65	-17.77
667.682	13.23
667.714	14.23
667.745	-7.77
667.777	17.23
667.808	4.23
667.84	-1.77
667.872	-14.77
667.903	27.23
667.935	-13.77
667.967	3.23
667.998	8.23
668.03	4.23
668.061	7.23
668.093	-8.77
668.125	16.23
668.156	6.23
668.188	5.23
668.22	-2.77
668.251	8.23
668.283	11.23
668.314	-2.77
668.346	-13.77
668.377	4.23
668.409	-3.77
668.441	11.23
668.472	5.23
668.504	18.23
668.535	-9.77
668.567	-0.77
668.599	8.23
668.63	0.23
668.662	-2.77
668.693	16.23
668.725	9.23
668.756	14.23
668.788	6.23
668.819	2.23
668.851	1.23
668.882	8.23
668.914	0.23
668.946	-7.77
668.977	-14.77
669.009	0.23
669.04	-7.77
669.072	5.23
669.103	18.23
669.135	11.23
669.166	-3.77
669.198	-2.77
669.229	7.23
669.261	4.23
669.292	3.23
669.324	2.23
669.355	11.23
669.387	-15.77
669.418	-6.77
669.45	-2.77
669.481	11.23
669.513	13.23
669.544	-9.77
669.576	9.23
669.607	15.23
669.639	20.23
669.67	3.23
669.701	-3.77
669.733	1.23
669.764	17.23
669.796	-2.77
669.827	-7.77
669.859	6.23
669.89	20.23
669.922	12.23
669.953	15.23
669.985	12.23
670.016	26.23
670.047	-6.77
670.079	15.23
670.11	18.23
670.142	2.23
670.173	3.23
670.204	-8.77
670.236	2.23
670.267	-3.77
670.299	1.23
670.33	1.23
670.362	2.23
670.393	-21.77
670.424	-5.77
670.456	-21.77
670.487	-6.77
670.518	9.23
670.55	16.23
670.581	-7.77
670.613	-5.77
670.644	3.23
670.675	-10.77
670.707	-3.77
670.738	-1.77
670.769	2.23
670.801	-13.77
670.832	28.23
670.864	-17.77
670.895	8.23
670.926	6.23
670.958	2.23
670.989	7.23
671.02	13.23
671.052	7.23
671.083	1.23
671.114	9.23
671.146	0.23
671.177	-6.77
671.208	-10.77
671.24	-2.77
671.271	1.23
671.302	15.23
671.333	-14.77
671.365	-9.77
671.396	-2.77
671.427	10.23
671.459	-17.77
671.49	1.23
671.521	4.23
671.553	26.23
671.584	10.23
671.615	-10.77
671.646	-5.77
671.678	14.23
671.709	-15.77
671.74	-13.77
671.771	-11.77
671.803	-6.77
671.834	-0.77
671.865	1.23
671.896	13.23
671.928	-1.77
671.959	0.23
671.99	-4.77
672.021	14.23
672.053	6.23
672.084	23.23
672.115	17.23
672.146	2.23
672.178	-15.77
672.209	-16.77
672.24	5.23
672.271	26.23
672.303	-5.77
672.334	7.23
672.365	-10.77
672.396	2.23
672.427	-0.77
672.459	6.23
672.49	20.23
672.521	10.23
672.552	7.23
672.583	5.23
672.615	-6.77
672.646	25.23
672.677	8.23
672.708	6.23
672.739	4.23
672.77	25.23
672.802	0.23
672.833	0.23
672.864	7.23
672.895	-6.77
672.926	-2.77
672.957	-9.77
672.989	0.23
673.02	-0.77
673.051	2.23
673.082	17.23
673.113	2.23
673.144	1.23
673.175	3.23
673.206	-0.77
673.238	-10.77
673.269	-11.77
673.3	-8.77
673.331	0.23
673.362	5.23
673.393	-20.77
673.424	10.23
673.455	35.23
673.487	-6.77
673.518	10.23
673.549	0.23
673.58	3.23
673.611	12.23
673.642	-1.77
673.673	-0.77
673.704	5.23
673.735	-9.77
673.766	-17.77
673.797	-18.77
673.828	-5.77
673.86	-19.77
673.891	-10.77
673.922	-14.77
673.953	-2.77
673.984	9.23
674.015	16.23
674.046	6.23
674.077	2.23
674.108	1.23
674.139	-12.77
674.17	-2.77
674.201	-10.77
674.232	2.23
674.263	-9.77
674.294	-17.77
674.325	-26.77
674.356	4.23
674.387	30.23
674.418	5.23
674.449	-3.77
674.48	-9.77
674.511	-2.77
674.542	6.23
674.573	0.23
674.604	7.23
674.635	7.23
674.666	-1.77
674.697	14.23
674.728	16.23
674.759	-2.77
674.79	-14.77
674.821	8.23
674.852	-5.77
674.883	-7.77
674.914	-16.77
674.945	-9.77
674.976	-4.77
675.007	-0.77
675.038	3.23
675.069	-10.77
675.1	-14.77
675.131	5.23
675.162	-9.77
675.193	2.23
675.224	-5.77
675.254	-4.77
675.285	-7.77
675.316	9.23
675.347	-8.77
675.378	-1.77
675.409	-5.77
675.44	5.23
675.471	1.23
675.502	-5.77
675.533	2.23
675.564	-5.77
675.595	8.23
675.625	23.23
675.656	17.23
675.687	8.23
675.718	-2.77
675.749	13.23
675.78	12.23
675.811	11.23
675.842	9.23
675.873	1.23
675.903	-6.77
675.934	11.23
675.965	3.23
675.996	11.23
676.027	17.23
676.058	-9.77
676.089	-11.77
676.119	-9.77
676.15	-2.77
676.181	2.23
676.212	2.23
676.243	4.23
676.274	0.23
676.304	24.23
676.335	-1.77
676.366	-2.77
676.397	0.23
676.428	-1.77
676.459	4.23
676.489	6.23
676.52	13.23
676.551	2.23
676.582	0.23
676.613	6.23
676.643	2.23
676.674	5.23
676.705	11.23
676.736	3.23
676.767	12.23
676.797	2.23
676.828	12.23
676.859	-2.77
676.89	-3.77
676.92	20.23
676.951	6.23
676.982	15.23
677.013	-15.77
677.044	13.23
677.074	-2.77
677.105	-17.77
677.136	9.23
677.167	17.23
677.197	22.23
677.228	6.23
677.259	-13.77
677.289	-1.77
677.32	-7.77
677.351	2.23
677.382	-3.77
677.412	-1.77
677.443	1.23
677.474	1.23
677.505	6.23
677.535	20.23
677.566	5.23
677.597	-10.77
677.627	-22.77
677.658	6.23
677.689	16.23
677.72	12.23
677.75	0.23
677.781	6.23
677.812	-4.77
677.842	-1.77
677.873	-4.77
677.904	-0.77
677.934	4.23
677.965	4.23
677.996	-1.77
678.026	4.23
678.057	7.23
678.088	-14.77
678.118	-11.77
678.149	-5.77
678.18	-15.77
678.21	15.23
678.241	1.23
678.272	-15.77
678.302	2.23
678.333	12.23
678.363	14.23
678.394	-0.77
678.425	4.23
678.455	10.23
678.486	23.23
678.517	-10.77
678.547	10.23
678.578	5.23
678.608	-12.77
678.639	0.23
678.67	-12.77
678.7	-4.77
678.731	-4.77
678.761	3.23
678.792	7.23
678.823	14.23
678.853	2.23
678.884	-6.77
678.914	23.23
678.945	-4.77
678.975	-7.77
679.006	7.23
679.037	-8.77
679.067	21.23
679.098	-5.77
679.128	-5.77
679.159	6.23
679.189	20.23
679.22	-14.77
679.25	12.23
679.281	8.23
679.312	3.23
679.342	2.23
679.373	28.23
679.403	11.23
679.434	11.23
679.464	-0.77
679.495	16.23
679.525	7.23
679.556	3.23
679.586	12.23
679.617	-3.77
679.647	-8.77
679.678	-18.77
679.708	-2.77
679.739	1.23
679.769	-0.77
679.8	7.23
679.83	-3.77
679.861	3.23
679.891	-3.77
679.922	-23.77
679.952	-13.77
679.983	11.23
680.013	12.23
680.044	-16.77
680.074	5.23
680.105	8.23
680.135	3.23
680.165	5.23
680.196	17.23
680.226	10.23
680.257	8.23
680.287	-7.77
680.318	10.23
680.348	-6.77
680.379	11.23
680.409	-0.77
680.439	2.23
680.47	-4.77
680.5	10.23
680.531	5.23
680.561	21.23
680.592	14.23
680.622	17.23
680.652	11.23
680.683	10.23
680.713	1.23
680.744	-0.77
680.774	-22.77
680.804	15.23
680.835	-0.77
680.865	-5.77
680.896	23.23
680.926	46.23
680.956	8.23
680.987	2.23
681.017	11.23
681.047	9.23
681.078	-5.77
681.108	-2.77
681.139	6.23
681.169	9.23
681.199	1.23
681.23	20.23
681.26	4.23
681.29	17.23
681.321	7.23
681.351	-2.77
681.381	-3.77
681.412	14.23
681.442	8.23
681.472	19.23
681.503	4.23
681.533	-5.77
681.563	-14.77
681.594	-6.77
681.624	6.23
681.654	8.23
681.685	-8.77
681.715	11.23
681.745	3.23
681.775	5.23
681.806	9.23
681.836	4.23
681.866	-6.77
681.897	-1.77
681.927	5.23
681.957	-1.77
681.987	16.23
682.018	-3.77
682.048	6.23
682.078	11.23
682.109	10.23
682.139	-5.77
682.169	-8.77
682.199	1.23
682.23	-25.77
682.26	5.23
682.29	-3.77
682.32	2.23
682.351	8.23
682.381	10.23
682.411	2.23
682.441	-8.77
682.472	3.23
682.502	14.23
682.532	-9.77
682.562	-5.77
682.592	-7.77
682.623	12.23
682.653	6.23
682.683	-2.77
682.713	10.23
682.743	6.23
682.774	-24.77
682.804	2.23
682.834	8.23
682.864	-9.77
682.894	4.23
682.925	-18.77
682.955	-7.77
682.985	-7.77
683.015	16.23
683.045	4.23
683.076	-26.77
683.106	-13.77
683.136	-16.77
683.166	-5.77
683.196	-11.77
683.226	2.23
683.257	-6.77
683.287	-12.77
683.317	-12.77
683.347	-0.77
683.377	3.23
683.407	-15.77
683.437	11.23
683.468	13.23
683.498	-12.77
683.528	7.23
683.558	11.23
683.588	-5.77
683.618	7.23
683.648	1.23
683.678	-1.77
683.708	17.23
683.739	0.23
683.769	-16.77
683.799	-7.77
683.829	-0.77
683.859	14.23
683.889	-1.77
683.919	2.23
683.949	12.23
683.979	4.23
684.009	5.23
684.039	15.23
684.07	5.23
684.1	26.23
684.13	7.23
684.16	4.23
684.19	1.23
684.22	-2.77
684.25	2.23
684.28	-3.77
684.31	20.23
684.34	14.23
684.37	3.23
684.4	2.23
684.43	0.23
684.46	11.23
684.49	6.23
684.52	10.23
684.55	15.23
684.58	17.23
684.61	6.23
684.64	-8.77
684.67	5.23
684.7	14.23
684.73	20.23
684.76	10.23
684.79	16.23
684.82	2.23
684.85	-5.77
684.88	4.23
684.91	-3.77
684.94	1.23
684.97	-14.77
685	-3.77
685.03	-1.77
685.06	-0.77
685.09	5.23
685.12	9.23
685.15	2.23
685.18	17.23
685.21	7.23
685.24	2.23
685.27	25.23
685.3	3.23
685.33	4.23
685.36	-15.77
685.39	-6.77
685.42	-1.77
685.45	2.23
685.48	3.23
685.51	-1.77
685.54	11.23
685.569	13.23
685.599	10.23
685.629	6.23
685.659	-2.77
685.689	-8.77
685.719	9.23
685.749	3.23
685.779	6.23
685.809	13.23
685.839	4.23
685.869	13.23
685.898	14.23
685.928	13.23
685.958	5.23
685.988	18.23
686.018	14.23
686.048	21.23
686.078	9.23
686.108	31.23
686.137	-3.77
686.167	9.23
686.197	1.23
686.227	6.23
686.257	37.23
686.287	22.23
686.317	-0.77
686.346	9.23
686.376	6.23
686.406	7.23
686.436	0.23
686.466	3.23
686.496	12.23
686.525	9.23
686.555	-10.77
686.585	6.23
686.615	18.23
686.645	7.23
686.675	1.23
686.704	20.23
686.734	36.23
686.764	-6.77
686.794	5.23
686.824	6.23
686.853	12.23
686.883	35.23
686.913	13.23
686.943	9.23
686.973	12.23
687.002	13.23
687.032	4.23
687.062	6.23
687.092	34.23
687.121	0.23
687.151	12.23
687.181	5.23
687.211	17.23
687.24	8.23
687.27	5.23
687.3	9.23
687.33	3.23
687.359	-7.77
687.389	-3.77
687.419	6.23
687.449	26.23
687.478	14.23
687.508	19.23
687.538	15.23
687.568	2.23
687.597	-6.77
687.627	0.23
687.657	10.23
687.686	6.23
687.716	15.23
687.746	-14.77
687.776	-7.77
687.805	7.23
687.835	-6.77
687.865	24.23
687.894	2.23
687.924	2.23
687.954	4.23
687.983	5.23
688.013	-4.77
688.043	-0.77
688.072	2.23
688.102	11.23
688.132	7.23
688.161	17.23
688.191	-14.77
688.221	21.23
688.25	-22.77
688.28	-1.77
688.31	-6.77
688.339	15.23
688.369	-5.77
688.399	-8.77
688.428	-6.77
688.458	6.23
688.488	5.23
688.517	5.23
688.547	12.23
688.576	30.23
688.606	7.23
688.636	-2.77
688.665	1.23
688.695	24.23
688.725	12.23
688.754	6.23
688.784	0.23
688.813	19.23
688.843	-2.77
688.873	4.23
688.902	-2.77
688.932	-0.77
688.961	6.23
688.991	9.23
689.02	20.23
689.05	5.23
689.08	18.23
689.109	24.23
689.139	-4.77
689.168	-2.77
689.198	2.23
689.227	-2.77
689.257	6.23
689.287	19.23
689.316	-3.77
689.346	-2.77
689.375	-5.77
689.405	-0.77
689.434	6.23
689.464	10.23
689.493	-20.77
689.523	-11.77
689.552	0.23
689.582	1.23
689.611	4.23
689.641	-2.77
689.67	-1.77
689.7	13.23
689.73	16.23
689.759	5.23
689.789	9.23
689.818	8.23
689.848	-6.77
689.877	7.23
689.906	-9.77
689.936	-3.77
689.965	10.23
689.995	6.23
690.024	6.23
690.054	6.23
690.083	4.23
690.113	6.23
690.142	-1.77
690.172	-3.77
690.201	6.23
690.231	6.23
690.26	5.23
690.29	12.23
690.319	15.23
690.348	3.23
690.378	1.23
690.407	1.23
690.437	7.23
690.466	4.23
690.496	12.23
690.525	6.23
690.555	-2.77
690.584	10.23
690.613	7.23
690.643	10.23
690.672	-0.77
690.702	9.23
690.731	0.23
690.76	6.23
690.79	-8.77
690.819	-5.77
690.849	-4.77
690.878	-4.77
690.907	1.23
690.937	8.23
690.966	12.23
690.996	4.23
691.025	1.23
691.054	1.23
691.084	2.23
691.113	6.23
691.142	11.23
691.172	8.23
691.201	12.23
691.23	16.23
691.26	10.23
691.289	14.23
691.319	12.23
691.348	10.23
691.377	26.23
691.407	5.23
691.436	15.23
691.465	18.23
691.495	7.23
691.524	-11.77
691.553	-3.77
691.583	15.23
691.612	22.23
691.641	1.23
691.67	1.23
691.7	11.23
691.729	-3.77
691.758	7.23
691.788	-4.77
691.817	10.23
691.846	-6.77
691.876	0.23
691.905	-11.77
691.934	2.23
691.963	13.23
691.993	12.23
692.022	13.23
692.051	-3.77
692.081	8.23
692.11	24.23
692.139	15.23
692.168	-1.77
692.198	-2.77
692.227	4.23
692.256	0.23
692.285	-8.77
692.315	-2.77
692.344	17.23
692.373	2.23
692.402	-6.77
692.432	-7.77
692.461	-2.77
692.49	7.23
692.519	3.23
692.548	11.23
692.578	22.23
692.607	5.23
692.636	-6.77
692.665	17.23
692.694	-1.77
692.724	5.23
692.753	-0.77
692.782	4.23
692.811	-11.77
692.84	3.23
692.87	-5.77
692.899	-2.77
692.928	14.23
692.957	-9.77
692.986	12.23
693.016	8.23
693.045	5.23
693.074	9.23
693.103	6.23
693.132	1.23
693.161	3.23
693.191	7.23
693.22	-18.77
693.249	-3.77
693.278	-5.77
693.307	26.23
693.336	8.23
693.365	-3.77
693.395	-5.77
693.424	2.23
693.453	9.23
693.482	7.23
693.511	7.23
693.54	-5.77
693.569	3.23
693.598	10.23
693.628	24.23
693.657	14.23
693.686	14.23
693.715	21.23
693.744	12.23
693.773	17.23
693.802	11.23
693.831	5.23
693.86	26.23
693.889	10.23
693.919	18.23
693.948	1.23
693.977	13.23
694.006	7.23
694.035	10.23
694.064	-7.77
694.093	3.23
694.122	-7.77
694.151	3.23
694.18	22.23
694.209	39.23
694.238	-3.77
694.267	11.23
694.296	22.23
694.325	13.23
694.354	-0.77
694.383	6.23
694.412	4.23
694.441	10.23
694.471	3.23
694.5	-7.77
694.529	7.23
694.558	16.23
694.587	7.23
694.616	21.23
694.645	12.23
694.674	31.23
694.703	12.23
694.732	2.23
694.761	-1.77
694.79	0.23
694.819	-12.77
694.848	4.23
694.877	28.23
694.906	27.23
694.935	0.23
694.963	14.23
694.992	-3.77
695.021	9.23
695.05	12.23
695.079	3.23
695.108	-1.77
695.137	16.23
695.166	15.23
695.195	-3.77
695.224	5.23
695.253	4.23
695.282	6.23
695.311	5.23
695.34	9.23
695.369	8.23
695.398	4.23
695.427	21.23
695.456	18.23
695.485	10.23
695.513	1.23
695.542	14.23
695.571	2.23
695.6	13.23
695.629	16.23
695.658	14.23
695.687	3.23
695.716	6.23
695.745	29.23
695.774	0.23
695.802	-11.77
695.831	6.23
695.86	12.23
695.889	12.23
695.918	15.23
695.947	9.23
695.976	2.23
696.005	2.23
696.033	20.23
696.062	20.23
696.091	16.23
696.12	5.23
696.149	16.23
696.178	-0.77
696.207	1.23
696.235	-5.77
696.264	7.23
696.293	24.23
696.322	10.23
696.351	-3.77
696.38	-3.77
696.408	2.23
696.437	17.23
696.466	6.23
696.495	32.23
696.524	15.23
696.553	6.23
696.581	14.23
696.61	-1.77
696.639	11.23
696.668	1.23
696.697	4.23
696.725	2.23
696.754	0.23
696.783	5.23
696.812	2.23
696.84	2.23
696.869	-11.77
696.898	-3.77
696.927	11.23
696.956	13.23
696.984	2.23
697.013	19.23
697.042	12.23
697.071	8.23
697.099	12.23
697.128	5.23
697.157	5.23
697.186	8.23
697.214	-4.77
697.243	-3.77
697.272	-11.77
697.301	12.23
697.329	7.23
697.358	-0.77
697.387	13.23
697.415	9.23
697.444	-1.77
697.473	5.23
697.502	-3.77
697.53	7.23
697.559	14.23
697.588	7.23
697.616	2.23
697.645	-5.77
697.674	15.23
697.703	-9.77
697.731	-1.77
697.76	2.23
697.789	1.23
697.817	0.23
697.846	11.23
697.875	14.23
697.903	15.23
697.932	13.23
697.961	1.23
697.989	18.23
698.018	19.23
698.047	10.23
698.075	9.23
698.104	-5.77
698.133	-0.77
698.161	1.23
698.19	6.23
698.218	5.23
698.247	10.23
698.276	-9.77
698.304	2.23
698.333	12.23
698.362	9.23
698.39	6.23
698.419	9.23
698.447	0.23
698.476	-1.77
698.505	9.23
698.533	8.23
698.562	8.23
698.591	-10.77
698.619	-5.77
698.648	3.23
698.676	11.23
698.705	5.23
698.733	2.23
698.762	5.23
698.791	21.23
698.819	3.23
698.848	-1.77
698.876	10.23
698.905	16.23
698.933	21.23
698.962	5.23
698.991	4.23
699.019	10.23
699.048	-5.77
699.076	12.23
699.105	-8.77
699.133	-14.77
699.162	5.23
699.19	17.23
699.219	-2.77
699.248	6.23
699.276	-4.77
699.305	-12.77
699.333	13.23
699.362	-1.77
699.39	-2.77
699.419	-8.77
699.447	22.23
699.476	5.23
699.504	1.23
699.533	14.23
699.561	-8.77
699.59	-0.77
699.618	-1.77
699.647	-2.77
699.675	7.23
699.704	11.23
699.732	-1.77
699.761	-2.77
699.789	-15.77
699.818	10.23
699.846	4.23
699.874	-4.77
699.903	13.23
699.931	10.23
699.96	21.23
699.988	-0.77
700.017	1.23
700.045	-0.77
700.074	-1.77
700.102	1.23
700.13	1.23
700.159	2.23
700.187	9.23
700.216	-4.77
700.244	19.23
700.273	26.23
700.301	9.23
700.329	24.23
700.358	34.23
700.386	4.23
700.415	1.23
700.443	13.23
700.472	-2.77
700.5	15.23
700.528	1.23
700.557	-0.77
700.585	0.23
700.614	7.23
700.642	5.23
700.67	24.23
700.699	6.23
700.727	7.23
700.755	3.23
700.784	15.23
700.812	1.23
700.841	18.23
700.869	0.23
700.897	-23.77
700.926	11.23
700.954	9.23
700.982	5.23
701.011	-6.77
701.039	5.23
701.067	-1.77
701.096	5.23
701.124	-8.77
701.152	2.23
701.181	17.23
701.209	-13.77
701.237	0.23
701.266	-1.77
701.294	-1.77
701.322	16.23
701.351	10.23
701.379	15.23
701.407	-3.77
701.435	-0.77
701.464	8.23
701.492	15.23
701.52	9.23
701.549	6.23
701.577	-14.77
701.605	-9.77
701.634	9.23
701.662	17.23
701.69	-8.77
701.718	1.23
701.747	13.23
701.775	7.23
701.803	-5.77
701.831	19.23
701.86	-8.77
701.888	9.23
701.916	6.23
701.944	-9.77
701.973	-2.77
702.001	-11.77
702.029	11.23
702.057	-12.77
702.086	-10.77
702.114	-11.77
702.142	4.23
702.17	-2.77
702.199	0.23
702.227	8.23
702.255	-16.77
702.283	-8.77
702.311	3.23
702.34	9.23
702.368	4.23
702.396	-5.77
702.424	-2.77
702.452	8.23
702.481	8.23
702.509	6.23
702.537	4.23
702.565	0.23
702.593	-12.77
702.621	7.23
702.65	14.23
702.678	14.23
702.706	6.23
702.734	6.23
702.762	5.23
702.79	5.23
702.819	13.23
702.847	11.23
702.875	13.23
702.903	16.23
702.931	1.23
702.959	-4.77
702.988	-16.77
703.016	4.23
703.044	-7.77
703.072	-10.77
703.1	-10.77
703.128	18.23
703.156	3.23
703.184	2.23
703.212	20.23
703.241	-3.77
703.269	3.23
703.297	12.23
703.325	-3.77
703.353	-18.77
703.381	0.23
703.409	5.23
703.437	3.23
703.465	6.23
703.493	-22.77
703.522	9.23
703.55	6.23
703.578	6.23
703.606	-20.77
703.634	4.23
703.662	3.23
703.69	0.23
703.718	6.23
703.746	20.23
703.774	9.23
703.802	15.23
703.83	2.23
703.858	-2.77
703.886	-12.77
703.914	-17.77
703.942	-5.77
703.97	3.23
703.998	-1.77
704.027	24.23
704.055	15.23
704.083	13.23
704.111	-2.77
704.139	10.23
704.167	6.23
704.195	-16.77
704.223	3.23
704.251	-2.77
704.279	1.23
704.307	10.23
704.335	-1.77
704.363	1.23
704.391	-5.77
704.419	-1.77
704.447	6.23
704.475	13.23
704.503	0.23
704.531	0.23
704.558	12.23
704.586	3.23
704.614	0.23
704.642	5.23
704.67	-12.77
704.698	18.23
704.726	3.23
704.754	-0.77
704.782	-2.77
704.81	3.23
704.838	22.23
704.866	11.23
704.894	-1.77
704.922	-11.77
704.95	12.23
704.978	11.23
705.006	3.23
705.034	24.23
705.061	-5.77
705.089	-5.77
705.117	-6.77
705.145	3.23
705.173	9.23
705.201	4.23
705.229	9.23
705.257	7.23
705.285	4.23
705.313	0.23
705.34	-5.77
705.368	5.23
705.396	12.23
705.424	19.23
705.452	-3.77
705.48	1.23
705.508	-1.77
705.536	0.23
705.563	-12.77
705.591	2.23
705.619	1.23
705.647	-6.77
705.675	1.23
705.703	11.23
705.731	6.23
705.758	9.23
705.786	5.23
705.814	12.23
705.842	-3.77
705.87	20.23
705.898	21.23
705.925	0.23
705.953	11.23
705.981	-9.77
706.009	2.23
706.037	25.23
706.065	-2.77
706.092	0.23
706.12	-3.77
706.148	-5.77
706.176	-2.77
706.204	-4.77
706.231	1.23
706.259	-1.77
706.287	4.23
706.315	13.23
706.342	-6.77
706.37	6.23
706.398	-7.77
706.426	-4.77
706.454	2.23
706.481	1.23
706.509	-3.77
706.537	-1.77
706.565	2.23
706.592	1.23
706.62	-4.77
706.648	6.23
706.676	-3.77
706.703	2.23
706.731	1.23
706.759	-2.77
706.787	0.23
706.814	9.23
706.842	2.23
706.87	5.23
706.897	-4.77
706.925	-6.77
706.953	8.23
706.981	38.23
707.008	21.23
707.036	10.23
707.064	1.23
707.091	-3.77
707.119	15.23
707.147	9.23
707.174	-7.77
707.202	20.23
707.23	-10.77
707.258	-5.77
707.285	-18.77
707.313	9.23
707.341	-2.77
707.368	-27.77
707.396	0.23
707.424	10.23
707.451	9.23
707.479	5.23
707.507	1.23
707.534	-2.77
707.562	-9.77
707.59	-5.77
707.617	-10.77
707.645	-9.77
707.672	1.23
707.7	6.23
707.728	8.23
707.755	-0.77
707.783	-8.77
707.811	6.23
707.838	1.23
707.866	13.23
707.893	6.23
707.921	-8.77
707.949	-11.77
707.976	6.23
708.004	-6.77
708.031	1.23
708.059	-7.77
708.087	18.23
708.114	1.23
708.142	4.23
708.169	-9.77
708.197	-25.77
708.225	-1.77
708.252	-11.77
708.28	12.23
708.307	-3.77
708.335	-8.77
708.362	4.23
708.39	3.23
708.418	13.23
708.445	-7.77
708.473	3.23
708.5	-21.77
708.528	5.23
708.555	-1.77
708.583	-3.77
708.61	-4.77
708.638	12.23
708.665	-4.77
708.693	4.23
708.72	-8.77
708.748	-9.77
708.776	4.23
708.803	11.23
708.831	2.23
708.858	11.23
708.886	-0.77
708.913	-5.77
708.941	-4.77
708.968	12.23
708.996	12.23
709.023	25.23
709.051	6.23
709.078	-0.77
709.105	15.23
709.133	2.23
709.16	-8.77
709.188	24.23
709.215	-1.77
709.243	-9.77
709.27	-9.77
709.298	-7.77
709.325	-5.77
709.353	-3.77
709.38	-2.77
709.408	13.23
709.435	9.23
709.462	14.23
709.49	9.23
709.517	5.23
709.545	-12.77
709.572	-6.77
709.6	8.23
709.627	22.23
709.655	7.23
709.682	0.23
709.709	7.23
709.737	2.23
709.764	3.23
709.792	3.23
709.819	12.23
709.846	-0.77
709.874	3.23
709.901	10.23
709.929	5.23
709.956	8.23
709.983	-9.77
710.011	-6.77
710.038	-12.77
710.066	0.23
710.093	26.23
710.12	13.23
710.148	1.23
710.175	2.23
710.202	-3.77
710.23	-3.77
710.257	-1.77
710.284	10.23
710.312	4.23
710.339	-1.77
710.366	8.23
710.394	3.23
710.421	2.23
710.448	13.23
710.476	-11.77
710.503	-6.77
710.53	9.23
710.558	18.23
710.585	2.23
710.612	-3.77
710.64	-13.77
710.667	1.23
710.694	0.23
710.722	-4.77
710.749	19.23
710.776	12.23
710.804	28.23
710.831	2.23
710.858	10.23
710.885	-7.77
710.913	4.23
710.94	24.23
710.967	2.23
710.995	12.23
711.022	-17.77
711.049	-8.77
711.076	-14.77
711.104	-14.77
711.131	1.23
711.158	5.23
711.185	18.23
711.213	-9.77
711.24	-6.77
711.267	-3.77
711.294	7.23
711.322	18.23
711.349	-4.77
711.376	5.23
711.403	1.23
711.431	-14.77
711.458	-3.77
711.485	-8.77
711.512	4.23
711.54	-2.77
711.567	7.23
711.594	-1.77
711.621	-3.77
711.648	-8.77
711.676	-5.77
711.703	-2.77
711.73	-14.77
711.757	-1.77
711.784	-1.77
711.812	0.23
711.839	5.23
711.866	3.23
711.893	-4.77
711.92	-5.77
711.947	-4.77
711.975	2.23
712.002	-2.77
712.029	4.23
712.056	8.23
712.083	1.23
712.11	-5.77
712.138	21.23
712.165	30.23
712.192	0.23
712.219	1.23
712.246	-7.77
712.273	-1.77
712.3	-8.77
712.328	12.23
712.355	14.23
712.382	0.23
712.409	13.23
712.436	-6.77
712.463	9.23
712.49	9.23
712.517	-5.77
712.544	-7.77
712.572	16.23
712.599	-7.77
712.626	-4.77
712.653	4.23
712.68	-9.77
712.707	0.23
712.734	4.23
712.761	-3.77
712.788	3.23
712.815	2.23
712.842	14.23
712.87	0.23
712.897	-5.77
712.924	3.23
712.951	11.23
712.978	17.23
713.005	5.23
713.032	25.23
713.059	1.23
713.086	6.23
713.113	0.23
713.14	-13.77
713.167	-8.77
713.194	4.23
713.221	-2.77
713.248	3.23
713.275	4.23
713.302	0.23
713.329	10.23
713.356	2.23
713.383	4.23
713.41	21.23
713.437	-5.77
713.464	-6.77
713.491	-13.77
713.518	-0.77
713.545	-4.77
713.572	-0.77
713.599	3.23
713.626	-3.77
713.653	-1.77
713.68	3.23
713.707	14.23
713.734	8.23
713.761	-8.77
713.788	12.23
713.815	19.23
713.842	9.23
713.869	-0.77
713.896	-1.77
713.923	-8.77
713.95	9.23
713.977	-11.77
714.004	-9.77
714.031	-2.77
714.058	5.23
714.085	1.23
714.112	22.23
714.139	-6.77
714.165	0.23
714.192	-4.77
714.219	-11.77
714.246	9.23
714.273	1.23
714.3	7.23
714.327	7.23
714.354	4.23
714.381	-11.77
714.408	-6.77
714.435	-10.77
714.461	0.23
714.488	12.23
714.515	0.23
714.542	-6.77
714.569	6.23
714.596	-6.77
714.623	-20.77
714.65	-11.77
714.677	-4.77
714.703	-5.77
714.73	1.23
714.757	0.23
714.784	8.23
714.811	-10.77
714.838	0.23
714.865	-6.77
714.891	20.23
714.918	-2.77
714.945	2.23
714.972	-5.77
714.999	1.23
715.026	1.23
715.052	4.23
715.079	9.23
715.106	-1.77
715.133	-0.77
715.16	-8.77
715.187	-6.77
715.213	1.23
715.24	0.23
715.267	0.23
715.294	6.23
715.321	-2.77
715.347	16.23
715.374	-7.77
715.401	-12.77
715.428	-2.77
715.455	-3.77
715.481	-19.77
715.508	-1.77
715.535	5.23
715.562	17.23
715.588	1.23
715.615	10.23
715.642	-10.77
715.669	1.23
715.695	-9.77
715.722	-1.77
715.749	0.23
715.776	11.23
715.802	-5.77
715.829	-3.77
715.856	-17.77
715.883	17.23
715.909	1.23
715.936	-6.77
715.963	2.23
715.99	-2.77
716.016	-8.77
716.043	3.23
716.07	-0.77
716.096	-10.77
716.123	-5.77
716.15	5.23
716.177	9.23
716.203	5.23
716.23	16.23
716.257	8.23
716.283	14.23
716.31	-2.77
716.337	-1.77
716.363	-3.77
716.39	1.23
716.417	3.23
716.443	-8.77
716.47	16.23
716.497	14.23
716.523	4.23
716.55	18.23
716.577	21.23
716.603	-8.77
716.63	-5.77
716.657	21.23
716.683	-4.77
716.71	2.23
716.737	1.23
716.763	2.23
716.79	9.23
716.817	18.23
716.843	18.23
716.87	1.23
716.897	4.23
716.923	32.23
716.95	-4.77
716.976	-14.77
717.003	3.23
717.03	-3.77
717.056	8.23
717.083	4.23
717.109	14.23
717.136	20.23
717.163	-1.77
717.189	-0.77
717.216	-1.77
717.242	-6.77
717.269	3.23
717.296	2.23
717.322	13.23
717.349	9.23
717.375	18.23
717.402	-0.77
717.428	11.23
717.455	19.23
717.481	1.23
717.508	7.23
717.535	14.23
717.561	2.23
717.588	-6.77
717.614	-0.77
717.641	-3.77
717.667	2.23
717.694	18.23
717.72	-3.77
717.747	6.23
717.773	-15.77
717.8	-4.77
717.826	-5.77
717.853	9.23
717.88	20.23
717.906	13.23
717.933	14.23
717.959	6.23
717.986	-2.77
718.012	1.23
718.039	12.23
718.065	12.23
718.092	-3.77
718.118	-7.77
718.144	-5.77
718.171	12.23
718.197	18.23
718.224	-5.77
718.25	-16.77
718.277	-4.77
718.303	8.23
718.33	22.23
718.356	-21.77
718.383	-10.77
718.409	-1.77
718.436	3.23
718.462	9.23
718.489	-2.77
718.515	4.23
718.541	14.23
718.568	13.23
718.594	2.23
718.621	0.23
718.647	-1.77
718.674	2.23
718.7	17.23
718.726	4.23
718.753	8.23
718.779	11.23
718.806	-14.77
718.832	-5.77
718.858	0.23
718.885	-2.77
718.911	3.23
718.938	6.23
718.964	-6.77
718.99	12.23
719.017	-2.77
719.043	11.23
719.07	21.23
719.096	-12.77
719.122	-7.77
719.149	0.23
719.175	9.23
719.201	9.23
719.228	7.23
719.254	5.23
719.281	1.23
719.307	-2.77
719.333	-0.77
719.36	6.23
719.386	13.23
719.412	10.23
719.439	1.23
719.465	-2.77
719.491	5.23
719.518	-3.77
719.544	0.23
719.57	3.23
719.597	11.23
719.623	4.23
719.649	-6.77
719.675	3.23
719.702	5.23
719.728	9.23
719.754	1.23
719.781	3.23
719.807	0.23
719.833	-5.77
719.86	5.23
719.886	1.23
719.912	1.23
719.938	-10.77
719.965	-1.77
719.991	12.23
720.017	2.23
720.044	-3.77
720.07	3.23
720.096	12.23
720.122	9.23
720.149	4.23
720.175	2.23
720.201	3.23
720.227	13.23
720.254	15.23
720.28	1.23
720.306	-10.77
720.332	0.23
720.359	1.23
720.385	7.23
720.411	8.23
720.437	6.23
720.463	-4.77
720.49	24.23
720.516	-1.77
720.542	-4.77
720.568	-8.77
720.595	11.23
720.621	6.23
720.647	9.23
720.673	-3.77
720.699	-5.77
720.725	-5.77
720.752	9.23
720.778	11.23
720.804	2.23
720.83	5.23
720.856	-4.77
720.883	-10.77
720.909	-9.77
720.935	3.23
720.961	8.23
720.987	14.23
721.013	4.23
721.04	4.23
721.066	6.23
721.092	-6.77
721.118	4.23
721.144	4.23
721.17	-6.77
721.196	4.23
721.223	-5.77
721.249	13.23
721.275	23.23
721.301	5.23
721.327	18.23
721.353	25.23
721.379	-2.77
721.405	4.23
721.432	10.23
721.458	-8.77
721.484	1.23
721.51	5.23
721.536	-0.77
721.562	-9.77
721.588	2.23
721.614	-14.77
721.64	4.23
721.666	2.23
721.693	2.23
721.719	-3.77
721.745	-3.77
721.771	-15.77
721.797	6.23
721.823	2.23
721.849	7.23
721.875	0.23
721.901	6.23
721.927	-3.77
721.953	-0.77
721.979	15.23
722.005	8.23
722.031	0.23
722.057	8.23
722.083	20.23
722.109	17.23
722.135	13.23
722.161	7.23
722.187	2.23
722.214	8.23
722.24	2.23
722.266	-13.77
722.292	16.23
722.318	12.23
722.344	-2.77
722.37	3.23
722.396	21.23
722.422	8.23
722.448	-2.77
722.474	-10.77
722.5	6.23
722.526	-11.77
722.552	5.23
722.578	0.23
722.603	8.23
722.629	-1.77
722.655	5.23
722.681	-2.77
722.707	-2.77
722.733	4.23
722.759	7.23
722.785	1.23
722.811	2.23
722.837	5.23
722.863	7.23
722.889	15.23
722.915	5.23
722.941	-4.77
722.967	7.23
722.993	10.23
723.019	4.23
723.045	15.23
723.071	-2.77
723.097	0.23
723.122	16.23
723.148	-10.77
723.174	-2.77
723.2	12.23
723.226	0.23
723.252	2.23
723.278	-5.77
723.304	-6.77
723.33	-0.77
723.356	-2.77
723.381	-6.77
723.407	-8.77
723.433	13.23
723.459	-3.77
723.485	4.23
723.511	5.23
723.537	-2.77
723.563	11.23
723.588	7.23
723.614	30.23
723.64	2.23
723.666	10.23
723.692	13.23
723.718	12.23
723.744	-1.77
723.769	0.23
723.795	-2.77
723.821	19.23
723.847	0.23
723.873	12.23
723.899	7.23
723.924	-4.77
723.95	11.23
723.976	-3.77
724.002	3.23
724.028	4.23
724.053	-3.77
724.079	-4.77
724.105	-10.77
724.131	-0.77
724.157	-1.77
724.182	12.23
724.208	-3.77
724.234	9.23
724.26	-0.77
724.286	10.23
724.311	10.23
724.337	1.23
724.363	6.23
724.389	-6.77
724.415	-4.77
724.44	17.23
724.466	-7.77
724.492	0.23
724.518	10.23
724.543	0.23
724.569	19.23
724.595	4.23
724.621	-2.77
724.646	-1.77
724.672	-10.77
724.698	-13.77
724.723	9.23
724.749	-1.77
724.775	2.23
724.801	8.23
724.826	0.23
724.852	-11.77
724.878	-23.77
724.904	-9.77
724.929	0.23
724.955	-5.77
724.981	-1.77
725.006	5.23
725.032	4.23
725.058	13.23
725.083	-6.77
725.109	0.23
725.135	2.23
725.161	6.23
725.186	-2.77
725.212	8.23
725.238	21.23
725.263	-6.77
725.289	-21.77
725.315	-13.77
725.34	-2.77
725.366	9.23
725.392	-1.77
725.417	8.23
725.443	-7.77
725.468	13.23
725.494	12.23
725.52	19.23
725.545	-1.77
725.571	-11.77
725.597	2.23
725.622	3.23
725.648	1.23
725.674	9.23
725.699	-4.77
725.725	1.23
725.75	12.23
725.776	-13.77
725.802	-8.77
725.827	10.23
725.853	9.23
725.878	-4.77
725.904	3.23
725.93	-2.77
725.955	-19.77
725.981	-0.77
726.006	3.23
726.032	16.23
726.057	-1.77
726.083	-7.77
726.109	-13.77
726.134	10.23
726.16	-4.77
726.185	1.23
726.211	-6.77
726.236	-7.77
726.262	1.23
726.288	4.23
726.313	10.23
726.339	-3.77
726.364	2.23
726.39	15.23
726.415	-3.77
726.441	-6.77
726.466	0.23
726.492	9.23
726.517	-2.77
726.543	-1.77
726.568	-6.77
726.594	-3.77
726.619	5.23
726.645	11.23
726.67	-0.77
726.696	15.23
726.721	-0.77
726.747	5.23
726.772	-3.77
726.798	3.23
726.823	5.23
726.849	-2.77
726.874	9.23
726.9	28.23
726.925	9.23
726.951	12.23
726.976	17.23
727.002	-12.77
727.027	1.23
727.053	13.23
727.078	-5.77
727.104	6.23
727.129	-4.77
727.155	-3.77
727.18	7.23
727.205	6.23
727.231	4.23
727.256	-1.77
727.282	0.23
727.307	2.23
727.333	-3.77
727.358	-2.77
727.383	-3.77
727.409	3.23
727.434	4.23
727.46	1.23
727.485	8.23
727.511	-2.77
727.536	-9.77
727.561	-4.77
727.587	4.23
727.612	-10.77
727.637	10.23
727.663	1.23
727.688	9.23
727.714	-9.77
727.739	-16.77
727.764	-12.77
727.79	-0.77
727.815	2.23
727.841	5.23
727.866	16.23
727.891	-1.77
727.917	-5.77
727.942	-7.77
727.967	-1.77
727.993	-13.77
728.018	-1.77
728.043	-10.77
728.069	-2.77
728.094	8.23
728.119	-8.77
728.145	5.23
728.17	-2.77
728.195	-1.77
728.221	16.23
728.246	-6.77
728.271	-11.77
728.297	13.23
728.322	-1.77
728.347	-6.77
728.373	8.23
728.398	4.23
728.423	-4.77
728.448	3.23
728.474	15.23
728.499	6.23
728.524	-2.77
728.55	0.23
728.575	-2.77
728.6	-9.77
728.625	11.23
728.651	10.23
728.676	-5.77
728.701	1.23
728.727	1.23
728.752	-6.77
728.777	-5.77
728.802	9.23
728.828	4.23
728.853	2.23
728.878	0.23
728.903	2.23
728.929	-5.77
728.954	-4.77
728.979	2.23
729.004	-6.77
729.03	-5.77
729.055	1.23
729.08	-12.77
729.105	1.23
729.13	14.23
729.156	20.23
729.181	-2.77
729.206	-10.77
729.231	-9.77
729.256	7.23
729.282	0.23
729.307	-10.77
729.332	-3.77
729.357	-2.77
729.382	-4.77
729.408	0.23
729.433	4.23
729.458	-4.77
729.483	2.23
729.508	6.23
729.533	1.23
729.559	-4.77
729.584	-11.77
729.609	20.23
729.634	7.23
729.659	-2.77
729.684	-12.77
729.71	13.23
729.735	10.23
729.76	-2.77
729.785	-1.77
729.81	5.23
729.835	-14.77
729.86	-0.77
729.886	-0.77
729.911	-12.77
729.936	0.23
729.961	3.23
729.986	-23.77
730.011	2.23
730.036	-2.77
730.061	5.23
730.086	0.23
730.112	7.23
730.137	26.23
730.162	10.23
730.187	-12.77
730.212	30.23
730.237	0.23
730.262	1.23
730.287	4.23
730.312	15.23
730.337	-4.77
730.362	15.23
730.387	13.23
730.413	-4.77
730.438	-5.77
730.463	-6.77
730.488	5.23
730.513	5.23
730.538	-3.77
730.563	19.23
730.588	-0.77
730.613	15.23
730.638	5.23
730.663	15.23
730.688	27.23
730.713	1.23
730.738	-7.77
730.763	-2.77
730.788	0.23
730.813	10.23
730.838	0.23
730.863	-10.77
730.888	0.23
730.913	-2.77
730.938	0.23
730.963	1.23
730.988	-5.77
731.013	10.23
731.038	-10.77
731.063	-9.77
731.088	-3.77
731.113	4.23
731.138	-2.77
731.163	-7.77
731.188	-9.77
731.213	4.23
731.238	-0.77
731.263	-10.77
731.288	-7.77
731.313	3.23
731.338	-11.77
731.363	-6.77
731.388	3.23
731.413	-3.77
731.438	9.23
731.463	2.23
731.487	4.23
731.512	-10.77
731.537	-6.77
731.562	9.23
731.587	4.23
731.612	-6.77
731.637	1.23
731.662	-0.77
731.687	-3.77
731.712	-16.77
731.737	5.23
731.762	-3.77
731.786	-3.77
731.811	2.23
731.836	0.23
731.861	-7.77
731.886	-12.77
731.911	0.23
731.936	9.23
731.961	9.23
731.986	-13.77
732.01	-8.77
732.035	-1.77
732.06	5.23
732.085	-10.77
732.11	-0.77
732.135	6.23
732.16	11.23
732.184	-5.77
732.209	-3.77
732.234	-2.77
732.259	2.23
732.284	5.23
732.309	-3.77
732.334	-6.77
732.358	-27.77
732.383	-2.77
732.408	-9.77
732.433	-8.77
732.458	-1.77
732.482	-7.77
732.507	-7.77
732.532	1.23
732.557	7.23
732.582	22.23
732.607	-14.77
732.631	-15.77
732.656	-3.77
732.681	1.23
732.706	2.23
732.73	1.23
732.755	-1.77
732.78	-2.77
732.805	12.23
732.83	0.23
732.854	-1.77
732.879	15.23
732.904	-10.77
732.929	4.23
732.953	12.23
732.978	3.23
733.003	-1.77
733.028	1.23
733.052	4.23
733.077	1.23
733.102	12.23
733.127	-2.77
733.151	-5.77
733.176	2.23
733.201	4.23
733.226	-5.77
733.25	5.23
733.275	8.23
733.3	-8.77
733.324	7.23
733.349	3.23
733.374	24.23
733.399	10.23
733.423	4.23
733.448	10.23
733.473	-1.77
733.497	-7.77
733.522	-4.77
733.547	9.23
733.571	9.23
733.596	-0.77
733.621	7.23
733.646	12.23
733.67	18.23
733.695	-4.77
733.72	6.23
733.744	-0.77
733.769	6.23
733.794	13.23
733.818	-11.77
733.843	7.23
733.867	-6.77
733.892	-0.77
733.917	2.23
733.941	-4.77
733.966	-3.77
733.991	-0.77
734.015	18.23
734.04	17.23
734.065	14.23
734.089	12.23
734.114	-13.77
734.138	-1.77
734.163	-11.77
734.188	5.23
734.212	20.23
734.237	7.23
734.261	-3.77
734.286	-3.77
734.311	-1.77
734.335	-5.77
734.36	9.23
734.384	10.23
734.409	7.23
734.434	5.23
734.458	9.23
734.483	3.23
734.507	-18.77
734.532	-1.77
734.556	-4.77
734.581	1.23
734.606	-5.77
734.63	-4.77
734.655	9.23
734.679	4.23
734.704	-3.77
734.728	3.23
734.753	12.23
734.777	2.23
734.802	-8.77
734.826	-1.77
734.851	2.23
734.876	20.23
734.9	21.23
734.925	23.23
734.949	17.23
734.974	4.23
734.998	4.23
735.023	-10.77
735.047	-17.77
735.072	16.23
735.096	0.23
735.121	19.23
735.145	4.23
735.17	4.23
735.194	5.23
735.219	-8.77
735.243	10.23
735.268	21.23
735.292	9.23
735.317	-3.77
735.341	11.23
735.365	7.23
735.39	10.23
735.414	-2.77
735.439	5.23
735.463	9.23
735.488	10.23
735.512	14.23
735.537	-1.77
735.561	-3.77
735.586	0.23
735.61	21.23
735.634	8.23
735.659	-4.77
735.683	9.23
735.708	12.23
735.732	-9.77
735.757	-19.77
735.781	9.23
735.805	4.23
735.83	-11.77
735.854	1.23
735.879	0.23
735.903	3.23
735.927	0.23
735.952	0.23
735.976	-8.77
736.001	-0.77
736.025	0.23
736.049	-4.77
736.074	4.23
736.098	8.23
736.123	1.23
736.147	6.23
736.171	8.23
736.196	18.23
736.22	-12.77
736.244	2.23
736.269	9.23
736.293	8.23
736.317	8.23
736.342	12.23
736.366	21.23
736.39	29.23
736.415	0.23
736.439	6.23
736.463	10.23
736.488	7.23
736.512	-3.77
736.536	4.23
736.561	17.23
736.585	2.23
736.609	11.23
736.634	2.23
736.658	-3.77
736.682	-9.77
736.707	-9.77
736.731	-19.77
736.755	-1.77
736.78	19.23
736.804	29.23
736.828	19.23
736.852	1.23
736.877	-3.77
736.901	-2.77
736.925	6.23
736.949	-5.77
736.974	1.23
736.998	-6.77
737.022	2.23
737.047	-5.77
737.071	7.23
737.095	10.23
737.119	16.23
737.144	13.23
737.168	8.23
737.192	2.23
737.216	13.23
737.241	4.23
737.265	-0.77
737.289	4.23
737.313	-7.77
737.337	-2.77
737.362	4.23
737.386	-4.77
737.41	-10.77
737.434	1.23
737.459	12.23
737.483	4.23
737.507	13.23
737.531	16.23
737.555	2.23
737.58	1.23
737.604	-6.77
737.628	-5.77
737.652	-3.77
737.676	-4.77
737.701	0.23
737.725	4.23
737.749	13.23
737.773	-5.77
737.797	-8.77
737.821	14.23
737.846	-3.77
737.87	24.23
737.894	-7.77
737.918	-7.77
737.942	-0.77
737.966	6.23
737.99	1.23
738.015	-3.77
738.039	0.23
738.063	3.23
738.087	8.23
738.111	0.23
738.135	25.23
738.159	1.23
738.184	-11.77
738.208	-11.77
738.232	-9.77
738.256	0.23
738.28	15.23
738.304	1.23
738.328	0.23
738.352	1.23
738.376	-2.77
738.4	1.23
738.425	4.23
738.449	-2.77
738.473	14.23
738.497	8.23
738.521	-9.77
738.545	1.23
738.569	5.23
738.593	27.23
738.617	9.23
738.641	10.23
738.665	-6.77
738.689	10.23
738.713	5.23
738.737	9.23
738.762	12.23
738.786	8.23
738.81	-15.77
738.834	10.23
738.858	-1.77
738.882	9.23
738.906	2.23
738.93	4.23
738.954	12.23
738.978	30.23
739.002	1.23
739.026	16.23
739.05	8.23
739.074	-9.77
739.098	9.23
739.122	8.23
739.146	3.23
739.17	4.23
739.194	16.23
739.218	-12.77
739.242	-3.77
739.266	-6.77
739.29	0.23
739.314	-1.77
739.338	-0.77
739.362	15.23
739.386	0.23
739.41	4.23
739.434	-1.77
739.458	29.23
739.482	-0.77
739.506	12.23
739.53	-2.77
739.554	12.23
739.577	-6.77
739.601	15.23
739.625	-8.77
739.649	-3.77
739.673	-4.77
739.697	0.23
739.721	5.23
739.745	3.23
739.769	1.23
739.793	8.23
739.817	-0.77
739.841	-2.77
739.865	2.23
739.889	-4.77
739.912	4.23
739.936	3.23
739.96	-4.77
739.984	9.23
740.008	11.23
740.032	-0.77
740.056	0.23
740.08	11.23
740.104	10.23
740.127	16.23
740.151	1.23
740.175	0.23
740.199	15.23
740.223	43.23
740.247	-2.77
740.271	3.23
740.295	6.23
740.318	-4.77
740.342	-5.77
740.366	10.23
740.39	8.23
740.414	0.23
740.438	-9.77
740.461	25.23
740.485	16.23
740.509	-6.77
740.533	14.23
740.557	6.23
740.581	-3.77
740.604	-15.77
740.628	-8.77
740.652	15.23
740.676	8.23
740.7	14.23
740.723	6.23
740.747	6.23
740.771	-0.77
740.795	-8.77
740.819	17.23
740.842	3.23
740.866	9.23
740.89	-5.77
740.914	-3.77
740.938	-15.77
740.961	16.23
740.985	-4.77
741.009	1.23
741.033	13.23
741.056	4.23
741.08	-11.77
741.104	-0.77
741.128	-4.77
741.151	14.23
741.175	-1.77
741.199	7.23
741.223	7.23
741.246	-0.77
741.27	6.23
741.294	2.23
741.318	-5.77
741.341	-4.77
741.365	9.23
741.389	0.23
741.413	28.23
741.436	22.23
741.46	2.23
741.484	8.23
741.507	17.23
741.531	20.23
741.555	13.23
741.579	14.23
741.602	5.23
741.626	3.23
741.65	9.23
741.673	2.23
741.697	1.23
741.721	7.23
741.744	6.23
741.768	5.23
741.792	22.23
741.815	6.23
741.839	13.23
741.863	20.23
741.886	10.23
741.91	14.23
741.934	5.23
741.957	-4.77
741.981	19.23
742.005	6.23
742.028	1.23
742.052	-1.77
742.075	-6.77
742.099	11.23
742.123	1.23
742.146	15.23
742.17	5.23
742.194	-17.77
742.217	-10.77
742.241	-10.77
742.264	0.23
742.288	27.23
742.312	-2.77
742.335	-3.77
742.359	7.23
742.382	1.23
742.406	25.23
742.43	-5.77
742.453	6.23
742.477	-8.77
742.5	1.23
742.524	2.23
742.548	0.23
742.571	5.23
742.595	-1.77
742.618	-7.77
742.642	-3.77
742.665	24.23
742.689	3.23
742.712	25.23
742.736	0.23
742.76	9.23
742.783	-2.77
742.807	21.23
742.83	13.23
742.854	-6.77
742.877	-4.77
742.901	-3.77
742.924	-5.77
742.948	6.23
742.971	10.23
742.995	2.23
743.018	-22.77
743.042	-3.77
743.065	-2.77
743.089	-21.77
743.112	-10.77
743.136	-6.77
743.159	3.23
743.183	-1.77
743.206	-6.77
743.23	-6.77
743.253	-4.77
743.277	5.23
743.3	-33.77
743.324	-7.77
743.347	-8.77
743.371	19.23
743.394	7.23
743.418	17.23
743.441	18.23
743.465	17.23
743.488	7.23
743.512	-15.77
743.535	-1.77
743.558	-2.77
743.582	20.23
743.605	14.23
743.629	6.23
743.652	5.23
743.676	4.23
743.699	1.23
743.723	17.23
743.746	23.23
743.769	-0.77
743.793	4.23
743.816	-1.77
743.84	13.23
743.863	-1.77
743.886	18.23
743.91	13.23
743.933	4.23
743.957	4.23
743.98	6.23
744.003	11.23
744.027	17.23
744.05	9.23
744.074	-1.77
744.097	-10.77
744.12	-9.77
744.144	-11.77
744.167	9.23
744.19	4.23
744.214	3.23
744.237	-2.77
744.26	12.23
744.284	0.23
744.307	-7.77
744.331	3.23
744.354	-9.77
744.377	-1.77
744.401	0.23
744.424	6.23
744.447	-12.77
744.471	-10.77
