Data from HighRes_H2_15_09_11_07_2024_HR4C61891__151__15-11-11-501.txt Node

Date: Thu Nov 07 15:11:11 EST 2024
User: crc00042
Spectrometer: HR4C6189
Trigger mode: 4
Integration Time (sec): 1.000000E-1
Scans to average: 1
Electric dark correction enabled: true
Nonlinearity correction enabled: false
Boxcar width: 0
XAxis mode: Wavelengths
Number of Pixels in Spectrum: 3648
>>>>>Begin Spectral Data<<<<<
639.567	-55
639.602	-55
639.636	-55
639.67	-37
639.704	-12
639.738	-3
639.773	11
639.807	-11
639.841	7
639.875	-1
639.909	11
639.943	-2
639.978	-15
640.012	3
640.046	15
640.08	2
640.114	-10
640.148	-7
640.182	-6
640.217	-8
640.251	8
640.285	-10
640.319	-6
640.353	3
640.387	4
640.421	-8
640.455	-11
640.49	1
640.524	-5
640.558	4
640.592	-3
640.626	-6
640.66	3
640.694	-25
640.728	9
640.762	24
640.796	11
640.83	17
640.865	-7
640.899	17
640.933	7
640.967	12
641.001	0
641.035	-14
641.069	7
641.103	-5
641.137	-5
641.171	-25
641.205	8
641.239	-5
641.273	6
641.307	1
641.341	4
641.375	-12
641.409	4
641.443	-25
641.477	9
641.511	4
641.545	-2
641.579	-4
641.614	-1
641.648	-4
641.682	-11
641.716	10
641.75	15
641.784	-6
641.818	-1
641.852	21
641.886	-8
641.919	18
641.953	1
641.987	-15
642.021	-16
642.055	-2
642.089	7
642.123	-18
642.157	-1
642.191	-17
642.225	9
642.259	-5
642.293	-1
642.327	9
642.361	11
642.395	9
642.429	3
642.463	4
642.497	9
642.531	-2
642.565	2
642.599	26
642.633	-8
642.666	3
642.7	10
642.734	-1
642.768	-15
642.802	8
642.836	-2
642.87	-9
642.904	2
642.938	14
642.972	-25
643.005	-2
643.039	3
643.073	-14
643.107	-3
643.141	2
643.175	1
643.209	2
643.243	0
643.276	4
643.31	3
643.344	-5
643.378	-7
643.412	-2
643.446	-8
643.48	-9
643.513	-1
643.547	-2
643.581	1
643.615	-1
643.649	7
643.683	22
643.716	-5
643.75	-14
643.784	5
643.818	1
643.852	-5
643.886	-4
643.919	3
643.953	-4
643.987	-8
644.021	3
644.055	-2
644.088	-12
644.122	-8
644.156	2
644.19	-6
644.224	8
644.257	12
644.291	11
644.325	2
644.359	-3
644.392	22
644.426	22
644.46	-2
644.494	5
644.527	0
644.561	1
644.595	0
644.629	-9
644.662	-12
644.696	3
644.73	-1
644.764	3
644.797	-2
644.831	-11
644.865	-6
644.899	0
644.932	22
644.966	-12
645	11
645.033	12
645.067	9
645.101	17
645.135	10
645.168	4
645.202	-12
645.236	-9
645.269	7
645.303	9
645.337	2
645.37	-8
645.404	2
645.438	8
645.471	-5
645.505	17
645.539	-14
645.572	-6
645.606	3
645.64	-7
645.673	7
645.707	23
645.741	7
645.774	-19
645.808	16
645.842	4
645.875	7
645.909	-16
645.943	-13
645.976	-2
646.01	19
646.043	14
646.077	22
646.111	12
646.144	0
646.178	2
646.212	-15
646.245	-10
646.279	-7
646.312	0
646.346	7
646.38	0
646.413	12
646.447	-5
646.48	3
646.514	3
646.547	3
646.581	-5
646.615	-7
646.648	0
646.682	0
646.715	-2
646.749	2
646.782	8
646.816	-5
646.85	0
646.883	-26
646.917	3
646.95	4
646.984	1
647.017	-4
647.051	9
647.084	15
647.118	3
647.151	-1
647.185	14
647.218	-6
647.252	23
647.285	-5
647.319	-27
647.353	14
647.386	9
647.42	19
647.453	0
647.487	-9
647.52	0
647.553	-14
647.587	12
647.62	-9
647.654	22
647.687	6
647.721	9
647.754	5
647.788	11
647.821	-5
647.855	-5
647.888	19
647.922	-5
647.955	7
647.989	-3
648.022	-4
648.055	0
648.089	-2
648.122	20
648.156	-5
648.189	2
648.223	12
648.256	22
648.29	-3
648.323	7
648.356	13
648.39	-5
648.423	-10
648.457	12
648.49	5
648.523	6
648.557	0
648.59	-16
648.624	3
648.657	13
648.69	11
648.724	6
648.757	7
648.791	19
648.824	8
648.857	-6
648.891	7
648.924	14
648.957	15
648.991	-10
649.024	3
649.057	2
649.091	0
649.124	7
649.158	19
649.191	10
649.224	11
649.258	5
649.291	13
649.324	-4
649.358	7
649.391	11
649.424	10
649.458	-4
649.491	-1
649.524	1
649.557	-5
649.591	-24
649.624	2
649.657	-2
649.691	-16
649.724	-19
649.757	2
649.791	-8
649.824	3
649.857	22
649.89	5
649.924	-5
649.957	18
649.99	-21
650.023	-3
650.057	-13
650.09	-11
650.123	7
650.157	27
650.19	30
650.223	-18
650.256	-11
650.29	-11
650.323	2
650.356	10
650.389	0
650.423	-5
650.456	12
650.489	-3
650.522	-13
650.555	27
650.589	1
650.622	-6
650.655	14
650.688	1
650.721	-7
650.755	-6
650.788	1
650.821	-5
650.854	0
650.887	3
650.921	10
650.954	5
650.987	9
651.02	-9
651.053	-21
651.087	-7
651.12	8
651.153	18
651.186	14
651.219	-7
651.252	1
651.286	-4
651.319	-7
651.352	-2
651.385	6
651.418	-11
651.451	1
651.484	1
651.518	-10
651.551	26
651.584	-9
651.617	13
651.65	6
651.683	-2
651.716	-3
651.749	-15
651.783	-10
651.816	15
651.849	4
651.882	0
651.915	2
651.948	5
651.981	7
652.014	-17
652.047	-11
652.08	4
652.114	6
652.147	-13
652.18	13
652.213	35
652.246	-5
652.279	0
652.312	15
652.345	-14
652.378	7
652.411	33
652.444	9
652.477	4
652.51	-4
652.543	-13
652.576	3
652.609	1
652.642	18
652.675	-5
652.709	-6
652.742	9
652.775	2
652.808	13
652.841	-1
652.874	14
652.907	12
652.94	-3
652.973	-16
653.006	-3
653.039	-6
653.072	2
653.105	-2
653.138	-18
653.171	-2
653.204	7
653.237	-1
653.27	7
653.303	4
653.336	0
653.368	2
653.401	10
653.434	7
653.467	19
653.5	-2
653.533	1
653.566	-11
653.599	0
653.632	7
653.665	-8
653.698	-7
653.731	-11
653.764	5
653.797	-1
653.83	4
653.863	18
653.896	7
653.929	11
653.961	-1
653.994	-6
654.027	-13
654.06	2
654.093	11
654.126	3
654.159	-10
654.192	1
654.225	-2
654.258	-5
654.29	-5
654.323	2
654.356	-8
654.389	3
654.422	5
654.455	-9
654.488	2
654.521	-33
654.553	-18
654.586	-4
654.619	-3
654.652	5
654.685	-8
654.718	-3
654.751	11
654.783	3
654.816	22
654.849	13
654.882	6
654.915	-10
654.948	6
654.98	-7
655.013	-14
655.046	9
655.079	-4
655.112	12
655.144	-6
655.177	-3
655.21	15
655.243	15
655.276	14
655.308	-5
655.341	-5
655.374	3
655.407	-3
655.44	-8
655.472	18
655.505	6
655.538	12
655.571	3
655.603	1
655.636	4
655.669	19
655.702	19
655.734	17
655.767	-5
655.8	13
655.833	36
655.865	39
655.898	21
655.931	21
655.964	38
655.996	55
656.029	64
656.062	52
656.095	84
656.127	56
656.16	90
656.193	125
656.225	170
656.258	291
656.291	498
656.324	1115
656.356	3428
656.389	7574
656.422	6031
656.454	2098
656.487	657
656.52	271
656.552	125
656.585	71
656.618	49
656.65	39
656.683	8
656.716	15
656.748	13
656.781	-3
656.814	4
656.846	3
656.879	-12
656.912	-2
656.944	-31
656.977	-22
657.01	-10
657.042	26
657.075	13
657.108	-9
657.14	8
657.173	25
657.205	30
657.238	-2
657.271	-8
657.303	-6
657.336	-2
657.369	-8
657.401	0
657.434	-15
657.466	-8
657.499	-2
657.532	1
657.564	-5
657.597	-6
657.629	15
657.662	4
657.694	4
657.727	-19
657.76	10
657.792	4
657.825	-4
657.857	-11
657.89	-7
657.922	18
657.955	5
657.987	-8
658.02	18
658.053	10
658.085	1
658.118	5
658.15	11
658.183	25
658.215	-7
658.248	-9
658.28	14
658.313	18
658.345	19
658.378	2
658.41	10
658.443	-2
658.475	-15
658.508	-13
658.54	-1
658.573	-4
658.605	-10
658.638	-2
658.67	7
658.703	-2
658.735	-6
658.768	-10
658.8	-15
658.833	15
658.865	9
658.898	2
658.93	6
658.963	3
658.995	-11
659.028	8
659.06	12
659.092	8
659.125	-10
659.157	-2
659.19	-9
659.222	-8
659.255	0
659.287	-11
659.32	-8
659.352	-2
659.384	17
659.417	2
659.449	-3
659.482	5
659.514	-8
659.546	4
659.579	-12
659.611	3
659.644	-8
659.676	6
659.708	-18
659.741	-24
659.773	8
659.806	7
659.838	-1
659.87	-4
659.903	-21
659.935	-18
659.967	-6
660	9
660.032	-11
660.065	13
660.097	-3
660.129	5
660.162	-17
660.194	2
660.226	15
660.259	1
660.291	4
660.323	-8
660.356	15
660.388	6
660.42	14
660.453	14
660.485	12
660.517	10
660.55	15
660.582	-4
660.614	24
660.647	5
660.679	-30
660.711	0
660.743	-15
660.776	-3
660.808	18
660.84	2
660.873	-3
660.905	-5
660.937	7
660.969	-17
661.002	1
661.034	3
661.066	5
661.099	12
661.131	6
661.163	0
661.195	-2
661.228	10
661.26	5
661.292	-6
661.324	6
661.357	9
661.389	4
661.421	4
661.453	-4
661.485	0
661.518	-12
661.55	5
661.582	-15
661.614	-17
661.647	6
661.679	9
661.711	5
661.743	10
661.775	3
661.808	20
661.84	-7
661.872	1
661.904	-9
661.936	-12
661.969	-17
662.001	-4
662.033	-3
662.065	-9
662.097	6
662.129	17
662.162	-6
662.194	-5
662.226	-2
662.258	16
662.29	-6
662.322	-20
662.355	-18
662.387	14
662.419	-6
662.451	17
662.483	21
662.515	7
662.547	5
662.58	-8
662.612	-14
662.644	-15
662.676	-10
662.708	19
662.74	6
662.772	2
662.804	5
662.836	-3
662.869	2
662.901	5
662.933	2
662.965	10
662.997	2
663.029	-16
663.061	1
663.093	0
663.125	10
663.157	-1
663.189	5
663.221	9
663.254	9
663.286	7
663.318	-10
663.35	-11
663.382	-6
663.414	-12
663.446	2
663.478	-7
663.51	24
663.542	-15
663.574	0
663.606	11
663.638	-11
663.67	-9
663.702	10
663.734	8
663.766	13
663.798	0
663.83	4
663.862	15
663.894	1
663.926	-10
663.958	19
663.99	6
664.022	-13
664.054	-2
664.086	4
664.118	-6
664.15	-12
664.182	-3
664.214	2
664.246	-3
664.278	-14
664.31	21
664.342	17
664.374	0
664.406	12
664.438	6
664.47	12
664.502	3
664.534	-13
664.566	-2
664.598	13
664.63	-17
664.662	-11
664.693	-4
664.725	0
664.757	-7
664.789	0
664.821	-2
664.853	19
664.885	17
664.917	-1
664.949	6
664.981	2
665.013	3
665.045	5
665.076	9
665.108	-4
665.14	-18
665.172	-2
665.204	-8
665.236	-6
665.268	3
665.3	-9
665.331	-21
665.363	3
665.395	-20
665.427	-10
665.459	4
665.491	-17
665.523	4
665.555	9
665.586	-2
665.618	-6
665.65	-3
665.682	2
665.714	-1
665.746	-5
665.777	4
665.809	2
665.841	8
665.873	3
665.905	6
665.937	17
665.968	7
666	-10
666.032	11
666.064	-5
666.096	3
666.127	17
666.159	19
666.191	4
666.223	-1
666.255	3
666.286	-4
666.318	0
666.35	9
666.382	0
666.413	-5
666.445	-11
666.477	-18
666.509	-2
666.54	10
666.572	-2
666.604	3
666.636	1
666.667	-4
666.699	14
666.731	7
666.763	-9
666.794	1
666.826	3
666.858	-14
666.89	9
666.921	3
666.953	6
666.985	21
667.017	14
667.048	-1
667.08	-3
667.112	-5
667.143	11
667.175	10
667.207	0
667.238	-2
667.27	6
667.302	-1
667.334	7
667.365	10
667.397	-6
667.429	-7
667.46	18
667.492	2
667.524	-2
667.555	-16
667.587	-9
667.619	-3
667.65	0
667.682	-4
667.714	-4
667.745	-4
667.777	-1
667.808	2
667.84	7
667.872	0
667.903	11
667.935	-3
667.967	5
667.998	17
668.03	-6
668.061	6
668.093	-4
668.125	3
668.156	-2
668.188	3
668.22	-17
668.251	-7
668.283	-1
668.314	30
668.346	-7
668.377	5
668.409	-2
668.441	17
668.472	16
668.504	10
668.535	10
668.567	7
668.599	0
668.63	-1
668.662	6
668.693	7
668.725	25
668.756	1
668.788	-4
668.819	-9
668.851	4
668.882	-17
668.914	-16
668.946	6
668.977	-21
669.009	-11
669.04	-20
669.072	-5
669.103	1
669.135	-2
669.166	3
669.198	-1
669.229	4
669.261	0
669.292	-16
669.324	11
669.355	13
669.387	-5
669.418	1
669.45	-4
669.481	14
669.513	7
669.544	-6
669.576	-15
669.607	21
669.639	11
669.67	-5
669.701	-2
669.733	4
669.764	1
669.796	1
669.827	-1
669.859	-22
669.89	0
669.922	15
669.953	13
669.985	2
670.016	6
670.047	-8
670.079	-5
670.11	3
670.142	8
670.173	2
670.204	-7
670.236	-7
670.267	-17
670.299	8
670.33	-5
670.362	-5
670.393	-18
670.424	-4
670.456	-9
670.487	2
670.518	-3
670.55	-4
670.581	2
670.613	16
670.644	-14
670.675	-25
670.707	1
670.738	0
670.769	-5
670.801	-19
670.832	-5
670.864	-23
670.895	-9
670.926	2
670.958	-3
670.989	7
671.02	-9
671.052	-3
671.083	6
671.114	-19
671.146	19
671.177	4
671.208	2
671.24	-18
671.271	4
671.302	28
671.333	0
671.365	0
671.396	-21
671.427	-11
671.459	18
671.49	2
671.521	9
671.553	-8
671.584	-5
671.615	-8
671.646	6
671.678	-11
671.709	-16
671.74	-7
671.771	-3
671.803	-1
671.834	-5
671.865	4
671.896	-4
671.928	1
671.959	-5
671.99	-15
672.021	0
672.053	-1
672.084	7
672.115	0
672.146	-2
672.178	-23
672.209	-18
672.24	-8
672.271	17
672.303	8
672.334	-5
672.365	-9
672.396	5
672.427	15
672.459	1
672.49	24
672.521	9
672.552	4
672.583	14
672.615	3
672.646	5
672.677	-15
672.708	0
672.739	18
672.77	16
672.802	4
672.833	-6
672.864	-6
672.895	-8
672.926	-9
672.957	-14
672.989	5
673.02	9
673.051	0
673.082	10
673.113	-6
673.144	-4
673.175	-1
673.206	-18
673.238	-1
673.269	-11
673.3	-14
673.331	6
673.362	8
673.393	1
673.424	12
673.455	5
673.487	-7
673.518	2
673.549	5
673.58	-6
673.611	2
673.642	-1
673.673	-24
673.704	3
673.735	2
673.766	-4
673.797	-9
673.828	4
673.86	-16
673.891	-14
673.922	-22
673.953	-25
673.984	-2
674.015	3
674.046	-12
674.077	-6
674.108	-16
674.139	3
674.17	-14
674.201	-12
674.232	3
674.263	-2
674.294	-7
674.325	-11
674.356	1
674.387	0
674.418	2
674.449	-16
674.48	-2
674.511	3
674.542	-6
674.573	-6
674.604	2
674.635	-2
674.666	4
674.697	-4
674.728	1
674.759	-10
674.79	-7
674.821	-11
674.852	-1
674.883	-6
674.914	-13
674.945	-2
674.976	0
675.007	2
675.038	-7
675.069	-19
675.1	5
675.131	3
675.162	-15
675.193	-11
675.224	-12
675.254	0
675.285	12
675.316	14
675.347	14
675.378	-3
675.409	-5
675.44	-2
675.471	-4
675.502	-15
675.533	-11
675.564	-1
675.595	7
675.625	11
675.656	12
675.687	-12
675.718	-26
675.749	-1
675.78	-7
675.811	-5
675.842	21
675.873	-2
675.903	-22
675.934	16
675.965	6
675.996	-4
676.027	5
676.058	-5
676.089	-14
676.119	6
676.15	0
676.181	-3
676.212	-3
676.243	12
676.274	7
676.304	5
676.335	-10
676.366	-3
676.397	4
676.428	2
676.459	3
676.489	6
676.52	4
676.551	-1
676.582	-14
676.613	-17
676.643	-18
676.674	9
676.705	-19
676.736	0
676.767	3
676.797	-3
676.828	-6
676.859	-9
676.89	-8
676.92	-8
676.951	-5
676.982	-5
677.013	0
677.044	12
677.074	2
677.105	-6
677.136	-13
677.167	-18
677.197	11
677.228	-5
677.259	-2
677.289	1
677.32	-6
677.351	-12
677.382	-15
677.412	-7
677.443	13
677.474	4
677.505	-13
677.535	0
677.566	-14
677.597	-17
677.627	-12
677.658	-8
677.689	-20
677.72	-10
677.75	-7
677.781	-5
677.812	-3
677.842	4
677.873	-11
677.904	-2
677.934	-6
677.965	-33
677.996	-26
678.026	-15
678.057	-4
678.088	-6
678.118	-4
678.149	-10
678.18	2
678.21	16
678.241	1
678.272	-15
678.302	-4
678.333	7
678.363	-5
678.394	-5
678.425	15
678.455	9
678.486	13
678.517	-9
678.547	7
678.578	3
678.608	-15
678.639	5
678.67	2
678.7	-15
678.731	-23
678.761	-11
678.792	-1
678.823	8
678.853	0
678.884	-6
678.914	-6
678.945	12
678.975	-7
679.006	15
679.037	1
679.067	15
679.098	11
679.128	-6
679.159	-1
679.189	-1
679.22	-1
679.25	-9
679.281	-7
679.312	-1
679.342	6
679.373	34
679.403	3
679.434	-4
679.464	-14
679.495	9
679.525	15
679.556	9
679.586	12
679.617	1
679.647	-9
679.678	-22
679.708	-7
679.739	12
679.769	0
679.8	-19
679.83	-7
679.861	7
679.891	-14
679.922	-28
679.952	-5
679.983	-21
680.013	-9
680.044	-2
680.074	15
680.105	10
680.135	-9
680.165	3
680.196	4
680.226	-1
680.257	-1
680.287	-5
680.318	-2
680.348	-14
680.379	10
680.409	4
680.439	-7
680.47	-1
680.5	2
680.531	6
680.561	4
680.592	22
680.622	1
680.652	2
680.683	5
680.713	-13
680.744	-14
680.774	-9
680.804	6
680.835	-23
680.865	-19
680.896	10
680.926	-6
680.956	5
680.987	-1
681.017	5
681.047	2
681.078	4
681.108	-3
681.139	2
681.169	-5
681.199	-6
681.23	3
681.26	-13
681.29	-4
681.321	-3
681.351	14
681.381	-14
681.412	-5
681.442	-5
681.472	3
681.503	2
681.533	1
681.563	-13
681.594	-14
681.624	3
681.654	11
681.685	-3
681.715	8
681.745	10
681.775	6
681.806	9
681.836	7
681.866	-8
681.897	-2
681.927	-14
681.957	-3
681.987	4
682.018	-18
682.048	4
682.078	-6
682.109	6
682.139	-4
682.169	-1
682.199	4
682.23	-7
682.26	-9
682.29	-12
682.32	-7
682.351	-8
682.381	-2
682.411	-7
682.441	-14
682.472	-12
682.502	-11
682.532	-14
682.562	2
682.592	10
682.623	2
682.653	1
682.683	-20
682.713	0
682.743	-15
682.774	-9
682.804	2
682.834	22
682.864	-4
682.894	2
682.925	-3
682.955	-7
682.985	-22
683.015	8
683.045	-6
683.076	-4
683.106	4
683.136	-10
683.166	0
683.196	2
683.226	0
683.257	1
683.287	-10
683.317	-3
683.347	0
683.377	2
683.407	-3
683.437	14
683.468	17
683.498	-2
683.528	-2
683.558	-11
683.588	-1
683.618	-7
683.648	-12
683.678	1
683.708	7
683.739	6
683.769	-3
683.799	1
683.829	-14
683.859	1
683.889	-5
683.919	-1
683.949	6
683.979	-6
684.009	-1
684.039	-14
684.07	-22
684.1	15
684.13	7
684.16	2
684.19	-13
684.22	-10
684.25	5
684.28	-13
684.31	12
684.34	6
684.37	2
684.4	1
684.43	8
684.46	0
684.49	1
684.52	-6
684.55	8
684.58	7
684.61	0
684.64	-1
684.67	13
684.7	8
684.73	18
684.76	-10
684.79	-2
684.82	-5
684.85	-7
684.88	-2
684.91	10
684.94	-2
684.97	2
685	2
685.03	-8
685.06	-8
685.09	0
685.12	24
685.15	-10
685.18	6
685.21	0
685.24	9
685.27	10
685.3	3
685.33	5
685.36	7
685.39	8
685.42	-16
685.45	-8
685.48	-2
685.51	-13
685.54	8
685.569	-4
685.599	-3
685.629	-6
685.659	6
685.689	4
685.719	-6
685.749	-7
685.779	3
685.809	12
685.839	-1
685.869	-19
685.898	1
685.928	3
685.958	-3
685.988	-10
686.018	-2
686.048	14
686.078	15
686.108	13
686.137	13
686.167	9
686.197	-8
686.227	-19
686.257	15
686.287	-7
686.317	4
686.346	5
686.376	-5
686.406	-18
686.436	8
686.466	-11
686.496	6
686.525	14
686.555	-1
686.585	11
686.615	20
686.645	3
686.675	8
686.704	3
686.734	9
686.764	-17
686.794	9
686.824	6
686.853	15
686.883	3
686.913	-15
686.943	-19
686.973	-8
687.002	5
687.032	-7
687.062	0
687.092	22
687.121	3
687.151	-7
687.181	-5
687.211	6
687.24	6
687.27	-18
687.3	-6
687.33	-1
687.359	-14
687.389	1
687.419	-9
687.449	-11
687.478	11
687.508	-16
687.538	-11
687.568	-2
687.597	8
687.627	21
687.657	-12
687.686	17
687.716	29
687.746	-10
687.776	-2
687.805	8
687.835	1
687.865	3
687.894	7
687.924	-4
687.954	1
687.983	17
688.013	21
688.043	-2
688.072	-11
688.102	2
688.132	5
688.161	-8
688.191	-4
688.221	17
688.25	-18
688.28	-1
688.31	2
688.339	0
688.369	-13
688.399	-15
688.428	-12
688.458	6
688.488	11
688.517	2
688.547	2
688.576	29
688.606	14
688.636	-6
688.665	-3
688.695	2
688.725	7
688.754	7
688.784	5
688.813	19
688.843	-5
688.873	-1
688.902	10
688.932	9
688.961	5
688.991	6
689.02	8
689.05	9
689.08	11
689.109	7
689.139	-8
689.168	2
689.198	2
689.227	6
689.257	11
689.287	22
689.316	9
689.346	-2
689.375	-6
689.405	0
689.434	-15
689.464	-13
689.493	-10
689.523	-9
689.552	-16
689.582	-2
689.611	-6
689.641	-4
689.67	-5
689.7	3
689.73	-3
689.759	1
689.789	0
689.818	-2
689.848	-5
689.877	11
689.906	-11
689.936	-13
689.965	1
689.995	-10
690.024	0
690.054	-2
690.083	-8
690.113	10
690.142	0
690.172	10
690.201	-3
690.231	-3
690.26	3
690.29	-5
690.319	2
690.348	4
690.378	0
690.407	-1
690.437	-6
690.466	10
690.496	2
690.525	12
690.555	-12
690.584	0
690.613	2
690.643	7
690.672	-6
690.702	9
690.731	3
690.76	-6
690.79	-8
690.819	-6
690.849	8
690.878	3
690.907	3
690.937	25
690.966	-1
690.996	-8
691.025	-11
691.054	-3
691.084	7
691.113	1
691.142	5
691.172	8
691.201	15
691.23	-2
691.26	14
691.289	-3
691.319	-9
691.348	-4
691.377	18
691.407	28
691.436	7
691.465	5
691.495	-5
691.524	2
691.553	4
691.583	-14
691.612	2
691.641	-14
691.67	-13
691.7	-4
691.729	-2
691.758	1
691.788	6
691.817	0
691.846	-5
691.876	-8
691.905	15
691.934	-1
691.963	15
691.993	-13
692.022	-12
692.051	-22
692.081	16
692.11	9
692.139	3
692.168	1
692.198	3
692.227	6
692.256	9
692.285	4
692.315	-1
692.344	-11
692.373	-8
692.402	-15
692.432	-12
692.461	-5
692.49	2
692.519	9
692.548	5
692.578	6
692.607	-7
692.636	-18
692.665	11
692.694	-6
692.724	2
692.753	0
692.782	25
692.811	-10
692.84	-13
692.87	1
692.899	4
692.928	-1
692.957	-1
692.986	-2
693.016	17
693.045	19
693.074	20
693.103	-11
693.132	-10
693.161	12
693.191	-2
693.22	-16
693.249	-1
693.278	12
693.307	12
693.336	-15
693.365	0
693.395	2
693.424	16
693.453	14
693.482	-16
693.511	-1
693.54	6
693.569	7
693.598	6
693.628	0
693.657	7
693.686	16
693.715	15
693.744	-7
693.773	19
693.802	8
693.831	5
693.86	15
693.889	-5
693.919	7
693.948	22
693.977	15
694.006	0
694.035	-32
694.064	-21
694.093	11
694.122	1
694.151	-16
694.18	10
694.209	17
694.238	-13
694.267	1
694.296	-8
694.325	-3
694.354	10
694.383	1
694.412	-9
694.441	-8
694.471	-3
694.5	-16
694.529	4
694.558	20
694.587	16
694.616	2
694.645	-4
694.674	16
694.703	12
694.732	-6
694.761	-3
694.79	11
694.819	-25
694.848	-4
694.877	20
694.906	1
694.935	0
694.963	26
694.992	-2
695.021	2
695.05	3
695.079	3
695.108	-3
695.137	25
695.166	18
695.195	3
695.224	19
695.253	15
695.282	12
695.311	13
695.34	-5
695.369	1
695.398	-4
695.427	19
695.456	9
695.485	13
695.513	9
695.542	-1
695.571	11
695.6	17
695.629	6
695.658	14
695.687	-4
695.716	-5
695.745	7
695.774	-17
695.802	6
695.831	-6
695.86	-1
695.889	5
695.918	4
695.947	1
695.976	-5
696.005	16
696.033	11
696.062	17
696.091	6
696.12	22
696.149	17
696.178	-4
696.207	10
696.235	-2
696.264	-5
696.293	8
696.322	1
696.351	16
696.38	20
696.408	13
696.437	-11
696.466	-2
696.495	6
696.524	12
696.553	13
696.581	8
696.61	3
696.639	4
696.668	5
696.697	2
696.725	13
696.754	-10
696.783	-2
696.812	-4
696.84	3
696.869	4
696.898	8
696.927	-6
696.956	9
696.984	-2
697.013	8
697.042	1
697.071	8
697.099	11
697.128	12
697.157	-5
697.186	-15
697.214	-9
697.243	-19
697.272	1
697.301	1
697.329	5
697.358	7
697.387	23
697.415	16
697.444	2
697.473	-1
697.502	-5
697.53	9
697.559	14
697.588	7
697.616	-5
697.645	7
697.674	18
697.703	-2
697.731	17
697.76	6
697.789	-5
697.817	7
697.846	16
697.875	0
697.903	15
697.932	21
697.961	-1
697.989	14
698.018	6
698.047	-1
698.075	4
698.104	-7
698.133	1
698.161	-7
698.19	-2
698.218	-4
698.247	7
698.276	-4
698.304	10
698.333	2
698.362	1
698.39	6
698.419	4
698.447	-10
698.476	-5
698.505	16
698.533	-1
698.562	2
698.591	3
698.619	-12
698.648	-3
698.676	3
698.705	1
698.733	-5
698.762	3
698.791	2
698.819	6
698.848	1
698.876	5
698.905	12
698.933	-2
698.962	-5
698.991	9
699.019	16
699.048	6
699.076	2
699.105	-11
699.133	-2
699.162	3
699.19	25
699.219	16
699.248	-6
699.276	-17
699.305	-12
699.333	18
699.362	3
699.39	11
699.419	-15
699.447	2
699.476	10
699.504	-1
699.533	8
699.561	-4
699.59	1
699.618	0
699.647	-5
699.675	20
699.704	15
699.732	1
699.761	1
699.789	-13
699.818	3
699.846	6
699.874	-2
699.903	8
699.931	-10
699.96	-4
699.988	-1
700.017	0
700.045	5
700.074	-8
700.102	0
700.13	-2
700.159	4
700.187	14
700.216	-6
700.244	-10
700.273	6
700.301	2
700.329	16
700.358	15
700.386	2
700.415	7
700.443	-2
700.472	11
700.5	9
700.528	10
700.557	-3
700.585	-23
700.614	-25
700.642	2
700.67	20
700.699	8
700.727	6
700.755	3
700.784	5
700.812	-2
700.841	-5
700.869	-1
700.897	-13
700.926	-11
700.954	11
700.982	15
701.011	0
701.039	12
701.067	-1
701.096	-11
701.124	-17
701.152	-13
701.181	-5
701.209	-17
701.237	-9
701.266	-13
701.294	-3
701.322	-5
701.351	-2
701.379	11
701.407	-9
701.435	-11
701.464	2
701.492	25
701.52	7
701.549	-8
701.577	-11
701.605	-4
701.634	-1
701.662	3
701.69	-3
701.718	-7
701.747	6
701.775	-2
701.803	-7
701.831	11
701.86	-6
701.888	4
701.916	-1
701.944	3
701.973	-7
702.001	-6
702.029	-7
702.057	-12
702.086	-9
702.114	-23
702.142	5
702.17	-14
702.199	6
702.227	-2
702.255	2
702.283	-3
702.311	4
702.34	4
702.368	-22
702.396	-10
702.424	-1
702.452	-8
702.481	4
702.509	-9
702.537	-1
702.565	12
702.593	-19
702.621	-10
702.65	6
702.678	18
702.706	5
702.734	-12
702.762	9
702.79	15
702.819	2
702.847	10
702.875	6
702.903	17
702.931	-5
702.959	-3
702.988	16
703.016	-21
703.044	-7
703.072	-1
703.1	0
703.128	3
703.156	-4
703.184	-7
703.212	6
703.241	8
703.269	-4
703.297	14
703.325	15
703.353	-18
703.381	-7
703.409	1
703.437	-1
703.465	2
703.493	-10
703.522	-1
703.55	-1
703.578	10
703.606	-8
703.634	-3
703.662	-5
703.69	-15
703.718	13
703.746	3
703.774	-9
703.802	8
703.83	-8
703.858	-5
703.886	-12
703.914	-7
703.942	12
703.97	-5
703.998	-3
704.027	12
704.055	1
704.083	-3
704.111	-14
704.139	5
704.167	8
704.195	-5
704.223	-9
704.251	-14
704.279	4
704.307	-5
704.335	7
704.363	15
704.391	4
704.419	-12
704.447	-11
704.475	-4
704.503	-15
704.531	14
704.558	11
704.586	16
704.614	-2
704.642	-10
704.67	-8
704.698	5
704.726	-3
704.754	-10
704.782	-3
704.81	2
704.838	11
704.866	4
704.894	2
704.922	7
704.95	14
704.978	10
705.006	6
705.034	10
705.061	-3
705.089	-12
705.117	-17
705.145	-13
705.173	-13
705.201	0
705.229	-1
705.257	2
705.285	-8
705.313	-5
705.34	-1
705.368	-5
705.396	-18
705.424	-3
705.452	6
705.48	-2
705.508	-3
705.536	5
705.563	-6
705.591	6
705.619	10
705.647	-10
705.675	-6
705.703	-3
705.731	2
705.758	8
705.786	-2
705.814	13
705.842	5
705.87	10
705.898	11
705.925	-10
705.953	1
705.981	-6
706.009	-10
706.037	-6
706.065	1
706.092	-11
706.12	-7
706.148	-13
706.176	-13
706.204	5
706.231	3
706.259	-19
706.287	-6
706.315	12
706.342	-12
706.37	5
706.398	4
706.426	-10
706.454	10
706.481	-5
706.509	9
706.537	-2
706.565	-11
706.592	-3
706.62	3
706.648	6
706.676	-8
706.703	0
706.731	1
706.759	-7
706.787	-3
706.814	-10
706.842	5
706.87	-19
706.897	-4
706.925	-7
706.953	1
706.981	5
707.008	5
707.036	0
707.064	3
707.091	-9
707.119	18
707.147	-5
707.174	-9
707.202	12
707.23	-15
707.258	-7
707.285	-9
707.313	-14
707.341	-15
707.368	-11
707.396	-10
707.424	17
707.451	0
707.479	-14
707.507	-6
707.534	-16
707.562	-7
707.59	-12
707.617	3
707.645	2
707.672	-4
707.7	15
707.728	11
707.755	8
707.783	-3
707.811	6
707.838	9
707.866	-2
707.893	10
707.921	-7
707.949	-3
707.976	5
708.004	3
708.031	5
708.059	-7
708.087	-13
708.114	-10
708.142	-4
708.169	-8
708.197	-16
708.225	-14
708.252	-9
708.28	3
708.307	-7
708.335	-6
708.362	1
708.39	-7
708.418	-1
708.445	-14
708.473	-2
708.5	-10
708.528	4
708.555	-1
708.583	-9
708.61	-6
708.638	7
708.665	-12
708.693	-7
708.72	-10
708.748	-13
708.776	5
708.803	18
708.831	9
708.858	13
708.886	-1
708.913	4
708.941	-7
708.968	2
708.996	9
709.023	26
709.051	-5
709.078	-7
709.105	1
709.133	-5
709.16	2
709.188	8
709.215	1
709.243	-8
709.27	-10
709.298	-10
709.325	-12
709.353	-14
709.38	0
709.408	-9
709.435	2
709.462	-4
709.49	-6
709.517	-10
709.545	7
709.572	-2
709.6	1
709.627	-6
709.655	-1
709.682	-2
709.709	8
709.737	7
709.764	-13
709.792	18
709.819	-1
709.846	0
709.874	10
709.901	11
709.929	0
709.956	5
709.983	-16
710.011	-10
710.038	-10
710.066	-1
710.093	17
710.12	12
710.148	-4
710.175	-6
710.202	-14
710.23	13
710.257	-11
710.284	8
710.312	1
710.339	-3
710.366	-15
710.394	-3
710.421	5
710.448	-2
710.476	-8
710.503	12
710.53	6
710.558	24
710.585	8
710.612	-1
710.64	17
710.667	11
710.694	-5
710.722	-7
710.749	-18
710.776	4
710.804	4
710.831	-11
710.858	-15
710.885	-13
710.913	5
710.94	9
710.967	2
710.995	4
711.022	-8
711.049	-2
711.076	-8
711.104	-3
711.131	-6
711.158	-13
711.185	14
711.213	-24
711.24	-9
711.267	-5
711.294	3
711.322	6
711.349	-3
711.376	3
711.403	1
711.431	1
711.458	0
711.485	-15
711.512	4
711.54	-6
711.567	-2
711.594	3
711.621	-8
711.648	-1
711.676	17
711.703	1
711.73	-20
711.757	1
711.784	-7
711.812	-10
711.839	-6
711.866	-23
711.893	-25
711.92	19
711.947	-6
711.975	3
712.002	-3
712.029	0
712.056	-9
712.083	-6
712.11	-6
712.138	2
712.165	8
712.192	-3
712.219	-17
712.246	-15
712.273	-1
712.3	-6
712.328	-13
712.355	7
712.382	-8
712.409	10
712.436	-9
712.463	7
712.49	21
712.517	8
712.544	-1
712.572	-17
712.599	-1
712.626	0
712.653	-6
712.68	-8
712.707	3
712.734	6
712.761	-7
712.788	-1
712.815	9
712.842	18
712.87	-2
712.897	1
712.924	-8
712.951	-9
712.978	9
713.005	13
713.032	16
713.059	-9
713.086	-2
713.113	-9
713.14	-2
713.167	-1
713.194	17
713.221	2
713.248	9
713.275	-11
713.302	5
713.329	2
713.356	2
713.383	1
713.41	7
713.437	-7
713.464	-3
713.491	3
713.518	-1
713.545	-8
713.572	5
713.599	24
713.626	-12
713.653	6
713.68	-10
713.707	-10
713.734	5
713.761	-7
713.788	-6
713.815	5
713.842	1
713.869	-11
713.896	-2
713.923	7
713.95	-17
713.977	-15
714.004	9
714.031	-11
714.058	-5
714.085	0
714.112	17
714.139	14
714.165	7
714.192	-10
714.219	10
714.246	-7
714.273	-5
714.3	-12
714.327	-15
714.354	5
714.381	0
714.408	-7
714.435	-8
714.461	9
714.488	4
714.515	9
714.542	-7
714.569	-19
714.596	-5
714.623	5
714.65	-7
714.677	-4
714.703	-5
714.73	6
714.757	-16
714.784	-10
714.811	-16
714.838	14
714.865	-6
714.891	21
714.918	3
714.945	-7
714.972	-9
714.999	0
715.026	-10
715.052	3
715.079	-8
715.106	8
715.133	-2
715.16	-8
715.187	6
715.213	13
715.24	7
715.267	3
715.294	-6
715.321	0
715.347	-6
715.374	-13
715.401	-8
715.428	-10
715.455	-12
715.481	-12
715.508	11
715.535	-8
715.562	8
715.588	10
715.615	-9
715.642	-6
715.669	11
715.695	-13
715.722	1
715.749	0
715.776	16
715.802	-3
715.829	-1
715.856	-19
715.883	16
715.909	-10
715.936	-11
715.963	4
715.99	-5
716.016	-5
716.043	-2
716.07	5
716.096	-10
716.123	16
716.15	17
716.177	11
716.203	0
716.23	12
716.257	-3
716.283	1
716.31	2
716.337	-2
716.363	-3
716.39	-6
716.417	3
716.443	-9
716.47	-5
716.497	0
716.523	5
716.55	3
716.577	19
716.603	-5
716.63	-2
716.657	21
716.683	11
716.71	8
716.737	-6
716.763	11
716.79	-3
716.817	10
716.843	6
716.87	-12
716.897	-18
716.923	16
716.95	6
716.976	0
717.003	1
717.03	2
717.056	-5
717.083	1
717.109	11
717.136	-7
717.163	-3
717.189	-7
717.216	-6
717.242	-5
717.269	-11
717.296	-14
717.322	10
717.349	0
717.375	-2
717.402	3
717.428	-18
717.455	5
717.481	-5
717.508	-8
717.535	0
717.561	1
717.588	-5
717.614	-10
717.641	3
717.667	3
717.694	-8
717.72	-9
717.747	3
717.773	-4
717.8	8
717.826	2
717.853	0
717.88	20
717.906	3
717.933	12
717.959	12
717.986	0
718.012	-1
718.039	-5
718.065	12
718.092	-1
718.118	-13
718.144	-8
718.171	11
718.197	18
718.224	-3
718.25	3
718.277	15
718.303	0
718.33	-3
718.356	-7
718.383	-14
718.409	5
718.436	-1
718.462	-6
718.489	-19
718.515	-6
718.541	9
718.568	17
718.594	18
718.621	2
718.647	2
718.674	31
718.7	12
718.726	-10
718.753	-1
718.779	-16
718.806	-19
718.832	-8
718.858	6
718.885	-12
718.911	-10
718.938	9
718.964	-7
718.99	11
719.017	-3
719.043	6
719.07	4
719.096	-15
719.122	-5
719.149	10
719.175	6
719.201	-20
719.228	-2
719.254	-2
719.281	-16
719.307	-15
719.333	-3
719.36	10
719.386	-8
719.412	-10
719.439	-12
719.465	8
719.491	1
719.518	7
719.544	17
719.57	15
719.597	-11
719.623	-11
719.649	5
719.675	1
719.702	-6
719.728	18
719.754	-13
719.781	-6
719.807	3
719.833	5
719.86	6
719.886	3
719.912	-8
719.938	5
719.965	-1
719.991	9
720.017	-8
720.044	-10
720.07	-1
720.096	9
720.122	13
720.149	8
720.175	19
720.201	10
720.227	-5
720.254	-5
720.28	-3
720.306	-7
720.332	5
720.359	3
720.385	13
720.411	-2
720.437	6
720.463	2
720.49	1
720.516	-7
720.542	-10
720.568	0
720.595	14
720.621	10
720.647	0
720.673	-7
720.699	-5
720.725	2
720.752	12
720.778	17
720.804	10
720.83	1
720.856	-6
720.883	5
720.909	-5
720.935	14
720.961	5
720.987	0
721.013	-3
721.04	-5
721.066	-6
721.092	-14
721.118	6
721.144	6
721.17	-6
721.196	-1
721.223	-7
721.249	-6
721.275	17
721.301	6
721.327	8
721.353	0
721.379	-12
721.405	2
721.432	14
721.458	-6
721.484	-7
721.51	-17
721.536	-6
721.562	-1
721.588	-9
721.614	-7
721.64	-1
721.666	-14
721.693	-8
721.719	3
721.745	-20
721.771	-2
721.797	2
721.823	-17
721.849	12
721.875	2
721.901	8
721.927	-2
721.953	0
721.979	-3
722.005	8
722.031	-2
722.057	-1
722.083	1
722.109	15
722.135	9
722.161	8
722.187	-1
722.214	-21
722.24	-4
722.266	-7
722.292	0
722.318	23
722.344	6
722.37	14
722.396	-2
722.422	-14
722.448	5
722.474	-5
722.5	8
722.526	14
722.552	15
722.578	15
722.603	14
722.629	-1
722.655	-3
722.681	-9
722.707	2
722.733	-2
722.759	3
722.785	-3
722.811	-11
722.837	-4
722.863	0
722.889	2
722.915	5
722.941	-3
722.967	2
722.993	2
723.019	13
723.045	5
723.071	3
723.097	-15
723.122	0
723.148	-13
723.174	9
723.2	1
723.226	-10
723.252	-16
723.278	-8
723.304	-4
723.33	-4
723.356	5
723.381	-23
723.407	-13
723.433	2
723.459	-12
723.485	-12
723.511	5
723.537	1
723.563	-6
723.588	-2
723.614	18
723.64	-5
723.666	4
723.692	10
723.718	10
723.744	7
723.769	6
723.795	-6
723.821	14
723.847	4
723.873	7
723.899	0
723.924	2
723.95	-3
723.976	-17
724.002	-6
724.028	3
724.053	-3
724.079	-12
724.105	-5
724.131	0
724.157	4
724.182	-2
724.208	2
724.234	7
724.26	2
724.286	16
724.311	-7
724.337	7
724.363	-5
724.389	15
724.415	1
724.44	12
724.466	-2
724.492	6
724.518	-1
724.543	5
724.569	13
724.595	9
724.621	-9
724.646	5
724.672	6
724.698	-2
724.723	-10
724.749	-10
724.775	7
724.801	1
724.826	4
724.852	-2
724.878	-6
724.904	-19
724.929	-3
724.955	-5
724.981	-2
725.006	-10
725.032	-13
725.058	6
725.083	-2
725.109	-3
725.135	-2
725.161	6
725.186	0
725.212	-1
725.238	6
725.263	-1
725.289	-12
725.315	-15
725.34	-2
725.366	8
725.392	-3
725.417	-12
725.443	3
725.468	5
725.494	7
725.52	11
725.545	13
725.571	1
725.597	-7
725.622	-6
725.648	3
725.674	19
725.699	-2
725.725	-18
725.75	15
725.776	5
725.802	3
725.827	8
725.853	1
725.878	6
725.904	15
725.93	-3
725.955	-6
725.981	-13
726.006	-16
726.032	0
726.057	-7
726.083	-7
726.109	-3
726.134	8
726.16	-10
726.185	-5
726.211	-17
726.236	12
726.262	-4
726.288	-5
726.313	1
726.339	7
726.364	5
726.39	6
726.415	-2
726.441	-12
726.466	-17
726.492	-9
726.517	1
726.543	11
726.568	-13
726.594	-18
726.619	4
726.645	3
726.67	-4
726.696	-12
726.721	-9
726.747	-21
726.772	5
726.798	3
726.823	15
726.849	6
726.874	8
726.9	29
726.925	14
726.951	-11
726.976	-2
727.002	-18
727.027	7
727.053	-1
727.078	-9
727.104	-9
727.129	-11
727.155	-17
727.18	6
727.205	7
727.231	-12
727.256	7
727.282	4
727.307	7
727.333	1
727.358	-14
727.383	-4
727.409	-2
727.434	-2
727.46	-8
727.485	4
727.511	4
727.536	-13
727.561	1
727.587	5
727.612	-19
727.637	-10
727.663	3
727.688	26
727.714	5
727.739	-5
727.764	2
727.79	12
727.815	2
727.841	0
727.866	-4
727.891	-7
727.917	-13
727.942	1
727.967	-14
727.993	-9
728.018	-9
728.043	16
728.069	14
728.094	16
728.119	2
728.145	12
728.17	16
728.195	-14
728.221	2
728.246	-5
728.271	-7
728.297	-2
728.322	10
728.347	9
728.373	5
728.398	5
728.423	-9
728.448	-7
728.474	-5
728.499	5
728.524	-9
728.55	-9
728.575	-2
728.6	-1
728.625	-1
728.651	17
728.676	-8
728.701	-8
728.727	9
728.752	-7
728.777	4
728.802	-5
728.828	-15
728.853	-18
728.878	-28
728.903	-10
728.929	-11
728.954	-5
728.979	19
729.004	-7
729.03	-1
729.055	22
729.08	-6
729.105	-9
729.13	6
729.156	10
729.181	15
729.206	1
729.231	-14
729.256	7
729.282	15
729.307	-1
729.332	-6
729.357	1
729.382	-14
729.408	-7
729.433	6
729.458	2
729.483	4
729.508	12
729.533	-2
729.559	2
729.584	-23
729.609	-19
729.634	-4
729.659	-2
729.684	-11
729.71	4
729.735	-10
729.76	-7
729.785	-7
729.81	-6
729.835	3
729.86	-14
729.886	9
729.911	4
729.936	-8
729.961	-8
729.986	-10
730.011	-8
730.036	-3
730.061	-8
730.086	-7
730.112	-3
730.137	12
730.162	3
730.187	-25
730.212	0
730.237	-11
730.262	-30
730.287	-1
730.312	15
730.337	1
730.362	14
730.387	4
730.413	-11
730.438	-9
730.463	-4
730.488	-3
730.513	0
730.538	-3
730.563	17
730.588	16
730.613	4
730.638	1
730.663	-7
730.688	-1
730.713	-6
730.738	2
730.763	0
730.788	-10
730.813	-4
730.838	-5
730.863	7
730.888	-5
730.913	-5
730.938	0
730.963	-4
730.988	1
731.013	10
731.038	-9
731.063	-5
731.088	2
731.113	-7
731.138	-13
731.163	-17
731.188	-7
731.213	13
731.238	28
731.263	-2
731.288	-16
731.313	-5
731.338	-3
731.363	2
731.388	9
731.413	5
731.438	-2
731.463	6
731.487	1
731.512	-11
731.537	5
731.562	-5
731.587	13
731.612	-12
731.637	-7
731.662	2
731.687	-6
731.712	-18
731.737	3
731.762	6
731.786	-3
731.811	4
731.836	4
731.861	3
731.886	-9
731.911	6
731.936	11
731.961	1
731.986	-8
732.01	5
732.035	5
732.06	18
732.085	2
732.11	7
732.135	-22
732.16	10
732.184	8
732.209	-11
732.234	5
732.259	-18
732.284	12
732.309	-4
732.334	-25
732.358	-22
732.383	-10
732.408	-11
732.433	2
732.458	-7
732.482	-14
732.507	-1
732.532	-12
732.557	3
732.582	6
732.607	-6
732.631	-13
732.656	-22
732.681	4
732.706	-7
732.73	-9
732.755	-15
732.78	10
732.805	4
732.83	-14
732.854	3
732.879	5
732.904	-6
732.929	-9
732.953	1
732.978	-12
733.003	-8
733.028	-16
733.052	11
733.077	4
733.102	15
733.127	3
733.151	3
733.176	5
733.201	-7
733.226	-5
733.25	-6
733.275	-4
733.3	1
733.324	15
733.349	23
733.374	17
733.399	-7
733.423	8
733.448	3
733.473	-4
733.497	4
733.522	-10
733.547	13
733.571	27
733.596	9
733.621	0
733.646	-9
733.67	7
733.695	-10
733.72	-8
733.744	-8
733.769	0
733.794	-6
733.818	-10
733.843	5
733.867	-13
733.892	-7
733.917	8
733.941	-14
733.966	-7
733.991	0
734.015	11
734.04	5
734.065	16
734.089	5
734.114	-13
734.138	-4
734.163	-24
734.188	15
734.212	1
734.237	-1
734.261	1
734.286	-15
734.311	-10
734.335	3
734.36	0
734.384	-3
734.409	6
734.434	6
734.458	2
734.483	-5
734.507	-5
734.532	-8
734.556	-3
734.581	-6
734.606	-2
734.63	-2
734.655	-13
734.679	-2
734.704	-7
734.728	-9
734.753	-1
734.777	12
734.802	-14
734.826	5
734.851	10
734.876	19
734.9	-2
734.925	18
734.949	4
734.974	-3
734.998	-6
735.023	-15
735.047	-30
735.072	19
735.096	1
735.121	17
735.145	2
735.17	-3
735.194	1
735.219	-7
735.243	-2
735.268	3
735.292	2
735.317	-2
735.341	3
735.365	-17
735.39	-3
735.414	2
735.439	12
735.463	6
735.488	-3
735.512	3
735.537	-5
735.561	1
735.586	-13
735.61	6
735.634	2
735.659	-3
735.683	19
735.708	-6
735.732	-2
735.757	2
735.781	8
735.805	-3
735.83	0
735.854	-8
735.879	-12
735.903	5
735.927	-1
735.952	-3
735.976	-2
736.001	-3
736.025	-4
736.049	-8
736.074	-7
736.098	-10
736.123	2
736.147	-9
736.171	-7
736.196	6
736.22	-17
736.244	-11
736.269	-3
736.293	-7
736.317	-8
736.342	-5
736.366	21
736.39	2
736.415	-1
736.439	0
736.463	20
736.488	7
736.512	8
736.536	11
736.561	16
736.585	-18
736.609	5
736.634	-3
736.658	-1
736.682	-14
736.707	-6
736.731	-5
736.755	-4
736.78	24
736.804	11
736.828	3
736.852	-5
736.877	9
736.901	4
736.925	6
736.949	-9
736.974	-10
736.998	-13
737.022	7
737.047	-18
737.071	-6
737.095	6
737.119	2
737.144	13
737.168	-15
737.192	-11
737.216	5
737.241	-14
737.265	-8
737.289	-7
737.313	-7
737.337	12
737.362	-14
737.386	-11
737.41	-6
737.434	0
737.459	3
737.483	-9
737.507	-1
737.531	-2
737.555	-5
737.58	14
737.604	-8
737.628	-12
737.652	10
737.676	-5
737.701	3
737.725	12
737.749	12
737.773	12
737.797	-10
737.821	-10
737.846	-4
737.87	13
737.894	-12
737.918	-6
737.942	-16
737.966	-1
737.99	17
738.015	7
738.039	4
738.063	6
738.087	-1
738.111	4
738.135	11
738.159	1
738.184	14
738.208	8
738.232	-3
738.256	15
738.28	-7
738.304	10
738.328	-18
738.352	-5
738.376	0
738.4	-14
738.425	10
738.449	-2
738.473	10
738.497	2
738.521	-10
738.545	3
738.569	5
738.593	12
738.617	-3
738.641	1
738.665	8
738.689	11
738.713	1
738.737	13
738.762	11
738.786	9
738.81	-11
738.834	11
738.858	2
738.882	7
738.906	-5
738.93	8
738.954	-15
738.978	8
739.002	5
739.026	-1
739.05	1
739.074	6
739.098	25
739.122	22
739.146	3
739.17	7
739.194	4
739.218	-1
739.242	1
739.266	4
739.29	6
739.314	2
739.338	2
739.362	7
739.386	7
739.41	-4
739.434	1
739.458	11
739.482	6
739.506	1
739.53	-5
739.554	-2
739.577	-12
739.601	3
739.625	-7
739.649	0
739.673	11
739.697	4
739.721	1
739.745	9
739.769	24
739.793	9
739.817	9
739.841	-5
739.865	-4
739.889	-8
739.912	6
739.936	-12
739.96	-7
739.984	21
740.008	-3
740.032	-11
740.056	-9
740.08	7
740.104	-2
740.127	-5
740.151	9
740.175	15
740.199	13
740.223	51
740.247	0
740.271	-6
740.295	-3
740.318	-8
740.342	-6
740.366	9
740.39	-1
740.414	-8
740.438	-9
740.461	5
740.485	1
740.509	-16
740.533	11
740.557	-12
740.581	-11
740.604	-5
740.628	-8
740.652	-8
740.676	4
740.7	18
740.723	2
740.747	-7
740.771	-7
740.795	-12
740.819	-2
740.842	14
740.866	18
740.89	1
740.914	-11
740.938	-9
740.961	18
740.985	0
741.009	-14
741.033	6
741.056	-3
741.08	8
741.104	-5
741.128	8
741.151	14
741.175	2
741.199	2
741.223	5
741.246	-8
741.27	-3
741.294	1
741.318	-5
741.341	-8
741.365	0
741.389	-18
741.413	-7
741.436	6
741.46	6
741.484	17
741.507	3
741.531	32
741.555	18
741.579	-6
741.602	6
741.626	14
741.65	-1
741.673	11
741.697	7
741.721	-7
741.744	-19
741.768	-19
741.792	-5
741.815	1
741.839	13
741.863	8
741.886	24
741.91	10
741.934	-7
741.957	-11
741.981	9
742.005	6
742.028	-18
742.052	-7
742.075	0
742.099	0
742.123	-3
742.146	-2
742.17	-1
742.194	-18
742.217	-2
742.241	-11
742.264	-8
742.288	9
742.312	0
742.335	-13
742.359	-6
742.382	12
742.406	24
742.43	-14
742.453	13
742.477	-18
742.5	6
742.524	14
742.548	-12
742.571	-7
742.595	-14
742.618	-6
742.642	-10
742.665	16
742.689	-7
742.712	7
742.736	-17
742.76	-5
742.783	4
742.807	2
742.83	18
742.854	-23
742.877	-10
742.901	-3
742.924	-6
742.948	2
742.971	12
742.995	2
743.018	-12
743.042	-2
743.065	-9
743.089	-17
743.112	23
743.136	-2
743.159	-8
743.183	4
743.206	0
743.23	-5
743.253	-7
743.277	-2
743.3	-15
743.324	6
743.347	5
743.371	12
743.394	-6
743.418	35
743.441	12
743.465	11
743.488	14
743.512	-8
743.535	-9
743.558	-5
743.582	-3
743.605	1
743.629	4
743.652	17
743.676	-7
743.699	-3
743.723	3
743.746	3
743.769	7
743.793	1
743.816	-5
743.84	2
743.863	-1
743.886	-1
743.91	16
743.933	6
743.957	3
743.98	1
744.003	4
744.027	2
744.05	-6
744.074	5
744.097	-9
744.12	-15
744.144	-7
744.167	8
744.19	-3
744.214	-5
744.237	-2
744.26	17
744.284	-6
744.307	-12
744.331	2
744.354	-10
744.377	-14
744.401	-5
744.424	-8
744.447	2
744.471	-12
