Data from HighRes_H2_15_09_11_07_2024_HR4C61891__68__15-11-03-202.txt Node

Date: Thu Nov 07 15:11:03 EST 2024
User: crc00042
Spectrometer: HR4C6189
Trigger mode: 4
Integration Time (sec): 1.000000E-1
Scans to average: 1
Electric dark correction enabled: true
Nonlinearity correction enabled: false
Boxcar width: 0
XAxis mode: Wavelengths
Number of Pixels in Spectrum: 3648
>>>>>Begin Spectral Data<<<<<
639.567	-18.38
639.602	-18.38
639.636	-18.38
639.67	-37.38
639.704	-16.38
639.738	-2.38
639.773	2.62
639.807	-10.38
639.841	3.62
639.875	12.62
639.909	-9.38
639.943	-15.38
639.978	-1.38
640.012	-8.38
640.046	23.62
640.08	11.62
640.114	0.62
640.148	-7.38
640.182	1.62
640.217	5.62
640.251	21.62
640.285	11.62
640.319	1.62
640.353	17.62
640.387	15.62
640.421	8.62
640.455	4.62
640.49	2.62
640.524	-0.38
640.558	-4.38
640.592	-2.38
640.626	9.62
640.66	9.62
640.694	7.62
640.728	22.62
640.762	16.62
640.796	15.62
640.83	22.62
640.865	-6.38
640.899	6.62
640.933	1.62
640.967	-10.38
641.001	3.62
641.035	11.62
641.069	10.62
641.103	-1.38
641.137	7.62
641.171	-12.38
641.205	15.62
641.239	8.62
641.273	15.62
641.307	14.62
641.341	-0.38
641.375	0.62
641.409	-18.38
641.443	-5.38
641.477	10.62
641.511	9.62
641.545	12.62
641.579	5.62
641.614	11.62
641.648	11.62
641.682	-0.38
641.716	13.62
641.75	0.62
641.784	9.62
641.818	8.62
641.852	-0.38
641.886	-9.38
641.919	24.62
641.953	-1.38
641.987	-1.38
642.021	-0.38
642.055	5.62
642.089	5.62
642.123	6.62
642.157	-6.38
642.191	5.62
642.225	13.62
642.259	-0.38
642.293	15.62
642.327	-1.38
642.361	4.62
642.395	3.62
642.429	12.62
642.463	9.62
642.497	28.62
642.531	-2.38
642.565	-8.38
642.599	26.62
642.633	6.62
642.666	3.62
642.7	16.62
642.734	16.62
642.768	-24.38
642.802	-3.38
642.836	9.62
642.87	10.62
642.904	-5.38
642.938	5.62
642.972	-3.38
643.005	8.62
643.039	16.62
643.073	11.62
643.107	7.62
643.141	-18.38
643.175	5.62
643.209	15.62
643.243	8.62
643.276	22.62
643.31	1.62
643.344	4.62
643.378	8.62
643.412	16.62
643.446	9.62
643.48	-1.38
643.513	-0.38
643.547	-1.38
643.581	0.62
643.615	12.62
643.649	19.62
643.683	5.62
643.716	15.62
643.75	13.62
643.784	2.62
643.818	11.62
643.852	-2.38
643.886	0.62
643.919	3.62
643.953	1.62
643.987	-0.38
644.021	30.62
644.055	16.62
644.088	6.62
644.122	-0.38
644.156	-5.38
644.19	7.62
644.224	1.62
644.257	15.62
644.291	11.62
644.325	11.62
644.359	-1.38
644.392	31.62
644.426	27.62
644.46	7.62
644.494	10.62
644.527	3.62
644.561	4.62
644.595	15.62
644.629	5.62
644.662	9.62
644.696	11.62
644.73	28.62
644.764	17.62
644.797	10.62
644.831	10.62
644.865	15.62
644.899	-5.38
644.932	21.62
644.966	-1.38
645	19.62
645.033	22.62
645.067	-9.38
645.101	2.62
645.135	4.62
645.168	8.62
645.202	1.62
645.236	12.62
645.269	22.62
645.303	12.62
645.337	-1.38
645.37	4.62
645.404	4.62
645.438	18.62
645.471	-2.38
645.505	10.62
645.539	10.62
645.572	4.62
645.606	-2.38
645.64	12.62
645.673	5.62
645.707	34.62
645.741	12.62
645.774	6.62
645.808	11.62
645.842	15.62
645.875	18.62
645.909	1.62
645.943	3.62
645.976	-1.38
646.01	8.62
646.043	2.62
646.077	17.62
646.111	30.62
646.144	32.62
646.178	18.62
646.212	1.62
646.245	1.62
646.279	-2.38
646.312	3.62
646.346	17.62
646.38	9.62
646.413	27.62
646.447	11.62
646.48	14.62
646.514	18.62
646.547	-8.38
646.581	-2.38
646.615	6.62
646.648	11.62
646.682	14.62
646.715	8.62
646.749	18.62
646.782	16.62
646.816	8.62
646.85	-1.38
646.883	-4.38
646.917	13.62
646.95	9.62
646.984	18.62
647.017	1.62
647.051	7.62
647.084	10.62
647.118	-2.38
647.151	6.62
647.185	2.62
647.218	-3.38
647.252	10.62
647.285	10.62
647.319	6.62
647.353	11.62
647.386	14.62
647.42	6.62
647.453	5.62
647.487	4.62
647.52	12.62
647.553	4.62
647.587	-1.38
647.62	-1.38
647.654	14.62
647.687	16.62
647.721	19.62
647.754	10.62
647.788	8.62
647.821	-5.38
647.855	22.62
647.888	13.62
647.922	9.62
647.955	29.62
647.989	11.62
648.022	12.62
648.055	13.62
648.089	-14.38
648.122	23.62
648.156	1.62
648.189	13.62
648.223	29.62
648.256	29.62
648.29	14.62
648.323	11.62
648.356	9.62
648.39	13.62
648.423	19.62
648.457	5.62
648.49	13.62
648.523	16.62
648.557	1.62
648.59	-8.38
648.624	11.62
648.657	14.62
648.69	22.62
648.724	7.62
648.757	33.62
648.791	9.62
648.824	24.62
648.857	18.62
648.891	16.62
648.924	31.62
648.957	20.62
648.991	-5.38
649.024	9.62
649.057	1.62
649.091	11.62
649.124	7.62
649.158	16.62
649.191	35.62
649.224	15.62
649.258	9.62
649.291	14.62
649.324	23.62
649.358	12.62
649.391	21.62
649.424	11.62
649.458	5.62
649.491	1.62
649.524	8.62
649.557	-3.38
649.591	-0.38
649.624	16.62
649.657	9.62
649.691	10.62
649.724	8.62
649.757	-3.38
649.791	5.62
649.824	25.62
649.857	12.62
649.89	14.62
649.924	1.62
649.957	10.62
649.99	-6.38
650.023	7.62
650.057	-0.38
650.09	1.62
650.123	19.62
650.157	19.62
650.19	26.62
650.223	16.62
650.256	-3.38
650.29	-3.38
650.323	-3.38
650.356	24.62
650.389	-6.38
650.423	6.62
650.456	10.62
650.489	4.62
650.522	0.62
650.555	20.62
650.589	18.62
650.622	13.62
650.655	19.62
650.688	13.62
650.721	12.62
650.755	-4.38
650.788	16.62
650.821	5.62
650.854	13.62
650.887	5.62
650.921	0.62
650.954	-16.38
650.987	-0.38
651.02	-6.38
651.053	-4.38
651.087	-1.38
651.12	19.62
651.153	14.62
651.186	-6.38
651.219	-1.38
651.252	22.62
651.286	23.62
651.319	-11.38
651.352	-9.38
651.385	18.62
651.418	10.62
651.451	18.62
651.484	19.62
651.518	-0.38
651.551	34.62
651.584	-2.38
651.617	17.62
651.65	16.62
651.683	21.62
651.716	3.62
651.749	9.62
651.783	-0.38
651.816	0.62
651.849	9.62
651.882	8.62
651.915	-1.38
651.948	-2.38
651.981	-9.38
652.014	-21.38
652.047	-7.38
652.08	3.62
652.114	21.62
652.147	1.62
652.18	8.62
652.213	15.62
652.246	7.62
652.279	0.62
652.312	9.62
652.345	16.62
652.378	17.62
652.411	18.62
652.444	13.62
652.477	8.62
652.51	13.62
652.543	-1.38
652.576	13.62
652.609	5.62
652.642	2.62
652.675	23.62
652.709	27.62
652.742	10.62
652.775	5.62
652.808	15.62
652.841	4.62
652.874	8.62
652.907	11.62
652.94	-4.38
652.973	5.62
653.006	4.62
653.039	9.62
653.072	1.62
653.105	5.62
653.138	-11.38
653.171	-2.38
653.204	-9.38
653.237	14.62
653.27	-3.38
653.303	7.62
653.336	23.62
653.368	20.62
653.401	11.62
653.434	-7.38
653.467	-2.38
653.5	-6.38
653.533	-13.38
653.566	8.62
653.599	14.62
653.632	26.62
653.665	10.62
653.698	-18.38
653.731	-2.38
653.764	22.62
653.797	16.62
653.83	10.62
653.863	-3.38
653.896	-0.38
653.929	-12.38
653.961	0.62
653.994	2.62
654.027	-8.38
654.06	3.62
654.093	10.62
654.126	12.62
654.159	-9.38
654.192	17.62
654.225	2.62
654.258	-10.38
654.29	2.62
654.323	6.62
654.356	-1.38
654.389	19.62
654.422	11.62
654.455	14.62
654.488	2.62
654.521	-13.38
654.553	4.62
654.586	11.62
654.619	-0.38
654.652	-0.38
654.685	26.62
654.718	23.62
654.751	7.62
654.783	7.62
654.816	9.62
654.849	17.62
654.882	2.62
654.915	-7.38
654.948	29.62
654.98	19.62
655.013	3.62
655.046	2.62
655.079	13.62
655.112	2.62
655.144	17.62
655.177	10.62
655.21	4.62
655.243	20.62
655.276	3.62
655.308	13.62
655.341	2.62
655.374	8.62
655.407	17.62
655.44	12.62
655.472	15.62
655.505	9.62
655.538	-10.38
655.571	17.62
655.603	9.62
655.636	9.62
655.669	25.62
655.702	24.62
655.734	6.62
655.767	13.62
655.8	26.62
655.833	27.62
655.865	48.62
655.898	27.62
655.931	39.62
655.964	41.62
655.996	52.62
656.029	67.62
656.062	49.62
656.095	75.62
656.127	75.62
656.16	117.62
656.193	125.62
656.225	172.62
656.258	272.62
656.291	503.62
656.324	1134.62
656.356	3392.62
656.389	7600.62
656.422	6064.62
656.454	2080.62
656.487	672.62
656.52	273.62
656.552	121.62
656.585	76.62
656.618	61.62
656.65	46.62
656.683	25.62
656.716	16.62
656.748	1.62
656.781	10.62
656.814	13.62
656.846	33.62
656.879	4.62
656.912	2.62
656.944	-10.38
656.977	-10.38
657.01	2.62
657.042	14.62
657.075	16.62
657.108	7.62
657.14	17.62
657.173	29.62
657.205	32.62
657.238	24.62
657.271	4.62
657.303	-7.38
657.336	-7.38
657.369	-2.38
657.401	14.62
657.434	5.62
657.466	-6.38
657.499	10.62
657.532	-4.38
657.564	20.62
657.597	12.62
657.629	11.62
657.662	-11.38
657.694	5.62
657.727	2.62
657.76	26.62
657.792	-3.38
657.825	-1.38
657.857	8.62
657.89	5.62
657.922	7.62
657.955	-2.38
657.987	7.62
658.02	5.62
658.053	17.62
658.085	3.62
658.118	8.62
658.15	22.62
658.183	17.62
658.215	-2.38
658.248	2.62
658.28	0.62
658.313	16.62
658.345	7.62
658.378	-3.38
658.41	5.62
658.443	18.62
658.475	5.62
658.508	15.62
658.54	7.62
658.573	-4.38
658.605	12.62
658.638	9.62
658.67	0.62
658.703	8.62
658.735	-3.38
658.768	6.62
658.8	-0.38
658.833	28.62
658.865	17.62
658.898	9.62
658.93	-3.38
658.963	13.62
658.995	-2.38
659.028	7.62
659.06	2.62
659.092	6.62
659.125	-14.38
659.157	9.62
659.19	2.62
659.222	-10.38
659.255	9.62
659.287	6.62
659.32	-0.38
659.352	10.62
659.384	31.62
659.417	-5.38
659.449	10.62
659.482	17.62
659.514	11.62
659.546	3.62
659.579	-1.38
659.611	18.62
659.644	-4.38
659.676	-1.38
659.708	-2.38
659.741	8.62
659.773	17.62
659.806	8.62
659.838	14.62
659.87	17.62
659.903	-17.38
659.935	17.62
659.967	21.62
660	20.62
660.032	-20.38
660.065	27.62
660.097	8.62
660.129	-11.38
660.162	-8.38
660.194	8.62
660.226	6.62
660.259	22.62
660.291	9.62
660.323	0.62
660.356	1.62
660.388	-7.38
660.42	0.62
660.453	10.62
660.485	17.62
660.517	29.62
660.55	25.62
660.582	20.62
660.614	-9.38
660.647	1.62
660.679	-0.38
660.711	-3.38
660.743	-8.38
660.776	-11.38
660.808	9.62
660.84	11.62
660.873	0.62
660.905	-0.38
660.937	-1.38
660.969	6.62
661.002	-2.38
661.034	23.62
661.066	8.62
661.099	21.62
661.131	14.62
661.163	-2.38
661.195	15.62
661.228	9.62
661.26	12.62
661.292	2.62
661.324	15.62
661.357	-3.38
661.389	20.62
661.421	11.62
661.453	7.62
661.485	11.62
661.518	13.62
661.55	-8.38
661.582	1.62
661.614	-2.38
661.647	6.62
661.679	13.62
661.711	21.62
661.743	-4.38
661.775	0.62
661.808	22.62
661.84	-0.38
661.872	12.62
661.904	2.62
661.936	8.62
661.969	5.62
662.001	-5.38
662.033	7.62
662.065	-2.38
662.097	21.62
662.129	15.62
662.162	-10.38
662.194	3.62
662.226	11.62
662.258	1.62
662.29	2.62
662.322	1.62
662.355	-3.38
662.387	25.62
662.419	17.62
662.451	6.62
662.483	-7.38
662.515	-2.38
662.547	12.62
662.58	-5.38
662.612	-18.38
662.644	-15.38
662.676	10.62
662.708	17.62
662.74	-2.38
662.772	-9.38
662.804	1.62
662.836	13.62
662.869	0.62
662.901	10.62
662.933	-8.38
662.965	18.62
662.997	25.62
663.029	-12.38
663.061	-8.38
663.093	3.62
663.125	7.62
663.157	16.62
663.189	2.62
663.221	7.62
663.254	6.62
663.286	11.62
663.318	19.62
663.35	-17.38
663.382	-6.38
663.414	16.62
663.446	15.62
663.478	9.62
663.51	20.62
663.542	-5.38
663.574	6.62
663.606	3.62
663.638	-7.38
663.67	-6.38
663.702	12.62
663.734	-7.38
663.766	14.62
663.798	0.62
663.83	15.62
663.862	21.62
663.894	8.62
663.926	10.62
663.958	31.62
663.99	18.62
664.022	0.62
664.054	9.62
664.086	-5.38
664.118	-30.38
664.15	-4.38
664.182	5.62
664.214	1.62
664.246	17.62
664.278	9.62
664.31	20.62
664.342	21.62
664.374	7.62
664.406	7.62
664.438	4.62
664.47	24.62
664.502	-5.38
664.534	6.62
664.566	2.62
664.598	25.62
664.63	5.62
664.662	19.62
664.693	9.62
664.725	9.62
664.757	1.62
664.789	-2.38
664.821	10.62
664.853	20.62
664.885	9.62
664.917	4.62
664.949	19.62
664.981	23.62
665.013	8.62
665.045	-16.38
665.076	8.62
665.108	10.62
665.14	-12.38
665.172	8.62
665.204	4.62
665.236	-7.38
665.268	20.62
665.3	7.62
665.331	-7.38
665.363	3.62
665.395	-2.38
665.427	-10.38
665.459	-2.38
665.491	-6.38
665.523	12.62
665.555	2.62
665.586	6.62
665.618	1.62
665.65	-1.38
665.682	20.62
665.714	16.62
665.746	-8.38
665.777	-9.38
665.809	9.62
665.841	13.62
665.873	-3.38
665.905	3.62
665.937	14.62
665.968	19.62
666	17.62
666.032	8.62
666.064	5.62
666.096	-14.38
666.127	-0.38
666.159	19.62
666.191	7.62
666.223	-0.38
666.255	14.62
666.286	8.62
666.318	7.62
666.35	7.62
666.382	16.62
666.413	-16.38
666.445	5.62
666.477	-18.38
666.509	-4.38
666.54	-2.38
666.572	4.62
666.604	6.62
666.636	-0.38
666.667	8.62
666.699	19.62
666.731	13.62
666.763	-0.38
666.794	-0.38
666.826	5.62
666.858	-2.38
666.89	10.62
666.921	8.62
666.953	7.62
666.985	9.62
667.017	1.62
667.048	-7.38
667.08	-0.38
667.112	4.62
667.143	-5.38
667.175	7.62
667.207	-3.38
667.238	-2.38
667.27	6.62
667.302	8.62
667.334	-0.38
667.365	29.62
667.397	14.62
667.429	7.62
667.46	5.62
667.492	17.62
667.524	-0.38
667.555	-6.38
667.587	-0.38
667.619	-1.38
667.65	-10.38
667.682	11.62
667.714	33.62
667.745	15.62
667.777	5.62
667.808	24.62
667.84	17.62
667.872	18.62
667.903	29.62
667.935	-5.38
667.967	10.62
667.998	1.62
668.03	0.62
668.061	12.62
668.093	-8.38
668.125	19.62
668.156	14.62
668.188	6.62
668.22	-9.38
668.251	7.62
668.283	15.62
668.314	10.62
668.346	6.62
668.377	14.62
668.409	7.62
668.441	16.62
668.472	4.62
668.504	17.62
668.535	19.62
668.567	14.62
668.599	16.62
668.63	5.62
668.662	3.62
668.693	15.62
668.725	14.62
668.756	8.62
668.788	8.62
668.819	7.62
668.851	-1.38
668.882	0.62
668.914	6.62
668.946	-12.38
668.977	-1.38
669.009	-1.38
669.04	-3.38
669.072	14.62
669.103	2.62
669.135	11.62
669.166	8.62
669.198	17.62
669.229	-5.38
669.261	9.62
669.292	10.62
669.324	16.62
669.355	16.62
669.387	-15.38
669.418	9.62
669.45	-0.38
669.481	5.62
669.513	-0.38
669.544	7.62
669.576	4.62
669.607	30.62
669.639	31.62
669.67	-2.38
669.701	18.62
669.733	4.62
669.764	-2.38
669.796	12.62
669.827	8.62
669.859	1.62
669.89	4.62
669.922	10.62
669.953	26.62
669.985	12.62
670.016	17.62
670.047	8.62
670.079	8.62
670.11	19.62
670.142	-2.38
670.173	13.62
670.204	-3.38
670.236	10.62
670.267	4.62
670.299	-4.38
670.33	13.62
670.362	9.62
670.393	2.62
670.424	14.62
670.456	-3.38
670.487	15.62
670.518	10.62
670.55	25.62
670.581	9.62
670.613	-7.38
670.644	-2.38
670.675	9.62
670.707	4.62
670.738	9.62
670.769	7.62
670.801	-0.38
670.832	20.62
670.864	-0.38
670.895	20.62
670.926	0.62
670.958	2.62
670.989	7.62
671.02	0.62
671.052	1.62
671.083	-2.38
671.114	-13.38
671.146	13.62
671.177	19.62
671.208	8.62
671.24	6.62
671.271	7.62
671.302	22.62
671.333	-4.38
671.365	11.62
671.396	-4.38
671.427	1.62
671.459	19.62
671.49	17.62
671.521	16.62
671.553	9.62
671.584	4.62
671.615	2.62
671.646	10.62
671.678	11.62
671.709	-6.38
671.74	-3.38
671.771	-1.38
671.803	0.62
671.834	4.62
671.865	-3.38
671.896	4.62
671.928	-0.38
671.959	16.62
671.99	23.62
672.021	13.62
672.053	6.62
672.084	28.62
672.115	19.62
672.146	9.62
672.178	-2.38
672.209	2.62
672.24	4.62
672.271	24.62
672.303	11.62
672.334	11.62
672.365	5.62
672.396	0.62
672.427	6.62
672.459	14.62
672.49	48.62
672.521	16.62
672.552	19.62
672.583	-3.38
672.615	0.62
672.646	-0.38
672.677	-12.38
672.708	7.62
672.739	17.62
672.77	29.62
672.802	8.62
672.833	16.62
672.864	6.62
672.895	-6.38
672.926	-5.38
672.957	-8.38
672.989	-8.38
673.02	-12.38
673.051	5.62
673.082	16.62
673.113	-18.38
673.144	7.62
673.175	-13.38
673.206	2.62
673.238	8.62
673.269	12.62
673.3	-1.38
673.331	10.62
673.362	-14.38
673.393	-2.38
673.424	1.62
673.455	8.62
673.487	9.62
673.518	11.62
673.549	3.62
673.58	-0.38
673.611	-0.38
673.642	7.62
673.673	2.62
673.704	7.62
673.735	-2.38
673.766	-4.38
673.797	-6.38
673.828	7.62
673.86	-5.38
673.891	-5.38
673.922	2.62
673.953	-5.38
673.984	25.62
674.015	9.62
674.046	0.62
674.077	4.62
674.108	-2.38
674.139	-2.38
674.17	4.62
674.201	-7.38
674.232	10.62
674.263	-11.38
674.294	5.62
674.325	-8.38
674.356	5.62
674.387	14.62
674.418	3.62
674.449	-1.38
674.48	-5.38
674.511	8.62
674.542	19.62
674.573	7.62
674.604	12.62
674.635	14.62
674.666	-2.38
674.697	10.62
674.728	4.62
674.759	3.62
674.79	-6.38
674.821	6.62
674.852	-2.38
674.883	-2.38
674.914	-1.38
674.945	1.62
674.976	1.62
675.007	18.62
675.038	0.62
675.069	-8.38
675.1	-3.38
675.131	4.62
675.162	-11.38
675.193	-6.38
675.224	-6.38
675.254	5.62
675.285	13.62
675.316	15.62
675.347	10.62
675.378	-9.38
675.409	-7.38
675.44	12.62
675.471	12.62
675.502	-14.38
675.533	-3.38
675.564	10.62
675.595	4.62
675.625	28.62
675.656	10.62
675.687	-1.38
675.718	-22.38
675.749	4.62
675.78	11.62
675.811	-3.38
675.842	1.62
675.873	7.62
675.903	4.62
675.934	4.62
675.965	-2.38
675.996	-11.38
676.027	-1.38
676.058	0.62
676.089	-20.38
676.119	2.62
676.15	1.62
676.181	1.62
676.212	-4.38
676.243	-3.38
676.274	9.62
676.304	24.62
676.335	1.62
676.366	14.62
676.397	7.62
676.428	-7.38
676.459	19.62
676.489	13.62
676.52	8.62
676.551	-4.38
676.582	-4.38
676.613	-4.38
676.643	-0.38
676.674	0.62
676.705	9.62
676.736	13.62
676.767	16.62
676.797	20.62
676.828	9.62
676.859	8.62
676.89	-10.38
676.92	0.62
676.951	8.62
676.982	-9.38
677.013	2.62
677.044	11.62
677.074	17.62
677.105	5.62
677.136	15.62
677.167	11.62
677.197	11.62
677.228	6.62
677.259	7.62
677.289	0.62
677.32	-7.38
677.351	14.62
677.382	-5.38
677.412	-17.38
677.443	10.62
677.474	-6.38
677.505	-14.38
677.535	8.62
677.566	-7.38
677.597	-6.38
677.627	-25.38
677.658	10.62
677.689	7.62
677.72	-8.38
677.75	-1.38
677.781	0.62
677.812	10.62
677.842	15.62
677.873	13.62
677.904	6.62
677.934	11.62
677.965	5.62
677.996	-11.38
678.026	2.62
678.057	10.62
678.088	-0.38
678.118	-8.38
678.149	2.62
678.18	-9.38
678.21	2.62
678.241	2.62
678.272	2.62
678.302	-5.38
678.333	6.62
678.363	7.62
678.394	-6.38
678.425	11.62
678.455	0.62
678.486	22.62
678.517	-7.38
678.547	0.62
678.578	4.62
678.608	-7.38
678.639	8.62
678.67	-1.38
678.7	-13.38
678.731	-6.38
678.761	-0.38
678.792	3.62
678.823	4.62
678.853	6.62
678.884	5.62
678.914	20.62
678.945	4.62
678.975	8.62
679.006	-12.38
679.037	1.62
679.067	38.62
679.098	7.62
679.128	7.62
679.159	6.62
679.189	19.62
679.22	-3.38
679.25	15.62
679.281	-0.38
679.312	-2.38
679.342	16.62
679.373	37.62
679.403	12.62
679.434	0.62
679.464	-14.38
679.495	11.62
679.525	16.62
679.556	11.62
679.586	12.62
679.617	-0.38
679.647	4.62
679.678	6.62
679.708	-1.38
679.739	-7.38
679.769	16.62
679.8	0.62
679.83	17.62
679.861	14.62
679.891	-1.38
679.922	-18.38
679.952	-10.38
679.983	9.62
680.013	8.62
680.044	-9.38
680.074	5.62
680.105	10.62
680.135	6.62
680.165	19.62
680.196	32.62
680.226	29.62
680.257	11.62
680.287	16.62
680.318	-7.38
680.348	-11.38
680.379	3.62
680.409	7.62
680.439	-3.38
680.47	13.62
680.5	11.62
680.531	10.62
680.561	8.62
680.592	5.62
680.622	29.62
680.652	10.62
680.683	19.62
680.713	-3.38
680.744	-1.38
680.774	-1.38
680.804	8.62
680.835	0.62
680.865	-7.38
680.896	14.62
680.926	9.62
680.956	1.62
680.987	6.62
681.017	15.62
681.047	10.62
681.078	5.62
681.108	14.62
681.139	1.62
681.169	12.62
681.199	10.62
681.23	14.62
681.26	-2.38
681.29	-0.38
681.321	-10.38
681.351	0.62
681.381	-8.38
681.412	-0.38
681.442	13.62
681.472	8.62
681.503	-1.38
681.533	7.62
681.563	-4.38
681.594	5.62
681.624	6.62
681.654	-13.38
681.685	-6.38
681.715	17.62
681.745	-3.38
681.775	-10.38
681.806	9.62
681.836	7.62
681.866	-3.38
681.897	-0.38
681.927	-16.38
681.957	-19.38
681.987	1.62
682.018	-4.38
682.048	9.62
682.078	9.62
682.109	34.62
682.139	14.62
682.169	8.62
682.199	-0.38
682.23	-7.38
682.26	21.62
682.29	-11.38
682.32	11.62
682.351	-17.38
682.381	-10.38
682.411	9.62
682.441	2.62
682.472	-7.38
682.502	4.62
682.532	-6.38
682.562	10.62
682.592	13.62
682.623	1.62
682.653	-2.38
682.683	1.62
682.713	18.62
682.743	-3.38
682.774	1.62
682.804	9.62
682.834	13.62
682.864	5.62
682.894	0.62
682.925	0.62
682.955	2.62
682.985	7.62
683.015	-1.38
683.045	15.62
683.076	11.62
683.106	5.62
683.136	-6.38
683.166	4.62
683.196	14.62
683.226	5.62
683.257	-2.38
683.287	16.62
683.317	-1.38
683.347	-13.38
683.377	-0.38
683.407	6.62
683.437	3.62
683.468	4.62
683.498	-7.38
683.528	-4.38
683.558	-0.38
683.588	9.62
683.618	-8.38
683.648	10.62
683.678	-4.38
683.708	8.62
683.739	7.62
683.769	3.62
683.799	-2.38
683.829	7.62
683.859	9.62
683.889	-4.38
683.919	6.62
683.949	16.62
683.979	-4.38
684.009	4.62
684.039	-0.38
684.07	-6.38
684.1	13.62
684.13	13.62
684.16	-0.38
684.19	10.62
684.22	5.62
684.25	8.62
684.28	9.62
684.31	-2.38
684.34	7.62
684.37	7.62
684.4	-2.38
684.43	24.62
684.46	21.62
684.49	7.62
684.52	2.62
684.55	24.62
684.58	9.62
684.61	5.62
684.64	5.62
684.67	6.62
684.7	2.62
684.73	-1.38
684.76	-3.38
684.79	15.62
684.82	18.62
684.85	-7.38
684.88	13.62
684.91	-1.38
684.94	-5.38
684.97	-0.38
685	13.62
685.03	0.62
685.06	-6.38
685.09	-7.38
685.12	16.62
685.15	2.62
685.18	13.62
685.21	6.62
685.24	18.62
685.27	23.62
685.3	7.62
685.33	-1.38
685.36	-6.38
685.39	9.62
685.42	10.62
685.45	8.62
685.48	16.62
685.51	10.62
685.54	17.62
685.569	10.62
685.599	-1.38
685.629	-5.38
685.659	5.62
685.689	-1.38
685.719	1.62
685.749	11.62
685.779	15.62
685.809	4.62
685.839	-8.38
685.869	0.62
685.898	13.62
685.928	26.62
685.958	8.62
685.988	9.62
686.018	8.62
686.048	24.62
686.078	14.62
686.108	38.62
686.137	25.62
686.167	12.62
686.197	5.62
686.227	13.62
686.257	35.62
686.287	8.62
686.317	19.62
686.346	12.62
686.376	5.62
686.406	-6.38
686.436	3.62
686.466	-2.38
686.496	1.62
686.525	14.62
686.555	5.62
686.585	20.62
686.615	25.62
686.645	8.62
686.675	-8.38
686.704	28.62
686.734	12.62
686.764	14.62
686.794	19.62
686.824	6.62
686.853	16.62
686.883	15.62
686.913	24.62
686.943	2.62
686.973	8.62
687.002	2.62
687.032	24.62
687.062	9.62
687.092	15.62
687.121	12.62
687.151	3.62
687.181	4.62
687.211	13.62
687.24	7.62
687.27	11.62
687.3	-0.38
687.33	1.62
687.359	-8.38
687.389	13.62
687.419	10.62
687.449	-3.38
687.478	6.62
687.508	5.62
687.538	0.62
687.568	-9.38
687.597	-7.38
687.627	10.62
687.657	1.62
687.686	-1.38
687.716	33.62
687.746	-10.38
687.776	8.62
687.805	6.62
687.835	18.62
687.865	30.62
687.894	18.62
687.924	-2.38
687.954	14.62
687.983	1.62
688.013	17.62
688.043	5.62
688.072	-5.38
688.102	-2.38
688.132	1.62
688.161	15.62
688.191	0.62
688.221	23.62
688.25	0.62
688.28	19.62
688.31	10.62
688.339	6.62
688.369	3.62
688.399	-2.38
688.428	4.62
688.458	-13.38
688.488	4.62
688.517	17.62
688.547	-5.38
688.576	36.62
688.606	17.62
688.636	9.62
688.665	17.62
688.695	22.62
688.725	32.62
688.754	16.62
688.784	-13.38
688.813	21.62
688.843	12.62
688.873	4.62
688.902	1.62
688.932	10.62
688.961	10.62
688.991	30.62
689.02	20.62
689.05	-2.38
689.08	14.62
689.109	21.62
689.139	-5.38
689.168	-0.38
689.198	-1.38
689.227	15.62
689.257	29.62
689.287	28.62
689.316	7.62
689.346	-2.38
689.375	-2.38
689.405	9.62
689.434	5.62
689.464	25.62
689.493	13.62
689.523	9.62
689.552	8.62
689.582	1.62
689.611	13.62
689.641	16.62
689.67	7.62
689.7	4.62
689.73	5.62
689.759	6.62
689.789	24.62
689.818	11.62
689.848	15.62
689.877	25.62
689.906	7.62
689.936	4.62
689.965	-3.38
689.995	25.62
690.024	11.62
690.054	9.62
690.083	19.62
690.113	20.62
690.142	7.62
690.172	8.62
690.201	9.62
690.231	4.62
690.26	13.62
690.29	19.62
690.319	16.62
690.348	-23.38
690.378	5.62
690.407	4.62
690.437	4.62
690.466	-1.38
690.496	18.62
690.525	15.62
690.555	11.62
690.584	-12.38
690.613	10.62
690.643	12.62
690.672	5.62
690.702	3.62
690.731	-1.38
690.76	14.62
690.79	6.62
690.819	-2.38
690.849	24.62
690.878	0.62
690.907	12.62
690.937	20.62
690.966	24.62
690.996	0.62
691.025	1.62
691.054	5.62
691.084	-1.38
691.113	5.62
691.142	6.62
691.172	25.62
691.201	25.62
691.23	7.62
691.26	7.62
691.289	7.62
691.319	7.62
691.348	23.62
691.377	24.62
691.407	20.62
691.436	13.62
691.465	18.62
691.495	10.62
691.524	-1.38
691.553	11.62
691.583	10.62
691.612	23.62
691.641	13.62
691.67	12.62
691.7	13.62
691.729	-11.38
691.758	15.62
691.788	18.62
691.817	5.62
691.846	-3.38
691.876	17.62
691.905	19.62
691.934	-0.38
691.963	14.62
691.993	1.62
692.022	-2.38
692.051	-5.38
692.081	9.62
692.11	17.62
692.139	6.62
692.168	13.62
692.198	15.62
692.227	20.62
692.256	11.62
692.285	-15.38
692.315	9.62
692.344	9.62
692.373	8.62
692.402	3.62
692.432	4.62
692.461	2.62
692.49	4.62
692.519	2.62
692.548	19.62
692.578	14.62
692.607	6.62
692.636	1.62
692.665	2.62
692.694	-2.38
692.724	2.62
692.753	20.62
692.782	22.62
692.811	-2.38
692.84	9.62
692.87	19.62
692.899	15.62
692.928	-1.38
692.957	14.62
692.986	14.62
693.016	10.62
693.045	11.62
693.074	8.62
693.103	5.62
693.132	14.62
693.161	43.62
693.191	13.62
693.22	-7.38
693.249	-0.38
693.278	9.62
693.307	22.62
693.336	-6.38
693.365	-5.38
693.395	-9.38
693.424	8.62
693.453	20.62
693.482	9.62
693.511	41.62
693.54	12.62
693.569	26.62
693.598	28.62
693.628	14.62
693.657	16.62
693.686	26.62
693.715	23.62
693.744	21.62
693.773	23.62
693.802	12.62
693.831	0.62
693.86	17.62
693.889	4.62
693.919	-2.38
693.948	7.62
693.977	12.62
694.006	2.62
694.035	7.62
694.064	-9.38
694.093	18.62
694.122	13.62
694.151	2.62
694.18	10.62
694.209	14.62
694.238	7.62
694.267	22.62
694.296	17.62
694.325	20.62
694.354	26.62
694.383	16.62
694.412	8.62
694.441	5.62
694.471	-8.38
694.5	-21.38
694.529	2.62
694.558	17.62
694.587	14.62
694.616	8.62
694.645	14.62
694.674	24.62
694.703	15.62
694.732	7.62
694.761	18.62
694.79	15.62
694.819	-16.38
694.848	13.62
694.877	27.62
694.906	25.62
694.935	7.62
694.963	25.62
694.992	10.62
695.021	11.62
695.05	13.62
695.079	-1.38
695.108	7.62
695.137	14.62
695.166	7.62
695.195	6.62
695.224	9.62
695.253	14.62
695.282	0.62
695.311	23.62
695.34	8.62
695.369	10.62
695.398	2.62
695.427	15.62
695.456	-1.38
695.485	14.62
695.513	3.62
695.542	5.62
695.571	15.62
695.6	28.62
695.629	15.62
695.658	16.62
695.687	5.62
695.716	10.62
695.745	35.62
695.774	6.62
695.802	-0.38
695.831	14.62
695.86	15.62
695.889	20.62
695.918	10.62
695.947	10.62
695.976	0.62
696.005	8.62
696.033	5.62
696.062	15.62
696.091	17.62
696.12	8.62
696.149	6.62
696.178	22.62
696.207	6.62
696.235	-3.38
696.264	20.62
696.293	7.62
696.322	17.62
696.351	20.62
696.38	4.62
696.408	-0.38
696.437	8.62
696.466	19.62
696.495	27.62
696.524	19.62
696.553	26.62
696.581	20.62
696.61	9.62
696.639	6.62
696.668	5.62
696.697	14.62
696.725	18.62
696.754	12.62
696.783	8.62
696.812	-3.38
696.84	13.62
696.869	5.62
696.898	-5.38
696.927	-1.38
696.956	40.62
696.984	12.62
697.013	14.62
697.042	23.62
697.071	20.62
697.099	24.62
697.128	9.62
697.157	24.62
697.186	-0.38
697.214	4.62
697.243	2.62
697.272	2.62
697.301	15.62
697.329	12.62
697.358	13.62
697.387	31.62
697.415	19.62
697.444	-1.38
697.473	0.62
697.502	-6.38
697.53	24.62
697.559	7.62
697.588	11.62
697.616	25.62
697.645	9.62
697.674	18.62
697.703	12.62
697.731	12.62
697.76	18.62
697.789	-6.38
697.817	11.62
697.846	22.62
697.875	17.62
697.903	39.62
697.932	20.62
697.961	12.62
697.989	8.62
698.018	12.62
698.047	6.62
698.075	5.62
698.104	-11.38
698.133	2.62
698.161	9.62
698.19	17.62
698.218	-7.38
698.247	4.62
698.276	-3.38
698.304	5.62
698.333	9.62
698.362	22.62
698.39	19.62
698.419	3.62
698.447	9.62
698.476	0.62
698.505	1.62
698.533	8.62
698.562	8.62
698.591	8.62
698.619	3.62
698.648	12.62
698.676	6.62
698.705	1.62
698.733	10.62
698.762	23.62
698.791	-2.38
698.819	-2.38
698.848	-8.38
698.876	9.62
698.905	7.62
698.933	3.62
698.962	13.62
698.991	2.62
699.019	28.62
699.048	14.62
699.076	12.62
699.105	2.62
699.133	19.62
699.162	16.62
699.19	21.62
699.219	13.62
699.248	11.62
699.276	13.62
699.305	0.62
699.333	2.62
699.362	-6.38
699.39	-0.38
699.419	-6.38
699.447	-6.38
699.476	12.62
699.504	13.62
699.533	1.62
699.561	-4.38
699.59	-3.38
699.618	-6.38
699.647	8.62
699.675	11.62
699.704	22.62
699.732	-4.38
699.761	15.62
699.789	5.62
699.818	10.62
699.846	-1.38
699.874	-9.38
699.903	3.62
699.931	-1.38
699.96	17.62
699.988	1.62
700.017	6.62
700.045	11.62
700.074	8.62
700.102	-11.38
700.13	2.62
700.159	10.62
700.187	21.62
700.216	1.62
700.244	1.62
700.273	11.62
700.301	24.62
700.329	24.62
700.358	11.62
700.386	12.62
700.415	4.62
700.443	-4.38
700.472	-7.38
700.5	12.62
700.528	17.62
700.557	-0.38
700.585	5.62
700.614	5.62
700.642	21.62
700.67	28.62
700.699	5.62
700.727	22.62
700.755	15.62
700.784	10.62
700.812	2.62
700.841	4.62
700.869	-1.38
700.897	-8.38
700.926	20.62
700.954	15.62
700.982	9.62
701.011	13.62
701.039	-1.38
701.067	-4.38
701.096	14.62
701.124	-2.38
701.152	20.62
701.181	2.62
701.209	-6.38
701.237	1.62
701.266	12.62
701.294	0.62
701.322	4.62
701.351	13.62
701.379	8.62
701.407	16.62
701.435	9.62
701.464	1.62
701.492	9.62
701.52	5.62
701.549	9.62
701.577	2.62
701.605	5.62
701.634	11.62
701.662	16.62
701.69	11.62
701.718	12.62
701.747	8.62
701.775	-4.38
701.803	-5.38
701.831	33.62
701.86	-5.38
701.888	15.62
701.916	19.62
701.944	13.62
701.973	6.62
702.001	-14.38
702.029	9.62
702.057	-6.38
702.086	5.62
702.114	-12.38
702.142	13.62
702.17	-1.38
702.199	15.62
702.227	-8.38
702.255	0.62
702.283	-7.38
702.311	13.62
702.34	-0.38
702.368	4.62
702.396	10.62
702.424	14.62
702.452	-1.38
702.481	6.62
702.509	7.62
702.537	16.62
702.565	17.62
702.593	-2.38
702.621	18.62
702.65	15.62
702.678	12.62
702.706	20.62
702.734	-1.38
702.762	11.62
702.79	4.62
702.819	2.62
702.847	-7.38
702.875	16.62
702.903	9.62
702.931	-6.38
702.959	10.62
702.988	13.62
703.016	0.62
703.044	19.62
703.072	12.62
703.1	-10.38
703.128	-3.38
703.156	0.62
703.184	8.62
703.212	26.62
703.241	7.62
703.269	9.62
703.297	-10.38
703.325	9.62
703.353	-1.38
703.381	11.62
703.409	5.62
703.437	-0.38
703.465	5.62
703.493	5.62
703.522	-2.38
703.55	11.62
703.578	12.62
703.606	-4.38
703.634	-2.38
703.662	5.62
703.69	-0.38
703.718	4.62
703.746	25.62
703.774	15.62
703.802	30.62
703.83	20.62
703.858	8.62
703.886	12.62
703.914	7.62
703.942	11.62
703.97	11.62
703.998	9.62
704.027	33.62
704.055	4.62
704.083	4.62
704.111	0.62
704.139	13.62
704.167	3.62
704.195	8.62
704.223	7.62
704.251	10.62
704.279	15.62
704.307	8.62
704.335	-2.38
704.363	-8.38
704.391	-10.38
704.419	-2.38
704.447	-2.38
704.475	-2.38
704.503	1.62
704.531	30.62
704.558	22.62
704.586	19.62
704.614	12.62
704.642	8.62
704.67	-8.38
704.698	-0.38
704.726	10.62
704.754	-4.38
704.782	2.62
704.81	-0.38
704.838	16.62
704.866	11.62
704.894	-7.38
704.922	-8.38
704.95	9.62
704.978	18.62
705.006	2.62
705.034	11.62
705.061	-4.38
705.089	5.62
705.117	-4.38
705.145	-10.38
705.173	12.62
705.201	5.62
705.229	3.62
705.257	4.62
705.285	10.62
705.313	6.62
705.34	9.62
705.368	-3.38
705.396	8.62
705.424	21.62
705.452	9.62
705.48	20.62
705.508	8.62
705.536	13.62
705.563	5.62
705.591	8.62
705.619	15.62
705.647	0.62
705.675	18.62
705.703	17.62
705.731	5.62
705.758	16.62
705.786	16.62
705.814	13.62
705.842	3.62
705.87	25.62
705.898	22.62
705.925	-5.38
705.953	19.62
705.981	0.62
706.009	4.62
706.037	2.62
706.065	-0.38
706.092	3.62
706.12	8.62
706.148	-2.38
706.176	8.62
706.204	19.62
706.231	3.62
706.259	-0.38
706.287	-5.38
706.315	19.62
706.342	0.62
706.37	-0.38
706.398	-0.38
706.426	-0.38
706.454	20.62
706.481	20.62
706.509	13.62
706.537	6.62
706.565	3.62
706.592	23.62
706.62	3.62
706.648	5.62
706.676	4.62
706.703	8.62
706.731	-2.38
706.759	6.62
706.787	20.62
706.814	9.62
706.842	12.62
706.87	4.62
706.897	13.62
706.925	5.62
706.953	12.62
706.981	2.62
707.008	4.62
707.036	4.62
707.064	11.62
707.091	6.62
707.119	12.62
707.147	-1.38
707.174	1.62
707.202	19.62
707.23	-10.38
707.258	11.62
707.285	-10.38
707.313	4.62
707.341	0.62
707.368	-4.38
707.396	-2.38
707.424	20.62
707.451	16.62
707.479	11.62
707.507	14.62
707.534	0.62
707.562	10.62
707.59	1.62
707.617	-10.38
707.645	6.62
707.672	16.62
707.7	4.62
707.728	28.62
707.755	2.62
707.783	-3.38
707.811	6.62
707.838	-1.38
707.866	2.62
707.893	0.62
707.921	4.62
707.949	-3.38
707.976	7.62
708.004	6.62
708.031	25.62
708.059	-15.38
708.087	-2.38
708.114	-5.38
708.142	-1.38
708.169	16.62
708.197	-2.38
708.225	4.62
708.252	-0.38
708.28	14.62
708.307	5.62
708.335	4.62
708.362	-4.38
708.39	-4.38
708.418	9.62
708.445	-2.38
708.473	-11.38
708.5	-17.38
708.528	3.62
708.555	-2.38
708.583	4.62
708.61	7.62
708.638	11.62
708.665	-3.38
708.693	2.62
708.72	-5.38
708.748	2.62
708.776	15.62
708.803	31.62
708.831	15.62
708.858	24.62
708.886	5.62
708.913	15.62
708.941	-0.38
708.968	11.62
708.996	-6.38
709.023	15.62
709.051	18.62
709.078	6.62
709.105	-0.38
709.133	-4.38
709.16	2.62
709.188	18.62
709.215	-2.38
709.243	-4.38
709.27	-13.38
709.298	-8.38
709.325	6.62
709.353	0.62
709.38	6.62
709.408	10.62
709.435	-2.38
709.462	-0.38
709.49	16.62
709.517	-5.38
709.545	5.62
709.572	4.62
709.6	4.62
709.627	7.62
709.655	6.62
709.682	-9.38
709.709	0.62
709.737	10.62
709.764	-15.38
709.792	15.62
709.819	2.62
709.846	-9.38
709.874	19.62
709.901	19.62
709.929	44.62
709.956	22.62
709.983	-2.38
710.011	0.62
710.038	-3.38
710.066	10.62
710.093	21.62
710.12	18.62
710.148	5.62
710.175	2.62
710.202	7.62
710.23	20.62
710.257	3.62
710.284	24.62
710.312	7.62
710.339	9.62
710.366	11.62
710.394	0.62
710.421	20.62
710.448	13.62
710.476	-16.38
710.503	7.62
710.53	23.62
710.558	24.62
710.585	15.62
710.612	0.62
710.64	1.62
710.667	-8.38
710.694	10.62
710.722	7.62
710.749	9.62
710.776	14.62
710.804	19.62
710.831	10.62
710.858	26.62
710.885	3.62
710.913	-7.38
710.94	23.62
710.967	1.62
710.995	7.62
711.022	2.62
711.049	6.62
711.076	-11.38
711.104	0.62
711.131	-2.38
711.158	1.62
711.185	21.62
711.213	2.62
711.24	1.62
711.267	9.62
711.294	14.62
711.322	17.62
711.349	10.62
711.376	-4.38
711.403	9.62
711.431	6.62
711.458	5.62
711.485	0.62
711.512	14.62
711.54	-2.38
711.567	20.62
711.594	1.62
711.621	4.62
711.648	14.62
711.676	0.62
711.703	2.62
711.73	-7.38
711.757	1.62
711.784	-3.38
711.812	5.62
711.839	2.62
711.866	-15.38
711.893	-22.38
711.92	-1.38
711.947	4.62
711.975	30.62
712.002	6.62
712.029	15.62
712.056	14.62
712.083	16.62
712.11	-5.38
712.138	7.62
712.165	25.62
712.192	9.62
712.219	-0.38
712.246	-10.38
712.273	5.62
712.3	0.62
712.328	0.62
712.355	22.62
712.382	7.62
712.409	14.62
712.436	-1.38
712.463	30.62
712.49	11.62
712.517	-2.38
712.544	12.62
712.572	9.62
712.599	-7.38
712.626	12.62
712.653	16.62
712.68	10.62
712.707	14.62
712.734	-2.38
712.761	15.62
712.788	17.62
712.815	11.62
712.842	21.62
712.87	-2.38
712.897	-3.38
712.924	1.62
712.951	26.62
712.978	19.62
713.005	18.62
713.032	18.62
713.059	-0.38
713.086	-1.38
713.113	-4.38
713.14	-5.38
713.167	3.62
713.194	0.62
713.221	-6.38
713.248	22.62
713.275	7.62
713.302	-4.38
713.329	9.62
713.356	25.62
713.383	16.62
713.41	11.62
713.437	-4.38
713.464	2.62
713.491	10.62
713.518	2.62
713.545	9.62
713.572	16.62
713.599	10.62
713.626	0.62
713.653	5.62
713.68	2.62
713.707	-7.38
713.734	-10.38
713.761	-22.38
713.788	5.62
713.815	20.62
713.842	12.62
713.869	4.62
713.896	5.62
713.923	7.62
713.95	2.62
713.977	-6.38
714.004	1.62
714.031	-0.38
714.058	-7.38
714.085	14.62
714.112	14.62
714.139	4.62
714.165	2.62
714.192	7.62
714.219	19.62
714.246	4.62
714.273	16.62
714.3	0.62
714.327	4.62
714.354	7.62
714.381	-6.38
714.408	9.62
714.435	9.62
714.461	0.62
714.488	1.62
714.515	4.62
714.542	3.62
714.569	-0.38
714.596	-0.38
714.623	0.62
714.65	9.62
714.677	16.62
714.703	11.62
714.73	1.62
714.757	-0.38
714.784	2.62
714.811	3.62
714.838	-0.38
714.865	-1.38
714.891	8.62
714.918	0.62
714.945	3.62
714.972	1.62
714.999	15.62
715.026	8.62
715.052	28.62
715.079	-0.38
715.106	3.62
715.133	-1.38
715.16	-6.38
715.187	7.62
715.213	-3.38
715.24	-9.38
715.267	8.62
715.294	3.62
715.321	6.62
715.347	6.62
715.374	-11.38
715.401	9.62
715.428	-7.38
715.455	5.62
715.481	9.62
715.508	4.62
715.535	-9.38
715.562	15.62
715.588	19.62
715.615	8.62
715.642	3.62
715.669	28.62
715.695	1.62
715.722	5.62
715.749	9.62
715.776	9.62
715.802	15.62
715.829	11.62
715.856	-1.38
715.883	2.62
715.909	10.62
715.936	9.62
715.963	9.62
715.99	2.62
716.016	4.62
716.043	6.62
716.07	6.62
716.096	-3.38
716.123	4.62
716.15	9.62
716.177	17.62
716.203	14.62
716.23	23.62
716.257	12.62
716.283	23.62
716.31	2.62
716.337	9.62
716.363	1.62
716.39	21.62
716.417	13.62
716.443	5.62
716.47	3.62
716.497	13.62
716.523	23.62
716.55	24.62
716.577	18.62
716.603	-1.38
716.63	7.62
716.657	13.62
716.683	1.62
716.71	-8.38
716.737	16.62
716.763	12.62
716.79	15.62
716.817	24.62
716.843	21.62
716.87	5.62
716.897	3.62
716.923	9.62
716.95	-6.38
716.976	-15.38
717.003	5.62
717.03	13.62
717.056	6.62
717.083	11.62
717.109	11.62
717.136	9.62
717.163	-6.38
717.189	2.62
717.216	8.62
717.242	3.62
717.269	7.62
717.296	0.62
717.322	11.62
717.349	8.62
717.375	15.62
717.402	2.62
717.428	14.62
717.455	15.62
717.481	10.62
717.508	4.62
717.535	7.62
717.561	0.62
717.588	-5.38
717.614	0.62
717.641	8.62
717.667	-0.38
717.694	25.62
717.72	12.62
717.747	4.62
717.773	-16.38
717.8	12.62
717.826	-2.38
717.853	10.62
717.88	11.62
717.906	13.62
717.933	18.62
717.959	4.62
717.986	4.62
718.012	-3.38
718.039	11.62
718.065	4.62
718.092	3.62
718.118	-6.38
718.144	-4.38
718.171	9.62
718.197	23.62
718.224	0.62
718.25	-3.38
718.277	0.62
718.303	14.62
718.33	16.62
718.356	-5.38
718.383	1.62
718.409	-6.38
718.436	10.62
718.462	-4.38
718.489	11.62
718.515	13.62
718.541	23.62
718.568	9.62
718.594	-0.38
718.621	0.62
718.647	-2.38
718.674	12.62
718.7	19.62
718.726	14.62
718.753	5.62
718.779	11.62
718.806	10.62
718.832	-0.38
718.858	5.62
718.885	7.62
718.911	0.62
718.938	17.62
718.964	-10.38
718.99	1.62
719.017	-3.38
719.043	13.62
719.07	27.62
719.096	-6.38
719.122	10.62
719.149	18.62
719.175	15.62
719.201	-4.38
719.228	-6.38
719.254	12.62
719.281	3.62
719.307	-7.38
719.333	8.62
719.36	16.62
719.386	5.62
719.412	13.62
719.439	-25.38
719.465	12.62
719.491	-3.38
719.518	4.62
719.544	3.62
719.57	5.62
719.597	2.62
719.623	0.62
719.649	5.62
719.675	7.62
719.702	12.62
719.728	13.62
719.754	0.62
719.781	-2.38
719.807	0.62
719.833	8.62
719.86	1.62
719.886	5.62
719.912	13.62
719.938	0.62
719.965	16.62
719.991	14.62
720.017	-2.38
720.044	-0.38
720.07	6.62
720.096	21.62
720.122	7.62
720.149	20.62
720.175	20.62
720.201	8.62
720.227	-20.38
720.254	2.62
720.28	19.62
720.306	2.62
720.332	6.62
720.359	10.62
720.385	0.62
720.411	5.62
720.437	16.62
720.463	6.62
720.49	11.62
720.516	-0.38
720.542	-10.38
720.568	-15.38
720.595	21.62
720.621	4.62
720.647	1.62
720.673	27.62
720.699	10.62
720.725	13.62
720.752	7.62
720.778	2.62
720.804	26.62
720.83	6.62
720.856	-2.38
720.883	0.62
720.909	-8.38
720.935	2.62
720.961	7.62
720.987	7.62
721.013	15.62
721.04	7.62
721.066	-1.38
721.092	-0.38
721.118	1.62
721.144	1.62
721.17	-2.38
721.196	14.62
721.223	-7.38
721.249	0.62
721.275	29.62
721.301	12.62
721.327	29.62
721.353	0.62
721.379	14.62
721.405	11.62
721.432	14.62
721.458	9.62
721.484	7.62
721.51	8.62
721.536	19.62
721.562	20.62
721.588	13.62
721.614	0.62
721.64	0.62
721.666	8.62
721.693	6.62
721.719	-11.38
721.745	-1.38
721.771	-14.38
721.797	-4.38
721.823	2.62
721.849	21.62
721.875	22.62
721.901	26.62
721.927	0.62
721.953	-9.38
721.979	27.62
722.005	14.62
722.031	6.62
722.057	16.62
722.083	3.62
722.109	17.62
722.135	13.62
722.161	22.62
722.187	7.62
722.214	9.62
722.24	-13.38
722.266	-6.38
722.292	9.62
722.318	25.62
722.344	12.62
722.37	5.62
722.396	25.62
722.422	7.62
722.448	-16.38
722.474	1.62
722.5	9.62
722.526	11.62
722.552	2.62
722.578	1.62
722.603	5.62
722.629	-3.38
722.655	11.62
722.681	6.62
722.707	3.62
722.733	-1.38
722.759	6.62
722.785	-1.38
722.811	0.62
722.837	8.62
722.863	20.62
722.889	8.62
722.915	-3.38
722.941	5.62
722.967	8.62
722.993	3.62
723.019	5.62
723.045	11.62
723.071	13.62
723.097	16.62
723.122	18.62
723.148	-3.38
723.174	-1.38
723.2	29.62
723.226	7.62
723.252	6.62
723.278	-6.38
723.304	2.62
723.33	11.62
723.356	-1.38
723.381	-0.38
723.407	-5.38
723.433	-7.38
723.459	-0.38
723.485	3.62
723.511	25.62
723.537	13.62
723.563	11.62
723.588	8.62
723.614	7.62
723.64	5.62
723.666	-0.38
723.692	13.62
723.718	5.62
723.744	9.62
723.769	-0.38
723.795	2.62
723.821	-6.38
723.847	2.62
723.873	6.62
723.899	4.62
723.924	6.62
723.95	17.62
723.976	5.62
724.002	21.62
724.028	22.62
724.053	8.62
724.079	-3.38
724.105	11.62
724.131	-3.38
724.157	17.62
724.182	17.62
724.208	5.62
724.234	16.62
724.26	22.62
724.286	27.62
724.311	11.62
724.337	2.62
724.363	-1.38
724.389	11.62
724.415	2.62
724.44	12.62
724.466	18.62
724.492	4.62
724.518	18.62
724.543	2.62
724.569	-7.38
724.595	-1.38
724.621	-7.38
724.646	-8.38
724.672	-4.38
724.698	14.62
724.723	12.62
724.749	18.62
724.775	28.62
724.801	10.62
724.826	14.62
724.852	12.62
724.878	-1.38
724.904	-14.38
724.929	-4.38
724.955	-20.38
724.981	5.62
725.006	-2.38
725.032	10.62
725.058	12.62
725.083	4.62
725.109	4.62
725.135	13.62
725.161	16.62
725.186	2.62
725.212	12.62
725.238	30.62
725.263	14.62
725.289	4.62
725.315	-16.38
725.34	2.62
725.366	-6.38
725.392	5.62
725.417	1.62
725.443	0.62
725.468	21.62
725.494	22.62
725.52	25.62
725.545	11.62
725.571	4.62
725.597	13.62
725.622	10.62
725.648	3.62
725.674	10.62
725.699	9.62
725.725	12.62
725.75	36.62
725.776	4.62
725.802	14.62
725.827	7.62
725.853	6.62
725.878	10.62
725.904	-3.38
725.93	8.62
725.955	-16.38
725.981	-4.38
726.006	7.62
726.032	7.62
726.057	0.62
726.083	0.62
726.109	-3.38
726.134	10.62
726.16	9.62
726.185	4.62
726.211	-8.38
726.236	13.62
726.262	-6.38
726.288	2.62
726.313	1.62
726.339	6.62
726.364	-0.38
726.39	21.62
726.415	4.62
726.441	-3.38
726.466	-7.38
726.492	2.62
726.517	16.62
726.543	-0.38
726.568	-22.38
726.594	-0.38
726.619	5.62
726.645	5.62
726.67	14.62
726.696	-2.38
726.721	-16.38
726.747	-6.38
726.772	-2.38
726.798	15.62
726.823	10.62
726.849	18.62
726.874	8.62
726.9	16.62
726.925	9.62
726.951	3.62
726.976	0.62
727.002	7.62
727.027	6.62
727.053	18.62
727.078	4.62
727.104	-2.38
727.129	4.62
727.155	0.62
727.18	21.62
727.205	5.62
727.231	7.62
727.256	1.62
727.282	10.62
727.307	8.62
727.333	6.62
727.358	-2.38
727.383	-9.38
727.409	11.62
727.434	16.62
727.46	1.62
727.485	4.62
727.511	11.62
727.536	-17.38
727.561	1.62
727.587	9.62
727.612	-8.38
727.637	-2.38
727.663	-3.38
727.688	28.62
727.714	-3.38
727.739	2.62
727.764	-0.38
727.79	16.62
727.815	4.62
727.841	16.62
727.866	7.62
727.891	0.62
727.917	4.62
727.942	-15.38
727.967	5.62
727.993	-7.38
728.018	-5.38
728.043	1.62
728.069	8.62
728.094	16.62
728.119	10.62
728.145	25.62
728.17	9.62
728.195	-3.38
728.221	11.62
728.246	-8.38
728.271	-0.38
728.297	8.62
728.322	10.62
728.347	1.62
728.373	1.62
728.398	-2.38
728.423	2.62
728.448	1.62
728.474	10.62
728.499	23.62
728.524	8.62
728.55	-5.38
728.575	5.62
728.6	22.62
728.625	1.62
728.651	0.62
728.676	-1.38
728.701	4.62
728.727	-1.38
728.752	-0.38
728.777	-4.38
728.802	4.62
728.828	-10.38
728.853	2.62
728.878	-11.38
728.903	-1.38
728.929	9.62
728.954	-3.38
728.979	12.62
729.004	7.62
729.03	-2.38
729.055	15.62
729.08	-5.38
729.105	-7.38
729.13	22.62
729.156	12.62
729.181	9.62
729.206	-2.38
729.231	-7.38
729.256	19.62
729.282	1.62
729.307	-6.38
729.332	-2.38
729.357	-2.38
729.382	10.62
729.408	1.62
729.433	0.62
729.458	7.62
729.483	26.62
729.508	21.62
729.533	4.62
729.559	10.62
729.584	-10.38
729.609	8.62
729.634	8.62
729.659	-11.38
729.684	-15.38
729.71	24.62
729.735	-0.38
729.76	6.62
729.785	-1.38
729.81	14.62
729.835	-4.38
729.86	-8.38
729.886	24.62
729.911	1.62
729.936	-2.38
729.961	10.62
729.986	-6.38
730.011	1.62
730.036	12.62
730.061	-1.38
730.086	0.62
730.112	13.62
730.137	15.62
730.162	10.62
730.187	0.62
730.212	4.62
730.237	4.62
730.262	10.62
730.287	8.62
730.312	20.62
730.337	4.62
730.362	14.62
730.387	2.62
730.413	5.62
730.438	13.62
730.463	2.62
730.488	-0.38
730.513	4.62
730.538	3.62
730.563	13.62
730.588	11.62
730.613	14.62
730.638	19.62
730.663	2.62
730.688	18.62
730.713	1.62
730.738	0.62
730.763	9.62
730.788	-7.38
730.813	18.62
730.838	4.62
730.863	19.62
730.888	0.62
730.913	4.62
730.938	-7.38
730.963	-0.38
730.988	4.62
731.013	12.62
731.038	-2.38
731.063	-3.38
731.088	6.62
731.113	1.62
731.138	-3.38
731.163	0.62
731.188	1.62
731.213	12.62
731.238	0.62
731.263	-5.38
731.288	11.62
731.313	27.62
731.338	6.62
731.363	7.62
731.388	-1.38
731.413	-1.38
731.438	11.62
731.463	12.62
731.487	41.62
731.512	12.62
731.537	2.62
731.562	-0.38
731.587	1.62
731.612	5.62
731.637	6.62
731.662	15.62
731.687	4.62
731.712	-13.38
731.737	1.62
731.762	-6.38
731.786	19.62
731.811	5.62
731.836	9.62
731.861	-8.38
731.886	-8.38
731.911	21.62
731.936	17.62
731.961	1.62
731.986	13.62
732.01	3.62
732.035	17.62
732.06	12.62
732.085	2.62
732.11	-3.38
732.135	-14.38
732.16	4.62
732.184	11.62
732.209	-3.38
732.234	9.62
732.259	-9.38
732.284	16.62
732.309	-0.38
732.334	-5.38
732.358	-12.38
732.383	-6.38
732.408	0.62
732.433	2.62
732.458	6.62
732.482	8.62
732.507	7.62
732.532	4.62
732.557	20.62
732.582	17.62
732.607	-9.38
732.631	-8.38
732.656	-3.38
732.681	-14.38
732.706	1.62
732.73	12.62
732.755	0.62
732.78	3.62
732.805	14.62
732.83	6.62
732.854	7.62
732.879	13.62
732.904	-1.38
732.929	6.62
732.953	8.62
732.978	4.62
733.003	8.62
733.028	1.62
733.052	22.62
733.077	0.62
733.102	16.62
733.127	-10.38
733.151	9.62
733.176	9.62
733.201	-2.38
733.226	-0.38
733.25	-0.38
733.275	12.62
733.3	21.62
733.324	22.62
733.349	7.62
733.374	13.62
733.399	7.62
733.423	7.62
733.448	5.62
733.473	9.62
733.497	-2.38
733.522	5.62
733.547	1.62
733.571	15.62
733.596	-3.38
733.621	-0.38
733.646	12.62
733.67	23.62
733.695	-2.38
733.72	10.62
733.744	19.62
733.769	21.62
733.794	28.62
733.818	10.62
733.843	1.62
733.867	-4.38
733.892	-8.38
733.917	-4.38
733.941	10.62
733.966	1.62
733.991	-7.38
734.015	11.62
734.04	5.62
734.065	13.62
734.089	17.62
734.114	6.62
734.138	24.62
734.163	15.62
734.188	13.62
734.212	10.62
734.237	12.62
734.261	17.62
734.286	2.62
734.311	4.62
734.335	-3.38
734.36	-2.38
734.384	-1.38
734.409	2.62
734.434	0.62
734.458	11.62
734.483	14.62
734.507	-11.38
734.532	6.62
734.556	8.62
734.581	-10.38
734.606	-2.38
734.63	-8.38
734.655	-5.38
734.679	0.62
734.704	10.62
734.728	9.62
734.753	14.62
734.777	20.62
734.802	2.62
734.826	-6.38
734.851	-4.38
734.876	19.62
734.9	16.62
734.925	12.62
734.949	11.62
734.974	-3.38
734.998	12.62
735.023	-3.38
735.047	-4.38
735.072	18.62
735.096	10.62
735.121	12.62
735.145	0.62
735.17	1.62
735.194	-2.38
735.219	13.62
735.243	16.62
735.268	13.62
735.292	15.62
735.317	-0.38
735.341	19.62
735.365	-11.38
735.39	12.62
735.414	12.62
735.439	25.62
735.463	12.62
735.488	19.62
735.512	17.62
735.537	5.62
735.561	13.62
735.586	10.62
735.61	10.62
735.634	-13.38
735.659	0.62
735.683	27.62
735.708	-3.38
735.732	5.62
735.757	9.62
735.781	8.62
735.805	16.62
735.83	-10.38
735.854	2.62
735.879	-5.38
735.903	7.62
735.927	4.62
735.952	7.62
735.976	8.62
736.001	-1.38
736.025	9.62
736.049	4.62
736.074	13.62
736.098	15.62
736.123	-0.38
736.147	6.62
736.171	10.62
736.196	25.62
736.22	-0.38
736.244	22.62
736.269	7.62
736.293	5.62
736.317	-3.38
736.342	7.62
736.366	23.62
736.39	18.62
736.415	8.62
736.439	1.62
736.463	19.62
736.488	3.62
736.512	12.62
736.536	13.62
736.561	18.62
736.585	3.62
736.609	2.62
736.634	6.62
736.658	13.62
736.682	-10.38
736.707	-1.38
736.731	-0.38
736.755	11.62
736.78	41.62
736.804	16.62
736.828	15.62
736.852	-1.38
736.877	17.62
736.901	1.62
736.925	4.62
736.949	2.62
736.974	6.62
736.998	-14.38
737.022	17.62
737.047	-1.38
737.071	-3.38
737.095	24.62
737.119	28.62
737.144	6.62
737.168	2.62
737.192	7.62
737.216	25.62
737.241	-6.38
737.265	14.62
737.289	-2.38
737.313	-0.38
737.337	15.62
737.362	6.62
737.386	16.62
737.41	7.62
737.434	11.62
737.459	3.62
737.483	19.62
737.507	4.62
737.531	8.62
737.555	26.62
737.58	19.62
737.604	21.62
737.628	-1.38
737.652	-4.38
737.676	1.62
737.701	-2.38
737.725	13.62
737.749	16.62
737.773	-0.38
737.797	-2.38
737.821	1.62
737.846	0.62
737.87	30.62
737.894	8.62
737.918	8.62
737.942	6.62
737.966	9.62
737.99	13.62
738.015	17.62
738.039	21.62
738.063	1.62
738.087	28.62
738.111	14.62
738.135	17.62
738.159	11.62
738.184	15.62
738.208	20.62
738.232	11.62
738.256	24.62
738.28	36.62
738.304	14.62
738.328	7.62
738.352	10.62
738.376	-1.38
738.4	12.62
738.425	22.62
738.449	11.62
738.473	12.62
738.497	1.62
738.521	5.62
738.545	5.62
738.569	24.62
738.593	14.62
738.617	14.62
738.641	5.62
738.665	10.62
738.689	15.62
738.713	4.62
738.737	0.62
738.762	24.62
738.786	11.62
738.81	-2.38
738.834	16.62
738.858	-0.38
738.882	10.62
738.906	-0.38
738.93	5.62
738.954	11.62
738.978	-1.38
739.002	-0.38
739.026	17.62
739.05	17.62
739.074	15.62
739.098	36.62
739.122	28.62
739.146	20.62
739.17	27.62
739.194	14.62
739.218	-2.38
739.242	5.62
739.266	4.62
739.29	7.62
739.314	14.62
739.338	7.62
739.362	-7.38
739.386	2.62
739.41	0.62
739.434	10.62
739.458	15.62
739.482	21.62
739.506	-5.38
739.53	4.62
739.554	13.62
739.577	9.62
739.601	10.62
739.625	4.62
739.649	4.62
739.673	4.62
739.697	8.62
739.721	12.62
739.745	16.62
739.769	17.62
739.793	12.62
739.817	14.62
739.841	-2.38
739.865	-10.38
739.889	-9.38
739.912	10.62
739.936	4.62
739.96	1.62
739.984	21.62
740.008	-0.38
740.032	12.62
740.056	-0.38
740.08	-17.38
740.104	-0.38
740.127	16.62
740.151	16.62
740.175	16.62
740.199	9.62
740.223	41.62
740.247	4.62
740.271	13.62
740.295	4.62
740.318	-11.38
740.342	-2.38
740.366	17.62
740.39	13.62
740.414	15.62
740.438	3.62
740.461	28.62
740.485	7.62
740.509	-1.38
740.533	5.62
740.557	-0.38
740.581	8.62
740.604	-17.38
740.628	11.62
740.652	17.62
740.676	11.62
740.7	12.62
740.723	-1.38
740.747	-7.38
740.771	-4.38
740.795	-3.38
740.819	13.62
740.842	3.62
740.866	16.62
740.89	20.62
740.914	0.62
740.938	-2.38
740.961	8.62
740.985	21.62
741.009	-9.38
741.033	9.62
741.056	8.62
741.08	10.62
741.104	5.62
741.128	-6.38
741.151	18.62
741.175	0.62
741.199	14.62
741.223	15.62
741.246	7.62
741.27	16.62
741.294	-0.38
741.318	4.62
741.341	4.62
741.365	8.62
741.389	6.62
741.413	19.62
741.436	18.62
741.46	10.62
741.484	31.62
741.507	14.62
741.531	22.62
741.555	16.62
741.579	13.62
741.602	16.62
741.626	9.62
741.65	1.62
741.673	7.62
741.697	6.62
741.721	4.62
741.744	-16.38
741.768	6.62
741.792	9.62
741.815	6.62
741.839	21.62
741.863	13.62
741.886	13.62
741.91	24.62
741.934	21.62
741.957	2.62
741.981	15.62
742.005	8.62
742.028	-3.38
742.052	8.62
742.075	14.62
742.099	24.62
742.123	4.62
742.146	11.62
742.17	-1.38
742.194	-10.38
742.217	12.62
742.241	6.62
742.264	12.62
742.288	26.62
742.312	19.62
742.335	8.62
742.359	25.62
742.382	22.62
742.406	15.62
742.43	4.62
742.453	17.62
742.477	8.62
742.5	12.62
742.524	2.62
742.548	-7.38
742.571	-4.38
742.595	-6.38
742.618	-2.38
742.642	4.62
742.665	29.62
742.689	-1.38
742.712	3.62
742.736	-7.38
742.76	1.62
742.783	-7.38
742.807	21.62
742.83	15.62
742.854	-0.38
742.877	6.62
742.901	8.62
742.924	1.62
742.948	9.62
742.971	11.62
742.995	13.62
743.018	-18.38
743.042	1.62
743.065	8.62
743.089	-2.38
743.112	2.62
743.136	-2.38
743.159	7.62
743.183	5.62
743.206	11.62
743.23	14.62
743.253	6.62
743.277	21.62
743.3	2.62
743.324	10.62
743.347	8.62
743.371	13.62
743.394	-10.38
743.418	23.62
743.441	13.62
743.465	10.62
743.488	-1.38
743.512	6.62
743.535	17.62
743.558	6.62
743.582	12.62
743.605	13.62
743.629	0.62
743.652	17.62
743.676	21.62
743.699	16.62
743.723	19.62
743.746	14.62
743.769	13.62
743.793	16.62
743.816	-5.38
743.84	13.62
743.863	1.62
743.886	4.62
743.91	14.62
743.933	7.62
743.957	7.62
743.98	1.62
744.003	-0.38
744.027	0.62
744.05	14.62
744.074	7.62
744.097	-18.38
744.12	5.62
744.144	-5.38
744.167	22.62
744.19	7.62
744.214	-15.38
744.237	-4.38
744.26	9.62
744.284	8.62
744.307	1.62
744.331	14.62
744.354	-2.38
744.377	7.62
744.401	16.62
744.424	7.62
744.447	-6.38
744.471	1.62
