Data from HighRes_H2_15_09_11_07_2024_HR4C61891__65__15-11-02-902.txt Node

Date: Thu Nov 07 15:11:02 EST 2024
User: crc00042
Spectrometer: HR4C6189
Trigger mode: 4
Integration Time (sec): 1.000000E-1
Scans to average: 1
Electric dark correction enabled: true
Nonlinearity correction enabled: false
Boxcar width: 0
XAxis mode: Wavelengths
Number of Pixels in Spectrum: 3648
>>>>>Begin Spectral Data<<<<<
639.567	-34.85
639.602	-34.85
639.636	-34.85
639.67	-50.85
639.704	-19.85
639.738	4.15
639.773	8.15
639.807	-6.85
639.841	-2.85
639.875	4.15
639.909	-10.85
639.943	-12.85
639.978	-5.85
640.012	15.15
640.046	11.15
640.08	6.15
640.114	1.15
640.148	-10.85
640.182	-8.85
640.217	-6.85
640.251	7.15
640.285	-2.85
640.319	-10.85
640.353	-4.85
640.387	-6.85
640.421	-7.85
640.455	-6.85
640.49	0.15
640.524	6.15
640.558	-5.85
640.592	-4.85
640.626	-0.85
640.66	7.15
640.694	5.15
640.728	-0.85
640.762	9.15
640.796	23.15
640.83	1.15
640.865	3.15
640.899	7.15
640.933	-2.85
640.967	4.15
641.001	1.15
641.035	-2.85
641.069	3.15
641.103	0.15
641.137	4.15
641.171	-17.85
641.205	0.15
641.239	-0.85
641.273	21.15
641.307	12.15
641.341	-4.85
641.375	1.15
641.409	-13.85
641.443	0.15
641.477	-7.85
641.511	0.15
641.545	10.15
641.579	5.15
641.614	17.15
641.648	7.15
641.682	-8.85
641.716	7.15
641.75	17.15
641.784	-3.85
641.818	0.15
641.852	6.15
641.886	-4.85
641.919	33.15
641.953	-14.85
641.987	-4.85
642.021	-0.85
642.055	3.15
642.089	-11.85
642.123	-13.85
642.157	-11.85
642.191	-7.85
642.225	4.15
642.259	1.15
642.293	8.15
642.327	-2.85
642.361	-10.85
642.395	0.15
642.429	1.15
642.463	-5.85
642.497	-1.85
642.531	-4.85
642.565	-6.85
642.599	3.15
642.633	-14.85
642.666	11.15
642.7	9.15
642.734	3.15
642.768	-12.85
642.802	1.15
642.836	-14.85
642.87	7.15
642.904	6.15
642.938	6.15
642.972	9.15
643.005	2.15
643.039	4.15
643.073	-18.85
643.107	-1.85
643.141	-3.85
643.175	-13.85
643.209	8.15
643.243	1.15
643.276	5.15
643.31	-5.85
643.344	-11.85
643.378	-0.85
643.412	13.15
643.446	-4.85
643.48	-8.85
643.513	-0.85
643.547	-3.85
643.581	-5.85
643.615	-1.85
643.649	-8.85
643.683	10.15
643.716	-7.85
643.75	-4.85
643.784	-17.85
643.818	0.15
643.852	-8.85
643.886	4.15
643.919	0.15
643.953	5.15
643.987	-6.85
644.021	19.15
644.055	21.15
644.088	-1.85
644.122	-10.85
644.156	-12.85
644.19	6.15
644.224	0.15
644.257	-0.85
644.291	2.15
644.325	-8.85
644.359	-13.85
644.392	14.15
644.426	-1.85
644.46	4.15
644.494	8.15
644.527	-7.85
644.561	2.15
644.595	-8.85
644.629	-17.85
644.662	-8.85
644.696	8.15
644.73	3.15
644.764	6.15
644.797	-2.85
644.831	-5.85
644.865	4.15
644.899	0.15
644.932	22.15
644.966	1.15
645	4.15
645.033	7.15
645.067	2.15
645.101	15.15
645.135	2.15
645.168	-5.85
645.202	14.15
645.236	-4.85
645.269	1.15
645.303	-5.85
645.337	-9.85
645.37	-0.85
645.404	-1.85
645.438	-6.85
645.471	4.15
645.505	4.15
645.539	7.15
645.572	-20.85
645.606	-5.85
645.64	1.15
645.673	7.15
645.707	16.15
645.741	4.15
645.774	-5.85
645.808	2.15
645.842	-6.85
645.875	13.15
645.909	-14.85
645.943	-17.85
645.976	3.15
646.01	1.15
646.043	7.15
646.077	16.15
646.111	10.15
646.144	9.15
646.178	27.15
646.212	-5.85
646.245	-8.85
646.279	8.15
646.312	31.15
646.346	10.15
646.38	7.15
646.413	6.15
646.447	0.15
646.48	-1.85
646.514	-1.85
646.547	3.15
646.581	-7.85
646.615	-4.85
646.648	-4.85
646.682	-0.85
646.715	1.15
646.749	15.15
646.782	-4.85
646.816	-9.85
646.85	11.15
646.883	-7.85
646.917	-7.85
646.95	-8.85
646.984	-5.85
647.017	3.15
647.051	5.15
647.084	11.15
647.118	-1.85
647.151	-10.85
647.185	0.15
647.218	8.15
647.252	6.15
647.285	-14.85
647.319	-5.85
647.353	-1.85
647.386	7.15
647.42	-1.85
647.453	-4.85
647.487	-10.85
647.52	-5.85
647.553	4.15
647.587	8.15
647.62	10.15
647.654	10.15
647.687	-2.85
647.721	1.15
647.754	5.15
647.788	-3.85
647.821	-1.85
647.855	7.15
647.888	11.15
647.922	8.15
647.955	0.15
647.989	-2.85
648.022	1.15
648.055	8.15
648.089	6.15
648.122	16.15
648.156	0.15
648.189	-7.85
648.223	14.15
648.256	3.15
648.29	6.15
648.323	-6.85
648.356	-3.85
648.39	2.15
648.423	-6.85
648.457	-4.85
648.49	6.15
648.523	14.15
648.557	12.15
648.59	-1.85
648.624	-3.85
648.657	-0.85
648.69	13.15
648.724	4.15
648.757	-3.85
648.791	-0.85
648.824	-0.85
648.857	8.15
648.891	4.15
648.924	5.15
648.957	22.15
648.991	-10.85
649.024	0.15
649.057	-3.85
649.091	5.15
649.124	18.15
649.158	0.15
649.191	19.15
649.224	4.15
649.258	10.15
649.291	-1.85
649.324	14.15
649.358	5.15
649.391	1.15
649.424	3.15
649.458	-7.85
649.491	9.15
649.524	-11.85
649.557	-11.85
649.591	-15.85
649.624	5.15
649.657	5.15
649.691	13.15
649.724	8.15
649.757	-0.85
649.791	-8.85
649.824	19.15
649.857	12.15
649.89	1.15
649.924	-26.85
649.957	-11.85
649.99	-3.85
650.023	1.15
650.057	-9.85
650.09	4.15
650.123	1.15
650.157	12.15
650.19	19.15
650.223	-8.85
650.256	-8.85
650.29	-10.85
650.323	7.15
650.356	-4.85
650.389	-9.85
650.423	2.15
650.456	3.15
650.489	8.15
650.522	13.15
650.555	12.15
650.589	15.15
650.622	-4.85
650.655	19.15
650.688	4.15
650.721	-5.85
650.755	2.15
650.788	17.15
650.821	2.15
650.854	-2.85
650.887	-8.85
650.921	-1.85
650.954	-1.85
650.987	0.15
651.02	-2.85
651.053	2.15
651.087	-14.85
651.12	4.15
651.153	-0.85
651.186	9.15
651.219	-9.85
651.252	2.15
651.286	14.15
651.319	-13.85
651.352	6.15
651.385	-19.85
651.418	-4.85
651.451	11.15
651.484	4.15
651.518	-24.85
651.551	6.15
651.584	-9.85
651.617	14.15
651.65	-4.85
651.683	4.15
651.716	-0.85
651.749	-5.85
651.783	0.15
651.816	-15.85
651.849	24.15
651.882	3.15
651.915	-5.85
651.948	15.15
651.981	-4.85
652.014	-29.85
652.047	-23.85
652.08	-13.85
652.114	2.15
652.147	1.15
652.18	-1.85
652.213	16.15
652.246	0.15
652.279	-0.85
652.312	2.15
652.345	5.15
652.378	5.15
652.411	6.15
652.444	-0.85
652.477	3.15
652.51	-12.85
652.543	-22.85
652.576	-7.85
652.609	3.15
652.642	-2.85
652.675	14.15
652.709	2.15
652.742	6.15
652.775	11.15
652.808	5.15
652.841	7.15
652.874	6.15
652.907	-2.85
652.94	-24.85
652.973	-7.85
653.006	-16.85
653.039	-2.85
653.072	5.15
653.105	3.15
653.138	-7.85
653.171	-5.85
653.204	1.15
653.237	7.15
653.27	-1.85
653.303	18.15
653.336	16.15
653.368	11.15
653.401	0.15
653.434	-3.85
653.467	-6.85
653.5	-17.85
653.533	-3.85
653.566	6.15
653.599	-5.85
653.632	-4.85
653.665	5.15
653.698	-6.85
653.731	-8.85
653.764	3.15
653.797	3.15
653.83	1.15
653.863	-0.85
653.896	5.15
653.929	4.15
653.961	-10.85
653.994	-9.85
654.027	-9.85
654.06	-4.85
654.093	1.15
654.126	-18.85
654.159	-13.85
654.192	2.15
654.225	-10.85
654.258	-8.85
654.29	-3.85
654.323	-12.85
654.356	-6.85
654.389	15.15
654.422	-0.85
654.455	-12.85
654.488	6.15
654.521	-14.85
654.553	-1.85
654.586	10.15
654.619	-6.85
654.652	5.15
654.685	10.15
654.718	15.15
654.751	25.15
654.783	2.15
654.816	24.15
654.849	6.15
654.882	-6.85
654.915	-10.85
654.948	3.15
654.98	-14.85
655.013	7.15
655.046	-9.85
655.079	-15.85
655.112	13.15
655.144	-20.85
655.177	4.15
655.21	4.15
655.243	6.15
655.276	1.15
655.308	7.15
655.341	-23.85
655.374	-0.85
655.407	-11.85
655.44	-5.85
655.472	24.15
655.505	15.15
655.538	6.15
655.571	9.15
655.603	-8.85
655.636	13.15
655.669	8.15
655.702	15.15
655.734	-6.85
655.767	-0.85
655.8	15.15
655.833	22.15
655.865	30.15
655.898	17.15
655.931	30.15
655.964	54.15
655.996	50.15
656.029	54.15
656.062	50.15
656.095	77.15
656.127	57.15
656.16	99.15
656.193	140.15
656.225	197.15
656.258	255.15
656.291	511.15
656.324	1095.15
656.356	3413.15
656.389	7560.15
656.422	5985.15
656.454	2047.15
656.487	683.15
656.52	268.15
656.552	128.15
656.585	69.15
656.618	62.15
656.65	31.15
656.683	25.15
656.716	4.15
656.748	10.15
656.781	-5.85
656.814	2.15
656.846	8.15
656.879	4.15
656.912	21.15
656.944	-22.85
656.977	-11.85
657.01	-1.85
657.042	0.15
657.075	-1.85
657.108	1.15
657.14	8.15
657.173	12.15
657.205	32.15
657.238	12.15
657.271	-1.85
657.303	-25.85
657.336	-11.85
657.369	-5.85
657.401	0.15
657.434	9.15
657.466	-1.85
657.499	1.15
657.532	14.15
657.564	9.15
657.597	3.15
657.629	12.15
657.662	1.15
657.694	4.15
657.727	-17.85
657.76	6.15
657.792	3.15
657.825	-4.85
657.857	-3.85
657.89	-20.85
657.922	3.15
657.955	-2.85
657.987	-0.85
658.02	7.15
658.053	-2.85
658.085	-12.85
658.118	8.15
658.15	14.15
658.183	14.15
658.215	2.15
658.248	-23.85
658.28	3.15
658.313	-3.85
658.345	-9.85
658.378	10.15
658.41	-4.85
658.443	-13.85
658.475	6.15
658.508	6.15
658.54	-3.85
658.573	-7.85
658.605	2.15
658.638	-3.85
658.67	-1.85
658.703	-3.85
658.735	-9.85
658.768	4.15
658.8	-17.85
658.833	17.15
658.865	-5.85
658.898	12.15
658.93	-0.85
658.963	12.15
658.995	-24.85
659.028	0.15
659.06	-4.85
659.092	-1.85
659.125	-7.85
659.157	9.15
659.19	-16.85
659.222	-0.85
659.255	-12.85
659.287	-9.85
659.32	-23.85
659.352	-16.85
659.384	-4.85
659.417	-10.85
659.449	15.15
659.482	7.15
659.514	-27.85
659.546	4.15
659.579	-5.85
659.611	2.15
659.644	-16.85
659.676	-22.85
659.708	-9.85
659.741	-9.85
659.773	13.15
659.806	-8.85
659.838	11.15
659.87	1.15
659.903	-15.85
659.935	-7.85
659.967	4.15
660	13.15
660.032	-20.85
660.065	7.15
660.097	3.15
660.129	3.15
660.162	-9.85
660.194	4.15
660.226	-10.85
660.259	-0.85
660.291	-12.85
660.323	-13.85
660.356	5.15
660.388	2.15
660.42	4.15
660.453	8.15
660.485	6.15
660.517	3.15
660.55	12.15
660.582	-6.85
660.614	1.15
660.647	-10.85
660.679	-18.85
660.711	-2.85
660.743	-21.85
660.776	9.15
660.808	8.15
660.84	3.15
660.873	-4.85
660.905	-3.85
660.937	-8.85
660.969	10.15
661.002	5.15
661.034	14.15
661.066	-4.85
661.099	5.15
661.131	12.15
661.163	20.15
661.195	13.15
661.228	14.15
661.26	-7.85
661.292	2.15
661.324	14.15
661.357	7.15
661.389	-0.85
661.421	-6.85
661.453	0.15
661.485	5.15
661.518	-1.85
661.55	-12.85
661.582	-16.85
661.614	-7.85
661.647	5.15
661.679	-8.85
661.711	-8.85
661.743	-2.85
661.775	-6.85
661.808	19.15
661.84	-9.85
661.872	-7.85
661.904	2.15
661.936	-5.85
661.969	-18.85
662.001	-5.85
662.033	2.15
662.065	-10.85
662.097	21.15
662.129	7.15
662.162	1.15
662.194	2.15
662.226	-2.85
662.258	-4.85
662.29	10.15
662.322	-4.85
662.355	-5.85
662.387	15.15
662.419	4.15
662.451	3.15
662.483	0.15
662.515	-2.85
662.547	3.15
662.58	-17.85
662.612	-16.85
662.644	-13.85
662.676	-8.85
662.708	24.15
662.74	-0.85
662.772	6.15
662.804	8.15
662.836	-0.85
662.869	-4.85
662.901	4.15
662.933	9.15
662.965	18.15
662.997	-0.85
663.029	-9.85
663.061	6.15
663.093	9.15
663.125	2.15
663.157	6.15
663.189	10.15
663.221	0.15
663.254	-3.85
663.286	-5.85
663.318	1.15
663.35	-1.85
663.382	4.15
663.414	8.15
663.446	0.15
663.478	-14.85
663.51	7.15
663.542	-0.85
663.574	7.15
663.606	6.15
663.638	-9.85
663.67	-5.85
663.702	-5.85
663.734	1.15
663.766	-7.85
663.798	6.15
663.83	-10.85
663.862	4.15
663.894	14.15
663.926	3.15
663.958	29.15
663.99	-9.85
664.022	-4.85
664.054	10.15
664.086	9.15
664.118	-13.85
664.15	-21.85
664.182	-3.85
664.214	-3.85
664.246	6.15
664.278	-9.85
664.31	5.15
664.342	11.15
664.374	-10.85
664.406	-16.85
664.438	3.15
664.47	23.15
664.502	-1.85
664.534	5.15
664.566	-0.85
664.598	11.15
664.63	-3.85
664.662	-5.85
664.693	-0.85
664.725	-12.85
664.757	10.15
664.789	-5.85
664.821	-2.85
664.853	8.15
664.885	-6.85
664.917	-10.85
664.949	23.15
664.981	20.15
665.013	3.15
665.045	-16.85
665.076	2.15
665.108	-6.85
665.14	-14.85
665.172	7.15
665.204	-13.85
665.236	1.15
665.268	6.15
665.3	-5.85
665.331	-10.85
665.363	-9.85
665.395	-0.85
665.427	-7.85
665.459	4.15
665.491	2.15
665.523	-2.85
665.555	-2.85
665.586	15.15
665.618	2.15
665.65	-8.85
665.682	-0.85
665.714	-16.85
665.746	-8.85
665.777	-0.85
665.809	-2.85
665.841	-6.85
665.873	-11.85
665.905	0.15
665.937	-0.85
665.968	3.15
666	-10.85
666.032	-2.85
666.064	-9.85
666.096	12.15
666.127	7.15
666.159	3.15
666.191	9.15
666.223	-7.85
666.255	17.15
666.286	10.15
666.318	-0.85
666.35	18.15
666.382	-5.85
666.413	-10.85
666.445	-19.85
666.477	-17.85
666.509	-3.85
666.54	-4.85
666.572	-3.85
666.604	-5.85
666.636	20.15
666.667	17.15
666.699	21.15
666.731	-3.85
666.763	-10.85
666.794	-15.85
666.826	-1.85
666.858	-8.85
666.89	9.15
666.921	-0.85
666.953	-3.85
666.985	3.15
667.017	30.15
667.048	13.15
667.08	2.15
667.112	-20.85
667.143	-2.85
667.175	1.15
667.207	-1.85
667.238	-12.85
667.27	-2.85
667.302	-2.85
667.334	-6.85
667.365	24.15
667.397	-14.85
667.429	-18.85
667.46	17.15
667.492	5.15
667.524	5.15
667.555	-15.85
667.587	7.15
667.619	-14.85
667.65	-7.85
667.682	-1.85
667.714	11.15
667.745	10.15
667.777	-8.85
667.808	1.15
667.84	15.15
667.872	-5.85
667.903	-0.85
667.935	1.15
667.967	-0.85
667.998	2.15
668.03	-9.85
668.061	8.15
668.093	7.15
668.125	5.15
668.156	-15.85
668.188	-24.85
668.22	-1.85
668.251	7.15
668.283	-0.85
668.314	26.15
668.346	-2.85
668.377	-8.85
668.409	-1.85
668.441	8.15
668.472	26.15
668.504	17.15
668.535	11.15
668.567	3.15
668.599	6.15
668.63	11.15
668.662	18.15
668.693	18.15
668.725	-1.85
668.756	-4.85
668.788	3.15
668.819	6.15
668.851	-1.85
668.882	-13.85
668.914	-10.85
668.946	-2.85
668.977	-4.85
669.009	-8.85
669.04	-14.85
669.072	-5.85
669.103	4.15
669.135	-5.85
669.166	-9.85
669.198	10.15
669.229	11.15
669.261	-1.85
669.292	7.15
669.324	7.15
669.355	11.15
669.387	2.15
669.418	4.15
669.45	-9.85
669.481	9.15
669.513	10.15
669.544	10.15
669.576	-0.85
669.607	3.15
669.639	11.15
669.67	2.15
669.701	1.15
669.733	-6.85
669.764	-8.85
669.796	6.15
669.827	-11.85
669.859	-5.85
669.89	11.15
669.922	8.15
669.953	15.15
669.985	13.15
670.016	5.15
670.047	2.15
670.079	-18.85
670.11	1.15
670.142	-11.85
670.173	1.15
670.204	-2.85
670.236	-15.85
670.267	-1.85
670.299	3.15
670.33	-5.85
670.362	-0.85
670.393	-16.85
670.424	16.15
670.456	-25.85
670.487	7.15
670.518	-11.85
670.55	-9.85
670.581	2.15
670.613	-5.85
670.644	-26.85
670.675	-13.85
670.707	1.15
670.738	0.15
670.769	0.15
670.801	-11.85
670.832	-3.85
670.864	-5.85
670.895	-11.85
670.926	-10.85
670.958	8.15
670.989	-7.85
671.02	-20.85
671.052	-1.85
671.083	6.15
671.114	-0.85
671.146	14.15
671.177	-3.85
671.208	-14.85
671.24	-27.85
671.271	-1.85
671.302	12.15
671.333	21.15
671.365	-5.85
671.396	-3.85
671.427	13.15
671.459	12.15
671.49	-5.85
671.521	5.15
671.553	8.15
671.584	11.15
671.615	-13.85
671.646	0.15
671.678	2.15
671.709	-11.85
671.74	-31.85
671.771	-27.85
671.803	1.15
671.834	5.15
671.865	4.15
671.896	7.15
671.928	0.15
671.959	-0.85
671.99	3.15
672.021	-7.85
672.053	4.15
672.084	0.15
672.115	1.15
672.146	-11.85
672.178	-11.85
672.209	-12.85
672.24	-9.85
672.271	12.15
672.303	-2.85
672.334	-0.85
672.365	-0.85
672.396	-7.85
672.427	-9.85
672.459	3.15
672.49	24.15
672.521	12.15
672.552	16.15
672.583	4.15
672.615	-11.85
672.646	4.15
672.677	2.15
672.708	4.15
672.739	-9.85
672.77	15.15
672.802	-15.85
672.833	-6.85
672.864	6.15
672.895	-6.85
672.926	-30.85
672.957	2.15
672.989	10.15
673.02	3.15
673.051	-0.85
673.082	-4.85
673.113	-13.85
673.144	3.15
673.175	4.15
673.206	-1.85
673.238	-4.85
673.269	10.15
673.3	-0.85
673.331	-0.85
673.362	-4.85
673.393	0.15
673.424	3.15
673.455	3.15
673.487	-1.85
673.518	6.15
673.549	-2.85
673.58	-1.85
673.611	7.15
673.642	6.15
673.673	-13.85
673.704	4.15
673.735	-3.85
673.766	-3.85
673.797	1.15
673.828	-13.85
673.86	-17.85
673.891	-1.85
673.922	-25.85
673.953	-9.85
673.984	-2.85
674.015	11.15
674.046	-4.85
674.077	-8.85
674.108	-11.85
674.139	5.15
674.17	-6.85
674.201	-13.85
674.232	1.15
674.263	-2.85
674.294	-16.85
674.325	-12.85
674.356	2.15
674.387	2.15
674.418	-7.85
674.449	-15.85
674.48	-22.85
674.511	-14.85
674.542	-2.85
674.573	-28.85
674.604	7.15
674.635	-17.85
674.666	7.15
674.697	3.15
674.728	-5.85
674.759	-10.85
674.79	-7.85
674.821	2.15
674.852	3.15
674.883	-18.85
674.914	-1.85
674.945	0.15
674.976	-4.85
675.007	-20.85
675.038	-9.85
675.069	-20.85
675.1	-5.85
675.131	-15.85
675.162	-14.85
675.193	-12.85
675.224	-1.85
675.254	1.15
675.285	4.15
675.316	6.15
675.347	1.15
675.378	-6.85
675.409	-6.85
675.44	8.15
675.471	4.15
675.502	-7.85
675.533	6.15
675.564	-14.85
675.595	-5.85
675.625	21.15
675.656	-1.85
675.687	11.15
675.718	-5.85
675.749	-8.85
675.78	1.15
675.811	-2.85
675.842	4.15
675.873	-13.85
675.903	-11.85
675.934	2.15
675.965	-16.85
675.996	-6.85
676.027	21.15
676.058	13.15
676.089	-0.85
676.119	0.15
676.15	-17.85
676.181	3.15
676.212	-7.85
676.243	5.15
676.274	-7.85
676.304	10.15
676.335	2.15
676.366	6.15
676.397	-6.85
676.428	-12.85
676.459	6.15
676.489	8.15
676.52	14.15
676.551	0.15
676.582	-5.85
676.613	1.15
676.643	-2.85
676.674	9.15
676.705	2.15
676.736	11.15
676.767	-5.85
676.797	2.15
676.828	13.15
676.859	-4.85
676.89	-11.85
676.92	-0.85
676.951	-5.85
676.982	2.15
677.013	-11.85
677.044	7.15
677.074	0.15
677.105	2.15
677.136	3.15
677.167	8.15
677.197	17.15
677.228	2.15
677.259	-3.85
677.289	-4.85
677.32	1.15
677.351	4.15
677.382	3.15
677.412	-5.85
677.443	-0.85
677.474	-5.85
677.505	-13.85
677.535	-1.85
677.566	-1.85
677.597	-22.85
677.627	-17.85
677.658	-5.85
677.689	-1.85
677.72	3.15
677.75	9.15
677.781	4.15
677.812	3.15
677.842	11.15
677.873	2.15
677.904	3.15
677.934	14.15
677.965	-2.85
677.996	-17.85
678.026	6.15
678.057	6.15
678.088	-10.85
678.118	-3.85
678.149	-2.85
678.18	-5.85
678.21	-1.85
678.241	-1.85
678.272	-0.85
678.302	-0.85
678.333	5.15
678.363	1.15
678.394	0.15
678.425	-13.85
678.455	-1.85
678.486	7.15
678.517	7.15
678.547	-10.85
678.578	6.15
678.608	-8.85
678.639	8.15
678.67	10.15
678.7	-13.85
678.731	2.15
678.761	-14.85
678.792	1.15
678.823	15.15
678.853	-6.85
678.884	-4.85
678.914	1.15
678.945	-8.85
678.975	-8.85
679.006	11.15
679.037	-11.85
679.067	3.15
679.098	2.15
679.128	-7.85
679.159	-10.85
679.189	-1.85
679.22	-6.85
679.25	16.15
679.281	-4.85
679.312	1.15
679.342	-14.85
679.373	20.15
679.403	-0.85
679.434	2.15
679.464	-1.85
679.495	-5.85
679.525	-0.85
679.556	5.15
679.586	1.15
679.617	-18.85
679.647	-7.85
679.678	15.15
679.708	5.15
679.739	-4.85
679.769	-9.85
679.8	-14.85
679.83	-10.85
679.861	2.15
679.891	-5.85
679.922	-12.85
679.952	-1.85
679.983	12.15
680.013	1.15
680.044	9.15
680.074	5.15
680.105	10.15
680.135	-7.85
680.165	-3.85
680.196	13.15
680.226	9.15
680.257	3.15
680.287	-10.85
680.318	-17.85
680.348	-21.85
680.379	16.15
680.409	7.15
680.439	1.15
680.47	0.15
680.5	-4.85
680.531	-5.85
680.561	8.15
680.592	8.15
680.622	3.15
680.652	2.15
680.683	10.15
680.713	3.15
680.744	2.15
680.774	-18.85
680.804	20.15
680.835	-15.85
680.865	-6.85
680.896	11.15
680.926	26.15
680.956	2.15
680.987	22.15
681.017	5.15
681.047	-12.85
681.078	-6.85
681.108	4.15
681.139	-1.85
681.169	-13.85
681.199	-10.85
681.23	10.15
681.26	1.15
681.29	12.15
681.321	-8.85
681.351	-7.85
681.381	-17.85
681.412	-8.85
681.442	3.15
681.472	10.15
681.503	7.15
681.533	-6.85
681.563	-5.85
681.594	-16.85
681.624	-2.85
681.654	-4.85
681.685	-13.85
681.715	9.15
681.745	13.15
681.775	4.15
681.806	4.15
681.836	-28.85
681.866	-2.85
681.897	2.15
681.927	1.15
681.957	-25.85
681.987	-0.85
682.018	4.15
682.048	-6.85
682.078	-16.85
682.109	14.15
682.139	17.15
682.169	22.15
682.199	-0.85
682.23	-16.85
682.26	1.15
682.29	-1.85
682.32	5.15
682.351	3.15
682.381	10.15
682.411	-2.85
682.441	-7.85
682.472	-21.85
682.502	0.15
682.532	-10.85
682.562	5.15
682.592	-0.85
682.623	9.15
682.653	3.15
682.683	-8.85
682.713	-1.85
682.743	-0.85
682.774	-14.85
682.804	-4.85
682.834	11.15
682.864	2.15
682.894	24.15
682.925	-3.85
682.955	-7.85
682.985	-16.85
683.015	3.15
683.045	0.15
683.076	-7.85
683.106	1.15
683.136	-15.85
683.166	0.15
683.196	-5.85
683.226	-8.85
683.257	-20.85
683.287	0.15
683.317	-8.85
683.347	-13.85
683.377	-4.85
683.407	-10.85
683.437	6.15
683.468	0.15
683.498	6.15
683.528	-4.85
683.558	4.15
683.588	-9.85
683.618	-1.85
683.648	-7.85
683.678	-4.85
683.708	-6.85
683.739	-1.85
683.769	-1.85
683.799	-0.85
683.829	5.15
683.859	18.15
683.889	30.15
683.919	11.15
683.949	9.15
683.979	-2.85
684.009	1.15
684.039	0.15
684.07	-17.85
684.1	18.15
684.13	1.15
684.16	-1.85
684.19	-12.85
684.22	-9.85
684.25	-1.85
684.28	-10.85
684.31	28.15
684.34	9.15
684.37	-2.85
684.4	-22.85
684.43	6.15
684.46	-2.85
684.49	10.15
684.52	10.15
684.55	16.15
684.58	-16.85
684.61	-0.85
684.64	-1.85
684.67	10.15
684.7	7.15
684.73	10.15
684.76	-4.85
684.79	6.15
684.82	12.15
684.85	-6.85
684.88	1.15
684.91	-14.85
684.94	-0.85
684.97	-4.85
685	-3.85
685.03	-1.85
685.06	-25.85
685.09	-8.85
685.12	15.15
685.15	-21.85
685.18	4.15
685.21	2.15
685.24	17.15
685.27	25.15
685.3	2.15
685.33	5.15
685.36	-10.85
685.39	-6.85
685.42	3.15
685.45	-10.85
685.48	-8.85
685.51	-9.85
685.54	18.15
685.569	1.15
685.599	1.15
685.629	-0.85
685.659	-0.85
685.689	-13.85
685.719	-6.85
685.749	0.15
685.779	11.15
685.809	-11.85
685.839	-5.85
685.869	-9.85
685.898	-4.85
685.928	-7.85
685.958	-15.85
685.988	3.15
686.018	2.15
686.048	-0.85
686.078	7.15
686.108	5.15
686.137	25.15
686.167	26.15
686.197	-21.85
686.227	-8.85
686.257	26.15
686.287	4.15
686.317	-3.85
686.346	-0.85
686.376	-12.85
686.406	-7.85
686.436	-0.85
686.466	-7.85
686.496	2.15
686.525	5.15
686.555	-2.85
686.585	25.15
686.615	12.15
686.645	8.15
686.675	1.15
686.704	-2.85
686.734	3.15
686.764	-9.85
686.794	9.15
686.824	1.15
686.853	5.15
686.883	8.15
686.913	10.15
686.943	14.15
686.973	-0.85
687.002	-5.85
687.032	-5.85
687.062	3.15
687.092	12.15
687.121	-10.85
687.151	-7.85
687.181	-13.85
687.211	10.15
687.24	5.15
687.27	-6.85
687.3	-17.85
687.33	-11.85
687.359	-6.85
687.389	4.15
687.419	9.15
687.449	-4.85
687.478	9.15
687.508	3.15
687.538	2.15
687.568	6.15
687.597	5.15
687.627	-0.85
687.657	-0.85
687.686	2.15
687.716	3.15
687.746	-24.85
687.776	-18.85
687.805	3.15
687.835	-8.85
687.865	11.15
687.894	9.15
687.924	-13.85
687.954	5.15
687.983	-6.85
688.013	8.15
688.043	1.15
688.072	-0.85
688.102	12.15
688.132	4.15
688.161	7.15
688.191	2.15
688.221	17.15
688.25	-0.85
688.28	1.15
688.31	-13.85
688.339	-10.85
688.369	-5.85
688.399	4.15
688.428	12.15
688.458	11.15
688.488	-11.85
688.517	9.15
688.547	-4.85
688.576	28.15
688.606	0.15
688.636	5.15
688.665	6.15
688.695	6.15
688.725	12.15
688.754	7.15
688.784	2.15
688.813	2.15
688.843	-10.85
688.873	-1.85
688.902	-11.85
688.932	-19.85
688.961	4.15
688.991	4.15
689.02	11.15
689.05	9.15
689.08	2.15
689.109	7.15
689.139	-6.85
689.168	1.15
689.198	6.15
689.227	-12.85
689.257	-0.85
689.287	14.15
689.316	-13.85
689.346	-21.85
689.375	-18.85
689.405	0.15
689.434	2.15
689.464	19.15
689.493	-20.85
689.523	-5.85
689.552	-7.85
689.582	0.15
689.611	-12.85
689.641	10.15
689.67	0.15
689.7	3.15
689.73	4.15
689.759	11.15
689.789	9.15
689.818	-7.85
689.848	-16.85
689.877	15.15
689.906	-17.85
689.936	0.15
689.965	11.15
689.995	4.15
690.024	-11.85
690.054	-9.85
690.083	3.15
690.113	8.15
690.142	-10.85
690.172	-5.85
690.201	2.15
690.231	-12.85
690.26	-22.85
690.29	4.15
690.319	-4.85
690.348	-11.85
690.378	-2.85
690.407	13.15
690.437	-2.85
690.466	-13.85
690.496	-3.85
690.525	13.15
690.555	1.15
690.584	4.15
690.613	2.15
690.643	-3.85
690.672	1.15
690.702	2.15
690.731	-7.85
690.76	-5.85
690.79	3.15
690.819	-5.85
690.849	-6.85
690.878	-18.85
690.907	-3.85
690.937	9.15
690.966	8.15
690.996	-5.85
691.025	2.15
691.054	-0.85
691.084	-20.85
691.113	5.15
691.142	3.15
691.172	4.15
691.201	7.15
691.23	-2.85
691.26	27.15
691.289	-1.85
691.319	-1.85
691.348	-12.85
691.377	10.15
691.407	8.15
691.436	-0.85
691.465	-9.85
691.495	-9.85
691.524	-1.85
691.553	-5.85
691.583	-15.85
691.612	19.15
691.641	4.15
691.67	-10.85
691.7	18.15
691.729	-11.85
691.758	2.15
691.788	5.15
691.817	2.15
691.846	-6.85
691.876	-4.85
691.905	-2.85
691.934	-2.85
691.963	2.15
691.993	0.15
692.022	-8.85
692.051	-6.85
692.081	13.15
692.11	13.15
692.139	1.15
692.168	5.15
692.198	15.15
692.227	-1.85
692.256	-3.85
692.285	5.15
692.315	-1.85
692.344	11.15
692.373	16.15
692.402	-23.85
692.432	-13.85
692.461	-1.85
692.49	-12.85
692.519	-16.85
692.548	14.15
692.578	-5.85
692.607	-2.85
692.636	-10.85
692.665	15.15
692.694	-3.85
692.724	0.15
692.753	1.15
692.782	10.15
692.811	-4.85
692.84	2.15
692.87	3.15
692.899	-5.85
692.928	-0.85
692.957	-2.85
692.986	9.15
693.016	2.15
693.045	5.15
693.074	4.15
693.103	-4.85
693.132	-3.85
693.161	12.15
693.191	-3.85
693.22	0.15
693.249	1.15
693.278	-4.85
693.307	22.15
693.336	-11.85
693.365	-11.85
693.395	-9.85
693.424	11.15
693.453	22.15
693.482	2.15
693.511	12.15
693.54	3.15
693.569	2.15
693.598	-6.85
693.628	0.15
693.657	-1.85
693.686	18.15
693.715	9.15
693.744	0.15
693.773	1.15
693.802	1.15
693.831	-3.85
693.86	3.15
693.889	-2.85
693.919	-0.85
693.948	-6.85
693.977	4.15
694.006	-6.85
694.035	-10.85
694.064	-5.85
694.093	-1.85
694.122	-0.85
694.151	-4.85
694.18	9.15
694.209	19.15
694.238	3.15
694.267	34.15
694.296	14.15
694.325	4.15
694.354	8.15
694.383	19.15
694.412	6.15
694.441	-13.85
694.471	-18.85
694.5	-18.85
694.529	-5.85
694.558	15.15
694.587	20.15
694.616	-1.85
694.645	-1.85
694.674	-7.85
694.703	10.15
694.732	2.15
694.761	31.15
694.79	11.15
694.819	-16.85
694.848	8.15
694.877	22.15
694.906	28.15
694.935	-5.85
694.963	26.15
694.992	11.15
695.021	16.15
695.05	1.15
695.079	4.15
695.108	0.15
695.137	26.15
695.166	-1.85
695.195	-3.85
695.224	-10.85
695.253	-3.85
695.282	-3.85
695.311	-7.85
695.34	-11.85
695.369	-5.85
695.398	6.15
695.427	4.15
695.456	6.15
695.485	11.15
695.513	1.15
695.542	3.15
695.571	7.15
695.6	16.15
695.629	-7.85
695.658	5.15
695.687	7.15
695.716	8.15
695.745	12.15
695.774	1.15
695.802	-3.85
695.831	17.15
695.86	7.15
695.889	8.15
695.918	17.15
695.947	7.15
695.976	-14.85
696.005	10.15
696.033	16.15
696.062	13.15
696.091	-0.85
696.12	-12.85
696.149	18.15
696.178	-2.85
696.207	26.15
696.235	-13.85
696.264	11.15
696.293	15.15
696.322	16.15
696.351	18.15
696.38	-6.85
696.408	4.15
696.437	9.15
696.466	17.15
696.495	19.15
696.524	5.15
696.553	-2.85
696.581	-5.85
696.61	9.15
696.639	-6.85
696.668	15.15
696.697	-5.85
696.725	2.15
696.754	3.15
696.783	1.15
696.812	3.15
696.84	10.15
696.869	-13.85
696.898	7.15
696.927	-7.85
696.956	26.15
696.984	6.15
697.013	15.15
697.042	-1.85
697.071	5.15
697.099	2.15
697.128	-13.85
697.157	-14.85
697.186	10.15
697.214	3.15
697.243	-20.85
697.272	-8.85
697.301	2.15
697.329	-6.85
697.358	1.15
697.387	15.15
697.415	8.15
697.444	0.15
697.473	5.15
697.502	7.15
697.53	6.15
697.559	-1.85
697.588	7.15
697.616	1.15
697.645	-2.85
697.674	13.15
697.703	2.15
697.731	1.15
697.76	1.15
697.789	-2.85
697.817	2.15
697.846	27.15
697.875	4.15
697.903	4.15
697.932	7.15
697.961	2.15
697.989	5.15
698.018	9.15
698.047	-3.85
698.075	17.15
698.104	-7.85
698.133	5.15
698.161	-13.85
698.19	2.15
698.218	-4.85
698.247	7.15
698.276	1.15
698.304	22.15
698.333	7.15
698.362	-2.85
698.39	1.15
698.419	7.15
698.447	-14.85
698.476	-3.85
698.505	11.15
698.533	14.15
698.562	1.15
698.591	-0.85
698.619	-2.85
698.648	6.15
698.676	-12.85
698.705	-9.85
698.733	-6.85
698.762	2.15
698.791	1.15
698.819	-0.85
698.848	-1.85
698.876	18.15
698.905	3.15
698.933	8.15
698.962	-0.85
698.991	-3.85
699.019	19.15
699.048	-4.85
699.076	5.15
699.105	-1.85
699.133	-12.85
699.162	2.15
699.19	15.15
699.219	8.15
699.248	16.15
699.276	2.15
699.305	-12.85
699.333	6.15
699.362	-1.85
699.39	5.15
699.419	-9.85
699.447	9.15
699.476	-4.85
699.504	-7.85
699.533	-18.85
699.561	0.15
699.59	11.15
699.618	4.15
699.647	9.15
699.675	1.15
699.704	-1.85
699.732	-3.85
699.761	-7.85
699.789	-4.85
699.818	11.15
699.846	-8.85
699.874	-10.85
699.903	-10.85
699.931	-17.85
699.96	7.15
699.988	1.15
700.017	-16.85
700.045	-4.85
700.074	-6.85
700.102	-1.85
700.13	-4.85
700.159	5.15
700.187	3.15
700.216	-9.85
700.244	2.15
700.273	9.15
700.301	8.15
700.329	15.15
700.358	22.15
700.386	-3.85
700.415	3.15
700.443	-4.85
700.472	-4.85
700.5	9.15
700.528	6.15
700.557	2.15
700.585	-17.85
700.614	-2.85
700.642	3.15
700.67	11.15
700.699	10.15
700.727	-0.85
700.755	8.15
700.784	12.15
700.812	4.15
700.841	29.15
700.869	7.15
700.897	-17.85
700.926	0.15
700.954	-0.85
700.982	5.15
701.011	-1.85
701.039	12.15
701.067	5.15
701.096	6.15
701.124	-8.85
701.152	-4.85
701.181	3.15
701.209	-16.85
701.237	-11.85
701.266	1.15
701.294	-2.85
701.322	3.15
701.351	-3.85
701.379	2.15
701.407	5.15
701.435	8.15
701.464	14.15
701.492	14.15
701.52	-11.85
701.549	1.15
701.577	-4.85
701.605	-0.85
701.634	-11.85
701.662	10.15
701.69	1.15
701.718	-20.85
701.747	2.15
701.775	-2.85
701.803	-7.85
701.831	23.15
701.86	-3.85
701.888	1.15
701.916	6.15
701.944	-1.85
701.973	-5.85
702.001	-10.85
702.029	-0.85
702.057	-2.85
702.086	-12.85
702.114	-10.85
702.142	10.15
702.17	1.15
702.199	0.15
702.227	0.15
702.255	-2.85
702.283	-8.85
702.311	-1.85
702.34	-23.85
702.368	-12.85
702.396	0.15
702.424	3.15
702.452	-13.85
702.481	-9.85
702.509	-8.85
702.537	-1.85
702.565	1.15
702.593	-10.85
702.621	-1.85
702.65	5.15
702.678	7.15
702.706	3.15
702.734	-6.85
702.762	5.15
702.79	2.15
702.819	0.15
702.847	4.15
702.875	10.15
702.903	-6.85
702.931	-9.85
702.959	4.15
702.988	5.15
703.016	-17.85
703.044	-5.85
703.072	-4.85
703.1	-14.85
703.128	-8.85
703.156	0.15
703.184	-0.85
703.212	18.15
703.241	-1.85
703.269	6.15
703.297	9.15
703.325	10.15
703.353	-0.85
703.381	-17.85
703.409	-6.85
703.437	-2.85
703.465	-2.85
703.493	2.15
703.522	12.15
703.55	-0.85
703.578	6.15
703.606	-8.85
703.634	-0.85
703.662	6.15
703.69	0.15
703.718	-4.85
703.746	7.15
703.774	-3.85
703.802	18.15
703.83	1.15
703.858	-5.85
703.886	-4.85
703.914	2.15
703.942	2.15
703.97	-12.85
703.998	-8.85
704.027	1.15
704.055	19.15
704.083	-10.85
704.111	-17.85
704.139	21.15
704.167	-10.85
704.195	5.15
704.223	-7.85
704.251	-14.85
704.279	6.15
704.307	-5.85
704.335	-14.85
704.363	5.15
704.391	-7.85
704.419	-7.85
704.447	-8.85
704.475	-5.85
704.503	-9.85
704.531	6.15
704.558	-13.85
704.586	-4.85
704.614	7.15
704.642	-1.85
704.67	-9.85
704.698	-14.85
704.726	-8.85
704.754	-0.85
704.782	0.15
704.81	8.15
704.838	15.15
704.866	11.15
704.894	-4.85
704.922	-0.85
704.95	16.15
704.978	18.15
705.006	7.15
705.034	7.15
705.061	-9.85
705.089	-0.85
705.117	-16.85
705.145	-17.85
705.173	5.15
705.201	17.15
705.229	8.15
705.257	8.15
705.285	1.15
705.313	13.15
705.34	-15.85
705.368	-7.85
705.396	16.15
705.424	1.15
705.452	-3.85
705.48	11.15
705.508	-4.85
705.536	0.15
705.563	-8.85
705.591	-0.85
705.619	4.15
705.647	0.15
705.675	9.15
705.703	15.15
705.731	-16.85
705.758	-8.85
705.786	18.15
705.814	27.15
705.842	-3.85
705.87	18.15
705.898	25.15
705.925	-1.85
705.953	5.15
705.981	0.15
706.009	-10.85
706.037	1.15
706.065	2.15
706.092	-12.85
706.12	-6.85
706.148	-21.85
706.176	-9.85
706.204	3.15
706.231	-6.85
706.259	-19.85
706.287	-2.85
706.315	18.15
706.342	-7.85
706.37	4.15
706.398	-8.85
706.426	-2.85
706.454	3.15
706.481	1.15
706.509	-17.85
706.537	-5.85
706.565	-13.85
706.592	0.15
706.62	-0.85
706.648	8.15
706.676	-28.85
706.703	-6.85
706.731	-2.85
706.759	-18.85
706.787	2.15
706.814	-9.85
706.842	-21.85
706.87	-6.85
706.897	-7.85
706.925	-13.85
706.953	0.15
706.981	-2.85
707.008	0.15
707.036	-6.85
707.064	-3.85
707.091	-14.85
707.119	0.15
707.147	-10.85
707.174	-10.85
707.202	7.15
707.23	-3.85
707.258	3.15
707.285	-6.85
707.313	-8.85
707.341	-11.85
707.368	-10.85
707.396	-1.85
707.424	13.15
707.451	-5.85
707.479	-2.85
707.507	-0.85
707.534	-10.85
707.562	-5.85
707.59	-4.85
707.617	-5.85
707.645	9.15
707.672	1.15
707.7	23.15
707.728	5.15
707.755	-2.85
707.783	-1.85
707.811	-5.85
707.838	-6.85
707.866	1.15
707.893	3.15
707.921	-11.85
707.949	-16.85
707.976	4.15
708.004	-6.85
708.031	-5.85
708.059	-10.85
708.087	-6.85
708.114	-0.85
708.142	0.15
708.169	-10.85
708.197	-20.85
708.225	-0.85
708.252	-4.85
708.28	24.15
708.307	-5.85
708.335	-6.85
708.362	-12.85
708.39	-9.85
708.418	2.15
708.445	0.15
708.473	-6.85
708.5	-1.85
708.528	6.15
708.555	5.15
708.583	15.15
708.61	-6.85
708.638	2.15
708.665	-2.85
708.693	-17.85
708.72	-23.85
708.748	-7.85
708.776	-13.85
708.803	18.15
708.831	-2.85
708.858	8.15
708.886	7.15
708.913	-15.85
708.941	-1.85
708.968	-6.85
708.996	-14.85
709.023	11.15
709.051	1.15
709.078	-6.85
709.105	9.15
709.133	-9.85
709.16	-7.85
709.188	5.15
709.215	12.15
709.243	5.15
709.27	-14.85
709.298	-22.85
709.325	-22.85
709.353	-1.85
709.38	8.15
709.408	-0.85
709.435	-3.85
709.462	-1.85
709.49	-1.85
709.517	-1.85
709.545	-16.85
709.572	10.15
709.6	-1.85
709.627	21.15
709.655	-7.85
709.682	-4.85
709.709	6.15
709.737	-2.85
709.764	-5.85
709.792	15.15
709.819	1.15
709.846	-9.85
709.874	5.15
709.901	13.15
709.929	21.15
709.956	-11.85
709.983	-7.85
710.011	-4.85
710.038	-0.85
710.066	-6.85
710.093	6.15
710.12	-1.85
710.148	-8.85
710.175	-8.85
710.202	-17.85
710.23	-8.85
710.257	-5.85
710.284	-6.85
710.312	-12.85
710.339	0.15
710.366	1.15
710.394	-12.85
710.421	-10.85
710.448	-9.85
710.476	-16.85
710.503	-1.85
710.53	-8.85
710.558	14.15
710.585	9.15
710.612	-9.85
710.64	-2.85
710.667	-15.85
710.694	-19.85
710.722	-4.85
710.749	-11.85
710.776	-20.85
710.804	14.15
710.831	2.15
710.858	-5.85
710.885	15.15
710.913	13.15
710.94	16.15
710.967	6.15
710.995	-13.85
711.022	-4.85
711.049	-5.85
711.076	-10.85
711.104	4.15
711.131	-23.85
711.158	-14.85
711.185	15.15
711.213	-18.85
711.24	-8.85
711.267	-10.85
711.294	2.15
711.322	7.15
711.349	-3.85
711.376	-1.85
711.403	-2.85
711.431	-2.85
711.458	-15.85
711.485	-11.85
711.512	-4.85
711.54	2.15
711.567	4.15
711.594	-7.85
711.621	0.15
711.648	7.15
711.676	13.15
711.703	-10.85
711.73	-19.85
711.757	8.15
711.784	-9.85
711.812	-5.85
711.839	-4.85
711.866	-5.85
711.893	-10.85
711.92	10.15
711.947	-5.85
711.975	8.15
712.002	-10.85
712.029	-1.85
712.056	-1.85
712.083	5.15
712.11	-17.85
712.138	-1.85
712.165	10.15
712.192	6.15
712.219	-6.85
712.246	-27.85
712.273	-9.85
712.3	-10.85
712.328	5.15
712.355	-2.85
712.382	-23.85
712.409	-8.85
712.436	-7.85
712.463	12.15
712.49	8.15
712.517	4.15
712.544	1.15
712.572	10.15
712.599	-6.85
712.626	8.15
712.653	-10.85
712.68	-10.85
712.707	13.15
712.734	3.15
712.761	5.15
712.788	-11.85
712.815	-0.85
712.842	-11.85
712.87	-12.85
712.897	-25.85
712.924	-13.85
712.951	-1.85
712.978	4.15
713.005	6.15
713.032	17.15
713.059	9.15
713.086	-9.85
713.113	-10.85
713.14	-4.85
713.167	18.15
713.194	1.15
713.221	-13.85
713.248	8.15
713.275	-11.85
713.302	-17.85
713.329	11.15
713.356	10.15
713.383	18.15
713.41	16.15
713.437	-0.85
713.464	-6.85
713.491	1.15
713.518	-5.85
713.545	1.15
713.572	-1.85
713.599	18.15
713.626	11.15
713.653	0.15
713.68	-20.85
713.707	-3.85
713.734	0.15
713.761	-3.85
713.788	-4.85
713.815	9.15
713.842	-3.85
713.869	-0.85
713.896	-6.85
713.923	-3.85
713.95	1.15
713.977	-8.85
714.004	-0.85
714.031	-21.85
714.058	-5.85
714.085	5.15
714.112	9.15
714.139	-7.85
714.165	-8.85
714.192	-8.85
714.219	4.15
714.246	-2.85
714.273	5.15
714.3	-2.85
714.327	-5.85
714.354	9.15
714.381	-10.85
714.408	-9.85
714.435	-1.85
714.461	-4.85
714.488	8.15
714.515	-5.85
714.542	2.15
714.569	4.15
714.596	-12.85
714.623	4.15
714.65	-4.85
714.677	-12.85
714.703	-1.85
714.73	-7.85
714.757	-8.85
714.784	-1.85
714.811	-12.85
714.838	-4.85
714.865	-17.85
714.891	2.15
714.918	-6.85
714.945	-0.85
714.972	-4.85
714.999	9.15
715.026	-6.85
715.052	9.15
715.079	-3.85
715.106	-1.85
715.133	-1.85
715.16	-1.85
715.187	13.15
715.213	7.15
715.24	-5.85
715.267	-1.85
715.294	8.15
715.321	-12.85
715.347	-13.85
715.374	-5.85
715.401	-5.85
715.428	0.15
715.455	10.15
715.481	-8.85
715.508	-0.85
715.535	-4.85
715.562	16.15
715.588	-0.85
715.615	-19.85
715.642	-9.85
715.669	3.15
715.695	-10.85
715.722	-9.85
715.749	-10.85
715.776	20.15
715.802	8.15
715.829	16.15
715.856	1.15
715.883	1.15
715.909	-18.85
715.936	-7.85
715.963	-5.85
715.99	-23.85
716.016	-2.85
716.043	6.15
716.07	-5.85
716.096	-9.85
716.123	-4.85
716.15	-6.85
716.177	-4.85
716.203	11.15
716.23	-2.85
716.257	17.15
716.283	5.15
716.31	-14.85
716.337	4.15
716.363	-8.85
716.39	6.15
716.417	-3.85
716.443	6.15
716.47	5.15
716.497	-0.85
716.523	-9.85
716.55	8.15
716.577	15.15
716.603	-18.85
716.63	-12.85
716.657	10.15
716.683	0.15
716.71	-1.85
716.737	-16.85
716.763	12.15
716.79	-2.85
716.817	9.15
716.843	14.15
716.87	7.15
716.897	3.15
716.923	16.15
716.95	-17.85
716.976	-7.85
717.003	8.15
717.03	17.15
717.056	9.15
717.083	-4.85
717.109	11.15
717.136	23.15
717.163	-2.85
717.189	1.15
717.216	-5.85
717.242	-8.85
717.269	3.15
717.296	1.15
717.322	7.15
717.349	0.15
717.375	5.15
717.402	12.15
717.428	6.15
717.455	6.15
717.481	-2.85
717.508	3.15
717.535	6.15
717.561	1.15
717.588	5.15
717.614	-5.85
717.641	-8.85
717.667	-2.85
717.694	4.15
717.72	-4.85
717.747	8.15
717.773	-9.85
717.8	17.15
717.826	2.15
717.853	-7.85
717.88	19.15
717.906	6.15
717.933	12.15
717.959	2.15
717.986	22.15
718.012	-3.85
718.039	8.15
718.065	14.15
718.092	3.15
718.118	-4.85
718.144	-10.85
718.171	5.15
718.197	4.15
718.224	-2.85
718.25	4.15
718.277	2.15
718.303	8.15
718.33	-9.85
718.356	-9.85
718.383	-14.85
718.409	-7.85
718.436	8.15
718.462	-2.85
718.489	-22.85
718.515	12.15
718.541	2.15
718.568	-4.85
718.594	5.15
718.621	0.15
718.647	1.15
718.674	17.15
718.7	11.15
718.726	-9.85
718.753	-14.85
718.779	-8.85
718.806	8.15
718.832	-6.85
718.858	5.15
718.885	-9.85
718.911	-2.85
718.938	6.15
718.964	-24.85
718.99	4.15
719.017	14.15
719.043	2.15
719.07	9.15
719.096	-17.85
719.122	1.15
719.149	13.15
719.175	8.15
719.201	-2.85
719.228	0.15
719.254	3.15
719.281	-10.85
719.307	-7.85
719.333	-7.85
719.36	8.15
719.386	2.15
719.412	3.15
719.439	-14.85
719.465	-2.85
719.491	1.15
719.518	7.15
719.544	9.15
719.57	2.15
719.597	-0.85
719.623	-4.85
719.649	15.15
719.675	7.15
719.702	3.15
719.728	17.15
719.754	-0.85
719.781	-2.85
719.807	6.15
719.833	-12.85
719.86	-13.85
719.886	2.15
719.912	8.15
719.938	3.15
719.965	-12.85
719.991	19.15
720.017	2.15
720.044	4.15
720.07	0.15
720.096	6.15
720.122	-2.85
720.149	3.15
720.175	8.15
720.201	-6.85
720.227	3.15
720.254	0.15
720.28	2.15
720.306	-6.85
720.332	-5.85
720.359	8.15
720.385	11.15
720.411	0.15
720.437	12.15
720.463	3.15
720.49	1.15
720.516	-8.85
720.542	-10.85
720.568	5.15
720.595	0.15
720.621	-0.85
720.647	0.15
720.673	11.15
720.699	0.15
720.725	-6.85
720.752	15.15
720.778	20.15
720.804	15.15
720.83	15.15
720.856	-13.85
720.883	0.15
720.909	4.15
720.935	5.15
720.961	10.15
720.987	2.15
721.013	0.15
721.04	-2.85
721.066	-1.85
721.092	-21.85
721.118	14.15
721.144	4.15
721.17	-0.85
721.196	-2.85
721.223	-4.85
721.249	-8.85
721.275	6.15
721.301	2.15
721.327	13.15
721.353	4.15
721.379	-15.85
721.405	-1.85
721.432	-1.85
721.458	2.15
721.484	16.15
721.51	-1.85
721.536	8.15
721.562	10.15
721.588	0.15
721.614	-9.85
721.64	-5.85
721.666	-1.85
721.693	-7.85
721.719	-9.85
721.745	-6.85
721.771	-10.85
721.797	17.15
721.823	7.15
721.849	13.15
721.875	11.15
721.901	1.15
721.927	-3.85
721.953	-2.85
721.979	24.15
722.005	18.15
722.031	-2.85
722.057	7.15
722.083	5.15
722.109	9.15
722.135	10.15
722.161	11.15
722.187	8.15
722.214	-15.85
722.24	-0.85
722.266	-0.85
722.292	1.15
722.318	15.15
722.344	2.15
722.37	-5.85
722.396	5.15
722.422	-13.85
722.448	-2.85
722.474	-12.85
722.5	-4.85
722.526	14.15
722.552	1.15
722.578	-1.85
722.603	-6.85
722.629	-12.85
722.655	6.15
722.681	-2.85
722.707	-8.85
722.733	0.15
722.759	-4.85
722.785	-5.85
722.811	-1.85
722.837	-3.85
722.863	-10.85
722.889	18.15
722.915	-6.85
722.941	-4.85
722.967	2.15
722.993	8.15
723.019	2.15
723.045	8.15
723.071	2.15
723.097	-2.85
723.122	-5.85
723.148	-6.85
723.174	3.15
723.2	9.15
723.226	15.15
723.252	6.15
723.278	4.15
723.304	-1.85
723.33	-4.85
723.356	-13.85
723.381	13.15
723.407	-3.85
723.433	-7.85
723.459	-8.85
723.485	-7.85
723.511	4.15
723.537	-12.85
723.563	-9.85
723.588	3.15
723.614	5.15
723.64	3.15
723.666	-9.85
723.692	10.15
723.718	-0.85
723.744	-7.85
723.769	-11.85
723.795	-17.85
723.821	8.15
723.847	9.15
723.873	-0.85
723.899	1.15
723.924	-3.85
723.95	2.15
723.976	-11.85
724.002	-5.85
724.028	10.15
724.053	-14.85
724.079	-8.85
724.105	-2.85
724.131	-12.85
724.157	-9.85
724.182	-0.85
724.208	9.15
724.234	-9.85
724.26	-1.85
724.286	10.15
724.311	-0.85
724.337	-4.85
724.363	-8.85
724.389	10.15
724.415	-9.85
724.44	12.15
724.466	-3.85
724.492	-6.85
724.518	21.15
724.543	-2.85
724.569	-7.85
724.595	-4.85
724.621	-8.85
724.646	-0.85
724.672	-7.85
724.698	-5.85
724.723	3.15
724.749	6.15
724.775	0.15
724.801	-4.85
724.826	-6.85
724.852	7.15
724.878	-9.85
724.904	-18.85
724.929	-6.85
724.955	-18.85
724.981	-2.85
725.006	-6.85
725.032	-8.85
725.058	15.15
725.083	-1.85
725.109	-10.85
725.135	-14.85
725.161	2.15
725.186	-2.85
725.212	0.15
725.238	3.15
725.263	-1.85
725.289	-20.85
725.315	-10.85
725.34	-6.85
725.366	5.15
725.392	-0.85
725.417	-5.85
725.443	-2.85
725.468	11.15
725.494	17.15
725.52	13.15
725.545	-4.85
725.571	-0.85
725.597	3.15
725.622	13.15
725.648	3.15
725.674	10.15
725.699	6.15
725.725	-14.85
725.75	19.15
725.776	-10.85
725.802	6.15
725.827	8.15
725.853	-12.85
725.878	-4.85
725.904	9.15
725.93	-9.85
725.955	-13.85
725.981	-27.85
726.006	-7.85
726.032	18.15
726.057	1.15
726.083	-4.85
726.109	-4.85
726.134	-5.85
726.16	-5.85
726.185	-4.85
726.211	-6.85
726.236	-4.85
726.262	3.15
726.288	-0.85
726.313	16.15
726.339	4.15
726.364	-13.85
726.39	2.15
726.415	-5.85
726.441	1.15
726.466	-4.85
726.492	-2.85
726.517	7.15
726.543	-6.85
726.568	-16.85
726.594	-6.85
726.619	-0.85
726.645	-10.85
726.67	-2.85
726.696	2.15
726.721	-8.85
726.747	-23.85
726.772	-8.85
726.798	-5.85
726.823	1.15
726.849	-6.85
726.874	-11.85
726.9	17.15
726.925	7.15
726.951	-2.85
726.976	-2.85
727.002	-16.85
727.027	-4.85
727.053	8.15
727.078	-8.85
727.104	-17.85
727.129	-22.85
727.155	-20.85
727.18	12.15
727.205	-8.85
727.231	4.15
727.256	-16.85
727.282	-4.85
727.307	20.15
727.333	-2.85
727.358	-6.85
727.383	-15.85
727.409	-20.85
727.434	2.15
727.46	-1.85
727.485	-17.85
727.511	-7.85
727.536	-29.85
727.561	-8.85
727.587	-13.85
727.612	-2.85
727.637	-9.85
727.663	-22.85
727.688	16.15
727.714	5.15
727.739	-9.85
727.764	-21.85
727.79	-10.85
727.815	-4.85
727.841	-1.85
727.866	19.15
727.891	-10.85
727.917	-21.85
727.942	-19.85
727.967	-1.85
727.993	-21.85
728.018	-8.85
728.043	-3.85
728.069	3.15
728.094	6.15
728.119	-5.85
728.145	13.15
728.17	-0.85
728.195	-1.85
728.221	11.15
728.246	-6.85
728.271	-9.85
728.297	-0.85
728.322	-0.85
728.347	0.15
728.373	-6.85
728.398	1.15
728.423	-13.85
728.448	8.15
728.474	-5.85
728.499	3.15
728.524	-16.85
728.55	-7.85
728.575	19.15
728.6	-6.85
728.625	-3.85
728.651	9.15
728.676	-7.85
728.701	4.15
728.727	11.15
728.752	-0.85
728.777	3.15
728.802	-5.85
728.828	5.15
728.853	-5.85
728.878	-6.85
728.903	-13.85
728.929	-9.85
728.954	-2.85
728.979	7.15
729.004	-8.85
729.03	-15.85
729.055	3.15
729.08	-13.85
729.105	-1.85
729.13	-1.85
729.156	-3.85
729.181	4.15
729.206	-18.85
729.231	-2.85
729.256	10.15
729.282	5.15
729.307	-21.85
729.332	-6.85
729.357	-14.85
729.382	-21.85
729.408	1.15
729.433	0.15
729.458	3.15
729.483	1.15
729.508	15.15
729.533	-9.85
729.559	-0.85
729.584	-12.85
729.609	-7.85
729.634	5.15
729.659	-13.85
729.684	-16.85
729.71	-6.85
729.735	-12.85
729.76	-12.85
729.785	-3.85
729.81	6.15
729.835	-2.85
729.86	0.15
729.886	27.15
729.911	10.15
729.936	3.15
729.961	19.15
729.986	4.15
730.011	-0.85
730.036	3.15
730.061	9.15
730.086	19.15
730.112	10.15
730.137	22.15
730.162	-2.85
730.187	-13.85
730.212	-5.85
730.237	-16.85
730.262	-7.85
730.287	10.15
730.312	17.15
730.337	-5.85
730.362	7.15
730.387	-8.85
730.413	-2.85
730.438	-8.85
730.463	-8.85
730.488	-13.85
730.513	-5.85
730.538	-7.85
730.563	14.15
730.588	1.15
730.613	10.15
730.638	17.15
730.663	-4.85
730.688	22.15
730.713	14.15
730.738	-7.85
730.763	8.15
730.788	-6.85
730.813	-1.85
730.838	-10.85
730.863	4.15
730.888	-8.85
730.913	-12.85
730.938	-10.85
730.963	-16.85
730.988	-9.85
731.013	17.15
731.038	-4.85
731.063	-8.85
731.088	2.15
731.113	-11.85
731.138	-17.85
731.163	-7.85
731.188	0.15
731.213	-13.85
731.238	15.15
731.263	-6.85
731.288	3.15
731.313	-7.85
731.338	-6.85
731.363	-4.85
731.388	0.15
731.413	0.15
731.438	9.15
731.463	21.15
731.487	-5.85
731.512	3.15
731.537	2.15
731.562	-9.85
731.587	3.15
731.612	-9.85
731.637	-2.85
731.662	0.15
731.687	5.15
731.712	-12.85
731.737	-8.85
731.762	-4.85
731.786	-6.85
731.811	-1.85
731.836	-2.85
731.861	-6.85
731.886	-13.85
731.911	-3.85
731.936	5.15
731.961	-0.85
731.986	-20.85
732.01	-7.85
732.035	-5.85
732.06	1.15
732.085	1.15
732.11	2.15
732.135	-7.85
732.16	-2.85
732.184	11.15
732.209	4.15
732.234	2.15
732.259	9.15
732.284	22.15
732.309	1.15
732.334	-4.85
732.358	-21.85
732.383	-21.85
732.408	-4.85
732.433	9.15
732.458	0.15
732.482	-6.85
732.507	-4.85
732.532	6.15
732.557	15.15
732.582	-4.85
732.607	-2.85
732.631	-7.85
732.656	-1.85
732.681	-4.85
732.706	-0.85
732.73	-3.85
732.755	-12.85
732.78	-16.85
732.805	2.15
732.83	2.15
732.854	4.15
732.879	14.15
732.904	2.15
732.929	-4.85
732.953	13.15
732.978	7.15
733.003	-4.85
733.028	-1.85
733.052	-2.85
733.077	-0.85
733.102	1.15
733.127	-9.85
733.151	6.15
733.176	-5.85
733.201	-8.85
733.226	-10.85
733.25	-10.85
733.275	4.15
733.3	-7.85
733.324	14.15
733.349	9.15
733.374	12.15
733.399	5.15
733.423	-2.85
733.448	-5.85
733.473	-9.85
733.497	-1.85
733.522	-9.85
733.547	20.15
733.571	23.15
733.596	-4.85
733.621	-5.85
733.646	5.15
733.67	8.15
733.695	-1.85
733.72	-6.85
733.744	9.15
733.769	13.15
733.794	5.15
733.818	6.15
733.843	-7.85
733.867	-6.85
733.892	-4.85
733.917	1.15
733.941	-5.85
733.966	-5.85
733.991	0.15
734.015	-2.85
734.04	-2.85
734.065	2.15
734.089	14.15
734.114	-4.85
734.138	0.15
734.163	-4.85
734.188	-8.85
734.212	2.15
734.237	0.15
734.261	1.15
734.286	-5.85
734.311	-6.85
734.335	7.15
734.36	-23.85
734.384	-1.85
734.409	8.15
734.434	-2.85
734.458	-7.85
734.483	-11.85
734.507	-1.85
734.532	-1.85
734.556	2.15
734.581	-11.85
734.606	9.15
734.63	-4.85
734.655	1.15
734.679	7.15
734.704	-1.85
734.728	2.15
734.753	-17.85
734.777	3.15
734.802	-5.85
734.826	-8.85
734.851	1.15
734.876	11.15
734.9	4.15
734.925	7.15
734.949	-2.85
734.974	1.15
734.998	-4.85
735.023	0.15
735.047	0.15
735.072	8.15
735.096	9.15
735.121	5.15
735.145	-10.85
735.17	-7.85
735.194	-6.85
735.219	-0.85
735.243	-2.85
735.268	4.15
735.292	8.15
735.317	3.15
735.341	2.15
735.365	-8.85
735.39	10.15
735.414	13.15
735.439	-3.85
735.463	-0.85
735.488	3.15
735.512	15.15
735.537	-2.85
735.561	-1.85
735.586	3.15
735.61	6.15
735.634	-6.85
735.659	6.15
735.683	31.15
735.708	-0.85
735.732	-3.85
735.757	-2.85
735.781	-1.85
735.805	6.15
735.83	-9.85
735.854	2.15
735.879	-1.85
735.903	2.15
735.927	11.15
735.952	-2.85
735.976	0.15
736.001	-5.85
736.025	-4.85
736.049	-9.85
736.074	-10.85
736.098	-6.85
736.123	-2.85
736.147	1.15
736.171	5.15
736.196	6.15
736.22	-15.85
736.244	-10.85
736.269	-2.85
736.293	-8.85
736.317	10.15
736.342	8.15
736.366	12.15
736.39	6.15
736.415	3.15
736.439	0.15
736.463	10.15
736.488	15.15
736.512	3.15
736.536	1.15
736.561	21.15
736.585	-6.85
736.609	-2.85
736.634	-8.85
736.658	-0.85
736.682	-9.85
736.707	-18.85
736.731	-15.85
736.755	-5.85
736.78	6.15
736.804	6.15
736.828	8.15
736.852	-10.85
736.877	0.15
736.901	5.15
736.925	-1.85
736.949	3.15
736.974	-5.85
736.998	-12.85
737.022	-2.85
737.047	-8.85
737.071	-4.85
737.095	11.15
737.119	23.15
737.144	10.15
737.168	3.15
737.192	-2.85
737.216	19.15
737.241	2.15
737.265	-2.85
737.289	1.15
737.313	-18.85
737.337	10.15
737.362	1.15
737.386	8.15
737.41	-19.85
737.434	2.15
737.459	5.15
737.483	4.15
737.507	14.15
737.531	10.15
737.555	7.15
737.58	8.15
737.604	-0.85
737.628	-2.85
737.652	-8.85
737.676	-6.85
737.701	2.15
737.725	-10.85
737.749	-5.85
737.773	3.15
737.797	-14.85
737.821	-2.85
737.846	-11.85
737.87	17.15
737.894	6.15
737.918	-3.85
737.942	7.15
737.966	-2.85
737.99	12.15
738.015	7.15
738.039	5.15
738.063	2.15
738.087	14.15
738.111	1.15
738.135	14.15
738.159	-6.85
738.184	-0.85
738.208	-2.85
738.232	4.15
738.256	7.15
738.28	20.15
738.304	11.15
738.328	-3.85
738.352	-1.85
738.376	3.15
738.4	13.15
738.425	3.15
738.449	-2.85
738.473	11.15
738.497	-2.85
738.521	5.15
738.545	-4.85
738.569	6.15
738.593	9.15
738.617	0.15
738.641	8.15
738.665	-0.85
738.689	20.15
738.713	1.15
738.737	-2.85
738.762	14.15
738.786	5.15
738.81	-0.85
738.834	16.15
738.858	-6.85
738.882	-2.85
738.906	-12.85
738.93	1.15
738.954	5.15
738.978	28.15
739.002	-4.85
739.026	9.15
739.05	9.15
739.074	3.15
739.098	21.15
739.122	14.15
739.146	7.15
739.17	11.15
739.194	8.15
739.218	3.15
739.242	2.15
739.266	-4.85
739.29	6.15
739.314	12.15
739.338	-2.85
739.362	0.15
739.386	13.15
739.41	1.15
739.434	5.15
739.458	21.15
739.482	13.15
739.506	0.15
739.53	-6.85
739.554	8.15
739.577	-8.85
739.601	8.15
739.625	-1.85
739.649	2.15
739.673	-8.85
739.697	-1.85
739.721	-1.85
739.745	2.15
739.769	7.15
739.793	13.15
739.817	26.15
739.841	-1.85
739.865	-2.85
739.889	-11.85
739.912	13.15
739.936	-13.85
739.96	-9.85
739.984	5.15
740.008	2.15
740.032	-0.85
740.056	-1.85
740.08	11.15
740.104	-0.85
740.127	-5.85
740.151	0.15
740.175	5.15
740.199	4.15
740.223	47.15
740.247	9.15
740.271	-14.85
740.295	-1.85
740.318	-8.85
740.342	-14.85
740.366	-12.85
740.39	-6.85
740.414	1.15
740.438	12.15
740.461	5.15
740.485	-2.85
740.509	-5.85
740.533	7.15
740.557	-13.85
740.581	-2.85
740.604	-13.85
740.628	-5.85
740.652	4.15
740.676	-1.85
740.7	17.15
740.723	6.15
740.747	-7.85
740.771	-12.85
740.795	-11.85
740.819	-7.85
740.842	2.15
740.866	6.15
740.89	-10.85
740.914	-11.85
740.938	-0.85
740.961	-4.85
740.985	10.15
741.009	-2.85
741.033	5.15
741.056	-6.85
741.08	-5.85
741.104	-2.85
741.128	-13.85
741.151	15.15
741.175	-6.85
741.199	-12.85
741.223	-0.85
741.246	-6.85
741.27	2.15
741.294	7.15
741.318	-1.85
741.341	-8.85
741.365	-5.85
741.389	-8.85
741.413	2.15
741.436	5.15
741.46	-1.85
741.484	19.15
741.507	7.15
741.531	29.15
741.555	-2.85
741.579	7.15
741.602	1.15
741.626	10.15
741.65	9.15
741.673	7.15
741.697	9.15
741.721	10.15
741.744	-11.85
741.768	-2.85
741.792	-6.85
741.815	4.15
741.839	24.15
741.863	6.15
741.886	3.15
741.91	-1.85
741.934	-5.85
741.957	-26.85
741.981	4.15
742.005	0.15
742.028	-8.85
742.052	-10.85
742.075	9.15
742.099	13.15
742.123	-1.85
742.146	-1.85
742.17	-0.85
742.194	-14.85
742.217	-2.85
742.241	-16.85
742.264	-6.85
742.288	2.15
742.312	6.15
742.335	0.15
742.359	-7.85
742.382	3.15
742.406	15.15
742.43	-4.85
742.453	-1.85
742.477	-18.85
742.5	11.15
742.524	-11.85
742.548	-10.85
742.571	-15.85
742.595	-7.85
742.618	-6.85
742.642	0.15
742.665	9.15
742.689	-2.85
742.712	8.15
742.736	-4.85
742.76	0.15
742.783	0.15
742.807	-1.85
742.83	-6.85
742.854	-6.85
742.877	10.15
742.901	-5.85
742.924	-1.85
742.948	5.15
742.971	-0.85
742.995	8.15
743.018	-4.85
743.042	-4.85
743.065	2.15
743.089	-2.85
743.112	3.15
743.136	-6.85
743.159	-2.85
743.183	3.15
743.206	-5.85
743.23	-2.85
743.253	8.15
743.277	6.15
743.3	-5.85
743.324	-5.85
743.347	-15.85
743.371	13.15
743.394	3.15
743.418	20.15
743.441	16.15
743.465	-17.85
743.488	-0.85
743.512	-3.85
743.535	-11.85
743.558	-9.85
743.582	-0.85
743.605	-9.85
743.629	8.15
743.652	6.15
743.676	-6.85
743.699	12.15
743.723	16.15
743.746	5.15
743.769	-9.85
743.793	8.15
743.816	5.15
743.84	16.15
743.863	2.15
743.886	15.15
743.91	10.15
743.933	10.15
743.957	3.15
743.98	0.15
744.003	15.15
744.027	8.15
744.05	7.15
744.074	1.15
744.097	-26.85
744.12	-10.85
744.144	-24.85
744.167	0.15
744.19	1.15
744.214	2.15
744.237	-11.85
744.26	3.15
744.284	-9.85
744.307	-22.85
744.331	5.15
744.354	-8.85
744.377	5.15
744.401	-8.85
744.424	-4.85
744.447	0.15
744.471	1.15
