Data from HighRes_H2_15_09_11_07_2024_HR4C61891__132__15-11-09-601.txt Node

Date: Thu Nov 07 15:11:09 EST 2024
User: crc00042
Spectrometer: HR4C6189
Trigger mode: 4
Integration Time (sec): 1.000000E-1
Scans to average: 1
Electric dark correction enabled: true
Nonlinearity correction enabled: false
Boxcar width: 0
XAxis mode: Wavelengths
Number of Pixels in Spectrum: 3648
>>>>>Begin Spectral Data<<<<<
639.567	-36.46
639.602	-36.46
639.636	-36.46
639.67	-28.46
639.704	-1.46
639.738	-3.46
639.773	-1.46
639.807	-25.46
639.841	3.54
639.875	9.54
639.909	-5.46
639.943	5.54
639.978	-8.46
640.012	-2.46
640.046	11.54
640.08	8.54
640.114	20.54
640.148	-12.46
640.182	-12.46
640.217	7.54
640.251	14.54
640.285	15.54
640.319	-0.46
640.353	5.54
640.387	15.54
640.421	-1.46
640.455	-5.46
640.49	6.54
640.524	12.54
640.558	17.54
640.592	-14.46
640.626	7.54
640.66	16.54
640.694	0.54
640.728	5.54
640.762	5.54
640.796	-1.46
640.83	1.54
640.865	5.54
640.899	-3.46
640.933	-3.46
640.967	1.54
641.001	17.54
641.035	10.54
641.069	6.54
641.103	-15.46
641.137	-5.46
641.171	-2.46
641.205	0.54
641.239	2.54
641.273	12.54
641.307	8.54
641.341	-1.46
641.375	6.54
641.409	-11.46
641.443	3.54
641.477	13.54
641.511	14.54
641.545	13.54
641.579	-2.46
641.614	17.54
641.648	4.54
641.682	-3.46
641.716	0.54
641.75	21.54
641.784	14.54
641.818	1.54
641.852	-3.46
641.886	0.54
641.919	11.54
641.953	6.54
641.987	-2.46
642.021	0.54
642.055	13.54
642.089	2.54
642.123	-8.46
642.157	-9.46
642.191	-16.46
642.225	7.54
642.259	4.54
642.293	11.54
642.327	7.54
642.361	-0.46
642.395	11.54
642.429	22.54
642.463	27.54
642.497	27.54
642.531	-6.46
642.565	9.54
642.599	10.54
642.633	-6.46
642.666	4.54
642.7	8.54
642.734	13.54
642.768	-8.46
642.802	6.54
642.836	-3.46
642.87	8.54
642.904	-11.46
642.938	7.54
642.972	-20.46
643.005	-6.46
643.039	20.54
643.073	-4.46
643.107	1.54
643.141	4.54
643.175	11.54
643.209	10.54
643.243	8.54
643.276	4.54
643.31	3.54
643.344	1.54
643.378	10.54
643.412	16.54
643.446	5.54
643.48	-13.46
643.513	-4.46
643.547	1.54
643.581	-1.46
643.615	4.54
643.649	2.54
643.683	0.54
643.716	-1.46
643.75	9.54
643.784	-18.46
643.818	6.54
643.852	3.54
643.886	20.54
643.919	4.54
643.953	-1.46
643.987	7.54
644.021	7.54
644.055	10.54
644.088	-4.46
644.122	-3.46
644.156	-6.46
644.19	2.54
644.224	20.54
644.257	4.54
644.291	15.54
644.325	6.54
644.359	0.54
644.392	12.54
644.426	5.54
644.46	-9.46
644.494	-0.46
644.527	-8.46
644.561	4.54
644.595	5.54
644.629	5.54
644.662	-5.46
644.696	18.54
644.73	12.54
644.764	5.54
644.797	2.54
644.831	2.54
644.865	10.54
644.899	9.54
644.932	21.54
644.966	4.54
645	6.54
645.033	15.54
645.067	-12.46
645.101	9.54
645.135	4.54
645.168	-1.46
645.202	-15.46
645.236	-17.46
645.269	16.54
645.303	-4.46
645.337	-13.46
645.37	3.54
645.404	19.54
645.438	12.54
645.471	-3.46
645.505	15.54
645.539	-11.46
645.572	-11.46
645.606	-5.46
645.64	-6.46
645.673	7.54
645.707	17.54
645.741	8.54
645.774	7.54
645.808	12.54
645.842	-1.46
645.875	3.54
645.909	-3.46
645.943	-8.46
645.976	7.54
646.01	1.54
646.043	2.54
646.077	5.54
646.111	10.54
646.144	17.54
646.178	17.54
646.212	0.54
646.245	8.54
646.279	11.54
646.312	1.54
646.346	10.54
646.38	-2.46
646.413	17.54
646.447	14.54
646.48	-14.46
646.514	4.54
646.547	2.54
646.581	8.54
646.615	5.54
646.648	-8.46
646.682	10.54
646.715	-10.46
646.749	7.54
646.782	-0.46
646.816	-19.46
646.85	-7.46
646.883	-15.46
646.917	10.54
646.95	2.54
646.984	6.54
647.017	9.54
647.051	2.54
647.084	-4.46
647.118	-8.46
647.151	13.54
647.185	-0.46
647.218	-7.46
647.252	13.54
647.285	-8.46
647.319	-5.46
647.353	3.54
647.386	14.54
647.42	-0.46
647.453	12.54
647.487	-4.46
647.52	-6.46
647.553	-0.46
647.587	-6.46
647.62	-7.46
647.654	1.54
647.687	8.54
647.721	9.54
647.754	12.54
647.788	32.54
647.821	-3.46
647.855	4.54
647.888	12.54
647.922	9.54
647.955	10.54
647.989	12.54
648.022	4.54
648.055	20.54
648.089	4.54
648.122	30.54
648.156	4.54
648.189	6.54
648.223	8.54
648.256	25.54
648.29	7.54
648.323	15.54
648.356	14.54
648.39	2.54
648.423	11.54
648.457	6.54
648.49	4.54
648.523	5.54
648.557	2.54
648.59	4.54
648.624	6.54
648.657	-4.46
648.69	20.54
648.724	19.54
648.757	21.54
648.791	4.54
648.824	19.54
648.857	17.54
648.891	-8.46
648.924	5.54
648.957	4.54
648.991	-12.46
649.024	13.54
649.057	5.54
649.091	6.54
649.124	6.54
649.158	1.54
649.191	28.54
649.224	2.54
649.258	11.54
649.291	0.54
649.324	5.54
649.358	10.54
649.391	12.54
649.424	6.54
649.458	13.54
649.491	7.54
649.524	-4.46
649.557	2.54
649.591	-1.46
649.624	7.54
649.657	1.54
649.691	2.54
649.724	-10.46
649.757	-16.46
649.791	-14.46
649.824	11.54
649.857	13.54
649.89	13.54
649.924	-4.46
649.957	20.54
649.99	-6.46
650.023	4.54
650.057	-2.46
650.09	3.54
650.123	-5.46
650.157	14.54
650.19	4.54
650.223	-7.46
650.256	-8.46
650.29	-2.46
650.323	-8.46
650.356	1.54
650.389	-4.46
650.423	-18.46
650.456	-7.46
650.489	-4.46
650.522	9.54
650.555	13.54
650.589	12.54
650.622	5.54
650.655	13.54
650.688	5.54
650.721	-5.46
650.755	6.54
650.788	19.54
650.821	-1.46
650.854	3.54
650.887	-6.46
650.921	-7.46
650.954	-4.46
650.987	3.54
651.02	1.54
651.053	-30.46
651.087	-4.46
651.12	20.54
651.153	15.54
651.186	-0.46
651.219	-10.46
651.252	10.54
651.286	2.54
651.319	-13.46
651.352	7.54
651.385	-12.46
651.418	12.54
651.451	2.54
651.484	8.54
651.518	-3.46
651.551	-2.46
651.584	-13.46
651.617	18.54
651.65	15.54
651.683	19.54
651.716	-19.46
651.749	-12.46
651.783	2.54
651.816	6.54
651.849	11.54
651.882	1.54
651.915	1.54
651.948	7.54
651.981	3.54
652.014	-19.46
652.047	-2.46
652.08	-4.46
652.114	-9.46
652.147	16.54
652.18	8.54
652.213	38.54
652.246	-0.46
652.279	-2.46
652.312	20.54
652.345	7.54
652.378	0.54
652.411	0.54
652.444	15.54
652.477	9.54
652.51	5.54
652.543	-12.46
652.576	-1.46
652.609	2.54
652.642	12.54
652.675	5.54
652.709	0.54
652.742	30.54
652.775	5.54
652.808	18.54
652.841	13.54
652.874	-2.46
652.907	20.54
652.94	4.54
652.973	-16.46
653.006	2.54
653.039	-5.46
653.072	-5.46
653.105	1.54
653.138	-1.46
653.171	0.54
653.204	2.54
653.237	8.54
653.27	-13.46
653.303	6.54
653.336	10.54
653.368	-11.46
653.401	2.54
653.434	-10.46
653.467	7.54
653.5	-11.46
653.533	-15.46
653.566	-6.46
653.599	-4.46
653.632	12.54
653.665	5.54
653.698	-6.46
653.731	-9.46
653.764	12.54
653.797	2.54
653.83	13.54
653.863	-7.46
653.896	-11.46
653.929	-9.46
653.961	5.54
653.994	10.54
654.027	1.54
654.06	-1.46
654.093	11.54
654.126	15.54
654.159	2.54
654.192	5.54
654.225	-4.46
654.258	-2.46
654.29	5.54
654.323	21.54
654.356	11.54
654.389	-2.46
654.422	7.54
654.455	-0.46
654.488	-12.46
654.521	-4.46
654.553	4.54
654.586	22.54
654.619	9.54
654.652	4.54
654.685	7.54
654.718	22.54
654.751	10.54
654.783	0.54
654.816	14.54
654.849	5.54
654.882	-4.46
654.915	-10.46
654.948	12.54
654.98	-1.46
655.013	9.54
655.046	1.54
655.079	0.54
655.112	12.54
655.144	0.54
655.177	6.54
655.21	15.54
655.243	24.54
655.276	12.54
655.308	-6.46
655.341	-2.46
655.374	17.54
655.407	-10.46
655.44	-11.46
655.472	15.54
655.505	10.54
655.538	8.54
655.571	23.54
655.603	7.54
655.636	1.54
655.669	21.54
655.702	24.54
655.734	7.54
655.767	8.54
655.8	32.54
655.833	33.54
655.865	49.54
655.898	26.54
655.931	30.54
655.964	54.54
655.996	52.54
656.029	83.54
656.062	50.54
656.095	58.54
656.127	66.54
656.16	109.54
656.193	128.54
656.225	175.54
656.258	293.54
656.291	528.54
656.324	1131.54
656.356	3412.54
656.389	7605.54
656.422	6053.54
656.454	2101.54
656.487	705.54
656.52	263.54
656.552	125.54
656.585	64.54
656.618	60.54
656.65	42.54
656.683	34.54
656.716	19.54
656.748	21.54
656.781	-5.46
656.814	-0.46
656.846	13.54
656.879	-0.46
656.912	6.54
656.944	-6.46
656.977	-1.46
657.01	-8.46
657.042	14.54
657.075	-6.46
657.108	-14.46
657.14	10.54
657.173	34.54
657.205	31.54
657.238	32.54
657.271	-1.46
657.303	-16.46
657.336	-1.46
657.369	2.54
657.401	7.54
657.434	3.54
657.466	9.54
657.499	-2.46
657.532	-17.46
657.564	23.54
657.597	3.54
657.629	8.54
657.662	-6.46
657.694	-0.46
657.727	-17.46
657.76	11.54
657.792	-2.46
657.825	-2.46
657.857	1.54
657.89	-1.46
657.922	8.54
657.955	3.54
657.987	-2.46
658.02	23.54
658.053	19.54
658.085	9.54
658.118	6.54
658.15	18.54
658.183	14.54
658.215	14.54
658.248	-5.46
658.28	-3.46
658.313	9.54
658.345	16.54
658.378	-5.46
658.41	5.54
658.443	5.54
658.475	8.54
658.508	5.54
658.54	-0.46
658.573	-17.46
658.605	-6.46
658.638	8.54
658.67	7.54
658.703	18.54
658.735	-15.46
658.768	13.54
658.8	-21.46
658.833	15.54
658.865	1.54
658.898	12.54
658.93	-10.46
658.963	4.54
658.995	-8.46
659.028	-1.46
659.06	4.54
659.092	0.54
659.125	-13.46
659.157	-2.46
659.19	-5.46
659.222	-10.46
659.255	3.54
659.287	-6.46
659.32	3.54
659.352	-7.46
659.384	1.54
659.417	-10.46
659.449	-12.46
659.482	15.54
659.514	-6.46
659.546	6.54
659.579	-4.46
659.611	13.54
659.644	0.54
659.676	-7.46
659.708	7.54
659.741	-2.46
659.773	10.54
659.806	11.54
659.838	11.54
659.87	3.54
659.903	8.54
659.935	16.54
659.967	-0.46
660	20.54
660.032	-11.46
660.065	3.54
660.097	-2.46
660.129	7.54
660.162	-5.46
660.194	11.54
660.226	8.54
660.259	13.54
660.291	-2.46
660.323	-12.46
660.356	10.54
660.388	7.54
660.42	6.54
660.453	8.54
660.485	8.54
660.517	5.54
660.55	15.54
660.582	5.54
660.614	19.54
660.647	5.54
660.679	4.54
660.711	1.54
660.743	-14.46
660.776	3.54
660.808	-1.46
660.84	-12.46
660.873	-9.46
660.905	-10.46
660.937	-9.46
660.969	12.54
661.002	-0.46
661.034	11.54
661.066	11.54
661.099	9.54
661.131	7.54
661.163	6.54
661.195	-4.46
661.228	3.54
661.26	13.54
661.292	3.54
661.324	-3.46
661.357	7.54
661.389	0.54
661.421	-4.46
661.453	-4.46
661.485	-0.46
661.518	-6.46
661.55	-25.46
661.582	-15.46
661.614	-8.46
661.647	12.54
661.679	3.54
661.711	-2.46
661.743	9.54
661.775	1.54
661.808	7.54
661.84	-1.46
661.872	14.54
661.904	-4.46
661.936	-12.46
661.969	0.54
662.001	-2.46
662.033	5.54
662.065	-15.46
662.097	0.54
662.129	1.54
662.162	15.54
662.194	21.54
662.226	13.54
662.258	27.54
662.29	10.54
662.322	7.54
662.355	11.54
662.387	23.54
662.419	2.54
662.451	-0.46
662.483	12.54
662.515	-6.46
662.547	-4.46
662.58	-1.46
662.612	-14.46
662.644	-6.46
662.676	-3.46
662.708	7.54
662.74	-4.46
662.772	0.54
662.804	15.54
662.836	8.54
662.869	-2.46
662.901	17.54
662.933	-9.46
662.965	17.54
662.997	22.54
663.029	-16.46
663.061	-8.46
663.093	-0.46
663.125	5.54
663.157	1.54
663.189	-5.46
663.221	2.54
663.254	6.54
663.286	12.54
663.318	1.54
663.35	-5.46
663.382	5.54
663.414	4.54
663.446	15.54
663.478	-11.46
663.51	16.54
663.542	2.54
663.574	2.54
663.606	18.54
663.638	-11.46
663.67	-3.46
663.702	16.54
663.734	10.54
663.766	8.54
663.798	-11.46
663.83	6.54
663.862	6.54
663.894	2.54
663.926	2.54
663.958	4.54
663.99	-1.46
664.022	-14.46
664.054	5.54
664.086	-2.46
664.118	-2.46
664.15	-10.46
664.182	-3.46
664.214	-8.46
664.246	11.54
664.278	4.54
664.31	19.54
664.342	11.54
664.374	9.54
664.406	4.54
664.438	-1.46
664.47	10.54
664.502	-7.46
664.534	12.54
664.566	7.54
664.598	8.54
664.63	4.54
664.662	2.54
664.693	-5.46
664.725	1.54
664.757	3.54
664.789	-19.46
664.821	0.54
664.853	14.54
664.885	9.54
664.917	-7.46
664.949	10.54
664.981	16.54
665.013	-10.46
665.045	-6.46
665.076	-2.46
665.108	18.54
665.14	5.54
665.172	-0.46
665.204	-2.46
665.236	13.54
665.268	25.54
665.3	-10.46
665.331	-13.46
665.363	3.54
665.395	-2.46
665.427	1.54
665.459	10.54
665.491	6.54
665.523	8.54
665.555	0.54
665.586	-6.46
665.618	0.54
665.65	-23.46
665.682	1.54
665.714	11.54
665.746	-5.46
665.777	2.54
665.809	-3.46
665.841	7.54
665.873	-8.46
665.905	-0.46
665.937	4.54
665.968	1.54
666	-1.46
666.032	12.54
666.064	-12.46
666.096	-10.46
666.127	6.54
666.159	17.54
666.191	14.54
666.223	4.54
666.255	7.54
666.286	-4.46
666.318	-0.46
666.35	18.54
666.382	-0.46
666.413	-8.46
666.445	3.54
666.477	-20.46
666.509	6.54
666.54	15.54
666.572	-2.46
666.604	-9.46
666.636	5.54
666.667	18.54
666.699	25.54
666.731	5.54
666.763	7.54
666.794	6.54
666.826	5.54
666.858	-2.46
666.89	11.54
666.921	1.54
666.953	5.54
666.985	21.54
667.017	15.54
667.048	9.54
667.08	-13.46
667.112	-2.46
667.143	-7.46
667.175	7.54
667.207	13.54
667.238	5.54
667.27	4.54
667.302	14.54
667.334	-2.46
667.365	13.54
667.397	7.54
667.429	7.54
667.46	14.54
667.492	-2.46
667.524	-14.46
667.555	-5.46
667.587	4.54
667.619	3.54
667.65	-4.46
667.682	12.54
667.714	7.54
667.745	11.54
667.777	-5.46
667.808	4.54
667.84	3.54
667.872	-13.46
667.903	8.54
667.935	3.54
667.967	4.54
667.998	-1.46
668.03	3.54
668.061	-4.46
668.093	-0.46
668.125	9.54
668.156	-10.46
668.188	4.54
668.22	-9.46
668.251	-9.46
668.283	4.54
668.314	9.54
668.346	-14.46
668.377	-5.46
668.409	-0.46
668.441	19.54
668.472	5.54
668.504	14.54
668.535	9.54
668.567	17.54
668.599	-5.46
668.63	-15.46
668.662	10.54
668.693	8.54
668.725	-8.46
668.756	-0.46
668.788	5.54
668.819	15.54
668.851	5.54
668.882	11.54
668.914	10.54
668.946	3.54
668.977	3.54
669.009	-7.46
669.04	-12.46
669.072	5.54
669.103	19.54
669.135	-3.46
669.166	9.54
669.198	16.54
669.229	7.54
669.261	3.54
669.292	6.54
669.324	11.54
669.355	17.54
669.387	-14.46
669.418	-9.46
669.45	-10.46
669.481	-3.46
669.513	-5.46
669.544	2.54
669.576	9.54
669.607	14.54
669.639	13.54
669.67	-2.46
669.701	6.54
669.733	-11.46
669.764	-5.46
669.796	0.54
669.827	-10.46
669.859	16.54
669.89	18.54
669.922	4.54
669.953	9.54
669.985	9.54
670.016	3.54
670.047	-0.46
670.079	8.54
670.11	3.54
670.142	5.54
670.173	-8.46
670.204	-5.46
670.236	-3.46
670.267	-12.46
670.299	0.54
670.33	0.54
670.362	16.54
670.393	-2.46
670.424	12.54
670.456	-4.46
670.487	4.54
670.518	-3.46
670.55	7.54
670.581	4.54
670.613	-1.46
670.644	-14.46
670.675	-19.46
670.707	-3.46
670.738	-2.46
670.769	-4.46
670.801	-12.46
670.832	3.54
670.864	1.54
670.895	11.54
670.926	8.54
670.958	10.54
670.989	11.54
671.02	1.54
671.052	12.54
671.083	4.54
671.114	0.54
671.146	-1.46
671.177	-9.46
671.208	1.54
671.24	-11.46
671.271	4.54
671.302	24.54
671.333	5.54
671.365	-11.46
671.396	-7.46
671.427	-5.46
671.459	8.54
671.49	15.54
671.521	11.54
671.553	3.54
671.584	4.54
671.615	-6.46
671.646	9.54
671.678	4.54
671.709	-24.46
671.74	-14.46
671.771	-4.46
671.803	11.54
671.834	6.54
671.865	7.54
671.896	12.54
671.928	3.54
671.959	-6.46
671.99	-11.46
672.021	-17.46
672.053	-13.46
672.084	9.54
672.115	-7.46
672.146	3.54
672.178	-19.46
672.209	-20.46
672.24	1.54
672.271	15.54
672.303	1.54
672.334	-4.46
672.365	-9.46
672.396	2.54
672.427	-1.46
672.459	8.54
672.49	17.54
672.521	4.54
672.552	1.54
672.583	7.54
672.615	9.54
672.646	10.54
672.677	10.54
672.708	2.54
672.739	8.54
672.77	6.54
672.802	10.54
672.833	0.54
672.864	10.54
672.895	2.54
672.926	-9.46
672.957	-18.46
672.989	-11.46
673.02	-1.46
673.051	1.54
673.082	35.54
673.113	5.54
673.144	8.54
673.175	7.54
673.206	4.54
673.238	9.54
673.269	-7.46
673.3	2.54
673.331	-6.46
673.362	-12.46
673.393	-0.46
673.424	6.54
673.455	30.54
673.487	21.54
673.518	8.54
673.549	-2.46
673.58	-5.46
673.611	-1.46
673.642	-0.46
673.673	-15.46
673.704	-8.46
673.735	4.54
673.766	2.54
673.797	-0.46
673.828	16.54
673.86	2.54
673.891	-5.46
673.922	-18.46
673.953	-16.46
673.984	-1.46
674.015	11.54
674.046	7.54
674.077	-3.46
674.108	-4.46
674.139	5.54
674.17	4.54
674.201	-2.46
674.232	-5.46
674.263	11.54
674.294	2.54
674.325	-3.46
674.356	1.54
674.387	6.54
674.418	5.54
674.449	-0.46
674.48	-18.46
674.511	-10.46
674.542	7.54
674.573	2.54
674.604	17.54
674.635	1.54
674.666	11.54
674.697	5.54
674.728	3.54
674.759	5.54
674.79	10.54
674.821	8.54
674.852	5.54
674.883	-8.46
674.914	1.54
674.945	16.54
674.976	-8.46
675.007	-3.46
675.038	-13.46
675.069	-5.46
675.1	-3.46
675.131	-4.46
675.162	-1.46
675.193	-7.46
675.224	-5.46
675.254	6.54
675.285	5.54
675.316	11.54
675.347	7.54
675.378	8.54
675.409	-14.46
675.44	11.54
675.471	2.54
675.502	-4.46
675.533	4.54
675.564	5.54
675.595	7.54
675.625	16.54
675.656	7.54
675.687	7.54
675.718	-9.46
675.749	5.54
675.78	3.54
675.811	-6.46
675.842	1.54
675.873	7.54
675.903	2.54
675.934	-2.46
675.965	-0.46
675.996	-9.46
676.027	1.54
676.058	-7.46
676.089	-3.46
676.119	10.54
676.15	2.54
676.181	-10.46
676.212	-2.46
676.243	9.54
676.274	-3.46
676.304	29.54
676.335	-4.46
676.366	-0.46
676.397	-0.46
676.428	10.54
676.459	-10.46
676.489	3.54
676.52	13.54
676.551	-3.46
676.582	-6.46
676.613	-5.46
676.643	-9.46
676.674	10.54
676.705	-4.46
676.736	13.54
676.767	14.54
676.797	9.54
676.828	1.54
676.859	-6.46
676.89	3.54
676.92	2.54
676.951	1.54
676.982	3.54
677.013	-14.46
677.044	-3.46
677.074	11.54
677.105	-2.46
677.136	16.54
677.167	8.54
677.197	4.54
677.228	-0.46
677.259	-9.46
677.289	0.54
677.32	-26.46
677.351	-21.46
677.382	-6.46
677.412	-11.46
677.443	18.54
677.474	7.54
677.505	-5.46
677.535	1.54
677.566	6.54
677.597	-12.46
677.627	-12.46
677.658	-1.46
677.689	3.54
677.72	-13.46
677.75	-23.46
677.781	-12.46
677.812	11.54
677.842	8.54
677.873	0.54
677.904	4.54
677.934	2.54
677.965	-5.46
677.996	-7.46
678.026	1.54
678.057	-6.46
678.088	-10.46
678.118	-1.46
678.149	-17.46
678.18	3.54
678.21	4.54
678.241	2.54
678.272	-11.46
678.302	-9.46
678.333	7.54
678.363	19.54
678.394	8.54
678.425	-1.46
678.455	-0.46
678.486	13.54
678.517	-5.46
678.547	1.54
678.578	3.54
678.608	-14.46
678.639	-2.46
678.67	-9.46
678.7	-7.46
678.731	-10.46
678.761	-3.46
678.792	9.54
678.823	1.54
678.853	11.54
678.884	-8.46
678.914	2.54
678.945	16.54
678.975	0.54
679.006	9.54
679.037	-5.46
679.067	17.54
679.098	13.54
679.128	5.54
679.159	-9.46
679.189	13.54
679.22	-3.46
679.25	-1.46
679.281	-1.46
679.312	-1.46
679.342	7.54
679.373	26.54
679.403	16.54
679.434	5.54
679.464	8.54
679.495	7.54
679.525	-6.46
679.556	-9.46
679.586	-2.46
679.617	0.54
679.647	3.54
679.678	12.54
679.708	-14.46
679.739	-12.46
679.769	3.54
679.8	1.54
679.83	-0.46
679.861	29.54
679.891	-10.46
679.922	-28.46
679.952	-6.46
679.983	1.54
680.013	10.54
680.044	-9.46
680.074	12.54
680.105	14.54
680.135	3.54
680.165	14.54
680.196	-3.46
680.226	13.54
680.257	4.54
680.287	-10.46
680.318	-7.46
680.348	-2.46
680.379	0.54
680.409	12.54
680.439	5.54
680.47	6.54
680.5	-2.46
680.531	7.54
680.561	9.54
680.592	8.54
680.622	21.54
680.652	1.54
680.683	10.54
680.713	-8.46
680.744	14.54
680.774	-0.46
680.804	17.54
680.835	-22.46
680.865	-4.46
680.896	3.54
680.926	-1.46
680.956	10.54
680.987	8.54
681.017	-0.46
681.047	-2.46
681.078	-10.46
681.108	1.54
681.139	4.54
681.169	16.54
681.199	-4.46
681.23	2.54
681.26	0.54
681.29	18.54
681.321	3.54
681.351	-5.46
681.381	-24.46
681.412	1.54
681.442	2.54
681.472	-2.46
681.503	2.54
681.533	1.54
681.563	-5.46
681.594	-8.46
681.624	8.54
681.654	5.54
681.685	-5.46
681.715	1.54
681.745	-1.46
681.775	-8.46
681.806	-8.46
681.836	-12.46
681.866	0.54
681.897	-0.46
681.927	-2.46
681.957	-14.46
681.987	0.54
682.018	1.54
682.048	7.54
682.078	2.54
682.109	6.54
682.139	16.54
682.169	-3.46
682.199	5.54
682.23	-5.46
682.26	28.54
682.29	-0.46
682.32	3.54
682.351	-5.46
682.381	6.54
682.411	0.54
682.441	-2.46
682.472	-0.46
682.502	-1.46
682.532	-11.46
682.562	7.54
682.592	9.54
682.623	17.54
682.653	5.54
682.683	4.54
682.713	9.54
682.743	14.54
682.774	11.54
682.804	9.54
682.834	33.54
682.864	6.54
682.894	9.54
682.925	10.54
682.955	2.54
682.985	-14.46
683.015	19.54
683.045	13.54
683.076	-14.46
683.106	-15.46
683.136	-17.46
683.166	-12.46
683.196	-14.46
683.226	1.54
683.257	-8.46
683.287	-1.46
683.317	-13.46
683.347	-10.46
683.377	5.54
683.407	-7.46
683.437	4.54
683.468	3.54
683.498	-0.46
683.528	0.54
683.558	2.54
683.588	9.54
683.618	-10.46
683.648	5.54
683.678	-8.46
683.708	-2.46
683.739	6.54
683.769	9.54
683.799	-1.46
683.829	0.54
683.859	-8.46
683.889	10.54
683.919	1.54
683.949	10.54
683.979	5.54
684.009	-19.46
684.039	14.54
684.07	3.54
684.1	18.54
684.13	3.54
684.16	6.54
684.19	-7.46
684.22	-4.46
684.25	-2.46
684.28	3.54
684.31	32.54
684.34	4.54
684.37	2.54
684.4	-5.46
684.43	-3.46
684.46	-3.46
684.49	3.54
684.52	15.54
684.55	16.54
684.58	9.54
684.61	-0.46
684.64	7.54
684.67	15.54
684.7	16.54
684.73	14.54
684.76	19.54
684.79	22.54
684.82	-1.46
684.85	-4.46
684.88	6.54
684.91	3.54
684.94	9.54
684.97	3.54
685	-2.46
685.03	-2.46
685.06	3.54
685.09	3.54
685.12	10.54
685.15	-13.46
685.18	14.54
685.21	15.54
685.24	27.54
685.27	21.54
685.3	3.54
685.33	6.54
685.36	-3.46
685.39	8.54
685.42	-21.46
685.45	-9.46
685.48	-14.46
685.51	-8.46
685.54	19.54
685.569	18.54
685.599	8.54
685.629	-2.46
685.659	-0.46
685.689	-9.46
685.719	2.54
685.749	-0.46
685.779	1.54
685.809	10.54
685.839	-0.46
685.869	13.54
685.898	-5.46
685.928	7.54
685.958	1.54
685.988	13.54
686.018	12.54
686.048	0.54
686.078	14.54
686.108	11.54
686.137	7.54
686.167	28.54
686.197	-6.46
686.227	7.54
686.257	10.54
686.287	28.54
686.317	12.54
686.346	10.54
686.376	-11.46
686.406	-10.46
686.436	7.54
686.466	3.54
686.496	2.54
686.525	6.54
686.555	-0.46
686.585	15.54
686.615	16.54
686.645	-15.46
686.675	1.54
686.704	8.54
686.734	13.54
686.764	-10.46
686.794	0.54
686.824	3.54
686.853	9.54
686.883	13.54
686.913	16.54
686.943	0.54
686.973	-6.46
687.002	0.54
687.032	-6.46
687.062	4.54
687.092	27.54
687.121	1.54
687.151	10.54
687.181	15.54
687.211	11.54
687.24	5.54
687.27	4.54
687.3	9.54
687.33	1.54
687.359	4.54
687.389	3.54
687.419	13.54
687.449	2.54
687.478	14.54
687.508	-4.46
687.538	5.54
687.568	11.54
687.597	-1.46
687.627	12.54
687.657	17.54
687.686	8.54
687.716	12.54
687.746	-25.46
687.776	-13.46
687.805	5.54
687.835	-2.46
687.865	4.54
687.894	21.54
687.924	8.54
687.954	2.54
687.983	5.54
688.013	11.54
688.043	7.54
688.072	24.54
688.102	12.54
688.132	6.54
688.161	10.54
688.191	3.54
688.221	9.54
688.25	-2.46
688.28	17.54
688.31	4.54
688.339	15.54
688.369	7.54
688.399	6.54
688.428	-5.46
688.458	9.54
688.488	6.54
688.517	25.54
688.547	10.54
688.576	23.54
688.606	29.54
688.636	-3.46
688.665	1.54
688.695	13.54
688.725	20.54
688.754	11.54
688.784	6.54
688.813	7.54
688.843	7.54
688.873	5.54
688.902	-3.46
688.932	5.54
688.961	3.54
688.991	15.54
689.02	10.54
689.05	-9.46
689.08	10.54
689.109	13.54
689.139	5.54
689.168	4.54
689.198	-6.46
689.227	-5.46
689.257	5.54
689.287	7.54
689.316	-0.46
689.346	2.54
689.375	-17.46
689.405	8.54
689.434	9.54
689.464	6.54
689.493	5.54
689.523	5.54
689.552	2.54
689.582	9.54
689.611	3.54
689.641	12.54
689.67	-9.46
689.7	2.54
689.73	9.54
689.759	11.54
689.789	27.54
689.818	2.54
689.848	0.54
689.877	19.54
689.906	6.54
689.936	2.54
689.965	3.54
689.995	13.54
690.024	12.54
690.054	1.54
690.083	7.54
690.113	1.54
690.142	3.54
690.172	1.54
690.201	11.54
690.231	-14.46
690.26	2.54
690.29	-3.46
690.319	3.54
690.348	-3.46
690.378	5.54
690.407	7.54
690.437	-6.46
690.466	7.54
690.496	-6.46
690.525	2.54
690.555	2.54
690.584	10.54
690.613	-1.46
690.643	-7.46
690.672	13.54
690.702	15.54
690.731	7.54
690.76	6.54
690.79	-1.46
690.819	-6.46
690.849	8.54
690.878	-8.46
690.907	20.54
690.937	26.54
690.966	16.54
690.996	18.54
691.025	11.54
691.054	8.54
691.084	4.54
691.113	6.54
691.142	5.54
691.172	4.54
691.201	13.54
691.23	4.54
691.26	6.54
691.289	17.54
691.319	3.54
691.348	-17.46
691.377	11.54
691.407	-15.46
691.436	2.54
691.465	12.54
691.495	14.54
691.524	11.54
691.553	11.54
691.583	4.54
691.612	5.54
691.641	3.54
691.67	12.54
691.7	-4.46
691.729	-13.46
691.758	3.54
691.788	3.54
691.817	-3.46
691.846	7.54
691.876	-5.46
691.905	6.54
691.934	-7.46
691.963	2.54
691.993	4.54
692.022	-2.46
692.051	-8.46
692.081	9.54
692.11	3.54
692.139	6.54
692.168	6.54
692.198	20.54
692.227	7.54
692.256	10.54
692.285	4.54
692.315	4.54
692.344	-9.46
692.373	11.54
692.402	-25.46
692.432	-12.46
692.461	-3.46
692.49	3.54
692.519	-10.46
692.548	8.54
692.578	5.54
692.607	-11.46
692.636	-18.46
692.665	22.54
692.694	5.54
692.724	7.54
692.753	21.54
692.782	13.54
692.811	-2.46
692.84	-4.46
692.87	-5.46
692.899	3.54
692.928	14.54
692.957	8.54
692.986	5.54
693.016	6.54
693.045	5.54
693.074	1.54
693.103	13.54
693.132	-4.46
693.161	2.54
693.191	2.54
693.22	-6.46
693.249	13.54
693.278	-10.46
693.307	30.54
693.336	2.54
693.365	-1.46
693.395	5.54
693.424	-1.46
693.453	24.54
693.482	17.54
693.511	3.54
693.54	7.54
693.569	-2.46
693.598	-2.46
693.628	22.54
693.657	16.54
693.686	11.54
693.715	17.54
693.744	9.54
693.773	17.54
693.802	13.54
693.831	5.54
693.86	11.54
693.889	11.54
693.919	7.54
693.948	9.54
693.977	3.54
694.006	5.54
694.035	-8.46
694.064	-1.46
694.093	-2.46
694.122	-3.46
694.151	-2.46
694.18	6.54
694.209	14.54
694.238	3.54
694.267	6.54
694.296	15.54
694.325	5.54
694.354	20.54
694.383	10.54
694.412	9.54
694.441	-4.46
694.471	0.54
694.5	-8.46
694.529	2.54
694.558	18.54
694.587	8.54
694.616	3.54
694.645	-9.46
694.674	22.54
694.703	17.54
694.732	-6.46
694.761	12.54
694.79	18.54
694.819	-9.46
694.848	-2.46
694.877	8.54
694.906	28.54
694.935	15.54
694.963	30.54
694.992	0.54
695.021	-6.46
695.05	9.54
695.079	11.54
695.108	6.54
695.137	23.54
695.166	16.54
695.195	-6.46
695.224	1.54
695.253	18.54
695.282	-0.46
695.311	21.54
695.34	-0.46
695.369	6.54
695.398	0.54
695.427	17.54
695.456	15.54
695.485	14.54
695.513	10.54
695.542	17.54
695.571	4.54
695.6	11.54
695.629	1.54
695.658	17.54
695.687	15.54
695.716	-0.46
695.745	21.54
695.774	-4.46
695.802	5.54
695.831	19.54
695.86	20.54
695.889	10.54
695.918	0.54
695.947	4.54
695.976	8.54
696.005	4.54
696.033	13.54
696.062	20.54
696.091	-3.46
696.12	-13.46
696.149	7.54
696.178	25.54
696.207	14.54
696.235	-6.46
696.264	17.54
696.293	0.54
696.322	5.54
696.351	1.54
696.38	-5.46
696.408	4.54
696.437	6.54
696.466	12.54
696.495	27.54
696.524	8.54
696.553	12.54
696.581	7.54
696.61	8.54
696.639	13.54
696.668	-6.46
696.697	-11.46
696.725	4.54
696.754	6.54
696.783	-6.46
696.812	3.54
696.84	15.54
696.869	1.54
696.898	-0.46
696.927	-10.46
696.956	16.54
696.984	7.54
697.013	2.54
697.042	6.54
697.071	5.54
697.099	14.54
697.128	-10.46
697.157	4.54
697.186	3.54
697.214	10.54
697.243	26.54
697.272	-4.46
697.301	-0.46
697.329	-14.46
697.358	2.54
697.387	32.54
697.415	20.54
697.444	3.54
697.473	14.54
697.502	-4.46
697.53	1.54
697.559	-10.46
697.588	3.54
697.616	2.54
697.645	-0.46
697.674	14.54
697.703	9.54
697.731	6.54
697.76	13.54
697.789	-1.46
697.817	-0.46
697.846	15.54
697.875	-0.46
697.903	6.54
697.932	10.54
697.961	-3.46
697.989	10.54
698.018	7.54
698.047	-2.46
698.075	14.54
698.104	-2.46
698.133	-4.46
698.161	5.54
698.19	10.54
698.218	8.54
698.247	23.54
698.276	7.54
698.304	12.54
698.333	0.54
698.362	11.54
698.39	13.54
698.419	0.54
698.447	8.54
698.476	-5.46
698.505	0.54
698.533	5.54
698.562	0.54
698.591	6.54
698.619	5.54
698.648	15.54
698.676	7.54
698.705	6.54
698.733	-3.46
698.762	1.54
698.791	9.54
698.819	11.54
698.848	4.54
698.876	13.54
698.905	7.54
698.933	3.54
698.962	2.54
698.991	10.54
699.019	16.54
699.048	12.54
699.076	7.54
699.105	4.54
699.133	7.54
699.162	9.54
699.19	24.54
699.219	0.54
699.248	19.54
699.276	1.54
699.305	2.54
699.333	14.54
699.362	2.54
699.39	14.54
699.419	-3.46
699.447	13.54
699.476	16.54
699.504	-4.46
699.533	13.54
699.561	-6.46
699.59	-7.46
699.618	12.54
699.647	-1.46
699.675	4.54
699.704	18.54
699.732	0.54
699.761	-10.46
699.789	-1.46
699.818	6.54
699.846	8.54
699.874	-9.46
699.903	5.54
699.931	3.54
699.96	20.54
699.988	-8.46
700.017	4.54
700.045	13.54
700.074	5.54
700.102	4.54
700.13	-6.46
700.159	6.54
700.187	3.54
700.216	-12.46
700.244	-3.46
700.273	16.54
700.301	22.54
700.329	20.54
700.358	25.54
700.386	19.54
700.415	-5.46
700.443	5.54
700.472	2.54
700.5	0.54
700.528	11.54
700.557	-8.46
700.585	-5.46
700.614	-6.46
700.642	28.54
700.67	22.54
700.699	7.54
700.727	-9.46
700.755	4.54
700.784	5.54
700.812	-3.46
700.841	-6.46
700.869	0.54
700.897	-7.46
700.926	0.54
700.954	13.54
700.982	4.54
701.011	-5.46
701.039	6.54
701.067	-5.46
701.096	5.54
701.124	-11.46
701.152	-10.46
701.181	5.54
701.209	-3.46
701.237	-5.46
701.266	0.54
701.294	-20.46
701.322	4.54
701.351	0.54
701.379	-13.46
701.407	-5.46
701.435	-0.46
701.464	10.54
701.492	22.54
701.52	-1.46
701.549	14.54
701.577	-9.46
701.605	-0.46
701.634	7.54
701.662	19.54
701.69	-1.46
701.718	-18.46
701.747	13.54
701.775	1.54
701.803	2.54
701.831	-1.46
701.86	-2.46
701.888	-7.46
701.916	0.54
701.944	-2.46
701.973	0.54
702.001	-6.46
702.029	0.54
702.057	-2.46
702.086	-3.46
702.114	-12.46
702.142	9.54
702.17	-3.46
702.199	6.54
702.227	-6.46
702.255	-7.46
702.283	-9.46
702.311	13.54
702.34	5.54
702.368	-8.46
702.396	-3.46
702.424	-0.46
702.452	1.54
702.481	0.54
702.509	3.54
702.537	11.54
702.565	2.54
702.593	-4.46
702.621	2.54
702.65	15.54
702.678	11.54
702.706	-2.46
702.734	-9.46
702.762	14.54
702.79	13.54
702.819	3.54
702.847	-3.46
702.875	4.54
702.903	13.54
702.931	-15.46
702.959	-1.46
702.988	4.54
703.016	-13.46
703.044	-0.46
703.072	1.54
703.1	-13.46
703.128	-4.46
703.156	10.54
703.184	7.54
703.212	7.54
703.241	0.54
703.269	8.54
703.297	-10.46
703.325	-11.46
703.353	-6.46
703.381	-1.46
703.409	15.54
703.437	0.54
703.465	-3.46
703.493	13.54
703.522	10.54
703.55	7.54
703.578	0.54
703.606	-0.46
703.634	0.54
703.662	-7.46
703.69	-1.46
703.718	6.54
703.746	17.54
703.774	6.54
703.802	18.54
703.83	-1.46
703.858	6.54
703.886	-3.46
703.914	-5.46
703.942	13.54
703.97	-2.46
703.998	5.54
704.027	12.54
704.055	15.54
704.083	-13.46
704.111	-1.46
704.139	11.54
704.167	0.54
704.195	3.54
704.223	0.54
704.251	-12.46
704.279	6.54
704.307	-7.46
704.335	1.54
704.363	14.54
704.391	0.54
704.419	-4.46
704.447	-7.46
704.475	-2.46
704.503	-5.46
704.531	-5.46
704.558	1.54
704.586	8.54
704.614	3.54
704.642	11.54
704.67	-6.46
704.698	6.54
704.726	13.54
704.754	-12.46
704.782	5.54
704.81	-14.46
704.838	10.54
704.866	16.54
704.894	2.54
704.922	1.54
704.95	13.54
704.978	11.54
705.006	3.54
705.034	7.54
705.061	-4.46
705.089	-10.46
705.117	-7.46
705.145	-1.46
705.173	3.54
705.201	1.54
705.229	9.54
705.257	1.54
705.285	20.54
705.313	3.54
705.34	-2.46
705.368	3.54
705.396	1.54
705.424	-1.46
705.452	-3.46
705.48	14.54
705.508	5.54
705.536	6.54
705.563	-4.46
705.591	0.54
705.619	7.54
705.647	0.54
705.675	10.54
705.703	0.54
705.731	6.54
705.758	10.54
705.786	-3.46
705.814	29.54
705.842	-7.46
705.87	6.54
705.898	25.54
705.925	-9.46
705.953	-9.46
705.981	-7.46
706.009	6.54
706.037	14.54
706.065	2.54
706.092	-9.46
706.12	-11.46
706.148	-3.46
706.176	-8.46
706.204	1.54
706.231	7.54
706.259	-11.46
706.287	3.54
706.315	-0.46
706.342	6.54
706.37	-2.46
706.398	7.54
706.426	9.54
706.454	4.54
706.481	14.54
706.509	1.54
706.537	-12.46
706.565	-2.46
706.592	-1.46
706.62	-7.46
706.648	1.54
706.676	-7.46
706.703	0.54
706.731	3.54
706.759	-5.46
706.787	17.54
706.814	2.54
706.842	-2.46
706.87	-14.46
706.897	-18.46
706.925	-4.46
706.953	9.54
706.981	20.54
707.008	4.54
707.036	6.54
707.064	-7.46
707.091	-12.46
707.119	-0.46
707.147	-3.46
707.174	-13.46
707.202	3.54
707.23	2.54
707.258	22.54
707.285	-10.46
707.313	3.54
707.341	-20.46
707.368	-10.46
707.396	-10.46
707.424	17.54
707.451	17.54
707.479	10.54
707.507	6.54
707.534	-5.46
707.562	1.54
707.59	-18.46
707.617	-15.46
707.645	3.54
707.672	7.54
707.7	-3.46
707.728	6.54
707.755	2.54
707.783	-11.46
707.811	-1.46
707.838	-7.46
707.866	14.54
707.893	1.54
707.921	-5.46
707.949	-5.46
707.976	-5.46
708.004	-9.46
708.031	-6.46
708.059	-3.46
708.087	4.54
708.114	-4.46
708.142	-9.46
708.169	-8.46
708.197	1.54
708.225	0.54
708.252	-5.46
708.28	5.54
708.307	4.54
708.335	-1.46
708.362	0.54
708.39	-6.46
708.418	2.54
708.445	-5.46
708.473	-10.46
708.5	-9.46
708.528	-2.46
708.555	-4.46
708.583	0.54
708.61	3.54
708.638	-7.46
708.665	-7.46
708.693	4.54
708.72	-8.46
708.748	-23.46
708.776	-9.46
708.803	11.54
708.831	15.54
708.858	15.54
708.886	-3.46
708.913	-13.46
708.941	-2.46
708.968	13.54
708.996	-11.46
709.023	21.54
709.051	2.54
709.078	8.54
709.105	4.54
709.133	-1.46
709.16	-1.46
709.188	17.54
709.215	-6.46
709.243	1.54
709.27	-0.46
709.298	-4.46
709.325	-13.46
709.353	-1.46
709.38	11.54
709.408	13.54
709.435	-10.46
709.462	3.54
709.49	-5.46
709.517	9.54
709.545	-3.46
709.572	10.54
709.6	4.54
709.627	17.54
709.655	11.54
709.682	-5.46
709.709	0.54
709.737	-2.46
709.764	-8.46
709.792	14.54
709.819	3.54
709.846	-3.46
709.874	8.54
709.901	22.54
709.929	13.54
709.956	12.54
709.983	-6.46
710.011	4.54
710.038	6.54
710.066	0.54
710.093	-3.46
710.12	-0.46
710.148	2.54
710.175	-9.46
710.202	-5.46
710.23	12.54
710.257	2.54
710.284	4.54
710.312	-3.46
710.339	-10.46
710.366	14.54
710.394	3.54
710.421	9.54
710.448	5.54
710.476	-12.46
710.503	1.54
710.53	6.54
710.558	15.54
710.585	8.54
710.612	1.54
710.64	-5.46
710.667	3.54
710.694	-11.46
710.722	0.54
710.749	10.54
710.776	14.54
710.804	20.54
710.831	-1.46
710.858	-5.46
710.885	5.54
710.913	2.54
710.94	8.54
710.967	1.54
710.995	14.54
711.022	-5.46
711.049	1.54
711.076	-7.46
711.104	6.54
711.131	-7.46
711.158	10.54
711.185	8.54
711.213	-11.46
711.24	-8.46
711.267	-5.46
711.294	-3.46
711.322	6.54
711.349	-0.46
711.376	-2.46
711.403	5.54
711.431	-7.46
711.458	-5.46
711.485	5.54
711.512	1.54
711.54	-2.46
711.567	0.54
711.594	-7.46
711.621	-3.46
711.648	7.54
711.676	6.54
711.703	5.54
711.73	-13.46
711.757	9.54
711.784	6.54
711.812	4.54
711.839	-7.46
711.866	-5.46
711.893	-4.46
711.92	-1.46
711.947	-7.46
711.975	9.54
712.002	5.54
712.029	5.54
712.056	-2.46
712.083	2.54
712.11	-9.46
712.138	7.54
712.165	1.54
712.192	15.54
712.219	-9.46
712.246	-22.46
712.273	-13.46
712.3	-6.46
712.328	3.54
712.355	11.54
712.382	-2.46
712.409	17.54
712.436	-9.46
712.463	14.54
712.49	12.54
712.517	-5.46
712.544	8.54
712.572	7.54
712.599	-15.46
712.626	4.54
712.653	-11.46
712.68	0.54
712.707	12.54
712.734	2.54
712.761	-7.46
712.788	-3.46
712.815	2.54
712.842	8.54
712.87	3.54
712.897	0.54
712.924	-10.46
712.951	10.54
712.978	10.54
713.005	8.54
713.032	15.54
713.059	6.54
713.086	12.54
713.113	-18.46
713.14	-5.46
713.167	1.54
713.194	0.54
713.221	-0.46
713.248	17.54
713.275	2.54
713.302	0.54
713.329	4.54
713.356	4.54
713.383	4.54
713.41	22.54
713.437	-5.46
713.464	3.54
713.491	2.54
713.518	13.54
713.545	1.54
713.572	4.54
713.599	8.54
713.626	1.54
713.653	4.54
713.68	-5.46
713.707	1.54
713.734	1.54
713.761	-14.46
713.788	5.54
713.815	6.54
713.842	-18.46
713.869	17.54
713.896	-2.46
713.923	-6.46
713.95	13.54
713.977	6.54
714.004	5.54
714.031	-3.46
714.058	-9.46
714.085	-17.46
714.112	19.54
714.139	3.54
714.165	-4.46
714.192	0.54
714.219	5.54
714.246	6.54
714.273	3.54
714.3	17.54
714.327	11.54
714.354	16.54
714.381	1.54
714.408	-9.46
714.435	-3.46
714.461	-5.46
714.488	8.54
714.515	1.54
714.542	-11.46
714.569	-17.46
714.596	-17.46
714.623	4.54
714.65	-1.46
714.677	-5.46
714.703	-1.46
714.73	17.54
714.757	4.54
714.784	9.54
714.811	-5.46
714.838	13.54
714.865	1.54
714.891	13.54
714.918	4.54
714.945	5.54
714.972	11.54
714.999	15.54
715.026	-3.46
715.052	23.54
715.079	-0.46
715.106	-5.46
715.133	12.54
715.16	0.54
715.187	12.54
715.213	4.54
715.24	-10.46
715.267	-1.46
715.294	6.54
715.321	6.54
715.347	9.54
715.374	-4.46
715.401	4.54
715.428	-2.46
715.455	8.54
715.481	-14.46
715.508	21.54
715.535	-1.46
715.562	36.54
715.588	6.54
715.615	-0.46
715.642	-2.46
715.669	2.54
715.695	-2.46
715.722	-11.46
715.749	14.54
715.776	13.54
715.802	17.54
715.829	5.54
715.856	-5.46
715.883	15.54
715.909	5.54
715.936	13.54
715.963	3.54
715.99	-13.46
716.016	0.54
716.043	8.54
716.07	9.54
716.096	-9.46
716.123	-18.46
716.15	8.54
716.177	2.54
716.203	1.54
716.23	-0.46
716.257	-5.46
716.283	4.54
716.31	0.54
716.337	5.54
716.363	2.54
716.39	1.54
716.417	18.54
716.443	-2.46
716.47	12.54
716.497	1.54
716.523	8.54
716.55	1.54
716.577	15.54
716.603	-6.46
716.63	-6.46
716.657	2.54
716.683	2.54
716.71	-1.46
716.737	12.54
716.763	17.54
716.79	-2.46
716.817	0.54
716.843	2.54
716.87	-10.46
716.897	0.54
716.923	23.54
716.95	8.54
716.976	3.54
717.003	14.54
717.03	4.54
717.056	-4.46
717.083	-4.46
717.109	-7.46
717.136	11.54
717.163	7.54
717.189	13.54
717.216	-1.46
717.242	-2.46
717.269	0.54
717.296	9.54
717.322	8.54
717.349	24.54
717.375	20.54
717.402	5.54
717.428	16.54
717.455	8.54
717.481	-1.46
717.508	0.54
717.535	1.54
717.561	13.54
717.588	-3.46
717.614	-15.46
717.641	12.54
717.667	18.54
717.694	10.54
717.72	-8.46
717.747	8.54
717.773	1.54
717.8	13.54
717.826	4.54
717.853	7.54
717.88	18.54
717.906	0.54
717.933	18.54
717.959	-2.46
717.986	0.54
718.012	-2.46
718.039	2.54
718.065	1.54
718.092	8.54
718.118	20.54
718.144	22.54
718.171	35.54
718.197	33.54
718.224	1.54
718.25	3.54
718.277	5.54
718.303	19.54
718.33	2.54
718.356	-5.46
718.383	-12.46
718.409	3.54
718.436	1.54
718.462	3.54
718.489	-2.46
718.515	9.54
718.541	1.54
718.568	0.54
718.594	-6.46
718.621	7.54
718.647	0.54
718.674	11.54
718.7	19.54
718.726	-6.46
718.753	-4.46
718.779	6.54
718.806	-8.46
718.832	-3.46
718.858	0.54
718.885	-1.46
718.911	3.54
718.938	12.54
718.964	6.54
718.99	9.54
719.017	-2.46
719.043	8.54
719.07	17.54
719.096	-0.46
719.122	15.54
719.149	6.54
719.175	2.54
719.201	-5.46
719.228	-2.46
719.254	3.54
719.281	-3.46
719.307	-5.46
719.333	4.54
719.36	9.54
719.386	8.54
719.412	2.54
719.439	-12.46
719.465	-1.46
719.491	-6.46
719.518	-3.46
719.544	-1.46
719.57	4.54
719.597	14.54
719.623	12.54
719.649	13.54
719.675	13.54
719.702	12.54
719.728	11.54
719.754	1.54
719.781	1.54
719.807	2.54
719.833	1.54
719.86	6.54
719.886	-1.46
719.912	-15.46
719.938	-3.46
719.965	-5.46
719.991	1.54
720.017	9.54
720.044	1.54
720.07	15.54
720.096	11.54
720.122	1.54
720.149	26.54
720.175	19.54
720.201	12.54
720.227	5.54
720.254	-6.46
720.28	-5.46
720.306	-12.46
720.332	-10.46
720.359	13.54
720.385	2.54
720.411	6.54
720.437	6.54
720.463	-7.46
720.49	-11.46
720.516	-0.46
720.542	-6.46
720.568	-3.46
720.595	31.54
720.621	1.54
720.647	0.54
720.673	1.54
720.699	13.54
720.725	2.54
720.752	20.54
720.778	23.54
720.804	-8.46
720.83	-2.46
720.856	-2.46
720.883	-15.46
720.909	-9.46
720.935	20.54
720.961	12.54
720.987	8.54
721.013	-5.46
721.04	10.54
721.066	-7.46
721.092	-0.46
721.118	8.54
721.144	17.54
721.17	2.54
721.196	6.54
721.223	-1.46
721.249	3.54
721.275	11.54
721.301	13.54
721.327	14.54
721.353	6.54
721.379	0.54
721.405	2.54
721.432	23.54
721.458	0.54
721.484	-2.46
721.51	-3.46
721.536	14.54
721.562	4.54
721.588	2.54
721.614	-17.46
721.64	-0.46
721.666	0.54
721.693	-1.46
721.719	-3.46
721.745	0.54
721.771	-5.46
721.797	15.54
721.823	6.54
721.849	10.54
721.875	-2.46
721.901	1.54
721.927	-0.46
721.953	9.54
721.979	22.54
722.005	6.54
722.031	0.54
722.057	-0.46
722.083	5.54
722.109	8.54
722.135	10.54
722.161	18.54
722.187	19.54
722.214	3.54
722.24	6.54
722.266	5.54
722.292	2.54
722.318	14.54
722.344	1.54
722.37	6.54
722.396	2.54
722.422	-1.46
722.448	3.54
722.474	1.54
722.5	7.54
722.526	17.54
722.552	0.54
722.578	4.54
722.603	-1.46
722.629	-2.46
722.655	13.54
722.681	5.54
722.707	25.54
722.733	2.54
722.759	-3.46
722.785	9.54
722.811	-4.46
722.837	-6.46
722.863	5.54
722.889	6.54
722.915	9.54
722.941	11.54
722.967	5.54
722.993	12.54
723.019	2.54
723.045	1.54
723.071	13.54
723.097	3.54
723.122	18.54
723.148	5.54
723.174	5.54
723.2	-3.46
723.226	1.54
723.252	11.54
723.278	-3.46
723.304	-7.46
723.33	4.54
723.356	2.54
723.381	7.54
723.407	-11.46
723.433	-3.46
723.459	6.54
723.485	-2.46
723.511	-0.46
723.537	-1.46
723.563	-3.46
723.588	13.54
723.614	21.54
723.64	1.54
723.666	1.54
723.692	20.54
723.718	2.54
723.744	-3.46
723.769	6.54
723.795	9.54
723.821	-6.46
723.847	-3.46
723.873	9.54
723.899	11.54
723.924	-7.46
723.95	0.54
723.976	-0.46
724.002	-1.46
724.028	13.54
724.053	-2.46
724.079	1.54
724.105	8.54
724.131	-2.46
724.157	8.54
724.182	25.54
724.208	-0.46
724.234	0.54
724.26	-9.46
724.286	1.54
724.311	13.54
724.337	5.54
724.363	-22.46
724.389	1.54
724.415	-2.46
724.44	9.54
724.466	4.54
724.492	-0.46
724.518	-3.46
724.543	0.54
724.569	13.54
724.595	11.54
724.621	-2.46
724.646	-5.46
724.672	-1.46
724.698	0.54
724.723	0.54
724.749	2.54
724.775	5.54
724.801	19.54
724.826	-2.46
724.852	10.54
724.878	10.54
724.904	-3.46
724.929	6.54
724.955	-1.46
724.981	-4.46
725.006	12.54
725.032	13.54
725.058	21.54
725.083	0.54
725.109	1.54
725.135	-0.46
725.161	-2.46
725.186	-1.46
725.212	0.54
725.238	10.54
725.263	10.54
725.289	-6.46
725.315	-4.46
725.34	9.54
725.366	12.54
725.392	-5.46
725.417	2.54
725.443	6.54
725.468	7.54
725.494	17.54
725.52	13.54
725.545	10.54
725.571	4.54
725.597	-7.46
725.622	17.54
725.648	1.54
725.674	6.54
725.699	-1.46
725.725	6.54
725.75	34.54
725.776	-2.46
725.802	5.54
725.827	-2.46
725.853	5.54
725.878	-3.46
725.904	-5.46
725.93	8.54
725.955	-1.46
725.981	-6.46
726.006	8.54
726.032	-1.46
726.057	9.54
726.083	-4.46
726.109	-10.46
726.134	-1.46
726.16	12.54
726.185	-4.46
726.211	-2.46
726.236	13.54
726.262	-0.46
726.288	2.54
726.313	26.54
726.339	7.54
726.364	13.54
726.39	9.54
726.415	2.54
726.441	-2.46
726.466	-16.46
726.492	-1.46
726.517	0.54
726.543	-4.46
726.568	-3.46
726.594	-2.46
726.619	-3.46
726.645	10.54
726.67	0.54
726.696	11.54
726.721	0.54
726.747	-9.46
726.772	9.54
726.798	6.54
726.823	7.54
726.849	8.54
726.874	16.54
726.9	6.54
726.925	0.54
726.951	3.54
726.976	0.54
727.002	-5.46
727.027	10.54
727.053	5.54
727.078	-4.46
727.104	4.54
727.129	-15.46
727.155	-9.46
727.18	13.54
727.205	1.54
727.231	-4.46
727.256	-7.46
727.282	4.54
727.307	-2.46
727.333	4.54
727.358	-10.46
727.383	-6.46
727.409	-9.46
727.434	-1.46
727.46	-3.46
727.485	-2.46
727.511	0.54
727.536	-26.46
727.561	5.54
727.587	-1.46
727.612	-2.46
727.637	-2.46
727.663	-4.46
727.688	14.54
727.714	-16.46
727.739	-9.46
727.764	-14.46
727.79	1.54
727.815	25.54
727.841	13.54
727.866	3.54
727.891	5.54
727.917	-6.46
727.942	-5.46
727.967	-5.46
727.993	-21.46
728.018	-3.46
728.043	0.54
728.069	4.54
728.094	16.54
728.119	0.54
728.145	12.54
728.17	-0.46
728.195	7.54
728.221	4.54
728.246	3.54
728.271	-6.46
728.297	-4.46
728.322	7.54
728.347	4.54
728.373	3.54
728.398	20.54
728.423	0.54
728.448	9.54
728.474	21.54
728.499	13.54
728.524	-13.46
728.55	-6.46
728.575	0.54
728.6	0.54
728.625	-3.46
728.651	11.54
728.676	2.54
728.701	2.54
728.727	-7.46
728.752	-5.46
728.777	-2.46
728.802	10.54
728.828	-3.46
728.853	-9.46
728.878	1.54
728.903	-11.46
728.929	-6.46
728.954	-2.46
728.979	15.54
729.004	0.54
729.03	-9.46
729.055	7.54
729.08	-7.46
729.105	-6.46
729.13	-4.46
729.156	12.54
729.181	0.54
729.206	-21.46
729.231	-3.46
729.256	-4.46
729.282	0.54
729.307	0.54
729.332	1.54
729.357	-10.46
729.382	-2.46
729.408	0.54
729.433	4.54
729.458	21.54
729.483	27.54
729.508	15.54
729.533	10.54
729.559	10.54
729.584	-8.46
729.609	11.54
729.634	7.54
729.659	-14.46
729.684	-18.46
729.71	15.54
729.735	-5.46
729.76	-5.46
729.785	10.54
729.81	21.54
729.835	-6.46
729.86	4.54
729.886	2.54
729.911	-3.46
729.936	-9.46
729.961	3.54
729.986	-14.46
730.011	0.54
730.036	1.54
730.061	-3.46
730.086	-2.46
730.112	-7.46
730.137	20.54
730.162	16.54
730.187	-6.46
730.212	17.54
730.237	0.54
730.262	4.54
730.287	3.54
730.312	7.54
730.337	-5.46
730.362	16.54
730.387	0.54
730.413	-5.46
730.438	-2.46
730.463	0.54
730.488	-17.46
730.513	1.54
730.538	-5.46
730.563	21.54
730.588	20.54
730.613	6.54
730.638	-0.46
730.663	6.54
730.688	9.54
730.713	4.54
730.738	5.54
730.763	-5.46
730.788	-7.46
730.813	-1.46
730.838	-7.46
730.863	0.54
730.888	-6.46
730.913	-12.46
730.938	-4.46
730.963	0.54
730.988	18.54
731.013	21.54
731.038	10.54
731.063	3.54
731.088	12.54
731.113	-13.46
731.138	-20.46
731.163	-7.46
731.188	-12.46
731.213	0.54
731.238	9.54
731.263	8.54
731.288	-2.46
731.313	-4.46
731.338	2.54
731.363	2.54
731.388	1.54
731.413	-6.46
731.438	1.54
731.463	-1.46
731.487	0.54
731.512	0.54
731.537	9.54
731.562	17.54
731.587	11.54
731.612	-19.46
731.637	3.54
731.662	-3.46
731.687	-7.46
731.712	-19.46
731.737	17.54
731.762	0.54
731.786	7.54
731.811	17.54
731.836	-0.46
731.861	4.54
731.886	-12.46
731.911	-0.46
731.936	8.54
731.961	-5.46
731.986	2.54
732.01	-6.46
732.035	3.54
732.06	13.54
732.085	1.54
732.11	1.54
732.135	-1.46
732.16	-2.46
732.184	-2.46
732.209	0.54
732.234	6.54
732.259	-10.46
732.284	2.54
732.309	0.54
732.334	-3.46
732.358	-7.46
732.383	-6.46
732.408	-2.46
732.433	6.54
732.458	-9.46
732.482	-18.46
732.507	1.54
732.532	3.54
732.557	17.54
732.582	10.54
732.607	-3.46
732.631	-6.46
732.656	-7.46
732.681	-9.46
732.706	7.54
732.73	-3.46
732.755	-6.46
732.78	2.54
732.805	12.54
732.83	-2.46
732.854	0.54
732.879	1.54
732.904	9.54
732.929	-1.46
732.953	13.54
732.978	-6.46
733.003	11.54
733.028	-6.46
733.052	-5.46
733.077	11.54
733.102	13.54
733.127	1.54
733.151	3.54
733.176	14.54
733.201	0.54
733.226	1.54
733.25	-1.46
733.275	0.54
733.3	6.54
733.324	4.54
733.349	11.54
733.374	6.54
733.399	0.54
733.423	-18.46
733.448	0.54
733.473	-5.46
733.497	-6.46
733.522	-3.46
733.547	32.54
733.571	20.54
733.596	12.54
733.621	4.54
733.646	-0.46
733.67	5.54
733.695	-12.46
733.72	3.54
733.744	-3.46
733.769	-0.46
733.794	17.54
733.818	8.54
733.843	-5.46
733.867	5.54
733.892	-9.46
733.917	-6.46
733.941	1.54
733.966	14.54
733.991	0.54
734.015	12.54
734.04	1.54
734.065	-8.46
734.089	16.54
734.114	3.54
734.138	13.54
734.163	2.54
734.188	3.54
734.212	28.54
734.237	5.54
734.261	1.54
734.286	-12.46
734.311	-6.46
734.335	1.54
734.36	-3.46
734.384	4.54
734.409	6.54
734.434	1.54
734.458	18.54
734.483	6.54
734.507	-2.46
734.532	-0.46
734.556	7.54
734.581	-12.46
734.606	-6.46
734.63	-17.46
734.655	0.54
734.679	-5.46
734.704	-14.46
734.728	-6.46
734.753	-6.46
734.777	15.54
734.802	-2.46
734.826	-3.46
734.851	6.54
734.876	10.54
734.9	8.54
734.925	2.54
734.949	4.54
734.974	3.54
734.998	9.54
735.023	0.54
735.047	-12.46
735.072	8.54
735.096	0.54
735.121	-2.46
735.145	1.54
735.17	6.54
735.194	27.54
735.219	12.54
735.243	-5.46
735.268	19.54
735.292	-0.46
735.317	7.54
735.341	6.54
735.365	-15.46
735.39	3.54
735.414	9.54
735.439	4.54
735.463	0.54
735.488	7.54
735.512	9.54
735.537	4.54
735.561	14.54
735.586	-4.46
735.61	0.54
735.634	-10.46
735.659	2.54
735.683	25.54
735.708	13.54
735.732	-11.46
735.757	-14.46
735.781	3.54
735.805	-6.46
735.83	-11.46
735.854	6.54
735.879	-4.46
735.903	6.54
735.927	1.54
735.952	12.54
735.976	2.54
736.001	8.54
736.025	-6.46
736.049	13.54
736.074	9.54
736.098	-3.46
736.123	-4.46
736.147	-0.46
736.171	-1.46
736.196	3.54
736.22	-13.46
736.244	18.54
736.269	-9.46
736.293	0.54
736.317	2.54
736.342	2.54
736.366	13.54
736.39	17.54
736.415	8.54
736.439	3.54
736.463	12.54
736.488	1.54
736.512	8.54
736.536	8.54
736.561	17.54
736.585	5.54
736.609	3.54
736.634	-6.46
736.658	-9.46
736.682	-11.46
736.707	-9.46
736.731	-7.46
736.755	0.54
736.78	20.54
736.804	30.54
736.828	12.54
736.852	0.54
736.877	1.54
736.901	11.54
736.925	-1.46
736.949	20.54
736.974	-3.46
736.998	-15.46
737.022	0.54
737.047	1.54
737.071	2.54
737.095	10.54
737.119	27.54
737.144	14.54
737.168	-0.46
737.192	-4.46
737.216	-1.46
737.241	-2.46
737.265	6.54
737.289	-7.46
737.313	4.54
737.337	16.54
737.362	5.54
737.386	-2.46
737.41	-2.46
737.434	-5.46
737.459	1.54
737.483	13.54
737.507	7.54
737.531	6.54
737.555	14.54
737.58	19.54
737.604	14.54
737.628	-13.46
737.652	-2.46
737.676	-1.46
737.701	-2.46
737.725	0.54
737.749	9.54
737.773	11.54
737.797	12.54
737.821	15.54
737.846	-2.46
737.87	18.54
737.894	16.54
737.918	-9.46
737.942	0.54
737.966	-2.46
737.99	13.54
738.015	-0.46
738.039	2.54
738.063	-6.46
738.087	16.54
738.111	-11.46
738.135	15.54
738.159	8.54
738.184	-5.46
738.208	5.54
738.232	6.54
738.256	13.54
738.28	10.54
738.304	8.54
738.328	-3.46
738.352	-0.46
738.376	-7.46
738.4	-2.46
738.425	11.54
738.449	0.54
738.473	23.54
738.497	3.54
738.521	11.54
738.545	9.54
738.569	-9.46
738.593	-3.46
738.617	10.54
738.641	-2.46
738.665	-5.46
738.689	15.54
738.713	3.54
738.737	1.54
738.762	25.54
738.786	-3.46
738.81	-10.46
738.834	22.54
738.858	-10.46
738.882	11.54
738.906	3.54
738.93	12.54
738.954	8.54
738.978	1.54
739.002	-4.46
739.026	21.54
739.05	19.54
739.074	10.54
739.098	14.54
739.122	6.54
739.146	-3.46
739.17	9.54
739.194	13.54
739.218	2.54
739.242	1.54
739.266	-4.46
739.29	14.54
739.314	14.54
739.338	-5.46
739.362	5.54
739.386	16.54
739.41	-5.46
739.434	1.54
739.458	17.54
739.482	16.54
739.506	18.54
739.53	0.54
739.554	5.54
739.577	10.54
739.601	16.54
739.625	-5.46
739.649	-2.46
739.673	-3.46
739.697	0.54
739.721	1.54
739.745	20.54
739.769	11.54
739.793	10.54
739.817	4.54
739.841	1.54
739.865	4.54
739.889	-15.46
739.912	0.54
739.936	-7.46
739.96	1.54
739.984	13.54
740.008	5.54
740.032	1.54
740.056	1.54
740.08	14.54
740.104	6.54
740.127	-1.46
740.151	12.54
740.175	18.54
740.199	10.54
740.223	60.54
740.247	15.54
740.271	8.54
740.295	-3.46
740.318	-5.46
740.342	12.54
740.366	5.54
740.39	4.54
740.414	1.54
740.438	-9.46
740.461	22.54
740.485	3.54
740.509	2.54
740.533	-0.46
740.557	9.54
740.581	-1.46
740.604	-25.46
740.628	12.54
740.652	20.54
740.676	2.54
740.7	17.54
740.723	13.54
740.747	-7.46
740.771	18.54
740.795	-4.46
740.819	17.54
740.842	14.54
740.866	8.54
740.89	7.54
740.914	2.54
740.938	-3.46
740.961	8.54
740.985	21.54
741.009	6.54
741.033	16.54
741.056	4.54
741.08	6.54
741.104	-9.46
741.128	8.54
741.151	19.54
741.175	5.54
741.199	5.54
741.223	14.54
741.246	-10.46
741.27	4.54
741.294	6.54
741.318	13.54
741.341	-5.46
741.365	5.54
741.389	14.54
741.413	10.54
741.436	27.54
741.46	17.54
741.484	17.54
741.507	2.54
741.531	29.54
741.555	22.54
741.579	14.54
741.602	0.54
741.626	8.54
741.65	-1.46
741.673	9.54
741.697	5.54
741.721	4.54
741.744	-7.46
741.768	-2.46
741.792	-1.46
741.815	-1.46
741.839	22.54
741.863	20.54
741.886	11.54
741.91	9.54
741.934	18.54
741.957	-4.46
741.981	19.54
742.005	-13.46
742.028	-10.46
742.052	-7.46
742.075	15.54
742.099	28.54
742.123	16.54
742.146	-2.46
742.17	6.54
742.194	-9.46
742.217	3.54
742.241	-5.46
742.264	0.54
742.288	13.54
742.312	18.54
742.335	9.54
742.359	13.54
742.382	25.54
742.406	10.54
742.43	-2.46
742.453	-2.46
742.477	5.54
742.5	3.54
742.524	-1.46
742.548	-7.46
742.571	1.54
742.595	-2.46
742.618	-14.46
742.642	6.54
742.665	1.54
742.689	-8.46
742.712	16.54
742.736	-12.46
742.76	-2.46
742.783	-3.46
742.807	14.54
742.83	8.54
742.854	-5.46
742.877	-8.46
742.901	10.54
742.924	-7.46
742.948	10.54
742.971	7.54
742.995	-3.46
743.018	-2.46
743.042	-3.46
743.065	6.54
743.089	-2.46
743.112	1.54
743.136	-2.46
743.159	-9.46
743.183	4.54
743.206	14.54
743.23	-5.46
743.253	-3.46
743.277	23.54
743.3	-11.46
743.324	-11.46
743.347	5.54
743.371	18.54
743.394	10.54
743.418	13.54
743.441	15.54
743.465	2.54
743.488	8.54
743.512	1.54
743.535	9.54
743.558	4.54
743.582	5.54
743.605	4.54
743.629	6.54
743.652	7.54
743.676	-6.46
743.699	17.54
743.723	27.54
743.746	0.54
743.769	1.54
743.793	1.54
743.816	2.54
743.84	21.54
743.863	0.54
743.886	8.54
743.91	4.54
743.933	-1.46
743.957	10.54
743.98	0.54
744.003	6.54
744.027	8.54
744.05	-2.46
744.074	-4.46
744.097	-22.46
744.12	-7.46
744.144	-0.46
744.167	10.54
744.19	-3.46
744.214	10.54
744.237	-3.46
744.26	25.54
744.284	1.54
744.307	-15.46
744.331	12.54
744.354	7.54
744.377	-5.46
744.401	-6.46
744.424	-6.46
744.447	1.54
744.471	3.54
