Data from HighRes_H2_15_09_11_07_2024_HR4C61891__128__15-11-09-201.txt Node

Date: Thu Nov 07 15:11:09 EST 2024
User: crc00042
Spectrometer: HR4C6189
Trigger mode: 4
Integration Time (sec): 1.000000E-1
Scans to average: 1
Electric dark correction enabled: true
Nonlinearity correction enabled: false
Boxcar width: 0
XAxis mode: Wavelengths
Number of Pixels in Spectrum: 3648
>>>>>Begin Spectral Data<<<<<
639.567	-66.46
639.602	-66.46
639.636	-66.46
639.67	-40.46
639.704	-13.46
639.738	-1.46
639.773	16.54
639.807	-3.46
639.841	6.54
639.875	16.54
639.909	5.54
639.943	-11.46
639.978	-6.46
640.012	-5.46
640.046	0.54
640.08	-1.46
640.114	-2.46
640.148	-13.46
640.182	3.54
640.217	10.54
640.251	8.54
640.285	15.54
640.319	1.54
640.353	-4.46
640.387	3.54
640.421	16.54
640.455	9.54
640.49	6.54
640.524	-10.46
640.558	14.54
640.592	5.54
640.626	-4.46
640.66	16.54
640.694	4.54
640.728	-0.46
640.762	27.54
640.796	13.54
640.83	18.54
640.865	-5.46
640.899	-10.46
640.933	-11.46
640.967	2.54
641.001	10.54
641.035	21.54
641.069	-5.46
641.103	-14.46
641.137	13.54
641.171	-6.46
641.205	-2.46
641.239	-1.46
641.273	15.54
641.307	13.54
641.341	-8.46
641.375	-5.46
641.409	6.54
641.443	-3.46
641.477	-0.46
641.511	13.54
641.545	12.54
641.579	0.54
641.614	12.54
641.648	3.54
641.682	12.54
641.716	14.54
641.75	21.54
641.784	8.54
641.818	6.54
641.852	20.54
641.886	4.54
641.919	4.54
641.953	-7.46
641.987	-13.46
642.021	13.54
642.055	5.54
642.089	10.54
642.123	-6.46
642.157	9.54
642.191	-0.46
642.225	5.54
642.259	-2.46
642.293	7.54
642.327	-2.46
642.361	0.54
642.395	5.54
642.429	11.54
642.463	12.54
642.497	13.54
642.531	14.54
642.565	-14.46
642.599	5.54
642.633	-0.46
642.666	12.54
642.7	22.54
642.734	31.54
642.768	5.54
642.802	-1.46
642.836	13.54
642.87	9.54
642.904	1.54
642.938	8.54
642.972	10.54
643.005	11.54
643.039	8.54
643.073	4.54
643.107	19.54
643.141	16.54
643.175	5.54
643.209	20.54
643.243	6.54
643.276	-1.46
643.31	2.54
643.344	-3.46
643.378	-7.46
643.412	18.54
643.446	-1.46
643.48	-3.46
643.513	10.54
643.547	4.54
643.581	-5.46
643.615	23.54
643.649	2.54
643.683	10.54
643.716	3.54
643.75	14.54
643.784	-1.46
643.818	9.54
643.852	-7.46
643.886	-10.46
643.919	-2.46
643.953	-5.46
643.987	4.54
644.021	16.54
644.055	3.54
644.088	7.54
644.122	0.54
644.156	3.54
644.19	3.54
644.224	9.54
644.257	7.54
644.291	20.54
644.325	0.54
644.359	7.54
644.392	36.54
644.426	18.54
644.46	12.54
644.494	17.54
644.527	-0.46
644.561	7.54
644.595	11.54
644.629	5.54
644.662	-1.46
644.696	19.54
644.73	10.54
644.764	16.54
644.797	12.54
644.831	12.54
644.865	13.54
644.899	3.54
644.932	29.54
644.966	13.54
645	22.54
645.033	36.54
645.067	-4.46
645.101	-3.46
645.135	-9.46
645.168	-18.46
645.202	-10.46
645.236	-7.46
645.269	16.54
645.303	-5.46
645.337	-25.46
645.37	-0.46
645.404	19.54
645.438	18.54
645.471	22.54
645.505	10.54
645.539	8.54
645.572	7.54
645.606	-15.46
645.64	5.54
645.673	6.54
645.707	7.54
645.741	1.54
645.774	9.54
645.808	19.54
645.842	-0.46
645.875	15.54
645.909	6.54
645.943	-7.46
645.976	3.54
646.01	10.54
646.043	8.54
646.077	12.54
646.111	10.54
646.144	25.54
646.178	21.54
646.212	-24.46
646.245	-6.46
646.279	-3.46
646.312	18.54
646.346	22.54
646.38	11.54
646.413	-0.46
646.447	6.54
646.48	24.54
646.514	13.54
646.547	11.54
646.581	7.54
646.615	11.54
646.648	-1.46
646.682	-2.46
646.715	-9.46
646.749	-4.46
646.782	16.54
646.816	-6.46
646.85	7.54
646.883	7.54
646.917	0.54
646.95	8.54
646.984	-3.46
647.017	-8.46
647.051	16.54
647.084	3.54
647.118	-2.46
647.151	13.54
647.185	22.54
647.218	-1.46
647.252	2.54
647.285	-9.46
647.319	4.54
647.353	7.54
647.386	5.54
647.42	3.54
647.453	-3.46
647.487	10.54
647.52	-5.46
647.553	8.54
647.587	7.54
647.62	3.54
647.654	10.54
647.687	17.54
647.721	7.54
647.754	-1.46
647.788	12.54
647.821	-8.46
647.855	-5.46
647.888	8.54
647.922	13.54
647.955	17.54
647.989	18.54
648.022	6.54
648.055	15.54
648.089	10.54
648.122	27.54
648.156	8.54
648.189	13.54
648.223	6.54
648.256	12.54
648.29	14.54
648.323	3.54
648.356	-9.46
648.39	7.54
648.423	6.54
648.457	-1.46
648.49	19.54
648.523	23.54
648.557	2.54
648.59	-0.46
648.624	22.54
648.657	14.54
648.69	21.54
648.724	2.54
648.757	24.54
648.791	7.54
648.824	6.54
648.857	19.54
648.891	13.54
648.924	4.54
648.957	21.54
648.991	-6.46
649.024	4.54
649.057	6.54
649.091	3.54
649.124	14.54
649.158	-2.46
649.191	32.54
649.224	10.54
649.258	10.54
649.291	11.54
649.324	14.54
649.358	-9.46
649.391	12.54
649.424	9.54
649.458	8.54
649.491	-1.46
649.524	-12.46
649.557	-9.46
649.591	-20.46
649.624	22.54
649.657	2.54
649.691	-1.46
649.724	2.54
649.757	3.54
649.791	0.54
649.824	27.54
649.857	10.54
649.89	18.54
649.924	-20.46
649.957	-3.46
649.99	-4.46
650.023	18.54
650.057	-16.46
650.09	13.54
650.123	8.54
650.157	22.54
650.19	11.54
650.223	8.54
650.256	-25.46
650.29	-10.46
650.323	14.54
650.356	14.54
650.389	7.54
650.423	-1.46
650.456	11.54
650.489	6.54
650.522	-2.46
650.555	10.54
650.589	17.54
650.622	0.54
650.655	4.54
650.688	-5.46
650.721	9.54
650.755	4.54
650.788	19.54
650.821	8.54
650.854	14.54
650.887	7.54
650.921	3.54
650.954	0.54
650.987	-3.46
651.02	5.54
651.053	-7.46
651.087	-19.46
651.12	7.54
651.153	11.54
651.186	6.54
651.219	-1.46
651.252	12.54
651.286	8.54
651.319	3.54
651.352	5.54
651.385	19.54
651.418	11.54
651.451	-1.46
651.484	13.54
651.518	-4.46
651.551	16.54
651.584	10.54
651.617	14.54
651.65	6.54
651.683	7.54
651.716	7.54
651.749	2.54
651.783	-9.46
651.816	14.54
651.849	3.54
651.882	-1.46
651.915	-2.46
651.948	9.54
651.981	1.54
652.014	-9.46
652.047	-3.46
652.08	10.54
652.114	7.54
652.147	10.54
652.18	5.54
652.213	29.54
652.246	-0.46
652.279	-6.46
652.312	9.54
652.345	-6.46
652.378	12.54
652.411	20.54
652.444	28.54
652.477	15.54
652.51	5.54
652.543	-14.46
652.576	6.54
652.609	-13.46
652.642	-2.46
652.675	3.54
652.709	14.54
652.742	18.54
652.775	6.54
652.808	14.54
652.841	24.54
652.874	9.54
652.907	14.54
652.94	-4.46
652.973	-18.46
653.006	-9.46
653.039	1.54
653.072	2.54
653.105	3.54
653.138	-2.46
653.171	-7.46
653.204	3.54
653.237	5.54
653.27	-2.46
653.303	-0.46
653.336	6.54
653.368	-7.46
653.401	9.54
653.434	5.54
653.467	7.54
653.5	-16.46
653.533	-11.46
653.566	12.54
653.599	8.54
653.632	14.54
653.665	13.54
653.698	-1.46
653.731	-22.46
653.764	-8.46
653.797	20.54
653.83	32.54
653.863	11.54
653.896	0.54
653.929	-1.46
653.961	11.54
653.994	4.54
654.027	-16.46
654.06	24.54
654.093	29.54
654.126	13.54
654.159	-3.46
654.192	5.54
654.225	-11.46
654.258	-5.46
654.29	2.54
654.323	-2.46
654.356	5.54
654.389	3.54
654.422	-0.46
654.455	5.54
654.488	5.54
654.521	-8.46
654.553	9.54
654.586	4.54
654.619	-4.46
654.652	0.54
654.685	15.54
654.718	6.54
654.751	-10.46
654.783	-7.46
654.816	13.54
654.849	2.54
654.882	4.54
654.915	-13.46
654.948	-1.46
654.98	0.54
655.013	0.54
655.046	-3.46
655.079	8.54
655.112	7.54
655.144	14.54
655.177	20.54
655.21	26.54
655.243	20.54
655.276	2.54
655.308	15.54
655.341	-3.46
655.374	6.54
655.407	16.54
655.44	-2.46
655.472	3.54
655.505	0.54
655.538	7.54
655.571	22.54
655.603	8.54
655.636	-4.46
655.669	10.54
655.702	10.54
655.734	8.54
655.767	21.54
655.8	30.54
655.833	27.54
655.865	18.54
655.898	28.54
655.931	33.54
655.964	44.54
655.996	46.54
656.029	58.54
656.062	62.54
656.095	75.54
656.127	63.54
656.16	77.54
656.193	117.54
656.225	187.54
656.258	285.54
656.291	530.54
656.324	1115.54
656.356	3381.54
656.389	7523.54
656.422	6032.54
656.454	2052.54
656.487	671.54
656.52	263.54
656.552	124.54
656.585	60.54
656.618	60.54
656.65	46.54
656.683	48.54
656.716	42.54
656.748	26.54
656.781	-1.46
656.814	-2.46
656.846	2.54
656.879	-0.46
656.912	5.54
656.944	-13.46
656.977	-6.46
657.01	11.54
657.042	8.54
657.075	10.54
657.108	-1.46
657.14	2.54
657.173	11.54
657.205	32.54
657.238	5.54
657.271	14.54
657.303	10.54
657.336	3.54
657.369	-2.46
657.401	-2.46
657.434	-4.46
657.466	4.54
657.499	3.54
657.532	3.54
657.564	12.54
657.597	7.54
657.629	8.54
657.662	-1.46
657.694	-4.46
657.727	-7.46
657.76	12.54
657.792	-7.46
657.825	0.54
657.857	-16.46
657.89	-3.46
657.922	0.54
657.955	-10.46
657.987	0.54
658.02	3.54
658.053	5.54
658.085	15.54
658.118	7.54
658.15	20.54
658.183	18.54
658.215	-3.46
658.248	-0.46
658.28	8.54
658.313	30.54
658.345	18.54
658.378	-2.46
658.41	-2.46
658.443	11.54
658.475	3.54
658.508	-5.46
658.54	0.54
658.573	-11.46
658.605	-4.46
658.638	11.54
658.67	17.54
658.703	5.54
658.735	-1.46
658.768	5.54
658.8	-8.46
658.833	12.54
658.865	20.54
658.898	5.54
658.93	-5.46
658.963	16.54
658.995	-18.46
659.028	7.54
659.06	-14.46
659.092	-2.46
659.125	-6.46
659.157	6.54
659.19	-4.46
659.222	3.54
659.255	-9.46
659.287	19.54
659.32	13.54
659.352	7.54
659.384	2.54
659.417	2.54
659.449	4.54
659.482	14.54
659.514	0.54
659.546	12.54
659.579	-0.46
659.611	-5.46
659.644	20.54
659.676	-2.46
659.708	-5.46
659.741	-3.46
659.773	11.54
659.806	3.54
659.838	-7.46
659.87	4.54
659.903	3.54
659.935	10.54
659.967	12.54
660	11.54
660.032	-3.46
660.065	6.54
660.097	-11.46
660.129	1.54
660.162	-13.46
660.194	5.54
660.226	10.54
660.259	-4.46
660.291	-8.46
660.323	-10.46
660.356	4.54
660.388	-7.46
660.42	-9.46
660.453	1.54
660.485	2.54
660.517	11.54
660.55	14.54
660.582	-13.46
660.614	2.54
660.647	0.54
660.679	-8.46
660.711	2.54
660.743	-12.46
660.776	-6.46
660.808	26.54
660.84	9.54
660.873	-0.46
660.905	2.54
660.937	1.54
660.969	14.54
661.002	1.54
661.034	17.54
661.066	8.54
661.099	19.54
661.131	19.54
661.163	21.54
661.195	5.54
661.228	4.54
661.26	8.54
661.292	10.54
661.324	21.54
661.357	11.54
661.389	2.54
661.421	14.54
661.453	-9.46
661.485	6.54
661.518	9.54
661.55	-9.46
661.582	-2.46
661.614	10.54
661.647	6.54
661.679	-0.46
661.711	8.54
661.743	11.54
661.775	15.54
661.808	14.54
661.84	-5.46
661.872	-1.46
661.904	-24.46
661.936	-5.46
661.969	10.54
662.001	12.54
662.033	24.54
662.065	6.54
662.097	21.54
662.129	7.54
662.162	-0.46
662.194	4.54
662.226	9.54
662.258	3.54
662.29	6.54
662.322	-5.46
662.355	-7.46
662.387	27.54
662.419	27.54
662.451	9.54
662.483	20.54
662.515	8.54
662.547	2.54
662.58	4.54
662.612	-4.46
662.644	-10.46
662.676	-1.46
662.708	13.54
662.74	15.54
662.772	8.54
662.804	24.54
662.836	25.54
662.869	2.54
662.901	12.54
662.933	8.54
662.965	22.54
662.997	19.54
663.029	-8.46
663.061	-0.46
663.093	3.54
663.125	8.54
663.157	-0.46
663.189	-2.46
663.221	21.54
663.254	8.54
663.286	7.54
663.318	13.54
663.35	0.54
663.382	-1.46
663.414	18.54
663.446	7.54
663.478	1.54
663.51	17.54
663.542	-1.46
663.574	6.54
663.606	17.54
663.638	-9.46
663.67	4.54
663.702	-6.46
663.734	5.54
663.766	6.54
663.798	-3.46
663.83	-3.46
663.862	8.54
663.894	4.54
663.926	-7.46
663.958	17.54
663.99	18.54
664.022	5.54
664.054	12.54
664.086	-2.46
664.118	-7.46
664.15	-17.46
664.182	8.54
664.214	14.54
664.246	10.54
664.278	-3.46
664.31	19.54
664.342	10.54
664.374	5.54
664.406	19.54
664.438	7.54
664.47	12.54
664.502	-12.46
664.534	27.54
664.566	10.54
664.598	8.54
664.63	4.54
664.662	11.54
664.693	3.54
664.725	6.54
664.757	-8.46
664.789	-11.46
664.821	7.54
664.853	24.54
664.885	15.54
664.917	-9.46
664.949	4.54
664.981	14.54
665.013	8.54
665.045	-7.46
665.076	5.54
665.108	30.54
665.14	0.54
665.172	8.54
665.204	-3.46
665.236	9.54
665.268	36.54
665.3	6.54
665.331	-13.46
665.363	-0.46
665.395	-2.46
665.427	-1.46
665.459	16.54
665.491	-1.46
665.523	-1.46
665.555	6.54
665.586	-0.46
665.618	11.54
665.65	-0.46
665.682	8.54
665.714	2.54
665.746	-13.46
665.777	-5.46
665.809	-10.46
665.841	-0.46
665.873	11.54
665.905	4.54
665.937	12.54
665.968	-6.46
666	10.54
666.032	-5.46
666.064	8.54
666.096	9.54
666.127	13.54
666.159	20.54
666.191	16.54
666.223	3.54
666.255	-5.46
666.286	12.54
666.318	8.54
666.35	21.54
666.382	8.54
666.413	0.54
666.445	-2.46
666.477	-2.46
666.509	-2.46
666.54	-12.46
666.572	3.54
666.604	-12.46
666.636	7.54
666.667	34.54
666.699	15.54
666.731	8.54
666.763	-17.46
666.794	5.54
666.826	2.54
666.858	-9.46
666.89	8.54
666.921	5.54
666.953	-8.46
666.985	-0.46
667.017	24.54
667.048	14.54
667.08	2.54
667.112	-8.46
667.143	-18.46
667.175	20.54
667.207	9.54
667.238	12.54
667.27	5.54
667.302	20.54
667.334	4.54
667.365	19.54
667.397	-1.46
667.429	-8.46
667.46	4.54
667.492	-0.46
667.524	2.54
667.555	-6.46
667.587	7.54
667.619	4.54
667.65	-3.46
667.682	-6.46
667.714	5.54
667.745	-2.46
667.777	8.54
667.808	20.54
667.84	16.54
667.872	7.54
667.903	33.54
667.935	3.54
667.967	-14.46
667.998	6.54
668.03	6.54
668.061	5.54
668.093	11.54
668.125	1.54
668.156	12.54
668.188	6.54
668.22	-7.46
668.251	7.54
668.283	13.54
668.314	9.54
668.346	-8.46
668.377	11.54
668.409	-1.46
668.441	-0.46
668.472	7.54
668.504	11.54
668.535	25.54
668.567	12.54
668.599	13.54
668.63	6.54
668.662	-2.46
668.693	17.54
668.725	6.54
668.756	6.54
668.788	-5.46
668.819	0.54
668.851	2.54
668.882	-4.46
668.914	3.54
668.946	14.54
668.977	6.54
669.009	4.54
669.04	-3.46
669.072	7.54
669.103	-0.46
669.135	4.54
669.166	-2.46
669.198	12.54
669.229	5.54
669.261	5.54
669.292	-2.46
669.324	-4.46
669.355	19.54
669.387	-3.46
669.418	8.54
669.45	8.54
669.481	6.54
669.513	19.54
669.544	12.54
669.576	10.54
669.607	0.54
669.639	-2.46
669.67	-11.46
669.701	12.54
669.733	-10.46
669.764	-6.46
669.796	3.54
669.827	-17.46
669.859	-5.46
669.89	10.54
669.922	19.54
669.953	16.54
669.985	1.54
670.016	7.54
670.047	8.54
670.079	-6.46
670.11	9.54
670.142	-3.46
670.173	-0.46
670.204	-13.46
670.236	-0.46
670.267	8.54
670.299	-0.46
670.33	8.54
670.362	10.54
670.393	-13.46
670.424	-3.46
670.456	-9.46
670.487	7.54
670.518	-9.46
670.55	-2.46
670.581	2.54
670.613	5.54
670.644	10.54
670.675	-7.46
670.707	-5.46
670.738	-4.46
670.769	-11.46
670.801	-13.46
670.832	12.54
670.864	3.54
670.895	-4.46
670.926	-3.46
670.958	-1.46
670.989	-0.46
671.02	9.54
671.052	15.54
671.083	14.54
671.114	4.54
671.146	4.54
671.177	-7.46
671.208	-9.46
671.24	-5.46
671.271	7.54
671.302	1.54
671.333	-6.46
671.365	-7.46
671.396	-13.46
671.427	13.54
671.459	20.54
671.49	16.54
671.521	6.54
671.553	10.54
671.584	10.54
671.615	8.54
671.646	9.54
671.678	-13.46
671.709	-29.46
671.74	-23.46
671.771	1.54
671.803	14.54
671.834	18.54
671.865	6.54
671.896	6.54
671.928	-2.46
671.959	-3.46
671.99	22.54
672.021	-1.46
672.053	2.54
672.084	5.54
672.115	14.54
672.146	4.54
672.178	-11.46
672.209	-3.46
672.24	-0.46
672.271	15.54
672.303	7.54
672.334	13.54
672.365	-2.46
672.396	2.54
672.427	8.54
672.459	-4.46
672.49	22.54
672.521	-0.46
672.552	5.54
672.583	18.54
672.615	-3.46
672.646	13.54
672.677	1.54
672.708	19.54
672.739	18.54
672.77	3.54
672.802	4.54
672.833	-6.46
672.864	14.54
672.895	14.54
672.926	0.54
672.957	-10.46
672.989	-17.46
673.02	0.54
673.051	-2.46
673.082	10.54
673.113	-2.46
673.144	10.54
673.175	14.54
673.206	12.54
673.238	11.54
673.269	1.54
673.3	2.54
673.331	13.54
673.362	18.54
673.393	-6.46
673.424	13.54
673.455	9.54
673.487	6.54
673.518	21.54
673.549	13.54
673.58	-6.46
673.611	5.54
673.642	-10.46
673.673	-19.46
673.704	-3.46
673.735	-5.46
673.766	1.54
673.797	2.54
673.828	5.54
673.86	0.54
673.891	-12.46
673.922	-14.46
673.953	-12.46
673.984	-4.46
674.015	16.54
674.046	-8.46
674.077	3.54
674.108	9.54
674.139	-2.46
674.17	1.54
674.201	-3.46
674.232	-1.46
674.263	-0.46
674.294	5.54
674.325	-21.46
674.356	1.54
674.387	10.54
674.418	-4.46
674.449	-6.46
674.48	-12.46
674.511	-3.46
674.542	-3.46
674.573	6.54
674.604	12.54
674.635	2.54
674.666	2.54
674.697	-13.46
674.728	-2.46
674.759	11.54
674.79	-0.46
674.821	2.54
674.852	-1.46
674.883	-14.46
674.914	-9.46
674.945	5.54
674.976	-5.46
675.007	-17.46
675.038	-5.46
675.069	-4.46
675.1	-6.46
675.131	2.54
675.162	-4.46
675.193	-0.46
675.224	-9.46
675.254	10.54
675.285	3.54
675.316	18.54
675.347	1.54
675.378	-8.46
675.409	-2.46
675.44	-0.46
675.471	3.54
675.502	-8.46
675.533	3.54
675.564	0.54
675.595	-3.46
675.625	9.54
675.656	11.54
675.687	-1.46
675.718	-9.46
675.749	5.54
675.78	-4.46
675.811	-7.46
675.842	1.54
675.873	0.54
675.903	0.54
675.934	-9.46
675.965	-9.46
675.996	-13.46
676.027	4.54
676.058	5.54
676.089	-12.46
676.119	2.54
676.15	3.54
676.181	-0.46
676.212	2.54
676.243	13.54
676.274	-6.46
676.304	22.54
676.335	-13.46
676.366	-9.46
676.397	4.54
676.428	-10.46
676.459	15.54
676.489	12.54
676.52	0.54
676.551	11.54
676.582	-9.46
676.613	-2.46
676.643	-16.46
676.674	3.54
676.705	0.54
676.736	5.54
676.767	4.54
676.797	6.54
676.828	0.54
676.859	-21.46
676.89	-5.46
676.92	1.54
676.951	18.54
676.982	15.54
677.013	0.54
677.044	21.54
677.074	1.54
677.105	-8.46
677.136	9.54
677.167	10.54
677.197	16.54
677.228	10.54
677.259	6.54
677.289	-1.46
677.32	-16.46
677.351	-4.46
677.382	-8.46
677.412	-19.46
677.443	10.54
677.474	-9.46
677.505	-11.46
677.535	-5.46
677.566	-1.46
677.597	-18.46
677.627	-18.46
677.658	-6.46
677.689	-4.46
677.72	0.54
677.75	-8.46
677.781	5.54
677.812	4.54
677.842	11.54
677.873	-1.46
677.904	-11.46
677.934	-15.46
677.965	-1.46
677.996	-5.46
678.026	-3.46
678.057	-1.46
678.088	-3.46
678.118	-2.46
678.149	-1.46
678.18	-6.46
678.21	10.54
678.241	1.54
678.272	9.54
678.302	10.54
678.333	8.54
678.363	14.54
678.394	11.54
678.425	4.54
678.455	7.54
678.486	6.54
678.517	2.54
678.547	5.54
678.578	-2.46
678.608	-9.46
678.639	2.54
678.67	7.54
678.7	-6.46
678.731	-4.46
678.761	-10.46
678.792	3.54
678.823	10.54
678.853	10.54
678.884	-4.46
678.914	27.54
678.945	-6.46
678.975	-6.46
679.006	-3.46
679.037	3.54
679.067	39.54
679.098	2.54
679.128	5.54
679.159	1.54
679.189	28.54
679.22	-2.46
679.25	5.54
679.281	2.54
679.312	2.54
679.342	-9.46
679.373	21.54
679.403	2.54
679.434	2.54
679.464	-8.46
679.495	6.54
679.525	5.54
679.556	-6.46
679.586	20.54
679.617	-2.46
679.647	-0.46
679.678	2.54
679.708	0.54
679.739	-8.46
679.769	14.54
679.8	17.54
679.83	2.54
679.861	8.54
679.891	-9.46
679.922	-6.46
679.952	14.54
679.983	7.54
680.013	0.54
680.044	2.54
680.074	13.54
680.105	5.54
680.135	2.54
680.165	8.54
680.196	28.54
680.226	9.54
680.257	11.54
680.287	-11.46
680.318	-15.46
680.348	-4.46
680.379	12.54
680.409	7.54
680.439	-4.46
680.47	0.54
680.5	-16.46
680.531	8.54
680.561	16.54
680.592	3.54
680.622	30.54
680.652	13.54
680.683	23.54
680.713	-6.46
680.744	-1.46
680.774	-6.46
680.804	15.54
680.835	-14.46
680.865	2.54
680.896	22.54
680.926	17.54
680.956	9.54
680.987	17.54
681.017	3.54
681.047	1.54
681.078	-24.46
681.108	1.54
681.139	6.54
681.169	6.54
681.199	6.54
681.23	3.54
681.26	-6.46
681.29	7.54
681.321	5.54
681.351	-5.46
681.381	-24.46
681.412	9.54
681.442	-4.46
681.472	13.54
681.503	-0.46
681.533	0.54
681.563	4.54
681.594	4.54
681.624	24.54
681.654	2.54
681.685	0.54
681.715	-3.46
681.745	3.54
681.775	-25.46
681.806	-18.46
681.836	5.54
681.866	4.54
681.897	12.54
681.927	-0.46
681.957	-14.46
681.987	6.54
682.018	-3.46
682.048	5.54
682.078	7.54
682.109	28.54
682.139	22.54
682.169	12.54
682.199	0.54
682.23	-11.46
682.26	0.54
682.29	-14.46
682.32	-2.46
682.351	5.54
682.381	-1.46
682.411	-6.46
682.441	-1.46
682.472	2.54
682.502	6.54
682.532	-1.46
682.562	18.54
682.592	13.54
682.623	10.54
682.653	8.54
682.683	2.54
682.713	13.54
682.743	-5.46
682.774	-3.46
682.804	-4.46
682.834	4.54
682.864	-5.46
682.894	-17.46
682.925	6.54
682.955	-13.46
682.985	-14.46
683.015	-12.46
683.045	18.54
683.076	5.54
683.106	19.54
683.136	-2.46
683.166	3.54
683.196	-6.46
683.226	7.54
683.257	3.54
683.287	-0.46
683.317	0.54
683.347	-1.46
683.377	-7.46
683.407	8.54
683.437	9.54
683.468	4.54
683.498	11.54
683.528	-2.46
683.558	2.54
683.588	-0.46
683.618	-8.46
683.648	-5.46
683.678	3.54
683.708	16.54
683.739	6.54
683.769	3.54
683.799	0.54
683.829	4.54
683.859	5.54
683.889	13.54
683.919	16.54
683.949	8.54
683.979	-13.46
684.009	-10.46
684.039	-4.46
684.07	-2.46
684.1	1.54
684.13	-5.46
684.16	4.54
684.19	-1.46
684.22	-8.46
684.25	7.54
684.28	16.54
684.31	21.54
684.34	14.54
684.37	4.54
684.4	-6.46
684.43	-0.46
684.46	-2.46
684.49	10.54
684.52	21.54
684.55	18.54
684.58	8.54
684.61	4.54
684.64	3.54
684.67	14.54
684.7	-11.46
684.73	7.54
684.76	-5.46
684.79	5.54
684.82	-6.46
684.85	2.54
684.88	1.54
684.91	3.54
684.94	-0.46
684.97	-3.46
685	-20.46
685.03	-6.46
685.06	-2.46
685.09	-21.46
685.12	21.54
685.15	-2.46
685.18	11.54
685.21	12.54
685.24	14.54
685.27	18.54
685.3	-5.46
685.33	12.54
685.36	5.54
685.39	-7.46
685.42	-2.46
685.45	-6.46
685.48	0.54
685.51	-0.46
685.54	14.54
685.569	14.54
685.599	5.54
685.629	14.54
685.659	-0.46
685.689	-9.46
685.719	-4.46
685.749	-5.46
685.779	11.54
685.809	3.54
685.839	-1.46
685.869	6.54
685.898	7.54
685.928	-4.46
685.958	2.54
685.988	26.54
686.018	-0.46
686.048	2.54
686.078	20.54
686.108	7.54
686.137	-2.46
686.167	3.54
686.197	0.54
686.227	7.54
686.257	23.54
686.287	14.54
686.317	8.54
686.346	-10.46
686.376	3.54
686.406	-1.46
686.436	9.54
686.466	-0.46
686.496	5.54
686.525	15.54
686.555	-1.46
686.585	19.54
686.615	31.54
686.645	8.54
686.675	-11.46
686.704	-10.46
686.734	0.54
686.764	6.54
686.794	6.54
686.824	-1.46
686.853	5.54
686.883	16.54
686.913	26.54
686.943	10.54
686.973	-10.46
687.002	-0.46
687.032	0.54
687.062	2.54
687.092	11.54
687.121	-3.46
687.151	-0.46
687.181	12.54
687.211	16.54
687.24	9.54
687.27	-8.46
687.3	1.54
687.33	7.54
687.359	-6.46
687.389	14.54
687.419	11.54
687.449	8.54
687.478	4.54
687.508	2.54
687.538	20.54
687.568	-2.46
687.597	-6.46
687.627	-1.46
687.657	0.54
687.686	4.54
687.716	34.54
687.746	0.54
687.776	1.54
687.805	20.54
687.835	-3.46
687.865	11.54
687.894	6.54
687.924	-6.46
687.954	10.54
687.983	6.54
688.013	5.54
688.043	12.54
688.072	3.54
688.102	16.54
688.132	15.54
688.161	9.54
688.191	-1.46
688.221	31.54
688.25	-16.46
688.28	1.54
688.31	4.54
688.339	10.54
688.369	1.54
688.399	-3.46
688.428	-2.46
688.458	12.54
688.488	4.54
688.517	9.54
688.547	3.54
688.576	20.54
688.606	-1.46
688.636	-2.46
688.665	2.54
688.695	-1.46
688.725	26.54
688.754	18.54
688.784	0.54
688.813	17.54
688.843	10.54
688.873	-2.46
688.902	5.54
688.932	0.54
688.961	3.54
688.991	7.54
689.02	6.54
689.05	-6.46
689.08	10.54
689.109	12.54
689.139	-2.46
689.168	-3.46
689.198	12.54
689.227	-4.46
689.257	-1.46
689.287	9.54
689.316	4.54
689.346	-10.46
689.375	-18.46
689.405	10.54
689.434	-12.46
689.464	-1.46
689.493	-4.46
689.523	-4.46
689.552	4.54
689.582	12.54
689.611	-6.46
689.641	12.54
689.67	18.54
689.7	5.54
689.73	10.54
689.759	13.54
689.789	15.54
689.818	1.54
689.848	0.54
689.877	26.54
689.906	0.54
689.936	9.54
689.965	4.54
689.995	-0.46
690.024	22.54
690.054	7.54
690.083	7.54
690.113	24.54
690.142	3.54
690.172	2.54
690.201	-1.46
690.231	-0.46
690.26	15.54
690.29	9.54
690.319	8.54
690.348	4.54
690.378	4.54
690.407	16.54
690.437	1.54
690.466	-14.46
690.496	-9.46
690.525	3.54
690.555	-10.46
690.584	10.54
690.613	2.54
690.643	11.54
690.672	25.54
690.702	14.54
690.731	-9.46
690.76	-7.46
690.79	7.54
690.819	4.54
690.849	5.54
690.878	-1.46
690.907	13.54
690.937	15.54
690.966	18.54
690.996	13.54
691.025	6.54
691.054	-6.46
691.084	-13.46
691.113	-1.46
691.142	14.54
691.172	6.54
691.201	6.54
691.23	5.54
691.26	11.54
691.289	7.54
691.319	-2.46
691.348	2.54
691.377	11.54
691.407	12.54
691.436	25.54
691.465	18.54
691.495	3.54
691.524	1.54
691.553	3.54
691.583	14.54
691.612	16.54
691.641	7.54
691.67	2.54
691.7	-0.46
691.729	-11.46
691.758	-1.46
691.788	7.54
691.817	7.54
691.846	-2.46
691.876	2.54
691.905	4.54
691.934	-5.46
691.963	10.54
691.993	5.54
692.022	-8.46
692.051	-13.46
692.081	21.54
692.11	18.54
692.139	8.54
692.168	21.54
692.198	27.54
692.227	-5.46
692.256	15.54
692.285	3.54
692.315	13.54
692.344	10.54
692.373	1.54
692.402	-6.46
692.432	-16.46
692.461	-1.46
692.49	8.54
692.519	4.54
692.548	5.54
692.578	20.54
692.607	-16.46
692.636	-5.46
692.665	11.54
692.694	5.54
692.724	-6.46
692.753	-0.46
692.782	26.54
692.811	-2.46
692.84	9.54
692.87	5.54
692.899	-17.46
692.928	6.54
692.957	19.54
692.986	-0.46
693.016	12.54
693.045	17.54
693.074	10.54
693.103	-10.46
693.132	-0.46
693.161	7.54
693.191	3.54
693.22	1.54
693.249	9.54
693.278	5.54
693.307	6.54
693.336	-9.46
693.365	-3.46
693.395	-10.46
693.424	1.54
693.453	21.54
693.482	-0.46
693.511	18.54
693.54	18.54
693.569	8.54
693.598	5.54
693.628	24.54
693.657	14.54
693.686	50.54
693.715	22.54
693.744	8.54
693.773	13.54
693.802	7.54
693.831	2.54
693.86	20.54
693.889	8.54
693.919	8.54
693.948	3.54
693.977	4.54
694.006	-2.46
694.035	-1.46
694.064	14.54
694.093	18.54
694.122	-1.46
694.151	-3.46
694.18	19.54
694.209	21.54
694.238	2.54
694.267	18.54
694.296	23.54
694.325	4.54
694.354	22.54
694.383	12.54
694.412	-6.46
694.441	-1.46
694.471	-4.46
694.5	-12.46
694.529	0.54
694.558	18.54
694.587	12.54
694.616	13.54
694.645	-3.46
694.674	2.54
694.703	4.54
694.732	10.54
694.761	31.54
694.79	24.54
694.819	5.54
694.848	-16.46
694.877	46.54
694.906	24.54
694.935	9.54
694.963	16.54
694.992	6.54
695.021	21.54
695.05	32.54
695.079	9.54
695.108	-2.46
695.137	34.54
695.166	13.54
695.195	2.54
695.224	-3.46
695.253	11.54
695.282	-2.46
695.311	16.54
695.34	6.54
695.369	3.54
695.398	10.54
695.427	21.54
695.456	15.54
695.485	-2.46
695.513	14.54
695.542	14.54
695.571	-1.46
695.6	10.54
695.629	4.54
695.658	11.54
695.687	-2.46
695.716	7.54
695.745	11.54
695.774	-4.46
695.802	-10.46
695.831	9.54
695.86	10.54
695.889	9.54
695.918	14.54
695.947	-1.46
695.976	-2.46
696.005	14.54
696.033	4.54
696.062	27.54
696.091	15.54
696.12	24.54
696.149	15.54
696.178	16.54
696.207	2.54
696.235	-3.46
696.264	11.54
696.293	2.54
696.322	16.54
696.351	6.54
696.38	10.54
696.408	3.54
696.437	-0.46
696.466	22.54
696.495	21.54
696.524	12.54
696.553	-5.46
696.581	8.54
696.61	-6.46
696.639	-6.46
696.668	4.54
696.697	-8.46
696.725	15.54
696.754	2.54
696.783	16.54
696.812	4.54
696.84	8.54
696.869	14.54
696.898	3.54
696.927	5.54
696.956	15.54
696.984	-14.46
697.013	10.54
697.042	13.54
697.071	10.54
697.099	17.54
697.128	6.54
697.157	-0.46
697.186	17.54
697.214	-0.46
697.243	5.54
697.272	-3.46
697.301	15.54
697.329	15.54
697.358	4.54
697.387	10.54
697.415	5.54
697.444	17.54
697.473	6.54
697.502	-12.46
697.53	11.54
697.559	21.54
697.588	-6.46
697.616	1.54
697.645	-4.46
697.674	21.54
697.703	11.54
697.731	20.54
697.76	2.54
697.789	11.54
697.817	-0.46
697.846	25.54
697.875	-8.46
697.903	10.54
697.932	7.54
697.961	7.54
697.989	17.54
698.018	15.54
698.047	10.54
698.075	15.54
698.104	1.54
698.133	-16.46
698.161	7.54
698.19	9.54
698.218	4.54
698.247	5.54
698.276	-1.46
698.304	6.54
698.333	9.54
698.362	2.54
698.39	2.54
698.419	26.54
698.447	-6.46
698.476	4.54
698.505	13.54
698.533	11.54
698.562	7.54
698.591	16.54
698.619	-24.46
698.648	6.54
698.676	15.54
698.705	6.54
698.733	9.54
698.762	9.54
698.791	-4.46
698.819	1.54
698.848	4.54
698.876	19.54
698.905	7.54
698.933	-2.46
698.962	1.54
698.991	8.54
699.019	20.54
699.048	21.54
699.076	8.54
699.105	-6.46
699.133	-0.46
699.162	17.54
699.19	10.54
699.219	17.54
699.248	-1.46
699.276	-3.46
699.305	-4.46
699.333	13.54
699.362	-3.46
699.39	6.54
699.419	7.54
699.447	5.54
699.476	3.54
699.504	-14.46
699.533	7.54
699.561	-0.46
699.59	-0.46
699.618	9.54
699.647	14.54
699.675	5.54
699.704	8.54
699.732	3.54
699.761	4.54
699.789	2.54
699.818	14.54
699.846	-8.46
699.874	-8.46
699.903	-2.46
699.931	3.54
699.96	13.54
699.988	2.54
700.017	8.54
700.045	22.54
700.074	-8.46
700.102	-7.46
700.13	-6.46
700.159	19.54
700.187	26.54
700.216	19.54
700.244	6.54
700.273	-7.46
700.301	18.54
700.329	6.54
700.358	6.54
700.386	5.54
700.415	5.54
700.443	1.54
700.472	-2.46
700.5	10.54
700.528	32.54
700.557	1.54
700.585	1.54
700.614	9.54
700.642	16.54
700.67	21.54
700.699	2.54
700.727	7.54
700.755	10.54
700.784	6.54
700.812	2.54
700.841	18.54
700.869	-10.46
700.897	-6.46
700.926	-5.46
700.954	18.54
700.982	18.54
701.011	10.54
701.039	4.54
701.067	8.54
701.096	9.54
701.124	-17.46
701.152	9.54
701.181	0.54
701.209	-1.46
701.237	-8.46
701.266	1.54
701.294	-6.46
701.322	5.54
701.351	15.54
701.379	-0.46
701.407	13.54
701.435	21.54
701.464	16.54
701.492	29.54
701.52	-16.46
701.549	-0.46
701.577	0.54
701.605	-7.46
701.634	-4.46
701.662	3.54
701.69	-15.46
701.718	-0.46
701.747	10.54
701.775	7.54
701.803	-5.46
701.831	22.54
701.86	6.54
701.888	13.54
701.916	7.54
701.944	9.54
701.973	9.54
702.001	-4.46
702.029	0.54
702.057	-12.46
702.086	-4.46
702.114	5.54
702.142	6.54
702.17	1.54
702.199	-8.46
702.227	-5.46
702.255	1.54
702.283	-7.46
702.311	12.54
702.34	-1.46
702.368	-4.46
702.396	-2.46
702.424	-4.46
702.452	-19.46
702.481	-1.46
702.509	-13.46
702.537	1.54
702.565	9.54
702.593	-6.46
702.621	-7.46
702.65	8.54
702.678	7.54
702.706	13.54
702.734	16.54
702.762	-0.46
702.79	9.54
702.819	17.54
702.847	11.54
702.875	26.54
702.903	10.54
702.931	-9.46
702.959	3.54
702.988	15.54
703.016	-18.46
703.044	15.54
703.072	5.54
703.1	4.54
703.128	16.54
703.156	4.54
703.184	9.54
703.212	14.54
703.241	3.54
703.269	-8.46
703.297	-5.46
703.325	3.54
703.353	-10.46
703.381	-9.46
703.409	2.54
703.437	-10.46
703.465	-9.46
703.493	-1.46
703.522	-1.46
703.55	10.54
703.578	6.54
703.606	3.54
703.634	-2.46
703.662	5.54
703.69	0.54
703.718	8.54
703.746	13.54
703.774	4.54
703.802	3.54
703.83	-13.46
703.858	-4.46
703.886	7.54
703.914	8.54
703.942	12.54
703.97	-11.46
703.998	-2.46
704.027	14.54
704.055	14.54
704.083	1.54
704.111	-0.46
704.139	-1.46
704.167	4.54
704.195	2.54
704.223	1.54
704.251	-3.46
704.279	9.54
704.307	0.54
704.335	-6.46
704.363	3.54
704.391	2.54
704.419	1.54
704.447	-4.46
704.475	4.54
704.503	-2.46
704.531	21.54
704.558	12.54
704.586	1.54
704.614	-6.46
704.642	9.54
704.67	-0.46
704.698	-5.46
704.726	9.54
704.754	-5.46
704.782	0.54
704.81	4.54
704.838	34.54
704.866	22.54
704.894	2.54
704.922	-4.46
704.95	2.54
704.978	18.54
705.006	12.54
705.034	14.54
705.061	2.54
705.089	-11.46
705.117	-1.46
705.145	1.54
705.173	-8.46
705.201	4.54
705.229	19.54
705.257	6.54
705.285	6.54
705.313	5.54
705.34	-7.46
705.368	-4.46
705.396	-1.46
705.424	10.54
705.452	2.54
705.48	-2.46
705.508	6.54
705.536	1.54
705.563	9.54
705.591	7.54
705.619	9.54
705.647	6.54
705.675	11.54
705.703	12.54
705.731	-11.46
705.758	-6.46
705.786	-0.46
705.814	19.54
705.842	13.54
705.87	26.54
705.898	18.54
705.925	-3.46
705.953	4.54
705.981	-4.46
706.009	1.54
706.037	-1.46
706.065	-9.46
706.092	-3.46
706.12	12.54
706.148	-1.46
706.176	-3.46
706.204	7.54
706.231	-6.46
706.259	-0.46
706.287	-0.46
706.315	0.54
706.342	-1.46
706.37	7.54
706.398	18.54
706.426	20.54
706.454	18.54
706.481	20.54
706.509	1.54
706.537	2.54
706.565	-11.46
706.592	11.54
706.62	8.54
706.648	3.54
706.676	-16.46
706.703	13.54
706.731	5.54
706.759	10.54
706.787	7.54
706.814	3.54
706.842	-3.46
706.87	-1.46
706.897	13.54
706.925	-8.46
706.953	1.54
706.981	8.54
707.008	-4.46
707.036	-0.46
707.064	3.54
707.091	-13.46
707.119	24.54
707.147	-4.46
707.174	-9.46
707.202	10.54
707.23	-0.46
707.258	3.54
707.285	-13.46
707.313	-11.46
707.341	-5.46
707.368	-10.46
707.396	-5.46
707.424	14.54
707.451	5.54
707.479	4.54
707.507	1.54
707.534	4.54
707.562	9.54
707.59	-3.46
707.617	-23.46
707.645	5.54
707.672	5.54
707.7	23.54
707.728	4.54
707.755	5.54
707.783	2.54
707.811	11.54
707.838	15.54
707.866	9.54
707.893	4.54
707.921	13.54
707.949	-3.46
707.976	4.54
708.004	5.54
708.031	-2.46
708.059	6.54
708.087	11.54
708.114	-0.46
708.142	-7.46
708.169	-16.46
708.197	-13.46
708.225	-6.46
708.252	-5.46
708.28	14.54
708.307	-8.46
708.335	-5.46
708.362	-1.46
708.39	-10.46
708.418	-2.46
708.445	3.54
708.473	5.54
708.5	11.54
708.528	3.54
708.555	-0.46
708.583	7.54
708.61	-4.46
708.638	4.54
708.665	-10.46
708.693	-1.46
708.72	-4.46
708.748	-4.46
708.776	-4.46
708.803	8.54
708.831	3.54
708.858	12.54
708.886	9.54
708.913	-3.46
708.941	6.54
708.968	13.54
708.996	-1.46
709.023	37.54
709.051	9.54
709.078	-5.46
709.105	-9.46
709.133	-8.46
709.16	-10.46
709.188	0.54
709.215	0.54
709.243	-13.46
709.27	-16.46
709.298	-5.46
709.325	2.54
709.353	0.54
709.38	5.54
709.408	8.54
709.435	-2.46
709.462	-10.46
709.49	4.54
709.517	2.54
709.545	7.54
709.572	10.54
709.6	-4.46
709.627	9.54
709.655	0.54
709.682	-7.46
709.709	5.54
709.737	10.54
709.764	4.54
709.792	4.54
709.819	4.54
709.846	7.54
709.874	18.54
709.901	15.54
709.929	26.54
709.956	16.54
709.983	8.54
710.011	-0.46
710.038	-2.46
710.066	8.54
710.093	23.54
710.12	3.54
710.148	-1.46
710.175	-7.46
710.202	-9.46
710.23	2.54
710.257	6.54
710.284	8.54
710.312	23.54
710.339	2.54
710.366	-6.46
710.394	-5.46
710.421	-5.46
710.448	-1.46
710.476	-10.46
710.503	11.54
710.53	29.54
710.558	22.54
710.585	4.54
710.612	-19.46
710.64	-16.46
710.667	15.54
710.694	-11.46
710.722	-3.46
710.749	14.54
710.776	-0.46
710.804	15.54
710.831	4.54
710.858	2.54
710.885	2.54
710.913	-13.46
710.94	20.54
710.967	-1.46
710.995	-12.46
711.022	-11.46
711.049	3.54
711.076	-10.46
711.104	-3.46
711.131	2.54
711.158	3.54
711.185	13.54
711.213	-12.46
711.24	-6.46
711.267	-11.46
711.294	-0.46
711.322	20.54
711.349	12.54
711.376	-9.46
711.403	11.54
711.431	-13.46
711.458	-5.46
711.485	-7.46
711.512	-1.46
711.54	-4.46
711.567	1.54
711.594	2.54
711.621	-9.46
711.648	18.54
711.676	11.54
711.703	2.54
711.73	-16.46
711.757	-2.46
711.784	1.54
711.812	-0.46
711.839	5.54
711.866	-10.46
711.893	-11.46
711.92	14.54
711.947	-0.46
711.975	8.54
712.002	1.54
712.029	19.54
712.056	1.54
712.083	15.54
712.11	3.54
712.138	3.54
712.165	-1.46
712.192	13.54
712.219	-4.46
712.246	-16.46
712.273	-6.46
712.3	-3.46
712.328	4.54
712.355	-4.46
712.382	1.54
712.409	15.54
712.436	-14.46
712.463	-0.46
712.49	7.54
712.517	2.54
712.544	9.54
712.572	4.54
712.599	1.54
712.626	13.54
712.653	-10.46
712.68	-18.46
712.707	5.54
712.734	18.54
712.761	11.54
712.788	5.54
712.815	-1.46
712.842	7.54
712.87	2.54
712.897	-0.46
712.924	-18.46
712.951	5.54
712.978	6.54
713.005	10.54
713.032	10.54
713.059	-6.46
713.086	-2.46
713.113	-5.46
713.14	-2.46
713.167	6.54
713.194	-4.46
713.221	-4.46
713.248	7.54
713.275	-9.46
713.302	2.54
713.329	23.54
713.356	34.54
713.383	7.54
713.41	6.54
713.437	-8.46
713.464	10.54
713.491	22.54
713.518	5.54
713.545	-5.46
713.572	-1.46
713.599	13.54
713.626	-1.46
713.653	10.54
713.68	-19.46
713.707	-3.46
713.734	10.54
713.761	-1.46
713.788	-9.46
713.815	8.54
713.842	-6.46
713.869	7.54
713.896	4.54
713.923	-19.46
713.95	8.54
713.977	-1.46
714.004	5.54
714.031	-2.46
714.058	-13.46
714.085	2.54
714.112	3.54
714.139	-0.46
714.165	6.54
714.192	4.54
714.219	24.54
714.246	13.54
714.273	0.54
714.3	-12.46
714.327	-0.46
714.354	5.54
714.381	-5.46
714.408	-5.46
714.435	-2.46
714.461	4.54
714.488	8.54
714.515	9.54
714.542	-4.46
714.569	-12.46
714.596	-10.46
714.623	2.54
714.65	-9.46
714.677	12.54
714.703	10.54
714.73	13.54
714.757	15.54
714.784	6.54
714.811	-11.46
714.838	3.54
714.865	-0.46
714.891	11.54
714.918	-0.46
714.945	-2.46
714.972	-3.46
714.999	13.54
715.026	-3.46
715.052	19.54
715.079	7.54
715.106	-0.46
715.133	-3.46
715.16	-4.46
715.187	1.54
715.213	21.54
715.24	2.54
715.267	14.54
715.294	-4.46
715.321	-1.46
715.347	-13.46
715.374	-3.46
715.401	-3.46
715.428	-1.46
715.455	-8.46
715.481	-11.46
715.508	4.54
715.535	-6.46
715.562	5.54
715.588	10.54
715.615	17.54
715.642	-5.46
715.669	7.54
715.695	2.54
715.722	-6.46
715.749	13.54
715.776	10.54
715.802	-0.46
715.829	-4.46
715.856	-25.46
715.883	-0.46
715.909	-21.46
715.936	-7.46
715.963	-5.46
715.99	-0.46
716.016	-0.46
716.043	8.54
716.07	-0.46
716.096	-5.46
716.123	3.54
716.15	1.54
716.177	0.54
716.203	13.54
716.23	10.54
716.257	-4.46
716.283	2.54
716.31	8.54
716.337	4.54
716.363	-3.46
716.39	-6.46
716.417	6.54
716.443	-6.46
716.47	12.54
716.497	15.54
716.523	8.54
716.55	11.54
716.577	6.54
716.603	4.54
716.63	2.54
716.657	23.54
716.683	-4.46
716.71	-10.46
716.737	-0.46
716.763	-5.46
716.79	7.54
716.817	11.54
716.843	2.54
716.87	7.54
716.897	18.54
716.923	13.54
716.95	5.54
716.976	-4.46
717.003	-14.46
717.03	13.54
717.056	0.54
717.083	11.54
717.109	2.54
717.136	5.54
717.163	3.54
717.189	7.54
717.216	-1.46
717.242	-17.46
717.269	3.54
717.296	15.54
717.322	4.54
717.349	4.54
717.375	7.54
717.402	-5.46
717.428	-1.46
717.455	13.54
717.481	7.54
717.508	5.54
717.535	10.54
717.561	-1.46
717.588	-0.46
717.614	-3.46
717.641	-11.46
717.667	4.54
717.694	-8.46
717.72	-4.46
717.747	-1.46
717.773	-0.46
717.8	9.54
717.826	12.54
717.853	-1.46
717.88	-4.46
717.906	2.54
717.933	4.54
717.959	-0.46
717.986	9.54
718.012	-9.46
718.039	9.54
718.065	19.54
718.092	10.54
718.118	-7.46
718.144	2.54
718.171	17.54
718.197	29.54
718.224	-13.46
718.25	1.54
718.277	15.54
718.303	7.54
718.33	11.54
718.356	-11.46
718.383	-10.46
718.409	-7.46
718.436	-0.46
718.462	1.54
718.489	-5.46
718.515	25.54
718.541	20.54
718.568	10.54
718.594	16.54
718.621	6.54
718.647	10.54
718.674	13.54
718.7	4.54
718.726	-3.46
718.753	5.54
718.779	16.54
718.806	1.54
718.832	-5.46
718.858	-5.46
718.885	-11.46
718.911	-3.46
718.938	13.54
718.964	1.54
718.99	6.54
719.017	17.54
719.043	-9.46
719.07	25.54
719.096	-10.46
719.122	13.54
719.149	3.54
719.175	9.54
719.201	5.54
719.228	-1.46
719.254	-9.46
719.281	-16.46
719.307	-2.46
719.333	-2.46
719.36	16.54
719.386	9.54
719.412	4.54
719.439	-6.46
719.465	-11.46
719.491	-4.46
719.518	0.54
719.544	-8.46
719.57	5.54
719.597	-0.46
719.623	6.54
719.649	6.54
719.675	-1.46
719.702	9.54
719.728	20.54
719.754	-2.46
719.781	1.54
719.807	-1.46
719.833	3.54
719.86	11.54
719.886	2.54
719.912	10.54
719.938	3.54
719.965	-5.46
719.991	4.54
720.017	8.54
720.044	-8.46
720.07	10.54
720.096	8.54
720.122	2.54
720.149	13.54
720.175	18.54
720.201	-9.46
720.227	-6.46
720.254	-2.46
720.28	11.54
720.306	-2.46
720.332	3.54
720.359	9.54
720.385	-1.46
720.411	14.54
720.437	7.54
720.463	-0.46
720.49	11.54
720.516	-11.46
720.542	-3.46
720.568	9.54
720.595	22.54
720.621	-1.46
720.647	-3.46
720.673	7.54
720.699	5.54
720.725	0.54
720.752	6.54
720.778	2.54
720.804	3.54
720.83	15.54
720.856	4.54
720.883	-3.46
720.909	4.54
720.935	9.54
720.961	8.54
720.987	8.54
721.013	18.54
721.04	6.54
721.066	-8.46
721.092	-6.46
721.118	1.54
721.144	12.54
721.17	-0.46
721.196	-6.46
721.223	7.54
721.249	11.54
721.275	7.54
721.301	-2.46
721.327	8.54
721.353	22.54
721.379	4.54
721.405	10.54
721.432	17.54
721.458	1.54
721.484	1.54
721.51	-1.46
721.536	-0.46
721.562	7.54
721.588	-2.46
721.614	7.54
721.64	-1.46
721.666	-10.46
721.693	-3.46
721.719	-0.46
721.745	18.54
721.771	2.54
721.797	-1.46
721.823	-6.46
721.849	15.54
721.875	-5.46
721.901	5.54
721.927	14.54
721.953	5.54
721.979	12.54
722.005	11.54
722.031	-7.46
722.057	7.54
722.083	-1.46
722.109	12.54
722.135	6.54
722.161	18.54
722.187	6.54
722.214	26.54
722.24	-3.46
722.266	-18.46
722.292	8.54
722.318	14.54
722.344	9.54
722.37	17.54
722.396	8.54
722.422	3.54
722.448	16.54
722.474	-8.46
722.5	10.54
722.526	2.54
722.552	7.54
722.578	-24.46
722.603	1.54
722.629	-3.46
722.655	-0.46
722.681	6.54
722.707	12.54
722.733	9.54
722.759	0.54
722.785	-0.46
722.811	-10.46
722.837	-0.46
722.863	13.54
722.889	2.54
722.915	-12.46
722.941	10.54
722.967	4.54
722.993	5.54
723.019	23.54
723.045	12.54
723.071	12.54
723.097	-1.46
723.122	-1.46
723.148	10.54
723.174	-5.46
723.2	2.54
723.226	3.54
723.252	-1.46
723.278	-8.46
723.304	-9.46
723.33	10.54
723.356	-17.46
723.381	-14.46
723.407	-6.46
723.433	6.54
723.459	-3.46
723.485	14.54
723.511	21.54
723.537	2.54
723.563	13.54
723.588	2.54
723.614	9.54
723.64	-8.46
723.666	3.54
723.692	19.54
723.718	1.54
723.744	-1.46
723.769	-6.46
723.795	5.54
723.821	10.54
723.847	-14.46
723.873	11.54
723.899	7.54
723.924	6.54
723.95	11.54
723.976	1.54
724.002	2.54
724.028	7.54
724.053	-15.46
724.079	-0.46
724.105	5.54
724.131	16.54
724.157	0.54
724.182	1.54
724.208	-1.46
724.234	9.54
724.26	4.54
724.286	18.54
724.311	9.54
724.337	-3.46
724.363	-8.46
724.389	8.54
724.415	9.54
724.44	16.54
724.466	-0.46
724.492	7.54
724.518	15.54
724.543	3.54
724.569	-2.46
724.595	11.54
724.621	4.54
724.646	-3.46
724.672	5.54
724.698	-6.46
724.723	-2.46
724.749	6.54
724.775	10.54
724.801	3.54
724.826	-6.46
724.852	1.54
724.878	-20.46
724.904	-13.46
724.929	14.54
724.955	-1.46
724.981	0.54
725.006	10.54
725.032	18.54
725.058	28.54
725.083	11.54
725.109	-0.46
725.135	-12.46
725.161	7.54
725.186	6.54
725.212	-1.46
725.238	5.54
725.263	-0.46
725.289	-2.46
725.315	-8.46
725.34	-7.46
725.366	1.54
725.392	-5.46
725.417	3.54
725.443	-5.46
725.468	15.54
725.494	34.54
725.52	31.54
725.545	12.54
725.571	-0.46
725.597	11.54
725.622	17.54
725.648	-8.46
725.674	26.54
725.699	-0.46
725.725	-1.46
725.75	11.54
725.776	1.54
725.802	-7.46
725.827	-6.46
725.853	11.54
725.878	2.54
725.904	0.54
725.93	4.54
725.955	-3.46
725.981	-3.46
726.006	-2.46
726.032	4.54
726.057	-0.46
726.083	-8.46
726.109	6.54
726.134	10.54
726.16	12.54
726.185	-17.46
726.211	0.54
726.236	9.54
726.262	4.54
726.288	25.54
726.313	9.54
726.339	3.54
726.364	0.54
726.39	4.54
726.415	-0.46
726.441	-8.46
726.466	-10.46
726.492	1.54
726.517	6.54
726.543	-5.46
726.568	-4.46
726.594	2.54
726.619	1.54
726.645	2.54
726.67	-0.46
726.696	18.54
726.721	0.54
726.747	-8.46
726.772	-2.46
726.798	7.54
726.823	16.54
726.849	-2.46
726.874	2.54
726.9	24.54
726.925	0.54
726.951	-3.46
726.976	19.54
727.002	1.54
727.027	4.54
727.053	22.54
727.078	-5.46
727.104	-5.46
727.129	-21.46
727.155	-4.46
727.18	2.54
727.205	21.54
727.231	5.54
727.256	-3.46
727.282	5.54
727.307	14.54
727.333	-20.46
727.358	-23.46
727.383	-6.46
727.409	-7.46
727.434	4.54
727.46	-0.46
727.485	10.54
727.511	10.54
727.536	-6.46
727.561	-5.46
727.587	-17.46
727.612	-5.46
727.637	-5.46
727.663	-9.46
727.688	5.54
727.714	-13.46
727.739	-4.46
727.764	-2.46
727.79	5.54
727.815	14.54
727.841	9.54
727.866	5.54
727.891	15.54
727.917	-6.46
727.942	-4.46
727.967	-11.46
727.993	-24.46
728.018	-0.46
728.043	-5.46
728.069	4.54
728.094	15.54
728.119	10.54
728.145	19.54
728.17	18.54
728.195	9.54
728.221	6.54
728.246	7.54
728.271	-2.46
728.297	12.54
728.322	9.54
728.347	5.54
728.373	13.54
728.398	26.54
728.423	2.54
728.448	6.54
728.474	8.54
728.499	21.54
728.524	-3.46
728.55	-25.46
728.575	-7.46
728.6	7.54
728.625	-9.46
728.651	-2.46
728.676	1.54
728.701	-1.46
728.727	21.54
728.752	7.54
728.777	-0.46
728.802	1.54
728.828	7.54
728.853	-10.46
728.878	1.54
728.903	-8.46
728.929	-10.46
728.954	-8.46
728.979	10.54
729.004	-5.46
729.03	-13.46
729.055	9.54
729.08	-1.46
729.105	-5.46
729.13	16.54
729.156	-9.46
729.181	-12.46
729.206	-12.46
729.231	9.54
729.256	10.54
729.282	15.54
729.307	-0.46
729.332	0.54
729.357	-13.46
729.382	0.54
729.408	-0.46
729.433	1.54
729.458	-4.46
729.483	8.54
729.508	19.54
729.533	12.54
729.559	5.54
729.584	2.54
729.609	22.54
729.634	0.54
729.659	2.54
729.684	0.54
729.71	13.54
729.735	2.54
729.76	-6.46
729.785	20.54
729.81	9.54
729.835	0.54
729.86	-16.46
729.886	3.54
729.911	1.54
729.936	-0.46
729.961	1.54
729.986	-8.46
730.011	-5.46
730.036	-3.46
730.061	13.54
730.086	0.54
730.112	14.54
730.137	12.54
730.162	8.54
730.187	-14.46
730.212	9.54
730.237	5.54
730.262	3.54
730.287	8.54
730.312	22.54
730.337	-6.46
730.362	19.54
730.387	3.54
730.413	-3.46
730.438	1.54
730.463	-1.46
730.488	-12.46
730.513	-14.46
730.538	-3.46
730.563	27.54
730.588	7.54
730.613	10.54
730.638	5.54
730.663	8.54
730.688	5.54
730.713	4.54
730.738	10.54
730.763	-1.46
730.788	-9.46
730.813	18.54
730.838	-3.46
730.863	7.54
730.888	-6.46
730.913	-1.46
730.938	-8.46
730.963	-8.46
730.988	-2.46
731.013	11.54
731.038	2.54
731.063	-4.46
731.088	21.54
731.113	2.54
731.138	5.54
731.163	-8.46
731.188	-7.46
731.213	-4.46
731.238	5.54
731.263	-1.46
731.288	0.54
731.313	-1.46
731.338	-8.46
731.363	12.54
731.388	6.54
731.413	13.54
731.438	9.54
731.463	2.54
731.487	20.54
731.512	-13.46
731.537	-9.46
731.562	-4.46
731.587	13.54
731.612	5.54
731.637	-6.46
731.662	-5.46
731.687	7.54
731.712	-13.46
731.737	6.54
731.762	3.54
731.786	6.54
731.811	21.54
731.836	4.54
731.861	9.54
731.886	-2.46
731.911	15.54
731.936	16.54
731.961	-5.46
731.986	-6.46
732.01	2.54
732.035	-4.46
732.06	3.54
732.085	1.54
732.11	-5.46
732.135	-2.46
732.16	14.54
732.184	6.54
732.209	4.54
732.234	16.54
732.259	-9.46
732.284	10.54
732.309	-2.46
732.334	-2.46
732.358	-18.46
732.383	-7.46
732.408	-5.46
732.433	1.54
732.458	-8.46
732.482	-3.46
732.507	-11.46
732.532	-0.46
732.557	7.54
732.582	8.54
732.607	-4.46
732.631	-10.46
732.656	-9.46
732.681	-0.46
732.706	-0.46
732.73	-4.46
732.755	-2.46
732.78	-4.46
732.805	15.54
732.83	-6.46
732.854	6.54
732.879	13.54
732.904	1.54
732.929	2.54
732.953	14.54
732.978	5.54
733.003	-4.46
733.028	7.54
733.052	-0.46
733.077	-0.46
733.102	8.54
733.127	8.54
733.151	5.54
733.176	3.54
733.201	-8.46
733.226	-4.46
733.25	1.54
733.275	0.54
733.3	6.54
733.324	-0.46
733.349	-5.46
733.374	13.54
733.399	-3.46
733.423	2.54
733.448	-1.46
733.473	8.54
733.497	3.54
733.522	-9.46
733.547	2.54
733.571	11.54
733.596	10.54
733.621	11.54
733.646	-2.46
733.67	7.54
733.695	-10.46
733.72	3.54
733.744	7.54
733.769	-0.46
733.794	13.54
733.818	8.54
733.843	4.54
733.867	-11.46
733.892	0.54
733.917	-6.46
733.941	3.54
733.966	-18.46
733.991	-8.46
734.015	5.54
734.04	6.54
734.065	11.54
734.089	27.54
734.114	-2.46
734.138	3.54
734.163	-9.46
734.188	24.54
734.212	17.54
734.237	8.54
734.261	-1.46
734.286	-7.46
734.311	-10.46
734.335	10.54
734.36	2.54
734.384	-0.46
734.409	14.54
734.434	-6.46
734.458	4.54
734.483	-4.46
734.507	-1.46
734.532	-3.46
734.556	-2.46
734.581	-8.46
734.606	7.54
734.63	-12.46
734.655	-5.46
734.679	9.54
734.704	17.54
734.728	-1.46
734.753	14.54
734.777	23.54
734.802	10.54
734.826	6.54
734.851	3.54
734.876	13.54
734.9	5.54
734.925	11.54
734.949	-8.46
734.974	1.54
734.998	1.54
735.023	-24.46
735.047	-22.46
735.072	-3.46
735.096	-8.46
735.121	-2.46
735.145	-11.46
735.17	6.54
735.194	4.54
735.219	2.54
735.243	5.54
735.268	10.54
735.292	10.54
735.317	9.54
735.341	16.54
735.365	-10.46
735.39	6.54
735.414	11.54
735.439	-0.46
735.463	5.54
735.488	14.54
735.512	7.54
735.537	-10.46
735.561	-7.46
735.586	7.54
735.61	10.54
735.634	-14.46
735.659	1.54
735.683	16.54
735.708	2.54
735.732	13.54
735.757	-13.46
735.781	-3.46
735.805	0.54
735.83	-20.46
735.854	-6.46
735.879	14.54
735.903	14.54
735.927	20.54
735.952	11.54
735.976	0.54
736.001	4.54
736.025	7.54
736.049	13.54
736.074	6.54
736.098	17.54
736.123	3.54
736.147	4.54
736.171	7.54
736.196	26.54
736.22	-0.46
736.244	10.54
736.269	-8.46
736.293	-9.46
736.317	-1.46
736.342	8.54
736.366	24.54
736.39	-2.46
736.415	2.54
736.439	5.54
736.463	16.54
736.488	15.54
736.512	2.54
736.536	31.54
736.561	16.54
736.585	-6.46
736.609	9.54
736.634	-4.46
736.658	6.54
736.682	-11.46
736.707	-25.46
736.731	-6.46
736.755	9.54
736.78	15.54
736.804	12.54
736.828	8.54
736.852	-8.46
736.877	5.54
736.901	10.54
736.925	9.54
736.949	16.54
736.974	-4.46
736.998	-10.46
737.022	7.54
737.047	-2.46
737.071	-1.46
737.095	15.54
737.119	9.54
737.144	8.54
737.168	-5.46
737.192	5.54
737.216	11.54
737.241	-6.46
737.265	-1.46
737.289	-1.46
737.313	1.54
737.337	6.54
737.362	2.54
737.386	-6.46
737.41	-2.46
737.434	9.54
737.459	3.54
737.483	3.54
737.507	19.54
737.531	11.54
737.555	10.54
737.58	6.54
737.604	3.54
737.628	-11.46
737.652	-6.46
737.676	3.54
737.701	16.54
737.725	-6.46
737.749	2.54
737.773	1.54
737.797	-9.46
737.821	2.54
737.846	11.54
737.87	31.54
737.894	-2.46
737.918	10.54
737.942	3.54
737.966	14.54
737.99	4.54
738.015	8.54
738.039	7.54
738.063	3.54
738.087	15.54
738.111	8.54
738.135	11.54
738.159	8.54
738.184	-2.46
738.208	3.54
738.232	7.54
738.256	7.54
738.28	2.54
738.304	13.54
738.328	-4.46
738.352	7.54
738.376	4.54
738.4	-2.46
738.425	3.54
738.449	-11.46
738.473	6.54
738.497	3.54
738.521	7.54
738.545	5.54
738.569	6.54
738.593	18.54
738.617	14.54
738.641	-5.46
738.665	2.54
738.689	4.54
738.713	1.54
738.737	3.54
738.762	17.54
738.786	0.54
738.81	-6.46
738.834	9.54
738.858	-0.46
738.882	11.54
738.906	9.54
738.93	22.54
738.954	20.54
738.978	9.54
739.002	-7.46
739.026	35.54
739.05	10.54
739.074	-13.46
739.098	32.54
739.122	29.54
739.146	3.54
739.17	-1.46
739.194	5.54
739.218	-9.46
739.242	-5.46
739.266	-3.46
739.29	15.54
739.314	6.54
739.338	14.54
739.362	14.54
739.386	9.54
739.41	-8.46
739.434	-1.46
739.458	19.54
739.482	17.54
739.506	9.54
739.53	5.54
739.554	13.54
739.577	2.54
739.601	17.54
739.625	-0.46
739.649	6.54
739.673	-2.46
739.697	8.54
739.721	2.54
739.745	8.54
739.769	23.54
739.793	6.54
739.817	6.54
739.841	-10.46
739.865	4.54
739.889	-4.46
739.912	3.54
739.936	-1.46
739.96	-1.46
739.984	4.54
740.008	12.54
740.032	-0.46
740.056	-7.46
740.08	-1.46
740.104	5.54
740.127	17.54
740.151	16.54
740.175	1.54
740.199	14.54
740.223	52.54
740.247	15.54
740.271	2.54
740.295	-8.46
740.318	6.54
740.342	4.54
740.366	3.54
740.39	18.54
740.414	-8.46
740.438	-2.46
740.461	21.54
740.485	14.54
740.509	5.54
740.533	20.54
740.557	12.54
740.581	4.54
740.604	-1.46
740.628	9.54
740.652	18.54
740.676	-0.46
740.7	15.54
740.723	-3.46
740.747	3.54
740.771	-1.46
740.795	4.54
740.819	10.54
740.842	6.54
740.866	-1.46
740.89	9.54
740.914	-1.46
740.938	-14.46
740.961	8.54
740.985	19.54
741.009	-5.46
741.033	6.54
741.056	-1.46
741.08	2.54
741.104	-6.46
741.128	-0.46
741.151	13.54
741.175	3.54
741.199	13.54
741.223	12.54
741.246	-0.46
741.27	3.54
741.294	18.54
741.318	-3.46
741.341	-6.46
741.365	-13.46
741.389	-1.46
741.413	23.54
741.436	22.54
741.46	6.54
741.484	3.54
741.507	4.54
741.531	28.54
741.555	10.54
741.579	4.54
741.602	5.54
741.626	12.54
741.65	1.54
741.673	4.54
741.697	2.54
741.721	8.54
741.744	-11.46
741.768	3.54
741.792	4.54
741.815	-9.46
741.839	16.54
741.863	31.54
741.886	22.54
741.91	13.54
741.934	4.54
741.957	-18.46
741.981	20.54
742.005	-8.46
742.028	-8.46
742.052	-5.46
742.075	2.54
742.099	11.54
742.123	0.54
742.146	1.54
742.17	13.54
742.194	-21.46
742.217	-5.46
742.241	-4.46
742.264	5.54
742.288	10.54
742.312	20.54
742.335	0.54
742.359	-7.46
742.382	15.54
742.406	21.54
742.43	6.54
742.453	11.54
742.477	-6.46
742.5	5.54
742.524	-8.46
742.548	-5.46
742.571	5.54
742.595	9.54
742.618	3.54
742.642	-0.46
742.665	17.54
742.689	-6.46
742.712	12.54
742.736	6.54
742.76	4.54
742.783	1.54
742.807	9.54
742.83	17.54
742.854	1.54
742.877	-2.46
742.901	-3.46
742.924	-0.46
742.948	-0.46
742.971	14.54
742.995	1.54
743.018	-3.46
743.042	5.54
743.065	6.54
743.089	-0.46
743.112	-9.46
743.136	-2.46
743.159	1.54
743.183	-5.46
743.206	5.54
743.23	-5.46
743.253	5.54
743.277	15.54
743.3	-9.46
743.324	7.54
743.347	9.54
743.371	11.54
743.394	16.54
743.418	18.54
743.441	1.54
743.465	17.54
743.488	-0.46
743.512	-6.46
743.535	-4.46
743.558	15.54
743.582	-3.46
743.605	-2.46
743.629	18.54
743.652	15.54
743.676	8.54
743.699	10.54
743.723	0.54
743.746	16.54
743.769	-2.46
743.793	11.54
743.816	9.54
743.84	12.54
743.863	1.54
743.886	9.54
743.91	12.54
743.933	-4.46
743.957	4.54
743.98	-6.46
744.003	6.54
744.027	4.54
744.05	5.54
744.074	2.54
744.097	-5.46
744.12	3.54
744.144	8.54
744.167	8.54
744.19	0.54
744.214	13.54
744.237	0.54
744.26	13.54
744.284	-13.46
744.307	-1.46
744.331	5.54
744.354	-5.46
744.377	-2.46
744.401	-6.46
744.424	-6.46
744.447	-8.46
744.471	-13.46
