Data from HighRes_H2_15_09_11_07_2024_HR4C61891__112__15-11-07-601.txt Node

Date: Thu Nov 07 15:11:07 EST 2024
User: crc00042
Spectrometer: HR4C6189
Trigger mode: 4
Integration Time (sec): 1.000000E-1
Scans to average: 1
Electric dark correction enabled: true
Nonlinearity correction enabled: false
Boxcar width: 0
XAxis mode: Wavelengths
Number of Pixels in Spectrum: 3648
>>>>>Begin Spectral Data<<<<<
639.567	-31.54
639.602	-31.54
639.636	-31.54
639.67	-41.54
639.704	-17.54
639.738	-11.54
639.773	10.46
639.807	-8.54
639.841	-3.54
639.875	16.46
639.909	-2.54
639.943	-6.54
639.978	-2.54
640.012	5.46
640.046	4.46
640.08	5.46
640.114	-0.54
640.148	-6.54
640.182	-1.54
640.217	2.46
640.251	7.46
640.285	3.46
640.319	-18.54
640.353	-8.54
640.387	11.46
640.421	-4.54
640.455	-10.54
640.49	1.46
640.524	-7.54
640.558	11.46
640.592	-6.54
640.626	-4.54
640.66	12.46
640.694	-0.54
640.728	23.46
640.762	11.46
640.796	5.46
640.83	25.46
640.865	-1.54
640.899	15.46
640.933	4.46
640.967	0.46
641.001	13.46
641.035	12.46
641.069	-8.54
641.103	-4.54
641.137	-12.54
641.171	-33.54
641.205	0.46
641.239	5.46
641.273	22.46
641.307	-3.54
641.341	2.46
641.375	2.46
641.409	-6.54
641.443	-5.54
641.477	3.46
641.511	-0.54
641.545	-2.54
641.579	-1.54
641.614	10.46
641.648	16.46
641.682	-3.54
641.716	4.46
641.75	6.46
641.784	16.46
641.818	-5.54
641.852	-1.54
641.886	-5.54
641.919	32.46
641.953	5.46
641.987	-18.54
642.021	-2.54
642.055	14.46
642.089	9.46
642.123	5.46
642.157	-3.54
642.191	0.46
642.225	11.46
642.259	-1.54
642.293	18.46
642.327	1.46
642.361	7.46
642.395	4.46
642.429	28.46
642.463	9.46
642.497	20.46
642.531	4.46
642.565	-2.54
642.599	13.46
642.633	-12.54
642.666	12.46
642.7	15.46
642.734	22.46
642.768	1.46
642.802	1.46
642.836	0.46
642.87	-11.54
642.904	0.46
642.938	11.46
642.972	7.46
643.005	0.46
643.039	20.46
643.073	0.46
643.107	8.46
643.141	-9.54
643.175	-1.54
643.209	9.46
643.243	9.46
643.276	4.46
643.31	-5.54
643.344	6.46
643.378	9.46
643.412	16.46
643.446	-1.54
643.48	-0.54
643.513	5.46
643.547	9.46
643.581	-0.54
643.615	12.46
643.649	12.46
643.683	7.46
643.716	-2.54
643.75	5.46
643.784	-7.54
643.818	2.46
643.852	-1.54
643.886	-4.54
643.919	14.46
643.953	5.46
643.987	0.46
644.021	1.46
644.055	28.46
644.088	4.46
644.122	12.46
644.156	6.46
644.19	2.46
644.224	-2.54
644.257	1.46
644.291	8.46
644.325	6.46
644.359	12.46
644.392	11.46
644.426	7.46
644.46	9.46
644.494	2.46
644.527	-6.54
644.561	0.46
644.595	9.46
644.629	3.46
644.662	-5.54
644.696	11.46
644.73	-3.54
644.764	14.46
644.797	6.46
644.831	12.46
644.865	21.46
644.899	8.46
644.932	7.46
644.966	-12.54
645	-0.54
645.033	12.46
645.067	-7.54
645.101	4.46
645.135	-7.54
645.168	2.46
645.202	5.46
645.236	4.46
645.269	2.46
645.303	1.46
645.337	-21.54
645.37	-7.54
645.404	-3.54
645.438	-9.54
645.471	7.46
645.505	10.46
645.539	-2.54
645.572	6.46
645.606	13.46
645.64	18.46
645.673	11.46
645.707	8.46
645.741	-0.54
645.774	-5.54
645.808	9.46
645.842	-18.54
645.875	8.46
645.909	-5.54
645.943	7.46
645.976	-0.54
646.01	9.46
646.043	14.46
646.077	-10.54
646.111	3.46
646.144	8.46
646.178	15.46
646.212	-19.54
646.245	-2.54
646.279	7.46
646.312	1.46
646.346	14.46
646.38	11.46
646.413	1.46
646.447	12.46
646.48	-3.54
646.514	12.46
646.547	-17.54
646.581	-6.54
646.615	-16.54
646.648	-8.54
646.682	11.46
646.715	-5.54
646.749	9.46
646.782	5.46
646.816	-4.54
646.85	12.46
646.883	2.46
646.917	8.46
646.95	19.46
646.984	1.46
647.017	-9.54
647.051	8.46
647.084	9.46
647.118	3.46
647.151	0.46
647.185	6.46
647.218	0.46
647.252	-10.54
647.285	-12.54
647.319	1.46
647.353	5.46
647.386	25.46
647.42	-0.54
647.453	-5.54
647.487	0.46
647.52	-3.54
647.553	1.46
647.587	4.46
647.62	-8.54
647.654	8.46
647.687	18.46
647.721	27.46
647.754	15.46
647.788	6.46
647.821	-3.54
647.855	9.46
647.888	14.46
647.922	23.46
647.955	1.46
647.989	-5.54
648.022	0.46
648.055	19.46
648.089	-7.54
648.122	17.46
648.156	0.46
648.189	-7.54
648.223	20.46
648.256	27.46
648.29	15.46
648.323	5.46
648.356	11.46
648.39	8.46
648.423	13.46
648.457	13.46
648.49	11.46
648.523	28.46
648.557	6.46
648.59	9.46
648.624	15.46
648.657	-11.54
648.69	14.46
648.724	8.46
648.757	16.46
648.791	-2.54
648.824	19.46
648.857	15.46
648.891	14.46
648.924	8.46
648.957	20.46
648.991	1.46
649.024	14.46
649.057	5.46
649.091	-12.54
649.124	14.46
649.158	16.46
649.191	22.46
649.224	2.46
649.258	5.46
649.291	15.46
649.324	6.46
649.358	17.46
649.391	6.46
649.424	-1.54
649.458	4.46
649.491	-6.54
649.524	5.46
649.557	6.46
649.591	-10.54
649.624	19.46
649.657	-7.54
649.691	9.46
649.724	-4.54
649.757	4.46
649.791	2.46
649.824	20.46
649.857	7.46
649.89	-11.54
649.924	-34.54
649.957	5.46
649.99	-9.54
650.023	13.46
650.057	-7.54
650.09	1.46
650.123	-2.54
650.157	1.46
650.19	12.46
650.223	6.46
650.256	-4.54
650.29	3.46
650.323	9.46
650.356	16.46
650.389	-5.54
650.423	-0.54
650.456	12.46
650.489	10.46
650.522	-1.54
650.555	7.46
650.589	10.46
650.622	-3.54
650.655	9.46
650.688	13.46
650.721	-3.54
650.755	8.46
650.788	11.46
650.821	13.46
650.854	-3.54
650.887	3.46
650.921	8.46
650.954	-11.54
650.987	1.46
651.02	-9.54
651.053	-8.54
651.087	3.46
651.12	20.46
651.153	3.46
651.186	9.46
651.219	5.46
651.252	23.46
651.286	11.46
651.319	-6.54
651.352	-1.54
651.385	9.46
651.418	4.46
651.451	4.46
651.484	-3.54
651.518	-2.54
651.551	18.46
651.584	5.46
651.617	29.46
651.65	9.46
651.683	6.46
651.716	5.46
651.749	3.46
651.783	-5.54
651.816	-4.54
651.849	3.46
651.882	9.46
651.915	6.46
651.948	-9.54
651.981	-4.54
652.014	-2.54
652.047	-10.54
652.08	-13.54
652.114	4.46
652.147	-6.54
652.18	-2.54
652.213	36.46
652.246	3.46
652.279	8.46
652.312	5.46
652.345	3.46
652.378	19.46
652.411	31.46
652.444	4.46
652.477	14.46
652.51	-2.54
652.543	-1.54
652.576	2.46
652.609	-8.54
652.642	2.46
652.675	-7.54
652.709	-1.54
652.742	11.46
652.775	8.46
652.808	11.46
652.841	3.46
652.874	-2.54
652.907	-4.54
652.94	-9.54
652.973	-1.54
653.006	-2.54
653.039	-1.54
653.072	2.46
653.105	-4.54
653.138	-8.54
653.171	-11.54
653.204	2.46
653.237	10.46
653.27	-2.54
653.303	-1.54
653.336	19.46
653.368	-15.54
653.401	-2.54
653.434	-10.54
653.467	8.46
653.5	-2.54
653.533	-2.54
653.566	-5.54
653.599	12.46
653.632	2.46
653.665	5.46
653.698	-11.54
653.731	4.46
653.764	9.46
653.797	1.46
653.83	10.46
653.863	1.46
653.896	1.46
653.929	-0.54
653.961	4.46
653.994	8.46
654.027	3.46
654.06	-2.54
654.093	5.46
654.126	13.46
654.159	-7.54
654.192	10.46
654.225	1.46
654.258	2.46
654.29	-0.54
654.323	7.46
654.356	-18.54
654.389	-5.54
654.422	16.46
654.455	5.46
654.488	8.46
654.521	-8.54
654.553	-6.54
654.586	4.46
654.619	3.46
654.652	9.46
654.685	11.46
654.718	2.46
654.751	4.46
654.783	1.46
654.816	7.46
654.849	11.46
654.882	-2.54
654.915	-9.54
654.948	-9.54
654.98	-6.54
655.013	4.46
655.046	9.46
655.079	8.46
655.112	1.46
655.144	-5.54
655.177	-6.54
655.21	18.46
655.243	18.46
655.276	17.46
655.308	9.46
655.341	-3.54
655.374	4.46
655.407	-6.54
655.44	5.46
655.472	7.46
655.505	24.46
655.538	9.46
655.571	10.46
655.603	5.46
655.636	-0.54
655.669	23.46
655.702	24.46
655.734	-4.54
655.767	4.46
655.8	17.46
655.833	29.46
655.865	25.46
655.898	27.46
655.931	40.46
655.964	66.46
655.996	51.46
656.029	60.46
656.062	60.46
656.095	76.46
656.127	77.46
656.16	103.46
656.193	126.46
656.225	191.46
656.258	291.46
656.291	512.46
656.324	1110.46
656.356	3337.46
656.389	7461.46
656.422	6064.46
656.454	2065.46
656.487	662.46
656.52	248.46
656.552	122.46
656.585	79.46
656.618	66.46
656.65	49.46
656.683	27.46
656.716	29.46
656.748	28.46
656.781	-6.54
656.814	-7.54
656.846	10.46
656.879	11.46
656.912	2.46
656.944	-7.54
656.977	-12.54
657.01	1.46
657.042	6.46
657.075	8.46
657.108	-7.54
657.14	7.46
657.173	12.46
657.205	32.46
657.238	9.46
657.271	2.46
657.303	2.46
657.336	-7.54
657.369	-4.54
657.401	-3.54
657.434	-4.54
657.466	13.46
657.499	5.46
657.532	18.46
657.564	23.46
657.597	5.46
657.629	8.46
657.662	6.46
657.694	17.46
657.727	-17.54
657.76	5.46
657.792	-12.54
657.825	-2.54
657.857	10.46
657.89	1.46
657.922	11.46
657.955	-7.54
657.987	1.46
658.02	17.46
658.053	19.46
658.085	12.46
658.118	23.46
658.15	20.46
658.183	24.46
658.215	8.46
658.248	-7.54
658.28	-0.54
658.313	28.46
658.345	30.46
658.378	2.46
658.41	1.46
658.443	12.46
658.475	-12.54
658.508	-0.54
658.54	-12.54
658.573	-14.54
658.605	7.46
658.638	7.46
658.67	4.46
658.703	-5.54
658.735	-13.54
658.768	-8.54
658.8	-21.54
658.833	10.46
658.865	-1.54
658.898	5.46
658.93	8.46
658.963	2.46
658.995	-3.54
659.028	2.46
659.06	0.46
659.092	1.46
659.125	7.46
659.157	9.46
659.19	-10.54
659.222	3.46
659.255	11.46
659.287	18.46
659.32	-0.54
659.352	19.46
659.384	10.46
659.417	-12.54
659.449	19.46
659.482	6.46
659.514	-6.54
659.546	2.46
659.579	-2.54
659.611	-2.54
659.644	-6.54
659.676	-8.54
659.708	6.46
659.741	-12.54
659.773	-0.54
659.806	1.46
659.838	1.46
659.87	7.46
659.903	-7.54
659.935	13.46
659.967	8.46
660	-7.54
660.032	-9.54
660.065	21.46
660.097	18.46
660.129	7.46
660.162	-11.54
660.194	11.46
660.226	16.46
660.259	3.46
660.291	-9.54
660.323	-4.54
660.356	1.46
660.388	-6.54
660.42	2.46
660.453	7.46
660.485	20.46
660.517	13.46
660.55	3.46
660.582	-29.54
660.614	6.46
660.647	-9.54
660.679	-10.54
660.711	7.46
660.743	-7.54
660.776	-13.54
660.808	12.46
660.84	-9.54
660.873	-4.54
660.905	-5.54
660.937	-0.54
660.969	2.46
661.002	11.46
661.034	12.46
661.066	-0.54
661.099	14.46
661.131	25.46
661.163	1.46
661.195	-1.54
661.228	17.46
661.26	1.46
661.292	-6.54
661.324	-9.54
661.357	-4.54
661.389	6.46
661.421	12.46
661.453	0.46
661.485	-3.54
661.518	4.46
661.55	-0.54
661.582	7.46
661.614	1.46
661.647	1.46
661.679	2.46
661.711	9.46
661.743	10.46
661.775	1.46
661.808	25.46
661.84	-7.54
661.872	2.46
661.904	-3.54
661.936	6.46
661.969	-22.54
662.001	-10.54
662.033	-5.54
662.065	-4.54
662.097	11.46
662.129	4.46
662.162	-27.54
662.194	-6.54
662.226	-16.54
662.258	-1.54
662.29	-2.54
662.322	-13.54
662.355	-2.54
662.387	25.46
662.419	6.46
662.451	13.46
662.483	8.46
662.515	7.46
662.547	5.46
662.58	1.46
662.612	-5.54
662.644	1.46
662.676	4.46
662.708	10.46
662.74	3.46
662.772	23.46
662.804	5.46
662.836	6.46
662.869	-23.54
662.901	-3.54
662.933	7.46
662.965	14.46
662.997	7.46
663.029	-9.54
663.061	-10.54
663.093	0.46
663.125	-5.54
663.157	-14.54
663.189	5.46
663.221	-3.54
663.254	-17.54
663.286	12.46
663.318	-3.54
663.35	7.46
663.382	6.46
663.414	-4.54
663.446	2.46
663.478	3.46
663.51	29.46
663.542	-2.54
663.574	-6.54
663.606	11.46
663.638	-6.54
663.67	-3.54
663.702	9.46
663.734	4.46
663.766	9.46
663.798	7.46
663.83	11.46
663.862	-0.54
663.894	0.46
663.926	-1.54
663.958	-1.54
663.99	0.46
664.022	-19.54
664.054	-1.54
664.086	-6.54
664.118	1.46
664.15	-24.54
664.182	1.46
664.214	11.46
664.246	9.46
664.278	4.46
664.31	26.46
664.342	11.46
664.374	-4.54
664.406	14.46
664.438	-1.54
664.47	13.46
664.502	13.46
664.534	3.46
664.566	8.46
664.598	6.46
664.63	6.46
664.662	12.46
664.693	10.46
664.725	-15.54
664.757	-1.54
664.789	12.46
664.821	-4.54
664.853	9.46
664.885	2.46
664.917	-11.54
664.949	22.46
664.981	30.46
665.013	30.46
665.045	-10.54
665.076	3.46
665.108	-0.54
665.14	-3.54
665.172	1.46
665.204	4.46
665.236	9.46
665.268	23.46
665.3	-7.54
665.331	-5.54
665.363	3.46
665.395	-9.54
665.427	6.46
665.459	-1.54
665.491	0.46
665.523	10.46
665.555	-9.54
665.586	-11.54
665.618	5.46
665.65	-9.54
665.682	6.46
665.714	7.46
665.746	-2.54
665.777	4.46
665.809	-20.54
665.841	-15.54
665.873	4.46
665.905	-7.54
665.937	21.46
665.968	13.46
666	-3.54
666.032	3.46
666.064	22.46
666.096	6.46
666.127	-2.54
666.159	1.46
666.191	23.46
666.223	-1.54
666.255	10.46
666.286	25.46
666.318	-3.54
666.35	26.46
666.382	8.46
666.413	0.46
666.445	-13.54
666.477	-20.54
666.509	3.46
666.54	-14.54
666.572	1.46
666.604	6.46
666.636	4.46
666.667	9.46
666.699	15.46
666.731	11.46
666.763	4.46
666.794	-5.54
666.826	6.46
666.858	-12.54
666.89	22.46
666.921	4.46
666.953	3.46
666.985	23.46
667.017	28.46
667.048	9.46
667.08	-11.54
667.112	-5.54
667.143	-9.54
667.175	4.46
667.207	-22.54
667.238	8.46
667.27	9.46
667.302	6.46
667.334	2.46
667.365	26.46
667.397	0.46
667.429	-5.54
667.46	7.46
667.492	-2.54
667.524	6.46
667.555	-0.54
667.587	-9.54
667.619	3.46
667.65	-7.54
667.682	11.46
667.714	-10.54
667.745	-6.54
667.777	-0.54
667.808	11.46
667.84	13.46
667.872	3.46
667.903	15.46
667.935	-24.54
667.967	1.46
667.998	9.46
668.03	-14.54
668.061	13.46
668.093	-7.54
668.125	7.46
668.156	2.46
668.188	-17.54
668.22	-14.54
668.251	-12.54
668.283	-6.54
668.314	11.46
668.346	-5.54
668.377	-1.54
668.409	14.46
668.441	13.46
668.472	3.46
668.504	4.46
668.535	11.46
668.567	11.46
668.599	20.46
668.63	6.46
668.662	8.46
668.693	16.46
668.725	1.46
668.756	3.46
668.788	-12.54
668.819	-4.54
668.851	-5.54
668.882	0.46
668.914	-8.54
668.946	9.46
668.977	-5.54
669.009	-6.54
669.04	-5.54
669.072	1.46
669.103	-3.54
669.135	1.46
669.166	21.46
669.198	1.46
669.229	6.46
669.261	-4.54
669.292	-1.54
669.324	4.46
669.355	1.46
669.387	-16.54
669.418	9.46
669.45	0.46
669.481	22.46
669.513	1.46
669.544	4.46
669.576	4.46
669.607	5.46
669.639	19.46
669.67	-2.54
669.701	9.46
669.733	5.46
669.764	2.46
669.796	9.46
669.827	-14.54
669.859	-3.54
669.89	12.46
669.922	12.46
669.953	14.46
669.985	14.46
670.016	16.46
670.047	8.46
670.079	5.46
670.11	2.46
670.142	8.46
670.173	-5.54
670.204	0.46
670.236	3.46
670.267	-1.54
670.299	11.46
670.33	5.46
670.362	-4.54
670.393	-5.54
670.424	7.46
670.456	-11.54
670.487	8.46
670.518	11.46
670.55	5.46
670.581	19.46
670.613	15.46
670.644	6.46
670.675	4.46
670.707	-0.54
670.738	-3.54
670.769	-9.54
670.801	1.46
670.832	-0.54
670.864	-28.54
670.895	4.46
670.926	-6.54
670.958	-2.54
670.989	16.46
671.02	1.46
671.052	-0.54
671.083	12.46
671.114	-13.54
671.146	7.46
671.177	14.46
671.208	-15.54
671.24	-20.54
671.271	-3.54
671.302	1.46
671.333	-1.54
671.365	-0.54
671.396	-10.54
671.427	20.46
671.459	4.46
671.49	-4.54
671.521	13.46
671.553	14.46
671.584	1.46
671.615	5.46
671.646	9.46
671.678	18.46
671.709	-4.54
671.74	-7.54
671.771	-4.54
671.803	-17.54
671.834	-19.54
671.865	0.46
671.896	0.46
671.928	9.46
671.959	-6.54
671.99	4.46
672.021	5.46
672.053	-1.54
672.084	3.46
672.115	-0.54
672.146	2.46
672.178	3.46
672.209	11.46
672.24	11.46
672.271	27.46
672.303	8.46
672.334	-16.54
672.365	-5.54
672.396	1.46
672.427	1.46
672.459	20.46
672.49	21.46
672.521	-3.54
672.552	15.46
672.583	7.46
672.615	3.46
672.646	6.46
672.677	-13.54
672.708	-4.54
672.739	0.46
672.77	3.46
672.802	6.46
672.833	18.46
672.864	13.46
672.895	-4.54
672.926	9.46
672.957	-10.54
672.989	-18.54
673.02	9.46
673.051	6.46
673.082	4.46
673.113	9.46
673.144	6.46
673.175	12.46
673.206	1.46
673.238	-1.54
673.269	12.46
673.3	-1.54
673.331	13.46
673.362	-3.54
673.393	1.46
673.424	15.46
673.455	13.46
673.487	5.46
673.518	5.46
673.549	-0.54
673.58	0.46
673.611	0.46
673.642	3.46
673.673	3.46
673.704	-2.54
673.735	-5.54
673.766	10.46
673.797	-14.54
673.828	4.46
673.86	0.46
673.891	-18.54
673.922	0.46
673.953	-11.54
673.984	5.46
674.015	1.46
674.046	20.46
674.077	10.46
674.108	15.46
674.139	1.46
674.17	3.46
674.201	1.46
674.232	13.46
674.263	5.46
674.294	1.46
674.325	-4.54
674.356	11.46
674.387	0.46
674.418	-8.54
674.449	-7.54
674.48	-15.54
674.511	-15.54
674.542	12.46
674.573	-21.54
674.604	8.46
674.635	2.46
674.666	29.46
674.697	7.46
674.728	9.46
674.759	1.46
674.79	-5.54
674.821	-9.54
674.852	-2.54
674.883	-9.54
674.914	-19.54
674.945	-7.54
674.976	-15.54
675.007	-9.54
675.038	-27.54
675.069	-13.54
675.1	-10.54
675.131	4.46
675.162	-17.54
675.193	-12.54
675.224	-7.54
675.254	-11.54
675.285	0.46
675.316	10.46
675.347	-3.54
675.378	-7.54
675.409	4.46
675.44	11.46
675.471	13.46
675.502	5.46
675.533	1.46
675.564	-6.54
675.595	-3.54
675.625	9.46
675.656	16.46
675.687	13.46
675.718	-11.54
675.749	6.46
675.78	11.46
675.811	-6.54
675.842	9.46
675.873	5.46
675.903	-5.54
675.934	-11.54
675.965	-2.54
675.996	1.46
676.027	-1.54
676.058	-4.54
676.089	-16.54
676.119	-12.54
676.15	21.46
676.181	10.46
676.212	12.46
676.243	21.46
676.274	-1.54
676.304	27.46
676.335	-10.54
676.366	-7.54
676.397	2.46
676.428	-0.54
676.459	4.46
676.489	2.46
676.52	8.46
676.551	1.46
676.582	-3.54
676.613	-4.54
676.643	-19.54
676.674	1.46
676.705	19.46
676.736	7.46
676.767	10.46
676.797	20.46
676.828	15.46
676.859	-6.54
676.89	-7.54
676.92	11.46
676.951	-7.54
676.982	-2.54
677.013	-0.54
677.044	27.46
677.074	5.46
677.105	5.46
677.136	19.46
677.167	7.46
677.197	-3.54
677.228	-6.54
677.259	-15.54
677.289	0.46
677.32	-11.54
677.351	-11.54
677.382	-11.54
677.412	-5.54
677.443	1.46
677.474	-3.54
677.505	-6.54
677.535	5.46
677.566	-4.54
677.597	-10.54
677.627	-7.54
677.658	8.46
677.689	-11.54
677.72	-7.54
677.75	2.46
677.781	0.46
677.812	-3.54
677.842	15.46
677.873	6.46
677.904	-9.54
677.934	8.46
677.965	2.46
677.996	-8.54
678.026	-9.54
678.057	-3.54
678.088	-19.54
678.118	-6.54
678.149	-9.54
678.18	2.46
678.21	9.46
678.241	12.46
678.272	17.46
678.302	11.46
678.333	24.46
678.363	9.46
678.394	-4.54
678.425	6.46
678.455	2.46
678.486	14.46
678.517	-11.54
678.547	0.46
678.578	4.46
678.608	-13.54
678.639	-13.54
678.67	1.46
678.7	-10.54
678.731	-1.54
678.761	-0.54
678.792	8.46
678.823	-0.54
678.853	-5.54
678.884	-0.54
678.914	4.46
678.945	-0.54
678.975	-8.54
679.006	-1.54
679.037	-8.54
679.067	14.46
679.098	-2.54
679.128	-27.54
679.159	4.46
679.189	8.46
679.22	-17.54
679.25	-6.54
679.281	1.46
679.312	0.46
679.342	-1.54
679.373	30.46
679.403	8.46
679.434	17.46
679.464	1.46
679.495	12.46
679.525	9.46
679.556	-3.54
679.586	0.46
679.617	22.46
679.647	14.46
679.678	-3.54
679.708	9.46
679.739	-7.54
679.769	-8.54
679.8	-10.54
679.83	-5.54
679.861	1.46
679.891	-4.54
679.922	-15.54
679.952	-1.54
679.983	0.46
680.013	3.46
680.044	-5.54
680.074	6.46
680.105	13.46
680.135	16.46
680.165	10.46
680.196	2.46
680.226	3.46
680.257	1.46
680.287	-4.54
680.318	-7.54
680.348	-6.54
680.379	6.46
680.409	9.46
680.439	4.46
680.47	11.46
680.5	5.46
680.531	5.46
680.561	7.46
680.592	9.46
680.622	16.46
680.652	2.46
680.683	-2.54
680.713	1.46
680.744	0.46
680.774	-4.54
680.804	29.46
680.835	-3.54
680.865	-1.54
680.896	19.46
680.926	9.46
680.956	-7.54
680.987	2.46
681.017	12.46
681.047	-1.54
681.078	-14.54
681.108	4.46
681.139	3.46
681.169	-17.54
681.199	-7.54
681.23	16.46
681.26	-1.54
681.29	9.46
681.321	-21.54
681.351	9.46
681.381	-17.54
681.412	22.46
681.442	-2.54
681.472	5.46
681.503	10.46
681.533	4.46
681.563	-9.54
681.594	-9.54
681.624	3.46
681.654	-10.54
681.685	-5.54
681.715	10.46
681.745	0.46
681.775	-8.54
681.806	9.46
681.836	-8.54
681.866	-5.54
681.897	-7.54
681.927	-24.54
681.957	-34.54
681.987	2.46
682.018	1.46
682.048	1.46
682.078	6.46
682.109	23.46
682.139	16.46
682.169	5.46
682.199	-9.54
682.23	-2.54
682.26	4.46
682.29	-10.54
682.32	0.46
682.351	4.46
682.381	2.46
682.411	2.46
682.441	-0.54
682.472	-6.54
682.502	4.46
682.532	-6.54
682.562	6.46
682.592	11.46
682.623	13.46
682.653	10.46
682.683	2.46
682.713	7.46
682.743	4.46
682.774	1.46
682.804	-10.54
682.834	28.46
682.864	-2.54
682.894	6.46
682.925	3.46
682.955	9.46
682.985	8.46
683.015	10.46
683.045	10.46
683.076	-3.54
683.106	-2.54
683.136	-1.54
683.166	8.46
683.196	-9.54
683.226	-0.54
683.257	-7.54
683.287	-3.54
683.317	2.46
683.347	-1.54
683.377	5.46
683.407	9.46
683.437	14.46
683.468	2.46
683.498	8.46
683.528	-1.54
683.558	3.46
683.588	-5.54
683.618	-7.54
683.648	-13.54
683.678	7.46
683.708	6.46
683.739	-13.54
683.769	13.46
683.799	17.46
683.829	7.46
683.859	26.46
683.889	9.46
683.919	8.46
683.949	7.46
683.979	-3.54
684.009	4.46
684.039	12.46
684.07	9.46
684.1	18.46
684.13	10.46
684.16	-8.54
684.19	-12.54
684.22	4.46
684.25	5.46
684.28	-4.54
684.31	23.46
684.34	0.46
684.37	-3.54
684.4	-10.54
684.43	8.46
684.46	4.46
684.49	1.46
684.52	3.46
684.55	13.46
684.58	17.46
684.61	5.46
684.64	16.46
684.67	5.46
684.7	-3.54
684.73	-3.54
684.76	11.46
684.79	18.46
684.82	0.46
684.85	10.46
684.88	5.46
684.91	3.46
684.94	8.46
684.97	-10.54
685	-19.54
685.03	-18.54
685.06	-11.54
685.09	-14.54
685.12	13.46
685.15	-6.54
685.18	2.46
685.21	7.46
685.24	7.46
685.27	14.46
685.3	0.46
685.33	9.46
685.36	-0.54
685.39	-0.54
685.42	-10.54
685.45	-6.54
685.48	3.46
685.51	1.46
685.54	11.46
685.569	-7.54
685.599	-5.54
685.629	-2.54
685.659	-14.54
685.689	-8.54
685.719	2.46
685.749	-0.54
685.779	11.46
685.809	-2.54
685.839	-7.54
685.869	-1.54
685.898	4.46
685.928	4.46
685.958	8.46
685.988	13.46
686.018	3.46
686.048	-11.54
686.078	12.46
686.108	17.46
686.137	10.46
686.167	-0.54
686.197	9.46
686.227	8.46
686.257	26.46
686.287	24.46
686.317	-2.54
686.346	-14.54
686.376	3.46
686.406	-7.54
686.436	6.46
686.466	-0.54
686.496	11.46
686.525	4.46
686.555	2.46
686.585	11.46
686.615	13.46
686.645	8.46
686.675	10.46
686.704	14.46
686.734	7.46
686.764	0.46
686.794	1.46
686.824	5.46
686.853	2.46
686.883	20.46
686.913	2.46
686.943	-2.54
686.973	-2.54
687.002	-1.54
687.032	-3.54
687.062	2.46
687.092	10.46
687.121	5.46
687.151	8.46
687.181	-5.54
687.211	-3.54
687.24	4.46
687.27	-2.54
687.3	1.46
687.33	0.46
687.359	-11.54
687.389	2.46
687.419	2.46
687.449	5.46
687.478	2.46
687.508	-13.54
687.538	-5.54
687.568	9.46
687.597	0.46
687.627	-2.54
687.657	16.46
687.686	4.46
687.716	19.46
687.746	-18.54
687.776	-2.54
687.805	11.46
687.835	-8.54
687.865	10.46
687.894	4.46
687.924	-10.54
687.954	-7.54
687.983	1.46
688.013	20.46
688.043	-3.54
688.072	-16.54
688.102	4.46
688.132	-0.54
688.161	-16.54
688.191	-0.54
688.221	2.46
688.25	-8.54
688.28	-6.54
688.31	-6.54
688.339	15.46
688.369	2.46
688.399	10.46
688.428	-0.54
688.458	-17.54
688.488	-0.54
688.517	-2.54
688.547	-8.54
688.576	24.46
688.606	11.46
688.636	-18.54
688.665	1.46
688.695	3.46
688.725	6.46
688.754	1.46
688.784	2.46
688.813	5.46
688.843	7.46
688.873	-4.54
688.902	8.46
688.932	-14.54
688.961	-2.54
688.991	8.46
689.02	11.46
689.05	11.46
689.08	22.46
689.109	13.46
689.139	6.46
689.168	0.46
689.198	3.46
689.227	2.46
689.257	9.46
689.287	16.46
689.316	17.46
689.346	3.46
689.375	-1.54
689.405	-2.54
689.434	-2.54
689.464	-2.54
689.493	1.46
689.523	-4.54
689.552	1.46
689.582	8.46
689.611	4.46
689.641	0.46
689.67	-3.54
689.7	2.46
689.73	8.46
689.759	8.46
689.789	10.46
689.818	-2.54
689.848	-2.54
689.877	0.46
689.906	-17.54
689.936	1.46
689.965	25.46
689.995	13.46
690.024	12.46
690.054	3.46
690.083	5.46
690.113	12.46
690.142	1.46
690.172	11.46
690.201	13.46
690.231	14.46
690.26	22.46
690.29	14.46
690.319	16.46
690.348	4.46
690.378	-5.54
690.407	-8.54
690.437	-5.54
690.466	-7.54
690.496	4.46
690.525	24.46
690.555	0.46
690.584	-4.54
690.613	-5.54
690.643	16.46
690.672	3.46
690.702	14.46
690.731	9.46
690.76	11.46
690.79	1.46
690.819	-5.54
690.849	-9.54
690.878	0.46
690.907	1.46
690.937	5.46
690.966	1.46
690.996	-4.54
691.025	1.46
691.054	8.46
691.084	5.46
691.113	9.46
691.142	11.46
691.172	8.46
691.201	2.46
691.23	-1.54
691.26	2.46
691.289	9.46
691.319	-6.54
691.348	2.46
691.377	10.46
691.407	-3.54
691.436	9.46
691.465	-1.54
691.495	-1.54
691.524	3.46
691.553	0.46
691.583	-11.54
691.612	21.46
691.641	7.46
691.67	8.46
691.7	4.46
691.729	-6.54
691.758	13.46
691.788	-2.54
691.817	-3.54
691.846	7.46
691.876	-1.54
691.905	-8.54
691.934	-9.54
691.963	12.46
691.993	9.46
692.022	-14.54
692.051	-11.54
692.081	21.46
692.11	20.46
692.139	8.46
692.168	-10.54
692.198	25.46
692.227	14.46
692.256	6.46
692.285	3.46
692.315	7.46
692.344	10.46
692.373	2.46
692.402	-4.54
692.432	4.46
692.461	-3.54
692.49	4.46
692.519	12.46
692.548	-8.54
692.578	12.46
692.607	-14.54
692.636	-3.54
692.665	32.46
692.694	-11.54
692.724	11.46
692.753	2.46
692.782	25.46
692.811	-2.54
692.84	-4.54
692.87	-2.54
692.899	5.46
692.928	-0.54
692.957	12.46
692.986	15.46
693.016	12.46
693.045	9.46
693.074	14.46
693.103	2.46
693.132	5.46
693.161	17.46
693.191	4.46
693.22	-6.54
693.249	1.46
693.278	-8.54
693.307	14.46
693.336	-15.54
693.365	-12.54
693.395	-3.54
693.424	7.46
693.453	17.46
693.482	7.46
693.511	4.46
693.54	3.46
693.569	12.46
693.598	1.46
693.628	-0.54
693.657	-4.54
693.686	28.46
693.715	24.46
693.744	3.46
693.773	17.46
693.802	13.46
693.831	7.46
693.86	10.46
693.889	-3.54
693.919	26.46
693.948	5.46
693.977	10.46
694.006	5.46
694.035	5.46
694.064	-5.54
694.093	2.46
694.122	-2.54
694.151	1.46
694.18	13.46
694.209	41.46
694.238	7.46
694.267	30.46
694.296	16.46
694.325	20.46
694.354	20.46
694.383	9.46
694.412	7.46
694.441	-0.54
694.471	-18.54
694.5	-6.54
694.529	-12.54
694.558	19.46
694.587	41.46
694.616	14.46
694.645	12.46
694.674	12.46
694.703	12.46
694.732	2.46
694.761	10.46
694.79	1.46
694.819	-11.54
694.848	2.46
694.877	27.46
694.906	21.46
694.935	5.46
694.963	24.46
694.992	15.46
695.021	10.46
695.05	6.46
695.079	27.46
695.108	13.46
695.137	22.46
695.166	9.46
695.195	-10.54
695.224	9.46
695.253	24.46
695.282	16.46
695.311	1.46
695.34	0.46
695.369	11.46
695.398	19.46
695.427	17.46
695.456	5.46
695.485	-0.54
695.513	3.46
695.542	5.46
695.571	6.46
695.6	29.46
695.629	16.46
695.658	14.46
695.687	9.46
695.716	4.46
695.745	17.46
695.774	2.46
695.802	2.46
695.831	20.46
695.86	3.46
695.889	14.46
695.918	4.46
695.947	-4.54
695.976	-5.54
696.005	5.46
696.033	-2.54
696.062	8.46
696.091	2.46
696.12	12.46
696.149	20.46
696.178	2.46
696.207	9.46
696.235	-15.54
696.264	-6.54
696.293	-1.54
696.322	14.46
696.351	16.46
696.38	-2.54
696.408	0.46
696.437	9.46
696.466	29.46
696.495	28.46
696.524	32.46
696.553	16.46
696.581	16.46
696.61	1.46
696.639	-21.54
696.668	7.46
696.697	0.46
696.725	9.46
696.754	3.46
696.783	-1.54
696.812	7.46
696.84	11.46
696.869	18.46
696.898	-11.54
696.927	7.46
696.956	12.46
696.984	2.46
697.013	19.46
697.042	5.46
697.071	7.46
697.099	14.46
697.128	10.46
697.157	13.46
697.186	2.46
697.214	-2.54
697.243	19.46
697.272	-3.54
697.301	-2.54
697.329	-0.54
697.358	7.46
697.387	33.46
697.415	5.46
697.444	0.46
697.473	-6.54
697.502	-14.54
697.53	12.46
697.559	3.46
697.588	16.46
697.616	7.46
697.645	14.46
697.674	22.46
697.703	4.46
697.731	15.46
697.76	10.46
697.789	9.46
697.817	15.46
697.846	10.46
697.875	4.46
697.903	6.46
697.932	21.46
697.961	23.46
697.989	13.46
698.018	9.46
698.047	5.46
698.075	15.46
698.104	4.46
698.133	-2.54
698.161	4.46
698.19	6.46
698.218	1.46
698.247	3.46
698.276	-6.54
698.304	17.46
698.333	4.46
698.362	11.46
698.39	0.46
698.419	14.46
698.447	0.46
698.476	3.46
698.505	10.46
698.533	19.46
698.562	17.46
698.591	4.46
698.619	-2.54
698.648	20.46
698.676	10.46
698.705	-11.54
698.733	-0.54
698.762	3.46
698.791	10.46
698.819	-1.54
698.848	9.46
698.876	17.46
698.905	9.46
698.933	17.46
698.962	9.46
698.991	8.46
699.019	27.46
699.048	2.46
699.076	13.46
699.105	3.46
699.133	-1.54
699.162	6.46
699.19	30.46
699.219	6.46
699.248	8.46
699.276	11.46
699.305	-21.54
699.333	4.46
699.362	10.46
699.39	19.46
699.419	-0.54
699.447	9.46
699.476	18.46
699.504	5.46
699.533	11.46
699.561	-0.54
699.59	-1.54
699.618	14.46
699.647	21.46
699.675	-1.54
699.704	11.46
699.732	1.46
699.761	11.46
699.789	1.46
699.818	-0.54
699.846	-1.54
699.874	-5.54
699.903	3.46
699.931	-6.54
699.96	10.46
699.988	-5.54
700.017	-4.54
700.045	0.46
700.074	-5.54
700.102	-2.54
700.13	8.46
700.159	17.46
700.187	22.46
700.216	4.46
700.244	9.46
700.273	12.46
700.301	17.46
700.329	9.46
700.358	17.46
700.386	7.46
700.415	4.46
700.443	16.46
700.472	0.46
700.5	2.46
700.528	18.46
700.557	6.46
700.585	5.46
700.614	4.46
700.642	25.46
700.67	23.46
700.699	18.46
700.727	10.46
700.755	13.46
700.784	9.46
700.812	-7.54
700.841	9.46
700.869	12.46
700.897	-16.54
700.926	8.46
700.954	12.46
700.982	9.46
701.011	7.46
701.039	6.46
701.067	11.46
701.096	15.46
701.124	1.46
701.152	11.46
701.181	2.46
701.209	-11.54
701.237	-4.54
701.266	-12.54
701.294	-5.54
701.322	-1.54
701.351	7.46
701.379	-1.54
701.407	-2.54
701.435	20.46
701.464	6.46
701.492	20.46
701.52	3.46
701.549	6.46
701.577	-6.54
701.605	11.46
701.634	2.46
701.662	15.46
701.69	-6.54
701.718	-2.54
701.747	8.46
701.775	7.46
701.803	-11.54
701.831	7.46
701.86	1.46
701.888	-2.54
701.916	4.46
701.944	1.46
701.973	2.46
702.001	-1.54
702.029	-19.54
702.057	-9.54
702.086	-7.54
702.114	-2.54
702.142	15.46
702.17	-10.54
702.199	12.46
702.227	10.46
702.255	1.46
702.283	-3.54
702.311	4.46
702.34	-0.54
702.368	-3.54
702.396	-1.54
702.424	-5.54
702.452	-7.54
702.481	2.46
702.509	-5.54
702.537	8.46
702.565	8.46
702.593	1.46
702.621	1.46
702.65	-0.54
702.678	9.46
702.706	14.46
702.734	2.46
702.762	10.46
702.79	9.46
702.819	6.46
702.847	5.46
702.875	20.46
702.903	19.46
702.931	-9.54
702.959	-8.54
702.988	1.46
703.016	-4.54
703.044	1.46
703.072	-0.54
703.1	-4.54
703.128	-1.54
703.156	16.46
703.184	6.46
703.212	20.46
703.241	9.46
703.269	4.46
703.297	4.46
703.325	1.46
703.353	-11.54
703.381	-23.54
703.409	9.46
703.437	0.46
703.465	-11.54
703.493	-9.54
703.522	25.46
703.55	17.46
703.578	6.46
703.606	-2.54
703.634	-2.54
703.662	-13.54
703.69	-1.54
703.718	6.46
703.746	12.46
703.774	8.46
703.802	4.46
703.83	17.46
703.858	10.46
703.886	-3.54
703.914	-21.54
703.942	22.46
703.97	5.46
703.998	0.46
704.027	15.46
704.055	-1.54
704.083	6.46
704.111	-14.54
704.139	2.46
704.167	1.46
704.195	2.46
704.223	9.46
704.251	-9.54
704.279	18.46
704.307	-8.54
704.335	-5.54
704.363	6.46
704.391	2.46
704.419	-2.54
704.447	-13.54
704.475	-6.54
704.503	8.46
704.531	13.46
704.558	2.46
704.586	5.46
704.614	2.46
704.642	6.46
704.67	-11.54
704.698	-10.54
704.726	-2.54
704.754	20.46
704.782	-15.54
704.81	9.46
704.838	15.46
704.866	1.46
704.894	-9.54
704.922	5.46
704.95	26.46
704.978	14.46
705.006	4.46
705.034	15.46
705.061	-2.54
705.089	-1.54
705.117	2.46
705.145	8.46
705.173	8.46
705.201	12.46
705.229	14.46
705.257	0.46
705.285	11.46
705.313	14.46
705.34	13.46
705.368	-1.54
705.396	-2.54
705.424	5.46
705.452	-1.54
705.48	-4.54
705.508	0.46
705.536	-14.54
705.563	-9.54
705.591	12.46
705.619	12.46
705.647	5.46
705.675	2.46
705.703	4.46
705.731	2.46
705.758	1.46
705.786	-4.54
705.814	34.46
705.842	4.46
705.87	9.46
705.898	5.46
705.925	-2.54
705.953	13.46
705.981	0.46
706.009	5.46
706.037	8.46
706.065	-13.54
706.092	7.46
706.12	15.46
706.148	1.46
706.176	-14.54
706.204	22.46
706.231	4.46
706.259	-3.54
706.287	-10.54
706.315	5.46
706.342	-1.54
706.37	7.46
706.398	2.46
706.426	10.46
706.454	3.46
706.481	6.46
706.509	8.46
706.537	-1.54
706.565	-10.54
706.592	-3.54
706.62	-6.54
706.648	1.46
706.676	-23.54
706.703	2.46
706.731	-2.54
706.759	-8.54
706.787	7.46
706.814	7.46
706.842	9.46
706.87	-1.54
706.897	-1.54
706.925	-12.54
706.953	14.46
706.981	13.46
707.008	22.46
707.036	2.46
707.064	0.46
707.091	-23.54
707.119	16.46
707.147	17.46
707.174	-5.54
707.202	20.46
707.23	-11.54
707.258	8.46
707.285	-14.54
707.313	-1.54
707.341	-11.54
707.368	-4.54
707.396	1.46
707.424	20.46
707.451	3.46
707.479	9.46
707.507	2.46
707.534	2.46
707.562	14.46
707.59	-7.54
707.617	-2.54
707.645	-2.54
707.672	9.46
707.7	7.46
707.728	1.46
707.755	6.46
707.783	0.46
707.811	9.46
707.838	-14.54
707.866	-2.54
707.893	-1.54
707.921	2.46
707.949	1.46
707.976	5.46
708.004	6.46
708.031	-13.54
708.059	-19.54
708.087	5.46
708.114	8.46
708.142	-15.54
708.169	2.46
708.197	-10.54
708.225	5.46
708.252	-21.54
708.28	-5.54
708.307	-4.54
708.335	-5.54
708.362	-2.54
708.39	-6.54
708.418	-1.54
708.445	-7.54
708.473	-8.54
708.5	7.46
708.528	19.46
708.555	4.46
708.583	5.46
708.61	-2.54
708.638	13.46
708.665	-11.54
708.693	8.46
708.72	0.46
708.748	-11.54
708.776	-3.54
708.803	-4.54
708.831	1.46
708.858	7.46
708.886	0.46
708.913	-4.54
708.941	-12.54
708.968	18.46
708.996	-2.54
709.023	18.46
709.051	1.46
709.078	3.46
709.105	17.46
709.133	4.46
709.16	0.46
709.188	17.46
709.215	8.46
709.243	2.46
709.27	-25.54
709.298	-10.54
709.325	-18.54
709.353	-11.54
709.38	-11.54
709.408	0.46
709.435	0.46
709.462	2.46
709.49	5.46
709.517	8.46
709.545	-10.54
709.572	-4.54
709.6	11.46
709.627	-3.54
709.655	-3.54
709.682	8.46
709.709	1.46
709.737	9.46
709.764	-1.54
709.792	16.46
709.819	8.46
709.846	-10.54
709.874	4.46
709.901	18.46
709.929	20.46
709.956	14.46
709.983	-7.54
710.011	-5.54
710.038	-8.54
710.066	-5.54
710.093	15.46
710.12	5.46
710.148	5.46
710.175	-10.54
710.202	-17.54
710.23	-5.54
710.257	12.46
710.284	9.46
710.312	-3.54
710.339	4.46
710.366	-2.54
710.394	0.46
710.421	10.46
710.448	8.46
710.476	-15.54
710.503	-5.54
710.53	11.46
710.558	17.46
710.585	8.46
710.612	3.46
710.64	5.46
710.667	2.46
710.694	-2.54
710.722	-19.54
710.749	-11.54
710.776	-0.54
710.804	17.46
710.831	3.46
710.858	1.46
710.885	-9.54
710.913	-11.54
710.94	2.46
710.967	-7.54
710.995	-0.54
711.022	-5.54
711.049	9.46
711.076	12.46
711.104	-2.54
711.131	-25.54
711.158	-9.54
711.185	16.46
711.213	-15.54
711.24	-1.54
711.267	3.46
711.294	-7.54
711.322	-6.54
711.349	-3.54
711.376	-0.54
711.403	15.46
711.431	-9.54
711.458	10.46
711.485	-1.54
711.512	8.46
711.54	-12.54
711.567	-1.54
711.594	-9.54
711.621	-14.54
711.648	-9.54
711.676	2.46
711.703	5.46
711.73	-17.54
711.757	11.46
711.784	8.46
711.812	8.46
711.839	2.46
711.866	-14.54
711.893	-10.54
711.92	5.46
711.947	10.46
711.975	8.46
712.002	2.46
712.029	13.46
712.056	-2.54
712.083	-1.54
712.11	-11.54
712.138	4.46
712.165	10.46
712.192	4.46
712.219	-12.54
712.246	7.46
712.273	0.46
712.3	-2.54
712.328	-2.54
712.355	-12.54
712.382	-12.54
712.409	13.46
712.436	-21.54
712.463	-6.54
712.49	14.46
712.517	11.46
712.544	7.46
712.572	-4.54
712.599	-8.54
712.626	3.46
712.653	-18.54
712.68	-14.54
712.707	5.46
712.734	9.46
712.761	-1.54
712.788	5.46
712.815	-9.54
712.842	5.46
712.87	1.46
712.897	-21.54
712.924	-8.54
712.951	-16.54
712.978	19.46
713.005	17.46
713.032	19.46
713.059	-9.54
713.086	-7.54
713.113	-11.54
713.14	-2.54
713.167	-4.54
713.194	5.46
713.221	-1.54
713.248	12.46
713.275	9.46
713.302	-11.54
713.329	-3.54
713.356	-2.54
713.383	12.46
713.41	10.46
713.437	-3.54
713.464	-5.54
713.491	17.46
713.518	-0.54
713.545	-7.54
713.572	-5.54
713.599	12.46
713.626	4.46
713.653	10.46
713.68	-1.54
713.707	-4.54
713.734	14.46
713.761	8.46
713.788	-6.54
713.815	5.46
713.842	-9.54
713.869	2.46
713.896	-3.54
713.923	-2.54
713.95	-1.54
713.977	-4.54
714.004	6.46
714.031	-2.54
714.058	4.46
714.085	6.46
714.112	5.46
714.139	-5.54
714.165	-7.54
714.192	3.46
714.219	1.46
714.246	8.46
714.273	2.46
714.3	-5.54
714.327	-1.54
714.354	5.46
714.381	-6.54
714.408	-6.54
714.435	-7.54
714.461	-4.54
714.488	6.46
714.515	-2.54
714.542	-14.54
714.569	-10.54
714.596	-20.54
714.623	-3.54
714.65	-2.54
714.677	-0.54
714.703	9.46
714.73	-1.54
714.757	6.46
714.784	12.46
714.811	-8.54
714.838	-2.54
714.865	-1.54
714.891	-2.54
714.918	-0.54
714.945	-18.54
714.972	-2.54
714.999	7.46
715.026	-1.54
715.052	12.46
715.079	10.46
715.106	2.46
715.133	0.46
715.16	-7.54
715.187	4.46
715.213	0.46
715.24	-10.54
715.267	6.46
715.294	-9.54
715.321	-3.54
715.347	7.46
715.374	-5.54
715.401	-2.54
715.428	-10.54
715.455	6.46
715.481	-9.54
715.508	8.46
715.535	-4.54
715.562	5.46
715.588	2.46
715.615	-6.54
715.642	-9.54
715.669	3.46
715.695	-0.54
715.722	-1.54
715.749	10.46
715.776	1.46
715.802	4.46
715.829	0.46
715.856	-19.54
715.883	7.46
715.909	1.46
715.936	9.46
715.963	1.46
715.99	-6.54
716.016	11.46
716.043	2.46
716.07	-5.54
716.096	-18.54
716.123	-24.54
716.15	5.46
716.177	-5.54
716.203	7.46
716.23	6.46
716.257	-1.54
716.283	21.46
716.31	0.46
716.337	8.46
716.363	-9.54
716.39	-6.54
716.417	9.46
716.443	-3.54
716.47	21.46
716.497	13.46
716.523	9.46
716.55	0.46
716.577	6.46
716.603	-6.54
716.63	0.46
716.657	15.46
716.683	1.46
716.71	-2.54
716.737	3.46
716.763	-7.54
716.79	7.46
716.817	2.46
716.843	10.46
716.87	-2.54
716.897	6.46
716.923	8.46
716.95	-0.54
716.976	2.46
717.003	-13.54
717.03	16.46
717.056	-10.54
717.083	3.46
717.109	-4.54
717.136	3.46
717.163	4.46
717.189	12.46
717.216	7.46
717.242	-14.54
717.269	-1.54
717.296	8.46
717.322	26.46
717.349	21.46
717.375	8.46
717.402	-3.54
717.428	4.46
717.455	5.46
717.481	9.46
717.508	15.46
717.535	21.46
717.561	-15.54
717.588	2.46
717.614	-3.54
717.641	5.46
717.667	1.46
717.694	9.46
717.72	4.46
717.747	-7.54
717.773	-10.54
717.8	13.46
717.826	3.46
717.853	3.46
717.88	1.46
717.906	5.46
717.933	9.46
717.959	-3.54
717.986	2.46
718.012	-3.54
718.039	2.46
718.065	4.46
718.092	10.46
718.118	1.46
718.144	-5.54
718.171	15.46
718.197	17.46
718.224	2.46
718.25	1.46
718.277	5.46
718.303	5.46
718.33	16.46
718.356	-1.54
718.383	-5.54
718.409	-10.54
718.436	-2.54
718.462	5.46
718.489	-3.54
718.515	12.46
718.541	16.46
718.568	1.46
718.594	-1.54
718.621	5.46
718.647	-4.54
718.674	1.46
718.7	2.46
718.726	0.46
718.753	10.46
718.779	24.46
718.806	-8.54
718.832	-15.54
718.858	5.46
718.885	0.46
718.911	-1.54
718.938	-5.54
718.964	-3.54
718.99	1.46
719.017	-6.54
719.043	6.46
719.07	12.46
719.096	-15.54
719.122	10.46
719.149	3.46
719.175	1.46
719.201	2.46
719.228	-2.54
719.254	0.46
719.281	-11.54
719.307	0.46
719.333	13.46
719.36	17.46
719.386	-5.54
719.412	-5.54
719.439	-5.54
719.465	1.46
719.491	0.46
719.518	0.46
719.544	-6.54
719.57	12.46
719.597	3.46
719.623	1.46
719.649	5.46
719.675	12.46
719.702	6.46
719.728	11.46
719.754	-7.54
719.781	-3.54
719.807	10.46
719.833	11.46
719.86	0.46
719.886	-1.54
719.912	14.46
719.938	1.46
719.965	1.46
719.991	8.46
720.017	-2.54
720.044	-6.54
720.07	-1.54
720.096	4.46
720.122	16.46
720.149	17.46
720.175	15.46
720.201	14.46
720.227	-2.54
720.254	6.46
720.28	-4.54
720.306	-13.54
720.332	9.46
720.359	4.46
720.385	-4.54
720.411	14.46
720.437	20.46
720.463	14.46
720.49	-2.54
720.516	8.46
720.542	-9.54
720.568	-6.54
720.595	0.46
720.621	-12.54
720.647	-0.54
720.673	9.46
720.699	-9.54
720.725	-1.54
720.752	26.46
720.778	12.46
720.804	11.46
720.83	14.46
720.856	-4.54
720.883	-6.54
720.909	-2.54
720.935	9.46
720.961	13.46
720.987	4.46
721.013	12.46
721.04	-4.54
721.066	1.46
721.092	3.46
721.118	11.46
721.144	-8.54
721.17	-3.54
721.196	-7.54
721.223	-7.54
721.249	2.46
721.275	27.46
721.301	1.46
721.327	9.46
721.353	1.46
721.379	-6.54
721.405	13.46
721.432	13.46
721.458	6.46
721.484	10.46
721.51	-7.54
721.536	3.46
721.562	5.46
721.588	9.46
721.614	3.46
721.64	-1.54
721.666	-6.54
721.693	10.46
721.719	-7.54
721.745	0.46
721.771	13.46
721.797	2.46
721.823	11.46
721.849	20.46
721.875	-2.54
721.901	0.46
721.927	-6.54
721.953	14.46
721.979	21.46
722.005	10.46
722.031	10.46
722.057	25.46
722.083	-6.54
722.109	6.46
722.135	7.46
722.161	2.46
722.187	0.46
722.214	-11.54
722.24	-7.54
722.266	-8.54
722.292	7.46
722.318	18.46
722.344	-3.54
722.37	10.46
722.396	11.46
722.422	-2.54
722.448	6.46
722.474	-18.54
722.5	14.46
722.526	6.46
722.552	-4.54
722.578	3.46
722.603	-5.54
722.629	-5.54
722.655	-4.54
722.681	-12.54
722.707	3.46
722.733	4.46
722.759	-6.54
722.785	-2.54
722.811	-3.54
722.837	1.46
722.863	13.46
722.889	8.46
722.915	-4.54
722.941	-6.54
722.967	10.46
722.993	5.46
723.019	2.46
723.045	0.46
723.071	6.46
723.097	18.46
723.122	11.46
723.148	4.46
723.174	-3.54
723.2	13.46
723.226	-0.54
723.252	-10.54
723.278	-11.54
723.304	0.46
723.33	5.46
723.356	-2.54
723.381	-14.54
723.407	-16.54
723.433	1.46
723.459	-10.54
723.485	6.46
723.511	-11.54
723.537	-4.54
723.563	-6.54
723.588	2.46
723.614	3.46
723.64	13.46
723.666	-4.54
723.692	16.46
723.718	1.46
723.744	1.46
723.769	-3.54
723.795	-1.54
723.821	7.46
723.847	4.46
723.873	20.46
723.899	1.46
723.924	6.46
723.95	6.46
723.976	-19.54
724.002	6.46
724.028	15.46
724.053	-3.54
724.079	-3.54
724.105	-2.54
724.131	4.46
724.157	0.46
724.182	-5.54
724.208	-7.54
724.234	-3.54
724.26	-1.54
724.286	22.46
724.311	10.46
724.337	-10.54
724.363	11.46
724.389	5.46
724.415	0.46
724.44	21.46
724.466	5.46
724.492	2.46
724.518	10.46
724.543	-1.54
724.569	13.46
724.595	9.46
724.621	-19.54
724.646	-15.54
724.672	8.46
724.698	10.46
724.723	-8.54
724.749	-7.54
724.775	15.46
724.801	16.46
724.826	-0.54
724.852	-3.54
724.878	-5.54
724.904	-9.54
724.929	7.46
724.955	-3.54
724.981	8.46
725.006	-2.54
725.032	-4.54
725.058	-11.54
725.083	1.46
725.109	-3.54
725.135	-7.54
725.161	-3.54
725.186	6.46
725.212	-4.54
725.238	11.46
725.263	0.46
725.289	-11.54
725.315	-15.54
725.34	-9.54
725.366	-2.54
725.392	0.46
725.417	-2.54
725.443	-5.54
725.468	13.46
725.494	29.46
725.52	12.46
725.545	5.46
725.571	0.46
725.597	10.46
725.622	16.46
725.648	5.46
725.674	0.46
725.699	9.46
725.725	11.46
725.75	14.46
725.776	-1.54
725.802	14.46
725.827	11.46
725.853	-5.54
725.878	-1.54
725.904	-2.54
725.93	4.46
725.955	-11.54
725.981	-13.54
726.006	12.46
726.032	8.46
726.057	-15.54
726.083	-13.54
726.109	-3.54
726.134	-8.54
726.16	4.46
726.185	0.46
726.211	-6.54
726.236	-5.54
726.262	7.46
726.288	11.46
726.313	12.46
726.339	9.46
726.364	3.46
726.39	15.46
726.415	-7.54
726.441	8.46
726.466	1.46
726.492	-3.54
726.517	12.46
726.543	8.46
726.568	-8.54
726.594	5.46
726.619	-2.54
726.645	9.46
726.67	-4.54
726.696	10.46
726.721	7.46
726.747	-6.54
726.772	9.46
726.798	-8.54
726.823	7.46
726.849	-4.54
726.874	0.46
726.9	19.46
726.925	11.46
726.951	-4.54
726.976	7.46
727.002	0.46
727.027	7.46
727.053	14.46
727.078	-7.54
727.104	15.46
727.129	-15.54
727.155	-4.54
727.18	4.46
727.205	7.46
727.231	-3.54
727.256	4.46
727.282	13.46
727.307	8.46
727.333	0.46
727.358	9.46
727.383	-11.54
727.409	-5.54
727.434	-1.54
727.46	-0.54
727.485	-8.54
727.511	10.46
727.536	0.46
727.561	-6.54
727.587	-2.54
727.612	-9.54
727.637	-8.54
727.663	-1.54
727.688	5.46
727.714	-4.54
727.739	-7.54
727.764	4.46
727.79	-3.54
727.815	11.46
727.841	8.46
727.866	6.46
727.891	4.46
727.917	-4.54
727.942	-10.54
727.967	-8.54
727.993	-6.54
728.018	-9.54
728.043	16.46
728.069	7.46
728.094	-1.54
728.119	0.46
728.145	9.46
728.17	2.46
728.195	10.46
728.221	17.46
728.246	0.46
728.271	1.46
728.297	10.46
728.322	14.46
728.347	4.46
728.373	0.46
728.398	0.46
728.423	0.46
728.448	6.46
728.474	23.46
728.499	5.46
728.524	-7.54
728.55	-14.54
728.575	-10.54
728.6	5.46
728.625	7.46
728.651	17.46
728.676	18.46
728.701	-4.54
728.727	0.46
728.752	1.46
728.777	-1.54
728.802	12.46
728.828	-6.54
728.853	-3.54
728.878	-6.54
728.903	1.46
728.929	-12.54
728.954	-7.54
728.979	7.46
729.004	-5.54
729.03	-6.54
729.055	10.46
729.08	-10.54
729.105	-9.54
729.13	16.46
729.156	1.46
729.181	9.46
729.206	-11.54
729.231	8.46
729.256	0.46
729.282	8.46
729.307	-10.54
729.332	-14.54
729.357	-7.54
729.382	-3.54
729.408	2.46
729.433	-0.54
729.458	-2.54
729.483	11.46
729.508	20.46
729.533	5.46
729.559	4.46
729.584	-11.54
729.609	5.46
729.634	0.46
729.659	-1.54
729.684	-21.54
729.71	10.46
729.735	-0.54
729.76	-4.54
729.785	-6.54
729.81	12.46
729.835	-3.54
729.86	-1.54
729.886	5.46
729.911	8.46
729.936	2.46
729.961	13.46
729.986	-12.54
730.011	-4.54
730.036	-7.54
730.061	1.46
730.086	2.46
730.112	-2.54
730.137	19.46
730.162	-4.54
730.187	-17.54
730.212	5.46
730.237	3.46
730.262	9.46
730.287	-6.54
730.312	19.46
730.337	-5.54
730.362	0.46
730.387	-0.54
730.413	-4.54
730.438	-1.54
730.463	-4.54
730.488	2.46
730.513	5.46
730.538	-4.54
730.563	-1.54
730.588	4.46
730.613	24.46
730.638	2.46
730.663	1.46
730.688	13.46
730.713	21.46
730.738	-6.54
730.763	0.46
730.788	-4.54
730.813	21.46
730.838	-5.54
730.863	0.46
730.888	-1.54
730.913	-23.54
730.938	-14.54
730.963	-4.54
730.988	-8.54
731.013	8.46
731.038	-3.54
731.063	-5.54
731.088	9.46
731.113	6.46
731.138	-8.54
731.163	-4.54
731.188	-17.54
731.213	-2.54
731.238	12.46
731.263	-10.54
731.288	4.46
731.313	4.46
731.338	-1.54
731.363	9.46
731.388	-2.54
731.413	-7.54
731.438	7.46
731.463	3.46
731.487	7.46
731.512	-2.54
731.537	-3.54
731.562	-3.54
731.587	11.46
731.612	-1.54
731.637	-11.54
731.662	-10.54
731.687	1.46
731.712	-2.54
731.737	15.46
731.762	5.46
731.786	13.46
731.811	2.46
731.836	-3.54
731.861	-0.54
731.886	-6.54
731.911	-3.54
731.936	4.46
731.961	-5.54
731.986	2.46
732.01	5.46
732.035	-2.54
732.06	21.46
732.085	-1.54
732.11	-7.54
732.135	-14.54
732.16	5.46
732.184	1.46
732.209	-5.54
732.234	-3.54
732.259	-1.54
732.284	22.46
732.309	-7.54
732.334	-0.54
732.358	-4.54
732.383	-2.54
732.408	-2.54
732.433	3.46
732.458	3.46
732.482	-6.54
732.507	-14.54
732.532	6.46
732.557	1.46
732.582	19.46
732.607	11.46
732.631	-14.54
732.656	-5.54
732.681	2.46
732.706	-11.54
732.73	14.46
732.755	11.46
732.78	9.46
732.805	-9.54
732.83	3.46
732.854	1.46
732.879	1.46
732.904	-9.54
732.929	0.46
732.953	5.46
732.978	11.46
733.003	-0.54
733.028	-11.54
733.052	1.46
733.077	2.46
733.102	-4.54
733.127	-11.54
733.151	-3.54
733.176	4.46
733.201	-8.54
733.226	-2.54
733.25	12.46
733.275	1.46
733.3	7.46
733.324	20.46
733.349	21.46
733.374	12.46
733.399	0.46
733.423	-18.54
733.448	-9.54
733.473	-5.54
733.497	4.46
733.522	-1.54
733.547	1.46
733.571	19.46
733.596	3.46
733.621	13.46
733.646	-0.54
733.67	15.46
733.695	5.46
733.72	9.46
733.744	7.46
733.769	0.46
733.794	12.46
733.818	11.46
733.843	4.46
733.867	-17.54
733.892	-6.54
733.917	-0.54
733.941	4.46
733.966	3.46
733.991	-1.54
734.015	18.46
734.04	-2.54
734.065	9.46
734.089	18.46
734.114	-2.54
734.138	2.46
734.163	-2.54
734.188	4.46
734.212	7.46
734.237	8.46
734.261	9.46
734.286	-0.54
734.311	-13.54
734.335	0.46
734.36	0.46
734.384	13.46
734.409	12.46
734.434	-5.54
734.458	2.46
734.483	-3.54
734.507	3.46
734.532	0.46
734.556	0.46
734.581	-2.54
734.606	4.46
734.63	3.46
734.655	2.46
734.679	7.46
734.704	-1.54
734.728	-1.54
734.753	-2.54
734.777	7.46
734.802	-4.54
734.826	15.46
734.851	-1.54
734.876	3.46
734.9	11.46
734.925	4.46
734.949	-10.54
734.974	7.46
734.998	17.46
735.023	-9.54
735.047	-6.54
735.072	4.46
735.096	-5.54
735.121	5.46
735.145	-2.54
735.17	-15.54
735.194	10.46
735.219	12.46
735.243	6.46
735.268	-2.54
735.292	3.46
735.317	1.46
735.341	4.46
735.365	-11.54
735.39	-3.54
735.414	8.46
735.439	5.46
735.463	-0.54
735.488	4.46
735.512	1.46
735.537	-3.54
735.561	-2.54
735.586	10.46
735.61	0.46
735.634	-14.54
735.659	1.46
735.683	13.46
735.708	5.46
735.732	-1.54
735.757	-3.54
735.781	15.46
735.805	14.46
735.83	-2.54
735.854	0.46
735.879	-15.54
735.903	17.46
735.927	-5.54
735.952	13.46
735.976	-5.54
736.001	-0.54
736.025	-0.54
736.049	1.46
736.074	-8.54
736.098	-9.54
736.123	0.46
736.147	15.46
736.171	12.46
736.196	9.46
736.22	3.46
736.244	9.46
736.269	-1.54
736.293	5.46
736.317	4.46
736.342	12.46
736.366	10.46
736.39	-2.54
736.415	8.46
736.439	2.46
736.463	10.46
736.488	2.46
736.512	-1.54
736.536	0.46
736.561	21.46
736.585	8.46
736.609	4.46
736.634	-11.54
736.658	-2.54
736.682	-6.54
736.707	-18.54
736.731	-13.54
736.755	-3.54
736.78	22.46
736.804	7.46
736.828	1.46
736.852	-6.54
736.877	4.46
736.901	8.46
736.925	5.46
736.949	10.46
736.974	6.46
736.998	4.46
737.022	18.46
737.047	2.46
737.071	-6.54
737.095	19.46
737.119	18.46
737.144	17.46
737.168	-0.54
737.192	-8.54
737.216	10.46
737.241	2.46
737.265	-2.54
737.289	-3.54
737.313	0.46
737.337	1.46
737.362	4.46
737.386	7.46
737.41	-8.54
737.434	-1.54
737.459	1.46
737.483	7.46
737.507	16.46
737.531	19.46
737.555	9.46
737.58	11.46
737.604	-3.54
737.628	-10.54
737.652	1.46
737.676	8.46
737.701	4.46
737.725	7.46
737.749	13.46
737.773	7.46
737.797	-2.54
737.821	-3.54
737.846	4.46
737.87	43.46
737.894	9.46
737.918	-11.54
737.942	1.46
737.966	21.46
737.99	21.46
738.015	2.46
738.039	11.46
738.063	0.46
738.087	18.46
738.111	-2.54
738.135	1.46
738.159	-1.54
738.184	7.46
738.208	16.46
738.232	0.46
738.256	14.46
738.28	14.46
738.304	20.46
738.328	0.46
738.352	4.46
738.376	8.46
738.4	15.46
738.425	-0.54
738.449	2.46
738.473	16.46
738.497	-3.54
738.521	-3.54
738.545	-4.54
738.569	-0.54
738.593	24.46
738.617	6.46
738.641	-0.54
738.665	1.46
738.689	3.46
738.713	9.46
738.737	13.46
738.762	28.46
738.786	13.46
738.81	-13.54
738.834	23.46
738.858	-6.54
738.882	3.46
738.906	13.46
738.93	1.46
738.954	-0.54
738.978	6.46
739.002	11.46
739.026	0.46
739.05	13.46
739.074	-6.54
739.098	13.46
739.122	12.46
739.146	8.46
739.17	11.46
739.194	3.46
739.218	5.46
739.242	1.46
739.266	-12.54
739.29	2.46
739.314	4.46
739.338	7.46
739.362	15.46
739.386	5.46
739.41	7.46
739.434	4.46
739.458	17.46
739.482	21.46
739.506	18.46
739.53	3.46
739.554	8.46
739.577	-14.54
739.601	-2.54
739.625	0.46
739.649	-10.54
739.673	-13.54
739.697	8.46
739.721	-6.54
739.745	11.46
739.769	32.46
739.793	14.46
739.817	3.46
739.841	-1.54
739.865	-7.54
739.889	-1.54
739.912	0.46
739.936	-11.54
739.96	-13.54
739.984	16.46
740.008	14.46
740.032	-13.54
740.056	3.46
740.08	-12.54
740.104	2.46
740.127	17.46
740.151	15.46
740.175	8.46
740.199	5.46
740.223	39.46
740.247	9.46
740.271	2.46
740.295	0.46
740.318	-7.54
740.342	-6.54
740.366	5.46
740.39	0.46
740.414	-9.54
740.438	-2.54
740.461	22.46
740.485	-3.54
740.509	-6.54
740.533	0.46
740.557	-11.54
740.581	-3.54
740.604	-14.54
740.628	-2.54
740.652	17.46
740.676	-8.54
740.7	20.46
740.723	-3.54
740.747	-3.54
740.771	-4.54
740.795	0.46
740.819	-4.54
740.842	15.46
740.866	10.46
740.89	14.46
740.914	2.46
740.938	-18.54
740.961	1.46
740.985	15.46
741.009	9.46
741.033	22.46
741.056	9.46
741.08	2.46
741.104	1.46
741.128	-1.54
741.151	12.46
741.175	11.46
741.199	4.46
741.223	3.46
741.246	-11.54
741.27	8.46
741.294	10.46
741.318	5.46
741.341	6.46
741.365	6.46
741.389	11.46
741.413	-5.54
741.436	1.46
741.46	0.46
741.484	13.46
741.507	18.46
741.531	22.46
741.555	14.46
741.579	0.46
741.602	14.46
741.626	7.46
741.65	-12.54
741.673	4.46
741.697	-4.54
741.721	4.46
741.744	-4.54
741.768	-3.54
741.792	-3.54
741.815	4.46
741.839	17.46
741.863	14.46
741.886	3.46
741.91	8.46
741.934	11.46
741.957	0.46
741.981	25.46
742.005	2.46
742.028	-12.54
742.052	-7.54
742.075	2.46
742.099	-0.54
742.123	6.46
742.146	-2.54
742.17	7.46
742.194	-8.54
742.217	-2.54
742.241	-7.54
742.264	3.46
742.288	11.46
742.312	-5.54
742.335	-2.54
742.359	15.46
742.382	21.46
742.406	17.46
742.43	4.46
742.453	15.46
742.477	7.46
742.5	6.46
742.524	-12.54
742.548	2.46
742.571	-3.54
742.595	-3.54
742.618	-1.54
742.642	-1.54
742.665	10.46
742.689	-12.54
742.712	11.46
742.736	-11.54
742.76	8.46
742.783	5.46
742.807	2.46
742.83	10.46
742.854	-6.54
742.877	-11.54
742.901	7.46
742.924	-5.54
742.948	4.46
742.971	12.46
742.995	11.46
743.018	-7.54
743.042	4.46
743.065	0.46
743.089	-7.54
743.112	7.46
743.136	-2.54
743.159	-2.54
743.183	14.46
743.206	20.46
743.23	-7.54
743.253	13.46
743.277	20.46
743.3	-12.54
743.324	-6.54
743.347	-3.54
743.371	17.46
743.394	4.46
743.418	21.46
743.441	2.46
743.465	9.46
743.488	1.46
743.512	-14.54
743.535	-6.54
743.558	3.46
743.582	-4.54
743.605	13.46
743.629	13.46
743.652	7.46
743.676	1.46
743.699	4.46
743.723	18.46
743.746	8.46
743.769	7.46
743.793	-6.54
743.816	-1.54
743.84	10.46
743.863	-1.54
743.886	9.46
743.91	10.46
743.933	9.46
743.957	8.46
743.98	-6.54
744.003	-5.54
744.027	5.46
744.05	11.46
744.074	9.46
744.097	-18.54
744.12	-4.54
744.144	-1.54
744.167	6.46
744.19	9.46
744.214	6.46
744.237	-11.54
744.26	3.46
744.284	0.46
744.307	0.46
744.331	4.46
744.354	-9.54
744.377	1.46
744.401	0.46
744.424	-8.54
744.447	-12.54
744.471	0.46
