Data from HighRes_H2_15_09_11_07_2024_HR4C61891__119__15-11-08-301.txt Node

Date: Thu Nov 07 15:11:08 EST 2024
User: crc00042
Spectrometer: HR4C6189
Trigger mode: 4
Integration Time (sec): 1.000000E-1
Scans to average: 1
Electric dark correction enabled: true
Nonlinearity correction enabled: false
Boxcar width: 0
XAxis mode: Wavelengths
Number of Pixels in Spectrum: 3648
>>>>>Begin Spectral Data<<<<<
639.567	-45.46
639.602	-45.46
639.636	-45.46
639.67	-39.46
639.704	-24.46
639.738	-8.46
639.773	3.54
639.807	-18.46
639.841	6.54
639.875	30.54
639.909	-4.46
639.943	-3.46
639.978	-6.46
640.012	-0.46
640.046	3.54
640.08	-0.46
640.114	5.54
640.148	-7.46
640.182	-23.46
640.217	20.54
640.251	17.54
640.285	7.54
640.319	7.54
640.353	2.54
640.387	4.54
640.421	-8.46
640.455	-12.46
640.49	-14.46
640.524	4.54
640.558	15.54
640.592	0.54
640.626	-8.46
640.66	16.54
640.694	-4.46
640.728	1.54
640.762	16.54
640.796	12.54
640.83	3.54
640.865	-9.46
640.899	3.54
640.933	10.54
640.967	-13.46
641.001	5.54
641.035	15.54
641.069	4.54
641.103	-21.46
641.137	-15.46
641.171	-22.46
641.205	10.54
641.239	1.54
641.273	12.54
641.307	22.54
641.341	11.54
641.375	-0.46
641.409	-6.46
641.443	5.54
641.477	-4.46
641.511	14.54
641.545	-4.46
641.579	-14.46
641.614	13.54
641.648	20.54
641.682	-18.46
641.716	6.54
641.75	21.54
641.784	-7.46
641.818	-9.46
641.852	6.54
641.886	12.54
641.919	27.54
641.953	6.54
641.987	-12.46
642.021	-4.46
642.055	-4.46
642.089	7.54
642.123	-5.46
642.157	-14.46
642.191	-10.46
642.225	25.54
642.259	2.54
642.293	14.54
642.327	8.54
642.361	5.54
642.395	6.54
642.429	7.54
642.463	2.54
642.497	13.54
642.531	13.54
642.565	-6.46
642.599	15.54
642.633	-11.46
642.666	-3.46
642.7	9.54
642.734	14.54
642.768	-4.46
642.802	-4.46
642.836	-11.46
642.87	6.54
642.904	3.54
642.938	2.54
642.972	0.54
643.005	4.54
643.039	18.54
643.073	7.54
643.107	1.54
643.141	8.54
643.175	1.54
643.209	-1.46
643.243	8.54
643.276	3.54
643.31	-2.46
643.344	5.54
643.378	12.54
643.412	0.54
643.446	1.54
643.48	-13.46
643.513	8.54
643.547	9.54
643.581	-10.46
643.615	14.54
643.649	5.54
643.683	-0.46
643.716	-11.46
643.75	-3.46
643.784	-11.46
643.818	-14.46
643.852	-3.46
643.886	-1.46
643.919	2.54
643.953	-13.46
643.987	-11.46
644.021	3.54
644.055	-4.46
644.088	-13.46
644.122	-20.46
644.156	-5.46
644.19	0.54
644.224	0.54
644.257	14.54
644.291	13.54
644.325	22.54
644.359	20.54
644.392	28.54
644.426	14.54
644.46	11.54
644.494	-16.46
644.527	-20.46
644.561	-7.46
644.595	4.54
644.629	-2.46
644.662	1.54
644.696	16.54
644.73	0.54
644.764	-0.46
644.797	-12.46
644.831	3.54
644.865	19.54
644.899	6.54
644.932	23.54
644.966	-9.46
645	16.54
645.033	22.54
645.067	4.54
645.101	-1.46
645.135	-17.46
645.168	-20.46
645.202	-11.46
645.236	3.54
645.269	15.54
645.303	-14.46
645.337	-16.46
645.37	-10.46
645.404	3.54
645.438	-12.46
645.471	-18.46
645.505	4.54
645.539	7.54
645.572	-9.46
645.606	0.54
645.64	15.54
645.673	-5.46
645.707	31.54
645.741	11.54
645.774	-15.46
645.808	5.54
645.842	8.54
645.875	0.54
645.909	-9.46
645.943	-2.46
645.976	12.54
646.01	3.54
646.043	12.54
646.077	18.54
646.111	9.54
646.144	-4.46
646.178	13.54
646.212	-1.46
646.245	-9.46
646.279	-8.46
646.312	20.54
646.346	11.54
646.38	-8.46
646.413	-7.46
646.447	-8.46
646.48	13.54
646.514	-4.46
646.547	-8.46
646.581	-8.46
646.615	6.54
646.648	-2.46
646.682	3.54
646.715	-4.46
646.749	13.54
646.782	-3.46
646.816	-11.46
646.85	8.54
646.883	-12.46
646.917	2.54
646.95	11.54
646.984	2.54
647.017	-0.46
647.051	1.54
647.084	12.54
647.118	-23.46
647.151	2.54
647.185	7.54
647.218	-10.46
647.252	-2.46
647.285	-4.46
647.319	-14.46
647.353	6.54
647.386	24.54
647.42	0.54
647.453	-10.46
647.487	2.54
647.52	2.54
647.553	-0.46
647.587	-12.46
647.62	-15.46
647.654	-10.46
647.687	-2.46
647.721	-4.46
647.754	-13.46
647.788	10.54
647.821	-11.46
647.855	4.54
647.888	4.54
647.922	12.54
647.955	0.54
647.989	-4.46
648.022	-2.46
648.055	6.54
648.089	-3.46
648.122	27.54
648.156	5.54
648.189	15.54
648.223	6.54
648.256	20.54
648.29	8.54
648.323	2.54
648.356	16.54
648.39	6.54
648.423	6.54
648.457	-15.46
648.49	-0.46
648.523	12.54
648.557	14.54
648.59	-2.46
648.624	3.54
648.657	7.54
648.69	10.54
648.724	13.54
648.757	5.54
648.791	7.54
648.824	13.54
648.857	25.54
648.891	7.54
648.924	12.54
648.957	20.54
648.991	6.54
649.024	6.54
649.057	-3.46
649.091	6.54
649.124	16.54
649.158	15.54
649.191	25.54
649.224	3.54
649.258	-3.46
649.291	14.54
649.324	16.54
649.358	9.54
649.391	5.54
649.424	3.54
649.458	-10.46
649.491	9.54
649.524	-5.46
649.557	-3.46
649.591	-15.46
649.624	5.54
649.657	-4.46
649.691	13.54
649.724	0.54
649.757	-3.46
649.791	-6.46
649.824	29.54
649.857	8.54
649.89	14.54
649.924	-5.46
649.957	-12.46
649.99	-29.46
650.023	-5.46
650.057	-16.46
650.09	-7.46
650.123	9.54
650.157	17.54
650.19	19.54
650.223	4.54
650.256	4.54
650.29	7.54
650.323	3.54
650.356	9.54
650.389	-9.46
650.423	-4.46
650.456	16.54
650.489	-2.46
650.522	8.54
650.555	6.54
650.589	14.54
650.622	1.54
650.655	7.54
650.688	13.54
650.721	-7.46
650.755	6.54
650.788	14.54
650.821	4.54
650.854	12.54
650.887	7.54
650.921	-5.46
650.954	0.54
650.987	3.54
651.02	-11.46
651.053	-15.46
651.087	-5.46
651.12	25.54
651.153	2.54
651.186	-8.46
651.219	-11.46
651.252	-2.46
651.286	17.54
651.319	4.54
651.352	-0.46
651.385	-2.46
651.418	-14.46
651.451	2.54
651.484	-1.46
651.518	-20.46
651.551	18.54
651.584	-5.46
651.617	39.54
651.65	7.54
651.683	17.54
651.716	9.54
651.749	-15.46
651.783	8.54
651.816	-1.46
651.849	14.54
651.882	11.54
651.915	7.54
651.948	20.54
651.981	-8.46
652.014	-15.46
652.047	-2.46
652.08	-7.46
652.114	5.54
652.147	-3.46
652.18	8.54
652.213	21.54
652.246	-5.46
652.279	-10.46
652.312	2.54
652.345	-6.46
652.378	14.54
652.411	12.54
652.444	12.54
652.477	23.54
652.51	10.54
652.543	-9.46
652.576	9.54
652.609	-2.46
652.642	4.54
652.675	7.54
652.709	7.54
652.742	5.54
652.775	7.54
652.808	20.54
652.841	-6.46
652.874	2.54
652.907	-11.46
652.94	12.54
652.973	-2.46
653.006	-15.46
653.039	-4.46
653.072	0.54
653.105	-3.46
653.138	-8.46
653.171	-8.46
653.204	1.54
653.237	3.54
653.27	-7.46
653.303	5.54
653.336	-4.46
653.368	4.54
653.401	13.54
653.434	-18.46
653.467	1.54
653.5	-13.46
653.533	-7.46
653.566	1.54
653.599	2.54
653.632	-11.46
653.665	-3.46
653.698	-6.46
653.731	-5.46
653.764	-2.46
653.797	2.54
653.83	10.54
653.863	-2.46
653.896	-12.46
653.929	1.54
653.961	5.54
653.994	8.54
654.027	-14.46
654.06	5.54
654.093	1.54
654.126	5.54
654.159	-9.46
654.192	-3.46
654.225	2.54
654.258	5.54
654.29	2.54
654.323	13.54
654.356	6.54
654.389	4.54
654.422	0.54
654.455	-6.46
654.488	11.54
654.521	1.54
654.553	1.54
654.586	21.54
654.619	4.54
654.652	2.54
654.685	-0.46
654.718	-2.46
654.751	26.54
654.783	4.54
654.816	27.54
654.849	4.54
654.882	-8.46
654.915	-4.46
654.948	-4.46
654.98	-0.46
655.013	6.54
655.046	-11.46
655.079	-7.46
655.112	6.54
655.144	7.54
655.177	6.54
655.21	20.54
655.243	23.54
655.276	4.54
655.308	-12.46
655.341	5.54
655.374	16.54
655.407	-0.46
655.44	1.54
655.472	8.54
655.505	15.54
655.538	1.54
655.571	31.54
655.603	14.54
655.636	9.54
655.669	16.54
655.702	12.54
655.734	6.54
655.767	0.54
655.8	26.54
655.833	23.54
655.865	29.54
655.898	31.54
655.931	33.54
655.964	40.54
655.996	49.54
656.029	52.54
656.062	58.54
656.095	55.54
656.127	59.54
656.16	104.54
656.193	121.54
656.225	179.54
656.258	270.54
656.291	502.54
656.324	1120.54
656.356	3422.54
656.389	7514.54
656.422	6022.54
656.454	2064.54
656.487	656.54
656.52	265.54
656.552	117.54
656.585	70.54
656.618	52.54
656.65	56.54
656.683	32.54
656.716	30.54
656.748	16.54
656.781	17.54
656.814	4.54
656.846	8.54
656.879	3.54
656.912	3.54
656.944	-30.46
656.977	-2.46
657.01	11.54
657.042	-5.46
657.075	-4.46
657.108	0.54
657.14	2.54
657.173	21.54
657.205	33.54
657.238	7.54
657.271	9.54
657.303	-8.46
657.336	9.54
657.369	-0.46
657.401	-7.46
657.434	5.54
657.466	28.54
657.499	13.54
657.532	4.54
657.564	22.54
657.597	-0.46
657.629	20.54
657.662	7.54
657.694	3.54
657.727	-12.46
657.76	14.54
657.792	-2.46
657.825	8.54
657.857	11.54
657.89	6.54
657.922	3.54
657.955	-10.46
657.987	12.54
658.02	6.54
658.053	4.54
658.085	13.54
658.118	3.54
658.15	14.54
658.183	4.54
658.215	2.54
658.248	-3.46
658.28	-0.46
658.313	4.54
658.345	0.54
658.378	5.54
658.41	6.54
658.443	17.54
658.475	-2.46
658.508	-1.46
658.54	-1.46
658.573	-13.46
658.605	4.54
658.638	-13.46
658.67	-0.46
658.703	3.54
658.735	-14.46
658.768	2.54
658.8	-3.46
658.833	3.54
658.865	8.54
658.898	-4.46
658.93	-21.46
658.963	4.54
658.995	-10.46
659.028	3.54
659.06	-3.46
659.092	1.54
659.125	10.54
659.157	10.54
659.19	12.54
659.222	8.54
659.255	9.54
659.287	11.54
659.32	-4.46
659.352	12.54
659.384	23.54
659.417	-1.46
659.449	9.54
659.482	12.54
659.514	-19.46
659.546	-10.46
659.579	-6.46
659.611	1.54
659.644	-6.46
659.676	-10.46
659.708	1.54
659.741	-13.46
659.773	-15.46
659.806	-4.46
659.838	8.54
659.87	-4.46
659.903	-6.46
659.935	3.54
659.967	-1.46
660	10.54
660.032	-21.46
660.065	4.54
660.097	-5.46
660.129	-15.46
660.162	-11.46
660.194	14.54
660.226	5.54
660.259	-1.46
660.291	2.54
660.323	-1.46
660.356	-4.46
660.388	-3.46
660.42	-6.46
660.453	8.54
660.485	0.54
660.517	10.54
660.55	11.54
660.582	-4.46
660.614	-2.46
660.647	-14.46
660.679	3.54
660.711	5.54
660.743	-2.46
660.776	-1.46
660.808	7.54
660.84	-5.46
660.873	18.54
660.905	7.54
660.937	6.54
660.969	8.54
661.002	-19.46
661.034	5.54
661.066	5.54
661.099	10.54
661.131	4.54
661.163	-1.46
661.195	11.54
661.228	15.54
661.26	-15.46
661.292	0.54
661.324	10.54
661.357	-0.46
661.389	16.54
661.421	10.54
661.453	2.54
661.485	3.54
661.518	-0.46
661.55	-8.46
661.582	-23.46
661.614	1.54
661.647	11.54
661.679	2.54
661.711	-15.46
661.743	-10.46
661.775	4.54
661.808	24.54
661.84	-14.46
661.872	9.54
661.904	7.54
661.936	-8.46
661.969	-25.46
662.001	-5.46
662.033	9.54
662.065	-2.46
662.097	11.54
662.129	-0.46
662.162	-4.46
662.194	-5.46
662.226	-2.46
662.258	5.54
662.29	-10.46
662.322	-12.46
662.355	-5.46
662.387	17.54
662.419	19.54
662.451	4.54
662.483	9.54
662.515	1.54
662.547	-7.46
662.58	-11.46
662.612	4.54
662.644	-8.46
662.676	-4.46
662.708	21.54
662.74	-7.46
662.772	5.54
662.804	-1.46
662.836	1.54
662.869	-4.46
662.901	5.54
662.933	-2.46
662.965	11.54
662.997	10.54
663.029	-12.46
663.061	9.54
663.093	-11.46
663.125	7.54
663.157	4.54
663.189	5.54
663.221	5.54
663.254	-0.46
663.286	13.54
663.318	-7.46
663.35	2.54
663.382	-1.46
663.414	14.54
663.446	-2.46
663.478	-5.46
663.51	14.54
663.542	12.54
663.574	-15.46
663.606	0.54
663.638	-9.46
663.67	-7.46
663.702	-13.46
663.734	-3.46
663.766	-1.46
663.798	6.54
663.83	6.54
663.862	-1.46
663.894	12.54
663.926	6.54
663.958	9.54
663.99	12.54
664.022	3.54
664.054	5.54
664.086	-0.46
664.118	-15.46
664.15	-17.46
664.182	20.54
664.214	10.54
664.246	13.54
664.278	-3.46
664.31	8.54
664.342	11.54
664.374	-10.46
664.406	-27.46
664.438	-10.46
664.47	10.54
664.502	0.54
664.534	-11.46
664.566	-7.46
664.598	-1.46
664.63	13.54
664.662	2.54
664.693	-0.46
664.725	0.54
664.757	5.54
664.789	-9.46
664.821	0.54
664.853	-0.46
664.885	6.54
664.917	-14.46
664.949	4.54
664.981	13.54
665.013	1.54
665.045	-14.46
665.076	-3.46
665.108	1.54
665.14	3.54
665.172	-3.46
665.204	-13.46
665.236	-1.46
665.268	6.54
665.3	7.54
665.331	-12.46
665.363	12.54
665.395	-0.46
665.427	-5.46
665.459	14.54
665.491	-3.46
665.523	3.54
665.555	5.54
665.586	12.54
665.618	-6.46
665.65	-11.46
665.682	2.54
665.714	9.54
665.746	4.54
665.777	8.54
665.809	12.54
665.841	17.54
665.873	-5.46
665.905	11.54
665.937	-0.46
665.968	-5.46
666	-2.46
666.032	-9.46
666.064	-7.46
666.096	-3.46
666.127	3.54
666.159	19.54
666.191	20.54
666.223	12.54
666.255	0.54
666.286	-9.46
666.318	-4.46
666.35	20.54
666.382	-3.46
666.413	-10.46
666.445	-34.46
666.477	-13.46
666.509	2.54
666.54	-15.46
666.572	4.54
666.604	-0.46
666.636	-5.46
666.667	3.54
666.699	29.54
666.731	4.54
666.763	-24.46
666.794	-11.46
666.826	-11.46
666.858	-15.46
666.89	3.54
666.921	15.54
666.953	4.54
666.985	10.54
667.017	4.54
667.048	3.54
667.08	-2.46
667.112	0.54
667.143	3.54
667.175	4.54
667.207	-2.46
667.238	1.54
667.27	7.54
667.302	15.54
667.334	1.54
667.365	2.54
667.397	-9.46
667.429	-22.46
667.46	12.54
667.492	20.54
667.524	12.54
667.555	-6.46
667.587	2.54
667.619	5.54
667.65	-7.46
667.682	13.54
667.714	5.54
667.745	12.54
667.777	-10.46
667.808	12.54
667.84	12.54
667.872	-8.46
667.903	22.54
667.935	-11.46
667.967	2.54
667.998	2.54
668.03	-4.46
668.061	16.54
668.093	-1.46
668.125	4.54
668.156	15.54
668.188	4.54
668.22	-3.46
668.251	3.54
668.283	9.54
668.314	21.54
668.346	2.54
668.377	-3.46
668.409	1.54
668.441	11.54
668.472	4.54
668.504	2.54
668.535	1.54
668.567	8.54
668.599	11.54
668.63	1.54
668.662	2.54
668.693	9.54
668.725	5.54
668.756	12.54
668.788	6.54
668.819	0.54
668.851	16.54
668.882	4.54
668.914	4.54
668.946	-16.46
668.977	-8.46
669.009	1.54
669.04	-4.46
669.072	4.54
669.103	8.54
669.135	-6.46
669.166	-1.46
669.198	8.54
669.229	14.54
669.261	16.54
669.292	5.54
669.324	8.54
669.355	9.54
669.387	-7.46
669.418	-2.46
669.45	-2.46
669.481	4.54
669.513	-1.46
669.544	-0.46
669.576	-15.46
669.607	12.54
669.639	9.54
669.67	8.54
669.701	3.54
669.733	-24.46
669.764	-11.46
669.796	1.54
669.827	-15.46
669.859	-8.46
669.89	16.54
669.922	11.54
669.953	15.54
669.985	3.54
670.016	26.54
670.047	11.54
670.079	-6.46
670.11	-4.46
670.142	10.54
670.173	3.54
670.204	7.54
670.236	-5.46
670.267	-7.46
670.299	1.54
670.33	4.54
670.362	7.54
670.393	-8.46
670.424	13.54
670.456	-11.46
670.487	1.54
670.518	10.54
670.55	-2.46
670.581	8.54
670.613	2.54
670.644	-10.46
670.675	-13.46
670.707	3.54
670.738	-10.46
670.769	-4.46
670.801	2.54
670.832	8.54
670.864	-2.46
670.895	0.54
670.926	-8.46
670.958	-4.46
670.989	2.54
671.02	-9.46
671.052	-2.46
671.083	7.54
671.114	0.54
671.146	24.54
671.177	5.54
671.208	-3.46
671.24	-14.46
671.271	-4.46
671.302	1.54
671.333	2.54
671.365	6.54
671.396	-24.46
671.427	1.54
671.459	-7.46
671.49	10.54
671.521	20.54
671.553	-0.46
671.584	-2.46
671.615	6.54
671.646	-2.46
671.678	-2.46
671.709	-0.46
671.74	-24.46
671.771	-6.46
671.803	-1.46
671.834	-1.46
671.865	-2.46
671.896	14.54
671.928	-4.46
671.959	8.54
671.99	7.54
672.021	-6.46
672.053	-5.46
672.084	0.54
672.115	-3.46
672.146	-6.46
672.178	-9.46
672.209	-18.46
672.24	1.54
672.271	9.54
672.303	6.54
672.334	-7.46
672.365	-9.46
672.396	-2.46
672.427	5.54
672.459	10.54
672.49	15.54
672.521	13.54
672.552	8.54
672.583	-2.46
672.615	-2.46
672.646	12.54
672.677	8.54
672.708	10.54
672.739	2.54
672.77	5.54
672.802	9.54
672.833	-2.46
672.864	-13.46
672.895	2.54
672.926	0.54
672.957	-8.46
672.989	1.54
673.02	7.54
673.051	2.54
673.082	8.54
673.113	4.54
673.144	6.54
673.175	6.54
673.206	-7.46
673.238	-7.46
673.269	-8.46
673.3	-9.46
673.331	3.54
673.362	-0.46
673.393	-0.46
673.424	22.54
673.455	15.54
673.487	11.54
673.518	10.54
673.549	2.54
673.58	-3.46
673.611	7.54
673.642	9.54
673.673	-29.46
673.704	7.54
673.735	-4.46
673.766	14.54
673.797	-5.46
673.828	-11.46
673.86	-8.46
673.891	-11.46
673.922	-13.46
673.953	-20.46
673.984	0.54
674.015	4.54
674.046	-4.46
674.077	-5.46
674.108	1.54
674.139	16.54
674.17	-4.46
674.201	4.54
674.232	-4.46
674.263	0.54
674.294	0.54
674.325	-19.46
674.356	4.54
674.387	8.54
674.418	6.54
674.449	-2.46
674.48	-6.46
674.511	4.54
674.542	8.54
674.573	1.54
674.604	-5.46
674.635	-2.46
674.666	2.54
674.697	0.54
674.728	11.54
674.759	-3.46
674.79	-3.46
674.821	-8.46
674.852	4.54
674.883	4.54
674.914	6.54
674.945	-2.46
674.976	-3.46
675.007	-3.46
675.038	-14.46
675.069	-10.46
675.1	-2.46
675.131	4.54
675.162	-13.46
675.193	-8.46
675.224	-15.46
675.254	-5.46
675.285	-3.46
675.316	9.54
675.347	5.54
675.378	-14.46
675.409	4.54
675.44	-0.46
675.471	-1.46
675.502	-2.46
675.533	-18.46
675.564	-2.46
675.595	1.54
675.625	13.54
675.656	8.54
675.687	7.54
675.718	-4.46
675.749	23.54
675.78	7.54
675.811	2.54
675.842	-7.46
675.873	-7.46
675.903	3.54
675.934	-0.46
675.965	-20.46
675.996	-21.46
676.027	8.54
676.058	-11.46
676.089	2.54
676.119	23.54
676.15	-2.46
676.181	7.54
676.212	16.54
676.243	19.54
676.274	6.54
676.304	8.54
676.335	-34.46
676.366	5.54
676.397	0.54
676.428	-2.46
676.459	12.54
676.489	0.54
676.52	4.54
676.551	4.54
676.582	-9.46
676.613	-8.46
676.643	-1.46
676.674	5.54
676.705	0.54
676.736	12.54
676.767	15.54
676.797	7.54
676.828	9.54
676.859	1.54
676.89	-12.46
676.92	-2.46
676.951	0.54
676.982	5.54
677.013	-5.46
677.044	1.54
677.074	4.54
677.105	-5.46
677.136	15.54
677.167	0.54
677.197	1.54
677.228	-4.46
677.259	-7.46
677.289	-9.46
677.32	-24.46
677.351	-0.46
677.382	-2.46
677.412	-18.46
677.443	14.54
677.474	-7.46
677.505	-12.46
677.535	-3.46
677.566	-14.46
677.597	-16.46
677.627	-13.46
677.658	20.54
677.689	3.54
677.72	10.54
677.75	1.54
677.781	1.54
677.812	-1.46
677.842	-6.46
677.873	-2.46
677.904	-14.46
677.934	-18.46
677.965	-18.46
677.996	-4.46
678.026	-9.46
678.057	12.54
678.088	-7.46
678.118	-0.46
678.149	-10.46
678.18	6.54
678.21	17.54
678.241	3.54
678.272	5.54
678.302	1.54
678.333	1.54
678.363	22.54
678.394	13.54
678.425	4.54
678.455	20.54
678.486	8.54
678.517	-18.46
678.547	-0.46
678.578	7.54
678.608	-10.46
678.639	-8.46
678.67	1.54
678.7	-18.46
678.731	-4.46
678.761	6.54
678.792	11.54
678.823	17.54
678.853	-4.46
678.884	-17.46
678.914	2.54
678.945	-9.46
678.975	14.54
679.006	-13.46
679.037	-6.46
679.067	9.54
679.098	-1.46
679.128	6.54
679.159	0.54
679.189	11.54
679.22	1.54
679.25	15.54
679.281	3.54
679.312	0.54
679.342	9.54
679.373	25.54
679.403	-7.46
679.434	-0.46
679.464	-12.46
679.495	-3.46
679.525	1.54
679.556	-5.46
679.586	7.54
679.617	14.54
679.647	0.54
679.678	-2.46
679.708	-3.46
679.739	-6.46
679.769	-3.46
679.8	-5.46
679.83	-3.46
679.861	-0.46
679.891	-3.46
679.922	-8.46
679.952	3.54
679.983	7.54
680.013	9.54
680.044	-10.46
680.074	-2.46
680.105	5.54
680.135	8.54
680.165	8.54
680.196	8.54
680.226	-12.46
680.257	-2.46
680.287	9.54
680.318	5.54
680.348	-18.46
680.379	10.54
680.409	6.54
680.439	-11.46
680.47	-10.46
680.5	-6.46
680.531	2.54
680.561	3.54
680.592	18.54
680.622	15.54
680.652	-2.46
680.683	0.54
680.713	8.54
680.744	3.54
680.774	8.54
680.804	14.54
680.835	-18.46
680.865	-12.46
680.896	14.54
680.926	11.54
680.956	7.54
680.987	-2.46
681.017	-20.46
681.047	-3.46
681.078	-9.46
681.108	-11.46
681.139	-1.46
681.169	8.54
681.199	0.54
681.23	2.54
681.26	6.54
681.29	5.54
681.321	0.54
681.351	7.54
681.381	-19.46
681.412	0.54
681.442	-11.46
681.472	12.54
681.503	11.54
681.533	4.54
681.563	-9.46
681.594	5.54
681.624	5.54
681.654	-7.46
681.685	-5.46
681.715	2.54
681.745	12.54
681.775	10.54
681.806	13.54
681.836	-11.46
681.866	-25.46
681.897	1.54
681.927	-13.46
681.957	-12.46
681.987	4.54
682.018	12.54
682.048	0.54
682.078	-0.46
682.109	0.54
682.139	1.54
682.169	10.54
682.199	7.54
682.23	8.54
682.26	12.54
682.29	-3.46
682.32	-3.46
682.351	15.54
682.381	-6.46
682.411	14.54
682.441	-2.46
682.472	-9.46
682.502	-14.46
682.532	5.54
682.562	12.54
682.592	14.54
682.623	13.54
682.653	5.54
682.683	-1.46
682.713	0.54
682.743	-12.46
682.774	3.54
682.804	4.54
682.834	18.54
682.864	3.54
682.894	-5.46
682.925	-7.46
682.955	0.54
682.985	2.54
683.015	-6.46
683.045	8.54
683.076	-12.46
683.106	-14.46
683.136	4.54
683.166	3.54
683.196	1.54
683.226	-3.46
683.257	-7.46
683.287	-1.46
683.317	-20.46
683.347	15.54
683.377	-7.46
683.407	-10.46
683.437	15.54
683.468	-4.46
683.498	-6.46
683.528	-12.46
683.558	-11.46
683.588	-19.46
683.618	-25.46
683.648	-6.46
683.678	8.54
683.708	13.54
683.739	-9.46
683.769	-7.46
683.799	-0.46
683.829	-4.46
683.859	0.54
683.889	10.54
683.919	-3.46
683.949	-11.46
683.979	-13.46
684.009	0.54
684.039	10.54
684.07	-21.46
684.1	10.54
684.13	0.54
684.16	1.54
684.19	-5.46
684.22	5.54
684.25	7.54
684.28	-0.46
684.31	22.54
684.34	14.54
684.37	7.54
684.4	-3.46
684.43	24.54
684.46	3.54
684.49	10.54
684.52	1.54
684.55	-2.46
684.58	-0.46
684.61	6.54
684.64	9.54
684.67	11.54
684.7	5.54
684.73	14.54
684.76	4.54
684.79	25.54
684.82	12.54
684.85	4.54
684.88	0.54
684.91	0.54
684.94	3.54
684.97	-7.46
685	-2.46
685.03	4.54
685.06	-8.46
685.09	-5.46
685.12	19.54
685.15	-8.46
685.18	-2.46
685.21	-3.46
685.24	11.54
685.27	2.54
685.3	-3.46
685.33	11.54
685.36	2.54
685.39	-11.46
685.42	-2.46
685.45	3.54
685.48	0.54
685.51	6.54
685.54	16.54
685.569	4.54
685.599	-5.46
685.629	4.54
685.659	-6.46
685.689	7.54
685.719	1.54
685.749	-9.46
685.779	-0.46
685.809	16.54
685.839	4.54
685.869	-3.46
685.898	21.54
685.928	-9.46
685.958	-4.46
685.988	16.54
686.018	0.54
686.048	-0.46
686.078	3.54
686.108	14.54
686.137	-3.46
686.167	7.54
686.197	-30.46
686.227	-8.46
686.257	20.54
686.287	24.54
686.317	13.54
686.346	-11.46
686.376	-1.46
686.406	3.54
686.436	7.54
686.466	-1.46
686.496	0.54
686.525	-6.46
686.555	-6.46
686.585	-2.46
686.615	33.54
686.645	14.54
686.675	-3.46
686.704	0.54
686.734	-22.46
686.764	-11.46
686.794	7.54
686.824	-10.46
686.853	19.54
686.883	12.54
686.913	15.54
686.943	1.54
686.973	-3.46
687.002	-7.46
687.032	0.54
687.062	-12.46
687.092	21.54
687.121	-3.46
687.151	14.54
687.181	13.54
687.211	10.54
687.24	6.54
687.27	14.54
687.3	-3.46
687.33	12.54
687.359	-11.46
687.389	-5.46
687.419	-10.46
687.449	11.54
687.478	14.54
687.508	-3.46
687.538	8.54
687.568	12.54
687.597	2.54
687.627	13.54
687.657	-16.46
687.686	-12.46
687.716	17.54
687.746	1.54
687.776	5.54
687.805	6.54
687.835	-1.46
687.865	6.54
687.894	7.54
687.924	-5.46
687.954	-7.46
687.983	-2.46
688.013	4.54
688.043	3.54
688.072	0.54
688.102	13.54
688.132	-3.46
688.161	1.54
688.191	-8.46
688.221	7.54
688.25	-23.46
688.28	4.54
688.31	-9.46
688.339	7.54
688.369	-12.46
688.399	4.54
688.428	3.54
688.458	-8.46
688.488	-1.46
688.517	13.54
688.547	-0.46
688.576	31.54
688.606	10.54
688.636	-10.46
688.665	15.54
688.695	4.54
688.725	3.54
688.754	4.54
688.784	10.54
688.813	10.54
688.843	2.54
688.873	3.54
688.902	4.54
688.932	2.54
688.961	1.54
688.991	4.54
689.02	11.54
689.05	-12.46
689.08	4.54
689.109	4.54
689.139	-8.46
689.168	11.54
689.198	-2.46
689.227	-2.46
689.257	-6.46
689.287	9.54
689.316	-2.46
689.346	0.54
689.375	0.54
689.405	8.54
689.434	3.54
689.464	-2.46
689.493	-13.46
689.523	-11.46
689.552	5.54
689.582	-2.46
689.611	5.54
689.641	11.54
689.67	9.54
689.7	10.54
689.73	23.54
689.759	5.54
689.789	7.54
689.818	19.54
689.848	0.54
689.877	7.54
689.906	0.54
689.936	3.54
689.965	8.54
689.995	1.54
690.024	-0.46
690.054	0.54
690.083	17.54
690.113	6.54
690.142	0.54
690.172	-4.46
690.201	8.54
690.231	4.54
690.26	3.54
690.29	-0.46
690.319	14.54
690.348	-15.46
690.378	-0.46
690.407	-1.46
690.437	-2.46
690.466	0.54
690.496	4.54
690.525	-2.46
690.555	-5.46
690.584	2.54
690.613	-9.46
690.643	12.54
690.672	10.54
690.702	8.54
690.731	1.54
690.76	-4.46
690.79	-3.46
690.819	-4.46
690.849	-1.46
690.878	3.54
690.907	16.54
690.937	15.54
690.966	16.54
690.996	10.54
691.025	2.54
691.054	12.54
691.084	-9.46
691.113	3.54
691.142	-4.46
691.172	-8.46
691.201	5.54
691.23	-2.46
691.26	9.54
691.289	5.54
691.319	12.54
691.348	-5.46
691.377	17.54
691.407	7.54
691.436	6.54
691.465	-8.46
691.495	-1.46
691.524	-8.46
691.553	-8.46
691.583	0.54
691.612	9.54
691.641	-11.46
691.67	-2.46
691.7	10.54
691.729	0.54
691.758	13.54
691.788	0.54
691.817	-9.46
691.846	-7.46
691.876	26.54
691.905	4.54
691.934	-5.46
691.963	14.54
691.993	8.54
692.022	-1.46
692.051	-19.46
692.081	4.54
692.11	13.54
692.139	0.54
692.168	-8.46
692.198	19.54
692.227	1.54
692.256	6.54
692.285	2.54
692.315	-2.46
692.344	1.54
692.373	12.54
692.402	-22.46
692.432	-6.46
692.461	-6.46
692.49	-10.46
692.519	3.54
692.548	8.54
692.578	-1.46
692.607	-3.46
692.636	-7.46
692.665	12.54
692.694	-6.46
692.724	14.54
692.753	5.54
692.782	14.54
692.811	-5.46
692.84	12.54
692.87	10.54
692.899	13.54
692.928	0.54
692.957	11.54
692.986	3.54
693.016	1.54
693.045	-1.46
693.074	10.54
693.103	3.54
693.132	12.54
693.161	1.54
693.191	-13.46
693.22	-14.46
693.249	0.54
693.278	6.54
693.307	13.54
693.336	-14.46
693.365	-10.46
693.395	1.54
693.424	10.54
693.453	6.54
693.482	0.54
693.511	10.54
693.54	4.54
693.569	9.54
693.598	11.54
693.628	22.54
693.657	4.54
693.686	13.54
693.715	4.54
693.744	8.54
693.773	12.54
693.802	15.54
693.831	7.54
693.86	16.54
693.889	1.54
693.919	1.54
693.948	8.54
693.977	-7.46
694.006	-8.46
694.035	-4.46
694.064	5.54
694.093	0.54
694.122	-1.46
694.151	8.54
694.18	12.54
694.209	11.54
694.238	3.54
694.267	28.54
694.296	8.54
694.325	0.54
694.354	14.54
694.383	13.54
694.412	-25.46
694.441	-19.46
694.471	-11.46
694.5	-18.46
694.529	15.54
694.558	24.54
694.587	3.54
694.616	-7.46
694.645	0.54
694.674	28.54
694.703	19.54
694.732	9.54
694.761	15.54
694.79	10.54
694.819	0.54
694.848	1.54
694.877	10.54
694.906	9.54
694.935	4.54
694.963	21.54
694.992	-3.46
695.021	11.54
695.05	25.54
695.079	19.54
695.108	0.54
695.137	12.54
695.166	0.54
695.195	-10.46
695.224	-3.46
695.253	-0.46
695.282	5.54
695.311	-0.46
695.34	-12.46
695.369	20.54
695.398	7.54
695.427	22.54
695.456	4.54
695.485	-6.46
695.513	-5.46
695.542	-1.46
695.571	1.54
695.6	34.54
695.629	-2.46
695.658	-8.46
695.687	16.54
695.716	-0.46
695.745	18.54
695.774	-0.46
695.802	-0.46
695.831	19.54
695.86	6.54
695.889	8.54
695.918	6.54
695.947	15.54
695.976	-7.46
696.005	2.54
696.033	18.54
696.062	22.54
696.091	-5.46
696.12	-5.46
696.149	23.54
696.178	6.54
696.207	9.54
696.235	-10.46
696.264	7.54
696.293	5.54
696.322	13.54
696.351	14.54
696.38	4.54
696.408	5.54
696.437	6.54
696.466	3.54
696.495	16.54
696.524	16.54
696.553	-8.46
696.581	7.54
696.61	0.54
696.639	13.54
696.668	21.54
696.697	21.54
696.725	9.54
696.754	-5.46
696.783	-4.46
696.812	-8.46
696.84	1.54
696.869	2.54
696.898	11.54
696.927	10.54
696.956	13.54
696.984	-2.46
697.013	8.54
697.042	-4.46
697.071	5.54
697.099	14.54
697.128	7.54
697.157	-10.46
697.186	16.54
697.214	6.54
697.243	3.54
697.272	-11.46
697.301	7.54
697.329	-0.46
697.358	6.54
697.387	27.54
697.415	13.54
697.444	3.54
697.473	-9.46
697.502	4.54
697.53	-3.46
697.559	10.54
697.588	8.54
697.616	-6.46
697.645	1.54
697.674	5.54
697.703	8.54
697.731	8.54
697.76	13.54
697.789	9.54
697.817	11.54
697.846	8.54
697.875	-5.46
697.903	15.54
697.932	10.54
697.961	7.54
697.989	-3.46
698.018	8.54
698.047	3.54
698.075	8.54
698.104	0.54
698.133	-3.46
698.161	-6.46
698.19	-2.46
698.218	10.54
698.247	2.54
698.276	-2.46
698.304	-0.46
698.333	13.54
698.362	2.54
698.39	5.54
698.419	12.54
698.447	-1.46
698.476	-6.46
698.505	-0.46
698.533	-0.46
698.562	11.54
698.591	-5.46
698.619	-3.46
698.648	-3.46
698.676	8.54
698.705	2.54
698.733	-6.46
698.762	10.54
698.791	-0.46
698.819	-18.46
698.848	-5.46
698.876	21.54
698.905	20.54
698.933	3.54
698.962	-7.46
698.991	10.54
699.019	21.54
699.048	0.54
699.076	8.54
699.105	-15.46
699.133	3.54
699.162	1.54
699.19	8.54
699.219	15.54
699.248	5.54
699.276	4.54
699.305	-7.46
699.333	15.54
699.362	5.54
699.39	4.54
699.419	-4.46
699.447	13.54
699.476	5.54
699.504	1.54
699.533	-1.46
699.561	-9.46
699.59	-5.46
699.618	-3.46
699.647	1.54
699.675	6.54
699.704	7.54
699.732	5.54
699.761	0.54
699.789	13.54
699.818	0.54
699.846	15.54
699.874	0.54
699.903	-8.46
699.931	-7.46
699.96	5.54
699.988	7.54
700.017	13.54
700.045	4.54
700.074	-10.46
700.102	-3.46
700.13	3.54
700.159	5.54
700.187	-10.46
700.216	0.54
700.244	-7.46
700.273	1.54
700.301	11.54
700.329	16.54
700.358	20.54
700.386	-0.46
700.415	-7.46
700.443	-3.46
700.472	-5.46
700.5	0.54
700.528	5.54
700.557	5.54
700.585	8.54
700.614	5.54
700.642	11.54
700.67	12.54
700.699	9.54
700.727	-4.46
700.755	13.54
700.784	0.54
700.812	7.54
700.841	9.54
700.869	4.54
700.897	-5.46
700.926	-4.46
700.954	6.54
700.982	6.54
701.011	10.54
701.039	12.54
701.067	-3.46
701.096	3.54
701.124	-20.46
701.152	1.54
701.181	-21.46
701.209	-23.46
701.237	0.54
701.266	-3.46
701.294	0.54
701.322	8.54
701.351	17.54
701.379	-0.46
701.407	-9.46
701.435	10.54
701.464	8.54
701.492	31.54
701.52	-2.46
701.549	7.54
701.577	9.54
701.605	0.54
701.634	-6.46
701.662	10.54
701.69	-11.46
701.718	-18.46
701.747	12.54
701.775	5.54
701.803	3.54
701.831	27.54
701.86	0.54
701.888	0.54
701.916	-5.46
701.944	13.54
701.973	-7.46
702.001	0.54
702.029	6.54
702.057	-2.46
702.086	-15.46
702.114	-9.46
702.142	-6.46
702.17	-11.46
702.199	-7.46
702.227	-7.46
702.255	-0.46
702.283	-4.46
702.311	6.54
702.34	13.54
702.368	-13.46
702.396	-6.46
702.424	4.54
702.452	4.54
702.481	-11.46
702.509	4.54
702.537	0.54
702.565	10.54
702.593	-2.46
702.621	1.54
702.65	5.54
702.678	19.54
702.706	10.54
702.734	-16.46
702.762	8.54
702.79	9.54
702.819	1.54
702.847	-1.46
702.875	-1.46
702.903	7.54
702.931	-4.46
702.959	-3.46
702.988	-0.46
703.016	-0.46
703.044	-1.46
703.072	4.54
703.1	1.54
703.128	-3.46
703.156	-15.46
703.184	-0.46
703.212	10.54
703.241	0.54
703.269	-0.46
703.297	-1.46
703.325	20.54
703.353	-8.46
703.381	-6.46
703.409	1.54
703.437	-13.46
703.465	7.54
703.493	-1.46
703.522	7.54
703.55	-1.46
703.578	3.54
703.606	-13.46
703.634	0.54
703.662	-3.46
703.69	-3.46
703.718	6.54
703.746	11.54
703.774	16.54
703.802	26.54
703.83	-3.46
703.858	19.54
703.886	0.54
703.914	0.54
703.942	9.54
703.97	-14.46
703.998	-19.46
704.027	15.54
704.055	-3.46
704.083	1.54
704.111	-14.46
704.139	-0.46
704.167	-3.46
704.195	-4.46
704.223	-2.46
704.251	-9.46
704.279	7.54
704.307	-2.46
704.335	-18.46
704.363	3.54
704.391	-5.46
704.419	-4.46
704.447	-4.46
704.475	-3.46
704.503	-8.46
704.531	9.54
704.558	6.54
704.586	2.54
704.614	-8.46
704.642	-3.46
704.67	-25.46
704.698	-8.46
704.726	-3.46
704.754	0.54
704.782	1.54
704.81	7.54
704.838	20.54
704.866	0.54
704.894	-8.46
704.922	3.54
704.95	2.54
704.978	12.54
705.006	5.54
705.034	13.54
705.061	-7.46
705.089	4.54
705.117	-9.46
705.145	-12.46
705.173	4.54
705.201	9.54
705.229	8.54
705.257	4.54
705.285	1.54
705.313	1.54
705.34	-19.46
705.368	5.54
705.396	2.54
705.424	1.54
705.452	-13.46
705.48	0.54
705.508	-12.46
705.536	-3.46
705.563	-13.46
705.591	-6.46
705.619	12.54
705.647	-1.46
705.675	0.54
705.703	11.54
705.731	2.54
705.758	5.54
705.786	12.54
705.814	21.54
705.842	6.54
705.87	15.54
705.898	8.54
705.925	-12.46
705.953	4.54
705.981	-11.46
706.009	-5.46
706.037	-2.46
706.065	3.54
706.092	-1.46
706.12	4.54
706.148	1.54
706.176	-13.46
706.204	-0.46
706.231	0.54
706.259	-5.46
706.287	-24.46
706.315	0.54
706.342	4.54
706.37	17.54
706.398	5.54
706.426	-7.46
706.454	-3.46
706.481	3.54
706.509	-0.46
706.537	-11.46
706.565	2.54
706.592	13.54
706.62	-0.46
706.648	-12.46
706.676	-3.46
706.703	-10.46
706.731	-10.46
706.759	-13.46
706.787	4.54
706.814	-0.46
706.842	-4.46
706.87	-7.46
706.897	-0.46
706.925	-4.46
706.953	23.54
706.981	8.54
707.008	-8.46
707.036	3.54
707.064	-9.46
707.091	-22.46
707.119	7.54
707.147	-3.46
707.174	-3.46
707.202	12.54
707.23	-8.46
707.258	-4.46
707.285	-31.46
707.313	-19.46
707.341	2.54
707.368	-1.46
707.396	1.54
707.424	18.54
707.451	-5.46
707.479	0.54
707.507	-16.46
707.534	-0.46
707.562	5.54
707.59	-14.46
707.617	-18.46
707.645	-3.46
707.672	3.54
707.7	6.54
707.728	17.54
707.755	1.54
707.783	-8.46
707.811	-0.46
707.838	-8.46
707.866	-12.46
707.893	-10.46
707.921	-8.46
707.949	-1.46
707.976	5.54
708.004	1.54
708.031	-7.46
708.059	-6.46
708.087	-9.46
708.114	-15.46
708.142	-3.46
708.169	-6.46
708.197	-20.46
708.225	4.54
708.252	1.54
708.28	3.54
708.307	-25.46
708.335	-14.46
708.362	-3.46
708.39	-11.46
708.418	0.54
708.445	-10.46
708.473	-15.46
708.5	-19.46
708.528	8.54
708.555	-2.46
708.583	-3.46
708.61	1.54
708.638	-2.46
708.665	-18.46
708.693	13.54
708.72	-3.46
708.748	-15.46
708.776	-3.46
708.803	11.54
708.831	15.54
708.858	13.54
708.886	11.54
708.913	-1.46
708.941	-2.46
708.968	16.54
708.996	-2.46
709.023	19.54
709.051	-0.46
709.078	-7.46
709.105	3.54
709.133	3.54
709.16	-2.46
709.188	9.54
709.215	18.54
709.243	-0.46
709.27	2.54
709.298	2.54
709.325	-1.46
709.353	-8.46
709.38	7.54
709.408	-1.46
709.435	-19.46
709.462	6.54
709.49	-0.46
709.517	-6.46
709.545	-4.46
709.572	-13.46
709.6	-23.46
709.627	9.54
709.655	-14.46
709.682	-3.46
709.709	0.54
709.737	3.54
709.764	0.54
709.792	2.54
709.819	-7.46
709.846	-15.46
709.874	-0.46
709.901	5.54
709.929	23.54
709.956	2.54
709.983	6.54
710.011	1.54
710.038	-2.46
710.066	17.54
710.093	13.54
710.12	7.54
710.148	-14.46
710.175	-18.46
710.202	-12.46
710.23	-1.46
710.257	-6.46
710.284	7.54
710.312	8.54
710.339	13.54
710.366	-2.46
710.394	-3.46
710.421	4.54
710.448	-4.46
710.476	-16.46
710.503	-4.46
710.53	1.54
710.558	16.54
710.585	13.54
710.612	0.54
710.64	-15.46
710.667	19.54
710.694	-11.46
710.722	-7.46
710.749	-5.46
710.776	7.54
710.804	4.54
710.831	11.54
710.858	3.54
710.885	2.54
710.913	-10.46
710.94	14.54
710.967	-0.46
710.995	7.54
711.022	10.54
711.049	3.54
711.076	-14.46
711.104	-6.46
711.131	-20.46
711.158	8.54
711.185	16.54
711.213	-0.46
711.24	-12.46
711.267	-8.46
711.294	8.54
711.322	13.54
711.349	-6.46
711.376	-3.46
711.403	6.54
711.431	-7.46
711.458	-2.46
711.485	0.54
711.512	-2.46
711.54	4.54
711.567	7.54
711.594	-1.46
711.621	-10.46
711.648	1.54
711.676	1.54
711.703	-4.46
711.73	-5.46
711.757	-3.46
711.784	0.54
711.812	-3.46
711.839	-3.46
711.866	-10.46
711.893	-14.46
711.92	0.54
711.947	7.54
711.975	7.54
712.002	9.54
712.029	-1.46
712.056	-0.46
712.083	6.54
712.11	-8.46
712.138	-2.46
712.165	4.54
712.192	0.54
712.219	-6.46
712.246	-7.46
712.273	-4.46
712.3	-7.46
712.328	-8.46
712.355	9.54
712.382	-1.46
712.409	16.54
712.436	-3.46
712.463	9.54
712.49	13.54
712.517	4.54
712.544	-15.46
712.572	-6.46
712.599	0.54
712.626	3.54
712.653	-4.46
712.68	-6.46
712.707	12.54
712.734	5.54
712.761	4.54
712.788	-15.46
712.815	4.54
712.842	3.54
712.87	1.54
712.897	5.54
712.924	-8.46
712.951	20.54
712.978	12.54
713.005	11.54
713.032	21.54
713.059	13.54
713.086	-4.46
713.113	-9.46
713.14	-2.46
713.167	-1.46
713.194	13.54
713.221	-2.46
713.248	5.54
713.275	-0.46
713.302	-5.46
713.329	11.54
713.356	3.54
713.383	12.54
713.41	14.54
713.437	-3.46
713.464	-0.46
713.491	9.54
713.518	3.54
713.545	4.54
713.572	-1.46
713.599	18.54
713.626	8.54
713.653	9.54
713.68	-1.46
713.707	-7.46
713.734	-2.46
713.761	-9.46
713.788	2.54
713.815	1.54
713.842	-13.46
713.869	-9.46
713.896	-12.46
713.923	-6.46
713.95	3.54
713.977	-4.46
714.004	-2.46
714.031	-3.46
714.058	-14.46
714.085	-2.46
714.112	15.54
714.139	3.54
714.165	-5.46
714.192	-1.46
714.219	12.54
714.246	-1.46
714.273	-0.46
714.3	2.54
714.327	-8.46
714.354	4.54
714.381	-0.46
714.408	-6.46
714.435	6.54
714.461	-0.46
714.488	3.54
714.515	-6.46
714.542	4.54
714.569	0.54
714.596	-6.46
714.623	-2.46
714.65	-5.46
714.677	11.54
714.703	-2.46
714.73	5.54
714.757	-6.46
714.784	7.54
714.811	-11.46
714.838	1.54
714.865	-5.46
714.891	-0.46
714.918	-1.46
714.945	2.54
714.972	-9.46
714.999	18.54
715.026	3.54
715.052	11.54
715.079	-12.46
715.106	1.54
715.133	-3.46
715.16	-3.46
715.187	-6.46
715.213	11.54
715.24	-10.46
715.267	-12.46
715.294	-4.46
715.321	-4.46
715.347	10.54
715.374	-6.46
715.401	2.54
715.428	-4.46
715.455	1.54
715.481	-4.46
715.508	8.54
715.535	7.54
715.562	10.54
715.588	-5.46
715.615	2.54
715.642	19.54
715.669	11.54
715.695	-4.46
715.722	-5.46
715.749	12.54
715.776	8.54
715.802	-3.46
715.829	-7.46
715.856	-13.46
715.883	12.54
715.909	3.54
715.936	14.54
715.963	7.54
715.99	-12.46
716.016	-2.46
716.043	7.54
716.07	-4.46
716.096	-0.46
716.123	4.54
716.15	5.54
716.177	0.54
716.203	10.54
716.23	-8.46
716.257	7.54
716.283	20.54
716.31	-5.46
716.337	0.54
716.363	10.54
716.39	5.54
716.417	14.54
716.443	-13.46
716.47	6.54
716.497	15.54
716.523	19.54
716.55	5.54
716.577	10.54
716.603	11.54
716.63	8.54
716.657	5.54
716.683	-4.46
716.71	9.54
716.737	-1.46
716.763	7.54
716.79	13.54
716.817	16.54
716.843	1.54
716.87	-6.46
716.897	-11.46
716.923	4.54
716.95	4.54
716.976	-4.46
717.003	-6.46
717.03	5.54
717.056	5.54
717.083	21.54
717.109	8.54
717.136	4.54
717.163	-11.46
717.189	-0.46
717.216	-6.46
717.242	-4.46
717.269	-10.46
717.296	14.54
717.322	11.54
717.349	17.54
717.375	3.54
717.402	-5.46
717.428	-0.46
717.455	4.54
717.481	-0.46
717.508	14.54
717.535	23.54
717.561	8.54
717.588	-7.46
717.614	-3.46
717.641	-4.46
717.667	-2.46
717.694	-0.46
717.72	-0.46
717.747	-3.46
717.773	-7.46
717.8	0.54
717.826	-1.46
717.853	-7.46
717.88	1.54
717.906	0.54
717.933	18.54
717.959	9.54
717.986	4.54
718.012	5.54
718.039	11.54
718.065	19.54
718.092	12.54
718.118	-6.46
718.144	4.54
718.171	38.54
718.197	19.54
718.224	-3.46
718.25	0.54
718.277	4.54
718.303	2.54
718.33	2.54
718.356	-10.46
718.383	-13.46
718.409	-3.46
718.436	0.54
718.462	-3.46
718.489	-16.46
718.515	9.54
718.541	16.54
718.568	12.54
718.594	7.54
718.621	14.54
718.647	14.54
718.674	10.54
718.7	10.54
718.726	0.54
718.753	3.54
718.779	7.54
718.806	4.54
718.832	-4.46
718.858	7.54
718.885	-6.46
718.911	-5.46
718.938	-2.46
718.964	-6.46
718.99	5.54
719.017	1.54
719.043	-1.46
719.07	4.54
719.096	-0.46
719.122	0.54
719.149	10.54
719.175	3.54
719.201	7.54
719.228	5.54
719.254	6.54
719.281	-0.46
719.307	6.54
719.333	6.54
719.36	2.54
719.386	-3.46
719.412	2.54
719.439	-9.46
719.465	-9.46
719.491	-15.46
719.518	-8.46
719.544	-1.46
719.57	8.54
719.597	-2.46
719.623	3.54
719.649	9.54
719.675	4.54
719.702	17.54
719.728	11.54
719.754	-5.46
719.781	5.54
719.807	-4.46
719.833	-5.46
719.86	-2.46
719.886	-0.46
719.912	3.54
719.938	-10.46
719.965	-3.46
719.991	-0.46
720.017	-0.46
720.044	-14.46
720.07	4.54
720.096	5.54
720.122	8.54
720.149	-5.46
720.175	13.54
720.201	10.54
720.227	-0.46
720.254	-9.46
720.28	-2.46
720.306	-4.46
720.332	19.54
720.359	10.54
720.385	4.54
720.411	16.54
720.437	3.54
720.463	5.54
720.49	4.54
720.516	2.54
720.542	-5.46
720.568	8.54
720.595	9.54
720.621	-3.46
720.647	5.54
720.673	9.54
720.699	3.54
720.725	-6.46
720.752	8.54
720.778	4.54
720.804	3.54
720.83	0.54
720.856	-12.46
720.883	-15.46
720.909	8.54
720.935	5.54
720.961	32.54
720.987	15.54
721.013	10.54
721.04	1.54
721.066	-5.46
721.092	6.54
721.118	17.54
721.144	0.54
721.17	1.54
721.196	5.54
721.223	-12.46
721.249	6.54
721.275	16.54
721.301	-8.46
721.327	3.54
721.353	3.54
721.379	3.54
721.405	5.54
721.432	3.54
721.458	9.54
721.484	12.54
721.51	-4.46
721.536	5.54
721.562	-10.46
721.588	-4.46
721.614	0.54
721.64	5.54
721.666	1.54
721.693	-0.46
721.719	1.54
721.745	1.54
721.771	1.54
721.797	-4.46
721.823	5.54
721.849	21.54
721.875	-2.46
721.901	5.54
721.927	-4.46
721.953	-8.46
721.979	15.54
722.005	10.54
722.031	-9.46
722.057	-7.46
722.083	14.54
722.109	20.54
722.135	20.54
722.161	6.54
722.187	-5.46
722.214	6.54
722.24	-13.46
722.266	-2.46
722.292	8.54
722.318	15.54
722.344	8.54
722.37	2.54
722.396	-5.46
722.422	-7.46
722.448	6.54
722.474	-12.46
722.5	10.54
722.526	0.54
722.552	-4.46
722.578	7.54
722.603	13.54
722.629	4.54
722.655	3.54
722.681	8.54
722.707	-2.46
722.733	0.54
722.759	1.54
722.785	1.54
722.811	0.54
722.837	-6.46
722.863	6.54
722.889	10.54
722.915	3.54
722.941	4.54
722.967	4.54
722.993	9.54
723.019	-4.46
723.045	5.54
723.071	9.54
723.097	-6.46
723.122	9.54
723.148	-9.46
723.174	2.54
723.2	2.54
723.226	-8.46
723.252	8.54
723.278	-9.46
723.304	-12.46
723.33	0.54
723.356	-11.46
723.381	-2.46
723.407	-8.46
723.433	3.54
723.459	-8.46
723.485	-3.46
723.511	15.54
723.537	0.54
723.563	-2.46
723.588	1.54
723.614	1.54
723.64	3.54
723.666	-2.46
723.692	7.54
723.718	-2.46
723.744	5.54
723.769	-4.46
723.795	10.54
723.821	9.54
723.847	-12.46
723.873	4.54
723.899	4.54
723.924	-6.46
723.95	-4.46
723.976	-8.46
724.002	-0.46
724.028	6.54
724.053	0.54
724.079	-5.46
724.105	-2.46
724.131	-5.46
724.157	10.54
724.182	9.54
724.208	1.54
724.234	12.54
724.26	10.54
724.286	9.54
724.311	-0.46
724.337	-8.46
724.363	-1.46
724.389	4.54
724.415	-6.46
724.44	9.54
724.466	-3.46
724.492	8.54
724.518	-4.46
724.543	1.54
724.569	16.54
724.595	-2.46
724.621	0.54
724.646	-3.46
724.672	3.54
724.698	8.54
724.723	5.54
724.749	-7.46
724.775	18.54
724.801	14.54
724.826	-9.46
724.852	-6.46
724.878	8.54
724.904	-12.46
724.929	18.54
724.955	-13.46
724.981	-5.46
725.006	-0.46
725.032	-4.46
725.058	8.54
725.083	-6.46
725.109	-13.46
725.135	-4.46
725.161	4.54
725.186	-3.46
725.212	-15.46
725.238	5.54
725.263	-11.46
725.289	-6.46
725.315	-20.46
725.34	-2.46
725.366	10.54
725.392	1.54
725.417	-10.46
725.443	-13.46
725.468	11.54
725.494	10.54
725.52	17.54
725.545	0.54
725.571	3.54
725.597	17.54
725.622	1.54
725.648	-9.46
725.674	0.54
725.699	4.54
725.725	-9.46
725.75	24.54
725.776	-4.46
725.802	6.54
725.827	4.54
725.853	-0.46
725.878	7.54
725.904	-4.46
725.93	0.54
725.955	-21.46
725.981	-12.46
726.006	-15.46
726.032	0.54
726.057	-14.46
726.083	-5.46
726.109	5.54
726.134	7.54
726.16	-3.46
726.185	-7.46
726.211	-0.46
726.236	7.54
726.262	12.54
726.288	9.54
726.313	19.54
726.339	3.54
726.364	-2.46
726.39	18.54
726.415	-8.46
726.441	-10.46
726.466	-6.46
726.492	4.54
726.517	7.54
726.543	-4.46
726.568	-15.46
726.594	-7.46
726.619	13.54
726.645	0.54
726.67	-4.46
726.696	1.54
726.721	12.54
726.747	-16.46
726.772	-4.46
726.798	-3.46
726.823	9.54
726.849	-1.46
726.874	14.54
726.9	29.54
726.925	4.54
726.951	8.54
726.976	10.54
727.002	-3.46
727.027	5.54
727.053	8.54
727.078	-6.46
727.104	5.54
727.129	-4.46
727.155	-14.46
727.18	0.54
727.205	10.54
727.231	-0.46
727.256	-3.46
727.282	-2.46
727.307	2.54
727.333	-7.46
727.358	9.54
727.383	-24.46
727.409	-16.46
727.434	3.54
727.46	2.54
727.485	-6.46
727.511	2.54
727.536	-13.46
727.561	-11.46
727.587	-8.46
727.612	11.54
727.637	-2.46
727.663	0.54
727.688	-1.46
727.714	-12.46
727.739	-7.46
727.764	-6.46
727.79	-1.46
727.815	12.54
727.841	10.54
727.866	13.54
727.891	11.54
727.917	-10.46
727.942	-24.46
727.967	-8.46
727.993	0.54
728.018	-2.46
728.043	-3.46
728.069	-0.46
728.094	5.54
728.119	-2.46
728.145	11.54
728.17	14.54
728.195	11.54
728.221	27.54
728.246	8.54
728.271	-17.46
728.297	-2.46
728.322	9.54
728.347	16.54
728.373	6.54
728.398	-6.46
728.423	-15.46
728.448	4.54
728.474	8.54
728.499	3.54
728.524	-3.46
728.55	-1.46
728.575	4.54
728.6	7.54
728.625	1.54
728.651	1.54
728.676	0.54
728.701	-4.46
728.727	5.54
728.752	0.54
728.777	-21.46
728.802	0.54
728.828	-7.46
728.853	-5.46
728.878	-10.46
728.903	3.54
728.929	-4.46
728.954	-12.46
728.979	4.54
729.004	-12.46
729.03	-4.46
729.055	12.54
729.08	0.54
729.105	4.54
729.13	6.54
729.156	15.54
729.181	-3.46
729.206	-23.46
729.231	-11.46
729.256	-0.46
729.282	-15.46
729.307	-13.46
729.332	-11.46
729.357	-4.46
729.382	7.54
729.408	2.54
729.433	4.54
729.458	5.54
729.483	-7.46
729.508	0.54
729.533	6.54
729.559	1.54
729.584	-12.46
729.609	10.54
729.634	-1.46
729.659	-4.46
729.684	-14.46
729.71	12.54
729.735	-4.46
729.76	-2.46
729.785	5.54
729.81	-3.46
729.835	-7.46
729.86	-16.46
729.886	1.54
729.911	5.54
729.936	-15.46
729.961	6.54
729.986	-20.46
730.011	-16.46
730.036	-3.46
730.061	-2.46
730.086	-4.46
730.112	11.54
730.137	20.54
730.162	5.54
730.187	-10.46
730.212	1.54
730.237	-3.46
730.262	-8.46
730.287	-0.46
730.312	5.54
730.337	-18.46
730.362	3.54
730.387	-6.46
730.413	-8.46
730.438	-16.46
730.463	-14.46
730.488	0.54
730.513	1.54
730.538	-6.46
730.563	24.54
730.588	12.54
730.613	8.54
730.638	-0.46
730.663	-8.46
730.688	5.54
730.713	3.54
730.738	-8.46
730.763	-2.46
730.788	4.54
730.813	-0.46
730.838	1.54
730.863	4.54
730.888	6.54
730.913	-4.46
730.938	-31.46
730.963	-7.46
730.988	0.54
731.013	1.54
731.038	-6.46
731.063	-0.46
731.088	-4.46
731.113	-16.46
731.138	-2.46
731.163	-1.46
731.188	2.54
731.213	-12.46
731.238	5.54
731.263	-3.46
731.288	-5.46
731.313	-7.46
731.338	4.54
731.363	3.54
731.388	-6.46
731.413	-7.46
731.438	24.54
731.463	1.54
731.487	-2.46
731.512	8.54
731.537	-0.46
731.562	7.54
731.587	10.54
731.612	-0.46
731.637	-8.46
731.662	-3.46
731.687	9.54
731.712	-24.46
731.737	-9.46
731.762	-10.46
731.786	-1.46
731.811	19.54
731.836	-2.46
731.861	-2.46
731.886	3.54
731.911	12.54
731.936	11.54
731.961	7.54
731.986	-3.46
732.01	6.54
732.035	3.54
732.06	13.54
732.085	1.54
732.11	-6.46
732.135	-16.46
732.16	0.54
732.184	1.54
732.209	-4.46
732.234	0.54
732.259	-5.46
732.284	11.54
732.309	-3.46
732.334	-18.46
732.358	-16.46
732.383	-7.46
732.408	-10.46
732.433	9.54
732.458	-7.46
732.482	0.54
732.507	-7.46
732.532	-6.46
732.557	9.54
732.582	14.54
732.607	0.54
732.631	-3.46
732.656	-12.46
732.681	-5.46
732.706	5.54
732.73	-0.46
732.755	-2.46
732.78	-6.46
732.805	0.54
732.83	2.54
732.854	4.54
732.879	6.54
732.904	-9.46
732.929	0.54
732.953	8.54
732.978	4.54
733.003	-3.46
733.028	-0.46
733.052	5.54
733.077	6.54
733.102	18.54
733.127	-13.46
733.151	-5.46
733.176	9.54
733.201	-3.46
733.226	-12.46
733.25	-6.46
733.275	-12.46
733.3	-6.46
733.324	7.54
733.349	4.54
733.374	9.54
733.399	4.54
733.423	3.54
733.448	-4.46
733.473	1.54
733.497	3.54
733.522	-13.46
733.547	-4.46
733.571	11.54
733.596	3.54
733.621	4.54
733.646	-0.46
733.67	21.54
733.695	-12.46
733.72	3.54
733.744	14.54
733.769	9.54
733.794	7.54
733.818	1.54
733.843	-7.46
733.867	-13.46
733.892	-0.46
733.917	-2.46
733.941	0.54
733.966	-7.46
733.991	-6.46
734.015	-0.46
734.04	20.54
734.065	7.54
734.089	17.54
734.114	1.54
734.138	15.54
734.163	1.54
734.188	6.54
734.212	10.54
734.237	2.54
734.261	1.54
734.286	-5.46
734.311	-2.46
734.335	-7.46
734.36	-8.46
734.384	-2.46
734.409	23.54
734.434	-12.46
734.458	-4.46
734.483	0.54
734.507	-24.46
734.532	-13.46
734.556	-13.46
734.581	-5.46
734.606	16.54
734.63	-5.46
734.655	-5.46
734.679	-10.46
734.704	-4.46
734.728	-7.46
734.753	-14.46
734.777	-4.46
734.802	-6.46
734.826	10.54
734.851	12.54
734.876	12.54
734.9	6.54
734.925	5.54
734.949	-2.46
734.974	-8.46
734.998	-2.46
735.023	-4.46
735.047	-19.46
735.072	10.54
735.096	-13.46
735.121	5.54
735.145	-4.46
735.17	-4.46
735.194	8.54
735.219	-12.46
735.243	-1.46
735.268	3.54
735.292	1.54
735.317	6.54
735.341	8.54
735.365	-14.46
735.39	15.54
735.414	9.54
735.439	5.54
735.463	0.54
735.488	-2.46
735.512	11.54
735.537	21.54
735.561	13.54
735.586	-5.46
735.61	11.54
735.634	-8.46
735.659	1.54
735.683	14.54
735.708	-2.46
735.732	-10.46
735.757	-6.46
735.781	4.54
735.805	12.54
735.83	-2.46
735.854	-2.46
735.879	-6.46
735.903	5.54
735.927	-0.46
735.952	1.54
735.976	-3.46
736.001	-7.46
736.025	-4.46
736.049	7.54
736.074	-2.46
736.098	0.54
736.123	19.54
736.147	-6.46
736.171	9.54
736.196	15.54
736.22	-10.46
736.244	-7.46
736.269	4.54
736.293	0.54
736.317	3.54
736.342	9.54
736.366	18.54
736.39	6.54
736.415	11.54
736.439	12.54
736.463	7.54
736.488	10.54
736.512	4.54
736.536	8.54
736.561	24.54
736.585	10.54
736.609	5.54
736.634	12.54
736.658	8.54
736.682	-0.46
736.707	-10.46
736.731	-16.46
736.755	-3.46
736.78	9.54
736.804	7.54
736.828	0.54
736.852	-4.46
736.877	9.54
736.901	-3.46
736.925	-7.46
736.949	10.54
736.974	5.54
736.998	-12.46
737.022	0.54
737.047	-6.46
737.071	-9.46
737.095	6.54
737.119	33.54
737.144	2.54
737.168	5.54
737.192	-6.46
737.216	9.54
737.241	0.54
737.265	5.54
737.289	-5.46
737.313	11.54
737.337	14.54
737.362	12.54
737.386	-4.46
737.41	-0.46
737.434	18.54
737.459	3.54
737.483	22.54
737.507	19.54
737.531	1.54
737.555	-0.46
737.58	5.54
737.604	5.54
737.628	-14.46
737.652	1.54
737.676	7.54
737.701	6.54
737.725	4.54
737.749	11.54
737.773	6.54
737.797	6.54
737.821	20.54
737.846	-4.46
737.87	20.54
737.894	16.54
737.918	17.54
737.942	-9.46
737.966	15.54
737.99	16.54
738.015	1.54
738.039	1.54
738.063	-4.46
738.087	-3.46
738.111	-11.46
738.135	2.54
738.159	-8.46
738.184	1.54
738.208	-14.46
738.232	-12.46
738.256	8.54
738.28	1.54
738.304	8.54
738.328	-13.46
738.352	3.54
738.376	3.54
738.4	8.54
738.425	4.54
738.449	-0.46
738.473	3.54
738.497	-0.46
738.521	-3.46
738.545	4.54
738.569	8.54
738.593	8.54
738.617	-7.46
738.641	0.54
738.665	0.54
738.689	8.54
738.713	4.54
738.737	5.54
738.762	14.54
738.786	12.54
738.81	-8.46
738.834	3.54
738.858	0.54
738.882	3.54
738.906	5.54
738.93	-2.46
738.954	9.54
738.978	15.54
739.002	13.54
739.026	20.54
739.05	15.54
739.074	-14.46
739.098	31.54
739.122	6.54
739.146	-3.46
739.17	9.54
739.194	13.54
739.218	0.54
739.242	-4.46
739.266	-0.46
739.29	23.54
739.314	6.54
739.338	3.54
739.362	2.54
739.386	21.54
739.41	-13.46
739.434	-12.46
739.458	20.54
739.482	-2.46
739.506	12.54
739.53	-1.46
739.554	14.54
739.577	-9.46
739.601	-2.46
739.625	-3.46
739.649	-4.46
739.673	-4.46
739.697	17.54
739.721	1.54
739.745	9.54
739.769	7.54
739.793	13.54
739.817	6.54
739.841	-5.46
739.865	5.54
739.889	-17.46
739.912	4.54
739.936	2.54
739.96	-2.46
739.984	12.54
740.008	5.54
740.032	-2.46
740.056	11.54
740.08	-0.46
740.104	-2.46
740.127	13.54
740.151	7.54
740.175	19.54
740.199	18.54
740.223	48.54
740.247	16.54
740.271	0.54
740.295	3.54
740.318	-4.46
740.342	-4.46
740.366	16.54
740.39	9.54
740.414	11.54
740.438	0.54
740.461	15.54
740.485	9.54
740.509	-6.46
740.533	4.54
740.557	-11.46
740.581	-0.46
740.604	-9.46
740.628	1.54
740.652	4.54
740.676	2.54
740.7	14.54
740.723	9.54
740.747	-2.46
740.771	-8.46
740.795	-6.46
740.819	5.54
740.842	4.54
740.866	10.54
740.89	-2.46
740.914	2.54
740.938	-9.46
740.961	-0.46
740.985	9.54
741.009	14.54
741.033	18.54
741.056	6.54
741.08	-6.46
741.104	2.54
741.128	1.54
741.151	20.54
741.175	7.54
741.199	13.54
741.223	9.54
741.246	-2.46
741.27	1.54
741.294	8.54
741.318	0.54
741.341	5.54
741.365	0.54
741.389	8.54
741.413	16.54
741.436	4.54
741.46	5.54
741.484	11.54
741.507	20.54
741.531	22.54
741.555	13.54
741.579	10.54
741.602	-3.46
741.626	22.54
741.65	14.54
741.673	5.54
741.697	7.54
741.721	12.54
741.744	-15.46
741.768	-8.46
741.792	0.54
741.815	-14.46
741.839	5.54
741.863	13.54
741.886	5.54
741.91	8.54
741.934	-4.46
741.957	-12.46
741.981	6.54
742.005	8.54
742.028	-8.46
742.052	-10.46
742.075	13.54
742.099	13.54
742.123	3.54
742.146	5.54
742.17	8.54
742.194	-5.46
742.217	-5.46
742.241	-9.46
742.264	9.54
742.288	24.54
742.312	10.54
742.335	5.54
742.359	-7.46
742.382	18.54
742.406	13.54
742.43	-3.46
742.453	5.54
742.477	-3.46
742.5	11.54
742.524	-2.46
742.548	4.54
742.571	4.54
742.595	-9.46
742.618	-13.46
742.642	4.54
742.665	9.54
742.689	0.54
742.712	14.54
742.736	-4.46
742.76	-4.46
742.783	-4.46
742.807	8.54
742.83	13.54
742.854	-9.46
742.877	5.54
742.901	0.54
742.924	-2.46
742.948	14.54
742.971	28.54
742.995	-0.46
743.018	-16.46
743.042	8.54
743.065	4.54
743.089	-7.46
743.112	2.54
743.136	4.54
743.159	8.54
743.183	-4.46
743.206	11.54
743.23	-14.46
743.253	-0.46
743.277	-1.46
743.3	-12.46
743.324	-0.46
743.347	-4.46
743.371	9.54
743.394	4.54
743.418	22.54
743.441	11.54
743.465	8.54
743.488	8.54
743.512	-8.46
743.535	-2.46
743.558	15.54
743.582	4.54
743.605	9.54
743.629	5.54
743.652	-2.46
743.676	-2.46
743.699	11.54
743.723	13.54
743.746	7.54
743.769	1.54
743.793	13.54
743.816	6.54
743.84	12.54
743.863	-4.46
743.886	1.54
743.91	17.54
743.933	16.54
743.957	14.54
743.98	-4.46
744.003	-3.46
744.027	5.54
744.05	-1.46
744.074	7.54
744.097	4.54
744.12	-4.46
744.144	-0.46
744.167	9.54
744.19	7.54
744.214	8.54
744.237	-0.46
744.26	11.54
744.284	-10.46
744.307	-6.46
744.331	20.54
744.354	-6.46
744.377	0.54
744.401	-9.46
744.424	0.54
744.447	-13.46
744.471	-14.46
