Data from HighRes_H2_15_09_11_07_2024_HR4C61891__135__15-11-09-901.txt Node

Date: Thu Nov 07 15:11:09 EST 2024
User: crc00042
Spectrometer: HR4C6189
Trigger mode: 4
Integration Time (sec): 1.000000E-1
Scans to average: 1
Electric dark correction enabled: true
Nonlinearity correction enabled: false
Boxcar width: 0
XAxis mode: Wavelengths
Number of Pixels in Spectrum: 3648
>>>>>Begin Spectral Data<<<<<
639.567	-79.54
639.602	-79.54
639.636	-79.54
639.67	-37.54
639.704	-17.54
639.738	-12.54
639.773	-2.54
639.807	-26.54
639.841	10.46
639.875	16.46
639.909	-6.54
639.943	-4.54
639.978	-1.54
640.012	-0.54
640.046	8.46
640.08	13.46
640.114	15.46
640.148	-9.54
640.182	-5.54
640.217	-1.54
640.251	7.46
640.285	11.46
640.319	-1.54
640.353	1.46
640.387	-3.54
640.421	9.46
640.455	-4.54
640.49	-1.54
640.524	-5.54
640.558	10.46
640.592	2.46
640.626	3.46
640.66	19.46
640.694	-2.54
640.728	7.46
640.762	23.46
640.796	20.46
640.83	13.46
640.865	-0.54
640.899	20.46
640.933	-11.54
640.967	8.46
641.001	0.46
641.035	3.46
641.069	-0.54
641.103	-8.54
641.137	-7.54
641.171	-10.54
641.205	10.46
641.239	5.46
641.273	27.46
641.307	10.46
641.341	10.46
641.375	2.46
641.409	-4.54
641.443	-3.54
641.477	4.46
641.511	-0.54
641.545	11.46
641.579	-6.54
641.614	4.46
641.648	1.46
641.682	-4.54
641.716	15.46
641.75	18.46
641.784	6.46
641.818	0.46
641.852	6.46
641.886	6.46
641.919	39.46
641.953	4.46
641.987	-18.54
642.021	7.46
642.055	22.46
642.089	10.46
642.123	-4.54
642.157	-8.54
642.191	-15.54
642.225	6.46
642.259	4.46
642.293	6.46
642.327	-3.54
642.361	-2.54
642.395	8.46
642.429	13.46
642.463	10.46
642.497	5.46
642.531	-2.54
642.565	-12.54
642.599	-1.54
642.633	-15.54
642.666	-6.54
642.7	14.46
642.734	14.46
642.768	-22.54
642.802	13.46
642.836	14.46
642.87	10.46
642.904	-2.54
642.938	19.46
642.972	-10.54
643.005	9.46
643.039	14.46
643.073	19.46
643.107	13.46
643.141	0.46
643.175	5.46
643.209	0.46
643.243	7.46
643.276	11.46
643.31	15.46
643.344	3.46
643.378	-16.54
643.412	21.46
643.446	-8.54
643.48	5.46
643.513	17.46
643.547	3.46
643.581	-2.54
643.615	21.46
643.649	8.46
643.683	0.46
643.716	3.46
643.75	11.46
643.784	-3.54
643.818	3.46
643.852	22.46
643.886	7.46
643.919	5.46
643.953	11.46
643.987	9.46
644.021	22.46
644.055	16.46
644.088	-5.54
644.122	-4.54
644.156	1.46
644.19	6.46
644.224	8.46
644.257	9.46
644.291	15.46
644.325	-3.54
644.359	6.46
644.392	19.46
644.426	21.46
644.46	11.46
644.494	11.46
644.527	-23.54
644.561	5.46
644.595	-6.54
644.629	3.46
644.662	-1.54
644.696	15.46
644.73	5.46
644.764	5.46
644.797	-3.54
644.831	9.46
644.865	14.46
644.899	14.46
644.932	11.46
644.966	-5.54
645	6.46
645.033	22.46
645.067	-1.54
645.101	10.46
645.135	-1.54
645.168	12.46
645.202	-1.54
645.236	7.46
645.269	8.46
645.303	-0.54
645.337	-16.54
645.37	-13.54
645.404	13.46
645.438	-3.54
645.471	2.46
645.505	8.46
645.539	3.46
645.572	9.46
645.606	-0.54
645.64	8.46
645.673	19.46
645.707	30.46
645.741	11.46
645.774	-4.54
645.808	9.46
645.842	4.46
645.875	9.46
645.909	-10.54
645.943	-5.54
645.976	7.46
646.01	-3.54
646.043	6.46
646.077	6.46
646.111	5.46
646.144	9.46
646.178	19.46
646.212	-1.54
646.245	-2.54
646.279	3.46
646.312	11.46
646.346	5.46
646.38	-3.54
646.413	10.46
646.447	12.46
646.48	4.46
646.514	5.46
646.547	1.46
646.581	2.46
646.615	-1.54
646.648	-8.54
646.682	-6.54
646.715	4.46
646.749	12.46
646.782	2.46
646.816	-9.54
646.85	2.46
646.883	-4.54
646.917	26.46
646.95	9.46
646.984	13.46
647.017	-1.54
647.051	8.46
647.084	-0.54
647.118	-4.54
647.151	-4.54
647.185	13.46
647.218	4.46
647.252	30.46
647.285	-13.54
647.319	-6.54
647.353	2.46
647.386	23.46
647.42	-8.54
647.453	-8.54
647.487	2.46
647.52	1.46
647.553	-5.54
647.587	0.46
647.62	-11.54
647.654	14.46
647.687	12.46
647.721	13.46
647.754	30.46
647.788	8.46
647.821	-9.54
647.855	18.46
647.888	7.46
647.922	1.46
647.955	5.46
647.989	4.46
648.022	-8.54
648.055	10.46
648.089	7.46
648.122	24.46
648.156	13.46
648.189	-4.54
648.223	14.46
648.256	15.46
648.29	0.46
648.323	15.46
648.356	0.46
648.39	2.46
648.423	12.46
648.457	-0.54
648.49	2.46
648.523	18.46
648.557	-3.54
648.59	2.46
648.624	11.46
648.657	4.46
648.69	7.46
648.724	14.46
648.757	33.46
648.791	0.46
648.824	11.46
648.857	16.46
648.891	3.46
648.924	0.46
648.957	10.46
648.991	-2.54
649.024	19.46
649.057	8.46
649.091	-0.54
649.124	11.46
649.158	6.46
649.191	30.46
649.224	10.46
649.258	13.46
649.291	7.46
649.324	-17.54
649.358	-10.54
649.391	20.46
649.424	18.46
649.458	-1.54
649.491	15.46
649.524	-7.54
649.557	-16.54
649.591	-17.54
649.624	15.46
649.657	-8.54
649.691	-2.54
649.724	-4.54
649.757	27.46
649.791	4.46
649.824	25.46
649.857	19.46
649.89	3.46
649.924	-5.54
649.957	-5.54
649.99	2.46
650.023	4.46
650.057	4.46
650.09	17.46
650.123	-2.54
650.157	18.46
650.19	25.46
650.223	-6.54
650.256	-11.54
650.29	7.46
650.323	4.46
650.356	13.46
650.389	7.46
650.423	-6.54
650.456	15.46
650.489	4.46
650.522	-0.54
650.555	19.46
650.589	15.46
650.622	8.46
650.655	18.46
650.688	9.46
650.721	-1.54
650.755	17.46
650.788	2.46
650.821	18.46
650.854	8.46
650.887	9.46
650.921	-4.54
650.954	2.46
650.987	5.46
651.02	-10.54
651.053	3.46
651.087	-4.54
651.12	19.46
651.153	14.46
651.186	13.46
651.219	7.46
651.252	9.46
651.286	14.46
651.319	-1.54
651.352	5.46
651.385	6.46
651.418	11.46
651.451	8.46
651.484	3.46
651.518	-1.54
651.551	14.46
651.584	-9.54
651.617	21.46
651.65	2.46
651.683	8.46
651.716	32.46
651.749	7.46
651.783	9.46
651.816	16.46
651.849	12.46
651.882	18.46
651.915	2.46
651.948	3.46
651.981	1.46
652.014	-10.54
652.047	-9.54
652.08	-21.54
652.114	6.46
652.147	0.46
652.18	8.46
652.213	41.46
652.246	15.46
652.279	5.46
652.312	6.46
652.345	1.46
652.378	-0.54
652.411	29.46
652.444	6.46
652.477	2.46
652.51	-2.54
652.543	-6.54
652.576	4.46
652.609	5.46
652.642	-4.54
652.675	16.46
652.709	4.46
652.742	20.46
652.775	27.46
652.808	9.46
652.841	13.46
652.874	20.46
652.907	14.46
652.94	0.46
652.973	-16.54
653.006	-15.54
653.039	3.46
653.072	5.46
653.105	7.46
653.138	-14.54
653.171	5.46
653.204	5.46
653.237	-2.54
653.27	-8.54
653.303	10.46
653.336	23.46
653.368	-13.54
653.401	3.46
653.434	-1.54
653.467	-3.54
653.5	-18.54
653.533	-6.54
653.566	-3.54
653.599	14.46
653.632	13.46
653.665	-0.54
653.698	-7.54
653.731	-12.54
653.764	12.46
653.797	-0.54
653.83	10.46
653.863	10.46
653.896	15.46
653.929	7.46
653.961	10.46
653.994	15.46
654.027	-6.54
654.06	6.46
654.093	13.46
654.126	12.46
654.159	15.46
654.192	-6.54
654.225	-4.54
654.258	-2.54
654.29	-3.54
654.323	5.46
654.356	-1.54
654.389	15.46
654.422	-5.54
654.455	2.46
654.488	-1.54
654.521	-16.54
654.553	-16.54
654.586	18.46
654.619	19.46
654.652	14.46
654.685	7.46
654.718	14.46
654.751	18.46
654.783	10.46
654.816	23.46
654.849	9.46
654.882	-7.54
654.915	-12.54
654.948	10.46
654.98	-3.54
655.013	-0.54
655.046	0.46
655.079	8.46
655.112	18.46
655.144	1.46
655.177	7.46
655.21	16.46
655.243	15.46
655.276	3.46
655.308	16.46
655.341	3.46
655.374	13.46
655.407	-0.54
655.44	15.46
655.472	21.46
655.505	8.46
655.538	7.46
655.571	29.46
655.603	28.46
655.636	7.46
655.669	23.46
655.702	16.46
655.734	3.46
655.767	11.46
655.8	27.46
655.833	22.46
655.865	38.46
655.898	24.46
655.931	30.46
655.964	58.46
655.996	63.46
656.029	68.46
656.062	78.46
656.095	57.46
656.127	57.46
656.16	100.46
656.193	123.46
656.225	156.46
656.258	275.46
656.291	495.46
656.324	1117.46
656.356	3373.46
656.389	7567.46
656.422	6058.46
656.454	2055.46
656.487	699.46
656.52	275.46
656.552	133.46
656.585	71.46
656.618	60.46
656.65	55.46
656.683	33.46
656.716	10.46
656.748	11.46
656.781	-0.54
656.814	16.46
656.846	20.46
656.879	-4.54
656.912	5.46
656.944	-12.54
656.977	-5.54
657.01	9.46
657.042	9.46
657.075	8.46
657.108	9.46
657.14	5.46
657.173	22.46
657.205	34.46
657.238	13.46
657.271	4.46
657.303	-2.54
657.336	16.46
657.369	27.46
657.401	11.46
657.434	11.46
657.466	-4.54
657.499	-10.54
657.532	-3.54
657.564	24.46
657.597	14.46
657.629	3.46
657.662	-6.54
657.694	6.46
657.727	-7.54
657.76	12.46
657.792	5.46
657.825	-5.54
657.857	-0.54
657.89	-4.54
657.922	12.46
657.955	-11.54
657.987	6.46
658.02	18.46
658.053	2.46
658.085	10.46
658.118	15.46
658.15	5.46
658.183	14.46
658.215	-8.54
658.248	6.46
658.28	0.46
658.313	12.46
658.345	11.46
658.378	5.46
658.41	-4.54
658.443	16.46
658.475	14.46
658.508	6.46
658.54	4.46
658.573	-12.54
658.605	-1.54
658.638	9.46
658.67	2.46
658.703	-8.54
658.735	-6.54
658.768	-12.54
658.8	-1.54
658.833	28.46
658.865	5.46
658.898	12.46
658.93	2.46
658.963	14.46
658.995	-18.54
659.028	9.46
659.06	3.46
659.092	-2.54
659.125	0.46
659.157	7.46
659.19	-4.54
659.222	6.46
659.255	17.46
659.287	1.46
659.32	-4.54
659.352	9.46
659.384	13.46
659.417	-11.54
659.449	12.46
659.482	9.46
659.514	0.46
659.546	-12.54
659.579	-6.54
659.611	-12.54
659.644	-1.54
659.676	-1.54
659.708	1.46
659.741	0.46
659.773	3.46
659.806	3.46
659.838	-4.54
659.87	-4.54
659.903	-9.54
659.935	-1.54
659.967	9.46
660	9.46
660.032	-19.54
660.065	13.46
660.097	3.46
660.129	-4.54
660.162	-8.54
660.194	12.46
660.226	22.46
660.259	17.46
660.291	-4.54
660.323	-5.54
660.356	-1.54
660.388	-1.54
660.42	10.46
660.453	12.46
660.485	14.46
660.517	9.46
660.55	13.46
660.582	3.46
660.614	22.46
660.647	-5.54
660.679	-14.54
660.711	-5.54
660.743	-0.54
660.776	11.46
660.808	-2.54
660.84	2.46
660.873	9.46
660.905	6.46
660.937	1.46
660.969	-0.54
661.002	-1.54
661.034	8.46
661.066	6.46
661.099	12.46
661.131	19.46
661.163	20.46
661.195	21.46
661.228	20.46
661.26	2.46
661.292	-0.54
661.324	4.46
661.357	8.46
661.389	1.46
661.421	15.46
661.453	-5.54
661.485	3.46
661.518	13.46
661.55	-22.54
661.582	-6.54
661.614	-0.54
661.647	9.46
661.679	-3.54
661.711	-1.54
661.743	-5.54
661.775	-5.54
661.808	14.46
661.84	-7.54
661.872	4.46
661.904	-1.54
661.936	2.46
661.969	4.46
662.001	-0.54
662.033	-4.54
662.065	-3.54
662.097	3.46
662.129	2.46
662.162	-5.54
662.194	-1.54
662.226	16.46
662.258	22.46
662.29	9.46
662.322	4.46
662.355	-4.54
662.387	26.46
662.419	-13.54
662.451	9.46
662.483	19.46
662.515	-8.54
662.547	7.46
662.58	-6.54
662.612	-9.54
662.644	-10.54
662.676	19.46
662.708	13.46
662.74	-3.54
662.772	-6.54
662.804	11.46
662.836	11.46
662.869	4.46
662.901	7.46
662.933	6.46
662.965	21.46
662.997	10.46
663.029	0.46
663.061	5.46
663.093	10.46
663.125	12.46
663.157	2.46
663.189	-0.54
663.221	0.46
663.254	-2.54
663.286	21.46
663.318	5.46
663.35	-4.54
663.382	-1.54
663.414	6.46
663.446	2.46
663.478	-4.54
663.51	34.46
663.542	-2.54
663.574	3.46
663.606	23.46
663.638	0.46
663.67	5.46
663.702	9.46
663.734	13.46
663.766	8.46
663.798	-8.54
663.83	16.46
663.862	2.46
663.894	25.46
663.926	-4.54
663.958	2.46
663.99	-10.54
664.022	-4.54
664.054	10.46
664.086	1.46
664.118	-2.54
664.15	5.46
664.182	17.46
664.214	10.46
664.246	9.46
664.278	-2.54
664.31	6.46
664.342	3.46
664.374	7.46
664.406	9.46
664.438	-1.54
664.47	17.46
664.502	7.46
664.534	14.46
664.566	0.46
664.598	15.46
664.63	8.46
664.662	3.46
664.693	0.46
664.725	-25.54
664.757	-4.54
664.789	-6.54
664.821	9.46
664.853	13.46
664.885	-1.54
664.917	8.46
664.949	27.46
664.981	36.46
665.013	13.46
665.045	-9.54
665.076	-8.54
665.108	21.46
665.14	-1.54
665.172	6.46
665.204	0.46
665.236	-4.54
665.268	22.46
665.3	10.46
665.331	-4.54
665.363	-13.54
665.395	-8.54
665.427	1.46
665.459	12.46
665.491	14.46
665.523	5.46
665.555	-5.54
665.586	-5.54
665.618	-12.54
665.65	9.46
665.682	7.46
665.714	9.46
665.746	-6.54
665.777	6.46
665.809	-23.54
665.841	8.46
665.873	1.46
665.905	0.46
665.937	16.46
665.968	1.46
666	5.46
666.032	9.46
666.064	-8.54
666.096	-8.54
666.127	14.46
666.159	14.46
666.191	17.46
666.223	-0.54
666.255	-4.54
666.286	1.46
666.318	-5.54
666.35	22.46
666.382	-6.54
666.413	-7.54
666.445	-6.54
666.477	-17.54
666.509	-0.54
666.54	14.46
666.572	6.46
666.604	11.46
666.636	-1.54
666.667	13.46
666.699	22.46
666.731	9.46
666.763	7.46
666.794	5.46
666.826	-0.54
666.858	-23.54
666.89	8.46
666.921	11.46
666.953	-6.54
666.985	23.46
667.017	32.46
667.048	14.46
667.08	6.46
667.112	9.46
667.143	-5.54
667.175	5.46
667.207	7.46
667.238	15.46
667.27	-3.54
667.302	-2.54
667.334	-4.54
667.365	13.46
667.397	-2.54
667.429	-5.54
667.46	34.46
667.492	9.46
667.524	-20.54
667.555	-12.54
667.587	8.46
667.619	-6.54
667.65	-10.54
667.682	-0.54
667.714	0.46
667.745	-0.54
667.777	3.46
667.808	14.46
667.84	29.46
667.872	10.46
667.903	34.46
667.935	-3.54
667.967	2.46
667.998	8.46
668.03	-10.54
668.061	3.46
668.093	15.46
668.125	-13.54
668.156	8.46
668.188	6.46
668.22	-11.54
668.251	2.46
668.283	1.46
668.314	4.46
668.346	5.46
668.377	4.46
668.409	3.46
668.441	7.46
668.472	3.46
668.504	10.46
668.535	-0.54
668.567	8.46
668.599	-5.54
668.63	8.46
668.662	8.46
668.693	7.46
668.725	11.46
668.756	6.46
668.788	0.46
668.819	19.46
668.851	7.46
668.882	8.46
668.914	2.46
668.946	8.46
668.977	-1.54
669.009	-14.54
669.04	-15.54
669.072	12.46
669.103	15.46
669.135	-12.54
669.166	-4.54
669.198	10.46
669.229	-1.54
669.261	6.46
669.292	-12.54
669.324	-0.54
669.355	13.46
669.387	8.46
669.418	14.46
669.45	-6.54
669.481	4.46
669.513	20.46
669.544	8.46
669.576	-11.54
669.607	20.46
669.639	20.46
669.67	11.46
669.701	-0.54
669.733	-18.54
669.764	-10.54
669.796	-6.54
669.827	-0.54
669.859	-12.54
669.89	17.46
669.922	2.46
669.953	6.46
669.985	-6.54
670.016	18.46
670.047	7.46
670.079	-9.54
670.11	15.46
670.142	-2.54
670.173	-1.54
670.204	0.46
670.236	0.46
670.267	-8.54
670.299	2.46
670.33	-0.54
670.362	-3.54
670.393	-8.54
670.424	8.46
670.456	-7.54
670.487	7.46
670.518	4.46
670.55	7.46
670.581	2.46
670.613	3.46
670.644	-11.54
670.675	-8.54
670.707	8.46
670.738	-0.54
670.769	5.46
670.801	-0.54
670.832	4.46
670.864	-9.54
670.895	1.46
670.926	1.46
670.958	-4.54
670.989	9.46
671.02	4.46
671.052	14.46
671.083	18.46
671.114	2.46
671.146	11.46
671.177	-5.54
671.208	3.46
671.24	-0.54
671.271	3.46
671.302	1.46
671.333	-15.54
671.365	2.46
671.396	-9.54
671.427	9.46
671.459	-2.54
671.49	13.46
671.521	16.46
671.553	3.46
671.584	-3.54
671.615	-7.54
671.646	16.46
671.678	8.46
671.709	-10.54
671.74	-25.54
671.771	-4.54
671.803	8.46
671.834	5.46
671.865	-7.54
671.896	15.46
671.928	9.46
671.959	-10.54
671.99	11.46
672.021	-8.54
672.053	-6.54
672.084	16.46
672.115	12.46
672.146	13.46
672.178	-7.54
672.209	-2.54
672.24	-7.54
672.271	25.46
672.303	20.46
672.334	6.46
672.365	-8.54
672.396	1.46
672.427	0.46
672.459	13.46
672.49	12.46
672.521	-1.54
672.552	7.46
672.583	17.46
672.615	-1.54
672.646	16.46
672.677	-9.54
672.708	-5.54
672.739	15.46
672.77	14.46
672.802	19.46
672.833	-5.54
672.864	-5.54
672.895	-8.54
672.926	-2.54
672.957	-2.54
672.989	11.46
673.02	-1.54
673.051	0.46
673.082	10.46
673.113	4.46
673.144	-1.54
673.175	10.46
673.206	-2.54
673.238	-6.54
673.269	-6.54
673.3	-24.54
673.331	-0.54
673.362	8.46
673.393	11.46
673.424	6.46
673.455	27.46
673.487	10.46
673.518	18.46
673.549	10.46
673.58	8.46
673.611	11.46
673.642	8.46
673.673	-5.54
673.704	5.46
673.735	12.46
673.766	-1.54
673.797	-9.54
673.828	-2.54
673.86	1.46
673.891	-4.54
673.922	-5.54
673.953	-5.54
673.984	6.46
674.015	21.46
674.046	-3.54
674.077	-2.54
674.108	8.46
674.139	1.46
674.17	-12.54
674.201	9.46
674.232	-0.54
674.263	17.46
674.294	-3.54
674.325	-30.54
674.356	7.46
674.387	12.46
674.418	11.46
674.449	10.46
674.48	1.46
674.511	-0.54
674.542	6.46
674.573	-4.54
674.604	-4.54
674.635	2.46
674.666	20.46
674.697	16.46
674.728	0.46
674.759	5.46
674.79	-1.54
674.821	-4.54
674.852	5.46
674.883	-3.54
674.914	10.46
674.945	6.46
674.976	-6.54
675.007	-12.54
675.038	2.46
675.069	-3.54
675.1	-12.54
675.131	7.46
675.162	-11.54
675.193	4.46
675.224	-2.54
675.254	8.46
675.285	10.46
675.316	16.46
675.347	8.46
675.378	3.46
675.409	-13.54
675.44	6.46
675.471	13.46
675.502	-2.54
675.533	3.46
675.564	8.46
675.595	7.46
675.625	34.46
675.656	9.46
675.687	-2.54
675.718	-2.54
675.749	2.46
675.78	-5.54
675.811	-12.54
675.842	11.46
675.873	7.46
675.903	-13.54
675.934	3.46
675.965	2.46
675.996	-9.54
676.027	1.46
676.058	6.46
676.089	-3.54
676.119	5.46
676.15	-1.54
676.181	8.46
676.212	-2.54
676.243	7.46
676.274	10.46
676.304	19.46
676.335	-9.54
676.366	2.46
676.397	-4.54
676.428	-4.54
676.459	3.46
676.489	11.46
676.52	6.46
676.551	-8.54
676.582	2.46
676.613	6.46
676.643	-3.54
676.674	3.46
676.705	0.46
676.736	5.46
676.767	19.46
676.797	26.46
676.828	5.46
676.859	5.46
676.89	6.46
676.92	11.46
676.951	15.46
676.982	8.46
677.013	0.46
677.044	4.46
677.074	-1.54
677.105	-2.54
677.136	6.46
677.167	3.46
677.197	25.46
677.228	20.46
677.259	-8.54
677.289	12.46
677.32	1.46
677.351	5.46
677.382	-12.54
677.412	-2.54
677.443	10.46
677.474	2.46
677.505	-20.54
677.535	-0.54
677.566	-4.54
677.597	9.46
677.627	1.46
677.658	11.46
677.689	-8.54
677.72	0.46
677.75	0.46
677.781	3.46
677.812	12.46
677.842	14.46
677.873	-0.54
677.904	8.46
677.934	-10.54
677.965	-9.54
677.996	-0.54
678.026	9.46
678.057	1.46
678.088	-24.54
678.118	-19.54
678.149	-3.54
678.18	12.46
678.21	19.46
678.241	10.46
678.272	5.46
678.302	-1.54
678.333	8.46
678.363	7.46
678.394	14.46
678.425	5.46
678.455	6.46
678.486	13.46
678.517	-5.54
678.547	-4.54
678.578	5.46
678.608	-22.54
678.639	16.46
678.67	-5.54
678.7	-2.54
678.731	-13.54
678.761	2.46
678.792	12.46
678.823	6.46
678.853	-2.54
678.884	-9.54
678.914	6.46
678.945	-0.54
678.975	2.46
679.006	26.46
679.037	16.46
679.067	14.46
679.098	1.46
679.128	-13.54
679.159	-8.54
679.189	-2.54
679.22	-11.54
679.25	10.46
679.281	-4.54
679.312	-10.54
679.342	-0.54
679.373	37.46
679.403	9.46
679.434	15.46
679.464	3.46
679.495	9.46
679.525	13.46
679.556	7.46
679.586	9.46
679.617	4.46
679.647	3.46
679.678	-11.54
679.708	-12.54
679.739	6.46
679.769	-4.54
679.8	-0.54
679.83	-8.54
679.861	1.46
679.891	9.46
679.922	-6.54
679.952	-6.54
679.983	10.46
680.013	17.46
680.044	-2.54
680.074	13.46
680.105	5.46
680.135	14.46
680.165	15.46
680.196	7.46
680.226	1.46
680.257	5.46
680.287	-8.54
680.318	-1.54
680.348	-10.54
680.379	1.46
680.409	2.46
680.439	7.46
680.47	3.46
680.5	12.46
680.531	-8.54
680.561	7.46
680.592	8.46
680.622	7.46
680.652	16.46
680.683	13.46
680.713	-16.54
680.744	-5.54
680.774	-2.54
680.804	28.46
680.835	15.46
680.865	8.46
680.896	11.46
680.926	15.46
680.956	-1.54
680.987	6.46
681.017	2.46
681.047	13.46
681.078	-2.54
681.108	6.46
681.139	6.46
681.169	2.46
681.199	2.46
681.23	12.46
681.26	-0.54
681.29	9.46
681.321	-6.54
681.351	4.46
681.381	-9.54
681.412	-0.54
681.442	-9.54
681.472	19.46
681.503	9.46
681.533	7.46
681.563	-9.54
681.594	1.46
681.624	13.46
681.654	1.46
681.685	-6.54
681.715	1.46
681.745	3.46
681.775	2.46
681.806	7.46
681.836	-1.54
681.866	-5.54
681.897	7.46
681.927	6.46
681.957	-18.54
681.987	7.46
682.018	12.46
682.048	10.46
682.078	10.46
682.109	18.46
682.139	13.46
682.169	-0.54
682.199	1.46
682.23	-10.54
682.26	-0.54
682.29	3.46
682.32	4.46
682.351	11.46
682.381	13.46
682.411	9.46
682.441	8.46
682.472	-4.54
682.502	-9.54
682.532	1.46
682.562	4.46
682.592	3.46
682.623	5.46
682.653	11.46
682.683	-15.54
682.713	12.46
682.743	-3.54
682.774	-1.54
682.804	13.46
682.834	15.46
682.864	-0.54
682.894	6.46
682.925	-19.54
682.955	-5.54
682.985	-15.54
683.015	-0.54
683.045	19.46
683.076	11.46
683.106	2.46
683.136	-13.54
683.166	-0.54
683.196	24.46
683.226	4.46
683.257	-20.54
683.287	3.46
683.317	-2.54
683.347	-1.54
683.377	0.46
683.407	-0.54
683.437	16.46
683.468	14.46
683.498	-11.54
683.528	-1.54
683.558	3.46
683.588	-11.54
683.618	-19.54
683.648	-0.54
683.678	1.46
683.708	14.46
683.739	-8.54
683.769	-9.54
683.799	-3.54
683.829	12.46
683.859	11.46
683.889	15.46
683.919	-5.54
683.949	4.46
683.979	7.46
684.009	-5.54
684.039	7.46
684.07	-7.54
684.1	16.46
684.13	11.46
684.16	0.46
684.19	-1.54
684.22	7.46
684.25	3.46
684.28	5.46
684.31	1.46
684.34	10.46
684.37	14.46
684.4	1.46
684.43	20.46
684.46	12.46
684.49	0.46
684.52	0.46
684.55	13.46
684.58	-9.54
684.61	-1.54
684.64	-10.54
684.67	6.46
684.7	-1.54
684.73	8.46
684.76	1.46
684.79	22.46
684.82	2.46
684.85	-16.54
684.88	13.46
684.91	10.46
684.94	12.46
684.97	2.46
685	-3.54
685.03	-18.54
685.06	-7.54
685.09	6.46
685.12	9.46
685.15	-1.54
685.18	3.46
685.21	6.46
685.24	15.46
685.27	25.46
685.3	11.46
685.33	4.46
685.36	-5.54
685.39	-2.54
685.42	-0.54
685.45	-5.54
685.48	-10.54
685.51	-4.54
685.54	5.46
685.569	-4.54
685.599	5.46
685.629	5.46
685.659	6.46
685.689	11.46
685.719	-3.54
685.749	-0.54
685.779	9.46
685.809	10.46
685.839	9.46
685.869	11.46
685.898	10.46
685.928	-1.54
685.958	2.46
685.988	15.46
686.018	0.46
686.048	-2.54
686.078	5.46
686.108	7.46
686.137	-11.54
686.167	21.46
686.197	-11.54
686.227	10.46
686.257	37.46
686.287	15.46
686.317	8.46
686.346	1.46
686.376	-4.54
686.406	-13.54
686.436	21.46
686.466	-1.54
686.496	-0.54
686.525	10.46
686.555	7.46
686.585	22.46
686.615	30.46
686.645	1.46
686.675	6.46
686.704	6.46
686.734	8.46
686.764	-1.54
686.794	1.46
686.824	4.46
686.853	22.46
686.883	25.46
686.913	12.46
686.943	-2.54
686.973	2.46
687.002	5.46
687.032	8.46
687.062	4.46
687.092	33.46
687.121	4.46
687.151	-7.54
687.181	6.46
687.211	20.46
687.24	1.46
687.27	10.46
687.3	8.46
687.33	0.46
687.359	-8.54
687.389	13.46
687.419	-10.54
687.449	1.46
687.478	13.46
687.508	1.46
687.538	6.46
687.568	15.46
687.597	-0.54
687.627	5.46
687.657	9.46
687.686	20.46
687.716	19.46
687.746	-4.54
687.776	-16.54
687.805	4.46
687.835	-3.54
687.865	23.46
687.894	3.46
687.924	0.46
687.954	-2.54
687.983	14.46
688.013	24.46
688.043	3.46
688.072	-2.54
688.102	22.46
688.132	2.46
688.161	-3.54
688.191	-4.54
688.221	30.46
688.25	-7.54
688.28	1.46
688.31	2.46
688.339	-0.54
688.369	-7.54
688.399	5.46
688.428	0.46
688.458	16.46
688.488	7.46
688.517	-0.54
688.547	-8.54
688.576	12.46
688.606	9.46
688.636	-8.54
688.665	17.46
688.695	16.46
688.725	6.46
688.754	7.46
688.784	14.46
688.813	0.46
688.843	2.46
688.873	-12.54
688.902	-6.54
688.932	6.46
688.961	22.46
688.991	16.46
689.02	13.46
689.05	6.46
689.08	13.46
689.109	13.46
689.139	-9.54
689.168	-5.54
689.198	-11.54
689.227	-7.54
689.257	14.46
689.287	12.46
689.316	13.46
689.346	5.46
689.375	-2.54
689.405	5.46
689.434	9.46
689.464	13.46
689.493	6.46
689.523	-2.54
689.552	-8.54
689.582	6.46
689.611	-8.54
689.641	13.46
689.67	17.46
689.7	23.46
689.73	14.46
689.759	5.46
689.789	13.46
689.818	7.46
689.848	7.46
689.877	8.46
689.906	-6.54
689.936	-2.54
689.965	14.46
689.995	6.46
690.024	8.46
690.054	4.46
690.083	0.46
690.113	-4.54
690.142	0.46
690.172	1.46
690.201	-5.54
690.231	-3.54
690.26	17.46
690.29	5.46
690.319	9.46
690.348	4.46
690.378	-0.54
690.407	3.46
690.437	-4.54
690.466	8.46
690.496	4.46
690.525	23.46
690.555	5.46
690.584	3.46
690.613	1.46
690.643	9.46
690.672	-6.54
690.702	16.46
690.731	5.46
690.76	-4.54
690.79	-2.54
690.819	13.46
690.849	12.46
690.878	14.46
690.907	6.46
690.937	11.46
690.966	9.46
690.996	12.46
691.025	2.46
691.054	0.46
691.084	4.46
691.113	2.46
691.142	-1.54
691.172	11.46
691.201	25.46
691.23	11.46
691.26	23.46
691.289	3.46
691.319	-16.54
691.348	-8.54
691.377	20.46
691.407	21.46
691.436	18.46
691.465	5.46
691.495	3.46
691.524	-22.54
691.553	-11.54
691.583	8.46
691.612	-0.54
691.641	8.46
691.67	13.46
691.7	12.46
691.729	-3.54
691.758	7.46
691.788	9.46
691.817	-2.54
691.846	8.46
691.876	12.46
691.905	11.46
691.934	6.46
691.963	3.46
691.993	7.46
692.022	-19.54
692.051	-11.54
692.081	14.46
692.11	12.46
692.139	1.46
692.168	3.46
692.198	12.46
692.227	16.46
692.256	11.46
692.285	1.46
692.315	0.46
692.344	5.46
692.373	2.46
692.402	-2.54
692.432	-5.54
692.461	5.46
692.49	16.46
692.519	14.46
692.548	20.46
692.578	18.46
692.607	-10.54
692.636	2.46
692.665	6.46
692.694	9.46
692.724	6.46
692.753	16.46
692.782	12.46
692.811	-4.54
692.84	15.46
692.87	9.46
692.899	7.46
692.928	6.46
692.957	20.46
692.986	-2.54
693.016	-11.54
693.045	7.46
693.074	-12.54
693.103	2.46
693.132	5.46
693.161	31.46
693.191	15.46
693.22	-0.54
693.249	5.46
693.278	5.46
693.307	12.46
693.336	-5.54
693.365	-0.54
693.395	7.46
693.424	14.46
693.453	7.46
693.482	7.46
693.511	12.46
693.54	9.46
693.569	15.46
693.598	1.46
693.628	5.46
693.657	16.46
693.686	34.46
693.715	10.46
693.744	17.46
693.773	28.46
693.802	10.46
693.831	0.46
693.86	22.46
693.889	10.46
693.919	9.46
693.948	-2.54
693.977	9.46
694.006	2.46
694.035	-3.54
694.064	16.46
694.093	8.46
694.122	2.46
694.151	12.46
694.18	10.46
694.209	20.46
694.238	4.46
694.267	25.46
694.296	24.46
694.325	9.46
694.354	8.46
694.383	14.46
694.412	2.46
694.441	-7.54
694.471	10.46
694.5	-15.54
694.529	4.46
694.558	30.46
694.587	32.46
694.616	3.46
694.645	-0.54
694.674	11.46
694.703	11.46
694.732	3.46
694.761	18.46
694.79	22.46
694.819	-8.54
694.848	9.46
694.877	25.46
694.906	25.46
694.935	6.46
694.963	29.46
694.992	7.46
695.021	8.46
695.05	8.46
695.079	18.46
695.108	-5.54
695.137	7.46
695.166	14.46
695.195	-3.54
695.224	23.46
695.253	18.46
695.282	1.46
695.311	4.46
695.34	0.46
695.369	13.46
695.398	-3.54
695.427	23.46
695.456	11.46
695.485	-2.54
695.513	14.46
695.542	11.46
695.571	5.46
695.6	18.46
695.629	24.46
695.658	11.46
695.687	15.46
695.716	23.46
695.745	28.46
695.774	-12.54
695.802	-5.54
695.831	-4.54
695.86	25.46
695.889	0.46
695.918	13.46
695.947	7.46
695.976	9.46
696.005	4.46
696.033	14.46
696.062	7.46
696.091	2.46
696.12	1.46
696.149	21.46
696.178	17.46
696.207	8.46
696.235	1.46
696.264	14.46
696.293	8.46
696.322	15.46
696.351	17.46
696.38	-10.54
696.408	-8.54
696.437	7.46
696.466	10.46
696.495	19.46
696.524	5.46
696.553	7.46
696.581	11.46
696.61	0.46
696.639	-5.54
696.668	0.46
696.697	5.46
696.725	15.46
696.754	1.46
696.783	-3.54
696.812	6.46
696.84	6.46
696.869	12.46
696.898	7.46
696.927	6.46
696.956	12.46
696.984	-7.54
697.013	4.46
697.042	10.46
697.071	21.46
697.099	17.46
697.128	19.46
697.157	15.46
697.186	7.46
697.214	-0.54
697.243	2.46
697.272	6.46
697.301	5.46
697.329	4.46
697.358	2.46
697.387	16.46
697.415	14.46
697.444	27.46
697.473	6.46
697.502	-8.54
697.53	17.46
697.559	11.46
697.588	14.46
697.616	4.46
697.645	-11.54
697.674	11.46
697.703	3.46
697.731	8.46
697.76	15.46
697.789	11.46
697.817	-2.54
697.846	22.46
697.875	9.46
697.903	33.46
697.932	28.46
697.961	16.46
697.989	8.46
698.018	19.46
698.047	-1.54
698.075	25.46
698.104	12.46
698.133	-6.54
698.161	-0.54
698.19	5.46
698.218	11.46
698.247	20.46
698.276	5.46
698.304	8.46
698.333	10.46
698.362	14.46
698.39	1.46
698.419	0.46
698.447	4.46
698.476	1.46
698.505	10.46
698.533	6.46
698.562	9.46
698.591	-18.54
698.619	-17.54
698.648	-1.54
698.676	6.46
698.705	-4.54
698.733	-3.54
698.762	18.46
698.791	4.46
698.819	-4.54
698.848	12.46
698.876	10.46
698.905	1.46
698.933	20.46
698.962	31.46
698.991	8.46
699.019	16.46
699.048	10.46
699.076	2.46
699.105	0.46
699.133	-4.54
699.162	1.46
699.19	22.46
699.219	3.46
699.248	-0.54
699.276	4.46
699.305	-5.54
699.333	1.46
699.362	-1.54
699.39	18.46
699.419	1.46
699.447	1.46
699.476	3.46
699.504	-11.54
699.533	8.46
699.561	-19.54
699.59	-0.54
699.618	-3.54
699.647	-1.54
699.675	-2.54
699.704	11.46
699.732	13.46
699.761	17.46
699.789	5.46
699.818	17.46
699.846	11.46
699.874	-1.54
699.903	-1.54
699.931	-12.54
699.96	11.46
699.988	-4.54
700.017	-2.54
700.045	-3.54
700.074	13.46
700.102	-2.54
700.13	-7.54
700.159	11.46
700.187	-13.54
700.216	-13.54
700.244	8.46
700.273	-4.54
700.301	4.46
700.329	23.46
700.358	14.46
700.386	4.46
700.415	6.46
700.443	13.46
700.472	12.46
700.5	14.46
700.528	14.46
700.557	13.46
700.585	6.46
700.614	3.46
700.642	8.46
700.67	24.46
700.699	13.46
700.727	7.46
700.755	-8.54
700.784	-2.54
700.812	-4.54
700.841	24.46
700.869	-0.54
700.897	-14.54
700.926	-4.54
700.954	-3.54
700.982	18.46
701.011	12.46
701.039	6.46
701.067	2.46
701.096	5.46
701.124	-9.54
701.152	14.46
701.181	0.46
701.209	-16.54
701.237	-0.54
701.266	-7.54
701.294	-1.54
701.322	13.46
701.351	11.46
701.379	7.46
701.407	-0.54
701.435	-1.54
701.464	13.46
701.492	10.46
701.52	-2.54
701.549	4.46
701.577	-5.54
701.605	-0.54
701.634	11.46
701.662	14.46
701.69	-14.54
701.718	-4.54
701.747	5.46
701.775	0.46
701.803	10.46
701.831	19.46
701.86	-1.54
701.888	1.46
701.916	-5.54
701.944	2.46
701.973	-7.54
702.001	-5.54
702.029	-6.54
702.057	3.46
702.086	-11.54
702.114	-9.54
702.142	8.46
702.17	2.46
702.199	20.46
702.227	5.46
702.255	3.46
702.283	-18.54
702.311	0.46
702.34	-6.54
702.368	-1.54
702.396	11.46
702.424	1.46
702.452	8.46
702.481	2.46
702.509	5.46
702.537	13.46
702.565	2.46
702.593	-3.54
702.621	-10.54
702.65	7.46
702.678	-0.54
702.706	4.46
702.734	3.46
702.762	6.46
702.79	0.46
702.819	-8.54
702.847	-2.54
702.875	14.46
702.903	15.46
702.931	-4.54
702.959	-8.54
702.988	10.46
703.016	-5.54
703.044	-0.54
703.072	-13.54
703.1	-23.54
703.128	5.46
703.156	-12.54
703.184	9.46
703.212	25.46
703.241	15.46
703.269	1.46
703.297	-0.54
703.325	5.46
703.353	-11.54
703.381	-13.54
703.409	6.46
703.437	-18.54
703.465	2.46
703.493	-1.54
703.522	14.46
703.55	14.46
703.578	-0.54
703.606	-9.54
703.634	-6.54
703.662	-6.54
703.69	-1.54
703.718	6.46
703.746	16.46
703.774	14.46
703.802	15.46
703.83	-0.54
703.858	3.46
703.886	3.46
703.914	-3.54
703.942	12.46
703.97	-2.54
703.998	2.46
704.027	7.46
704.055	5.46
704.083	3.46
704.111	-4.54
704.139	5.46
704.167	-1.54
704.195	10.46
704.223	7.46
704.251	-0.54
704.279	11.46
704.307	-6.54
704.335	-17.54
704.363	3.46
704.391	2.46
704.419	16.46
704.447	1.46
704.475	1.46
704.503	-0.54
704.531	18.46
704.558	-0.54
704.586	-2.54
704.614	7.46
704.642	10.46
704.67	-7.54
704.698	-15.54
704.726	-3.54
704.754	-1.54
704.782	-4.54
704.81	2.46
704.838	25.46
704.866	21.46
704.894	-16.54
704.922	1.46
704.95	13.46
704.978	-0.54
705.006	-2.54
705.034	9.46
705.061	5.46
705.089	3.46
705.117	-5.54
705.145	-3.54
705.173	3.46
705.201	-9.54
705.229	4.46
705.257	10.46
705.285	6.46
705.313	8.46
705.34	12.46
705.368	1.46
705.396	12.46
705.424	6.46
705.452	-3.54
705.48	7.46
705.508	-9.54
705.536	-6.54
705.563	-0.54
705.591	-0.54
705.619	4.46
705.647	9.46
705.675	10.46
705.703	28.46
705.731	13.46
705.758	22.46
705.786	15.46
705.814	28.46
705.842	-4.54
705.87	3.46
705.898	8.46
705.925	8.46
705.953	3.46
705.981	-8.54
706.009	-5.54
706.037	6.46
706.065	3.46
706.092	1.46
706.12	0.46
706.148	-7.54
706.176	3.46
706.204	11.46
706.231	-5.54
706.259	-10.54
706.287	-2.54
706.315	20.46
706.342	-5.54
706.37	9.46
706.398	20.46
706.426	8.46
706.454	8.46
706.481	11.46
706.509	6.46
706.537	-8.54
706.565	-5.54
706.592	15.46
706.62	-1.54
706.648	14.46
706.676	-0.54
706.703	7.46
706.731	-8.54
706.759	-0.54
706.787	-2.54
706.814	-7.54
706.842	-4.54
706.87	-6.54
706.897	6.46
706.925	-2.54
706.953	16.46
706.981	7.46
707.008	-0.54
707.036	5.46
707.064	20.46
707.091	-17.54
707.119	7.46
707.147	2.46
707.174	-7.54
707.202	-1.54
707.23	-10.54
707.258	18.46
707.285	-8.54
707.313	-9.54
707.341	-10.54
707.368	-1.54
707.396	0.46
707.424	22.46
707.451	5.46
707.479	2.46
707.507	1.46
707.534	-12.54
707.562	10.46
707.59	-1.54
707.617	-5.54
707.645	11.46
707.672	11.46
707.7	11.46
707.728	8.46
707.755	8.46
707.783	10.46
707.811	18.46
707.838	18.46
707.866	19.46
707.893	-9.54
707.921	-3.54
707.949	4.46
707.976	-2.54
708.004	23.46
708.031	-8.54
708.059	8.46
708.087	11.46
708.114	-13.54
708.142	6.46
708.169	7.46
708.197	2.46
708.225	4.46
708.252	-7.54
708.28	14.46
708.307	15.46
708.335	5.46
708.362	4.46
708.39	-8.54
708.418	10.46
708.445	4.46
708.473	-3.54
708.5	-13.54
708.528	-2.54
708.555	1.46
708.583	0.46
708.61	-13.54
708.638	9.46
708.665	-4.54
708.693	4.46
708.72	1.46
708.748	-0.54
708.776	4.46
708.803	8.46
708.831	24.46
708.858	17.46
708.886	12.46
708.913	7.46
708.941	-16.54
708.968	20.46
708.996	0.46
709.023	32.46
709.051	-0.54
709.078	1.46
709.105	11.46
709.133	1.46
709.16	8.46
709.188	14.46
709.215	2.46
709.243	7.46
709.27	-12.54
709.298	0.46
709.325	8.46
709.353	0.46
709.38	10.46
709.408	6.46
709.435	0.46
709.462	-3.54
709.49	19.46
709.517	-0.54
709.545	-8.54
709.572	1.46
709.6	10.46
709.627	8.46
709.655	3.46
709.682	-1.54
709.709	6.46
709.737	4.46
709.764	1.46
709.792	15.46
709.819	5.46
709.846	18.46
709.874	11.46
709.901	15.46
709.929	27.46
709.956	8.46
709.983	-3.54
710.011	0.46
710.038	-4.54
710.066	3.46
710.093	19.46
710.12	8.46
710.148	2.46
710.175	-4.54
710.202	5.46
710.23	12.46
710.257	7.46
710.284	6.46
710.312	1.46
710.339	1.46
710.366	4.46
710.394	2.46
710.421	2.46
710.448	-3.54
710.476	-10.54
710.503	15.46
710.53	22.46
710.558	8.46
710.585	3.46
710.612	6.46
710.64	3.46
710.667	2.46
710.694	4.46
710.722	-2.54
710.749	10.46
710.776	0.46
710.804	21.46
710.831	0.46
710.858	-4.54
710.885	-7.54
710.913	-1.54
710.94	7.46
710.967	4.46
710.995	18.46
711.022	-0.54
711.049	-2.54
711.076	-0.54
711.104	1.46
711.131	-4.54
711.158	16.46
711.185	20.46
711.213	-11.54
711.24	-2.54
711.267	-7.54
711.294	-12.54
711.322	16.46
711.349	1.46
711.376	-0.54
711.403	12.46
711.431	1.46
711.458	3.46
711.485	2.46
711.512	14.46
711.54	3.46
711.567	1.46
711.594	-1.54
711.621	-6.54
711.648	-10.54
711.676	10.46
711.703	-3.54
711.73	-13.54
711.757	-0.54
711.784	8.46
711.812	6.46
711.839	-4.54
711.866	-2.54
711.893	-6.54
711.92	10.46
711.947	6.46
711.975	9.46
712.002	-11.54
712.029	2.46
712.056	14.46
712.083	11.46
712.11	-12.54
712.138	-0.54
712.165	18.46
712.192	-2.54
712.219	-3.54
712.246	-14.54
712.273	-14.54
712.3	2.46
712.328	3.46
712.355	5.46
712.382	-9.54
712.409	12.46
712.436	4.46
712.463	9.46
712.49	13.46
712.517	14.46
712.544	1.46
712.572	8.46
712.599	-11.54
712.626	3.46
712.653	3.46
712.68	-0.54
712.707	4.46
712.734	14.46
712.761	3.46
712.788	12.46
712.815	3.46
712.842	14.46
712.87	-1.54
712.897	-1.54
712.924	-5.54
712.951	12.46
712.978	3.46
713.005	18.46
713.032	9.46
713.059	13.46
713.086	-6.54
713.113	-5.54
713.14	-14.54
713.167	24.46
713.194	15.46
713.221	1.46
713.248	24.46
713.275	-2.54
713.302	1.46
713.329	7.46
713.356	-0.54
713.383	5.46
713.41	9.46
713.437	8.46
713.464	12.46
713.491	4.46
713.518	-1.54
713.545	-3.54
713.572	-2.54
713.599	11.46
713.626	-6.54
713.653	7.46
713.68	-6.54
713.707	-9.54
713.734	2.46
713.761	-3.54
713.788	13.46
713.815	16.46
713.842	-13.54
713.869	-1.54
713.896	-2.54
713.923	3.46
713.95	3.46
713.977	-12.54
714.004	-2.54
714.031	-6.54
714.058	6.46
714.085	0.46
714.112	15.46
714.139	-14.54
714.165	-5.54
714.192	-0.54
714.219	5.46
714.246	9.46
714.273	0.46
714.3	-4.54
714.327	20.46
714.354	6.46
714.381	-2.54
714.408	-4.54
714.435	4.46
714.461	-8.54
714.488	2.46
714.515	-5.54
714.542	7.46
714.569	-12.54
714.596	-4.54
714.623	3.46
714.65	-5.54
714.677	-5.54
714.703	11.46
714.73	-2.54
714.757	23.46
714.784	4.46
714.811	-8.54
714.838	-4.54
714.865	5.46
714.891	13.46
714.918	1.46
714.945	-15.54
714.972	-8.54
714.999	15.46
715.026	13.46
715.052	6.46
715.079	11.46
715.106	14.46
715.133	-1.54
715.16	2.46
715.187	-3.54
715.213	-1.54
715.24	8.46
715.267	-3.54
715.294	5.46
715.321	-2.54
715.347	8.46
715.374	-0.54
715.401	4.46
715.428	6.46
715.455	36.46
715.481	3.46
715.508	-1.54
715.535	10.46
715.562	20.46
715.588	5.46
715.615	-1.54
715.642	-9.54
715.669	9.46
715.695	4.46
715.722	-2.54
715.749	-3.54
715.776	13.46
715.802	1.46
715.829	-5.54
715.856	-8.54
715.883	13.46
715.909	0.46
715.936	6.46
715.963	-3.54
715.99	-8.54
716.016	21.46
716.043	4.46
716.07	-4.54
716.096	1.46
716.123	-13.54
716.15	-0.54
716.177	10.46
716.203	1.46
716.23	10.46
716.257	13.46
716.283	22.46
716.31	26.46
716.337	18.46
716.363	-4.54
716.39	14.46
716.417	19.46
716.443	-1.54
716.47	5.46
716.497	13.46
716.523	25.46
716.55	8.46
716.577	23.46
716.603	3.46
716.63	-4.54
716.657	7.46
716.683	1.46
716.71	6.46
716.737	13.46
716.763	-5.54
716.79	4.46
716.817	19.46
716.843	16.46
716.87	3.46
716.897	4.46
716.923	26.46
716.95	3.46
716.976	-5.54
717.003	2.46
717.03	3.46
717.056	8.46
717.083	-10.54
717.109	5.46
717.136	14.46
717.163	6.46
717.189	9.46
717.216	9.46
717.242	3.46
717.269	8.46
717.296	14.46
717.322	17.46
717.349	20.46
717.375	8.46
717.402	-2.54
717.428	-1.54
717.455	-0.54
717.481	-3.54
717.508	1.46
717.535	9.46
717.561	-3.54
717.588	-4.54
717.614	-2.54
717.641	21.46
717.667	8.46
717.694	-0.54
717.72	6.46
717.747	9.46
717.773	-5.54
717.8	15.46
717.826	4.46
717.853	1.46
717.88	-10.54
717.906	-2.54
717.933	-0.54
717.959	5.46
717.986	-2.54
718.012	-10.54
718.039	8.46
718.065	2.46
718.092	17.46
718.118	-12.54
718.144	-3.54
718.171	23.46
718.197	27.46
718.224	7.46
718.25	10.46
718.277	3.46
718.303	1.46
718.33	1.46
718.356	-2.54
718.383	-9.54
718.409	6.46
718.436	-6.54
718.462	-2.54
718.489	-10.54
718.515	17.46
718.541	10.46
718.568	14.46
718.594	-0.54
718.621	6.46
718.647	-3.54
718.674	-3.54
718.7	10.46
718.726	12.46
718.753	-1.54
718.779	15.46
718.806	10.46
718.832	-4.54
718.858	4.46
718.885	6.46
718.911	0.46
718.938	2.46
718.964	-7.54
718.99	10.46
719.017	5.46
719.043	6.46
719.07	21.46
719.096	7.46
719.122	5.46
719.149	2.46
719.175	17.46
719.201	3.46
719.228	-6.54
719.254	7.46
719.281	-14.54
719.307	-3.54
719.333	0.46
719.36	21.46
719.386	10.46
719.412	1.46
719.439	2.46
719.465	-12.54
719.491	-1.54
719.518	5.46
719.544	9.46
719.57	4.46
719.597	10.46
719.623	-6.54
719.649	-10.54
719.675	-7.54
719.702	10.46
719.728	20.46
719.754	-2.54
719.781	-6.54
719.807	-2.54
719.833	-14.54
719.86	-9.54
719.886	7.46
719.912	11.46
719.938	-10.54
719.965	-0.54
719.991	7.46
720.017	-0.54
720.044	-4.54
720.07	-6.54
720.096	11.46
720.122	23.46
720.149	39.46
720.175	33.46
720.201	-1.54
720.227	11.46
720.254	9.46
720.28	6.46
720.306	-6.54
720.332	14.46
720.359	-4.54
720.385	13.46
720.411	6.46
720.437	14.46
720.463	6.46
720.49	25.46
720.516	-5.54
720.542	-9.54
720.568	-8.54
720.595	5.46
720.621	6.46
720.647	15.46
720.673	13.46
720.699	4.46
720.725	11.46
720.752	15.46
720.778	20.46
720.804	11.46
720.83	3.46
720.856	4.46
720.883	-5.54
720.909	-0.54
720.935	15.46
720.961	14.46
720.987	3.46
721.013	2.46
721.04	1.46
721.066	4.46
721.092	13.46
721.118	7.46
721.144	3.46
721.17	-1.54
721.196	1.46
721.223	-0.54
721.249	7.46
721.275	37.46
721.301	6.46
721.327	17.46
721.353	17.46
721.379	-13.54
721.405	3.46
721.432	3.46
721.458	-7.54
721.484	-4.54
721.51	-17.54
721.536	-4.54
721.562	5.46
721.588	14.46
721.614	-6.54
721.64	-5.54
721.666	-0.54
721.693	-8.54
721.719	-1.54
721.745	-1.54
721.771	5.46
721.797	3.46
721.823	-0.54
721.849	12.46
721.875	16.46
721.901	15.46
721.927	-8.54
721.953	2.46
721.979	2.46
722.005	10.46
722.031	7.46
722.057	-3.54
722.083	3.46
722.109	9.46
722.135	14.46
722.161	15.46
722.187	8.46
722.214	1.46
722.24	-1.54
722.266	-11.54
722.292	14.46
722.318	11.46
722.344	2.46
722.37	3.46
722.396	17.46
722.422	2.46
722.448	-0.54
722.474	-7.54
722.5	16.46
722.526	-6.54
722.552	10.46
722.578	2.46
722.603	2.46
722.629	-13.54
722.655	16.46
722.681	-8.54
722.707	5.46
722.733	-5.54
722.759	-16.54
722.785	-5.54
722.811	-5.54
722.837	-4.54
722.863	9.46
722.889	17.46
722.915	-0.54
722.941	1.46
722.967	2.46
722.993	10.46
723.019	-3.54
723.045	-8.54
723.071	0.46
723.097	7.46
723.122	5.46
723.148	2.46
723.174	3.46
723.2	10.46
723.226	3.46
723.252	1.46
723.278	8.46
723.304	5.46
723.33	7.46
723.356	-1.54
723.381	-2.54
723.407	-9.54
723.433	0.46
723.459	-13.54
723.485	-6.54
723.511	-0.54
723.537	-4.54
723.563	-0.54
723.588	-9.54
723.614	5.46
723.64	-2.54
723.666	-6.54
723.692	-2.54
723.718	-9.54
723.744	-9.54
723.769	-13.54
723.795	-0.54
723.821	-1.54
723.847	4.46
723.873	1.46
723.899	5.46
723.924	6.46
723.95	2.46
723.976	-16.54
724.002	11.46
724.028	9.46
724.053	-0.54
724.079	-1.54
724.105	-3.54
724.131	-7.54
724.157	1.46
724.182	19.46
724.208	-1.54
724.234	2.46
724.26	-10.54
724.286	0.46
724.311	2.46
724.337	7.46
724.363	-5.54
724.389	18.46
724.415	20.46
724.44	28.46
724.466	26.46
724.492	1.46
724.518	15.46
724.543	-2.54
724.569	10.46
724.595	5.46
724.621	1.46
724.646	-18.54
724.672	6.46
724.698	11.46
724.723	-2.54
724.749	7.46
724.775	18.46
724.801	9.46
724.826	-4.54
724.852	2.46
724.878	0.46
724.904	-8.54
724.929	2.46
724.955	-12.54
724.981	-7.54
725.006	-2.54
725.032	-1.54
725.058	10.46
725.083	-3.54
725.109	-2.54
725.135	2.46
725.161	5.46
725.186	6.46
725.212	13.46
725.238	13.46
725.263	9.46
725.289	-10.54
725.315	-13.54
725.34	-3.54
725.366	7.46
725.392	-4.54
725.417	-4.54
725.443	0.46
725.468	1.46
725.494	28.46
725.52	1.46
725.545	-6.54
725.571	4.46
725.597	-1.54
725.622	20.46
725.648	5.46
725.674	22.46
725.699	23.46
725.725	7.46
725.75	4.46
725.776	9.46
725.802	9.46
725.827	11.46
725.853	10.46
725.878	18.46
725.904	14.46
725.93	-3.54
725.955	6.46
725.981	-3.54
726.006	-5.54
726.032	9.46
726.057	-6.54
726.083	-6.54
726.109	-2.54
726.134	6.46
726.16	16.46
726.185	-3.54
726.211	-3.54
726.236	9.46
726.262	-1.54
726.288	11.46
726.313	10.46
726.339	3.46
726.364	1.46
726.39	21.46
726.415	1.46
726.441	-4.54
726.466	-9.54
726.492	14.46
726.517	11.46
726.543	-3.54
726.568	2.46
726.594	-4.54
726.619	10.46
726.645	4.46
726.67	5.46
726.696	11.46
726.721	1.46
726.747	-10.54
726.772	5.46
726.798	-1.54
726.823	-6.54
726.849	-2.54
726.874	1.46
726.9	9.46
726.925	-2.54
726.951	-9.54
726.976	11.46
727.002	-9.54
727.027	7.46
727.053	8.46
727.078	-3.54
727.104	5.46
727.129	-6.54
727.155	-6.54
727.18	1.46
727.205	13.46
727.231	6.46
727.256	9.46
727.282	14.46
727.307	18.46
727.333	-0.54
727.358	5.46
727.383	-2.54
727.409	8.46
727.434	8.46
727.46	-5.54
727.485	-12.54
727.511	-8.54
727.536	-14.54
727.561	-2.54
727.587	-8.54
727.612	-8.54
727.637	7.46
727.663	-10.54
727.688	19.46
727.714	-5.54
727.739	-5.54
727.764	2.46
727.79	2.46
727.815	7.46
727.841	11.46
727.866	6.46
727.891	17.46
727.917	-9.54
727.942	-18.54
727.967	2.46
727.993	-29.54
728.018	-5.54
728.043	2.46
728.069	1.46
728.094	27.46
728.119	-0.54
728.145	35.46
728.17	2.46
728.195	1.46
728.221	16.46
728.246	10.46
728.271	-3.54
728.297	4.46
728.322	14.46
728.347	9.46
728.373	6.46
728.398	8.46
728.423	8.46
728.448	8.46
728.474	-2.54
728.499	-2.54
728.524	-2.54
728.55	-4.54
728.575	3.46
728.6	1.46
728.625	4.46
728.651	7.46
728.676	7.46
728.701	-6.54
728.727	9.46
728.752	-12.54
728.777	2.46
728.802	4.46
728.828	3.46
728.853	-8.54
728.878	-2.54
728.903	-4.54
728.929	-21.54
728.954	-3.54
728.979	-5.54
729.004	-1.54
729.03	1.46
729.055	7.46
729.08	-0.54
729.105	-7.54
729.13	14.46
729.156	6.46
729.181	9.46
729.206	-20.54
729.231	-6.54
729.256	16.46
729.282	11.46
729.307	-12.54
729.332	-0.54
729.357	-9.54
729.382	-5.54
729.408	1.46
729.433	3.46
729.458	2.46
729.483	1.46
729.508	12.46
729.533	6.46
729.559	-0.54
729.584	-12.54
729.609	0.46
729.634	17.46
729.659	-1.54
729.684	-4.54
729.71	0.46
729.735	9.46
729.76	2.46
729.785	-8.54
729.81	17.46
729.835	-4.54
729.86	0.46
729.886	18.46
729.911	18.46
729.936	-4.54
729.961	-5.54
729.986	-14.54
730.011	-2.54
730.036	4.46
730.061	13.46
730.086	4.46
730.112	-0.54
730.137	26.46
730.162	2.46
730.187	-3.54
730.212	3.46
730.237	-3.54
730.262	-1.54
730.287	-8.54
730.312	15.46
730.337	4.46
730.362	26.46
730.387	15.46
730.413	-2.54
730.438	-3.54
730.463	8.46
730.488	-5.54
730.513	15.46
730.538	7.46
730.563	22.46
730.588	16.46
730.613	16.46
730.638	-6.54
730.663	1.46
730.688	32.46
730.713	5.46
730.738	13.46
730.763	6.46
730.788	-9.54
730.813	-3.54
730.838	-12.54
730.863	-16.54
730.888	-11.54
730.913	-11.54
730.938	-6.54
730.963	1.46
730.988	13.46
731.013	22.46
731.038	-1.54
731.063	-12.54
731.088	11.46
731.113	4.46
731.138	2.46
731.163	-0.54
731.188	-1.54
731.213	-0.54
731.238	14.46
731.263	7.46
731.288	-3.54
731.313	-1.54
731.338	-3.54
731.363	-2.54
731.388	-7.54
731.413	9.46
731.438	21.46
731.463	7.46
731.487	0.46
731.512	-2.54
731.537	-1.54
731.562	1.46
731.587	1.46
731.612	-4.54
731.637	-11.54
731.662	2.46
731.687	-8.54
731.712	-19.54
731.737	7.46
731.762	6.46
731.786	1.46
731.811	16.46
731.836	-7.54
731.861	-2.54
731.886	-4.54
731.911	11.46
731.936	14.46
731.961	-1.54
731.986	5.46
732.01	15.46
732.035	9.46
732.06	15.46
732.085	3.46
732.11	-6.54
732.135	-9.54
732.16	-4.54
732.184	-1.54
732.209	-11.54
732.234	6.46
732.259	-10.54
732.284	-2.54
732.309	-3.54
732.334	-3.54
732.358	-19.54
732.383	-16.54
732.408	-13.54
732.433	5.46
732.458	8.46
732.482	-1.54
732.507	-0.54
732.532	16.46
732.557	14.46
732.582	7.46
732.607	-6.54
732.631	-12.54
732.656	3.46
732.681	-4.54
732.706	-2.54
732.73	-0.54
732.755	6.46
732.78	7.46
732.805	11.46
732.83	-2.54
732.854	-0.54
732.879	14.46
732.904	6.46
732.929	-8.54
732.953	17.46
732.978	-3.54
733.003	-4.54
733.028	-16.54
733.052	5.46
733.077	-1.54
733.102	16.46
733.127	4.46
733.151	8.46
733.176	17.46
733.201	5.46
733.226	2.46
733.25	12.46
733.275	0.46
733.3	-2.54
733.324	5.46
733.349	-5.54
733.374	11.46
733.399	9.46
733.423	-6.54
733.448	6.46
733.473	1.46
733.497	3.46
733.522	-10.54
733.547	15.46
733.571	20.46
733.596	7.46
733.621	3.46
733.646	3.46
733.67	5.46
733.695	-0.54
733.72	4.46
733.744	8.46
733.769	-5.54
733.794	15.46
733.818	14.46
733.843	-4.54
733.867	-6.54
733.892	-13.54
733.917	-3.54
733.941	6.46
733.966	-10.54
733.991	3.46
734.015	14.46
734.04	2.46
734.065	3.46
734.089	11.46
734.114	-5.54
734.138	7.46
734.163	10.46
734.188	12.46
734.212	4.46
734.237	8.46
734.261	7.46
734.286	1.46
734.311	1.46
734.335	7.46
734.36	-3.54
734.384	-3.54
734.409	6.46
734.434	-6.54
734.458	16.46
734.483	-0.54
734.507	-6.54
734.532	-2.54
734.556	-12.54
734.581	-9.54
734.606	10.46
734.63	3.46
734.655	4.46
734.679	5.46
734.704	-3.54
734.728	17.46
734.753	-5.54
734.777	8.46
734.802	-0.54
734.826	-3.54
734.851	13.46
734.876	14.46
734.9	16.46
734.925	15.46
734.949	1.46
734.974	1.46
734.998	8.46
735.023	-10.54
735.047	-13.54
735.072	10.46
735.096	6.46
735.121	8.46
735.145	6.46
735.17	-0.54
735.194	21.46
735.219	7.46
735.243	-1.54
735.268	5.46
735.292	12.46
735.317	-2.54
735.341	-1.54
735.365	-5.54
735.39	17.46
735.414	-2.54
735.439	10.46
735.463	9.46
735.488	-0.54
735.512	2.46
735.537	-6.54
735.561	4.46
735.586	5.46
735.61	19.46
735.634	2.46
735.659	3.46
735.683	23.46
735.708	-2.54
735.732	-2.54
735.757	-13.54
735.781	2.46
735.805	8.46
735.83	-10.54
735.854	4.46
735.879	1.46
735.903	17.46
735.927	1.46
735.952	7.46
735.976	0.46
736.001	-4.54
736.025	-5.54
736.049	13.46
736.074	-0.54
736.098	10.46
736.123	17.46
736.147	-3.54
736.171	3.46
736.196	24.46
736.22	-6.54
736.244	10.46
736.269	12.46
736.293	2.46
736.317	-7.54
736.342	2.46
736.366	29.46
736.39	13.46
736.415	8.46
736.439	22.46
736.463	29.46
736.488	20.46
736.512	18.46
736.536	10.46
736.561	30.46
736.585	10.46
736.609	14.46
736.634	-5.54
736.658	-4.54
736.682	-1.54
736.707	-19.54
736.731	-5.54
736.755	8.46
736.78	2.46
736.804	17.46
736.828	10.46
736.852	-5.54
736.877	-14.54
736.901	9.46
736.925	-2.54
736.949	9.46
736.974	-12.54
736.998	-6.54
737.022	10.46
737.047	-2.54
737.071	8.46
737.095	29.46
737.119	22.46
737.144	10.46
737.168	9.46
737.192	3.46
737.216	8.46
737.241	5.46
737.265	-1.54
737.289	8.46
737.313	-2.54
737.337	2.46
737.362	-1.54
737.386	4.46
737.41	9.46
737.434	11.46
737.459	-0.54
737.483	16.46
737.507	18.46
737.531	17.46
737.555	5.46
737.58	-6.54
737.604	-2.54
737.628	-12.54
737.652	4.46
737.676	-3.54
737.701	18.46
737.725	-3.54
737.749	2.46
737.773	1.46
737.797	-5.54
737.821	14.46
737.846	-1.54
737.87	19.46
737.894	13.46
737.918	-2.54
737.942	2.46
737.966	3.46
737.99	19.46
738.015	9.46
738.039	3.46
738.063	-10.54
738.087	19.46
738.111	11.46
738.135	18.46
738.159	-8.54
738.184	-4.54
738.208	14.46
738.232	-1.54
738.256	1.46
738.28	26.46
738.304	18.46
738.328	9.46
738.352	6.46
738.376	-2.54
738.4	4.46
738.425	10.46
738.449	1.46
738.473	13.46
738.497	13.46
738.521	10.46
738.545	-2.54
738.569	3.46
738.593	18.46
738.617	13.46
738.641	10.46
738.665	-3.54
738.689	9.46
738.713	-8.54
738.737	3.46
738.762	23.46
738.786	6.46
738.81	2.46
738.834	22.46
738.858	6.46
738.882	3.46
738.906	-6.54
738.93	13.46
738.954	7.46
738.978	6.46
739.002	0.46
739.026	9.46
739.05	20.46
739.074	-0.54
739.098	30.46
739.122	6.46
739.146	10.46
739.17	18.46
739.194	6.46
739.218	1.46
739.242	-5.54
739.266	-9.54
739.29	11.46
739.314	9.46
739.338	5.46
739.362	4.46
739.386	18.46
739.41	3.46
739.434	-5.54
739.458	10.46
739.482	14.46
739.506	4.46
739.53	-16.54
739.554	14.46
739.577	6.46
739.601	25.46
739.625	-2.54
739.649	-1.54
739.673	-25.54
739.697	1.46
739.721	-6.54
739.745	20.46
739.769	11.46
739.793	9.46
739.817	-0.54
739.841	1.46
739.865	15.46
739.889	-8.54
739.912	10.46
739.936	-3.54
739.96	-1.54
739.984	15.46
740.008	-4.54
740.032	5.46
740.056	0.46
740.08	1.46
740.104	-2.54
740.127	4.46
740.151	12.46
740.175	-0.54
740.199	1.46
740.223	44.46
740.247	15.46
740.271	11.46
740.295	-5.54
740.318	-21.54
740.342	-5.54
740.366	2.46
740.39	19.46
740.414	6.46
740.438	4.46
740.461	27.46
740.485	31.46
740.509	5.46
740.533	6.46
740.557	-16.54
740.581	-1.54
740.604	5.46
740.628	-3.54
740.652	12.46
740.676	-0.54
740.7	1.46
740.723	-5.54
740.747	-3.54
740.771	9.46
740.795	5.46
740.819	3.46
740.842	3.46
740.866	22.46
740.89	16.46
740.914	-5.54
740.938	-9.54
740.961	11.46
740.985	1.46
741.009	-1.54
741.033	2.46
741.056	13.46
741.08	9.46
741.104	-5.54
741.128	-5.54
741.151	30.46
741.175	10.46
741.199	7.46
741.223	3.46
741.246	-17.54
741.27	3.46
741.294	14.46
741.318	-12.54
741.341	19.46
741.365	1.46
741.389	11.46
741.413	-1.54
741.436	15.46
741.46	-0.54
741.484	9.46
741.507	5.46
741.531	6.46
741.555	7.46
741.579	15.46
741.602	14.46
741.626	-1.54
741.65	-0.54
741.673	11.46
741.697	1.46
741.721	9.46
741.744	-0.54
741.768	-3.54
741.792	4.46
741.815	-5.54
741.839	10.46
741.863	23.46
741.886	18.46
741.91	-1.54
741.934	13.46
741.957	-9.54
741.981	7.46
742.005	-5.54
742.028	2.46
742.052	3.46
742.075	22.46
742.099	16.46
742.123	8.46
742.146	14.46
742.17	3.46
742.194	-14.54
742.217	-10.54
742.241	-13.54
742.264	-6.54
742.288	19.46
742.312	17.46
742.335	-5.54
742.359	8.46
742.382	21.46
742.406	18.46
742.43	4.46
742.453	8.46
742.477	-25.54
742.5	5.46
742.524	-10.54
742.548	2.46
742.571	6.46
742.595	-10.54
742.618	-10.54
742.642	-12.54
742.665	12.46
742.689	-7.54
742.712	2.46
742.736	4.46
742.76	1.46
742.783	0.46
742.807	2.46
742.83	19.46
742.854	-1.54
742.877	-0.54
742.901	-6.54
742.924	-1.54
742.948	3.46
742.971	-6.54
742.995	5.46
743.018	-1.54
743.042	-1.54
743.065	-1.54
743.089	-1.54
743.112	12.46
743.136	-12.54
743.159	3.46
743.183	10.46
743.206	17.46
743.23	9.46
743.253	12.46
743.277	15.46
743.3	-1.54
743.324	-5.54
743.347	-0.54
743.371	12.46
743.394	23.46
743.418	36.46
743.441	17.46
743.465	-7.54
743.488	3.46
743.512	-18.54
743.535	-6.54
743.558	5.46
743.582	15.46
743.605	18.46
743.629	8.46
743.652	4.46
743.676	1.46
743.699	1.46
743.723	2.46
743.746	6.46
743.769	12.46
743.793	21.46
743.816	-0.54
743.84	15.46
743.863	-5.54
743.886	4.46
743.91	14.46
743.933	13.46
743.957	10.46
743.98	4.46
744.003	1.46
744.027	-2.54
744.05	3.46
744.074	4.46
744.097	-5.54
744.12	4.46
744.144	8.46
744.167	2.46
744.19	-5.54
744.214	-2.54
744.237	-13.54
744.26	10.46
744.284	-3.54
744.307	-7.54
744.331	23.46
744.354	4.46
744.377	0.46
744.401	5.46
744.424	1.46
744.447	-10.54
744.471	3.46
