Data from HighRes_H2_15_09_11_07_2024_HR4C61891__98__15-11-06-201.txt Node

Date: Thu Nov 07 15:11:06 EST 2024
User: crc00042
Spectrometer: HR4C6189
Trigger mode: 4
Integration Time (sec): 1.000000E-1
Scans to average: 1
Electric dark correction enabled: true
Nonlinearity correction enabled: false
Boxcar width: 0
XAxis mode: Wavelengths
Number of Pixels in Spectrum: 3648
>>>>>Begin Spectral Data<<<<<
639.567	-29.46
639.602	-29.46
639.636	-29.46
639.67	-54.46
639.704	-19.46
639.738	1.54
639.773	13.54
639.807	-34.46
639.841	0.54
639.875	-0.46
639.909	9.54
639.943	-6.46
639.978	-7.46
640.012	1.54
640.046	5.54
640.08	5.54
640.114	5.54
640.148	5.54
640.182	0.54
640.217	-7.46
640.251	5.54
640.285	7.54
640.319	-7.46
640.353	-12.46
640.387	8.54
640.421	1.54
640.455	14.54
640.49	24.54
640.524	-7.46
640.558	8.54
640.592	-3.46
640.626	0.54
640.66	4.54
640.694	0.54
640.728	-2.46
640.762	20.54
640.796	16.54
640.83	30.54
640.865	-1.46
640.899	14.54
640.933	2.54
640.967	-1.46
641.001	-7.46
641.035	8.54
641.069	18.54
641.103	11.54
641.137	14.54
641.171	-14.46
641.205	-11.46
641.239	-0.46
641.273	3.54
641.307	-0.46
641.341	7.54
641.375	-7.46
641.409	-6.46
641.443	-1.46
641.477	-9.46
641.511	3.54
641.545	14.54
641.579	-9.46
641.614	11.54
641.648	18.54
641.682	0.54
641.716	14.54
641.75	8.54
641.784	0.54
641.818	5.54
641.852	0.54
641.886	-3.46
641.919	23.54
641.953	3.54
641.987	-14.46
642.021	5.54
642.055	19.54
642.089	5.54
642.123	-4.46
642.157	-4.46
642.191	-2.46
642.225	-3.46
642.259	-8.46
642.293	9.54
642.327	1.54
642.361	1.54
642.395	6.54
642.429	15.54
642.463	13.54
642.497	13.54
642.531	-8.46
642.565	0.54
642.599	20.54
642.633	-15.46
642.666	9.54
642.7	12.54
642.734	10.54
642.768	3.54
642.802	2.54
642.836	10.54
642.87	9.54
642.904	3.54
642.938	7.54
642.972	6.54
643.005	3.54
643.039	-7.46
643.073	-4.46
643.107	19.54
643.141	9.54
643.175	3.54
643.209	3.54
643.243	4.54
643.276	-10.46
643.31	4.54
643.344	-1.46
643.378	-11.46
643.412	2.54
643.446	7.54
643.48	-7.46
643.513	8.54
643.547	10.54
643.581	-8.46
643.615	6.54
643.649	-8.46
643.683	4.54
643.716	8.54
643.75	7.54
643.784	-10.46
643.818	12.54
643.852	-4.46
643.886	-5.46
643.919	9.54
643.953	-6.46
643.987	10.54
644.021	11.54
644.055	-0.46
644.088	8.54
644.122	7.54
644.156	-1.46
644.19	9.54
644.224	9.54
644.257	12.54
644.291	18.54
644.325	4.54
644.359	-5.46
644.392	16.54
644.426	12.54
644.46	6.54
644.494	8.54
644.527	1.54
644.561	-0.46
644.595	-5.46
644.629	-4.46
644.662	14.54
644.696	26.54
644.73	-4.46
644.764	7.54
644.797	5.54
644.831	10.54
644.865	11.54
644.899	-9.46
644.932	12.54
644.966	1.54
645	15.54
645.033	32.54
645.067	8.54
645.101	23.54
645.135	10.54
645.168	3.54
645.202	-18.46
645.236	9.54
645.269	17.54
645.303	4.54
645.337	1.54
645.37	6.54
645.404	13.54
645.438	10.54
645.471	-3.46
645.505	8.54
645.539	1.54
645.572	-2.46
645.606	-19.46
645.64	9.54
645.673	20.54
645.707	25.54
645.741	7.54
645.774	-1.46
645.808	10.54
645.842	8.54
645.875	4.54
645.909	-16.46
645.943	-5.46
645.976	1.54
646.01	-9.46
646.043	1.54
646.077	21.54
646.111	15.54
646.144	8.54
646.178	19.54
646.212	-7.46
646.245	-6.46
646.279	18.54
646.312	20.54
646.346	15.54
646.38	11.54
646.413	10.54
646.447	17.54
646.48	2.54
646.514	14.54
646.547	6.54
646.581	-1.46
646.615	7.54
646.648	23.54
646.682	0.54
646.715	6.54
646.749	3.54
646.782	4.54
646.816	-2.46
646.85	6.54
646.883	-10.46
646.917	4.54
646.95	21.54
646.984	21.54
647.017	9.54
647.051	24.54
647.084	18.54
647.118	0.54
647.151	13.54
647.185	19.54
647.218	-2.46
647.252	15.54
647.285	-8.46
647.319	-5.46
647.353	12.54
647.386	10.54
647.42	13.54
647.453	4.54
647.487	5.54
647.52	-2.46
647.553	10.54
647.587	4.54
647.62	1.54
647.654	5.54
647.687	1.54
647.721	0.54
647.754	23.54
647.788	21.54
647.821	3.54
647.855	2.54
647.888	9.54
647.922	13.54
647.955	30.54
647.989	15.54
648.022	18.54
648.055	11.54
648.089	-6.46
648.122	6.54
648.156	15.54
648.189	-5.46
648.223	5.54
648.256	21.54
648.29	11.54
648.323	-2.46
648.356	-10.46
648.39	6.54
648.423	10.54
648.457	8.54
648.49	8.54
648.523	5.54
648.557	9.54
648.59	-3.46
648.624	9.54
648.657	13.54
648.69	14.54
648.724	18.54
648.757	19.54
648.791	-4.46
648.824	10.54
648.857	7.54
648.891	5.54
648.924	9.54
648.957	18.54
648.991	5.54
649.024	18.54
649.057	8.54
649.091	-3.46
649.124	7.54
649.158	1.54
649.191	11.54
649.224	1.54
649.258	9.54
649.291	12.54
649.324	9.54
649.358	-1.46
649.391	11.54
649.424	17.54
649.458	3.54
649.491	-4.46
649.524	0.54
649.557	-5.46
649.591	-18.46
649.624	12.54
649.657	-14.46
649.691	14.54
649.724	2.54
649.757	2.54
649.791	-12.46
649.824	17.54
649.857	14.54
649.89	6.54
649.924	-9.46
649.957	1.54
649.99	-6.46
650.023	-0.46
650.057	-2.46
650.09	18.54
650.123	11.54
650.157	17.54
650.19	25.54
650.223	-0.46
650.256	-17.46
650.29	5.54
650.323	7.54
650.356	10.54
650.389	8.54
650.423	1.54
650.456	9.54
650.489	-2.46
650.522	-6.46
650.555	11.54
650.589	17.54
650.622	11.54
650.655	10.54
650.688	6.54
650.721	9.54
650.755	26.54
650.788	28.54
650.821	5.54
650.854	-3.46
650.887	11.54
650.921	-18.46
650.954	15.54
650.987	1.54
651.02	-12.46
651.053	-29.46
651.087	15.54
651.12	20.54
651.153	-6.46
651.186	-6.46
651.219	-14.46
651.252	25.54
651.286	15.54
651.319	-11.46
651.352	9.54
651.385	10.54
651.418	8.54
651.451	17.54
651.484	10.54
651.518	9.54
651.551	21.54
651.584	7.54
651.617	25.54
651.65	6.54
651.683	9.54
651.716	10.54
651.749	-3.46
651.783	-5.46
651.816	-0.46
651.849	-0.46
651.882	25.54
651.915	6.54
651.948	-6.46
651.981	-4.46
652.014	-22.46
652.047	-4.46
652.08	-11.46
652.114	4.54
652.147	5.54
652.18	4.54
652.213	30.54
652.246	-1.46
652.279	3.54
652.312	8.54
652.345	2.54
652.378	3.54
652.411	20.54
652.444	9.54
652.477	12.54
652.51	4.54
652.543	-19.46
652.576	5.54
652.609	-4.46
652.642	16.54
652.675	28.54
652.709	3.54
652.742	-1.46
652.775	13.54
652.808	20.54
652.841	5.54
652.874	9.54
652.907	-5.46
652.94	4.54
652.973	-7.46
653.006	-3.46
653.039	-3.46
653.072	12.54
653.105	-20.46
653.138	-12.46
653.171	-2.46
653.204	4.54
653.237	4.54
653.27	-13.46
653.303	7.54
653.336	20.54
653.368	7.54
653.401	18.54
653.434	1.54
653.467	9.54
653.5	-11.46
653.533	-13.46
653.566	-3.46
653.599	10.54
653.632	-6.46
653.665	14.54
653.698	0.54
653.731	-9.46
653.764	16.54
653.797	-14.46
653.83	-11.46
653.863	3.54
653.896	8.54
653.929	-17.46
653.961	4.54
653.994	12.54
654.027	-8.46
654.06	1.54
654.093	1.54
654.126	4.54
654.159	-12.46
654.192	5.54
654.225	-5.46
654.258	3.54
654.29	8.54
654.323	10.54
654.356	1.54
654.389	3.54
654.422	-2.46
654.455	-0.46
654.488	2.54
654.521	-1.46
654.553	-6.46
654.586	3.54
654.619	0.54
654.652	-8.46
654.685	5.54
654.718	9.54
654.751	19.54
654.783	-6.46
654.816	6.54
654.849	3.54
654.882	-4.46
654.915	-28.46
654.948	-0.46
654.98	-4.46
655.013	-4.46
655.046	10.54
655.079	-7.46
655.112	0.54
655.144	-10.46
655.177	3.54
655.21	22.54
655.243	17.54
655.276	15.54
655.308	9.54
655.341	7.54
655.374	10.54
655.407	-2.46
655.44	6.54
655.472	15.54
655.505	17.54
655.538	14.54
655.571	23.54
655.603	-1.46
655.636	3.54
655.669	17.54
655.702	6.54
655.734	4.54
655.767	16.54
655.8	33.54
655.833	17.54
655.865	35.54
655.898	42.54
655.931	37.54
655.964	30.54
655.996	48.54
656.029	79.54
656.062	57.54
656.095	73.54
656.127	85.54
656.16	105.54
656.193	132.54
656.225	161.54
656.258	258.54
656.291	518.54
656.324	1122.54
656.356	3368.54
656.389	7558.54
656.422	5995.54
656.454	2049.54
656.487	684.54
656.52	278.54
656.552	135.54
656.585	82.54
656.618	66.54
656.65	52.54
656.683	21.54
656.716	29.54
656.748	22.54
656.781	5.54
656.814	0.54
656.846	9.54
656.879	2.54
656.912	12.54
656.944	-10.46
656.977	-22.46
657.01	5.54
657.042	-3.46
657.075	4.54
657.108	5.54
657.14	2.54
657.173	20.54
657.205	28.54
657.238	13.54
657.271	10.54
657.303	-5.46
657.336	8.54
657.369	3.54
657.401	-6.46
657.434	-5.46
657.466	-0.46
657.499	-3.46
657.532	-5.46
657.564	19.54
657.597	1.54
657.629	17.54
657.662	5.54
657.694	-7.46
657.727	5.54
657.76	17.54
657.792	-6.46
657.825	0.54
657.857	3.54
657.89	5.54
657.922	-5.46
657.955	-4.46
657.987	-2.46
658.02	21.54
658.053	10.54
658.085	14.54
658.118	2.54
658.15	14.54
658.183	23.54
658.215	-0.46
658.248	-8.46
658.28	2.54
658.313	20.54
658.345	4.54
658.378	17.54
658.41	-4.46
658.443	-4.46
658.475	6.54
658.508	4.54
658.54	2.54
658.573	-7.46
658.605	5.54
658.638	-1.46
658.67	-1.46
658.703	6.54
658.735	-12.46
658.768	1.54
658.8	-8.46
658.833	10.54
658.865	5.54
658.898	7.54
658.93	-17.46
658.963	-6.46
658.995	-12.46
659.028	11.54
659.06	9.54
659.092	13.54
659.125	4.54
659.157	24.54
659.19	2.54
659.222	-4.46
659.255	8.54
659.287	-1.46
659.32	-8.46
659.352	0.54
659.384	-3.46
659.417	-13.46
659.449	6.54
659.482	5.54
659.514	-13.46
659.546	-6.46
659.579	-3.46
659.611	5.54
659.644	0.54
659.676	-7.46
659.708	-10.46
659.741	-2.46
659.773	2.54
659.806	0.54
659.838	-1.46
659.87	5.54
659.903	-1.46
659.935	4.54
659.967	20.54
660	9.54
660.032	-4.46
660.065	20.54
660.097	-7.46
660.129	19.54
660.162	-11.46
660.194	18.54
660.226	6.54
660.259	-7.46
660.291	12.54
660.323	-1.46
660.356	14.54
660.388	-13.46
660.42	-3.46
660.453	19.54
660.485	10.54
660.517	11.54
660.55	35.54
660.582	-2.46
660.614	15.54
660.647	4.54
660.679	-10.46
660.711	18.54
660.743	-3.46
660.776	-17.46
660.808	-8.46
660.84	-6.46
660.873	-5.46
660.905	-4.46
660.937	4.54
660.969	9.54
661.002	1.54
661.034	19.54
661.066	-3.46
661.099	17.54
661.131	28.54
661.163	9.54
661.195	27.54
661.228	20.54
661.26	-15.46
661.292	-6.46
661.324	3.54
661.357	-0.46
661.389	7.54
661.421	11.54
661.453	-0.46
661.485	2.54
661.518	10.54
661.55	-10.46
661.582	-23.46
661.614	2.54
661.647	9.54
661.679	3.54
661.711	9.54
661.743	-2.46
661.775	9.54
661.808	23.54
661.84	5.54
661.872	8.54
661.904	-5.46
661.936	-2.46
661.969	-9.46
662.001	-3.46
662.033	-1.46
662.065	-17.46
662.097	15.54
662.129	3.54
662.162	-5.46
662.194	16.54
662.226	29.54
662.258	19.54
662.29	6.54
662.322	-18.46
662.355	-27.46
662.387	16.54
662.419	21.54
662.451	6.54
662.483	24.54
662.515	-14.46
662.547	-9.46
662.58	-11.46
662.612	6.54
662.644	-12.46
662.676	-5.46
662.708	16.54
662.74	4.54
662.772	5.54
662.804	5.54
662.836	12.54
662.869	-2.46
662.901	-2.46
662.933	6.54
662.965	18.54
662.997	23.54
663.029	-0.46
663.061	6.54
663.093	12.54
663.125	17.54
663.157	13.54
663.189	-6.46
663.221	16.54
663.254	9.54
663.286	-9.46
663.318	-6.46
663.35	-3.46
663.382	-7.46
663.414	-1.46
663.446	-2.46
663.478	-14.46
663.51	24.54
663.542	1.54
663.574	5.54
663.606	10.54
663.638	-15.46
663.67	-13.46
663.702	-1.46
663.734	1.54
663.766	4.54
663.798	7.54
663.83	12.54
663.862	-1.46
663.894	15.54
663.926	-7.46
663.958	8.54
663.99	-0.46
664.022	-1.46
664.054	10.54
664.086	-6.46
664.118	-0.46
664.15	3.54
664.182	6.54
664.214	-5.46
664.246	19.54
664.278	5.54
664.31	22.54
664.342	11.54
664.374	7.54
664.406	-4.46
664.438	-1.46
664.47	8.54
664.502	-10.46
664.534	-10.46
664.566	-4.46
664.598	9.54
664.63	-2.46
664.662	4.54
664.693	1.54
664.725	-7.46
664.757	3.54
664.789	-7.46
664.821	14.54
664.853	19.54
664.885	18.54
664.917	-8.46
664.949	20.54
664.981	22.54
665.013	10.54
665.045	-5.46
665.076	-17.46
665.108	-7.46
665.14	-14.46
665.172	25.54
665.204	3.54
665.236	16.54
665.268	19.54
665.3	25.54
665.331	-8.46
665.363	6.54
665.395	-20.46
665.427	2.54
665.459	-6.46
665.491	-12.46
665.523	2.54
665.555	0.54
665.586	-1.46
665.618	4.54
665.65	-10.46
665.682	10.54
665.714	9.54
665.746	5.54
665.777	-12.46
665.809	1.54
665.841	-0.46
665.873	0.54
665.905	-1.46
665.937	13.54
665.968	7.54
666	5.54
666.032	8.54
666.064	-7.46
666.096	8.54
666.127	5.54
666.159	14.54
666.191	3.54
666.223	20.54
666.255	24.54
666.286	0.54
666.318	2.54
666.35	5.54
666.382	6.54
666.413	-9.46
666.445	-7.46
666.477	-19.46
666.509	5.54
666.54	5.54
666.572	10.54
666.604	9.54
666.636	8.54
666.667	9.54
666.699	18.54
666.731	7.54
666.763	-4.46
666.794	-1.46
666.826	-1.46
666.858	-10.46
666.89	10.54
666.921	9.54
666.953	11.54
666.985	12.54
667.017	21.54
667.048	3.54
667.08	3.54
667.112	-9.46
667.143	-12.46
667.175	10.54
667.207	3.54
667.238	15.54
667.27	15.54
667.302	21.54
667.334	-4.46
667.365	34.54
667.397	33.54
667.429	-5.46
667.46	27.54
667.492	12.54
667.524	6.54
667.555	-3.46
667.587	14.54
667.619	-0.46
667.65	1.54
667.682	7.54
667.714	19.54
667.745	9.54
667.777	2.54
667.808	19.54
667.84	9.54
667.872	5.54
667.903	9.54
667.935	3.54
667.967	4.54
667.998	7.54
668.03	-2.46
668.061	1.54
668.093	8.54
668.125	15.54
668.156	10.54
668.188	18.54
668.22	-4.46
668.251	3.54
668.283	13.54
668.314	11.54
668.346	6.54
668.377	-1.46
668.409	-4.46
668.441	6.54
668.472	-2.46
668.504	8.54
668.535	22.54
668.567	28.54
668.599	26.54
668.63	3.54
668.662	-11.46
668.693	30.54
668.725	5.54
668.756	8.54
668.788	-8.46
668.819	-6.46
668.851	11.54
668.882	1.54
668.914	4.54
668.946	14.54
668.977	4.54
669.009	0.54
669.04	-12.46
669.072	5.54
669.103	9.54
669.135	8.54
669.166	3.54
669.198	8.54
669.229	13.54
669.261	-6.46
669.292	-2.46
669.324	3.54
669.355	16.54
669.387	14.54
669.418	26.54
669.45	-12.46
669.481	12.54
669.513	11.54
669.544	8.54
669.576	0.54
669.607	12.54
669.639	18.54
669.67	-9.46
669.701	14.54
669.733	-0.46
669.764	2.54
669.796	4.54
669.827	-6.46
669.859	-11.46
669.89	17.54
669.922	6.54
669.953	-8.46
669.985	3.54
670.016	21.54
670.047	1.54
670.079	-11.46
670.11	4.54
670.142	-9.46
670.173	-12.46
670.204	-10.46
670.236	14.54
670.267	7.54
670.299	21.54
670.33	6.54
670.362	15.54
670.393	4.54
670.424	8.54
670.456	-15.46
670.487	-12.46
670.518	-0.46
670.55	1.54
670.581	-5.46
670.613	3.54
670.644	4.54
670.675	-4.46
670.707	1.54
670.738	1.54
670.769	1.54
670.801	-1.46
670.832	16.54
670.864	-12.46
670.895	12.54
670.926	-7.46
670.958	-11.46
670.989	21.54
671.02	-13.46
671.052	-1.46
671.083	-3.46
671.114	-6.46
671.146	7.54
671.177	4.54
671.208	4.54
671.24	-3.46
671.271	3.54
671.302	-0.46
671.333	-0.46
671.365	-2.46
671.396	5.54
671.427	17.54
671.459	7.54
671.49	-7.46
671.521	9.54
671.553	1.54
671.584	20.54
671.615	-2.46
671.646	5.54
671.678	0.54
671.709	-5.46
671.74	-18.46
671.771	11.54
671.803	-0.46
671.834	-8.46
671.865	-0.46
671.896	19.54
671.928	11.54
671.959	0.54
671.99	5.54
672.021	1.54
672.053	-2.46
672.084	15.54
672.115	-1.46
672.146	5.54
672.178	-4.46
672.209	-12.46
672.24	8.54
672.271	31.54
672.303	10.54
672.334	-6.46
672.365	-8.46
672.396	-3.46
672.427	8.54
672.459	18.54
672.49	12.54
672.521	12.54
672.552	4.54
672.583	3.54
672.615	6.54
672.646	20.54
672.677	5.54
672.708	-8.46
672.739	9.54
672.77	14.54
672.802	7.54
672.833	-13.46
672.864	-2.46
672.895	6.54
672.926	0.54
672.957	-22.46
672.989	-6.46
673.02	11.54
673.051	6.54
673.082	2.54
673.113	3.54
673.144	11.54
673.175	-8.46
673.206	-17.46
673.238	-1.46
673.269	6.54
673.3	-15.46
673.331	8.54
673.362	-2.46
673.393	-0.46
673.424	-1.46
673.455	16.54
673.487	2.54
673.518	16.54
673.549	-7.46
673.58	5.54
673.611	7.54
673.642	19.54
673.673	-8.46
673.704	4.54
673.735	-5.46
673.766	1.54
673.797	-2.46
673.828	-0.46
673.86	-9.46
673.891	-13.46
673.922	-13.46
673.953	-17.46
673.984	9.54
674.015	9.54
674.046	4.54
674.077	4.54
674.108	-18.46
674.139	-5.46
674.17	-14.46
674.201	-12.46
674.232	-13.46
674.263	6.54
674.294	-12.46
674.325	-6.46
674.356	-5.46
674.387	13.54
674.418	13.54
674.449	-4.46
674.48	3.54
674.511	7.54
674.542	14.54
674.573	-0.46
674.604	25.54
674.635	1.54
674.666	-0.46
674.697	5.54
674.728	-11.46
674.759	10.54
674.79	-14.46
674.821	-17.46
674.852	23.54
674.883	-2.46
674.914	-9.46
674.945	5.54
674.976	-1.46
675.007	-2.46
675.038	-17.46
675.069	-13.46
675.1	-4.46
675.131	9.54
675.162	6.54
675.193	1.54
675.224	-11.46
675.254	5.54
675.285	6.54
675.316	15.54
675.347	-8.46
675.378	-5.46
675.409	-12.46
675.44	-6.46
675.471	-9.46
675.502	-16.46
675.533	-5.46
675.564	2.54
675.595	-6.46
675.625	24.54
675.656	4.54
675.687	1.54
675.718	-8.46
675.749	13.54
675.78	6.54
675.811	-5.46
675.842	9.54
675.873	2.54
675.903	-0.46
675.934	-0.46
675.965	8.54
675.996	5.54
676.027	8.54
676.058	-0.46
676.089	-8.46
676.119	-11.46
676.15	-5.46
676.181	-0.46
676.212	-12.46
676.243	5.54
676.274	-10.46
676.304	22.54
676.335	-4.46
676.366	7.54
676.397	8.54
676.428	-2.46
676.459	3.54
676.489	9.54
676.52	8.54
676.551	8.54
676.582	-13.46
676.613	-3.46
676.643	-11.46
676.674	-6.46
676.705	2.54
676.736	9.54
676.767	20.54
676.797	9.54
676.828	-2.46
676.859	-11.46
676.89	1.54
676.92	3.54
676.951	9.54
676.982	1.54
677.013	-17.46
677.044	5.54
677.074	-9.46
677.105	-8.46
677.136	11.54
677.167	-2.46
677.197	8.54
677.228	-9.46
677.259	-2.46
677.289	1.54
677.32	0.54
677.351	6.54
677.382	-8.46
677.412	2.54
677.443	2.54
677.474	10.54
677.505	-16.46
677.535	-5.46
677.566	-7.46
677.597	2.54
677.627	-17.46
677.658	-11.46
677.689	0.54
677.72	12.54
677.75	-6.46
677.781	10.54
677.812	9.54
677.842	4.54
677.873	-2.46
677.904	4.54
677.934	7.54
677.965	0.54
677.996	-8.46
678.026	3.54
678.057	-0.46
678.088	-11.46
678.118	-0.46
678.149	-8.46
678.18	-6.46
678.21	-6.46
678.241	13.54
678.272	3.54
678.302	-6.46
678.333	10.54
678.363	10.54
678.394	0.54
678.425	5.54
678.455	5.54
678.486	9.54
678.517	-1.46
678.547	-2.46
678.578	-11.46
678.608	-21.46
678.639	3.54
678.67	-15.46
678.7	-9.46
678.731	-12.46
678.761	-7.46
678.792	5.54
678.823	11.54
678.853	-1.46
678.884	-2.46
678.914	10.54
678.945	0.54
678.975	-12.46
679.006	17.54
679.037	-1.46
679.067	27.54
679.098	4.54
679.128	0.54
679.159	-2.46
679.189	-2.46
679.22	0.54
679.25	5.54
679.281	11.54
679.312	5.54
679.342	4.54
679.373	22.54
679.403	-4.46
679.434	10.54
679.464	-6.46
679.495	-1.46
679.525	0.54
679.556	-10.46
679.586	4.54
679.617	1.54
679.647	1.54
679.678	-8.46
679.708	5.54
679.739	2.54
679.769	2.54
679.8	9.54
679.83	14.54
679.861	8.54
679.891	2.54
679.922	-14.46
679.952	-0.46
679.983	7.54
680.013	16.54
680.044	-6.46
680.074	12.54
680.105	-1.46
680.135	9.54
680.165	12.54
680.196	21.54
680.226	2.54
680.257	13.54
680.287	14.54
680.318	4.54
680.348	3.54
680.379	7.54
680.409	-3.46
680.439	-9.46
680.47	8.54
680.5	-16.46
680.531	-5.46
680.561	13.54
680.592	-0.46
680.622	4.54
680.652	1.54
680.683	4.54
680.713	-10.46
680.744	-14.46
680.774	-9.46
680.804	14.54
680.835	1.54
680.865	-4.46
680.896	27.54
680.926	19.54
680.956	24.54
680.987	11.54
681.017	-11.46
681.047	5.54
681.078	4.54
681.108	1.54
681.139	-1.46
681.169	3.54
681.199	-6.46
681.23	-2.46
681.26	8.54
681.29	11.54
681.321	-4.46
681.351	-3.46
681.381	-2.46
681.412	3.54
681.442	-6.46
681.472	21.54
681.503	10.54
681.533	-8.46
681.563	6.54
681.594	-0.46
681.624	0.54
681.654	2.54
681.685	2.54
681.715	7.54
681.745	6.54
681.775	-3.46
681.806	-7.46
681.836	12.54
681.866	-0.46
681.897	4.54
681.927	-7.46
681.957	-9.46
681.987	10.54
682.018	-8.46
682.048	10.54
682.078	9.54
682.109	17.54
682.139	6.54
682.169	5.54
682.199	-9.46
682.23	-20.46
682.26	-0.46
682.29	-6.46
682.32	-2.46
682.351	4.54
682.381	8.54
682.411	-4.46
682.441	-0.46
682.472	-10.46
682.502	-9.46
682.532	-18.46
682.562	-0.46
682.592	4.54
682.623	6.54
682.653	-4.46
682.683	-9.46
682.713	3.54
682.743	-5.46
682.774	3.54
682.804	7.54
682.834	32.54
682.864	-15.46
682.894	5.54
682.925	-1.46
682.955	-3.46
682.985	-9.46
683.015	-4.46
683.045	9.54
683.076	-11.46
683.106	7.54
683.136	-4.46
683.166	1.54
683.196	-4.46
683.226	-3.46
683.257	7.54
683.287	3.54
683.317	-2.46
683.347	-1.46
683.377	0.54
683.407	1.54
683.437	-7.46
683.468	2.54
683.498	-5.46
683.528	-0.46
683.558	9.54
683.588	-1.46
683.618	-0.46
683.648	6.54
683.678	12.54
683.708	11.54
683.739	-5.46
683.769	3.54
683.799	0.54
683.829	-6.46
683.859	-2.46
683.889	7.54
683.919	6.54
683.949	7.54
683.979	-3.46
684.009	9.54
684.039	-5.46
684.07	-3.46
684.1	20.54
684.13	-0.46
684.16	-3.46
684.19	10.54
684.22	1.54
684.25	11.54
684.28	-12.46
684.31	10.54
684.34	13.54
684.37	4.54
684.4	-8.46
684.43	17.54
684.46	8.54
684.49	6.54
684.52	-9.46
684.55	11.54
684.58	6.54
684.61	4.54
684.64	11.54
684.67	14.54
684.7	-10.46
684.73	-7.46
684.76	-0.46
684.79	-0.46
684.82	2.54
684.85	-19.46
684.88	7.54
684.91	6.54
684.94	-3.46
684.97	-4.46
685	-21.46
685.03	-14.46
685.06	-14.46
685.09	-7.46
685.12	27.54
685.15	-9.46
685.18	-5.46
685.21	-6.46
685.24	-7.46
685.27	1.54
685.3	-17.46
685.33	14.54
685.36	4.54
685.39	5.54
685.42	-1.46
685.45	5.54
685.48	2.54
685.51	-6.46
685.54	12.54
685.569	8.54
685.599	0.54
685.629	-2.46
685.659	-8.46
685.689	-0.46
685.719	-3.46
685.749	-13.46
685.779	5.54
685.809	8.54
685.839	4.54
685.869	17.54
685.898	15.54
685.928	3.54
685.958	-0.46
685.988	9.54
686.018	-0.46
686.048	20.54
686.078	21.54
686.108	14.54
686.137	15.54
686.167	11.54
686.197	-5.46
686.227	-0.46
686.257	32.54
686.287	9.54
686.317	-1.46
686.346	-19.46
686.376	-18.46
686.406	-14.46
686.436	7.54
686.466	0.54
686.496	8.54
686.525	9.54
686.555	21.54
686.585	8.54
686.615	28.54
686.645	6.54
686.675	18.54
686.704	20.54
686.734	2.54
686.764	-9.46
686.794	-0.46
686.824	-9.46
686.853	17.54
686.883	1.54
686.913	13.54
686.943	4.54
686.973	-6.46
687.002	6.54
687.032	-1.46
687.062	1.54
687.092	9.54
687.121	13.54
687.151	5.54
687.181	6.54
687.211	4.54
687.24	3.54
687.27	6.54
687.3	2.54
687.33	4.54
687.359	-7.46
687.389	-4.46
687.419	7.54
687.449	7.54
687.478	19.54
687.508	5.54
687.538	13.54
687.568	-1.46
687.597	-10.46
687.627	-0.46
687.657	1.54
687.686	7.54
687.716	21.54
687.746	-7.46
687.776	-10.46
687.805	15.54
687.835	5.54
687.865	10.54
687.894	2.54
687.924	0.54
687.954	-1.46
687.983	-13.46
688.013	10.54
688.043	-17.46
688.072	-5.46
688.102	18.54
688.132	-4.46
688.161	7.54
688.191	4.54
688.221	25.54
688.25	10.54
688.28	-7.46
688.31	11.54
688.339	9.54
688.369	0.54
688.399	2.54
688.428	2.54
688.458	12.54
688.488	-18.46
688.517	-6.46
688.547	-1.46
688.576	34.54
688.606	10.54
688.636	-18.46
688.665	1.54
688.695	15.54
688.725	26.54
688.754	19.54
688.784	9.54
688.813	12.54
688.843	16.54
688.873	9.54
688.902	2.54
688.932	-5.46
688.961	4.54
688.991	4.54
689.02	9.54
689.05	-7.46
689.08	4.54
689.109	15.54
689.139	1.54
689.168	14.54
689.198	6.54
689.227	0.54
689.257	11.54
689.287	1.54
689.316	4.54
689.346	-0.46
689.375	-6.46
689.405	-10.46
689.434	0.54
689.464	5.54
689.493	-4.46
689.523	3.54
689.552	-0.46
689.582	2.54
689.611	-0.46
689.641	7.54
689.67	0.54
689.7	7.54
689.73	16.54
689.759	7.54
689.789	21.54
689.818	-1.46
689.848	-2.46
689.877	16.54
689.906	7.54
689.936	-8.46
689.965	8.54
689.995	14.54
690.024	11.54
690.054	13.54
690.083	8.54
690.113	7.54
690.142	-0.46
690.172	-10.46
690.201	11.54
690.231	2.54
690.26	6.54
690.29	8.54
690.319	10.54
690.348	5.54
690.378	1.54
690.407	-2.46
690.437	-4.46
690.466	-2.46
690.496	1.54
690.525	19.54
690.555	-5.46
690.584	4.54
690.613	-2.46
690.643	1.54
690.672	4.54
690.702	-0.46
690.731	4.54
690.76	11.54
690.79	18.54
690.819	1.54
690.849	0.54
690.878	-4.46
690.907	-1.46
690.937	6.54
690.966	21.54
690.996	14.54
691.025	7.54
691.054	5.54
691.084	4.54
691.113	-0.46
691.142	22.54
691.172	18.54
691.201	20.54
691.23	-11.46
691.26	25.54
691.289	0.54
691.319	5.54
691.348	3.54
691.377	10.54
691.407	-8.46
691.436	1.54
691.465	3.54
691.495	-7.46
691.524	12.54
691.553	-5.46
691.583	0.54
691.612	21.54
691.641	7.54
691.67	-3.46
691.7	3.54
691.729	2.54
691.758	9.54
691.788	4.54
691.817	5.54
691.846	-7.46
691.876	2.54
691.905	3.54
691.934	-19.46
691.963	14.54
691.993	-4.46
692.022	-2.46
692.051	-1.46
692.081	6.54
692.11	12.54
692.139	21.54
692.168	18.54
692.198	11.54
692.227	18.54
692.256	1.54
692.285	-3.46
692.315	1.54
692.344	8.54
692.373	-7.46
692.402	-12.46
692.432	-6.46
692.461	8.54
692.49	14.54
692.519	8.54
692.548	14.54
692.578	7.54
692.607	-1.46
692.636	-1.46
692.665	11.54
692.694	-11.46
692.724	-3.46
692.753	-6.46
692.782	22.54
692.811	-1.46
692.84	17.54
692.87	7.54
692.899	3.54
692.928	14.54
692.957	29.54
692.986	26.54
693.016	13.54
693.045	17.54
693.074	8.54
693.103	-6.46
693.132	-1.46
693.161	1.54
693.191	-2.46
693.22	-7.46
693.249	3.54
693.278	3.54
693.307	16.54
693.336	-10.46
693.365	-3.46
693.395	-13.46
693.424	-4.46
693.453	14.54
693.482	4.54
693.511	6.54
693.54	-3.46
693.569	5.54
693.598	6.54
693.628	21.54
693.657	19.54
693.686	21.54
693.715	23.54
693.744	17.54
693.773	24.54
693.802	17.54
693.831	2.54
693.86	24.54
693.889	-3.46
693.919	11.54
693.948	-3.46
693.977	6.54
694.006	-0.46
694.035	0.54
694.064	-2.46
694.093	-21.46
694.122	-3.46
694.151	3.54
694.18	8.54
694.209	27.54
694.238	4.54
694.267	14.54
694.296	12.54
694.325	2.54
694.354	9.54
694.383	9.54
694.412	-9.46
694.441	2.54
694.471	-4.46
694.5	-13.46
694.529	7.54
694.558	19.54
694.587	11.54
694.616	5.54
694.645	6.54
694.674	13.54
694.703	13.54
694.732	7.54
694.761	25.54
694.79	33.54
694.819	-0.46
694.848	10.54
694.877	11.54
694.906	22.54
694.935	23.54
694.963	23.54
694.992	0.54
695.021	9.54
695.05	14.54
695.079	13.54
695.108	-3.46
695.137	15.54
695.166	16.54
695.195	4.54
695.224	1.54
695.253	9.54
695.282	7.54
695.311	-4.46
695.34	7.54
695.369	10.54
695.398	11.54
695.427	26.54
695.456	-5.46
695.485	21.54
695.513	24.54
695.542	5.54
695.571	18.54
695.6	21.54
695.629	13.54
695.658	8.54
695.687	12.54
695.716	10.54
695.745	38.54
695.774	2.54
695.802	-1.46
695.831	5.54
695.86	23.54
695.889	10.54
695.918	17.54
695.947	1.54
695.976	3.54
696.005	10.54
696.033	10.54
696.062	8.54
696.091	3.54
696.12	11.54
696.149	28.54
696.178	14.54
696.207	20.54
696.235	-4.46
696.264	0.54
696.293	14.54
696.322	22.54
696.351	17.54
696.38	-8.46
696.408	5.54
696.437	1.54
696.466	4.54
696.495	18.54
696.524	20.54
696.553	16.54
696.581	26.54
696.61	17.54
696.639	16.54
696.668	10.54
696.697	4.54
696.725	8.54
696.754	13.54
696.783	2.54
696.812	-2.46
696.84	22.54
696.869	9.54
696.898	-1.46
696.927	-0.46
696.956	17.54
696.984	-1.46
697.013	9.54
697.042	10.54
697.071	12.54
697.099	19.54
697.128	12.54
697.157	13.54
697.186	5.54
697.214	15.54
697.243	6.54
697.272	2.54
697.301	10.54
697.329	12.54
697.358	22.54
697.387	16.54
697.415	14.54
697.444	8.54
697.473	1.54
697.502	-8.46
697.53	10.54
697.559	11.54
697.588	17.54
697.616	12.54
697.645	11.54
697.674	17.54
697.703	10.54
697.731	14.54
697.76	14.54
697.789	10.54
697.817	8.54
697.846	19.54
697.875	-3.46
697.903	27.54
697.932	13.54
697.961	-5.46
697.989	13.54
698.018	7.54
698.047	6.54
698.075	8.54
698.104	-6.46
698.133	7.54
698.161	-11.46
698.19	-1.46
698.218	0.54
698.247	14.54
698.276	6.54
698.304	8.54
698.333	16.54
698.362	3.54
698.39	22.54
698.419	-1.46
698.447	3.54
698.476	-2.46
698.505	8.54
698.533	4.54
698.562	18.54
698.591	-9.46
698.619	-9.46
698.648	0.54
698.676	8.54
698.705	9.54
698.733	-7.46
698.762	9.54
698.791	8.54
698.819	8.54
698.848	-3.46
698.876	9.54
698.905	0.54
698.933	14.54
698.962	-0.46
698.991	20.54
699.019	16.54
699.048	9.54
699.076	-0.46
699.105	6.54
699.133	0.54
699.162	12.54
699.19	23.54
699.219	1.54
699.248	-2.46
699.276	1.54
699.305	12.54
699.333	11.54
699.362	-7.46
699.39	26.54
699.419	-3.46
699.447	12.54
699.476	12.54
699.504	-2.46
699.533	0.54
699.561	-19.46
699.59	7.54
699.618	5.54
699.647	7.54
699.675	-1.46
699.704	8.54
699.732	-6.46
699.761	1.54
699.789	4.54
699.818	8.54
699.846	-3.46
699.874	8.54
699.903	5.54
699.931	2.54
699.96	14.54
699.988	3.54
700.017	7.54
700.045	11.54
700.074	2.54
700.102	-4.46
700.13	-5.46
700.159	-3.46
700.187	9.54
700.216	7.54
700.244	-3.46
700.273	-4.46
700.301	4.54
700.329	9.54
700.358	7.54
700.386	1.54
700.415	1.54
700.443	3.54
700.472	17.54
700.5	3.54
700.528	2.54
700.557	-1.46
700.585	-8.46
700.614	0.54
700.642	3.54
700.67	12.54
700.699	6.54
700.727	8.54
700.755	3.54
700.784	3.54
700.812	-1.46
700.841	5.54
700.869	-7.46
700.897	-12.46
700.926	6.54
700.954	8.54
700.982	12.54
701.011	5.54
701.039	9.54
701.067	0.54
701.096	24.54
701.124	-3.46
701.152	-3.46
701.181	-5.46
701.209	-22.46
701.237	4.54
701.266	4.54
701.294	12.54
701.322	-1.46
701.351	24.54
701.379	6.54
701.407	-1.46
701.435	-3.46
701.464	5.54
701.492	21.54
701.52	-2.46
701.549	8.54
701.577	-11.46
701.605	1.54
701.634	3.54
701.662	14.54
701.69	-1.46
701.718	-10.46
701.747	4.54
701.775	2.54
701.803	-10.46
701.831	22.54
701.86	17.54
701.888	11.54
701.916	-5.46
701.944	-4.46
701.973	-4.46
702.001	7.54
702.029	-3.46
702.057	2.54
702.086	-7.46
702.114	-11.46
702.142	-1.46
702.17	-12.46
702.199	13.54
702.227	9.54
702.255	-11.46
702.283	-4.46
702.311	5.54
702.34	4.54
702.368	-7.46
702.396	-4.46
702.424	-2.46
702.452	4.54
702.481	13.54
702.509	-2.46
702.537	11.54
702.565	-2.46
702.593	-7.46
702.621	-3.46
702.65	9.54
702.678	-4.46
702.706	22.54
702.734	9.54
702.762	11.54
702.79	9.54
702.819	7.54
702.847	9.54
702.875	11.54
702.903	6.54
702.931	-7.46
702.959	15.54
702.988	14.54
703.016	-15.46
703.044	-6.46
703.072	5.54
703.1	-3.46
703.128	6.54
703.156	4.54
703.184	-9.46
703.212	18.54
703.241	6.54
703.269	13.54
703.297	10.54
703.325	13.54
703.353	-2.46
703.381	-7.46
703.409	1.54
703.437	-13.46
703.465	-1.46
703.493	-8.46
703.522	2.54
703.55	-2.46
703.578	8.54
703.606	1.54
703.634	-13.46
703.662	-9.46
703.69	-1.46
703.718	6.54
703.746	2.54
703.774	3.54
703.802	29.54
703.83	4.54
703.858	10.54
703.886	6.54
703.914	14.54
703.942	13.54
703.97	5.54
703.998	-0.46
704.027	11.54
704.055	17.54
704.083	-2.46
704.111	-13.46
704.139	7.54
704.167	11.54
704.195	16.54
704.223	-5.46
704.251	2.54
704.279	3.54
704.307	8.54
704.335	-16.46
704.363	-0.46
704.391	-11.46
704.419	-8.46
704.447	-13.46
704.475	0.54
704.503	0.54
704.531	10.54
704.558	-2.46
704.586	8.54
704.614	-20.46
704.642	16.54
704.67	-2.46
704.698	5.54
704.726	4.54
704.754	-1.46
704.782	-1.46
704.81	3.54
704.838	4.54
704.866	8.54
704.894	-7.46
704.922	-7.46
704.95	15.54
704.978	7.54
705.006	5.54
705.034	6.54
705.061	-3.46
705.089	11.54
705.117	-22.46
705.145	3.54
705.173	12.54
705.201	3.54
705.229	6.54
705.257	-6.46
705.285	-12.46
705.313	7.54
705.34	6.54
705.368	-1.46
705.396	-3.46
705.424	-2.46
705.452	-23.46
705.48	-13.46
705.508	-18.46
705.536	-6.46
705.563	2.54
705.591	6.54
705.619	9.54
705.647	0.54
705.675	-1.46
705.703	-2.46
705.731	0.54
705.758	14.54
705.786	5.54
705.814	17.54
705.842	20.54
705.87	13.54
705.898	-3.46
705.925	-4.46
705.953	-2.46
705.981	-11.46
706.009	3.54
706.037	1.54
706.065	3.54
706.092	0.54
706.12	-1.46
706.148	-4.46
706.176	6.54
706.204	6.54
706.231	6.54
706.259	1.54
706.287	-6.46
706.315	21.54
706.342	-18.46
706.37	1.54
706.398	3.54
706.426	4.54
706.454	5.54
706.481	13.54
706.509	-0.46
706.537	-12.46
706.565	-2.46
706.592	-2.46
706.62	15.54
706.648	13.54
706.676	-11.46
706.703	-10.46
706.731	-9.46
706.759	-14.46
706.787	-6.46
706.814	-3.46
706.842	3.54
706.87	1.54
706.897	-5.46
706.925	-15.46
706.953	4.54
706.981	11.54
707.008	1.54
707.036	3.54
707.064	8.54
707.091	-2.46
707.119	15.54
707.147	2.54
707.174	0.54
707.202	1.54
707.23	-6.46
707.258	-5.46
707.285	-14.46
707.313	8.54
707.341	-1.46
707.368	-5.46
707.396	-0.46
707.424	10.54
707.451	-1.46
707.479	3.54
707.507	3.54
707.534	3.54
707.562	-1.46
707.59	-5.46
707.617	0.54
707.645	13.54
707.672	-7.46
707.7	1.54
707.728	8.54
707.755	0.54
707.783	0.54
707.811	1.54
707.838	1.54
707.866	11.54
707.893	-7.46
707.921	3.54
707.949	-9.46
707.976	9.54
708.004	13.54
708.031	0.54
708.059	1.54
708.087	3.54
708.114	-23.46
708.142	-13.46
708.169	-3.46
708.197	-12.46
708.225	-0.46
708.252	-1.46
708.28	18.54
708.307	2.54
708.335	-4.46
708.362	-11.46
708.39	-18.46
708.418	-1.46
708.445	-8.46
708.473	-18.46
708.5	-23.46
708.528	8.54
708.555	-5.46
708.583	2.54
708.61	-6.46
708.638	3.54
708.665	-8.46
708.693	-6.46
708.72	0.54
708.748	-12.46
708.776	-4.46
708.803	15.54
708.831	3.54
708.858	24.54
708.886	3.54
708.913	8.54
708.941	-3.46
708.968	15.54
708.996	-13.46
709.023	25.54
709.051	-3.46
709.078	-10.46
709.105	1.54
709.133	1.54
709.16	-0.46
709.188	4.54
709.215	2.54
709.243	-6.46
709.27	-10.46
709.298	-1.46
709.325	-3.46
709.353	1.54
709.38	2.54
709.408	4.54
709.435	-0.46
709.462	3.54
709.49	9.54
709.517	-3.46
709.545	-3.46
709.572	7.54
709.6	-6.46
709.627	11.54
709.655	1.54
709.682	-7.46
709.709	5.54
709.737	-2.46
709.764	-9.46
709.792	5.54
709.819	21.54
709.846	-11.46
709.874	6.54
709.901	5.54
709.929	8.54
709.956	15.54
709.983	-0.46
710.011	-12.46
710.038	4.54
710.066	9.54
710.093	15.54
710.12	4.54
710.148	1.54
710.175	-14.46
710.202	-7.46
710.23	-2.46
710.257	-11.46
710.284	6.54
710.312	-3.46
710.339	-1.46
710.366	10.54
710.394	-7.46
710.421	-1.46
710.448	9.54
710.476	-8.46
710.503	5.54
710.53	21.54
710.558	18.54
710.585	13.54
710.612	-5.46
710.64	-2.46
710.667	0.54
710.694	-11.46
710.722	-2.46
710.749	2.54
710.776	5.54
710.804	11.54
710.831	0.54
710.858	-3.46
710.885	-3.46
710.913	2.54
710.94	22.54
710.967	-2.46
710.995	9.54
711.022	-1.46
711.049	1.54
711.076	-7.46
711.104	-11.46
711.131	-8.46
711.158	-1.46
711.185	16.54
711.213	-18.46
711.24	-4.46
711.267	-9.46
711.294	-5.46
711.322	15.54
711.349	-10.46
711.376	1.54
711.403	1.54
711.431	5.54
711.458	-9.46
711.485	-6.46
711.512	-8.46
711.54	-17.46
711.567	-10.46
711.594	-11.46
711.621	-6.46
711.648	3.54
711.676	5.54
711.703	-6.46
711.73	-18.46
711.757	4.54
711.784	0.54
711.812	-5.46
711.839	-4.46
711.866	-10.46
711.893	-10.46
711.92	16.54
711.947	-3.46
711.975	6.54
712.002	22.54
712.029	14.54
712.056	-4.46
712.083	10.54
712.11	-7.46
712.138	-7.46
712.165	-2.46
712.192	-8.46
712.219	-7.46
712.246	-8.46
712.273	-4.46
712.3	-4.46
712.328	-8.46
712.355	0.54
712.382	-6.46
712.409	19.54
712.436	-7.46
712.463	8.54
712.49	4.54
712.517	10.54
712.544	-4.46
712.572	6.54
712.599	-25.46
712.626	-3.46
712.653	1.54
712.68	-7.46
712.707	10.54
712.734	1.54
712.761	11.54
712.788	10.54
712.815	4.54
712.842	3.54
712.87	2.54
712.897	-15.46
712.924	-25.46
712.951	-7.46
712.978	9.54
713.005	-1.46
713.032	12.54
713.059	1.54
713.086	5.54
713.113	-6.46
713.14	-17.46
713.167	1.54
713.194	4.54
713.221	-0.46
713.248	16.54
713.275	2.54
713.302	-8.46
713.329	14.54
713.356	16.54
713.383	5.54
713.41	23.54
713.437	-16.46
713.464	-5.46
713.491	-1.46
713.518	-7.46
713.545	2.54
713.572	1.54
713.599	9.54
713.626	0.54
713.653	5.54
713.68	-6.46
713.707	-12.46
713.734	15.54
713.761	12.54
713.788	-15.46
713.815	13.54
713.842	-0.46
713.869	0.54
713.896	1.54
713.923	19.54
713.95	-2.46
713.977	-6.46
714.004	3.54
714.031	-24.46
714.058	-13.46
714.085	-3.46
714.112	-1.46
714.139	-2.46
714.165	-5.46
714.192	7.54
714.219	2.54
714.246	11.54
714.273	12.54
714.3	4.54
714.327	-1.46
714.354	14.54
714.381	-4.46
714.408	5.54
714.435	-20.46
714.461	-3.46
714.488	7.54
714.515	0.54
714.542	-4.46
714.569	-7.46
714.596	-17.46
714.623	-1.46
714.65	10.54
714.677	10.54
714.703	1.54
714.73	-11.46
714.757	-2.46
714.784	11.54
714.811	-18.46
714.838	-8.46
714.865	-3.46
714.891	6.54
714.918	8.54
714.945	-17.46
714.972	-22.46
714.999	-3.46
715.026	-10.46
715.052	6.54
715.079	-2.46
715.106	8.54
715.133	-8.46
715.16	-13.46
715.187	0.54
715.213	0.54
715.24	5.54
715.267	21.54
715.294	-3.46
715.321	-18.46
715.347	0.54
715.374	-3.46
715.401	-4.46
715.428	5.54
715.455	-2.46
715.481	-3.46
715.508	17.54
715.535	-4.46
715.562	30.54
715.588	6.54
715.615	-11.46
715.642	-1.46
715.669	9.54
715.695	-19.46
715.722	-18.46
715.749	-4.46
715.776	3.54
715.802	-5.46
715.829	1.54
715.856	-22.46
715.883	8.54
715.909	-1.46
715.936	9.54
715.963	3.54
715.99	-2.46
716.016	7.54
716.043	4.54
716.07	-14.46
716.096	-17.46
716.123	-12.46
716.15	-4.46
716.177	-7.46
716.203	2.54
716.23	8.54
716.257	-0.46
716.283	14.54
716.31	-12.46
716.337	-3.46
716.363	-11.46
716.39	2.54
716.417	13.54
716.443	9.54
716.47	12.54
716.497	21.54
716.523	6.54
716.55	13.54
716.577	18.54
716.603	7.54
716.63	-6.46
716.657	3.54
716.683	-15.46
716.71	2.54
716.737	5.54
716.763	2.54
716.79	-3.46
716.817	14.54
716.843	6.54
716.87	5.54
716.897	17.54
716.923	25.54
716.95	-2.46
716.976	-15.46
717.003	4.54
717.03	18.54
717.056	6.54
717.083	-5.46
717.109	-8.46
717.136	-2.46
717.163	-6.46
717.189	3.54
717.216	9.54
717.242	6.54
717.269	4.54
717.296	9.54
717.322	3.54
717.349	6.54
717.375	9.54
717.402	1.54
717.428	3.54
717.455	14.54
717.481	6.54
717.508	-6.46
717.535	8.54
717.561	2.54
717.588	2.54
717.614	0.54
717.641	1.54
717.667	-1.46
717.694	-5.46
717.72	3.54
717.747	4.54
717.773	-2.46
717.8	1.54
717.826	3.54
717.853	4.54
717.88	3.54
717.906	-1.46
717.933	9.54
717.959	2.54
717.986	11.54
718.012	1.54
718.039	11.54
718.065	10.54
718.092	6.54
718.118	-14.46
718.144	-10.46
718.171	13.54
718.197	22.54
718.224	9.54
718.25	-3.46
718.277	5.54
718.303	-9.46
718.33	-1.46
718.356	-2.46
718.383	-13.46
718.409	13.54
718.436	4.54
718.462	-1.46
718.489	-3.46
718.515	12.54
718.541	16.54
718.568	-1.46
718.594	1.54
718.621	6.54
718.647	-1.46
718.674	11.54
718.7	14.54
718.726	3.54
718.753	12.54
718.779	11.54
718.806	-3.46
718.832	2.54
718.858	-8.46
718.885	10.54
718.911	1.54
718.938	9.54
718.964	4.54
718.99	2.54
719.017	-4.46
719.043	2.54
719.07	18.54
719.096	1.54
719.122	4.54
719.149	10.54
719.175	10.54
719.201	-3.46
719.228	3.54
719.254	-3.46
719.281	13.54
719.307	0.54
719.333	-1.46
719.36	11.54
719.386	-4.46
719.412	12.54
719.439	-9.46
719.465	8.54
719.491	2.54
719.518	10.54
719.544	4.54
719.57	21.54
719.597	7.54
719.623	4.54
719.649	10.54
719.675	-3.46
719.702	22.54
719.728	10.54
719.754	-7.46
719.781	-7.46
719.807	-2.46
719.833	-6.46
719.86	8.54
719.886	6.54
719.912	1.54
719.938	0.54
719.965	0.54
719.991	-2.46
720.017	-11.46
720.044	0.54
720.07	6.54
720.096	1.54
720.122	-2.46
720.149	6.54
720.175	20.54
720.201	15.54
720.227	14.54
720.254	10.54
720.28	-8.46
720.306	8.54
720.332	4.54
720.359	13.54
720.385	-0.46
720.411	14.54
720.437	8.54
720.463	-1.46
720.49	7.54
720.516	0.54
720.542	-3.46
720.568	5.54
720.595	12.54
720.621	12.54
720.647	-1.46
720.673	9.54
720.699	-10.46
720.725	-11.46
720.752	-11.46
720.778	17.54
720.804	8.54
720.83	21.54
720.856	-1.46
720.883	-18.46
720.909	-0.46
720.935	7.54
720.961	21.54
720.987	10.54
721.013	5.54
721.04	-10.46
721.066	1.54
721.092	-1.46
721.118	13.54
721.144	20.54
721.17	4.54
721.196	5.54
721.223	-8.46
721.249	5.54
721.275	9.54
721.301	10.54
721.327	12.54
721.353	4.54
721.379	-1.46
721.405	1.54
721.432	9.54
721.458	4.54
721.484	3.54
721.51	-12.46
721.536	-5.46
721.562	15.54
721.588	11.54
721.614	-15.46
721.64	-0.46
721.666	-3.46
721.693	-2.46
721.719	0.54
721.745	18.54
721.771	1.54
721.797	5.54
721.823	-3.46
721.849	10.54
721.875	11.54
721.901	11.54
721.927	-2.46
721.953	13.54
721.979	11.54
722.005	12.54
722.031	1.54
722.057	7.54
722.083	15.54
722.109	35.54
722.135	36.54
722.161	20.54
722.187	0.54
722.214	-10.46
722.24	16.54
722.266	-4.46
722.292	14.54
722.318	9.54
722.344	-2.46
722.37	2.54
722.396	18.54
722.422	-0.46
722.448	0.54
722.474	2.54
722.5	22.54
722.526	13.54
722.552	5.54
722.578	-7.46
722.603	10.54
722.629	-8.46
722.655	14.54
722.681	0.54
722.707	-2.46
722.733	-8.46
722.759	10.54
722.785	19.54
722.811	0.54
722.837	4.54
722.863	1.54
722.889	10.54
722.915	0.54
722.941	-2.46
722.967	3.54
722.993	-4.46
723.019	26.54
723.045	5.54
723.071	9.54
723.097	-1.46
723.122	-6.46
723.148	6.54
723.174	5.54
723.2	-3.46
723.226	-9.46
723.252	0.54
723.278	-4.46
723.304	-12.46
723.33	6.54
723.356	-6.46
723.381	-6.46
723.407	-0.46
723.433	5.54
723.459	0.54
723.485	-0.46
723.511	-2.46
723.537	1.54
723.563	-3.46
723.588	-1.46
723.614	17.54
723.64	0.54
723.666	-2.46
723.692	19.54
723.718	2.54
723.744	-6.46
723.769	-4.46
723.795	10.54
723.821	-6.46
723.847	-3.46
723.873	14.54
723.899	-1.46
723.924	5.54
723.95	3.54
723.976	-11.46
724.002	3.54
724.028	8.54
724.053	6.54
724.079	6.54
724.105	-1.46
724.131	-8.46
724.157	-6.46
724.182	6.54
724.208	4.54
724.234	2.54
724.26	-5.46
724.286	19.54
724.311	1.54
724.337	-11.46
724.363	-14.46
724.389	4.54
724.415	6.54
724.44	12.54
724.466	-7.46
724.492	0.54
724.518	-12.46
724.543	-7.46
724.569	0.54
724.595	13.54
724.621	-10.46
724.646	-4.46
724.672	-3.46
724.698	-1.46
724.723	9.54
724.749	-2.46
724.775	8.54
724.801	9.54
724.826	-13.46
724.852	-4.46
724.878	-5.46
724.904	-0.46
724.929	0.54
724.955	-7.46
724.981	-8.46
725.006	1.54
725.032	6.54
725.058	9.54
725.083	-5.46
725.109	4.54
725.135	-2.46
725.161	8.54
725.186	-2.46
725.212	-6.46
725.238	8.54
725.263	-4.46
725.289	-15.46
725.315	-2.46
725.34	11.54
725.366	-1.46
725.392	-1.46
725.417	-2.46
725.443	0.54
725.468	-7.46
725.494	6.54
725.52	14.54
725.545	3.54
725.571	1.54
725.597	-4.46
725.622	15.54
725.648	16.54
725.674	15.54
725.699	5.54
725.725	-6.46
725.75	28.54
725.776	2.54
725.802	4.54
725.827	22.54
725.853	4.54
725.878	10.54
725.904	-5.46
725.93	10.54
725.955	-11.46
725.981	7.54
726.006	12.54
726.032	14.54
726.057	-7.46
726.083	-2.46
726.109	14.54
726.134	2.54
726.16	6.54
726.185	4.54
726.211	-3.46
726.236	1.54
726.262	-2.46
726.288	-2.46
726.313	7.54
726.339	13.54
726.364	-1.46
726.39	9.54
726.415	-0.46
726.441	-13.46
726.466	3.54
726.492	6.54
726.517	5.54
726.543	-7.46
726.568	-6.46
726.594	-3.46
726.619	6.54
726.645	6.54
726.67	7.54
726.696	-3.46
726.721	-19.46
726.747	-4.46
726.772	9.54
726.798	-2.46
726.823	22.54
726.849	2.54
726.874	3.54
726.9	24.54
726.925	3.54
726.951	4.54
726.976	17.54
727.002	3.54
727.027	3.54
727.053	14.54
727.078	5.54
727.104	6.54
727.129	-9.46
727.155	-5.46
727.18	4.54
727.205	-3.46
727.231	1.54
727.256	1.54
727.282	10.54
727.307	13.54
727.333	2.54
727.358	-21.46
727.383	3.54
727.409	-8.46
727.434	0.54
727.46	-11.46
727.485	2.54
727.511	5.54
727.536	-10.46
727.561	-12.46
727.587	0.54
727.612	4.54
727.637	-6.46
727.663	2.54
727.688	13.54
727.714	-7.46
727.739	-3.46
727.764	-2.46
727.79	5.54
727.815	10.54
727.841	15.54
727.866	0.54
727.891	-3.46
727.917	0.54
727.942	-11.46
727.967	-2.46
727.993	-1.46
728.018	-5.46
728.043	0.54
728.069	18.54
728.094	23.54
728.119	16.54
728.145	4.54
728.17	9.54
728.195	14.54
728.221	-7.46
728.246	-3.46
728.271	-17.46
728.297	11.54
728.322	19.54
728.347	14.54
728.373	-1.46
728.398	-2.46
728.423	10.54
728.448	-2.46
728.474	8.54
728.499	4.54
728.524	9.54
728.55	-7.46
728.575	7.54
728.6	7.54
728.625	-4.46
728.651	3.54
728.676	-3.46
728.701	1.54
728.727	2.54
728.752	-12.46
728.777	-12.46
728.802	-5.46
728.828	4.54
728.853	0.54
728.878	-4.46
728.903	-3.46
728.929	-0.46
728.954	-9.46
728.979	0.54
729.004	-21.46
729.03	-19.46
729.055	8.54
729.08	-2.46
729.105	-1.46
729.13	9.54
729.156	0.54
729.181	10.54
729.206	-6.46
729.231	0.54
729.256	2.54
729.282	-9.46
729.307	-25.46
729.332	-19.46
729.357	-5.46
729.382	2.54
729.408	-6.46
729.433	-6.46
729.458	3.54
729.483	11.54
729.508	12.54
729.533	-1.46
729.559	0.54
729.584	-10.46
729.609	9.54
729.634	1.54
729.659	-14.46
729.684	-7.46
729.71	10.54
729.735	-6.46
729.76	1.54
729.785	-5.46
729.81	6.54
729.835	-1.46
729.86	-11.46
729.886	10.54
729.911	8.54
729.936	-5.46
729.961	11.54
729.986	-5.46
730.011	-6.46
730.036	-1.46
730.061	8.54
730.086	6.54
730.112	-6.46
730.137	13.54
730.162	6.54
730.187	-10.46
730.212	-5.46
730.237	-9.46
730.262	12.54
730.287	1.54
730.312	13.54
730.337	-4.46
730.362	22.54
730.387	12.54
730.413	-17.46
730.438	1.54
730.463	3.54
730.488	-12.46
730.513	-7.46
730.538	-9.46
730.563	14.54
730.588	1.54
730.613	8.54
730.638	7.54
730.663	-8.46
730.688	12.54
730.713	-4.46
730.738	6.54
730.763	-7.46
730.788	-18.46
730.813	5.54
730.838	3.54
730.863	4.54
730.888	-9.46
730.913	-7.46
730.938	-6.46
730.963	12.54
730.988	-3.46
731.013	13.54
731.038	-0.46
731.063	-2.46
731.088	7.54
731.113	-3.46
731.138	-10.46
731.163	4.54
731.188	0.54
731.213	-0.46
731.238	12.54
731.263	-3.46
731.288	-4.46
731.313	3.54
731.338	-6.46
731.363	-14.46
731.388	-3.46
731.413	1.54
731.438	9.54
731.463	-0.46
731.487	9.54
731.512	-2.46
731.537	-7.46
731.562	-3.46
731.587	7.54
731.612	-4.46
731.637	-4.46
731.662	2.54
731.687	-4.46
731.712	-21.46
731.737	-2.46
731.762	3.54
731.786	4.54
731.811	-11.46
731.836	-1.46
731.861	-0.46
731.886	-3.46
731.911	10.54
731.936	16.54
731.961	1.54
731.986	1.54
732.01	4.54
732.035	4.54
732.06	7.54
732.085	5.54
732.11	6.54
732.135	-13.46
732.16	2.54
732.184	0.54
732.209	4.54
732.234	4.54
732.259	-9.46
732.284	10.54
732.309	-2.46
732.334	-6.46
732.358	-5.46
732.383	-9.46
732.408	-5.46
732.433	-12.46
732.458	-13.46
732.482	-5.46
732.507	1.54
732.532	4.54
732.557	32.54
732.582	11.54
732.607	-3.46
732.631	-6.46
732.656	4.54
732.681	-0.46
732.706	-1.46
732.73	6.54
732.755	-13.46
732.78	-10.46
732.805	9.54
732.83	-2.46
732.854	-2.46
732.879	14.54
732.904	7.54
732.929	2.54
732.953	2.54
732.978	6.54
733.003	-7.46
733.028	-3.46
733.052	0.54
733.077	8.54
733.102	6.54
733.127	1.54
733.151	-1.46
733.176	10.54
733.201	10.54
733.226	-4.46
733.25	-10.46
733.275	5.54
733.3	8.54
733.324	20.54
733.349	-5.46
733.374	1.54
733.399	0.54
733.423	1.54
733.448	5.54
733.473	-12.46
733.497	2.54
733.522	-4.46
733.547	1.54
733.571	2.54
733.596	14.54
733.621	13.54
733.646	4.54
733.67	2.54
733.695	-10.46
733.72	5.54
733.744	17.54
733.769	5.54
733.794	6.54
733.818	-6.46
733.843	1.54
733.867	-9.46
733.892	2.54
733.917	4.54
733.941	22.54
733.966	-8.46
733.991	-0.46
734.015	19.54
734.04	-4.46
734.065	4.54
734.089	15.54
734.114	-3.46
734.138	1.54
734.163	5.54
734.188	-6.46
734.212	13.54
734.237	23.54
734.261	0.54
734.286	-9.46
734.311	0.54
734.335	-5.46
734.36	0.54
734.384	5.54
734.409	5.54
734.434	9.54
734.458	13.54
734.483	-2.46
734.507	-2.46
734.532	-10.46
734.556	2.54
734.581	-1.46
734.606	-3.46
734.63	-17.46
734.655	-6.46
734.679	-12.46
734.704	0.54
734.728	-6.46
734.753	-1.46
734.777	7.54
734.802	0.54
734.826	5.54
734.851	14.54
734.876	15.54
734.9	-4.46
734.925	25.54
734.949	12.54
734.974	5.54
734.998	8.54
735.023	8.54
735.047	7.54
735.072	24.54
735.096	-2.46
735.121	9.54
735.145	9.54
735.17	-10.46
735.194	14.54
735.219	-3.46
735.243	12.54
735.268	16.54
735.292	2.54
735.317	0.54
735.341	1.54
735.365	-10.46
735.39	10.54
735.414	-2.46
735.439	-2.46
735.463	1.54
735.488	11.54
735.512	13.54
735.537	-5.46
735.561	4.54
735.586	12.54
735.61	4.54
735.634	8.54
735.659	13.54
735.683	21.54
735.708	3.54
735.732	4.54
735.757	-3.46
735.781	8.54
735.805	23.54
735.83	-4.46
735.854	-0.46
735.879	-7.46
735.903	3.54
735.927	3.54
735.952	4.54
735.976	-4.46
736.001	6.54
736.025	0.54
736.049	-1.46
736.074	-2.46
736.098	1.54
736.123	4.54
736.147	-6.46
736.171	0.54
736.196	16.54
736.22	1.54
736.244	1.54
736.269	2.54
736.293	-9.46
736.317	-1.46
736.342	-5.46
736.366	13.54
736.39	23.54
736.415	-6.46
736.439	-0.46
736.463	13.54
736.488	-2.46
736.512	9.54
736.536	15.54
736.561	17.54
736.585	8.54
736.609	10.54
736.634	-3.46
736.658	12.54
736.682	4.54
736.707	-12.46
736.731	6.54
736.755	7.54
736.78	15.54
736.804	6.54
736.828	11.54
736.852	5.54
736.877	8.54
736.901	-0.46
736.925	-2.46
736.949	6.54
736.974	-5.46
736.998	-3.46
737.022	4.54
737.047	0.54
737.071	1.54
737.095	17.54
737.119	27.54
737.144	11.54
737.168	8.54
737.192	9.54
737.216	6.54
737.241	8.54
737.265	9.54
737.289	10.54
737.313	5.54
737.337	9.54
737.362	8.54
737.386	-3.46
737.41	-2.46
737.434	14.54
737.459	18.54
737.483	8.54
737.507	19.54
737.531	1.54
737.555	-2.46
737.58	5.54
737.604	-3.46
737.628	-12.46
737.652	-22.46
737.676	-4.46
737.701	6.54
737.725	13.54
737.749	13.54
737.773	10.54
737.797	1.54
737.821	-3.46
737.846	10.54
737.87	24.54
737.894	-4.46
737.918	20.54
737.942	0.54
737.966	16.54
737.99	9.54
738.015	1.54
738.039	4.54
738.063	-3.46
738.087	10.54
738.111	-1.46
738.135	15.54
738.159	-3.46
738.184	4.54
738.208	9.54
738.232	5.54
738.256	3.54
738.28	6.54
738.304	8.54
738.328	-5.46
738.352	-3.46
738.376	1.54
738.4	10.54
738.425	4.54
738.449	-0.46
738.473	5.54
738.497	1.54
738.521	12.54
738.545	-1.46
738.569	4.54
738.593	22.54
738.617	1.54
738.641	14.54
738.665	2.54
738.689	21.54
738.713	-3.46
738.737	7.54
738.762	3.54
738.786	8.54
738.81	-21.46
738.834	2.54
738.858	-8.46
738.882	3.54
738.906	-5.46
738.93	3.54
738.954	0.54
738.978	9.54
739.002	-7.46
739.026	16.54
739.05	6.54
739.074	-6.46
739.098	32.54
739.122	9.54
739.146	24.54
739.17	9.54
739.194	5.54
739.218	1.54
739.242	-1.46
739.266	-9.46
739.29	2.54
739.314	6.54
739.338	12.54
739.362	9.54
739.386	-5.46
739.41	-5.46
739.434	-2.46
739.458	9.54
739.482	10.54
739.506	8.54
739.53	-9.46
739.554	10.54
739.577	1.54
739.601	25.54
739.625	4.54
739.649	5.54
739.673	-12.46
739.697	4.54
739.721	4.54
739.745	11.54
739.769	7.54
739.793	6.54
739.817	11.54
739.841	-6.46
739.865	-0.46
739.889	-7.46
739.912	16.54
739.936	1.54
739.96	-5.46
739.984	14.54
740.008	5.54
740.032	8.54
740.056	5.54
740.08	4.54
740.104	-2.46
740.127	9.54
740.151	9.54
740.175	9.54
740.199	14.54
740.223	58.54
740.247	22.54
740.271	10.54
740.295	5.54
740.318	-11.46
740.342	0.54
740.366	7.54
740.39	11.54
740.414	6.54
740.438	-10.46
740.461	24.54
740.485	8.54
740.509	3.54
740.533	2.54
740.557	-4.46
740.581	-2.46
740.604	-2.46
740.628	2.54
740.652	0.54
740.676	-9.46
740.7	12.54
740.723	-3.46
740.747	-7.46
740.771	-13.46
740.795	-7.46
740.819	10.54
740.842	4.54
740.866	18.54
740.89	11.54
740.914	-7.46
740.938	-2.46
740.961	18.54
740.985	6.54
741.009	-7.46
741.033	16.54
741.056	0.54
741.08	-4.46
741.104	-12.46
741.128	-1.46
741.151	12.54
741.175	-3.46
741.199	0.54
741.223	15.54
741.246	-7.46
741.27	13.54
741.294	17.54
741.318	-0.46
741.341	10.54
741.365	6.54
741.389	12.54
741.413	9.54
741.436	0.54
741.46	13.54
741.484	13.54
741.507	8.54
741.531	21.54
741.555	-2.46
741.579	-8.46
741.602	2.54
741.626	1.54
741.65	0.54
741.673	8.54
741.697	14.54
741.721	9.54
741.744	-10.46
741.768	2.54
741.792	4.54
741.815	-4.46
741.839	13.54
741.863	-3.46
741.886	1.54
741.91	11.54
741.934	0.54
741.957	-8.46
741.981	19.54
742.005	9.54
742.028	3.54
742.052	-5.46
742.075	6.54
742.099	4.54
742.123	-5.46
742.146	9.54
742.17	17.54
742.194	-10.46
742.217	-13.46
742.241	-3.46
742.264	-10.46
742.288	28.54
742.312	11.54
742.335	9.54
742.359	11.54
742.382	8.54
742.406	21.54
742.43	-2.46
742.453	4.54
742.477	10.54
742.5	2.54
742.524	-9.46
742.548	3.54
742.571	-1.46
742.595	-7.46
742.618	-2.46
742.642	-11.46
742.665	15.54
742.689	11.54
742.712	17.54
742.736	-6.46
742.76	-2.46
742.783	17.54
742.807	9.54
742.83	13.54
742.854	-11.46
742.877	-10.46
742.901	12.54
742.924	-1.46
742.948	25.54
742.971	20.54
742.995	8.54
743.018	-9.46
743.042	4.54
743.065	-1.46
743.089	-1.46
743.112	-4.46
743.136	-5.46
743.159	-22.46
743.183	-4.46
743.206	0.54
743.23	-11.46
743.253	-0.46
743.277	16.54
743.3	-2.46
743.324	-5.46
743.347	-6.46
743.371	6.54
743.394	9.54
743.418	25.54
743.441	14.54
743.465	5.54
743.488	8.54
743.512	0.54
743.535	4.54
743.558	2.54
743.582	6.54
743.605	3.54
743.629	32.54
743.652	9.54
743.676	1.54
743.699	11.54
743.723	20.54
743.746	16.54
743.769	-3.46
743.793	13.54
743.816	1.54
743.84	2.54
743.863	16.54
743.886	18.54
743.91	19.54
743.933	9.54
743.957	9.54
743.98	9.54
744.003	8.54
744.027	8.54
744.05	11.54
744.074	-5.46
744.097	-15.46
744.12	-10.46
744.144	-7.46
744.167	1.54
744.19	6.54
744.214	-5.46
744.237	-4.46
744.26	1.54
744.284	-5.46
744.307	-6.46
744.331	22.54
744.354	-3.46
744.377	-13.46
744.401	6.54
744.424	-1.46
744.447	-17.46
744.471	8.54
