Data from HighRes_H2_15_09_11_07_2024_HR4C61891__137__15-11-10-101.txt Node

Date: Thu Nov 07 15:11:10 EST 2024
User: crc00042
Spectrometer: HR4C6189
Trigger mode: 4
Integration Time (sec): 1.000000E-1
Scans to average: 1
Electric dark correction enabled: true
Nonlinearity correction enabled: false
Boxcar width: 0
XAxis mode: Wavelengths
Number of Pixels in Spectrum: 3648
>>>>>Begin Spectral Data<<<<<
639.567	-38.62
639.602	-38.62
639.636	-38.62
639.67	-41.62
639.704	-13.62
639.738	-9.62
639.773	0.38
639.807	-24.62
639.841	2.38
639.875	33.38
639.909	7.38
639.943	5.38
639.978	-3.62
640.012	1.38
640.046	14.38
640.08	-12.62
640.114	-6.62
640.148	-7.62
640.182	9.38
640.217	6.38
640.251	25.38
640.285	3.38
640.319	2.38
640.353	-3.62
640.387	9.38
640.421	10.38
640.455	6.38
640.49	3.38
640.524	-4.62
640.558	6.38
640.592	1.38
640.626	3.38
640.66	12.38
640.694	-5.62
640.728	5.38
640.762	19.38
640.796	10.38
640.83	4.38
640.865	5.38
640.899	4.38
640.933	-13.62
640.967	7.38
641.001	2.38
641.035	8.38
641.069	-4.62
641.103	-8.62
641.137	-6.62
641.171	-10.62
641.205	14.38
641.239	4.38
641.273	8.38
641.307	3.38
641.341	-1.62
641.375	4.38
641.409	-10.62
641.443	-3.62
641.477	-3.62
641.511	15.38
641.545	3.38
641.579	12.38
641.614	28.38
641.648	7.38
641.682	-15.62
641.716	5.38
641.75	24.38
641.784	-0.62
641.818	7.38
641.852	9.38
641.886	-4.62
641.919	18.38
641.953	4.38
641.987	-15.62
642.021	-0.62
642.055	11.38
642.089	9.38
642.123	4.38
642.157	-13.62
642.191	-7.62
642.225	9.38
642.259	-8.62
642.293	4.38
642.327	6.38
642.361	3.38
642.395	13.38
642.429	16.38
642.463	16.38
642.497	13.38
642.531	6.38
642.565	-3.62
642.599	9.38
642.633	-18.62
642.666	10.38
642.7	23.38
642.734	12.38
642.768	-11.62
642.802	17.38
642.836	14.38
642.87	1.38
642.904	5.38
642.938	2.38
642.972	3.38
643.005	11.38
643.039	18.38
643.073	22.38
643.107	3.38
643.141	3.38
643.175	12.38
643.209	3.38
643.243	-8.62
643.276	-7.62
643.31	6.38
643.344	1.38
643.378	-6.62
643.412	16.38
643.446	3.38
643.48	-11.62
643.513	-0.62
643.547	5.38
643.581	-7.62
643.615	6.38
643.649	6.38
643.683	6.38
643.716	7.38
643.75	10.38
643.784	-10.62
643.818	-2.62
643.852	-1.62
643.886	3.38
643.919	5.38
643.953	-0.62
643.987	0.38
644.021	14.38
644.055	16.38
644.088	13.38
644.122	11.38
644.156	0.38
644.19	9.38
644.224	11.38
644.257	6.38
644.291	25.38
644.325	20.38
644.359	11.38
644.392	12.38
644.426	2.38
644.46	5.38
644.494	16.38
644.527	-9.62
644.561	0.38
644.595	10.38
644.629	-1.62
644.662	-11.62
644.696	15.38
644.73	16.38
644.764	9.38
644.797	-1.62
644.831	5.38
644.865	14.38
644.899	-4.62
644.932	24.38
644.966	5.38
645	6.38
645.033	13.38
645.067	1.38
645.101	12.38
645.135	5.38
645.168	-0.62
645.202	-0.62
645.236	20.38
645.269	11.38
645.303	-9.62
645.337	-17.62
645.37	-7.62
645.404	2.38
645.438	3.38
645.471	-8.62
645.505	9.38
645.539	5.38
645.572	-1.62
645.606	8.38
645.64	4.38
645.673	10.38
645.707	27.38
645.741	11.38
645.774	-11.62
645.808	14.38
645.842	3.38
645.875	12.38
645.909	7.38
645.943	-9.62
645.976	25.38
646.01	13.38
646.043	10.38
646.077	20.38
646.111	14.38
646.144	7.38
646.178	9.38
646.212	-12.62
646.245	2.38
646.279	8.38
646.312	11.38
646.346	18.38
646.38	-0.62
646.413	5.38
646.447	-4.62
646.48	16.38
646.514	3.38
646.547	-16.62
646.581	-4.62
646.615	5.38
646.648	-5.62
646.682	1.38
646.715	-7.62
646.749	20.38
646.782	-2.62
646.816	-9.62
646.85	-0.62
646.883	-1.62
646.917	-7.62
646.95	13.38
646.984	5.38
647.017	-5.62
647.051	4.38
647.084	6.38
647.118	0.38
647.151	-2.62
647.185	7.38
647.218	5.38
647.252	24.38
647.285	-4.62
647.319	-0.62
647.353	-5.62
647.386	13.38
647.42	6.38
647.453	5.38
647.487	9.38
647.52	10.38
647.553	12.38
647.587	-5.62
647.62	-7.62
647.654	6.38
647.687	4.38
647.721	12.38
647.754	3.38
647.788	5.38
647.821	-10.62
647.855	4.38
647.888	10.38
647.922	6.38
647.955	-2.62
647.989	-3.62
648.022	-14.62
648.055	18.38
648.089	2.38
648.122	14.38
648.156	-2.62
648.189	-0.62
648.223	3.38
648.256	21.38
648.29	17.38
648.323	4.38
648.356	7.38
648.39	1.38
648.423	6.38
648.457	8.38
648.49	4.38
648.523	-8.62
648.557	-9.62
648.59	2.38
648.624	7.38
648.657	5.38
648.69	21.38
648.724	10.38
648.757	20.38
648.791	18.38
648.824	12.38
648.857	23.38
648.891	1.38
648.924	3.38
648.957	26.38
648.991	-4.62
649.024	13.38
649.057	-8.62
649.091	-9.62
649.124	-0.62
649.158	-1.62
649.191	28.38
649.224	12.38
649.258	9.38
649.291	5.38
649.324	7.38
649.358	6.38
649.391	12.38
649.424	15.38
649.458	-10.62
649.491	-1.62
649.524	-2.62
649.557	-11.62
649.591	-0.62
649.624	19.38
649.657	4.38
649.691	8.38
649.724	7.38
649.757	12.38
649.791	-8.62
649.824	6.38
649.857	11.38
649.89	6.38
649.924	8.38
649.957	5.38
649.99	-13.62
650.023	7.38
650.057	-10.62
650.09	4.38
650.123	-3.62
650.157	8.38
650.19	11.38
650.223	1.38
650.256	-3.62
650.29	3.38
650.323	-13.62
650.356	11.38
650.389	4.38
650.423	-14.62
650.456	1.38
650.489	12.38
650.522	4.38
650.555	7.38
650.589	-9.62
650.622	23.38
650.655	35.38
650.688	24.38
650.721	10.38
650.755	9.38
650.788	-2.62
650.821	3.38
650.854	12.38
650.887	12.38
650.921	-2.62
650.954	1.38
650.987	-1.62
651.02	3.38
651.053	4.38
651.087	-26.62
651.12	27.38
651.153	0.38
651.186	-0.62
651.219	-10.62
651.252	-1.62
651.286	11.38
651.319	-4.62
651.352	0.38
651.385	3.38
651.418	12.38
651.451	15.38
651.484	19.38
651.518	-5.62
651.551	13.38
651.584	-13.62
651.617	2.38
651.65	-5.62
651.683	16.38
651.716	0.38
651.749	-1.62
651.783	1.38
651.816	-5.62
651.849	14.38
651.882	11.38
651.915	3.38
651.948	15.38
651.981	-7.62
652.014	6.38
652.047	0.38
652.08	3.38
652.114	15.38
652.147	-3.62
652.18	3.38
652.213	12.38
652.246	-9.62
652.279	-25.62
652.312	18.38
652.345	-9.62
652.378	10.38
652.411	9.38
652.444	10.38
652.477	11.38
652.51	6.38
652.543	-4.62
652.576	1.38
652.609	-2.62
652.642	-4.62
652.675	2.38
652.709	-10.62
652.742	8.38
652.775	3.38
652.808	1.38
652.841	-6.62
652.874	14.38
652.907	7.38
652.94	17.38
652.973	-2.62
653.006	-8.62
653.039	6.38
653.072	25.38
653.105	-20.62
653.138	-15.62
653.171	-3.62
653.204	7.38
653.237	10.38
653.27	-6.62
653.303	-9.62
653.336	7.38
653.368	-5.62
653.401	7.38
653.434	4.38
653.467	0.38
653.5	-14.62
653.533	-19.62
653.566	-1.62
653.599	11.38
653.632	8.38
653.665	16.38
653.698	-6.62
653.731	-6.62
653.764	-7.62
653.797	12.38
653.83	11.38
653.863	9.38
653.896	6.38
653.929	5.38
653.961	11.38
653.994	-7.62
654.027	-1.62
654.06	6.38
654.093	-10.62
654.126	-2.62
654.159	-11.62
654.192	11.38
654.225	8.38
654.258	-11.62
654.29	-0.62
654.323	5.38
654.356	1.38
654.389	12.38
654.422	15.38
654.455	-0.62
654.488	5.38
654.521	-23.62
654.553	-16.62
654.586	14.38
654.619	-3.62
654.652	-11.62
654.685	17.38
654.718	13.38
654.751	1.38
654.783	4.38
654.816	8.38
654.849	8.38
654.882	-15.62
654.915	-17.62
654.948	4.38
654.98	-13.62
655.013	-7.62
655.046	-3.62
655.079	1.38
655.112	-4.62
655.144	-3.62
655.177	7.38
655.21	17.38
655.243	27.38
655.276	6.38
655.308	-14.62
655.341	-6.62
655.374	3.38
655.407	4.38
655.44	8.38
655.472	17.38
655.505	3.38
655.538	-2.62
655.571	9.38
655.603	12.38
655.636	17.38
655.669	24.38
655.702	14.38
655.734	14.38
655.767	14.38
655.8	28.38
655.833	11.38
655.865	32.38
655.898	21.38
655.931	28.38
655.964	34.38
655.996	45.38
656.029	73.38
656.062	60.38
656.095	76.38
656.127	67.38
656.16	102.38
656.193	110.38
656.225	181.38
656.258	298.38
656.291	473.38
656.324	1113.38
656.356	3380.38
656.389	7518.38
656.422	6049.38
656.454	2104.38
656.487	708.38
656.52	266.38
656.552	126.38
656.585	74.38
656.618	61.38
656.65	43.38
656.683	20.38
656.716	20.38
656.748	20.38
656.781	8.38
656.814	9.38
656.846	17.38
656.879	-13.62
656.912	-2.62
656.944	-22.62
656.977	-6.62
657.01	2.38
657.042	18.38
657.075	4.38
657.108	-8.62
657.14	4.38
657.173	13.38
657.205	38.38
657.238	21.38
657.271	-0.62
657.303	-14.62
657.336	1.38
657.369	18.38
657.401	8.38
657.434	11.38
657.466	6.38
657.499	2.38
657.532	19.38
657.564	1.38
657.597	-5.62
657.629	0.38
657.662	5.38
657.694	22.38
657.727	-8.62
657.76	-5.62
657.792	-13.62
657.825	4.38
657.857	0.38
657.89	23.38
657.922	9.38
657.955	-10.62
657.987	-9.62
658.02	9.38
658.053	7.38
658.085	6.38
658.118	12.38
658.15	11.38
658.183	19.38
658.215	4.38
658.248	1.38
658.28	3.38
658.313	20.38
658.345	38.38
658.378	2.38
658.41	-10.62
658.443	13.38
658.475	-4.62
658.508	-1.62
658.54	-16.62
658.573	-2.62
658.605	-5.62
658.638	5.38
658.67	-3.62
658.703	7.38
658.735	-0.62
658.768	-3.62
658.8	1.38
658.833	16.38
658.865	6.38
658.898	-3.62
658.93	-14.62
658.963	5.38
658.995	4.38
659.028	3.38
659.06	-2.62
659.092	-5.62
659.125	0.38
659.157	10.38
659.19	-12.62
659.222	-14.62
659.255	5.38
659.287	20.38
659.32	-11.62
659.352	3.38
659.384	15.38
659.417	2.38
659.449	-0.62
659.482	17.38
659.514	13.38
659.546	6.38
659.579	-3.62
659.611	-7.62
659.644	-4.62
659.676	-11.62
659.708	-0.62
659.741	-3.62
659.773	3.38
659.806	2.38
659.838	5.38
659.87	7.38
659.903	-8.62
659.935	9.38
659.967	-12.62
660	6.38
660.032	-4.62
660.065	21.38
660.097	7.38
660.129	12.38
660.162	-9.62
660.194	8.38
660.226	10.38
660.259	-0.62
660.291	-3.62
660.323	-7.62
660.356	-4.62
660.388	-18.62
660.42	1.38
660.453	7.38
660.485	10.38
660.517	5.38
660.55	11.38
660.582	6.38
660.614	10.38
660.647	3.38
660.679	-10.62
660.711	5.38
660.743	-13.62
660.776	-0.62
660.808	4.38
660.84	4.38
660.873	2.38
660.905	-4.62
660.937	10.38
660.969	8.38
661.002	-8.62
661.034	16.38
661.066	-9.62
661.099	0.38
661.131	13.38
661.163	4.38
661.195	8.38
661.228	22.38
661.26	5.38
661.292	2.38
661.324	10.38
661.357	12.38
661.389	2.38
661.421	9.38
661.453	-11.62
661.485	4.38
661.518	-3.62
661.55	-8.62
661.582	-20.62
661.614	-0.62
661.647	10.38
661.679	7.38
661.711	-6.62
661.743	-2.62
661.775	-1.62
661.808	18.38
661.84	-9.62
661.872	11.38
661.904	-3.62
661.936	2.38
661.969	-13.62
662.001	-6.62
662.033	-11.62
662.065	-15.62
662.097	11.38
662.129	25.38
662.162	0.38
662.194	10.38
662.226	-1.62
662.258	5.38
662.29	-4.62
662.322	-3.62
662.355	-14.62
662.387	9.38
662.419	10.38
662.451	9.38
662.483	3.38
662.515	4.38
662.547	0.38
662.58	-0.62
662.612	-13.62
662.644	-17.62
662.676	8.38
662.708	23.38
662.74	2.38
662.772	3.38
662.804	3.38
662.836	-5.62
662.869	-12.62
662.901	0.38
662.933	4.38
662.965	15.38
662.997	16.38
663.029	9.38
663.061	2.38
663.093	-0.62
663.125	2.38
663.157	8.38
663.189	6.38
663.221	12.38
663.254	-3.62
663.286	12.38
663.318	1.38
663.35	7.38
663.382	-3.62
663.414	13.38
663.446	8.38
663.478	-9.62
663.51	28.38
663.542	-12.62
663.574	11.38
663.606	3.38
663.638	-5.62
663.67	6.38
663.702	-10.62
663.734	-10.62
663.766	6.38
663.798	-1.62
663.83	-2.62
663.862	9.38
663.894	11.38
663.926	7.38
663.958	16.38
663.99	7.38
664.022	9.38
664.054	21.38
664.086	1.38
664.118	5.38
664.15	3.38
664.182	-2.62
664.214	1.38
664.246	-5.62
664.278	14.38
664.31	3.38
664.342	4.38
664.374	-7.62
664.406	8.38
664.438	3.38
664.47	29.38
664.502	8.38
664.534	10.38
664.566	0.38
664.598	5.38
664.63	8.38
664.662	4.38
664.693	-16.62
664.725	-3.62
664.757	4.38
664.789	-4.62
664.821	-4.62
664.853	25.38
664.885	19.38
664.917	-1.62
664.949	10.38
664.981	-2.62
665.013	-5.62
665.045	-14.62
665.076	-0.62
665.108	5.38
665.14	-5.62
665.172	-10.62
665.204	2.38
665.236	2.38
665.268	10.38
665.3	2.38
665.331	-16.62
665.363	23.38
665.395	-2.62
665.427	-5.62
665.459	-0.62
665.491	9.38
665.523	14.38
665.555	2.38
665.586	-5.62
665.618	-27.62
665.65	-4.62
665.682	6.38
665.714	-0.62
665.746	6.38
665.777	2.38
665.809	0.38
665.841	11.38
665.873	-2.62
665.905	9.38
665.937	-0.62
665.968	2.38
666	-13.62
666.032	2.38
666.064	0.38
666.096	-12.62
666.127	9.38
666.159	-4.62
666.191	4.38
666.223	2.38
666.255	-3.62
666.286	-9.62
666.318	-12.62
666.35	16.38
666.382	-8.62
666.413	-8.62
666.445	-3.62
666.477	-4.62
666.509	-9.62
666.54	-9.62
666.572	-3.62
666.604	-3.62
666.636	-8.62
666.667	12.38
666.699	13.38
666.731	-14.62
666.763	1.38
666.794	12.38
666.826	2.38
666.858	-14.62
666.89	8.38
666.921	3.38
666.953	3.38
666.985	5.38
667.017	21.38
667.048	4.38
667.08	-16.62
667.112	-2.62
667.143	-5.62
667.175	13.38
667.207	5.38
667.238	8.38
667.27	-9.62
667.302	-1.62
667.334	-1.62
667.365	19.38
667.397	10.38
667.429	-9.62
667.46	15.38
667.492	3.38
667.524	5.38
667.555	-8.62
667.587	0.38
667.619	-2.62
667.65	-3.62
667.682	5.38
667.714	1.38
667.745	-5.62
667.777	1.38
667.808	1.38
667.84	6.38
667.872	1.38
667.903	21.38
667.935	-11.62
667.967	-8.62
667.998	-1.62
668.03	-8.62
668.061	9.38
668.093	-8.62
668.125	7.38
668.156	4.38
668.188	4.38
668.22	10.38
668.251	0.38
668.283	-0.62
668.314	9.38
668.346	-5.62
668.377	-3.62
668.409	-5.62
668.441	-2.62
668.472	17.38
668.504	-0.62
668.535	-1.62
668.567	15.38
668.599	2.38
668.63	3.38
668.662	1.38
668.693	9.38
668.725	17.38
668.756	8.38
668.788	5.38
668.819	7.38
668.851	-2.62
668.882	-1.62
668.914	2.38
668.946	4.38
668.977	-3.62
669.009	-5.62
669.04	-1.62
669.072	3.38
669.103	2.38
669.135	9.38
669.166	2.38
669.198	-3.62
669.229	-1.62
669.261	-0.62
669.292	8.38
669.324	11.38
669.355	17.38
669.387	-7.62
669.418	-2.62
669.45	-8.62
669.481	14.38
669.513	9.38
669.544	18.38
669.576	-8.62
669.607	-1.62
669.639	18.38
669.67	-3.62
669.701	11.38
669.733	-14.62
669.764	-5.62
669.796	5.38
669.827	-10.62
669.859	-2.62
669.89	7.38
669.922	8.38
669.953	-3.62
669.985	-2.62
670.016	12.38
670.047	-2.62
670.079	-7.62
670.11	13.38
670.142	1.38
670.173	8.38
670.204	-7.62
670.236	18.38
670.267	2.38
670.299	-2.62
670.33	-6.62
670.362	-1.62
670.393	-24.62
670.424	11.38
670.456	-6.62
670.487	-10.62
670.518	9.38
670.55	-7.62
670.581	0.38
670.613	11.38
670.644	3.38
670.675	0.38
670.707	-2.62
670.738	9.38
670.769	10.38
670.801	-1.62
670.832	5.38
670.864	-4.62
670.895	13.38
670.926	-8.62
670.958	-3.62
670.989	-10.62
671.02	7.38
671.052	1.38
671.083	2.38
671.114	-12.62
671.146	20.38
671.177	-4.62
671.208	2.38
671.24	-12.62
671.271	4.38
671.302	12.38
671.333	-4.62
671.365	-7.62
671.396	-5.62
671.427	-6.62
671.459	4.38
671.49	6.38
671.521	9.38
671.553	3.38
671.584	4.38
671.615	4.38
671.646	3.38
671.678	24.38
671.709	6.38
671.74	-16.62
671.771	-2.62
671.803	-4.62
671.834	5.38
671.865	2.38
671.896	7.38
671.928	12.38
671.959	-6.62
671.99	4.38
672.021	-7.62
672.053	-4.62
672.084	6.38
672.115	-1.62
672.146	5.38
672.178	-20.62
672.209	-14.62
672.24	1.38
672.271	9.38
672.303	-1.62
672.334	-3.62
672.365	-7.62
672.396	-13.62
672.427	1.38
672.459	4.38
672.49	23.38
672.521	6.38
672.552	8.38
672.583	6.38
672.615	-6.62
672.646	22.38
672.677	12.38
672.708	-9.62
672.739	3.38
672.77	9.38
672.802	1.38
672.833	1.38
672.864	3.38
672.895	7.38
672.926	-13.62
672.957	-13.62
672.989	5.38
673.02	3.38
673.051	4.38
673.082	1.38
673.113	-9.62
673.144	8.38
673.175	21.38
673.206	6.38
673.238	-4.62
673.269	2.38
673.3	-19.62
673.331	12.38
673.362	-3.62
673.393	10.38
673.424	9.38
673.455	24.38
673.487	7.38
673.518	16.38
673.549	4.38
673.58	-8.62
673.611	7.38
673.642	9.38
673.673	0.38
673.704	5.38
673.735	-3.62
673.766	-3.62
673.797	-3.62
673.828	5.38
673.86	-8.62
673.891	-4.62
673.922	-18.62
673.953	-4.62
673.984	11.38
674.015	6.38
674.046	11.38
674.077	0.38
674.108	1.38
674.139	3.38
674.17	-13.62
674.201	5.38
674.232	2.38
674.263	3.38
674.294	-5.62
674.325	-19.62
674.356	10.38
674.387	7.38
674.418	4.38
674.449	3.38
674.48	-9.62
674.511	-4.62
674.542	7.38
674.573	-7.62
674.604	13.38
674.635	-12.62
674.666	-5.62
674.697	2.38
674.728	9.38
674.759	11.38
674.79	-10.62
674.821	5.38
674.852	7.38
674.883	-6.62
674.914	5.38
674.945	-10.62
674.976	19.38
675.007	6.38
675.038	-2.62
675.069	0.38
675.1	6.38
675.131	-5.62
675.162	-14.62
675.193	-21.62
675.224	-2.62
675.254	12.38
675.285	10.38
675.316	21.38
675.347	3.38
675.378	-6.62
675.409	-6.62
675.44	2.38
675.471	-2.62
675.502	1.38
675.533	0.38
675.564	8.38
675.595	-5.62
675.625	13.38
675.656	-1.62
675.687	4.38
675.718	-10.62
675.749	2.38
675.78	9.38
675.811	-6.62
675.842	16.38
675.873	-0.62
675.903	-6.62
675.934	-6.62
675.965	-1.62
675.996	3.38
676.027	4.38
676.058	-3.62
676.089	-19.62
676.119	13.38
676.15	0.38
676.181	-2.62
676.212	4.38
676.243	3.38
676.274	3.38
676.304	12.38
676.335	-4.62
676.366	5.38
676.397	-9.62
676.428	-2.62
676.459	6.38
676.489	9.38
676.52	9.38
676.551	9.38
676.582	1.38
676.613	-5.62
676.643	-10.62
676.674	9.38
676.705	-10.62
676.736	1.38
676.767	25.38
676.797	13.38
676.828	11.38
676.859	6.38
676.89	3.38
676.92	14.38
676.951	23.38
676.982	16.38
677.013	8.38
677.044	19.38
677.074	2.38
677.105	-6.62
677.136	8.38
677.167	2.38
677.197	5.38
677.228	2.38
677.259	-21.62
677.289	-19.62
677.32	-35.62
677.351	-12.62
677.382	-4.62
677.412	-7.62
677.443	15.38
677.474	-4.62
677.505	-5.62
677.535	10.38
677.566	13.38
677.597	-7.62
677.627	-27.62
677.658	-11.62
677.689	5.38
677.72	4.38
677.75	-2.62
677.781	-12.62
677.812	17.38
677.842	15.38
677.873	2.38
677.904	-15.62
677.934	-9.62
677.965	-8.62
677.996	-9.62
678.026	9.38
678.057	-2.62
678.088	-7.62
678.118	-1.62
678.149	-2.62
678.18	0.38
678.21	8.38
678.241	6.38
678.272	2.38
678.302	16.38
678.333	11.38
678.363	4.38
678.394	6.38
678.425	4.38
678.455	8.38
678.486	19.38
678.517	-7.62
678.547	5.38
678.578	2.38
678.608	-14.62
678.639	16.38
678.67	13.38
678.7	2.38
678.731	-3.62
678.761	-7.62
678.792	12.38
678.823	10.38
678.853	7.38
678.884	-4.62
678.914	4.38
678.945	0.38
678.975	10.38
679.006	7.38
679.037	-11.62
679.067	13.38
679.098	11.38
679.128	-18.62
679.159	-3.62
679.189	11.38
679.22	-5.62
679.25	0.38
679.281	-9.62
679.312	12.38
679.342	4.38
679.373	15.38
679.403	4.38
679.434	20.38
679.464	0.38
679.495	3.38
679.525	11.38
679.556	-8.62
679.586	-0.62
679.617	18.38
679.647	15.38
679.678	1.38
679.708	-2.62
679.739	-7.62
679.769	1.38
679.8	-17.62
679.83	-2.62
679.861	6.38
679.891	-15.62
679.922	-26.62
679.952	-1.62
679.983	2.38
680.013	5.38
680.044	-8.62
680.074	10.38
680.105	26.38
680.135	8.38
680.165	17.38
680.196	2.38
680.226	7.38
680.257	13.38
680.287	4.38
680.318	-2.62
680.348	-0.62
680.379	1.38
680.409	5.38
680.439	2.38
680.47	-7.62
680.5	-2.62
680.531	10.38
680.561	13.38
680.592	13.38
680.622	12.38
680.652	-0.62
680.683	10.38
680.713	0.38
680.744	2.38
680.774	-10.62
680.804	21.38
680.835	-8.62
680.865	-11.62
680.896	8.38
680.926	3.38
680.956	0.38
680.987	-7.62
681.017	4.38
681.047	13.38
681.078	-8.62
681.108	-6.62
681.139	-3.62
681.169	6.38
681.199	12.38
681.23	4.38
681.26	-1.62
681.29	5.38
681.321	-17.62
681.351	16.38
681.381	-1.62
681.412	6.38
681.442	-12.62
681.472	15.38
681.503	5.38
681.533	2.38
681.563	1.38
681.594	-2.62
681.624	3.38
681.654	12.38
681.685	3.38
681.715	4.38
681.745	5.38
681.775	-8.62
681.806	9.38
681.836	1.38
681.866	-10.62
681.897	-5.62
681.927	-2.62
681.957	-4.62
681.987	-5.62
682.018	6.38
682.048	11.38
682.078	-0.62
682.109	28.38
682.139	4.38
682.169	8.38
682.199	-0.62
682.23	-10.62
682.26	11.38
682.29	-12.62
682.32	-6.62
682.351	2.38
682.381	-3.62
682.411	-10.62
682.441	-14.62
682.472	-8.62
682.502	5.38
682.532	-12.62
682.562	12.38
682.592	1.38
682.623	8.38
682.653	-0.62
682.683	-9.62
682.713	28.38
682.743	3.38
682.774	6.38
682.804	7.38
682.834	11.38
682.864	8.38
682.894	6.38
682.925	0.38
682.955	-2.62
682.985	-13.62
683.015	-1.62
683.045	11.38
683.076	-7.62
683.106	1.38
683.136	4.38
683.166	4.38
683.196	-8.62
683.226	-4.62
683.257	3.38
683.287	4.38
683.317	-18.62
683.347	-10.62
683.377	8.38
683.407	4.38
683.437	1.38
683.468	-0.62
683.498	-4.62
683.528	-3.62
683.558	4.38
683.588	-1.62
683.618	-8.62
683.648	-4.62
683.678	9.38
683.708	8.38
683.739	-1.62
683.769	6.38
683.799	5.38
683.829	11.38
683.859	1.38
683.889	14.38
683.919	7.38
683.949	2.38
683.979	-7.62
684.009	-2.62
684.039	12.38
684.07	1.38
684.1	24.38
684.13	3.38
684.16	2.38
684.19	-1.62
684.22	8.38
684.25	6.38
684.28	-0.62
684.31	13.38
684.34	10.38
684.37	10.38
684.4	7.38
684.43	2.38
684.46	4.38
684.49	3.38
684.52	3.38
684.55	10.38
684.58	5.38
684.61	14.38
684.64	8.38
684.67	-1.62
684.7	10.38
684.73	-6.62
684.76	-4.62
684.79	13.38
684.82	-5.62
684.85	-4.62
684.88	10.38
684.91	5.38
684.94	3.38
684.97	-2.62
685	1.38
685.03	-6.62
685.06	-11.62
685.09	6.38
685.12	17.38
685.15	13.38
685.18	5.38
685.21	30.38
685.24	15.38
685.27	10.38
685.3	-13.62
685.33	12.38
685.36	-2.62
685.39	0.38
685.42	-13.62
685.45	3.38
685.48	-2.62
685.51	-9.62
685.54	12.38
685.569	7.38
685.599	8.38
685.629	2.38
685.659	3.38
685.689	-7.62
685.719	14.38
685.749	2.38
685.779	14.38
685.809	12.38
685.839	4.38
685.869	-1.62
685.898	13.38
685.928	0.38
685.958	-3.62
685.988	11.38
686.018	10.38
686.048	14.38
686.078	18.38
686.108	16.38
686.137	-0.62
686.167	14.38
686.197	-5.62
686.227	-7.62
686.257	8.38
686.287	11.38
686.317	-1.62
686.346	-0.62
686.376	-1.62
686.406	-1.62
686.436	-2.62
686.466	4.38
686.496	17.38
686.525	7.38
686.555	19.38
686.585	20.38
686.615	28.38
686.645	13.38
686.675	-5.62
686.704	1.38
686.734	3.38
686.764	-2.62
686.794	3.38
686.824	16.38
686.853	27.38
686.883	10.38
686.913	4.38
686.943	2.38
686.973	-1.62
687.002	7.38
687.032	10.38
687.062	11.38
687.092	21.38
687.121	12.38
687.151	-9.62
687.181	3.38
687.211	22.38
687.24	2.38
687.27	6.38
687.3	5.38
687.33	14.38
687.359	-12.62
687.389	10.38
687.419	-6.62
687.449	-7.62
687.478	6.38
687.508	11.38
687.538	5.38
687.568	-5.62
687.597	-6.62
687.627	-3.62
687.657	14.38
687.686	1.38
687.716	39.38
687.746	-2.62
687.776	5.38
687.805	3.38
687.835	3.38
687.865	18.38
687.894	7.38
687.924	-5.62
687.954	5.38
687.983	-12.62
688.013	9.38
688.043	11.38
688.072	12.38
688.102	33.38
688.132	12.38
688.161	16.38
688.191	12.38
688.221	29.38
688.25	11.38
688.28	15.38
688.31	5.38
688.339	1.38
688.369	0.38
688.399	-10.62
688.428	3.38
688.458	1.38
688.488	-15.62
688.517	8.38
688.547	-9.62
688.576	28.38
688.606	10.38
688.636	-2.62
688.665	3.38
688.695	7.38
688.725	19.38
688.754	14.38
688.784	-0.62
688.813	13.38
688.843	4.38
688.873	15.38
688.902	10.38
688.932	4.38
688.961	7.38
688.991	17.38
689.02	18.38
689.05	-0.62
689.08	12.38
689.109	8.38
689.139	4.38
689.168	5.38
689.198	6.38
689.227	-5.62
689.257	4.38
689.287	3.38
689.316	-3.62
689.346	8.38
689.375	-8.62
689.405	24.38
689.434	1.38
689.464	15.38
689.493	18.38
689.523	8.38
689.552	5.38
689.582	5.38
689.611	-7.62
689.641	-7.62
689.67	3.38
689.7	8.38
689.73	6.38
689.759	-3.62
689.789	9.38
689.818	-3.62
689.848	4.38
689.877	33.38
689.906	8.38
689.936	-5.62
689.965	-2.62
689.995	18.38
690.024	21.38
690.054	-2.62
690.083	-2.62
690.113	1.38
690.142	-6.62
690.172	7.38
690.201	-3.62
690.231	4.38
690.26	13.38
690.29	8.38
690.319	21.38
690.348	2.38
690.378	5.38
690.407	3.38
690.437	5.38
690.466	10.38
690.496	6.38
690.525	5.38
690.555	15.38
690.584	4.38
690.613	10.38
690.643	3.38
690.672	1.38
690.702	-1.62
690.731	-2.62
690.76	1.38
690.79	2.38
690.819	3.38
690.849	15.38
690.878	-2.62
690.907	-11.62
690.937	4.38
690.966	4.38
690.996	3.38
691.025	5.38
691.054	1.38
691.084	14.38
691.113	11.38
691.142	2.38
691.172	14.38
691.201	7.38
691.23	-3.62
691.26	18.38
691.289	-2.62
691.319	0.38
691.348	-5.62
691.377	17.38
691.407	5.38
691.436	14.38
691.465	-5.62
691.495	1.38
691.524	0.38
691.553	5.38
691.583	-2.62
691.612	6.38
691.641	-0.62
691.67	9.38
691.7	8.38
691.729	1.38
691.758	13.38
691.788	4.38
691.817	1.38
691.846	3.38
691.876	11.38
691.905	-12.62
691.934	-4.62
691.963	14.38
691.993	4.38
692.022	-4.62
692.051	-7.62
692.081	17.38
692.11	20.38
692.139	3.38
692.168	7.38
692.198	4.38
692.227	-5.62
692.256	-2.62
692.285	-3.62
692.315	-5.62
692.344	-1.62
692.373	-5.62
692.402	-24.62
692.432	-1.62
692.461	-14.62
692.49	18.38
692.519	1.38
692.548	5.38
692.578	20.38
692.607	-0.62
692.636	-14.62
692.665	2.38
692.694	3.38
692.724	-10.62
692.753	17.38
692.782	20.38
692.811	1.38
692.84	6.38
692.87	21.38
692.899	6.38
692.928	-5.62
692.957	9.38
692.986	1.38
693.016	2.38
693.045	4.38
693.074	1.38
693.103	-2.62
693.132	4.38
693.161	-0.62
693.191	-4.62
693.22	-9.62
693.249	7.38
693.278	5.38
693.307	3.38
693.336	-11.62
693.365	-9.62
693.395	5.38
693.424	-0.62
693.453	5.38
693.482	-2.62
693.511	-6.62
693.54	-13.62
693.569	1.38
693.598	-2.62
693.628	20.38
693.657	28.38
693.686	12.38
693.715	6.38
693.744	4.38
693.773	21.38
693.802	14.38
693.831	4.38
693.86	16.38
693.889	1.38
693.919	6.38
693.948	4.38
693.977	17.38
694.006	12.38
694.035	-3.62
694.064	-1.62
694.093	-15.62
694.122	0.38
694.151	11.38
694.18	14.38
694.209	20.38
694.238	-0.62
694.267	11.38
694.296	18.38
694.325	10.38
694.354	5.38
694.383	12.38
694.412	-2.62
694.441	-2.62
694.471	-0.62
694.5	-8.62
694.529	12.38
694.558	32.38
694.587	17.38
694.616	13.38
694.645	25.38
694.674	22.38
694.703	8.38
694.732	2.38
694.761	8.38
694.79	21.38
694.819	-21.62
694.848	3.38
694.877	17.38
694.906	20.38
694.935	1.38
694.963	10.38
694.992	1.38
695.021	11.38
695.05	13.38
695.079	12.38
695.108	21.38
695.137	17.38
695.166	0.38
695.195	2.38
695.224	12.38
695.253	-2.62
695.282	13.38
695.311	10.38
695.34	6.38
695.369	4.38
695.398	8.38
695.427	13.38
695.456	11.38
695.485	9.38
695.513	12.38
695.542	4.38
695.571	10.38
695.6	30.38
695.629	10.38
695.658	3.38
695.687	14.38
695.716	-10.62
695.745	6.38
695.774	-6.62
695.802	-12.62
695.831	-3.62
695.86	9.38
695.889	5.38
695.918	-1.62
695.947	-8.62
695.976	1.38
696.005	-3.62
696.033	5.38
696.062	32.38
696.091	15.38
696.12	10.38
696.149	21.38
696.178	4.38
696.207	8.38
696.235	2.38
696.264	6.38
696.293	4.38
696.322	7.38
696.351	12.38
696.38	-9.62
696.408	3.38
696.437	-2.62
696.466	9.38
696.495	26.38
696.524	1.38
696.553	5.38
696.581	30.38
696.61	17.38
696.639	5.38
696.668	4.38
696.697	-1.62
696.725	8.38
696.754	12.38
696.783	-1.62
696.812	-5.62
696.84	1.38
696.869	4.38
696.898	6.38
696.927	-2.62
696.956	0.38
696.984	-10.62
697.013	6.38
697.042	9.38
697.071	18.38
697.099	22.38
697.128	2.38
697.157	-6.62
697.186	-22.62
697.214	0.38
697.243	0.38
697.272	1.38
697.301	14.38
697.329	16.38
697.358	5.38
697.387	17.38
697.415	13.38
697.444	11.38
697.473	11.38
697.502	-9.62
697.53	4.38
697.559	9.38
697.588	6.38
697.616	12.38
697.645	13.38
697.674	4.38
697.703	5.38
697.731	8.38
697.76	17.38
697.789	7.38
697.817	0.38
697.846	17.38
697.875	12.38
697.903	19.38
697.932	9.38
697.961	10.38
697.989	18.38
698.018	4.38
698.047	19.38
698.075	16.38
698.104	-8.62
698.133	-1.62
698.161	-16.62
698.19	-10.62
698.218	-4.62
698.247	1.38
698.276	1.38
698.304	21.38
698.333	9.38
698.362	15.38
698.39	-4.62
698.419	2.38
698.447	7.38
698.476	14.38
698.505	19.38
698.533	4.38
698.562	-2.62
698.591	-1.62
698.619	-1.62
698.648	16.38
698.676	0.38
698.705	-4.62
698.733	-9.62
698.762	7.38
698.791	-3.62
698.819	3.38
698.848	-13.62
698.876	1.38
698.905	4.38
698.933	7.38
698.962	1.38
698.991	-9.62
699.019	23.38
699.048	13.38
699.076	4.38
699.105	-6.62
699.133	-6.62
699.162	14.38
699.19	22.38
699.219	18.38
699.248	0.38
699.276	7.38
699.305	6.38
699.333	27.38
699.362	2.38
699.39	9.38
699.419	-1.62
699.447	5.38
699.476	13.38
699.504	0.38
699.533	-1.62
699.561	-16.62
699.59	1.38
699.618	-6.62
699.647	6.38
699.675	18.38
699.704	20.38
699.732	0.38
699.761	3.38
699.789	-9.62
699.818	0.38
699.846	-2.62
699.874	-5.62
699.903	14.38
699.931	7.38
699.96	3.38
699.988	0.38
700.017	0.38
700.045	-10.62
700.074	-3.62
700.102	-5.62
700.13	-25.62
700.159	9.38
700.187	20.38
700.216	2.38
700.244	3.38
700.273	11.38
700.301	13.38
700.329	25.38
700.358	9.38
700.386	0.38
700.415	8.38
700.443	1.38
700.472	2.38
700.5	1.38
700.528	15.38
700.557	3.38
700.585	5.38
700.614	6.38
700.642	8.38
700.67	22.38
700.699	11.38
700.727	5.38
700.755	-2.62
700.784	10.38
700.812	-1.62
700.841	21.38
700.869	2.38
700.897	-14.62
700.926	0.38
700.954	13.38
700.982	21.38
701.011	3.38
701.039	7.38
701.067	-4.62
701.096	11.38
701.124	0.38
701.152	-1.62
701.181	-5.62
701.209	-20.62
701.237	9.38
701.266	9.38
701.294	10.38
701.322	4.38
701.351	1.38
701.379	-0.62
701.407	-9.62
701.435	29.38
701.464	15.38
701.492	13.38
701.52	2.38
701.549	11.38
701.577	-2.62
701.605	-6.62
701.634	-4.62
701.662	-2.62
701.69	-5.62
701.718	-0.62
701.747	1.38
701.775	-7.62
701.803	-10.62
701.831	12.38
701.86	3.38
701.888	7.38
701.916	-0.62
701.944	0.38
701.973	-2.62
702.001	-3.62
702.029	3.38
702.057	3.38
702.086	-7.62
702.114	-6.62
702.142	12.38
702.17	3.38
702.199	-8.62
702.227	14.38
702.255	0.38
702.283	-5.62
702.311	0.38
702.34	0.38
702.368	-4.62
702.396	-6.62
702.424	5.38
702.452	-0.62
702.481	2.38
702.509	-5.62
702.537	18.38
702.565	19.38
702.593	-5.62
702.621	2.38
702.65	14.38
702.678	0.38
702.706	18.38
702.734	-9.62
702.762	0.38
702.79	-0.62
702.819	12.38
702.847	6.38
702.875	14.38
702.903	0.38
702.931	-2.62
702.959	0.38
702.988	1.38
703.016	-2.62
703.044	-4.62
703.072	5.38
703.1	2.38
703.128	10.38
703.156	1.38
703.184	-17.62
703.212	7.38
703.241	-1.62
703.269	3.38
703.297	4.38
703.325	2.38
703.353	-1.62
703.381	0.38
703.409	15.38
703.437	-4.62
703.465	-0.62
703.493	1.38
703.522	6.38
703.55	6.38
703.578	9.38
703.606	3.38
703.634	12.38
703.662	-3.62
703.69	-0.62
703.718	6.38
703.746	12.38
703.774	0.38
703.802	16.38
703.83	-7.62
703.858	-3.62
703.886	-8.62
703.914	-1.62
703.942	-2.62
703.97	-11.62
703.998	-1.62
704.027	15.38
704.055	11.38
704.083	12.38
704.111	-4.62
704.139	0.38
704.167	-3.62
704.195	-2.62
704.223	5.38
704.251	-3.62
704.279	16.38
704.307	4.38
704.335	-6.62
704.363	3.38
704.391	-17.62
704.419	-13.62
704.447	-9.62
704.475	10.38
704.503	-1.62
704.531	7.38
704.558	-2.62
704.586	5.38
704.614	0.38
704.642	-4.62
704.67	-15.62
704.698	-1.62
704.726	-2.62
704.754	-10.62
704.782	-1.62
704.81	4.38
704.838	18.38
704.866	20.38
704.894	-1.62
704.922	4.38
704.95	14.38
704.978	15.38
705.006	0.38
705.034	19.38
705.061	-10.62
705.089	6.38
705.117	-6.62
705.145	1.38
705.173	-4.62
705.201	0.38
705.229	-3.62
705.257	6.38
705.285	5.38
705.313	16.38
705.34	7.38
705.368	8.38
705.396	15.38
705.424	15.38
705.452	6.38
705.48	6.38
705.508	-15.62
705.536	6.38
705.563	1.38
705.591	-3.62
705.619	8.38
705.647	-13.62
705.675	3.38
705.703	4.38
705.731	7.38
705.758	21.38
705.786	1.38
705.814	12.38
705.842	17.38
705.87	1.38
705.898	7.38
705.925	7.38
705.953	-3.62
705.981	-0.62
706.009	6.38
706.037	0.38
706.065	-3.62
706.092	-1.62
706.12	2.38
706.148	-12.62
706.176	7.38
706.204	11.38
706.231	-1.62
706.259	2.38
706.287	-4.62
706.315	1.38
706.342	0.38
706.37	5.38
706.398	2.38
706.426	11.38
706.454	0.38
706.481	18.38
706.509	7.38
706.537	-2.62
706.565	4.38
706.592	3.38
706.62	4.38
706.648	5.38
706.676	-9.62
706.703	2.38
706.731	7.38
706.759	-12.62
706.787	-1.62
706.814	10.38
706.842	-2.62
706.87	-10.62
706.897	3.38
706.925	-10.62
706.953	13.38
706.981	26.38
707.008	12.38
707.036	1.38
707.064	-6.62
707.091	-13.62
707.119	8.38
707.147	3.38
707.174	-8.62
707.202	4.38
707.23	-2.62
707.258	-3.62
707.285	-1.62
707.313	-0.62
707.341	0.38
707.368	-5.62
707.396	-0.62
707.424	23.38
707.451	2.38
707.479	-5.62
707.507	6.38
707.534	-15.62
707.562	4.38
707.59	1.38
707.617	-4.62
707.645	9.38
707.672	7.38
707.7	-0.62
707.728	22.38
707.755	1.38
707.783	-0.62
707.811	7.38
707.838	3.38
707.866	6.38
707.893	10.38
707.921	-9.62
707.949	-7.62
707.976	0.38
708.004	0.38
708.031	7.38
708.059	-0.62
708.087	-1.62
708.114	-3.62
708.142	-20.62
708.169	-14.62
708.197	-8.62
708.225	0.38
708.252	-12.62
708.28	6.38
708.307	-5.62
708.335	2.38
708.362	-10.62
708.39	-5.62
708.418	-4.62
708.445	1.38
708.473	0.38
708.5	-4.62
708.528	10.38
708.555	-2.62
708.583	-10.62
708.61	11.38
708.638	6.38
708.665	4.38
708.693	-11.62
708.72	-6.62
708.748	8.38
708.776	-21.62
708.803	9.38
708.831	-1.62
708.858	5.38
708.886	4.38
708.913	7.38
708.941	8.38
708.968	16.38
708.996	3.38
709.023	18.38
709.051	-5.62
709.078	-4.62
709.105	-6.62
709.133	-9.62
709.16	11.38
709.188	8.38
709.215	0.38
709.243	5.38
709.27	-3.62
709.298	-8.62
709.325	-21.62
709.353	-0.62
709.38	18.38
709.408	16.38
709.435	5.38
709.462	-2.62
709.49	0.38
709.517	-4.62
709.545	-5.62
709.572	-0.62
709.6	-1.62
709.627	2.38
709.655	5.38
709.682	5.38
709.709	-5.62
709.737	1.38
709.764	0.38
709.792	8.38
709.819	10.38
709.846	-6.62
709.874	2.38
709.901	6.38
709.929	23.38
709.956	12.38
709.983	-0.62
710.011	-6.62
710.038	10.38
710.066	4.38
710.093	14.38
710.12	5.38
710.148	0.38
710.175	3.38
710.202	-11.62
710.23	-2.62
710.257	-7.62
710.284	17.38
710.312	12.38
710.339	0.38
710.366	2.38
710.394	3.38
710.421	5.38
710.448	-1.62
710.476	-13.62
710.503	2.38
710.53	13.38
710.558	14.38
710.585	2.38
710.612	1.38
710.64	-5.62
710.667	4.38
710.694	5.38
710.722	-9.62
710.749	2.38
710.776	11.38
710.804	14.38
710.831	3.38
710.858	15.38
710.885	8.38
710.913	-12.62
710.94	15.38
710.967	7.38
710.995	14.38
711.022	2.38
711.049	4.38
711.076	5.38
711.104	3.38
711.131	-5.62
711.158	2.38
711.185	13.38
711.213	-3.62
711.24	1.38
711.267	-12.62
711.294	-2.62
711.322	18.38
711.349	-3.62
711.376	2.38
711.403	0.38
711.431	1.38
711.458	-0.62
711.485	-0.62
711.512	-1.62
711.54	4.38
711.567	-6.62
711.594	0.38
711.621	1.38
711.648	24.38
711.676	-6.62
711.703	-2.62
711.73	-5.62
711.757	5.38
711.784	4.38
711.812	2.38
711.839	4.38
711.866	-12.62
711.893	-22.62
711.92	0.38
711.947	1.38
711.975	0.38
712.002	-4.62
712.029	5.38
712.056	7.38
712.083	10.38
712.11	-1.62
712.138	15.38
712.165	4.38
712.192	1.38
712.219	1.38
712.246	-2.62
712.273	0.38
712.3	-13.62
712.328	1.38
712.355	-11.62
712.382	-17.62
712.409	19.38
712.436	-3.62
712.463	7.38
712.49	6.38
712.517	10.38
712.544	5.38
712.572	12.38
712.599	-10.62
712.626	21.38
712.653	-1.62
712.68	-9.62
712.707	6.38
712.734	-4.62
712.761	9.38
712.788	5.38
712.815	4.38
712.842	1.38
712.87	1.38
712.897	12.38
712.924	5.38
712.951	6.38
712.978	1.38
713.005	14.38
713.032	1.38
713.059	-3.62
713.086	0.38
713.113	-2.62
713.14	-5.62
713.167	16.38
713.194	4.38
713.221	-11.62
713.248	9.38
713.275	7.38
713.302	-14.62
713.329	-1.62
713.356	18.38
713.383	-6.62
713.41	9.38
713.437	-8.62
713.464	-4.62
713.491	3.38
713.518	1.38
713.545	-4.62
713.572	-12.62
713.599	16.38
713.626	11.38
713.653	13.38
713.68	-12.62
713.707	-2.62
713.734	4.38
713.761	-4.62
713.788	-6.62
713.815	6.38
713.842	1.38
713.869	-2.62
713.896	2.38
713.923	-6.62
713.95	-6.62
713.977	0.38
714.004	3.38
714.031	-1.62
714.058	0.38
714.085	3.38
714.112	18.38
714.139	-1.62
714.165	10.38
714.192	-0.62
714.219	10.38
714.246	10.38
714.273	8.38
714.3	-5.62
714.327	-1.62
714.354	5.38
714.381	0.38
714.408	-7.62
714.435	-1.62
714.461	7.38
714.488	29.38
714.515	2.38
714.542	0.38
714.569	6.38
714.596	-6.62
714.623	2.38
714.65	-4.62
714.677	-3.62
714.703	3.38
714.73	-2.62
714.757	-5.62
714.784	4.38
714.811	0.38
714.838	-11.62
714.865	2.38
714.891	7.38
714.918	8.38
714.945	-5.62
714.972	-7.62
714.999	8.38
715.026	-13.62
715.052	6.38
715.079	0.38
715.106	6.38
715.133	18.38
715.16	2.38
715.187	2.38
715.213	-4.62
715.24	-12.62
715.267	0.38
715.294	1.38
715.321	2.38
715.347	4.38
715.374	-1.62
715.401	0.38
715.428	-4.62
715.455	-14.62
715.481	-2.62
715.508	23.38
715.535	-2.62
715.562	25.38
715.588	10.38
715.615	9.38
715.642	7.38
715.669	14.38
715.695	-6.62
715.722	14.38
715.749	17.38
715.776	26.38
715.802	-2.62
715.829	12.38
715.856	-14.62
715.883	16.38
715.909	-6.62
715.936	-9.62
715.963	0.38
715.99	-8.62
716.016	-2.62
716.043	-11.62
716.07	-11.62
716.096	-2.62
716.123	-3.62
716.15	14.38
716.177	15.38
716.203	10.38
716.23	2.38
716.257	12.38
716.283	1.38
716.31	1.38
716.337	8.38
716.363	5.38
716.39	7.38
716.417	1.38
716.443	-0.62
716.47	17.38
716.497	10.38
716.523	13.38
716.55	11.38
716.577	9.38
716.603	-10.62
716.63	11.38
716.657	4.38
716.683	-12.62
716.71	-4.62
716.737	-9.62
716.763	6.38
716.79	2.38
716.817	1.38
716.843	4.38
716.87	-3.62
716.897	11.38
716.923	22.38
716.95	5.38
716.976	1.38
717.003	12.38
717.03	3.38
717.056	6.38
717.083	-3.62
717.109	-2.62
717.136	5.38
717.163	-7.62
717.189	18.38
717.216	8.38
717.242	9.38
717.269	12.38
717.296	3.38
717.322	17.38
717.349	15.38
717.375	8.38
717.402	-2.62
717.428	-8.62
717.455	-1.62
717.481	-5.62
717.508	13.38
717.535	3.38
717.561	-2.62
717.588	-2.62
717.614	0.38
717.641	-14.62
717.667	1.38
717.694	12.38
717.72	11.38
717.747	-7.62
717.773	-2.62
717.8	-6.62
717.826	6.38
717.853	-12.62
717.88	2.38
717.906	20.38
717.933	2.38
717.959	6.38
717.986	16.38
718.012	11.38
718.039	5.38
718.065	13.38
718.092	10.38
718.118	-12.62
718.144	-6.62
718.171	4.38
718.197	10.38
718.224	6.38
718.25	2.38
718.277	-5.62
718.303	10.38
718.33	8.38
718.356	-5.62
718.383	-10.62
718.409	-16.62
718.436	-2.62
718.462	12.38
718.489	-6.62
718.515	18.38
718.541	10.38
718.568	-4.62
718.594	-3.62
718.621	-7.62
718.647	0.38
718.674	12.38
718.7	4.38
718.726	4.38
718.753	-5.62
718.779	0.38
718.806	-2.62
718.832	-3.62
718.858	4.38
718.885	-14.62
718.911	6.38
718.938	12.38
718.964	-5.62
718.99	10.38
719.017	-1.62
719.043	9.38
719.07	13.38
719.096	-4.62
719.122	13.38
719.149	8.38
719.175	17.38
719.201	14.38
719.228	21.38
719.254	6.38
719.281	6.38
719.307	17.38
719.333	10.38
719.36	15.38
719.386	0.38
719.412	-6.62
719.439	-13.62
719.465	3.38
719.491	-0.62
719.518	18.38
719.544	12.38
719.57	16.38
719.597	1.38
719.623	-1.62
719.649	14.38
719.675	17.38
719.702	5.38
719.728	22.38
719.754	-3.62
719.781	-3.62
719.807	0.38
719.833	-6.62
719.86	3.38
719.886	11.38
719.912	8.38
719.938	-3.62
719.965	2.38
719.991	6.38
720.017	3.38
720.044	1.38
720.07	16.38
720.096	3.38
720.122	6.38
720.149	7.38
720.175	13.38
720.201	5.38
720.227	8.38
720.254	2.38
720.28	-4.62
720.306	-9.62
720.332	5.38
720.359	1.38
720.385	-4.62
720.411	0.38
720.437	4.38
720.463	11.38
720.49	4.38
720.516	-17.62
720.542	-5.62
720.568	-3.62
720.595	15.38
720.621	7.38
720.647	2.38
720.673	9.38
720.699	-4.62
720.725	4.38
720.752	10.38
720.778	1.38
720.804	5.38
720.83	8.38
720.856	-0.62
720.883	-6.62
720.909	8.38
720.935	0.38
720.961	11.38
720.987	6.38
721.013	32.38
721.04	4.38
721.066	-18.62
721.092	-10.62
721.118	17.38
721.144	-1.62
721.17	-15.62
721.196	-4.62
721.223	2.38
721.249	1.38
721.275	14.38
721.301	29.38
721.327	17.38
721.353	18.38
721.379	-5.62
721.405	5.38
721.432	11.38
721.458	5.38
721.484	6.38
721.51	-11.62
721.536	3.38
721.562	4.38
721.588	6.38
721.614	-5.62
721.64	-10.62
721.666	0.38
721.693	4.38
721.719	-7.62
721.745	-6.62
721.771	-1.62
721.797	-6.62
721.823	9.38
721.849	13.38
721.875	4.38
721.901	-1.62
721.927	-0.62
721.953	-3.62
721.979	12.38
722.005	6.38
722.031	-4.62
722.057	18.38
722.083	-1.62
722.109	13.38
722.135	3.38
722.161	6.38
722.187	6.38
722.214	3.38
722.24	9.38
722.266	-7.62
722.292	8.38
722.318	15.38
722.344	5.38
722.37	8.38
722.396	0.38
722.422	2.38
722.448	-5.62
722.474	-14.62
722.5	0.38
722.526	-2.62
722.552	2.38
722.578	3.38
722.603	13.38
722.629	-10.62
722.655	-0.62
722.681	-2.62
722.707	3.38
722.733	1.38
722.759	0.38
722.785	17.38
722.811	4.38
722.837	4.38
722.863	3.38
722.889	9.38
722.915	12.38
722.941	2.38
722.967	5.38
722.993	8.38
723.019	5.38
723.045	8.38
723.071	0.38
723.097	7.38
723.122	-2.62
723.148	-3.62
723.174	4.38
723.2	7.38
723.226	-5.62
723.252	5.38
723.278	-12.62
723.304	-11.62
723.33	12.38
723.356	-4.62
723.381	-4.62
723.407	-19.62
723.433	5.38
723.459	1.38
723.485	-5.62
723.511	8.38
723.537	-5.62
723.563	-6.62
723.588	6.38
723.614	17.38
723.64	3.38
723.666	-9.62
723.692	12.38
723.718	-0.62
723.744	10.38
723.769	-1.62
723.795	-9.62
723.821	7.38
723.847	-1.62
723.873	13.38
723.899	-4.62
723.924	-20.62
723.95	-1.62
723.976	-2.62
724.002	9.38
724.028	10.38
724.053	-1.62
724.079	-14.62
724.105	-7.62
724.131	-1.62
724.157	-8.62
724.182	16.38
724.208	-5.62
724.234	2.38
724.26	-6.62
724.286	4.38
724.311	11.38
724.337	-6.62
724.363	-7.62
724.389	11.38
724.415	-13.62
724.44	7.38
724.466	8.38
724.492	10.38
724.518	1.38
724.543	3.38
724.569	12.38
724.595	4.38
724.621	-2.62
724.646	-6.62
724.672	3.38
724.698	0.38
724.723	2.38
724.749	5.38
724.775	13.38
724.801	5.38
724.826	-5.62
724.852	0.38
724.878	-1.62
724.904	-15.62
724.929	4.38
724.955	-19.62
724.981	-2.62
725.006	2.38
725.032	-2.62
725.058	5.38
725.083	-1.62
725.109	3.38
725.135	5.38
725.161	7.38
725.186	16.38
725.212	5.38
725.238	5.38
725.263	8.38
725.289	-0.62
725.315	-7.62
725.34	-2.62
725.366	8.38
725.392	-2.62
725.417	8.38
725.443	0.38
725.468	13.38
725.494	10.38
725.52	23.38
725.545	2.38
725.571	3.38
725.597	5.38
725.622	0.38
725.648	-2.62
725.674	12.38
725.699	5.38
725.725	5.38
725.75	38.38
725.776	2.38
725.802	12.38
725.827	6.38
725.853	1.38
725.878	-4.62
725.904	-5.62
725.93	12.38
725.955	-17.62
725.981	-20.62
726.006	-8.62
726.032	14.38
726.057	-2.62
726.083	5.38
726.109	1.38
726.134	0.38
726.16	3.38
726.185	8.38
726.211	-18.62
726.236	4.38
726.262	-1.62
726.288	-2.62
726.313	19.38
726.339	13.38
726.364	2.38
726.39	13.38
726.415	6.38
726.441	-16.62
726.466	-12.62
726.492	8.38
726.517	12.38
726.543	10.38
726.568	9.38
726.594	2.38
726.619	-3.62
726.645	5.38
726.67	17.38
726.696	23.38
726.721	-8.62
726.747	-17.62
726.772	1.38
726.798	1.38
726.823	20.38
726.849	-2.62
726.874	8.38
726.9	16.38
726.925	15.38
726.951	1.38
726.976	13.38
727.002	-5.62
727.027	-5.62
727.053	4.38
727.078	3.38
727.104	5.38
727.129	-11.62
727.155	-12.62
727.18	9.38
727.205	-3.62
727.231	-5.62
727.256	-2.62
727.282	4.38
727.307	14.38
727.333	-11.62
727.358	-10.62
727.383	-18.62
727.409	-14.62
727.434	-7.62
727.46	1.38
727.485	8.38
727.511	0.38
727.536	-26.62
727.561	-9.62
727.587	-7.62
727.612	-8.62
727.637	-3.62
727.663	-4.62
727.688	18.38
727.714	-7.62
727.739	-15.62
727.764	0.38
727.79	-3.62
727.815	-3.62
727.841	6.38
727.866	10.38
727.891	16.38
727.917	-2.62
727.942	-3.62
727.967	-1.62
727.993	-7.62
728.018	-6.62
728.043	-7.62
728.069	17.38
728.094	21.38
728.119	-1.62
728.145	10.38
728.17	1.38
728.195	7.38
728.221	18.38
728.246	-4.62
728.271	-9.62
728.297	14.38
728.322	2.38
728.347	7.38
728.373	8.38
728.398	12.38
728.423	6.38
728.448	12.38
728.474	12.38
728.499	1.38
728.524	-12.62
728.55	-4.62
728.575	6.38
728.6	14.38
728.625	-0.62
728.651	10.38
728.676	-1.62
728.701	1.38
728.727	-1.62
728.752	7.38
728.777	-15.62
728.802	5.38
728.828	11.38
728.853	5.38
728.878	0.38
728.903	-6.62
728.929	-4.62
728.954	-1.62
728.979	2.38
729.004	-0.62
729.03	9.38
729.055	7.38
729.08	-19.62
729.105	-22.62
729.13	11.38
729.156	12.38
729.181	2.38
729.206	-14.62
729.231	-10.62
729.256	1.38
729.282	4.38
729.307	-11.62
729.332	-0.62
729.357	-3.62
729.382	0.38
729.408	4.38
729.433	-15.62
729.458	-2.62
729.483	12.38
729.508	1.38
729.533	0.38
729.559	8.38
729.584	-18.62
729.609	-2.62
729.634	7.38
729.659	-12.62
729.684	-9.62
729.71	18.38
729.735	0.38
729.76	5.38
729.785	-4.62
729.81	10.38
729.835	1.38
729.86	-5.62
729.886	17.38
729.911	7.38
729.936	0.38
729.961	-5.62
729.986	-15.62
730.011	-6.62
730.036	-3.62
730.061	-8.62
730.086	-3.62
730.112	-5.62
730.137	5.38
730.162	2.38
730.187	-10.62
730.212	12.38
730.237	-5.62
730.262	-3.62
730.287	-2.62
730.312	7.38
730.337	-3.62
730.362	9.38
730.387	9.38
730.413	-3.62
730.438	0.38
730.463	8.38
730.488	-1.62
730.513	7.38
730.538	-27.62
730.563	16.38
730.588	0.38
730.613	14.38
730.638	0.38
730.663	0.38
730.688	19.38
730.713	6.38
730.738	0.38
730.763	-19.62
730.788	-7.62
730.813	-12.62
730.838	-0.62
730.863	2.38
730.888	-7.62
730.913	1.38
730.938	-19.62
730.963	-15.62
730.988	-7.62
731.013	12.38
731.038	-2.62
731.063	-12.62
731.088	0.38
731.113	-10.62
731.138	-10.62
731.163	-17.62
731.188	-13.62
731.213	1.38
731.238	14.38
731.263	-0.62
731.288	5.38
731.313	22.38
731.338	11.38
731.363	-0.62
731.388	0.38
731.413	19.38
731.438	17.38
731.463	-0.62
731.487	1.38
731.512	1.38
731.537	-18.62
731.562	-7.62
731.587	8.38
731.612	3.38
731.637	-4.62
731.662	0.38
731.687	-4.62
731.712	-3.62
731.737	13.38
731.762	5.38
731.786	13.38
731.811	7.38
731.836	-6.62
731.861	-3.62
731.886	-11.62
731.911	1.38
731.936	-2.62
731.961	-6.62
731.986	-1.62
732.01	-2.62
732.035	7.38
732.06	15.38
732.085	2.38
732.11	9.38
732.135	-3.62
732.16	-0.62
732.184	8.38
732.209	7.38
732.234	4.38
732.259	-10.62
732.284	17.38
732.309	5.38
732.334	-1.62
732.358	-15.62
732.383	-18.62
732.408	-6.62
732.433	-5.62
732.458	-4.62
732.482	10.38
732.507	3.38
732.532	9.38
732.557	13.38
732.582	-7.62
732.607	0.38
732.631	-23.62
732.656	0.38
732.681	-5.62
732.706	-9.62
732.73	-3.62
732.755	-3.62
732.78	6.38
732.805	-2.62
732.83	-15.62
732.854	5.38
732.879	8.38
732.904	-5.62
732.929	-18.62
732.953	13.38
732.978	10.38
733.003	2.38
733.028	-16.62
733.052	3.38
733.077	1.38
733.102	4.38
733.127	-7.62
733.151	-5.62
733.176	13.38
733.201	0.38
733.226	0.38
733.25	-7.62
733.275	-13.62
733.3	-5.62
733.324	4.38
733.349	-4.62
733.374	2.38
733.399	0.38
733.423	4.38
733.448	-11.62
733.473	-17.62
733.497	-10.62
733.522	-11.62
733.547	-0.62
733.571	18.38
733.596	14.38
733.621	16.38
733.646	11.38
733.67	0.38
733.695	-6.62
733.72	12.38
733.744	23.38
733.769	0.38
733.794	15.38
733.818	13.38
733.843	8.38
733.867	-7.62
733.892	-1.62
733.917	-7.62
733.941	-6.62
733.966	-14.62
733.991	-6.62
734.015	5.38
734.04	-2.62
734.065	-4.62
734.089	13.38
734.114	0.38
734.138	10.38
734.163	-3.62
734.188	18.38
734.212	4.38
734.237	9.38
734.261	2.38
734.286	-6.62
734.311	-3.62
734.335	-7.62
734.36	-3.62
734.384	-5.62
734.409	0.38
734.434	-1.62
734.458	12.38
734.483	-0.62
734.507	-3.62
734.532	-9.62
734.556	11.38
734.581	1.38
734.606	-11.62
734.63	-10.62
734.655	12.38
734.679	19.38
734.704	-2.62
734.728	12.38
734.753	-3.62
734.777	-2.62
734.802	-6.62
734.826	5.38
734.851	2.38
734.876	23.38
734.9	-0.62
734.925	9.38
734.949	5.38
734.974	5.38
734.998	11.38
735.023	0.38
735.047	-2.62
735.072	12.38
735.096	-5.62
735.121	8.38
735.145	-4.62
735.17	-2.62
735.194	12.38
735.219	-1.62
735.243	0.38
735.268	3.38
735.292	6.38
735.317	4.38
735.341	-1.62
735.365	-14.62
735.39	-4.62
735.414	-2.62
735.439	1.38
735.463	10.38
735.488	-7.62
735.512	4.38
735.537	-7.62
735.561	16.38
735.586	8.38
735.61	8.38
735.634	-10.62
735.659	-12.62
735.683	23.38
735.708	-6.62
735.732	-11.62
735.757	-11.62
735.781	-6.62
735.805	-4.62
735.83	-26.62
735.854	-5.62
735.879	-4.62
735.903	-1.62
735.927	4.38
735.952	5.38
735.976	-5.62
736.001	1.38
736.025	6.38
736.049	-5.62
736.074	5.38
736.098	-5.62
736.123	5.38
736.147	10.38
736.171	10.38
736.196	10.38
736.22	-8.62
736.244	7.38
736.269	3.38
736.293	-2.62
736.317	-5.62
736.342	-3.62
736.366	36.38
736.39	22.38
736.415	27.38
736.439	9.38
736.463	10.38
736.488	-2.62
736.512	6.38
736.536	8.38
736.561	19.38
736.585	-2.62
736.609	14.38
736.634	-13.62
736.658	-3.62
736.682	-3.62
736.707	-6.62
736.731	-1.62
736.755	2.38
736.78	5.38
736.804	28.38
736.828	8.38
736.852	3.38
736.877	-1.62
736.901	0.38
736.925	-2.62
736.949	0.38
736.974	-20.62
736.998	-4.62
737.022	2.38
737.047	-3.62
737.071	-1.62
737.095	16.38
737.119	12.38
737.144	12.38
737.168	-0.62
737.192	-7.62
737.216	8.38
737.241	-13.62
737.265	4.38
737.289	17.38
737.313	-10.62
737.337	-6.62
737.362	0.38
737.386	-5.62
737.41	3.38
737.434	11.38
737.459	9.38
737.483	13.38
737.507	5.38
737.531	15.38
737.555	4.38
737.58	0.38
737.604	12.38
737.628	1.38
737.652	-1.62
737.676	0.38
737.701	7.38
737.725	12.38
737.749	-0.62
737.773	-10.62
737.797	1.38
737.821	9.38
737.846	1.38
737.87	23.38
737.894	9.38
737.918	6.38
737.942	-6.62
737.966	15.38
737.99	1.38
738.015	15.38
738.039	14.38
738.063	-9.62
738.087	14.38
738.111	-4.62
738.135	10.38
738.159	1.38
738.184	7.38
738.208	0.38
738.232	3.38
738.256	16.38
738.28	3.38
738.304	16.38
738.328	-3.62
738.352	-5.62
738.376	-3.62
738.4	10.38
738.425	20.38
738.449	-5.62
738.473	7.38
738.497	1.38
738.521	1.38
738.545	-4.62
738.569	-3.62
738.593	5.38
738.617	2.38
738.641	12.38
738.665	9.38
738.689	8.38
738.713	1.38
738.737	5.38
738.762	26.38
738.786	12.38
738.81	-1.62
738.834	4.38
738.858	-17.62
738.882	2.38
738.906	0.38
738.93	-2.62
738.954	7.38
738.978	0.38
739.002	-0.62
739.026	13.38
739.05	9.38
739.074	-6.62
739.098	29.38
739.122	13.38
739.146	14.38
739.17	10.38
739.194	-1.62
739.218	-7.62
739.242	-3.62
739.266	-7.62
739.29	6.38
739.314	4.38
739.338	4.38
739.362	-4.62
739.386	-2.62
739.41	-12.62
739.434	2.38
739.458	14.38
739.482	6.38
739.506	0.38
739.53	-8.62
739.554	8.38
739.577	-14.62
739.601	8.38
739.625	1.38
739.649	10.38
739.673	-2.62
739.697	19.38
739.721	10.38
739.745	4.38
739.769	13.38
739.793	16.38
739.817	21.38
739.841	0.38
739.865	0.38
739.889	-0.62
739.912	13.38
739.936	-6.62
739.96	11.38
739.984	26.38
740.008	18.38
740.032	-7.62
740.056	19.38
740.08	-4.62
740.104	5.38
740.127	2.38
740.151	-3.62
740.175	12.38
740.199	12.38
740.223	53.38
740.247	9.38
740.271	-1.62
740.295	-2.62
740.318	-12.62
740.342	0.38
740.366	-3.62
740.39	5.38
740.414	-10.62
740.438	-2.62
740.461	3.38
740.485	13.38
740.509	-1.62
740.533	5.38
740.557	2.38
740.581	4.38
740.604	2.38
740.628	-2.62
740.652	15.38
740.676	11.38
740.7	7.38
740.723	3.38
740.747	-5.62
740.771	-11.62
740.795	-0.62
740.819	11.38
740.842	1.38
740.866	5.38
740.89	-4.62
740.914	2.38
740.938	-1.62
740.961	9.38
740.985	3.38
741.009	2.38
741.033	12.38
741.056	12.38
741.08	11.38
741.104	1.38
741.128	3.38
741.151	10.38
741.175	17.38
741.199	0.38
741.223	-2.62
741.246	1.38
741.27	12.38
741.294	7.38
741.318	-4.62
741.341	9.38
741.365	3.38
741.389	0.38
741.413	6.38
741.436	8.38
741.46	4.38
741.484	14.38
741.507	5.38
741.531	8.38
741.555	11.38
741.579	7.38
741.602	8.38
741.626	9.38
741.65	4.38
741.673	0.38
741.697	10.38
741.721	0.38
741.744	-4.62
741.768	6.38
741.792	5.38
741.815	-2.62
741.839	11.38
741.863	18.38
741.886	5.38
741.91	7.38
741.934	6.38
741.957	-5.62
741.981	6.38
742.005	-3.62
742.028	-13.62
742.052	-9.62
742.075	12.38
742.099	11.38
742.123	-0.62
742.146	-1.62
742.17	0.38
742.194	-13.62
742.217	-15.62
742.241	-11.62
742.264	0.38
742.288	22.38
742.312	16.38
742.335	33.38
742.359	5.38
742.382	0.38
742.406	2.38
742.43	-4.62
742.453	-1.62
742.477	2.38
742.5	4.38
742.524	-1.62
742.548	-5.62
742.571	-9.62
742.595	-12.62
742.618	2.38
742.642	7.38
742.665	25.38
742.689	-3.62
742.712	-1.62
742.736	-10.62
742.76	-7.62
742.783	0.38
742.807	9.38
742.83	14.38
742.854	-9.62
742.877	-10.62
742.901	-0.62
742.924	-5.62
742.948	13.38
742.971	16.38
742.995	1.38
743.018	-3.62
743.042	1.38
743.065	-15.62
743.089	3.38
743.112	3.38
743.136	-3.62
743.159	1.38
743.183	-3.62
743.206	0.38
743.23	-2.62
743.253	3.38
743.277	7.38
743.3	1.38
743.324	-4.62
743.347	4.38
743.371	29.38
743.394	10.38
743.418	0.38
743.441	11.38
743.465	15.38
743.488	0.38
743.512	-0.62
743.535	-3.62
743.558	-7.62
743.582	4.38
743.605	5.38
743.629	31.38
743.652	8.38
743.676	4.38
743.699	20.38
743.723	2.38
743.746	12.38
743.769	-7.62
743.793	-3.62
743.816	7.38
743.84	26.38
743.863	3.38
743.886	6.38
743.91	14.38
743.933	8.38
743.957	-3.62
743.98	-5.62
744.003	5.38
744.027	4.38
744.05	-3.62
744.074	2.38
744.097	-18.62
744.12	3.38
744.144	-9.62
744.167	10.38
744.19	20.38
744.214	0.38
744.237	-1.62
744.26	21.38
744.284	14.38
744.307	-14.62
744.331	3.38
744.354	5.38
744.377	-5.62
744.401	6.38
744.424	-5.62
744.447	-12.62
744.471	-11.62
