Data from HighRes_H2_15_09_11_07_2024_HR4C61891__122__15-11-08-603.txt Node

Date: Thu Nov 07 15:11:08 EST 2024
User: crc00042
Spectrometer: HR4C6189
Trigger mode: 4
Integration Time (sec): 1.000000E-1
Scans to average: 1
Electric dark correction enabled: true
Nonlinearity correction enabled: false
Boxcar width: 0
XAxis mode: Wavelengths
Number of Pixels in Spectrum: 3648
>>>>>Begin Spectral Data<<<<<
639.567	-61.23
639.602	-61.23
639.636	-61.23
639.67	-37.23
639.704	-16.23
639.738	-21.23
639.773	12.77
639.807	-22.23
639.841	-4.23
639.875	-0.23
639.909	7.77
639.943	1.77
639.978	-9.23
640.012	0.77
640.046	13.77
640.08	18.77
640.114	10.77
640.148	-9.23
640.182	0.77
640.217	6.77
640.251	20.77
640.285	11.77
640.319	-4.23
640.353	14.77
640.387	1.77
640.421	-10.23
640.455	-14.23
640.49	-2.23
640.524	3.77
640.558	11.77
640.592	8.77
640.626	4.77
640.66	0.77
640.694	3.77
640.728	20.77
640.762	14.77
640.796	30.77
640.83	6.77
640.865	-5.23
640.899	-9.23
640.933	-12.23
640.967	12.77
641.001	13.77
641.035	-5.23
641.069	10.77
641.103	6.77
641.137	5.77
641.171	-16.23
641.205	4.77
641.239	19.77
641.273	10.77
641.307	10.77
641.341	0.77
641.375	2.77
641.409	0.77
641.443	-8.23
641.477	2.77
641.511	-0.23
641.545	11.77
641.579	-1.23
641.614	0.77
641.648	-6.23
641.682	-1.23
641.716	0.77
641.75	10.77
641.784	-1.23
641.818	5.77
641.852	2.77
641.886	-15.23
641.919	21.77
641.953	-3.23
641.987	-12.23
642.021	-13.23
642.055	2.77
642.089	-7.23
642.123	0.77
642.157	-4.23
642.191	-12.23
642.225	7.77
642.259	10.77
642.293	7.77
642.327	7.77
642.361	1.77
642.395	17.77
642.429	15.77
642.463	15.77
642.497	22.77
642.531	8.77
642.565	4.77
642.599	6.77
642.633	-11.23
642.666	2.77
642.7	9.77
642.734	14.77
642.768	-14.23
642.802	2.77
642.836	-2.23
642.87	8.77
642.904	11.77
642.938	12.77
642.972	7.77
643.005	5.77
643.039	9.77
643.073	-11.23
643.107	18.77
643.141	1.77
643.175	3.77
643.209	8.77
643.243	-10.23
643.276	1.77
643.31	-23.23
643.344	-1.23
643.378	17.77
643.412	24.77
643.446	10.77
643.48	0.77
643.513	-4.23
643.547	0.77
643.581	-30.23
643.615	3.77
643.649	10.77
643.683	8.77
643.716	-2.23
643.75	6.77
643.784	-8.23
643.818	-14.23
643.852	-11.23
643.886	4.77
643.919	5.77
643.953	-9.23
643.987	-7.23
644.021	-17.23
644.055	-5.23
644.088	-20.23
644.122	-10.23
644.156	-13.23
644.19	-6.23
644.224	13.77
644.257	-1.23
644.291	17.77
644.325	-2.23
644.359	-8.23
644.392	-5.23
644.426	16.77
644.46	18.77
644.494	0.77
644.527	-17.23
644.561	8.77
644.595	-3.23
644.629	-8.23
644.662	-12.23
644.696	-1.23
644.73	3.77
644.764	-1.23
644.797	-2.23
644.831	16.77
644.865	14.77
644.899	11.77
644.932	11.77
644.966	14.77
645	19.77
645.033	25.77
645.067	4.77
645.101	1.77
645.135	-13.23
645.168	-7.23
645.202	-17.23
645.236	-7.23
645.269	14.77
645.303	-10.23
645.337	-15.23
645.37	-16.23
645.404	-2.23
645.438	6.77
645.471	-2.23
645.505	0.77
645.539	-1.23
645.572	-13.23
645.606	-17.23
645.64	0.77
645.673	9.77
645.707	21.77
645.741	-4.23
645.774	7.77
645.808	11.77
645.842	-3.23
645.875	15.77
645.909	-6.23
645.943	-0.23
645.976	-6.23
646.01	-0.23
646.043	8.77
646.077	6.77
646.111	-3.23
646.144	17.77
646.178	1.77
646.212	-23.23
646.245	0.77
646.279	4.77
646.312	-8.23
646.346	14.77
646.38	-2.23
646.413	1.77
646.447	-12.23
646.48	5.77
646.514	8.77
646.547	-0.23
646.581	-3.23
646.615	-6.23
646.648	-10.23
646.682	0.77
646.715	11.77
646.749	2.77
646.782	-3.23
646.816	-4.23
646.85	1.77
646.883	14.77
646.917	12.77
646.95	5.77
646.984	6.77
647.017	-6.23
647.051	-6.23
647.084	-3.23
647.118	-7.23
647.151	-22.23
647.185	9.77
647.218	-17.23
647.252	-7.23
647.285	-19.23
647.319	-20.23
647.353	8.77
647.386	9.77
647.42	14.77
647.453	4.77
647.487	11.77
647.52	6.77
647.553	14.77
647.587	12.77
647.62	-8.23
647.654	-1.23
647.687	6.77
647.721	14.77
647.754	-4.23
647.788	3.77
647.821	0.77
647.855	-5.23
647.888	11.77
647.922	2.77
647.955	0.77
647.989	3.77
648.022	13.77
648.055	15.77
648.089	1.77
648.122	29.77
648.156	10.77
648.189	-1.23
648.223	6.77
648.256	10.77
648.29	1.77
648.323	3.77
648.356	10.77
648.39	13.77
648.423	-0.23
648.457	-1.23
648.49	5.77
648.523	10.77
648.557	-1.23
648.59	0.77
648.624	0.77
648.657	3.77
648.69	20.77
648.724	11.77
648.757	18.77
648.791	16.77
648.824	3.77
648.857	-1.23
648.891	1.77
648.924	-11.23
648.957	2.77
648.991	-9.23
649.024	27.77
649.057	4.77
649.091	0.77
649.124	-1.23
649.158	8.77
649.191	34.77
649.224	2.77
649.258	2.77
649.291	10.77
649.324	4.77
649.358	4.77
649.391	6.77
649.424	1.77
649.458	-14.23
649.491	-1.23
649.524	2.77
649.557	-10.23
649.591	-14.23
649.624	6.77
649.657	-6.23
649.691	-2.23
649.724	2.77
649.757	5.77
649.791	-10.23
649.824	16.77
649.857	2.77
649.89	-4.23
649.924	-16.23
649.957	-9.23
649.99	-25.23
650.023	-4.23
650.057	-14.23
650.09	3.77
650.123	-6.23
650.157	22.77
650.19	7.77
650.223	-17.23
650.256	-15.23
650.29	-14.23
650.323	2.77
650.356	13.77
650.389	-8.23
650.423	2.77
650.456	8.77
650.489	-3.23
650.522	18.77
650.555	11.77
650.589	2.77
650.622	-0.23
650.655	3.77
650.688	-2.23
650.721	2.77
650.755	12.77
650.788	13.77
650.821	2.77
650.854	0.77
650.887	11.77
650.921	14.77
650.954	-2.23
650.987	7.77
651.02	-2.23
651.053	-14.23
651.087	1.77
651.12	26.77
651.153	3.77
651.186	-1.23
651.219	-4.23
651.252	2.77
651.286	4.77
651.319	7.77
651.352	-1.23
651.385	11.77
651.418	-0.23
651.451	8.77
651.484	17.77
651.518	-13.23
651.551	9.77
651.584	-4.23
651.617	13.77
651.65	2.77
651.683	4.77
651.716	0.77
651.749	-13.23
651.783	-1.23
651.816	14.77
651.849	13.77
651.882	-4.23
651.915	-7.23
651.948	-13.23
651.981	-19.23
652.014	-21.23
652.047	-25.23
652.08	1.77
652.114	20.77
652.147	2.77
652.18	3.77
652.213	31.77
652.246	-2.23
652.279	-15.23
652.312	20.77
652.345	3.77
652.378	-7.23
652.411	8.77
652.444	-6.23
652.477	-6.23
652.51	4.77
652.543	-23.23
652.576	-1.23
652.609	9.77
652.642	-3.23
652.675	-1.23
652.709	-19.23
652.742	2.77
652.775	5.77
652.808	8.77
652.841	8.77
652.874	3.77
652.907	12.77
652.94	-1.23
652.973	-22.23
653.006	-16.23
653.039	4.77
653.072	10.77
653.105	-7.23
653.138	-23.23
653.171	-0.23
653.204	-2.23
653.237	6.77
653.27	-12.23
653.303	-3.23
653.336	17.77
653.368	-9.23
653.401	4.77
653.434	6.77
653.467	13.77
653.5	-23.23
653.533	-2.23
653.566	-2.23
653.599	2.77
653.632	-10.23
653.665	6.77
653.698	-14.23
653.731	-4.23
653.764	1.77
653.797	2.77
653.83	14.77
653.863	1.77
653.896	2.77
653.929	-16.23
653.961	-15.23
653.994	-3.23
654.027	-13.23
654.06	3.77
654.093	-6.23
654.126	-4.23
654.159	3.77
654.192	-4.23
654.225	1.77
654.258	-10.23
654.29	7.77
654.323	12.77
654.356	-2.23
654.389	10.77
654.422	-4.23
654.455	7.77
654.488	-0.23
654.521	-25.23
654.553	-1.23
654.586	14.77
654.619	-7.23
654.652	0.77
654.685	11.77
654.718	15.77
654.751	2.77
654.783	0.77
654.816	18.77
654.849	0.77
654.882	-4.23
654.915	-11.23
654.948	-0.23
654.98	-21.23
655.013	-6.23
655.046	1.77
655.079	-12.23
655.112	-9.23
655.144	-2.23
655.177	3.77
655.21	0.77
655.243	5.77
655.276	11.77
655.308	1.77
655.341	-0.23
655.374	16.77
655.407	-0.23
655.44	-8.23
655.472	16.77
655.505	3.77
655.538	-5.23
655.571	21.77
655.603	-2.23
655.636	6.77
655.669	17.77
655.702	3.77
655.734	-1.23
655.767	22.77
655.8	17.77
655.833	15.77
655.865	32.77
655.898	29.77
655.931	46.77
655.964	46.77
655.996	64.77
656.029	72.77
656.062	55.77
656.095	71.77
656.127	66.77
656.16	95.77
656.193	134.77
656.225	175.77
656.258	276.77
656.291	508.77
656.324	1114.77
656.356	3319.77
656.389	7498.77
656.422	6067.77
656.454	2082.77
656.487	659.77
656.52	262.77
656.552	124.77
656.585	69.77
656.618	38.77
656.65	37.77
656.683	23.77
656.716	29.77
656.748	14.77
656.781	14.77
656.814	-11.23
656.846	8.77
656.879	5.77
656.912	8.77
656.944	-4.23
656.977	3.77
657.01	2.77
657.042	8.77
657.075	3.77
657.108	-7.23
657.14	2.77
657.173	3.77
657.205	30.77
657.238	8.77
657.271	14.77
657.303	5.77
657.336	17.77
657.369	-4.23
657.401	-13.23
657.434	0.77
657.466	8.77
657.499	2.77
657.532	-2.23
657.564	-1.23
657.597	-8.23
657.629	8.77
657.662	-7.23
657.694	-8.23
657.727	-24.23
657.76	-2.23
657.792	4.77
657.825	-18.23
657.857	-10.23
657.89	6.77
657.922	14.77
657.955	-9.23
657.987	-3.23
658.02	10.77
658.053	-3.23
658.085	-1.23
658.118	-5.23
658.15	7.77
658.183	18.77
658.215	0.77
658.248	-1.23
658.28	2.77
658.313	7.77
658.345	18.77
658.378	19.77
658.41	-9.23
658.443	1.77
658.475	-5.23
658.508	-1.23
658.54	1.77
658.573	-18.23
658.605	-1.23
658.638	1.77
658.67	-3.23
658.703	-5.23
658.735	-9.23
658.768	3.77
658.8	-1.23
658.833	15.77
658.865	-6.23
658.898	4.77
658.93	-6.23
658.963	1.77
658.995	-9.23
659.028	7.77
659.06	-7.23
659.092	4.77
659.125	-1.23
659.157	-1.23
659.19	-12.23
659.222	-5.23
659.255	5.77
659.287	0.77
659.32	-2.23
659.352	1.77
659.384	17.77
659.417	5.77
659.449	18.77
659.482	11.77
659.514	-17.23
659.546	-10.23
659.579	-21.23
659.611	10.77
659.644	6.77
659.676	-26.23
659.708	-15.23
659.741	-9.23
659.773	-3.23
659.806	9.77
659.838	2.77
659.87	1.77
659.903	-13.23
659.935	-3.23
659.967	6.77
660	6.77
660.032	-9.23
660.065	20.77
660.097	12.77
660.129	8.77
660.162	-13.23
660.194	3.77
660.226	12.77
660.259	4.77
660.291	-7.23
660.323	9.77
660.356	-2.23
660.388	-13.23
660.42	-7.23
660.453	3.77
660.485	5.77
660.517	14.77
660.55	7.77
660.582	-9.23
660.614	10.77
660.647	-7.23
660.679	-13.23
660.711	-1.23
660.743	-11.23
660.776	-20.23
660.808	-9.23
660.84	4.77
660.873	1.77
660.905	-2.23
660.937	-14.23
660.969	-4.23
661.002	-6.23
661.034	18.77
661.066	-10.23
661.099	6.77
661.131	5.77
661.163	-3.23
661.195	13.77
661.228	8.77
661.26	-8.23
661.292	-4.23
661.324	-0.23
661.357	3.77
661.389	8.77
661.421	13.77
661.453	-5.23
661.485	-0.23
661.518	-4.23
661.55	-9.23
661.582	-27.23
661.614	-12.23
661.647	2.77
661.679	8.77
661.711	2.77
661.743	-13.23
661.775	-0.23
661.808	15.77
661.84	-0.23
661.872	4.77
661.904	2.77
661.936	-14.23
661.969	-18.23
662.001	-23.23
662.033	-0.23
662.065	-9.23
662.097	6.77
662.129	-1.23
662.162	-13.23
662.194	-2.23
662.226	-3.23
662.258	9.77
662.29	2.77
662.322	-4.23
662.355	-4.23
662.387	19.77
662.419	5.77
662.451	8.77
662.483	4.77
662.515	-14.23
662.547	2.77
662.58	-0.23
662.612	-6.23
662.644	-28.23
662.676	-15.23
662.708	10.77
662.74	-8.23
662.772	0.77
662.804	8.77
662.836	-10.23
662.869	-15.23
662.901	1.77
662.933	-16.23
662.965	10.77
662.997	10.77
663.029	-4.23
663.061	-7.23
663.093	-16.23
663.125	-16.23
663.157	2.77
663.189	3.77
663.221	13.77
663.254	-6.23
663.286	9.77
663.318	6.77
663.35	-8.23
663.382	5.77
663.414	1.77
663.446	6.77
663.478	-4.23
663.51	17.77
663.542	-9.23
663.574	-8.23
663.606	1.77
663.638	-0.23
663.67	-15.23
663.702	-6.23
663.734	-3.23
663.766	-3.23
663.798	-4.23
663.83	-10.23
663.862	-1.23
663.894	7.77
663.926	-2.23
663.958	3.77
663.99	-6.23
664.022	-14.23
664.054	2.77
664.086	-13.23
664.118	-15.23
664.15	-16.23
664.182	-0.23
664.214	-3.23
664.246	8.77
664.278	14.77
664.31	7.77
664.342	4.77
664.374	5.77
664.406	-10.23
664.438	-1.23
664.47	23.77
664.502	6.77
664.534	1.77
664.566	-10.23
664.598	-7.23
664.63	7.77
664.662	7.77
664.693	1.77
664.725	-11.23
664.757	-8.23
664.789	-18.23
664.821	14.77
664.853	19.77
664.885	1.77
664.917	-6.23
664.949	22.77
664.981	27.77
665.013	-11.23
665.045	-23.23
665.076	-3.23
665.108	-6.23
665.14	-20.23
665.172	-13.23
665.204	-14.23
665.236	0.77
665.268	4.77
665.3	-8.23
665.331	-11.23
665.363	4.77
665.395	-8.23
665.427	6.77
665.459	-2.23
665.491	-1.23
665.523	-15.23
665.555	-16.23
665.586	-1.23
665.618	2.77
665.65	-25.23
665.682	-11.23
665.714	16.77
665.746	-12.23
665.777	4.77
665.809	3.77
665.841	1.77
665.873	-9.23
665.905	0.77
665.937	8.77
665.968	-3.23
666	12.77
666.032	4.77
666.064	3.77
666.096	-1.23
666.127	7.77
666.159	2.77
666.191	7.77
666.223	8.77
666.255	19.77
666.286	-0.23
666.318	-2.23
666.35	17.77
666.382	3.77
666.413	3.77
666.445	-2.23
666.477	-16.23
666.509	-5.23
666.54	-10.23
666.572	-10.23
666.604	1.77
666.636	10.77
666.667	2.77
666.699	20.77
666.731	5.77
666.763	2.77
666.794	1.77
666.826	12.77
666.858	-1.23
666.89	-1.23
666.921	9.77
666.953	5.77
666.985	12.77
667.017	14.77
667.048	6.77
667.08	6.77
667.112	-1.23
667.143	-2.23
667.175	8.77
667.207	7.77
667.238	3.77
667.27	2.77
667.302	-7.23
667.334	-5.23
667.365	5.77
667.397	-7.23
667.429	-0.23
667.46	16.77
667.492	17.77
667.524	-12.23
667.555	-8.23
667.587	-13.23
667.619	-10.23
667.65	-13.23
667.682	-1.23
667.714	1.77
667.745	-14.23
667.777	0.77
667.808	3.77
667.84	13.77
667.872	9.77
667.903	9.77
667.935	-11.23
667.967	-5.23
667.998	-0.23
668.03	-7.23
668.061	0.77
668.093	-7.23
668.125	6.77
668.156	7.77
668.188	0.77
668.22	3.77
668.251	-3.23
668.283	6.77
668.314	7.77
668.346	-10.23
668.377	2.77
668.409	-8.23
668.441	11.77
668.472	9.77
668.504	13.77
668.535	17.77
668.567	-4.23
668.599	-5.23
668.63	-0.23
668.662	1.77
668.693	13.77
668.725	7.77
668.756	-2.23
668.788	-5.23
668.819	2.77
668.851	7.77
668.882	-0.23
668.914	-14.23
668.946	-14.23
668.977	-3.23
669.009	-3.23
669.04	-1.23
669.072	14.77
669.103	14.77
669.135	1.77
669.166	0.77
669.198	16.77
669.229	17.77
669.261	9.77
669.292	-11.23
669.324	-1.23
669.355	8.77
669.387	0.77
669.418	2.77
669.45	-3.23
669.481	3.77
669.513	-0.23
669.544	-0.23
669.576	-1.23
669.607	6.77
669.639	13.77
669.67	-2.23
669.701	-4.23
669.733	-1.23
669.764	-8.23
669.796	1.77
669.827	-5.23
669.859	-1.23
669.89	10.77
669.922	-1.23
669.953	10.77
669.985	9.77
670.016	10.77
670.047	-14.23
670.079	0.77
670.11	-1.23
670.142	4.77
670.173	7.77
670.204	-5.23
670.236	-7.23
670.267	-1.23
670.299	-0.23
670.33	9.77
670.362	-0.23
670.393	-13.23
670.424	-17.23
670.456	-14.23
670.487	-13.23
670.518	-3.23
670.55	2.77
670.581	-1.23
670.613	-15.23
670.644	-2.23
670.675	-7.23
670.707	-21.23
670.738	6.77
670.769	5.77
670.801	-13.23
670.832	5.77
670.864	1.77
670.895	13.77
670.926	14.77
670.958	5.77
670.989	5.77
671.02	-10.23
671.052	-5.23
671.083	6.77
671.114	-5.23
671.146	-0.23
671.177	-0.23
671.208	-4.23
671.24	-14.23
671.271	-3.23
671.302	8.77
671.333	2.77
671.365	-14.23
671.396	-10.23
671.427	16.77
671.459	6.77
671.49	7.77
671.521	6.77
671.553	2.77
671.584	9.77
671.615	-16.23
671.646	-8.23
671.678	2.77
671.709	-5.23
671.74	-12.23
671.771	-3.23
671.803	-4.23
671.834	-1.23
671.865	-6.23
671.896	10.77
671.928	12.77
671.959	-5.23
671.99	-11.23
672.021	-8.23
672.053	-5.23
672.084	6.77
672.115	-3.23
672.146	7.77
672.178	-3.23
672.209	-5.23
672.24	-5.23
672.271	10.77
672.303	9.77
672.334	6.77
672.365	3.77
672.396	-5.23
672.427	-12.23
672.459	5.77
672.49	17.77
672.521	3.77
672.552	5.77
672.583	7.77
672.615	3.77
672.646	2.77
672.677	-14.23
672.708	-0.23
672.739	-6.23
672.77	-6.23
672.802	-6.23
672.833	-16.23
672.864	-23.23
672.895	-17.23
672.926	3.77
672.957	-1.23
672.989	0.77
673.02	11.77
673.051	-0.23
673.082	3.77
673.113	-11.23
673.144	-4.23
673.175	-6.23
673.206	1.77
673.238	-9.23
673.269	-16.23
673.3	-25.23
673.331	-9.23
673.362	0.77
673.393	8.77
673.424	14.77
673.455	6.77
673.487	-13.23
673.518	5.77
673.549	-2.23
673.58	-0.23
673.611	-1.23
673.642	2.77
673.673	-9.23
673.704	-7.23
673.735	3.77
673.766	-9.23
673.797	-15.23
673.828	-12.23
673.86	-8.23
673.891	-10.23
673.922	-6.23
673.953	-16.23
673.984	-5.23
674.015	6.77
674.046	-10.23
674.077	-7.23
674.108	1.77
674.139	-0.23
674.17	-6.23
674.201	-14.23
674.232	-7.23
674.263	11.77
674.294	-3.23
674.325	-22.23
674.356	4.77
674.387	19.77
674.418	2.77
674.449	2.77
674.48	-15.23
674.511	-6.23
674.542	7.77
674.573	-7.23
674.604	13.77
674.635	-3.23
674.666	11.77
674.697	-4.23
674.728	7.77
674.759	7.77
674.79	-19.23
674.821	-13.23
674.852	2.77
674.883	-17.23
674.914	-2.23
674.945	-10.23
674.976	-9.23
675.007	-23.23
675.038	-10.23
675.069	-0.23
675.1	-13.23
675.131	-13.23
675.162	-5.23
675.193	-11.23
675.224	5.77
675.254	5.77
675.285	17.77
675.316	8.77
675.347	-0.23
675.378	-11.23
675.409	-8.23
675.44	4.77
675.471	-7.23
675.502	-17.23
675.533	0.77
675.564	-0.23
675.595	-0.23
675.625	6.77
675.656	5.77
675.687	15.77
675.718	-11.23
675.749	12.77
675.78	-7.23
675.811	0.77
675.842	6.77
675.873	3.77
675.903	-17.23
675.934	-23.23
675.965	-22.23
675.996	-14.23
676.027	-3.23
676.058	-13.23
676.089	-14.23
676.119	-3.23
676.15	-2.23
676.181	-14.23
676.212	-12.23
676.243	5.77
676.274	-3.23
676.304	25.77
676.335	-29.23
676.366	5.77
676.397	6.77
676.428	0.77
676.459	-1.23
676.489	18.77
676.52	15.77
676.551	15.77
676.582	5.77
676.613	7.77
676.643	-9.23
676.674	0.77
676.705	7.77
676.736	7.77
676.767	26.77
676.797	19.77
676.828	5.77
676.859	-5.23
676.89	-23.23
676.92	-10.23
676.951	-9.23
676.982	3.77
677.013	-6.23
677.044	9.77
677.074	6.77
677.105	-11.23
677.136	21.77
677.167	12.77
677.197	7.77
677.228	-1.23
677.259	-1.23
677.289	-8.23
677.32	-27.23
677.351	-11.23
677.382	-1.23
677.412	-2.23
677.443	-1.23
677.474	-14.23
677.505	-10.23
677.535	-0.23
677.566	-7.23
677.597	-3.23
677.627	-9.23
677.658	-5.23
677.689	1.77
677.72	-3.23
677.75	-5.23
677.781	-15.23
677.812	21.77
677.842	-0.23
677.873	-4.23
677.904	3.77
677.934	10.77
677.965	1.77
677.996	-9.23
678.026	-5.23
678.057	-0.23
678.088	-7.23
678.118	15.77
678.149	-4.23
678.18	-14.23
678.21	2.77
678.241	9.77
678.272	-4.23
678.302	4.77
678.333	1.77
678.363	-9.23
678.394	2.77
678.425	-8.23
678.455	-17.23
678.486	3.77
678.517	-10.23
678.547	-3.23
678.578	-13.23
678.608	-0.23
678.639	6.77
678.67	7.77
678.7	-15.23
678.731	-4.23
678.761	4.77
678.792	0.77
678.823	13.77
678.853	5.77
678.884	-12.23
678.914	-4.23
678.945	4.77
678.975	-23.23
679.006	-1.23
679.037	1.77
679.067	16.77
679.098	3.77
679.128	-12.23
679.159	-6.23
679.189	9.77
679.22	-15.23
679.25	11.77
679.281	-2.23
679.312	-1.23
679.342	-6.23
679.373	37.77
679.403	8.77
679.434	3.77
679.464	-0.23
679.495	-6.23
679.525	0.77
679.556	-10.23
679.586	4.77
679.617	4.77
679.647	-15.23
679.678	-16.23
679.708	-14.23
679.739	-3.23
679.769	3.77
679.8	2.77
679.83	4.77
679.861	3.77
679.891	-9.23
679.922	-18.23
679.952	1.77
679.983	-4.23
680.013	17.77
680.044	-8.23
680.074	14.77
680.105	2.77
680.135	-0.23
680.165	8.77
680.196	-3.23
680.226	2.77
680.257	6.77
680.287	9.77
680.318	-3.23
680.348	-5.23
680.379	7.77
680.409	2.77
680.439	-4.23
680.47	-1.23
680.5	-7.23
680.531	7.77
680.561	10.77
680.592	-2.23
680.622	-6.23
680.652	11.77
680.683	6.77
680.713	7.77
680.744	0.77
680.774	-14.23
680.804	14.77
680.835	1.77
680.865	-13.23
680.896	23.77
680.926	7.77
680.956	7.77
680.987	13.77
681.017	2.77
681.047	9.77
681.078	3.77
681.108	-2.23
681.139	-1.23
681.169	3.77
681.199	-7.23
681.23	6.77
681.26	-1.23
681.29	0.77
681.321	-21.23
681.351	-4.23
681.381	-7.23
681.412	0.77
681.442	-1.23
681.472	4.77
681.503	-5.23
681.533	-5.23
681.563	0.77
681.594	-7.23
681.624	-8.23
681.654	-1.23
681.685	2.77
681.715	-4.23
681.745	2.77
681.775	-12.23
681.806	-0.23
681.836	-13.23
681.866	-5.23
681.897	0.77
681.927	-22.23
681.957	-25.23
681.987	-3.23
682.018	-8.23
682.048	8.77
682.078	-12.23
682.109	16.77
682.139	8.77
682.169	-0.23
682.199	-14.23
682.23	-8.23
682.26	-6.23
682.29	-11.23
682.32	9.77
682.351	-5.23
682.381	-7.23
682.411	12.77
682.441	-8.23
682.472	-9.23
682.502	6.77
682.532	-8.23
682.562	-13.23
682.592	-1.23
682.623	10.77
682.653	5.77
682.683	-5.23
682.713	-6.23
682.743	0.77
682.774	-9.23
682.804	2.77
682.834	1.77
682.864	-8.23
682.894	-9.23
682.925	2.77
682.955	2.77
682.985	-5.23
683.015	11.77
683.045	16.77
683.076	-17.23
683.106	-14.23
683.136	-10.23
683.166	-13.23
683.196	-13.23
683.226	-7.23
683.257	-10.23
683.287	2.77
683.317	-5.23
683.347	-8.23
683.377	-5.23
683.407	1.77
683.437	0.77
683.468	16.77
683.498	-4.23
683.528	-3.23
683.558	-1.23
683.588	-0.23
683.618	-10.23
683.648	-6.23
683.678	6.77
683.708	13.77
683.739	-5.23
683.769	2.77
683.799	14.77
683.829	1.77
683.859	6.77
683.889	10.77
683.919	0.77
683.949	5.77
683.979	-10.23
684.009	-2.23
684.039	9.77
684.07	-17.23
684.1	-1.23
684.13	-11.23
684.16	-16.23
684.19	-16.23
684.22	-7.23
684.25	4.77
684.28	-3.23
684.31	2.77
684.34	-7.23
684.37	2.77
684.4	-6.23
684.43	-0.23
684.46	0.77
684.49	-0.23
684.52	-10.23
684.55	4.77
684.58	0.77
684.61	-12.23
684.64	1.77
684.67	12.77
684.7	11.77
684.73	-1.23
684.76	-0.23
684.79	12.77
684.82	2.77
684.85	-12.23
684.88	3.77
684.91	4.77
684.94	-7.23
684.97	-11.23
685	-2.23
685.03	-17.23
685.06	-8.23
685.09	3.77
685.12	21.77
685.15	0.77
685.18	-1.23
685.21	-1.23
685.24	18.77
685.27	5.77
685.3	-13.23
685.33	2.77
685.36	-8.23
685.39	4.77
685.42	-13.23
685.45	-1.23
685.48	-7.23
685.51	-11.23
685.54	7.77
685.569	-4.23
685.599	-1.23
685.629	12.77
685.659	-5.23
685.689	-7.23
685.719	8.77
685.749	-5.23
685.779	3.77
685.809	5.77
685.839	-1.23
685.869	3.77
685.898	1.77
685.928	-5.23
685.958	-4.23
685.988	12.77
686.018	0.77
686.048	6.77
686.078	27.77
686.108	0.77
686.137	0.77
686.167	6.77
686.197	-17.23
686.227	-11.23
686.257	29.77
686.287	22.77
686.317	4.77
686.346	0.77
686.376	2.77
686.406	-12.23
686.436	1.77
686.466	14.77
686.496	6.77
686.525	4.77
686.555	10.77
686.585	14.77
686.615	23.77
686.645	7.77
686.675	4.77
686.704	6.77
686.734	4.77
686.764	-5.23
686.794	-10.23
686.824	-8.23
686.853	7.77
686.883	11.77
686.913	18.77
686.943	-16.23
686.973	5.77
687.002	5.77
687.032	-1.23
687.062	-8.23
687.092	5.77
687.121	-10.23
687.151	12.77
687.181	1.77
687.211	19.77
687.24	-5.23
687.27	-1.23
687.3	5.77
687.33	1.77
687.359	-20.23
687.389	4.77
687.419	-10.23
687.449	-1.23
687.478	16.77
687.508	5.77
687.538	7.77
687.568	-0.23
687.597	-14.23
687.627	-16.23
687.657	9.77
687.686	3.77
687.716	6.77
687.746	-7.23
687.776	-9.23
687.805	-9.23
687.835	3.77
687.865	17.77
687.894	-7.23
687.924	-1.23
687.954	3.77
687.983	-1.23
688.013	8.77
688.043	17.77
688.072	-10.23
688.102	6.77
688.132	-8.23
688.161	-12.23
688.191	-0.23
688.221	5.77
688.25	-14.23
688.28	1.77
688.31	1.77
688.339	1.77
688.369	-6.23
688.399	-0.23
688.428	-9.23
688.458	-1.23
688.488	-0.23
688.517	14.77
688.547	-11.23
688.576	24.77
688.606	-0.23
688.636	-18.23
688.665	-1.23
688.695	-2.23
688.725	11.77
688.754	12.77
688.784	-11.23
688.813	6.77
688.843	-3.23
688.873	-10.23
688.902	-20.23
688.932	0.77
688.961	1.77
688.991	16.77
689.02	4.77
689.05	11.77
689.08	-10.23
689.109	7.77
689.139	3.77
689.168	-3.23
689.198	15.77
689.227	-4.23
689.257	4.77
689.287	10.77
689.316	8.77
689.346	-1.23
689.375	-25.23
689.405	5.77
689.434	1.77
689.464	2.77
689.493	-5.23
689.523	1.77
689.552	6.77
689.582	6.77
689.611	1.77
689.641	19.77
689.67	-3.23
689.7	8.77
689.73	15.77
689.759	-5.23
689.789	14.77
689.818	1.77
689.848	6.77
689.877	33.77
689.906	-2.23
689.936	1.77
689.965	4.77
689.995	6.77
690.024	16.77
690.054	-10.23
690.083	0.77
690.113	2.77
690.142	-10.23
690.172	10.77
690.201	7.77
690.231	0.77
690.26	2.77
690.29	4.77
690.319	2.77
690.348	-1.23
690.378	-3.23
690.407	7.77
690.437	2.77
690.466	-12.23
690.496	4.77
690.525	7.77
690.555	2.77
690.584	9.77
690.613	-5.23
690.643	7.77
690.672	31.77
690.702	11.77
690.731	-2.23
690.76	1.77
690.79	-10.23
690.819	-18.23
690.849	-10.23
690.878	-16.23
690.907	-3.23
690.937	18.77
690.966	21.77
690.996	-0.23
691.025	-16.23
691.054	-7.23
691.084	0.77
691.113	7.77
691.142	-2.23
691.172	3.77
691.201	17.77
691.23	4.77
691.26	3.77
691.289	0.77
691.319	-13.23
691.348	1.77
691.377	3.77
691.407	3.77
691.436	11.77
691.465	-9.23
691.495	-12.23
691.524	-6.23
691.553	4.77
691.583	6.77
691.612	11.77
691.641	2.77
691.67	7.77
691.7	-0.23
691.729	-2.23
691.758	1.77
691.788	3.77
691.817	4.77
691.846	-17.23
691.876	-4.23
691.905	8.77
691.934	-14.23
691.963	17.77
691.993	13.77
692.022	-0.23
692.051	1.77
692.081	1.77
692.11	0.77
692.139	1.77
692.168	4.77
692.198	22.77
692.227	5.77
692.256	1.77
692.285	7.77
692.315	2.77
692.344	15.77
692.373	11.77
692.402	-9.23
692.432	-1.23
692.461	-8.23
692.49	2.77
692.519	1.77
692.548	13.77
692.578	23.77
692.607	-0.23
692.636	-0.23
692.665	7.77
692.694	-2.23
692.724	11.77
692.753	-4.23
692.782	1.77
692.811	-9.23
692.84	-3.23
692.87	-1.23
692.899	-5.23
692.928	10.77
692.957	-6.23
692.986	-1.23
693.016	-0.23
693.045	1.77
693.074	2.77
693.103	-3.23
693.132	9.77
693.161	17.77
693.191	4.77
693.22	-8.23
693.249	7.77
693.278	-9.23
693.307	21.77
693.336	7.77
693.365	-17.23
693.395	-8.23
693.424	-4.23
693.453	1.77
693.482	-14.23
693.511	17.77
693.54	8.77
693.569	6.77
693.598	-6.23
693.628	15.77
693.657	11.77
693.686	15.77
693.715	21.77
693.744	-4.23
693.773	22.77
693.802	0.77
693.831	-10.23
693.86	-1.23
693.889	-2.23
693.919	1.77
693.948	4.77
693.977	10.77
694.006	-6.23
694.035	-1.23
694.064	-7.23
694.093	15.77
694.122	10.77
694.151	-6.23
694.18	6.77
694.209	10.77
694.238	5.77
694.267	12.77
694.296	4.77
694.325	-0.23
694.354	18.77
694.383	16.77
694.412	-0.23
694.441	-9.23
694.471	-9.23
694.5	-16.23
694.529	-13.23
694.558	11.77
694.587	17.77
694.616	-15.23
694.645	2.77
694.674	11.77
694.703	10.77
694.732	-1.23
694.761	4.77
694.79	5.77
694.819	-1.23
694.848	2.77
694.877	2.77
694.906	16.77
694.935	-3.23
694.963	27.77
694.992	1.77
695.021	14.77
695.05	9.77
695.079	-1.23
695.108	0.77
695.137	17.77
695.166	10.77
695.195	-12.23
695.224	1.77
695.253	3.77
695.282	1.77
695.311	12.77
695.34	-11.23
695.369	0.77
695.398	-3.23
695.427	19.77
695.456	0.77
695.485	14.77
695.513	0.77
695.542	17.77
695.571	11.77
695.6	19.77
695.629	2.77
695.658	8.77
695.687	-1.23
695.716	4.77
695.745	10.77
695.774	-5.23
695.802	-8.23
695.831	-8.23
695.86	18.77
695.889	7.77
695.918	-2.23
695.947	11.77
695.976	19.77
696.005	11.77
696.033	22.77
696.062	30.77
696.091	4.77
696.12	-1.23
696.149	14.77
696.178	-3.23
696.207	-9.23
696.235	-12.23
696.264	7.77
696.293	-0.23
696.322	3.77
696.351	13.77
696.38	-17.23
696.408	-5.23
696.437	-8.23
696.466	-3.23
696.495	-0.23
696.524	11.77
696.553	9.77
696.581	18.77
696.61	-6.23
696.639	-13.23
696.668	-4.23
696.697	2.77
696.725	-0.23
696.754	4.77
696.783	-6.23
696.812	6.77
696.84	-1.23
696.869	6.77
696.898	-0.23
696.927	-4.23
696.956	16.77
696.984	-8.23
697.013	8.77
697.042	-0.23
697.071	5.77
697.099	8.77
697.128	0.77
697.157	-4.23
697.186	-1.23
697.214	-1.23
697.243	-8.23
697.272	-8.23
697.301	-1.23
697.329	-0.23
697.358	-3.23
697.387	14.77
697.415	4.77
697.444	0.77
697.473	-14.23
697.502	-4.23
697.53	13.77
697.559	-16.23
697.588	-4.23
697.616	5.77
697.645	-1.23
697.674	13.77
697.703	-6.23
697.731	11.77
697.76	0.77
697.789	-1.23
697.817	-1.23
697.846	23.77
697.875	3.77
697.903	22.77
697.932	2.77
697.961	-13.23
697.989	3.77
698.018	-3.23
698.047	10.77
698.075	-0.23
698.104	3.77
698.133	5.77
698.161	-7.23
698.19	-0.23
698.218	-5.23
698.247	9.77
698.276	0.77
698.304	-7.23
698.333	6.77
698.362	-2.23
698.39	-1.23
698.419	1.77
698.447	4.77
698.476	8.77
698.505	11.77
698.533	3.77
698.562	4.77
698.591	-2.23
698.619	-0.23
698.648	3.77
698.676	-11.23
698.705	-12.23
698.733	-7.23
698.762	-2.23
698.791	-12.23
698.819	-1.23
698.848	10.77
698.876	19.77
698.905	1.77
698.933	3.77
698.962	-8.23
698.991	5.77
699.019	9.77
699.048	3.77
699.076	11.77
699.105	1.77
699.133	-4.23
699.162	2.77
699.19	8.77
699.219	-2.23
699.248	1.77
699.276	-5.23
699.305	-4.23
699.333	2.77
699.362	-2.23
699.39	5.77
699.419	-9.23
699.447	-1.23
699.476	24.77
699.504	-6.23
699.533	12.77
699.561	-7.23
699.59	-14.23
699.618	-6.23
699.647	8.77
699.675	7.77
699.704	0.77
699.732	-11.23
699.761	-4.23
699.789	8.77
699.818	13.77
699.846	4.77
699.874	-7.23
699.903	-7.23
699.931	7.77
699.96	8.77
699.988	1.77
700.017	-5.23
700.045	2.77
700.074	-0.23
700.102	11.77
700.13	-10.23
700.159	4.77
700.187	1.77
700.216	-1.23
700.244	-3.23
700.273	-0.23
700.301	11.77
700.329	6.77
700.358	25.77
700.386	-7.23
700.415	14.77
700.443	-8.23
700.472	1.77
700.5	2.77
700.528	16.77
700.557	-8.23
700.585	-8.23
700.614	-3.23
700.642	6.77
700.67	16.77
700.699	-0.23
700.727	3.77
700.755	11.77
700.784	-5.23
700.812	-1.23
700.841	8.77
700.869	-13.23
700.897	-13.23
700.926	-4.23
700.954	14.77
700.982	5.77
701.011	9.77
701.039	13.77
701.067	-9.23
701.096	4.77
701.124	5.77
701.152	-6.23
701.181	-10.23
701.209	-14.23
701.237	-6.23
701.266	-2.23
701.294	-21.23
701.322	-2.23
701.351	-1.23
701.379	-6.23
701.407	-0.23
701.435	3.77
701.464	6.77
701.492	5.77
701.52	-8.23
701.549	-23.23
701.577	-6.23
701.605	-10.23
701.634	-7.23
701.662	16.77
701.69	-1.23
701.718	3.77
701.747	6.77
701.775	-1.23
701.803	-7.23
701.831	6.77
701.86	3.77
701.888	1.77
701.916	-1.23
701.944	3.77
701.973	-18.23
702.001	-18.23
702.029	-13.23
702.057	-2.23
702.086	-10.23
702.114	-9.23
702.142	8.77
702.17	0.77
702.199	19.77
702.227	-6.23
702.255	-8.23
702.283	-1.23
702.311	-2.23
702.34	5.77
702.368	-19.23
702.396	0.77
702.424	-10.23
702.452	-8.23
702.481	11.77
702.509	5.77
702.537	1.77
702.565	13.77
702.593	-29.23
702.621	-12.23
702.65	-5.23
702.678	-3.23
702.706	17.77
702.734	-1.23
702.762	9.77
702.79	-3.23
702.819	0.77
702.847	10.77
702.875	23.77
702.903	1.77
702.931	-12.23
702.959	-1.23
702.988	11.77
703.016	-11.23
703.044	6.77
703.072	3.77
703.1	6.77
703.128	-6.23
703.156	-2.23
703.184	-5.23
703.212	-4.23
703.241	2.77
703.269	0.77
703.297	11.77
703.325	-2.23
703.353	-5.23
703.381	-13.23
703.409	-6.23
703.437	7.77
703.465	1.77
703.493	-7.23
703.522	4.77
703.55	-1.23
703.578	3.77
703.606	13.77
703.634	10.77
703.662	-2.23
703.69	-6.23
703.718	-5.23
703.746	18.77
703.774	-0.23
703.802	14.77
703.83	2.77
703.858	-11.23
703.886	-13.23
703.914	2.77
703.942	18.77
703.97	-1.23
703.998	-8.23
704.027	-2.23
704.055	1.77
704.083	-5.23
704.111	-6.23
704.139	-2.23
704.167	-10.23
704.195	-0.23
704.223	-3.23
704.251	-0.23
704.279	3.77
704.307	-0.23
704.335	-14.23
704.363	-6.23
704.391	-4.23
704.419	-1.23
704.447	-14.23
704.475	-6.23
704.503	-14.23
704.531	14.77
704.558	-4.23
704.586	7.77
704.614	6.77
704.642	2.77
704.67	-13.23
704.698	0.77
704.726	6.77
704.754	-4.23
704.782	10.77
704.81	-1.23
704.838	-6.23
704.866	6.77
704.894	-4.23
704.922	-2.23
704.95	14.77
704.978	-0.23
705.006	-5.23
705.034	24.77
705.061	-12.23
705.089	-6.23
705.117	-6.23
705.145	-14.23
705.173	-12.23
705.201	1.77
705.229	21.77
705.257	5.77
705.285	-12.23
705.313	-5.23
705.34	-1.23
705.368	-13.23
705.396	2.77
705.424	-2.23
705.452	-2.23
705.48	-12.23
705.508	-21.23
705.536	-7.23
705.563	-1.23
705.591	-5.23
705.619	12.77
705.647	4.77
705.675	10.77
705.703	18.77
705.731	0.77
705.758	14.77
705.786	6.77
705.814	18.77
705.842	2.77
705.87	10.77
705.898	26.77
705.925	-2.23
705.953	-1.23
705.981	-4.23
706.009	-0.23
706.037	-5.23
706.065	-15.23
706.092	-21.23
706.12	2.77
706.148	4.77
706.176	-5.23
706.204	1.77
706.231	-5.23
706.259	-10.23
706.287	-10.23
706.315	3.77
706.342	-7.23
706.37	6.77
706.398	5.77
706.426	11.77
706.454	5.77
706.481	-5.23
706.509	-4.23
706.537	-24.23
706.565	-8.23
706.592	2.77
706.62	-0.23
706.648	17.77
706.676	-12.23
706.703	2.77
706.731	-10.23
706.759	1.77
706.787	7.77
706.814	-7.23
706.842	4.77
706.87	-10.23
706.897	9.77
706.925	2.77
706.953	10.77
706.981	3.77
707.008	13.77
707.036	4.77
707.064	-2.23
707.091	-11.23
707.119	2.77
707.147	6.77
707.174	-15.23
707.202	2.77
707.23	0.77
707.258	3.77
707.285	-2.23
707.313	-8.23
707.341	-8.23
707.368	-6.23
707.396	5.77
707.424	13.77
707.451	1.77
707.479	-0.23
707.507	-7.23
707.534	-5.23
707.562	1.77
707.59	-16.23
707.617	-6.23
707.645	7.77
707.672	-7.23
707.7	-4.23
707.728	11.77
707.755	8.77
707.783	-17.23
707.811	14.77
707.838	0.77
707.866	11.77
707.893	-5.23
707.921	-2.23
707.949	0.77
707.976	-4.23
708.004	-0.23
708.031	-13.23
708.059	-21.23
708.087	-7.23
708.114	-7.23
708.142	-13.23
708.169	-8.23
708.197	-13.23
708.225	-3.23
708.252	-9.23
708.28	-0.23
708.307	-7.23
708.335	1.77
708.362	-7.23
708.39	-17.23
708.418	-4.23
708.445	-12.23
708.473	-7.23
708.5	-10.23
708.528	2.77
708.555	4.77
708.583	3.77
708.61	-9.23
708.638	-2.23
708.665	-1.23
708.693	-1.23
708.72	-8.23
708.748	-16.23
708.776	5.77
708.803	23.77
708.831	17.77
708.858	5.77
708.886	10.77
708.913	9.77
708.941	-0.23
708.968	3.77
708.996	-16.23
709.023	22.77
709.051	-26.23
709.078	-15.23
709.105	-2.23
709.133	6.77
709.16	-0.23
709.188	-1.23
709.215	-5.23
709.243	-11.23
709.27	3.77
709.298	-0.23
709.325	4.77
709.353	-7.23
709.38	-2.23
709.408	8.77
709.435	10.77
709.462	5.77
709.49	8.77
709.517	-5.23
709.545	-5.23
709.572	-1.23
709.6	-7.23
709.627	-0.23
709.655	-8.23
709.682	-7.23
709.709	9.77
709.737	-6.23
709.764	-5.23
709.792	1.77
709.819	-4.23
709.846	-5.23
709.874	1.77
709.901	7.77
709.929	21.77
709.956	3.77
709.983	-8.23
710.011	-8.23
710.038	-9.23
710.066	-0.23
710.093	4.77
710.12	-3.23
710.148	-7.23
710.175	-13.23
710.202	-16.23
710.23	6.77
710.257	6.77
710.284	13.77
710.312	10.77
710.339	-12.23
710.366	0.77
710.394	2.77
710.421	-1.23
710.448	-8.23
710.476	-28.23
710.503	-10.23
710.53	22.77
710.558	23.77
710.585	20.77
710.612	-6.23
710.64	-8.23
710.667	-7.23
710.694	-6.23
710.722	5.77
710.749	-13.23
710.776	0.77
710.804	11.77
710.831	-12.23
710.858	0.77
710.885	-14.23
710.913	-7.23
710.94	9.77
710.967	6.77
710.995	11.77
711.022	-0.23
711.049	5.77
711.076	-7.23
711.104	-5.23
711.131	-3.23
711.158	2.77
711.185	11.77
711.213	-9.23
711.24	-5.23
711.267	-1.23
711.294	-6.23
711.322	1.77
711.349	-21.23
711.376	-22.23
711.403	1.77
711.431	-4.23
711.458	-9.23
711.485	-11.23
711.512	-6.23
711.54	3.77
711.567	-4.23
711.594	-9.23
711.621	2.77
711.648	-6.23
711.676	4.77
711.703	8.77
711.73	-22.23
711.757	4.77
711.784	-3.23
711.812	-6.23
711.839	8.77
711.866	3.77
711.893	-2.23
711.92	-1.23
711.947	1.77
711.975	-5.23
712.002	-11.23
712.029	0.77
712.056	-0.23
712.083	5.77
712.11	-12.23
712.138	-0.23
712.165	9.77
712.192	0.77
712.219	-5.23
712.246	-7.23
712.273	-4.23
712.3	-14.23
712.328	-4.23
712.355	7.77
712.382	-2.23
712.409	2.77
712.436	-18.23
712.463	8.77
712.49	15.77
712.517	6.77
712.544	-1.23
712.572	7.77
712.599	-11.23
712.626	21.77
712.653	7.77
712.68	-10.23
712.707	12.77
712.734	13.77
712.761	6.77
712.788	1.77
712.815	17.77
712.842	19.77
712.87	-8.23
712.897	-7.23
712.924	-18.23
712.951	8.77
712.978	14.77
713.005	11.77
713.032	12.77
713.059	0.77
713.086	2.77
713.113	-7.23
713.14	-12.23
713.167	-8.23
713.194	8.77
713.221	-2.23
713.248	-0.23
713.275	1.77
713.302	-4.23
713.329	4.77
713.356	2.77
713.383	0.77
713.41	5.77
713.437	-4.23
713.464	13.77
713.491	21.77
713.518	-1.23
713.545	-2.23
713.572	-9.23
713.599	15.77
713.626	-1.23
713.653	-2.23
713.68	-14.23
713.707	-8.23
713.734	-2.23
713.761	-7.23
713.788	0.77
713.815	-0.23
713.842	-2.23
713.869	-7.23
713.896	-10.23
713.923	-13.23
713.95	11.77
713.977	4.77
714.004	-4.23
714.031	8.77
714.058	-13.23
714.085	-11.23
714.112	1.77
714.139	2.77
714.165	-7.23
714.192	-12.23
714.219	11.77
714.246	7.77
714.273	-4.23
714.3	-1.23
714.327	5.77
714.354	3.77
714.381	-7.23
714.408	-10.23
714.435	-5.23
714.461	-13.23
714.488	15.77
714.515	2.77
714.542	-7.23
714.569	-5.23
714.596	-21.23
714.623	5.77
714.65	-4.23
714.677	-4.23
714.703	3.77
714.73	13.77
714.757	10.77
714.784	12.77
714.811	-16.23
714.838	-0.23
714.865	7.77
714.891	7.77
714.918	-2.23
714.945	-11.23
714.972	3.77
714.999	10.77
715.026	5.77
715.052	9.77
715.079	-8.23
715.106	-10.23
715.133	10.77
715.16	6.77
715.187	8.77
715.213	-1.23
715.24	-7.23
715.267	12.77
715.294	-6.23
715.321	-9.23
715.347	0.77
715.374	-12.23
715.401	4.77
715.428	0.77
715.455	4.77
715.481	0.77
715.508	17.77
715.535	-5.23
715.562	27.77
715.588	14.77
715.615	-6.23
715.642	0.77
715.669	5.77
715.695	-1.23
715.722	-3.23
715.749	5.77
715.776	14.77
715.802	-5.23
715.829	-5.23
715.856	-17.23
715.883	5.77
715.909	-8.23
715.936	7.77
715.963	3.77
715.99	-15.23
716.016	-4.23
716.043	-2.23
716.07	0.77
716.096	-14.23
716.123	2.77
716.15	3.77
716.177	-6.23
716.203	2.77
716.23	1.77
716.257	1.77
716.283	17.77
716.31	-6.23
716.337	-5.23
716.363	-13.23
716.39	5.77
716.417	-5.23
716.443	0.77
716.47	2.77
716.497	10.77
716.523	10.77
716.55	-4.23
716.577	9.77
716.603	0.77
716.63	4.77
716.657	16.77
716.683	-13.23
716.71	-12.23
716.737	-8.23
716.763	2.77
716.79	11.77
716.817	18.77
716.843	-2.23
716.87	-2.23
716.897	4.77
716.923	29.77
716.95	-1.23
716.976	-2.23
717.003	-2.23
717.03	10.77
717.056	9.77
717.083	-15.23
717.109	5.77
717.136	3.77
717.163	-17.23
717.189	3.77
717.216	8.77
717.242	11.77
717.269	3.77
717.296	15.77
717.322	5.77
717.349	10.77
717.375	10.77
717.402	-10.23
717.428	5.77
717.455	5.77
717.481	-2.23
717.508	8.77
717.535	20.77
717.561	-1.23
717.588	-12.23
717.614	6.77
717.641	-9.23
717.667	-5.23
717.694	9.77
717.72	-5.23
717.747	-11.23
717.773	-14.23
717.8	-2.23
717.826	8.77
717.853	11.77
717.88	14.77
717.906	-11.23
717.933	-7.23
717.959	-1.23
717.986	0.77
718.012	-10.23
718.039	7.77
718.065	4.77
718.092	3.77
718.118	-22.23
718.144	-10.23
718.171	7.77
718.197	12.77
718.224	-4.23
718.25	10.77
718.277	13.77
718.303	2.77
718.33	-18.23
718.356	-7.23
718.383	-3.23
718.409	-0.23
718.436	-7.23
718.462	-5.23
718.489	-2.23
718.515	18.77
718.541	3.77
718.568	-2.23
718.594	5.77
718.621	-3.23
718.647	-2.23
718.674	14.77
718.7	6.77
718.726	-11.23
718.753	-1.23
718.779	3.77
718.806	-1.23
718.832	6.77
718.858	-4.23
718.885	-1.23
718.911	6.77
718.938	7.77
718.964	-17.23
718.99	-3.23
719.017	-8.23
719.043	-0.23
719.07	2.77
719.096	-6.23
719.122	14.77
719.149	10.77
719.175	6.77
719.201	0.77
719.228	-10.23
719.254	1.77
719.281	-24.23
719.307	-6.23
719.333	5.77
719.36	0.77
719.386	2.77
719.412	1.77
719.439	-21.23
719.465	6.77
719.491	2.77
719.518	-1.23
719.544	-4.23
719.57	9.77
719.597	5.77
719.623	-5.23
719.649	1.77
719.675	6.77
719.702	8.77
719.728	7.77
719.754	-12.23
719.781	-1.23
719.807	-6.23
719.833	-5.23
719.86	-7.23
719.886	-7.23
719.912	-0.23
719.938	-12.23
719.965	5.77
719.991	10.77
720.017	13.77
720.044	-2.23
720.07	2.77
720.096	9.77
720.122	2.77
720.149	-2.23
720.175	19.77
720.201	9.77
720.227	1.77
720.254	5.77
720.28	2.77
720.306	-21.23
720.332	5.77
720.359	6.77
720.385	7.77
720.411	-5.23
720.437	-13.23
720.463	8.77
720.49	11.77
720.516	-5.23
720.542	-7.23
720.568	-0.23
720.595	8.77
720.621	14.77
720.647	7.77
720.673	3.77
720.699	-19.23
720.725	-1.23
720.752	20.77
720.778	23.77
720.804	13.77
720.83	10.77
720.856	-11.23
720.883	-3.23
720.909	14.77
720.935	-0.23
720.961	8.77
720.987	8.77
721.013	-14.23
721.04	0.77
721.066	-8.23
721.092	-5.23
721.118	-5.23
721.144	-5.23
721.17	-9.23
721.196	-9.23
721.223	-8.23
721.249	-6.23
721.275	1.77
721.301	9.77
721.327	11.77
721.353	18.77
721.379	5.77
721.405	6.77
721.432	-1.23
721.458	2.77
721.484	1.77
721.51	-11.23
721.536	1.77
721.562	-2.23
721.588	-5.23
721.614	-5.23
721.64	-4.23
721.666	-6.23
721.693	-9.23
721.719	-9.23
721.745	-10.23
721.771	-10.23
721.797	2.77
721.823	2.77
721.849	12.77
721.875	11.77
721.901	-7.23
721.927	-16.23
721.953	-2.23
721.979	10.77
722.005	6.77
722.031	-2.23
722.057	-1.23
722.083	-5.23
722.109	4.77
722.135	4.77
722.161	6.77
722.187	-1.23
722.214	1.77
722.24	-4.23
722.266	-8.23
722.292	-10.23
722.318	0.77
722.344	-10.23
722.37	-1.23
722.396	8.77
722.422	2.77
722.448	-1.23
722.474	-17.23
722.5	-0.23
722.526	2.77
722.552	11.77
722.578	-11.23
722.603	6.77
722.629	-5.23
722.655	3.77
722.681	-6.23
722.707	-1.23
722.733	-11.23
722.759	-9.23
722.785	-7.23
722.811	4.77
722.837	1.77
722.863	-14.23
722.889	-4.23
722.915	-5.23
722.941	-14.23
722.967	-7.23
722.993	13.77
723.019	1.77
723.045	12.77
723.071	7.77
723.097	-5.23
723.122	-6.23
723.148	-8.23
723.174	-7.23
723.2	-0.23
723.226	-4.23
723.252	-8.23
723.278	-7.23
723.304	-1.23
723.33	1.77
723.356	-14.23
723.381	-23.23
723.407	-5.23
723.433	4.77
723.459	8.77
723.485	1.77
723.511	22.77
723.537	1.77
723.563	9.77
723.588	3.77
723.614	-5.23
723.64	7.77
723.666	-3.23
723.692	3.77
723.718	-5.23
723.744	2.77
723.769	-0.23
723.795	-9.23
723.821	1.77
723.847	-3.23
723.873	-6.23
723.899	5.77
723.924	0.77
723.95	-11.23
723.976	-20.23
724.002	-3.23
724.028	13.77
724.053	-1.23
724.079	-10.23
724.105	2.77
724.131	-0.23
724.157	8.77
724.182	10.77
724.208	-9.23
724.234	3.77
724.26	-5.23
724.286	11.77
724.311	-17.23
724.337	-7.23
724.363	6.77
724.389	-0.23
724.415	-8.23
724.44	27.77
724.466	-4.23
724.492	-6.23
724.518	-5.23
724.543	-0.23
724.569	-11.23
724.595	10.77
724.621	-12.23
724.646	-9.23
724.672	-7.23
724.698	-16.23
724.723	1.77
724.749	-2.23
724.775	0.77
724.801	9.77
724.826	-14.23
724.852	-3.23
724.878	-20.23
724.904	-3.23
724.929	3.77
724.955	-7.23
724.981	-11.23
725.006	4.77
725.032	-2.23
725.058	5.77
725.083	2.77
725.109	-1.23
725.135	-3.23
725.161	1.77
725.186	-15.23
725.212	-20.23
725.238	13.77
725.263	-5.23
725.289	-14.23
725.315	-18.23
725.34	-1.23
725.366	11.77
725.392	4.77
725.417	5.77
725.443	3.77
725.468	0.77
725.494	12.77
725.52	9.77
725.545	6.77
725.571	-1.23
725.597	-4.23
725.622	4.77
725.648	5.77
725.674	9.77
725.699	1.77
725.725	-13.23
725.75	20.77
725.776	-17.23
725.802	-1.23
725.827	-2.23
725.853	-3.23
725.878	-13.23
725.904	-12.23
725.93	0.77
725.955	-7.23
725.981	-7.23
726.006	-5.23
726.032	13.77
726.057	2.77
726.083	-9.23
726.109	-1.23
726.134	4.77
726.16	-0.23
726.185	9.77
726.211	-23.23
726.236	-2.23
726.262	8.77
726.288	-0.23
726.313	14.77
726.339	6.77
726.364	2.77
726.39	-1.23
726.415	-8.23
726.441	-11.23
726.466	-22.23
726.492	-5.23
726.517	5.77
726.543	-8.23
726.568	-21.23
726.594	-4.23
726.619	0.77
726.645	-4.23
726.67	10.77
726.696	6.77
726.721	-9.23
726.747	-14.23
726.772	-7.23
726.798	-4.23
726.823	2.77
726.849	-8.23
726.874	-1.23
726.9	8.77
726.925	-1.23
726.951	-1.23
726.976	-6.23
727.002	-12.23
727.027	0.77
727.053	2.77
727.078	-13.23
727.104	8.77
727.129	-30.23
727.155	-1.23
727.18	10.77
727.205	12.77
727.231	-7.23
727.256	-6.23
727.282	2.77
727.307	-2.23
727.333	-4.23
727.358	-6.23
727.383	-7.23
727.409	-11.23
727.434	4.77
727.46	-6.23
727.485	-19.23
727.511	3.77
727.536	4.77
727.561	5.77
727.587	-11.23
727.612	-14.23
727.637	-11.23
727.663	-8.23
727.688	7.77
727.714	-3.23
727.739	-3.23
727.764	-2.23
727.79	6.77
727.815	-2.23
727.841	20.77
727.866	9.77
727.891	11.77
727.917	-13.23
727.942	-5.23
727.967	-2.23
727.993	-10.23
728.018	-9.23
728.043	-12.23
728.069	0.77
728.094	11.77
728.119	-4.23
728.145	5.77
728.17	10.77
728.195	-5.23
728.221	7.77
728.246	5.77
728.271	-8.23
728.297	-1.23
728.322	17.77
728.347	2.77
728.373	1.77
728.398	12.77
728.423	-1.23
728.448	2.77
728.474	1.77
728.499	13.77
728.524	11.77
728.55	1.77
728.575	-15.23
728.6	3.77
728.625	-2.23
728.651	-0.23
728.676	-1.23
728.701	-0.23
728.727	1.77
728.752	-16.23
728.777	-23.23
728.802	0.77
728.828	-10.23
728.853	4.77
728.878	-13.23
728.903	-6.23
728.929	-12.23
728.954	-13.23
728.979	-0.23
729.004	-12.23
729.03	3.77
729.055	16.77
729.08	-9.23
729.105	-9.23
729.13	15.77
729.156	11.77
729.181	6.77
729.206	-17.23
729.231	-0.23
729.256	3.77
729.282	-0.23
729.307	-13.23
729.332	-2.23
729.357	-16.23
729.382	0.77
729.408	7.77
729.433	-6.23
729.458	10.77
729.483	2.77
729.508	15.77
729.533	18.77
729.559	-7.23
729.584	-11.23
729.609	-14.23
729.634	13.77
729.659	-25.23
729.684	1.77
729.71	14.77
729.735	-6.23
729.76	-13.23
729.785	-1.23
729.81	3.77
729.835	-6.23
729.86	-7.23
729.886	1.77
729.911	5.77
729.936	-6.23
729.961	-13.23
729.986	-4.23
730.011	-2.23
730.036	-4.23
730.061	1.77
730.086	3.77
730.112	14.77
730.137	13.77
730.162	-0.23
730.187	-4.23
730.212	-6.23
730.237	-8.23
730.262	-2.23
730.287	-16.23
730.312	6.77
730.337	-9.23
730.362	19.77
730.387	1.77
730.413	-32.23
730.438	-4.23
730.463	-0.23
730.488	-12.23
730.513	2.77
730.538	3.77
730.563	9.77
730.588	11.77
730.613	21.77
730.638	-14.23
730.663	-11.23
730.688	12.77
730.713	-3.23
730.738	14.77
730.763	-0.23
730.788	-18.23
730.813	7.77
730.838	-8.23
730.863	1.77
730.888	1.77
730.913	-11.23
730.938	-6.23
730.963	-4.23
730.988	17.77
731.013	18.77
731.038	1.77
731.063	-6.23
731.088	6.77
731.113	-6.23
731.138	-17.23
731.163	-6.23
731.188	-8.23
731.213	-1.23
731.238	3.77
731.263	-6.23
731.288	6.77
731.313	6.77
731.338	9.77
731.363	6.77
731.388	18.77
731.413	16.77
731.438	6.77
731.463	5.77
731.487	2.77
731.512	-8.23
731.537	-17.23
731.562	-0.23
731.587	6.77
731.612	-11.23
731.637	-6.23
731.662	-8.23
731.687	-8.23
731.712	-8.23
731.737	2.77
731.762	-20.23
731.786	1.77
731.811	17.77
731.836	7.77
731.861	-9.23
731.886	-1.23
731.911	1.77
731.936	10.77
731.961	0.77
731.986	-10.23
732.01	-3.23
732.035	10.77
732.06	-1.23
732.085	-1.23
732.11	-16.23
732.135	-14.23
732.16	-12.23
732.184	-12.23
732.209	-0.23
732.234	5.77
732.259	6.77
732.284	21.77
732.309	0.77
732.334	-8.23
732.358	-18.23
732.383	-24.23
732.408	1.77
732.433	5.77
732.458	9.77
732.482	3.77
732.507	-7.23
732.532	18.77
732.557	17.77
732.582	-1.23
732.607	-0.23
732.631	-11.23
732.656	-21.23
732.681	-13.23
732.706	-6.23
732.73	-9.23
732.755	2.77
732.78	-5.23
732.805	-9.23
732.83	-2.23
732.854	-1.23
732.879	8.77
732.904	-8.23
732.929	-13.23
732.953	-2.23
732.978	-10.23
733.003	-12.23
733.028	-4.23
733.052	2.77
733.077	3.77
733.102	18.77
733.127	7.77
733.151	11.77
733.176	10.77
733.201	-0.23
733.226	-14.23
733.25	-14.23
733.275	-8.23
733.3	-1.23
733.324	9.77
733.349	-0.23
733.374	6.77
733.399	-4.23
733.423	-15.23
733.448	-6.23
733.473	2.77
733.497	-0.23
733.522	-4.23
733.547	7.77
733.571	17.77
733.596	-1.23
733.621	-5.23
733.646	-9.23
733.67	-0.23
733.695	-2.23
733.72	11.77
733.744	5.77
733.769	5.77
733.794	24.77
733.818	-11.23
733.843	3.77
733.867	-16.23
733.892	-10.23
733.917	-1.23
733.941	-5.23
733.966	-15.23
733.991	-5.23
734.015	9.77
734.04	7.77
734.065	6.77
734.089	22.77
734.114	5.77
734.138	3.77
734.163	10.77
734.188	-2.23
734.212	-1.23
734.237	6.77
734.261	14.77
734.286	9.77
734.311	6.77
734.335	-1.23
734.36	-4.23
734.384	3.77
734.409	2.77
734.434	-15.23
734.458	8.77
734.483	-1.23
734.507	-12.23
734.532	-2.23
734.556	4.77
734.581	9.77
734.606	-2.23
734.63	2.77
734.655	-0.23
734.679	-1.23
734.704	1.77
734.728	-8.23
734.753	-3.23
734.777	10.77
734.802	2.77
734.826	13.77
734.851	-15.23
734.876	7.77
734.9	-6.23
734.925	-5.23
734.949	-6.23
734.974	-2.23
734.998	2.77
735.023	-8.23
735.047	-6.23
735.072	21.77
735.096	5.77
735.121	-6.23
735.145	-7.23
735.17	-8.23
735.194	1.77
735.219	-11.23
735.243	-5.23
735.268	0.77
735.292	12.77
735.317	0.77
735.341	7.77
735.365	-21.23
735.39	8.77
735.414	2.77
735.439	-0.23
735.463	-3.23
735.488	0.77
735.512	-7.23
735.537	-3.23
735.561	-0.23
735.586	8.77
735.61	2.77
735.634	1.77
735.659	11.77
735.683	29.77
735.708	-1.23
735.732	-9.23
735.757	1.77
735.781	2.77
735.805	8.77
735.83	-16.23
735.854	-5.23
735.879	-13.23
735.903	22.77
735.927	9.77
735.952	5.77
735.976	-4.23
736.001	-4.23
736.025	-5.23
736.049	8.77
736.074	-5.23
736.098	0.77
736.123	9.77
736.147	4.77
736.171	0.77
736.196	-10.23
736.22	-5.23
736.244	-14.23
736.269	-9.23
736.293	2.77
736.317	10.77
736.342	-1.23
736.366	5.77
736.39	24.77
736.415	-7.23
736.439	14.77
736.463	5.77
736.488	5.77
736.512	9.77
736.536	0.77
736.561	14.77
736.585	2.77
736.609	-0.23
736.634	-9.23
736.658	-6.23
736.682	-27.23
736.707	-14.23
736.731	-15.23
736.755	-1.23
736.78	5.77
736.804	8.77
736.828	7.77
736.852	0.77
736.877	10.77
736.901	12.77
736.925	-1.23
736.949	-5.23
736.974	-2.23
736.998	-23.23
737.022	0.77
737.047	-22.23
737.071	-13.23
737.095	14.77
737.119	16.77
737.144	12.77
737.168	-8.23
737.192	-7.23
737.216	2.77
737.241	-1.23
737.265	14.77
737.289	-8.23
737.313	-7.23
737.337	11.77
737.362	11.77
737.386	-15.23
737.41	-16.23
737.434	-14.23
737.459	-7.23
737.483	17.77
737.507	2.77
737.531	5.77
737.555	-5.23
737.58	6.77
737.604	-2.23
737.628	-20.23
737.652	-5.23
737.676	2.77
737.701	-4.23
737.725	7.77
737.749	6.77
737.773	-8.23
737.797	-5.23
737.821	8.77
737.846	-7.23
737.87	26.77
737.894	4.77
737.918	6.77
737.942	3.77
737.966	8.77
737.99	1.77
738.015	0.77
738.039	-4.23
738.063	-6.23
738.087	11.77
738.111	12.77
738.135	15.77
738.159	-9.23
738.184	-12.23
738.208	-8.23
738.232	5.77
738.256	18.77
738.28	10.77
738.304	11.77
738.328	2.77
738.352	-0.23
738.376	0.77
738.4	7.77
738.425	11.77
738.449	-4.23
738.473	20.77
738.497	16.77
738.521	-1.23
738.545	3.77
738.569	9.77
738.593	23.77
738.617	7.77
738.641	3.77
738.665	16.77
738.689	2.77
738.713	-0.23
738.737	18.77
738.762	11.77
738.786	-1.23
738.81	-8.23
738.834	6.77
738.858	-0.23
738.882	5.77
738.906	-4.23
738.93	1.77
738.954	-6.23
738.978	-4.23
739.002	-10.23
739.026	9.77
739.05	6.77
739.074	-4.23
739.098	10.77
739.122	22.77
739.146	17.77
739.17	5.77
739.194	7.77
739.218	-8.23
739.242	-17.23
739.266	-5.23
739.29	14.77
739.314	0.77
739.338	5.77
739.362	6.77
739.386	2.77
739.41	-7.23
739.434	-15.23
739.458	23.77
739.482	2.77
739.506	7.77
739.53	1.77
739.554	13.77
739.577	1.77
739.601	6.77
739.625	-17.23
739.649	-13.23
739.673	-5.23
739.697	-1.23
739.721	-1.23
739.745	-2.23
739.769	3.77
739.793	16.77
739.817	15.77
739.841	-12.23
739.865	2.77
739.889	-18.23
739.912	10.77
739.936	2.77
739.96	-7.23
739.984	-5.23
740.008	13.77
740.032	-7.23
740.056	-2.23
740.08	-7.23
740.104	-7.23
740.127	-1.23
740.151	13.77
740.175	9.77
740.199	6.77
740.223	35.77
740.247	7.77
740.271	5.77
740.295	-13.23
740.318	-9.23
740.342	-5.23
740.366	-0.23
740.39	14.77
740.414	7.77
740.438	1.77
740.461	17.77
740.485	7.77
740.509	6.77
740.533	1.77
740.557	-8.23
740.581	-4.23
740.604	-29.23
740.628	-1.23
740.652	-4.23
740.676	-8.23
740.7	-9.23
740.723	-11.23
740.747	-14.23
740.771	-9.23
740.795	-14.23
740.819	4.77
740.842	7.77
740.866	11.77
740.89	7.77
740.914	-11.23
740.938	-0.23
740.961	-7.23
740.985	-6.23
741.009	-9.23
741.033	0.77
741.056	10.77
741.08	-5.23
741.104	-25.23
741.128	0.77
741.151	11.77
741.175	11.77
741.199	13.77
741.223	15.77
741.246	0.77
741.27	-3.23
741.294	-6.23
741.318	-6.23
741.341	3.77
741.365	-5.23
741.389	-9.23
741.413	-6.23
741.436	2.77
741.46	14.77
741.484	4.77
741.507	1.77
741.531	5.77
741.555	3.77
741.579	6.77
741.602	-1.23
741.626	11.77
741.65	4.77
741.673	1.77
741.697	-0.23
741.721	3.77
741.744	-15.23
741.768	-13.23
741.792	-8.23
741.815	-2.23
741.839	14.77
741.863	11.77
741.886	7.77
741.91	7.77
741.934	1.77
741.957	-11.23
741.981	6.77
742.005	-6.23
742.028	-5.23
742.052	-5.23
742.075	0.77
742.099	3.77
742.123	-1.23
742.146	-4.23
742.17	-2.23
742.194	-10.23
742.217	4.77
742.241	-2.23
742.264	-7.23
742.288	7.77
742.312	-1.23
742.335	9.77
742.359	10.77
742.382	13.77
742.406	10.77
742.43	-17.23
742.453	-5.23
742.477	-5.23
742.5	9.77
742.524	0.77
742.548	-14.23
742.571	1.77
742.595	16.77
742.618	-12.23
742.642	-4.23
742.665	9.77
742.689	-5.23
742.712	7.77
742.736	-4.23
742.76	-2.23
742.783	-0.23
742.807	4.77
742.83	-3.23
742.854	-25.23
742.877	-16.23
742.901	3.77
742.924	6.77
742.948	3.77
742.971	-8.23
742.995	-3.23
743.018	-2.23
743.042	-1.23
743.065	-0.23
743.089	-9.23
743.112	-2.23
743.136	-7.23
743.159	-5.23
743.183	-9.23
743.206	-14.23
743.23	-7.23
743.253	2.77
743.277	14.77
743.3	-8.23
743.324	1.77
743.347	-14.23
743.371	6.77
743.394	6.77
743.418	5.77
743.441	6.77
743.465	-1.23
743.488	-0.23
743.512	-10.23
743.535	2.77
743.558	4.77
743.582	25.77
743.605	3.77
743.629	8.77
743.652	8.77
743.676	-1.23
743.699	-0.23
743.723	8.77
743.746	9.77
743.769	-5.23
743.793	-6.23
743.816	-3.23
743.84	19.77
743.863	5.77
743.886	2.77
743.91	2.77
743.933	13.77
743.957	1.77
743.98	-2.23
744.003	-6.23
744.027	-10.23
744.05	8.77
744.074	10.77
744.097	-6.23
744.12	-2.23
744.144	-9.23
744.167	9.77
744.19	6.77
744.214	2.77
744.237	-2.23
744.26	6.77
744.284	-5.23
744.307	-17.23
744.331	-3.23
744.354	5.77
744.377	-4.23
744.401	-6.23
744.424	-9.23
744.447	-10.23
744.471	-12.23
