Data from HighRes_H2_15_09_11_07_2024_HR4C61891__148__15-11-11-201.txt Node

Date: Thu Nov 07 15:11:11 EST 2024
User: crc00042
Spectrometer: HR4C6189
Trigger mode: 4
Integration Time (sec): 1.000000E-1
Scans to average: 1
Electric dark correction enabled: true
Nonlinearity correction enabled: false
Boxcar width: 0
XAxis mode: Wavelengths
Number of Pixels in Spectrum: 3648
>>>>>Begin Spectral Data<<<<<
639.567	-36.85
639.602	-36.85
639.636	-36.85
639.67	-47.85
639.704	-4.85
639.738	8.15
639.773	11.15
639.807	-16.85
639.841	2.15
639.875	7.15
639.909	-4.85
639.943	-16.85
639.978	-0.85
640.012	-2.85
640.046	8.15
640.08	-3.85
640.114	9.15
640.148	0.15
640.182	-4.85
640.217	8.15
640.251	9.15
640.285	0.15
640.319	-10.85
640.353	8.15
640.387	-5.85
640.421	7.15
640.455	-5.85
640.49	-5.85
640.524	-6.85
640.558	25.15
640.592	7.15
640.626	6.15
640.66	18.15
640.694	-18.85
640.728	2.15
640.762	19.15
640.796	16.15
640.83	22.15
640.865	12.15
640.899	5.15
640.933	7.15
640.967	7.15
641.001	9.15
641.035	19.15
641.069	6.15
641.103	-17.85
641.137	-7.85
641.171	2.15
641.205	10.15
641.239	8.15
641.273	-0.85
641.307	11.15
641.341	-3.85
641.375	-11.85
641.409	-14.85
641.443	3.15
641.477	-3.85
641.511	12.15
641.545	14.15
641.579	3.15
641.614	6.15
641.648	10.15
641.682	-10.85
641.716	6.15
641.75	16.15
641.784	2.15
641.818	-2.85
641.852	19.15
641.886	-7.85
641.919	10.15
641.953	-1.85
641.987	-11.85
642.021	-5.85
642.055	20.15
642.089	12.15
642.123	-10.85
642.157	-8.85
642.191	1.15
642.225	5.15
642.259	-8.85
642.293	13.15
642.327	-0.85
642.361	8.15
642.395	18.15
642.429	35.15
642.463	17.15
642.497	8.15
642.531	15.15
642.565	4.15
642.599	-1.85
642.633	-0.85
642.666	2.15
642.7	27.15
642.734	23.15
642.768	-4.85
642.802	4.15
642.836	20.15
642.87	9.15
642.904	7.15
642.938	3.15
642.972	17.15
643.005	1.15
643.039	12.15
643.073	-2.85
643.107	7.15
643.141	-9.85
643.175	14.15
643.209	5.15
643.243	13.15
643.276	0.15
643.31	6.15
643.344	-2.85
643.378	-4.85
643.412	13.15
643.446	0.15
643.48	0.15
643.513	31.15
643.547	12.15
643.581	-0.85
643.615	27.15
643.649	8.15
643.683	8.15
643.716	21.15
643.75	23.15
643.784	-5.85
643.818	17.15
643.852	13.15
643.886	10.15
643.919	14.15
643.953	5.15
643.987	0.15
644.021	15.15
644.055	-1.85
644.088	-5.85
644.122	-11.85
644.156	-3.85
644.19	-5.85
644.224	7.15
644.257	2.15
644.291	0.15
644.325	1.15
644.359	-2.85
644.392	26.15
644.426	24.15
644.46	-10.85
644.494	1.15
644.527	-8.85
644.561	9.15
644.595	15.15
644.629	-5.85
644.662	-8.85
644.696	9.15
644.73	6.15
644.764	10.15
644.797	3.15
644.831	1.15
644.865	4.15
644.899	-6.85
644.932	22.15
644.966	8.15
645	5.15
645.033	12.15
645.067	-6.85
645.101	5.15
645.135	2.15
645.168	12.15
645.202	-12.85
645.236	4.15
645.269	18.15
645.303	-1.85
645.337	-16.85
645.37	-4.85
645.404	9.15
645.438	5.15
645.471	6.15
645.505	6.15
645.539	6.15
645.572	-9.85
645.606	11.15
645.64	1.15
645.673	5.15
645.707	28.15
645.741	13.15
645.774	8.15
645.808	17.15
645.842	9.15
645.875	22.15
645.909	5.15
645.943	2.15
645.976	10.15
646.01	11.15
646.043	16.15
646.077	23.15
646.111	6.15
646.144	11.15
646.178	1.15
646.212	2.15
646.245	-1.85
646.279	12.15
646.312	9.15
646.346	10.15
646.38	8.15
646.413	22.15
646.447	13.15
646.48	1.15
646.514	0.15
646.547	-3.85
646.581	7.15
646.615	5.15
646.648	0.15
646.682	0.15
646.715	12.15
646.749	12.15
646.782	-6.85
646.816	14.15
646.85	20.15
646.883	-3.85
646.917	5.15
646.95	-12.85
646.984	5.15
647.017	10.15
647.051	8.15
647.084	16.15
647.118	6.15
647.151	15.15
647.185	2.15
647.218	-15.85
647.252	-5.85
647.285	-4.85
647.319	-0.85
647.353	9.15
647.386	16.15
647.42	21.15
647.453	10.15
647.487	4.15
647.52	-5.85
647.553	8.15
647.587	3.15
647.62	13.15
647.654	6.15
647.687	14.15
647.721	13.15
647.754	-5.85
647.788	8.15
647.821	-3.85
647.855	5.15
647.888	17.15
647.922	8.15
647.955	9.15
647.989	18.15
648.022	3.15
648.055	8.15
648.089	-2.85
648.122	42.15
648.156	11.15
648.189	6.15
648.223	16.15
648.256	13.15
648.29	14.15
648.323	-8.85
648.356	6.15
648.39	26.15
648.423	18.15
648.457	-4.85
648.49	6.15
648.523	3.15
648.557	3.15
648.59	-4.85
648.624	5.15
648.657	6.15
648.69	33.15
648.724	17.15
648.757	12.15
648.791	7.15
648.824	24.15
648.857	21.15
648.891	4.15
648.924	9.15
648.957	22.15
648.991	-3.85
649.024	26.15
649.057	-1.85
649.091	11.15
649.124	10.15
649.158	29.15
649.191	23.15
649.224	-5.85
649.258	17.15
649.291	0.15
649.324	5.15
649.358	6.15
649.391	4.15
649.424	16.15
649.458	7.15
649.491	7.15
649.524	-0.85
649.557	-2.85
649.591	1.15
649.624	10.15
649.657	-5.85
649.691	0.15
649.724	-9.85
649.757	3.15
649.791	12.15
649.824	23.15
649.857	23.15
649.89	12.15
649.924	5.15
649.957	7.15
649.99	-6.85
650.023	4.15
650.057	-16.85
650.09	4.15
650.123	5.15
650.157	8.15
650.19	22.15
650.223	-1.85
650.256	6.15
650.29	10.15
650.323	-4.85
650.356	10.15
650.389	-13.85
650.423	-18.85
650.456	11.15
650.489	5.15
650.522	6.15
650.555	26.15
650.589	28.15
650.622	0.15
650.655	9.15
650.688	-1.85
650.721	-4.85
650.755	9.15
650.788	13.15
650.821	9.15
650.854	-3.85
650.887	8.15
650.921	2.15
650.954	-7.85
650.987	10.15
651.02	12.15
651.053	9.15
651.087	-10.85
651.12	15.15
651.153	27.15
651.186	9.15
651.219	0.15
651.252	13.15
651.286	18.15
651.319	0.15
651.352	11.15
651.385	15.15
651.418	19.15
651.451	11.15
651.484	9.15
651.518	7.15
651.551	22.15
651.584	1.15
651.617	22.15
651.65	10.15
651.683	13.15
651.716	-0.85
651.749	-16.85
651.783	2.15
651.816	7.15
651.849	7.15
651.882	5.15
651.915	-12.85
651.948	-3.85
651.981	14.15
652.014	-11.85
652.047	6.15
652.08	-14.85
652.114	-0.85
652.147	-6.85
652.18	6.15
652.213	29.15
652.246	-1.85
652.279	-7.85
652.312	-4.85
652.345	-1.85
652.378	5.15
652.411	21.15
652.444	15.15
652.477	30.15
652.51	-6.85
652.543	-13.85
652.576	15.15
652.609	-9.85
652.642	9.15
652.675	10.15
652.709	-10.85
652.742	4.15
652.775	0.15
652.808	11.15
652.841	13.15
652.874	17.15
652.907	11.15
652.94	20.15
652.973	7.15
653.006	11.15
653.039	5.15
653.072	4.15
653.105	-9.85
653.138	0.15
653.171	-3.85
653.204	-5.85
653.237	-3.85
653.27	-1.85
653.303	3.15
653.336	10.15
653.368	19.15
653.401	20.15
653.434	10.15
653.467	15.15
653.5	11.15
653.533	-4.85
653.566	-6.85
653.599	10.15
653.632	9.15
653.665	8.15
653.698	-20.85
653.731	9.15
653.764	13.15
653.797	10.15
653.83	12.15
653.863	4.15
653.896	7.15
653.929	4.15
653.961	-1.85
653.994	9.15
654.027	10.15
654.06	27.15
654.093	11.15
654.126	6.15
654.159	-9.85
654.192	2.15
654.225	5.15
654.258	-5.85
654.29	12.15
654.323	11.15
654.356	-3.85
654.389	17.15
654.422	-1.85
654.455	13.15
654.488	15.15
654.521	-4.85
654.553	-1.85
654.586	4.15
654.619	2.15
654.652	-7.85
654.685	16.15
654.718	0.15
654.751	9.15
654.783	-0.85
654.816	26.15
654.849	3.15
654.882	-10.85
654.915	4.15
654.948	9.15
654.98	4.15
655.013	-0.85
655.046	-15.85
655.079	-3.85
655.112	5.15
655.144	1.15
655.177	4.15
655.21	23.15
655.243	18.15
655.276	21.15
655.308	6.15
655.341	-12.85
655.374	7.15
655.407	-5.85
655.44	1.15
655.472	16.15
655.505	10.15
655.538	10.15
655.571	27.15
655.603	17.15
655.636	13.15
655.669	13.15
655.702	20.15
655.734	5.15
655.767	24.15
655.8	27.15
655.833	16.15
655.865	27.15
655.898	31.15
655.931	44.15
655.964	56.15
655.996	51.15
656.029	73.15
656.062	44.15
656.095	67.15
656.127	52.15
656.16	107.15
656.193	115.15
656.225	180.15
656.258	282.15
656.291	506.15
656.324	1142.15
656.356	3374.15
656.389	7598.15
656.422	6049.15
656.454	2078.15
656.487	681.15
656.52	263.15
656.552	128.15
656.585	63.15
656.618	64.15
656.65	50.15
656.683	14.15
656.716	21.15
656.748	9.15
656.781	0.15
656.814	6.15
656.846	5.15
656.879	5.15
656.912	3.15
656.944	-11.85
656.977	-2.85
657.01	-2.85
657.042	18.15
657.075	28.15
657.108	11.15
657.14	16.15
657.173	9.15
657.205	29.15
657.238	11.15
657.271	19.15
657.303	0.15
657.336	12.15
657.369	-1.85
657.401	-5.85
657.434	9.15
657.466	5.15
657.499	-3.85
657.532	8.15
657.564	2.15
657.597	12.15
657.629	15.15
657.662	0.15
657.694	7.15
657.727	-21.85
657.76	23.15
657.792	3.15
657.825	9.15
657.857	-0.85
657.89	2.15
657.922	13.15
657.955	12.15
657.987	14.15
658.02	5.15
658.053	10.15
658.085	9.15
658.118	2.15
658.15	14.15
658.183	25.15
658.215	-0.85
658.248	-0.85
658.28	5.15
658.313	12.15
658.345	31.15
658.378	1.15
658.41	2.15
658.443	11.15
658.475	7.15
658.508	11.15
658.54	7.15
658.573	0.15
658.605	11.15
658.638	-15.85
658.67	-4.85
658.703	12.15
658.735	-10.85
658.768	0.15
658.8	2.15
658.833	26.15
658.865	6.15
658.898	-10.85
658.93	-9.85
658.963	-3.85
658.995	-4.85
659.028	3.15
659.06	-3.85
659.092	-8.85
659.125	0.15
659.157	7.15
659.19	-7.85
659.222	-4.85
659.255	1.15
659.287	3.15
659.32	1.15
659.352	-1.85
659.384	15.15
659.417	7.15
659.449	2.15
659.482	6.15
659.514	-18.85
659.546	4.15
659.579	-0.85
659.611	0.15
659.644	-3.85
659.676	-14.85
659.708	-8.85
659.741	-5.85
659.773	17.15
659.806	4.15
659.838	-5.85
659.87	-10.85
659.903	2.15
659.935	17.15
659.967	9.15
660	4.15
660.032	-22.85
660.065	-0.85
660.097	-6.85
660.129	15.15
660.162	7.15
660.194	13.15
660.226	6.15
660.259	-4.85
660.291	4.15
660.323	-3.85
660.356	6.15
660.388	2.15
660.42	-6.85
660.453	18.15
660.485	-4.85
660.517	3.15
660.55	6.15
660.582	8.15
660.614	4.15
660.647	6.15
660.679	-0.85
660.711	13.15
660.743	-18.85
660.776	0.15
660.808	-20.85
660.84	-9.85
660.873	-2.85
660.905	5.15
660.937	-12.85
660.969	-7.85
661.002	28.15
661.034	27.15
661.066	8.15
661.099	10.15
661.131	10.15
661.163	3.15
661.195	6.15
661.228	6.15
661.26	-1.85
661.292	-0.85
661.324	-0.85
661.357	14.15
661.389	15.15
661.421	18.15
661.453	-3.85
661.485	8.15
661.518	10.15
661.55	-3.85
661.582	-8.85
661.614	16.15
661.647	23.15
661.679	5.15
661.711	5.15
661.743	-9.85
661.775	6.15
661.808	30.15
661.84	-8.85
661.872	15.15
661.904	4.15
661.936	4.15
661.969	-0.85
662.001	-11.85
662.033	11.15
662.065	-15.85
662.097	13.15
662.129	-2.85
662.162	5.15
662.194	15.15
662.226	16.15
662.258	9.15
662.29	14.15
662.322	-4.85
662.355	-13.85
662.387	4.15
662.419	-0.85
662.451	17.15
662.483	18.15
662.515	-1.85
662.547	-9.85
662.58	8.15
662.612	-1.85
662.644	-11.85
662.676	15.15
662.708	19.15
662.74	6.15
662.772	-4.85
662.804	9.15
662.836	13.15
662.869	-2.85
662.901	8.15
662.933	1.15
662.965	4.15
662.997	8.15
663.029	-0.85
663.061	-2.85
663.093	-2.85
663.125	8.15
663.157	10.15
663.189	3.15
663.221	19.15
663.254	7.15
663.286	23.15
663.318	2.15
663.35	-9.85
663.382	-2.85
663.414	5.15
663.446	13.15
663.478	4.15
663.51	19.15
663.542	0.15
663.574	4.15
663.606	-1.85
663.638	-20.85
663.67	-10.85
663.702	-0.85
663.734	-1.85
663.766	5.15
663.798	9.15
663.83	4.15
663.862	15.15
663.894	2.15
663.926	7.15
663.958	28.15
663.99	4.15
664.022	2.15
664.054	12.15
664.086	-0.85
664.118	15.15
664.15	10.15
664.182	8.15
664.214	12.15
664.246	19.15
664.278	14.15
664.31	18.15
664.342	-1.85
664.374	7.15
664.406	-3.85
664.438	3.15
664.47	7.15
664.502	5.15
664.534	4.15
664.566	-0.85
664.598	10.15
664.63	-0.85
664.662	13.15
664.693	28.15
664.725	-8.85
664.757	4.15
664.789	-15.85
664.821	7.15
664.853	10.15
664.885	10.15
664.917	4.15
664.949	19.15
664.981	19.15
665.013	-5.85
665.045	-3.85
665.076	-12.85
665.108	3.15
665.14	-2.85
665.172	4.15
665.204	-16.85
665.236	-8.85
665.268	12.15
665.3	4.15
665.331	-11.85
665.363	8.15
665.395	8.15
665.427	1.15
665.459	12.15
665.491	-0.85
665.523	16.15
665.555	11.15
665.586	18.15
665.618	12.15
665.65	-3.85
665.682	6.15
665.714	-0.85
665.746	-5.85
665.777	1.15
665.809	-6.85
665.841	13.15
665.873	8.15
665.905	9.15
665.937	12.15
665.968	11.15
666	6.15
666.032	5.15
666.064	-5.85
666.096	-0.85
666.127	8.15
666.159	24.15
666.191	6.15
666.223	10.15
666.255	2.15
666.286	5.15
666.318	9.15
666.35	26.15
666.382	3.15
666.413	-10.85
666.445	-10.85
666.477	-18.85
666.509	-4.85
666.54	-4.85
666.572	5.15
666.604	12.15
666.636	-4.85
666.667	21.15
666.699	15.15
666.731	10.15
666.763	7.15
666.794	-0.85
666.826	11.15
666.858	11.15
666.89	4.15
666.921	4.15
666.953	11.15
666.985	6.15
667.017	21.15
667.048	4.15
667.08	3.15
667.112	5.15
667.143	-6.85
667.175	13.15
667.207	-11.85
667.238	17.15
667.27	16.15
667.302	1.15
667.334	-2.85
667.365	13.15
667.397	6.15
667.429	-11.85
667.46	10.15
667.492	26.15
667.524	6.15
667.555	1.15
667.587	13.15
667.619	0.15
667.65	0.15
667.682	-1.85
667.714	1.15
667.745	14.15
667.777	-5.85
667.808	4.15
667.84	23.15
667.872	7.15
667.903	26.15
667.935	4.15
667.967	12.15
667.998	8.15
668.03	13.15
668.061	5.15
668.093	3.15
668.125	10.15
668.156	12.15
668.188	5.15
668.22	2.15
668.251	11.15
668.283	11.15
668.314	16.15
668.346	-18.85
668.377	9.15
668.409	11.15
668.441	12.15
668.472	-2.85
668.504	7.15
668.535	17.15
668.567	9.15
668.599	9.15
668.63	3.15
668.662	2.15
668.693	23.15
668.725	3.15
668.756	0.15
668.788	-8.85
668.819	10.15
668.851	6.15
668.882	-1.85
668.914	-5.85
668.946	20.15
668.977	5.15
669.009	12.15
669.04	-12.85
669.072	9.15
669.103	5.15
669.135	-3.85
669.166	2.15
669.198	11.15
669.229	2.15
669.261	1.15
669.292	5.15
669.324	0.15
669.355	4.15
669.387	-13.85
669.418	2.15
669.45	-7.85
669.481	7.15
669.513	8.15
669.544	9.15
669.576	-3.85
669.607	7.15
669.639	17.15
669.67	7.15
669.701	-0.85
669.733	-2.85
669.764	14.15
669.796	-2.85
669.827	-17.85
669.859	-4.85
669.89	4.15
669.922	10.15
669.953	26.15
669.985	26.15
670.016	5.15
670.047	17.15
670.079	7.15
670.11	12.15
670.142	11.15
670.173	4.15
670.204	2.15
670.236	2.15
670.267	-0.85
670.299	0.15
670.33	-0.85
670.362	-1.85
670.393	-5.85
670.424	11.15
670.456	-10.85
670.487	-8.85
670.518	-0.85
670.55	6.15
670.581	1.15
670.613	10.15
670.644	3.15
670.675	-6.85
670.707	-13.85
670.738	7.15
670.769	-2.85
670.801	0.15
670.832	-0.85
670.864	4.15
670.895	-7.85
670.926	-2.85
670.958	11.15
670.989	2.15
671.02	4.15
671.052	3.15
671.083	21.15
671.114	2.15
671.146	23.15
671.177	8.15
671.208	16.15
671.24	-3.85
671.271	4.15
671.302	-4.85
671.333	-11.85
671.365	7.15
671.396	4.15
671.427	6.15
671.459	10.15
671.49	12.15
671.521	12.15
671.553	5.15
671.584	17.15
671.615	4.15
671.646	-1.85
671.678	9.15
671.709	-6.85
671.74	-22.85
671.771	9.15
671.803	-7.85
671.834	-15.85
671.865	-10.85
671.896	23.15
671.928	5.15
671.959	-8.85
671.99	2.15
672.021	-2.85
672.053	-11.85
672.084	24.15
672.115	7.15
672.146	-21.85
672.178	-13.85
672.209	-13.85
672.24	10.15
672.271	25.15
672.303	7.15
672.334	13.15
672.365	8.15
672.396	-0.85
672.427	-10.85
672.459	4.15
672.49	36.15
672.521	9.15
672.552	14.15
672.583	11.15
672.615	-3.85
672.646	14.15
672.677	-10.85
672.708	-29.85
672.739	-5.85
672.77	16.15
672.802	3.15
672.833	13.15
672.864	10.15
672.895	-1.85
672.926	-9.85
672.957	-9.85
672.989	-2.85
673.02	7.15
673.051	0.15
673.082	8.15
673.113	2.15
673.144	10.15
673.175	-5.85
673.206	-5.85
673.238	-6.85
673.269	-9.85
673.3	5.15
673.331	8.15
673.362	4.15
673.393	4.15
673.424	4.15
673.455	24.15
673.487	1.15
673.518	8.15
673.549	9.15
673.58	-10.85
673.611	9.15
673.642	12.15
673.673	5.15
673.704	-0.85
673.735	6.15
673.766	-2.85
673.797	2.15
673.828	-3.85
673.86	-16.85
673.891	-4.85
673.922	-22.85
673.953	-14.85
673.984	4.15
674.015	13.15
674.046	1.15
674.077	13.15
674.108	-3.85
674.139	6.15
674.17	-1.85
674.201	3.15
674.232	5.15
674.263	13.15
674.294	3.15
674.325	-15.85
674.356	2.15
674.387	16.15
674.418	11.15
674.449	-11.85
674.48	-0.85
674.511	9.15
674.542	3.15
674.573	-10.85
674.604	7.15
674.635	-5.85
674.666	-11.85
674.697	5.15
674.728	10.15
674.759	5.15
674.79	-11.85
674.821	11.15
674.852	11.15
674.883	-2.85
674.914	-5.85
674.945	4.15
674.976	6.15
675.007	-8.85
675.038	-9.85
675.069	-1.85
675.1	-6.85
675.131	9.15
675.162	-1.85
675.193	4.15
675.224	-1.85
675.254	4.15
675.285	-3.85
675.316	13.15
675.347	9.15
675.378	0.15
675.409	-4.85
675.44	7.15
675.471	5.15
675.502	-9.85
675.533	-8.85
675.564	6.15
675.595	11.15
675.625	40.15
675.656	8.15
675.687	4.15
675.718	-4.85
675.749	9.15
675.78	19.15
675.811	-0.85
675.842	0.15
675.873	-6.85
675.903	-7.85
675.934	4.15
675.965	10.15
675.996	-14.85
676.027	-7.85
676.058	-14.85
676.089	-7.85
676.119	-4.85
676.15	21.15
676.181	6.15
676.212	-6.85
676.243	12.15
676.274	-12.85
676.304	14.15
676.335	3.15
676.366	10.15
676.397	11.15
676.428	1.15
676.459	3.15
676.489	15.15
676.52	16.15
676.551	14.15
676.582	-7.85
676.613	2.15
676.643	3.15
676.674	11.15
676.705	17.15
676.736	4.15
676.767	14.15
676.797	11.15
676.828	10.15
676.859	-24.85
676.89	-3.85
676.92	3.15
676.951	3.15
676.982	9.15
677.013	-4.85
677.044	23.15
677.074	10.15
677.105	3.15
677.136	20.15
677.167	3.15
677.197	10.15
677.228	8.15
677.259	-20.85
677.289	5.15
677.32	-8.85
677.351	8.15
677.382	6.15
677.412	2.15
677.443	17.15
677.474	-8.85
677.505	-4.85
677.535	6.15
677.566	7.15
677.597	0.15
677.627	4.15
677.658	0.15
677.689	5.15
677.72	-5.85
677.75	-10.85
677.781	7.15
677.812	13.15
677.842	5.15
677.873	-9.85
677.904	0.15
677.934	9.15
677.965	2.15
677.996	-0.85
678.026	-1.85
678.057	7.15
678.088	0.15
678.118	15.15
678.149	-11.85
678.18	6.15
678.21	8.15
678.241	-1.85
678.272	8.15
678.302	7.15
678.333	6.15
678.363	-6.85
678.394	4.15
678.425	2.15
678.455	-9.85
678.486	-5.85
678.517	-8.85
678.547	-1.85
678.578	-1.85
678.608	-3.85
678.639	2.15
678.67	-8.85
678.7	-7.85
678.731	3.15
678.761	-1.85
678.792	2.15
678.823	15.15
678.853	10.15
678.884	-15.85
678.914	6.15
678.945	5.15
678.975	-2.85
679.006	1.15
679.037	12.15
679.067	13.15
679.098	-5.85
679.128	6.15
679.159	7.15
679.189	23.15
679.22	4.15
679.25	13.15
679.281	8.15
679.312	0.15
679.342	10.15
679.373	17.15
679.403	1.15
679.434	3.15
679.464	-12.85
679.495	-14.85
679.525	-12.85
679.556	0.15
679.586	9.15
679.617	16.15
679.647	2.15
679.678	2.15
679.708	-0.85
679.739	-0.85
679.769	-6.85
679.8	-5.85
679.83	23.15
679.861	12.15
679.891	-6.85
679.922	3.15
679.952	-1.85
679.983	0.15
680.013	0.15
680.044	-11.85
680.074	18.15
680.105	10.15
680.135	-0.85
680.165	1.15
680.196	16.15
680.226	7.15
680.257	15.15
680.287	13.15
680.318	-5.85
680.348	-6.85
680.379	2.15
680.409	3.15
680.439	2.15
680.47	8.15
680.5	5.15
680.531	2.15
680.561	12.15
680.592	27.15
680.622	14.15
680.652	-16.85
680.683	7.15
680.713	-10.85
680.744	-10.85
680.774	-3.85
680.804	16.15
680.835	1.15
680.865	-15.85
680.896	16.15
680.926	28.15
680.956	4.15
680.987	1.15
681.017	3.15
681.047	12.15
681.078	-16.85
681.108	-7.85
681.139	-8.85
681.169	-12.85
681.199	14.15
681.23	18.15
681.26	5.15
681.29	-5.85
681.321	-7.85
681.351	7.15
681.381	-2.85
681.412	19.15
681.442	-0.85
681.472	16.15
681.503	9.15
681.533	-3.85
681.563	8.15
681.594	2.15
681.624	7.15
681.654	5.15
681.685	14.15
681.715	-5.85
681.745	0.15
681.775	4.15
681.806	2.15
681.836	18.15
681.866	7.15
681.897	0.15
681.927	7.15
681.957	-8.85
681.987	-3.85
682.018	0.15
682.048	0.15
682.078	16.15
682.109	19.15
682.139	13.15
682.169	8.15
682.199	8.15
682.23	1.15
682.26	-6.85
682.29	-5.85
682.32	-11.85
682.351	-6.85
682.381	-4.85
682.411	13.15
682.441	2.15
682.472	-5.85
682.502	-14.85
682.532	-9.85
682.562	-0.85
682.592	3.15
682.623	26.15
682.653	15.15
682.683	10.15
682.713	13.15
682.743	8.15
682.774	-2.85
682.804	3.15
682.834	17.15
682.864	7.15
682.894	11.15
682.925	2.15
682.955	1.15
682.985	2.15
683.015	18.15
683.045	29.15
683.076	-13.85
683.106	1.15
683.136	-5.85
683.166	-16.85
683.196	-16.85
683.226	-0.85
683.257	-0.85
683.287	-5.85
683.317	-8.85
683.347	0.15
683.377	-3.85
683.407	13.15
683.437	2.15
683.468	16.15
683.498	-4.85
683.528	0.15
683.558	-13.85
683.588	-5.85
683.618	-0.85
683.648	12.15
683.678	31.15
683.708	8.15
683.739	-6.85
683.769	13.15
683.799	0.15
683.829	13.15
683.859	9.15
683.889	8.15
683.919	10.15
683.949	12.15
683.979	6.15
684.009	-7.85
684.039	2.15
684.07	3.15
684.1	8.15
684.13	1.15
684.16	7.15
684.19	17.15
684.22	10.15
684.25	-1.85
684.28	5.15
684.31	25.15
684.34	15.15
684.37	0.15
684.4	10.15
684.43	15.15
684.46	9.15
684.49	24.15
684.52	26.15
684.55	10.15
684.58	2.15
684.61	10.15
684.64	24.15
684.67	3.15
684.7	6.15
684.73	13.15
684.76	4.15
684.79	24.15
684.82	10.15
684.85	-9.85
684.88	4.15
684.91	11.15
684.94	5.15
684.97	5.15
685	-2.85
685.03	-6.85
685.06	-11.85
685.09	1.15
685.12	16.15
685.15	-11.85
685.18	18.15
685.21	-3.85
685.24	7.15
685.27	16.15
685.3	4.15
685.33	2.15
685.36	6.15
685.39	-12.85
685.42	-16.85
685.45	-2.85
685.48	12.15
685.51	-18.85
685.54	21.15
685.569	8.15
685.599	6.15
685.629	3.15
685.659	14.15
685.689	10.15
685.719	-8.85
685.749	-0.85
685.779	3.15
685.809	9.15
685.839	-8.85
685.869	-6.85
685.898	4.15
685.928	7.15
685.958	-10.85
685.988	9.15
686.018	-4.85
686.048	-8.85
686.078	-8.85
686.108	19.15
686.137	12.15
686.167	4.15
686.197	14.15
686.227	-11.85
686.257	30.15
686.287	27.15
686.317	2.15
686.346	-4.85
686.376	-7.85
686.406	-10.85
686.436	8.15
686.466	-4.85
686.496	12.15
686.525	12.15
686.555	7.15
686.585	29.15
686.615	25.15
686.645	9.15
686.675	-4.85
686.704	-18.85
686.734	9.15
686.764	9.15
686.794	16.15
686.824	7.15
686.853	7.15
686.883	2.15
686.913	9.15
686.943	-5.85
686.973	-0.85
687.002	-6.85
687.032	7.15
687.062	3.15
687.092	17.15
687.121	0.15
687.151	13.15
687.181	10.15
687.211	24.15
687.24	-4.85
687.27	-4.85
687.3	6.15
687.33	18.15
687.359	-6.85
687.389	7.15
687.419	-3.85
687.449	-3.85
687.478	8.15
687.508	1.15
687.538	11.15
687.568	10.15
687.597	-11.85
687.627	-3.85
687.657	-1.85
687.686	-1.85
687.716	21.15
687.746	-2.85
687.776	-0.85
687.805	15.15
687.835	1.15
687.865	27.15
687.894	18.15
687.924	14.15
687.954	3.15
687.983	6.15
688.013	17.15
688.043	12.15
688.072	2.15
688.102	19.15
688.132	4.15
688.161	-3.85
688.191	-0.85
688.221	23.15
688.25	-0.85
688.28	7.15
688.31	-10.85
688.339	10.15
688.369	-16.85
688.399	0.15
688.428	-1.85
688.458	8.15
688.488	-3.85
688.517	11.15
688.547	-8.85
688.576	34.15
688.606	15.15
688.636	-1.85
688.665	3.15
688.695	0.15
688.725	4.15
688.754	6.15
688.784	13.15
688.813	26.15
688.843	4.15
688.873	-6.85
688.902	-2.85
688.932	8.15
688.961	12.15
688.991	17.15
689.02	14.15
689.05	-6.85
689.08	-1.85
689.109	19.15
689.139	7.15
689.168	-2.85
689.198	-3.85
689.227	-2.85
689.257	3.15
689.287	6.15
689.316	-8.85
689.346	-19.85
689.375	-6.85
689.405	6.15
689.434	3.15
689.464	10.15
689.493	-3.85
689.523	6.15
689.552	13.15
689.582	16.15
689.611	-2.85
689.641	5.15
689.67	6.15
689.7	8.15
689.73	10.15
689.759	-8.85
689.789	24.15
689.818	9.15
689.848	1.15
689.877	27.15
689.906	7.15
689.936	3.15
689.965	2.15
689.995	17.15
690.024	9.15
690.054	4.15
690.083	16.15
690.113	8.15
690.142	-5.85
690.172	15.15
690.201	4.15
690.231	12.15
690.26	15.15
690.29	9.15
690.319	12.15
690.348	10.15
690.378	6.15
690.407	12.15
690.437	8.15
690.466	-5.85
690.496	-7.85
690.525	2.15
690.555	-7.85
690.584	2.15
690.613	7.15
690.643	-4.85
690.672	8.15
690.702	16.15
690.731	15.15
690.76	23.15
690.79	-11.85
690.819	-6.85
690.849	9.15
690.878	14.15
690.907	14.15
690.937	14.15
690.966	12.15
690.996	-3.85
691.025	-4.85
691.054	0.15
691.084	-2.85
691.113	2.15
691.142	3.15
691.172	8.15
691.201	28.15
691.23	11.15
691.26	16.15
691.289	21.15
691.319	-2.85
691.348	0.15
691.377	23.15
691.407	5.15
691.436	8.15
691.465	-1.85
691.495	7.15
691.524	-16.85
691.553	-4.85
691.583	4.15
691.612	16.15
691.641	14.15
691.67	19.15
691.7	-1.85
691.729	-17.85
691.758	16.15
691.788	12.15
691.817	11.15
691.846	3.15
691.876	16.15
691.905	9.15
691.934	5.15
691.963	14.15
691.993	17.15
692.022	2.15
692.051	-2.85
692.081	12.15
692.11	16.15
692.139	15.15
692.168	15.15
692.198	18.15
692.227	8.15
692.256	11.15
692.285	11.15
692.315	9.15
692.344	6.15
692.373	22.15
692.402	-7.85
692.432	-6.85
692.461	-4.85
692.49	0.15
692.519	10.15
692.548	18.15
692.578	2.15
692.607	-3.85
692.636	0.15
692.665	11.15
692.694	4.15
692.724	-0.85
692.753	-8.85
692.782	-0.85
692.811	-6.85
692.84	-5.85
692.87	11.15
692.899	11.15
692.928	-2.85
692.957	-14.85
692.986	6.15
693.016	3.15
693.045	27.15
693.074	7.15
693.103	3.15
693.132	18.15
693.161	13.15
693.191	11.15
693.22	-10.85
693.249	2.15
693.278	18.15
693.307	13.15
693.336	-13.85
693.365	-9.85
693.395	14.15
693.424	13.15
693.453	23.15
693.482	17.15
693.511	21.15
693.54	4.15
693.569	10.15
693.598	9.15
693.628	28.15
693.657	27.15
693.686	31.15
693.715	10.15
693.744	16.15
693.773	6.15
693.802	7.15
693.831	3.15
693.86	23.15
693.889	-5.85
693.919	9.15
693.948	12.15
693.977	10.15
694.006	16.15
694.035	17.15
694.064	-16.85
694.093	-1.85
694.122	-0.85
694.151	-0.85
694.18	4.15
694.209	18.15
694.238	9.15
694.267	27.15
694.296	14.15
694.325	0.15
694.354	26.15
694.383	7.15
694.412	-1.85
694.441	2.15
694.471	1.15
694.5	9.15
694.529	14.15
694.558	27.15
694.587	13.15
694.616	9.15
694.645	11.15
694.674	4.15
694.703	0.15
694.732	-11.85
694.761	12.15
694.79	19.15
694.819	7.15
694.848	5.15
694.877	36.15
694.906	12.15
694.935	19.15
694.963	30.15
694.992	7.15
695.021	6.15
695.05	25.15
695.079	18.15
695.108	5.15
695.137	12.15
695.166	8.15
695.195	2.15
695.224	6.15
695.253	12.15
695.282	4.15
695.311	17.15
695.34	20.15
695.369	11.15
695.398	-8.85
695.427	16.15
695.456	7.15
695.485	10.15
695.513	18.15
695.542	6.15
695.571	13.15
695.6	23.15
695.629	9.15
695.658	22.15
695.687	7.15
695.716	6.15
695.745	13.15
695.774	-3.85
695.802	10.15
695.831	20.15
695.86	9.15
695.889	14.15
695.918	9.15
695.947	-5.85
695.976	2.15
696.005	17.15
696.033	8.15
696.062	12.15
696.091	-0.85
696.12	-0.85
696.149	32.15
696.178	0.15
696.207	8.15
696.235	1.15
696.264	16.15
696.293	10.15
696.322	7.15
696.351	11.15
696.38	13.15
696.408	-1.85
696.437	-0.85
696.466	11.15
696.495	24.15
696.524	13.15
696.553	2.15
696.581	4.15
696.61	1.15
696.639	21.15
696.668	7.15
696.697	-1.85
696.725	4.15
696.754	11.15
696.783	11.15
696.812	6.15
696.84	28.15
696.869	7.15
696.898	2.15
696.927	9.15
696.956	38.15
696.984	-0.85
697.013	11.15
697.042	-9.85
697.071	3.15
697.099	20.15
697.128	4.15
697.157	0.15
697.186	7.15
697.214	5.15
697.243	8.15
697.272	-0.85
697.301	10.15
697.329	12.15
697.358	22.15
697.387	15.15
697.415	7.15
697.444	16.15
697.473	1.15
697.502	-0.85
697.53	8.15
697.559	5.15
697.588	7.15
697.616	2.15
697.645	-8.85
697.674	29.15
697.703	8.15
697.731	12.15
697.76	18.15
697.789	10.15
697.817	8.15
697.846	30.15
697.875	7.15
697.903	19.15
697.932	16.15
697.961	-5.85
697.989	20.15
698.018	16.15
698.047	4.15
698.075	9.15
698.104	-6.85
698.133	2.15
698.161	16.15
698.19	2.15
698.218	10.15
698.247	9.15
698.276	7.15
698.304	10.15
698.333	5.15
698.362	0.15
698.39	19.15
698.419	11.15
698.447	9.15
698.476	2.15
698.505	21.15
698.533	2.15
698.562	7.15
698.591	4.15
698.619	0.15
698.648	7.15
698.676	2.15
698.705	3.15
698.733	-1.85
698.762	2.15
698.791	9.15
698.819	11.15
698.848	5.15
698.876	10.15
698.905	13.15
698.933	13.15
698.962	23.15
698.991	6.15
699.019	26.15
699.048	3.15
699.076	6.15
699.105	2.15
699.133	-5.85
699.162	24.15
699.19	8.15
699.219	12.15
699.248	13.15
699.276	4.15
699.305	-4.85
699.333	-0.85
699.362	-7.85
699.39	13.15
699.419	11.15
699.447	22.15
699.476	21.15
699.504	11.15
699.533	0.15
699.561	14.15
699.59	14.15
699.618	7.15
699.647	11.15
699.675	9.15
699.704	9.15
699.732	1.15
699.761	11.15
699.789	-8.85
699.818	6.15
699.846	2.15
699.874	8.15
699.903	10.15
699.931	2.15
699.96	8.15
699.988	1.15
700.017	-5.85
700.045	-8.85
700.074	8.15
700.102	8.15
700.13	-4.85
700.159	27.15
700.187	6.15
700.216	2.15
700.244	5.15
700.273	1.15
700.301	2.15
700.329	18.15
700.358	34.15
700.386	17.15
700.415	16.15
700.443	20.15
700.472	7.15
700.5	8.15
700.528	14.15
700.557	7.15
700.585	5.15
700.614	17.15
700.642	6.15
700.67	22.15
700.699	8.15
700.727	2.15
700.755	-0.85
700.784	2.15
700.812	15.15
700.841	6.15
700.869	0.15
700.897	-14.85
700.926	5.15
700.954	8.15
700.982	18.15
701.011	6.15
701.039	23.15
701.067	-2.85
701.096	10.15
701.124	3.15
701.152	8.15
701.181	13.15
701.209	-3.85
701.237	-10.85
701.266	-3.85
701.294	3.15
701.322	-4.85
701.351	14.15
701.379	-0.85
701.407	-7.85
701.435	-14.85
701.464	8.15
701.492	14.15
701.52	-1.85
701.549	2.15
701.577	-12.85
701.605	2.15
701.634	14.15
701.662	7.15
701.69	-15.85
701.718	-5.85
701.747	20.15
701.775	7.15
701.803	-4.85
701.831	8.15
701.86	-6.85
701.888	6.15
701.916	14.15
701.944	14.15
701.973	6.15
702.001	3.15
702.029	1.15
702.057	-7.85
702.086	-2.85
702.114	-0.85
702.142	6.15
702.17	-5.85
702.199	3.15
702.227	20.15
702.255	4.15
702.283	2.15
702.311	3.15
702.34	0.15
702.368	2.15
702.396	1.15
702.424	8.15
702.452	-5.85
702.481	5.15
702.509	-0.85
702.537	8.15
702.565	21.15
702.593	-4.85
702.621	7.15
702.65	4.15
702.678	-7.85
702.706	13.15
702.734	11.15
702.762	15.15
702.79	10.15
702.819	-0.85
702.847	5.15
702.875	7.15
702.903	2.15
702.931	2.15
702.959	-2.85
702.988	12.15
703.016	10.15
703.044	11.15
703.072	5.15
703.1	2.15
703.128	5.15
703.156	-2.85
703.184	6.15
703.212	7.15
703.241	3.15
703.269	7.15
703.297	11.15
703.325	3.15
703.353	0.15
703.381	-13.85
703.409	-1.85
703.437	3.15
703.465	11.15
703.493	11.15
703.522	15.15
703.55	7.15
703.578	16.15
703.606	-0.85
703.634	4.15
703.662	-4.85
703.69	3.15
703.718	5.15
703.746	18.15
703.774	-5.85
703.802	7.15
703.83	1.15
703.858	3.15
703.886	7.15
703.914	-3.85
703.942	10.15
703.97	-0.85
703.998	14.15
704.027	14.15
704.055	7.15
704.083	6.15
704.111	-14.85
704.139	-8.85
704.167	-1.85
704.195	10.15
704.223	1.15
704.251	3.15
704.279	5.15
704.307	11.15
704.335	-13.85
704.363	7.15
704.391	8.15
704.419	4.15
704.447	-5.85
704.475	20.15
704.503	3.15
704.531	-3.85
704.558	9.15
704.586	3.15
704.614	1.15
704.642	2.15
704.67	-21.85
704.698	2.15
704.726	0.15
704.754	-3.85
704.782	11.15
704.81	14.15
704.838	17.15
704.866	12.15
704.894	-10.85
704.922	-3.85
704.95	9.15
704.978	12.15
705.006	10.15
705.034	7.15
705.061	2.15
705.089	5.15
705.117	-9.85
705.145	0.15
705.173	12.15
705.201	-0.85
705.229	10.15
705.257	7.15
705.285	8.15
705.313	-0.85
705.34	23.15
705.368	-8.85
705.396	12.15
705.424	6.15
705.452	2.15
705.48	3.15
705.508	7.15
705.536	6.15
705.563	2.15
705.591	8.15
705.619	-6.85
705.647	-4.85
705.675	-7.85
705.703	4.15
705.731	-4.85
705.758	0.15
705.786	6.15
705.814	16.15
705.842	20.15
705.87	31.15
705.898	19.15
705.925	-7.85
705.953	10.15
705.981	-3.85
706.009	-1.85
706.037	21.15
706.065	-1.85
706.092	-14.85
706.12	9.15
706.148	4.15
706.176	5.15
706.204	20.15
706.231	-0.85
706.259	11.15
706.287	1.15
706.315	4.15
706.342	-0.85
706.37	23.15
706.398	6.15
706.426	7.15
706.454	-1.85
706.481	7.15
706.509	6.15
706.537	7.15
706.565	-4.85
706.592	3.15
706.62	-1.85
706.648	0.15
706.676	-7.85
706.703	2.15
706.731	-0.85
706.759	-26.85
706.787	3.15
706.814	6.15
706.842	-1.85
706.87	-13.85
706.897	6.15
706.925	-1.85
706.953	25.15
706.981	24.15
707.008	14.15
707.036	5.15
707.064	2.15
707.091	-1.85
707.119	24.15
707.147	16.15
707.174	-8.85
707.202	-2.85
707.23	-17.85
707.258	10.15
707.285	-6.85
707.313	-4.85
707.341	-7.85
707.368	-1.85
707.396	3.15
707.424	32.15
707.451	-5.85
707.479	-2.85
707.507	8.15
707.534	2.15
707.562	-1.85
707.59	-13.85
707.617	11.15
707.645	0.15
707.672	5.15
707.7	-2.85
707.728	11.15
707.755	12.15
707.783	-2.85
707.811	10.15
707.838	-3.85
707.866	-3.85
707.893	14.15
707.921	-7.85
707.949	5.15
707.976	26.15
708.004	2.15
708.031	4.15
708.059	-6.85
708.087	2.15
708.114	-14.85
708.142	9.15
708.169	-7.85
708.197	1.15
708.225	-1.85
708.252	-6.85
708.28	-0.85
708.307	-8.85
708.335	8.15
708.362	7.15
708.39	-2.85
708.418	-1.85
708.445	2.15
708.473	-14.85
708.5	-4.85
708.528	10.15
708.555	11.15
708.583	5.15
708.61	-10.85
708.638	0.15
708.665	-3.85
708.693	-3.85
708.72	-1.85
708.748	12.15
708.776	6.15
708.803	3.15
708.831	3.15
708.858	21.15
708.886	-1.85
708.913	-0.85
708.941	-11.85
708.968	7.15
708.996	-3.85
709.023	13.15
709.051	-6.85
709.078	-5.85
709.105	-3.85
709.133	-1.85
709.16	-0.85
709.188	5.15
709.215	4.15
709.243	-13.85
709.27	-0.85
709.298	2.15
709.325	-7.85
709.353	-10.85
709.38	8.15
709.408	13.15
709.435	18.15
709.462	-7.85
709.49	3.15
709.517	-2.85
709.545	-0.85
709.572	-0.85
709.6	5.15
709.627	3.15
709.655	-4.85
709.682	3.15
709.709	15.15
709.737	10.15
709.764	-4.85
709.792	12.15
709.819	4.15
709.846	-12.85
709.874	15.15
709.901	21.15
709.929	17.15
709.956	0.15
709.983	2.15
710.011	1.15
710.038	2.15
710.066	18.15
710.093	24.15
710.12	15.15
710.148	6.15
710.175	-13.85
710.202	-1.85
710.23	5.15
710.257	-2.85
710.284	-8.85
710.312	6.15
710.339	-6.85
710.366	2.15
710.394	-21.85
710.421	-1.85
710.448	9.15
710.476	2.15
710.503	17.15
710.53	32.15
710.558	19.15
710.585	12.15
710.612	5.15
710.64	10.15
710.667	10.15
710.694	-2.85
710.722	7.15
710.749	5.15
710.776	6.15
710.804	22.15
710.831	5.15
710.858	0.15
710.885	-0.85
710.913	-12.85
710.94	0.15
710.967	-0.85
710.995	-3.85
711.022	14.15
711.049	12.15
711.076	-7.85
711.104	-3.85
711.131	-7.85
711.158	7.15
711.185	19.15
711.213	-9.85
711.24	-12.85
711.267	-0.85
711.294	-0.85
711.322	12.15
711.349	-6.85
711.376	-10.85
711.403	9.15
711.431	11.15
711.458	3.15
711.485	-1.85
711.512	8.15
711.54	2.15
711.567	17.15
711.594	10.15
711.621	-3.85
711.648	1.15
711.676	8.15
711.703	-7.85
711.73	-17.85
711.757	3.15
711.784	0.15
711.812	5.15
711.839	2.15
711.866	-15.85
711.893	-5.85
711.92	2.15
711.947	-8.85
711.975	14.15
712.002	5.15
712.029	30.15
712.056	-7.85
712.083	-0.85
712.11	-16.85
712.138	1.15
712.165	3.15
712.192	12.15
712.219	18.15
712.246	-11.85
712.273	-16.85
712.3	-0.85
712.328	-7.85
712.355	2.15
712.382	-7.85
712.409	3.15
712.436	-1.85
712.463	10.15
712.49	4.15
712.517	2.15
712.544	-3.85
712.572	13.15
712.599	-4.85
712.626	5.15
712.653	3.15
712.68	-1.85
712.707	1.15
712.734	11.15
712.761	4.15
712.788	14.15
712.815	14.15
712.842	27.15
712.87	0.15
712.897	-13.85
712.924	-8.85
712.951	6.15
712.978	14.15
713.005	6.15
713.032	16.15
713.059	6.15
713.086	-1.85
713.113	-19.85
713.14	-1.85
713.167	7.15
713.194	0.15
713.221	-1.85
713.248	0.15
713.275	4.15
713.302	0.15
713.329	2.15
713.356	2.15
713.383	6.15
713.41	3.15
713.437	-4.85
713.464	0.15
713.491	7.15
713.518	8.15
713.545	4.15
713.572	-0.85
713.599	21.15
713.626	-2.85
713.653	12.15
713.68	-5.85
713.707	11.15
713.734	16.15
713.761	1.15
713.788	-9.85
713.815	11.15
713.842	3.15
713.869	-4.85
713.896	5.15
713.923	6.15
713.95	9.15
713.977	-4.85
714.004	2.15
714.031	-8.85
714.058	-11.85
714.085	-3.85
714.112	20.15
714.139	-2.85
714.165	-1.85
714.192	3.15
714.219	12.15
714.246	9.15
714.273	4.15
714.3	7.15
714.327	12.15
714.354	8.15
714.381	-1.85
714.408	1.15
714.435	-3.85
714.461	-2.85
714.488	11.15
714.515	-11.85
714.542	1.15
714.569	3.15
714.596	-13.85
714.623	3.15
714.65	0.15
714.677	9.15
714.703	-0.85
714.73	2.15
714.757	7.15
714.784	-4.85
714.811	1.15
714.838	3.15
714.865	1.15
714.891	6.15
714.918	-0.85
714.945	-5.85
714.972	-5.85
714.999	17.15
715.026	5.15
715.052	18.15
715.079	1.15
715.106	-0.85
715.133	9.15
715.16	-0.85
715.187	9.15
715.213	-4.85
715.24	-8.85
715.267	-18.85
715.294	10.15
715.321	1.15
715.347	7.15
715.374	15.15
715.401	0.15
715.428	0.15
715.455	-0.85
715.481	-9.85
715.508	18.15
715.535	7.15
715.562	27.15
715.588	10.15
715.615	-1.85
715.642	0.15
715.669	7.15
715.695	2.15
715.722	-3.85
715.749	9.15
715.776	12.15
715.802	16.15
715.829	6.15
715.856	-8.85
715.883	16.15
715.909	14.15
715.936	0.15
715.963	-1.85
715.99	4.15
716.016	3.15
716.043	-5.85
716.07	-11.85
716.096	3.15
716.123	0.15
716.15	-1.85
716.177	14.15
716.203	26.15
716.23	24.15
716.257	19.15
716.283	24.15
716.31	2.15
716.337	7.15
716.363	15.15
716.39	6.15
716.417	7.15
716.443	-3.85
716.47	13.15
716.497	14.15
716.523	0.15
716.55	15.15
716.577	11.15
716.603	-6.85
716.63	5.15
716.657	15.15
716.683	5.15
716.71	0.15
716.737	-6.85
716.763	-9.85
716.79	1.15
716.817	12.15
716.843	-0.85
716.87	3.15
716.897	9.15
716.923	8.15
716.95	3.15
716.976	-0.85
717.003	3.15
717.03	8.15
717.056	6.15
717.083	-3.85
717.109	19.15
717.136	22.15
717.163	-2.85
717.189	8.15
717.216	6.15
717.242	0.15
717.269	10.15
717.296	2.15
717.322	4.15
717.349	7.15
717.375	26.15
717.402	19.15
717.428	3.15
717.455	-7.85
717.481	7.15
717.508	-0.85
717.535	26.15
717.561	4.15
717.588	10.15
717.614	3.15
717.641	-2.85
717.667	1.15
717.694	14.15
717.72	-4.85
717.747	8.15
717.773	-1.85
717.8	6.15
717.826	2.15
717.853	6.15
717.88	12.15
717.906	3.15
717.933	18.15
717.959	2.15
717.986	3.15
718.012	13.15
718.039	16.15
718.065	12.15
718.092	8.15
718.118	-17.85
718.144	4.15
718.171	19.15
718.197	33.15
718.224	3.15
718.25	-17.85
718.277	-1.85
718.303	6.15
718.33	7.15
718.356	-1.85
718.383	-12.85
718.409	-4.85
718.436	16.15
718.462	6.15
718.489	6.15
718.515	7.15
718.541	14.15
718.568	4.15
718.594	11.15
718.621	7.15
718.647	1.15
718.674	5.15
718.7	13.15
718.726	14.15
718.753	14.15
718.779	12.15
718.806	11.15
718.832	7.15
718.858	2.15
718.885	4.15
718.911	-3.85
718.938	17.15
718.964	-1.85
718.99	0.15
719.017	10.15
719.043	3.15
719.07	10.15
719.096	0.15
719.122	11.15
719.149	7.15
719.175	4.15
719.201	1.15
719.228	-6.85
719.254	7.15
719.281	-2.85
719.307	7.15
719.333	8.15
719.36	25.15
719.386	6.15
719.412	5.15
719.439	-20.85
719.465	-0.85
719.491	-8.85
719.518	19.15
719.544	16.15
719.57	16.15
719.597	14.15
719.623	-5.85
719.649	12.15
719.675	19.15
719.702	25.15
719.728	12.15
719.754	6.15
719.781	24.15
719.807	14.15
719.833	-0.85
719.86	7.15
719.886	6.15
719.912	3.15
719.938	-3.85
719.965	6.15
719.991	11.15
720.017	8.15
720.044	-10.85
720.07	11.15
720.096	4.15
720.122	-0.85
720.149	16.15
720.175	15.15
720.201	8.15
720.227	11.15
720.254	15.15
720.28	0.15
720.306	-8.85
720.332	8.15
720.359	7.15
720.385	6.15
720.411	22.15
720.437	4.15
720.463	2.15
720.49	24.15
720.516	-0.85
720.542	13.15
720.568	5.15
720.595	12.15
720.621	8.15
720.647	13.15
720.673	3.15
720.699	2.15
720.725	9.15
720.752	7.15
720.778	16.15
720.804	14.15
720.83	12.15
720.856	11.15
720.883	-5.85
720.909	-4.85
720.935	8.15
720.961	-2.85
720.987	-5.85
721.013	11.15
721.04	-9.85
721.066	-4.85
721.092	5.15
721.118	-3.85
721.144	-1.85
721.17	-5.85
721.196	-4.85
721.223	-9.85
721.249	1.15
721.275	18.15
721.301	0.15
721.327	10.15
721.353	16.15
721.379	-0.85
721.405	10.15
721.432	9.15
721.458	4.15
721.484	24.15
721.51	3.15
721.536	20.15
721.562	5.15
721.588	16.15
721.614	-4.85
721.64	-6.85
721.666	-6.85
721.693	6.15
721.719	-6.85
721.745	-3.85
721.771	-3.85
721.797	9.15
721.823	19.15
721.849	12.15
721.875	10.15
721.901	23.15
721.927	-9.85
721.953	3.15
721.979	12.15
722.005	6.15
722.031	9.15
722.057	5.15
722.083	5.15
722.109	6.15
722.135	6.15
722.161	15.15
722.187	-0.85
722.214	6.15
722.24	0.15
722.266	-5.85
722.292	7.15
722.318	4.15
722.344	4.15
722.37	15.15
722.396	15.15
722.422	10.15
722.448	-9.85
722.474	-26.85
722.5	0.15
722.526	0.15
722.552	2.15
722.578	4.15
722.603	21.15
722.629	-7.85
722.655	1.15
722.681	-3.85
722.707	8.15
722.733	3.15
722.759	-4.85
722.785	0.15
722.811	6.15
722.837	-0.85
722.863	23.15
722.889	22.15
722.915	4.15
722.941	-12.85
722.967	0.15
722.993	14.15
723.019	12.15
723.045	4.15
723.071	3.15
723.097	14.15
723.122	8.15
723.148	3.15
723.174	-3.85
723.2	1.15
723.226	0.15
723.252	3.15
723.278	7.15
723.304	8.15
723.33	6.15
723.356	6.15
723.381	-5.85
723.407	-11.85
723.433	16.15
723.459	0.15
723.485	13.15
723.511	25.15
723.537	-1.85
723.563	-3.85
723.588	-1.85
723.614	10.15
723.64	6.15
723.666	-8.85
723.692	16.15
723.718	6.15
723.744	-3.85
723.769	10.15
723.795	-1.85
723.821	2.15
723.847	-5.85
723.873	11.15
723.899	12.15
723.924	-3.85
723.95	-3.85
723.976	-13.85
724.002	10.15
724.028	9.15
724.053	5.15
724.079	-10.85
724.105	11.15
724.131	0.15
724.157	-1.85
724.182	14.15
724.208	-4.85
724.234	2.15
724.26	1.15
724.286	8.15
724.311	-7.85
724.337	4.15
724.363	-1.85
724.389	18.15
724.415	2.15
724.44	26.15
724.466	-5.85
724.492	2.15
724.518	5.15
724.543	-2.85
724.569	11.15
724.595	-4.85
724.621	-9.85
724.646	-3.85
724.672	3.15
724.698	5.15
724.723	8.15
724.749	3.15
724.775	11.15
724.801	9.15
724.826	-0.85
724.852	5.15
724.878	3.15
724.904	0.15
724.929	6.15
724.955	-20.85
724.981	5.15
725.006	7.15
725.032	15.15
725.058	24.15
725.083	-12.85
725.109	-0.85
725.135	-6.85
725.161	-0.85
725.186	0.15
725.212	-1.85
725.238	5.15
725.263	6.15
725.289	-2.85
725.315	-8.85
725.34	-7.85
725.366	6.15
725.392	-5.85
725.417	-3.85
725.443	-0.85
725.468	5.15
725.494	21.15
725.52	38.15
725.545	10.15
725.571	12.15
725.597	7.15
725.622	10.15
725.648	8.15
725.674	8.15
725.699	9.15
725.725	-5.85
725.75	27.15
725.776	-8.85
725.802	8.15
725.827	20.15
725.853	-2.85
725.878	2.15
725.904	0.15
725.93	18.15
725.955	-3.85
725.981	-5.85
726.006	3.15
726.032	4.15
726.057	1.15
726.083	-5.85
726.109	12.15
726.134	11.15
726.16	7.15
726.185	13.15
726.211	4.15
726.236	22.15
726.262	11.15
726.288	17.15
726.313	20.15
726.339	4.15
726.364	14.15
726.39	13.15
726.415	15.15
726.441	3.15
726.466	4.15
726.492	14.15
726.517	5.15
726.543	-0.85
726.568	-2.85
726.594	13.15
726.619	8.15
726.645	5.15
726.67	25.15
726.696	24.15
726.721	21.15
726.747	10.15
726.772	8.15
726.798	13.15
726.823	23.15
726.849	11.15
726.874	14.15
726.9	35.15
726.925	24.15
726.951	14.15
726.976	10.15
727.002	-7.85
727.027	11.15
727.053	-0.85
727.078	-0.85
727.104	2.15
727.129	-12.85
727.155	-7.85
727.18	8.15
727.205	-0.85
727.231	1.15
727.256	12.15
727.282	6.15
727.307	14.15
727.333	2.15
727.358	-4.85
727.383	1.15
727.409	-3.85
727.434	13.15
727.46	-4.85
727.485	1.15
727.511	15.15
727.536	-3.85
727.561	-4.85
727.587	2.15
727.612	11.15
727.637	0.15
727.663	-0.85
727.688	16.15
727.714	-7.85
727.739	-8.85
727.764	-4.85
727.79	7.15
727.815	13.15
727.841	-8.85
727.866	2.15
727.891	5.15
727.917	-21.85
727.942	-9.85
727.967	-0.85
727.993	-7.85
728.018	8.15
728.043	8.15
728.069	0.15
728.094	22.15
728.119	7.15
728.145	10.15
728.17	1.15
728.195	11.15
728.221	11.15
728.246	-2.85
728.271	-12.85
728.297	-3.85
728.322	17.15
728.347	2.15
728.373	3.15
728.398	0.15
728.423	-13.85
728.448	-4.85
728.474	-0.85
728.499	21.15
728.524	-4.85
728.55	-10.85
728.575	-5.85
728.6	6.15
728.625	-1.85
728.651	-0.85
728.676	1.15
728.701	-1.85
728.727	10.15
728.752	-11.85
728.777	-6.85
728.802	5.15
728.828	3.15
728.853	-3.85
728.878	-8.85
728.903	-3.85
728.929	-2.85
728.954	-11.85
728.979	7.15
729.004	-10.85
729.03	10.15
729.055	11.15
729.08	-12.85
729.105	-16.85
729.13	8.15
729.156	6.15
729.181	2.15
729.206	-20.85
729.231	-7.85
729.256	4.15
729.282	5.15
729.307	-12.85
729.332	-9.85
729.357	-7.85
729.382	5.15
729.408	6.15
729.433	3.15
729.458	6.15
729.483	4.15
729.508	20.15
729.533	6.15
729.559	11.15
729.584	-11.85
729.609	3.15
729.634	-2.85
729.659	1.15
729.684	-10.85
729.71	31.15
729.735	5.15
729.76	8.15
729.785	18.15
729.81	12.15
729.835	-6.85
729.86	0.15
729.886	-0.85
729.911	12.15
729.936	4.15
729.961	8.15
729.986	-12.85
730.011	12.15
730.036	-3.85
730.061	-4.85
730.086	-3.85
730.112	4.15
730.137	26.15
730.162	2.15
730.187	-7.85
730.212	10.15
730.237	-2.85
730.262	3.15
730.287	-4.85
730.312	7.15
730.337	-3.85
730.362	5.15
730.387	-3.85
730.413	-9.85
730.438	11.15
730.463	2.15
730.488	-3.85
730.513	3.15
730.538	-5.85
730.563	9.15
730.588	9.15
730.613	17.15
730.638	9.15
730.663	-3.85
730.688	21.15
730.713	1.15
730.738	-4.85
730.763	-4.85
730.788	-3.85
730.813	1.15
730.838	0.15
730.863	-1.85
730.888	11.15
730.913	-16.85
730.938	-4.85
730.963	8.15
730.988	6.15
731.013	24.15
731.038	11.15
731.063	-0.85
731.088	7.15
731.113	-8.85
731.138	-5.85
731.163	2.15
731.188	2.15
731.213	9.15
731.238	10.15
731.263	-4.85
731.288	-1.85
731.313	4.15
731.338	-4.85
731.363	-3.85
731.388	7.15
731.413	-2.85
731.438	14.15
731.463	13.15
731.487	17.15
731.512	-2.85
731.537	4.15
731.562	-1.85
731.587	7.15
731.612	-4.85
731.637	-4.85
731.662	15.15
731.687	9.15
731.712	-11.85
731.737	14.15
731.762	4.15
731.786	2.15
731.811	18.15
731.836	12.15
731.861	8.15
731.886	-9.85
731.911	9.15
731.936	26.15
731.961	2.15
731.986	-3.85
732.01	4.15
732.035	-4.85
732.06	17.15
732.085	6.15
732.11	-0.85
732.135	-15.85
732.16	5.15
732.184	6.15
732.209	0.15
732.234	10.15
732.259	7.15
732.284	7.15
732.309	-2.85
732.334	-13.85
732.358	-25.85
732.383	-10.85
732.408	2.15
732.433	17.15
732.458	10.15
732.482	15.15
732.507	-2.85
732.532	18.15
732.557	15.15
732.582	10.15
732.607	3.15
732.631	-0.85
732.656	-5.85
732.681	-0.85
732.706	1.15
732.73	-1.85
732.755	-6.85
732.78	2.15
732.805	6.15
732.83	10.15
732.854	-0.85
732.879	6.15
732.904	-16.85
732.929	-0.85
732.953	-0.85
732.978	-22.85
733.003	6.15
733.028	-3.85
733.052	9.15
733.077	5.15
733.102	11.15
733.127	2.15
733.151	-1.85
733.176	10.15
733.201	-0.85
733.226	2.15
733.25	4.15
733.275	9.15
733.3	3.15
733.324	11.15
733.349	12.15
733.374	16.15
733.399	4.15
733.423	-1.85
733.448	-4.85
733.473	-1.85
733.497	-5.85
733.522	-10.85
733.547	18.15
733.571	11.15
733.596	0.15
733.621	10.15
733.646	2.15
733.67	5.15
733.695	-7.85
733.72	4.15
733.744	7.15
733.769	12.15
733.794	16.15
733.818	14.15
733.843	-7.85
733.867	-4.85
733.892	0.15
733.917	-1.85
733.941	-0.85
733.966	5.15
733.991	3.15
734.015	14.15
734.04	0.15
734.065	4.15
734.089	6.15
734.114	15.15
734.138	25.15
734.163	4.15
734.188	-2.85
734.212	-0.85
734.237	-0.85
734.261	-4.85
734.286	-13.85
734.311	-11.85
734.335	-5.85
734.36	-15.85
734.384	-0.85
734.409	10.15
734.434	4.15
734.458	6.15
734.483	3.15
734.507	-1.85
734.532	-7.85
734.556	1.15
734.581	-2.85
734.606	-2.85
734.63	7.15
734.655	3.15
734.679	9.15
734.704	2.15
734.728	0.15
734.753	2.15
734.777	5.15
734.802	-7.85
734.826	-0.85
734.851	8.15
734.876	14.15
734.9	14.15
734.925	4.15
734.949	11.15
734.974	-1.85
734.998	20.15
735.023	2.15
735.047	-4.85
735.072	22.15
735.096	14.15
735.121	2.15
735.145	-0.85
735.17	-5.85
735.194	5.15
735.219	-0.85
735.243	6.15
735.268	0.15
735.292	13.15
735.317	-7.85
735.341	-7.85
735.365	-2.85
735.39	11.15
735.414	2.15
735.439	16.15
735.463	10.15
735.488	-3.85
735.512	-2.85
735.537	13.15
735.561	-3.85
735.586	-5.85
735.61	6.15
735.634	-3.85
735.659	-4.85
735.683	28.15
735.708	-4.85
735.732	6.15
735.757	-3.85
735.781	-0.85
735.805	6.15
735.83	7.15
735.854	4.15
735.879	-13.85
735.903	19.15
735.927	20.15
735.952	13.15
735.976	8.15
736.001	10.15
736.025	0.15
736.049	11.15
736.074	6.15
736.098	7.15
736.123	22.15
736.147	-3.85
736.171	-16.85
736.196	9.15
736.22	8.15
736.244	8.15
736.269	-10.85
736.293	8.15
736.317	8.15
736.342	7.15
736.366	12.15
736.39	15.15
736.415	7.15
736.439	11.15
736.463	15.15
736.488	8.15
736.512	-0.85
736.536	-1.85
736.561	24.15
736.585	4.15
736.609	3.15
736.634	-4.85
736.658	2.15
736.682	2.15
736.707	-8.85
736.731	-11.85
736.755	-11.85
736.78	17.15
736.804	7.15
736.828	3.15
736.852	8.15
736.877	-10.85
736.901	4.15
736.925	4.15
736.949	0.15
736.974	-9.85
736.998	-8.85
737.022	7.15
737.047	3.15
737.071	6.15
737.095	16.15
737.119	21.15
737.144	3.15
737.168	-0.85
737.192	-3.85
737.216	12.15
737.241	1.15
737.265	2.15
737.289	6.15
737.313	5.15
737.337	14.15
737.362	4.15
737.386	0.15
737.41	-5.85
737.434	8.15
737.459	-9.85
737.483	18.15
737.507	18.15
737.531	14.15
737.555	23.15
737.58	7.15
737.604	15.15
737.628	10.15
737.652	-8.85
737.676	-13.85
737.701	4.15
737.725	0.15
737.749	7.15
737.773	3.15
737.797	-2.85
737.821	13.15
737.846	-3.85
737.87	35.15
737.894	-10.85
737.918	1.15
737.942	-7.85
737.966	14.15
737.99	20.15
738.015	7.15
738.039	12.15
738.063	4.15
738.087	8.15
738.111	-0.85
738.135	14.15
738.159	10.15
738.184	2.15
738.208	17.15
738.232	8.15
738.256	5.15
738.28	1.15
738.304	18.15
738.328	8.15
738.352	13.15
738.376	0.15
738.4	7.15
738.425	11.15
738.449	-13.85
738.473	10.15
738.497	4.15
738.521	8.15
738.545	11.15
738.569	11.15
738.593	19.15
738.617	10.15
738.641	-0.85
738.665	12.15
738.689	19.15
738.713	5.15
738.737	6.15
738.762	25.15
738.786	8.15
738.81	-6.85
738.834	2.15
738.858	4.15
738.882	-1.85
738.906	3.15
738.93	15.15
738.954	-7.85
738.978	2.15
739.002	-10.85
739.026	13.15
739.05	8.15
739.074	4.15
739.098	21.15
739.122	16.15
739.146	19.15
739.17	36.15
739.194	13.15
739.218	6.15
739.242	-3.85
739.266	0.15
739.29	20.15
739.314	9.15
739.338	15.15
739.362	10.15
739.386	24.15
739.41	10.15
739.434	3.15
739.458	15.15
739.482	13.15
739.506	27.15
739.53	1.15
739.554	8.15
739.577	5.15
739.601	19.15
739.625	5.15
739.649	3.15
739.673	2.15
739.697	11.15
739.721	10.15
739.745	15.15
739.769	12.15
739.793	8.15
739.817	15.15
739.841	0.15
739.865	-3.85
739.889	-16.85
739.912	-0.85
739.936	-9.85
739.96	-3.85
739.984	14.15
740.008	-6.85
740.032	-9.85
740.056	20.15
740.08	7.15
740.104	-1.85
740.127	6.15
740.151	9.15
740.175	13.15
740.199	14.15
740.223	45.15
740.247	8.15
740.271	16.15
740.295	6.15
740.318	-11.85
740.342	8.15
740.366	14.15
740.39	26.15
740.414	16.15
740.438	10.15
740.461	24.15
740.485	15.15
740.509	-12.85
740.533	14.15
740.557	4.15
740.581	6.15
740.604	-15.85
740.628	-1.85
740.652	15.15
740.676	-0.85
740.7	3.15
740.723	-1.85
740.747	4.15
740.771	-0.85
740.795	-7.85
740.819	-5.85
740.842	7.15
740.866	13.15
740.89	-1.85
740.914	-5.85
740.938	-2.85
740.961	36.15
740.985	15.15
741.009	0.15
741.033	3.15
741.056	14.15
741.08	2.15
741.104	-11.85
741.128	2.15
741.151	20.15
741.175	12.15
741.199	14.15
741.223	-2.85
741.246	-8.85
741.27	10.15
741.294	-3.85
741.318	1.15
741.341	-7.85
741.365	10.15
741.389	11.15
741.413	14.15
741.436	30.15
741.46	8.15
741.484	18.15
741.507	9.15
741.531	31.15
741.555	20.15
741.579	5.15
741.602	11.15
741.626	10.15
741.65	6.15
741.673	3.15
741.697	21.15
741.721	24.15
741.744	0.15
741.768	-6.85
741.792	2.15
741.815	-9.85
741.839	11.15
741.863	14.15
741.886	26.15
741.91	15.15
741.934	12.15
741.957	-16.85
741.981	14.15
742.005	7.15
742.028	-1.85
742.052	-1.85
742.075	3.15
742.099	27.15
742.123	4.15
742.146	8.15
742.17	0.15
742.194	3.15
742.217	-0.85
742.241	-2.85
742.264	-4.85
742.288	24.15
742.312	15.15
742.335	6.15
742.359	11.15
742.382	14.15
742.406	25.15
742.43	-1.85
742.453	-3.85
742.477	-6.85
742.5	23.15
742.524	-7.85
742.548	-4.85
742.571	14.15
742.595	1.15
742.618	-4.85
742.642	-9.85
742.665	8.15
742.689	3.15
742.712	17.15
742.736	3.15
742.76	-1.85
742.783	8.15
742.807	13.15
742.83	12.15
742.854	-4.85
742.877	-7.85
742.901	0.15
742.924	-8.85
742.948	14.15
742.971	18.15
742.995	-1.85
743.018	-10.85
743.042	-0.85
743.065	-2.85
743.089	-8.85
743.112	12.15
743.136	-3.85
743.159	2.15
743.183	-2.85
743.206	6.15
743.23	-1.85
743.253	-0.85
743.277	3.15
743.3	3.15
743.324	6.15
743.347	-1.85
743.371	22.15
743.394	32.15
743.418	24.15
743.441	22.15
743.465	5.15
743.488	10.15
743.512	0.15
743.535	-1.85
743.558	-0.85
743.582	9.15
743.605	10.15
743.629	18.15
743.652	15.15
743.676	2.15
743.699	11.15
743.723	2.15
743.746	11.15
743.769	-2.85
743.793	6.15
743.816	12.15
743.84	24.15
743.863	9.15
743.886	11.15
743.91	13.15
743.933	14.15
743.957	10.15
743.98	4.15
744.003	15.15
744.027	15.15
744.05	7.15
744.074	18.15
744.097	-17.85
744.12	-8.85
744.144	-0.85
744.167	8.15
744.19	-0.85
744.214	10.15
744.237	12.15
744.26	13.15
744.284	2.15
744.307	-4.85
744.331	-3.85
744.354	2.15
744.377	7.15
744.401	-0.85
744.424	-3.85
744.447	-1.85
744.471	0.15
