Data from HighRes_H2_15_09_11_07_2024_HR4C61891__121__15-11-08-501.txt Node

Date: Thu Nov 07 15:11:08 EST 2024
User: crc00042
Spectrometer: HR4C6189
Trigger mode: 4
Integration Time (sec): 1.000000E-1
Scans to average: 1
Electric dark correction enabled: true
Nonlinearity correction enabled: false
Boxcar width: 0
XAxis mode: Wavelengths
Number of Pixels in Spectrum: 3648
>>>>>Begin Spectral Data<<<<<
639.567	-67.62
639.602	-67.62
639.636	-67.62
639.67	-43.62
639.704	-7.62
639.738	-6.62
639.773	10.38
639.807	-15.62
639.841	-3.62
639.875	21.38
639.909	0.38
639.943	-10.62
639.978	-1.62
640.012	-11.62
640.046	15.38
640.08	2.38
640.114	1.38
640.148	-1.62
640.182	-23.62
640.217	-8.62
640.251	14.38
640.285	12.38
640.319	-5.62
640.353	4.38
640.387	-7.62
640.421	1.38
640.455	-4.62
640.49	-3.62
640.524	-6.62
640.558	9.38
640.592	-6.62
640.626	5.38
640.66	4.38
640.694	-9.62
640.728	0.38
640.762	19.38
640.796	19.38
640.83	7.38
640.865	-2.62
640.899	-12.62
640.933	-8.62
640.967	7.38
641.001	2.38
641.035	0.38
641.069	4.38
641.103	-1.62
641.137	-13.62
641.171	-7.62
641.205	9.38
641.239	13.38
641.273	16.38
641.307	8.38
641.341	3.38
641.375	3.38
641.409	-1.62
641.443	-2.62
641.477	6.38
641.511	14.38
641.545	7.38
641.579	-9.62
641.614	-6.62
641.648	0.38
641.682	6.38
641.716	25.38
641.75	-1.62
641.784	4.38
641.818	-1.62
641.852	8.38
641.886	-9.62
641.919	11.38
641.953	8.38
641.987	-9.62
642.021	0.38
642.055	13.38
642.089	7.38
642.123	-3.62
642.157	-8.62
642.191	-19.62
642.225	5.38
642.259	5.38
642.293	21.38
642.327	1.38
642.361	-0.62
642.395	24.38
642.429	21.38
642.463	17.38
642.497	-0.62
642.531	0.38
642.565	1.38
642.599	1.38
642.633	-13.62
642.666	10.38
642.7	14.38
642.734	9.38
642.768	8.38
642.802	-2.62
642.836	-4.62
642.87	-7.62
642.904	10.38
642.938	20.38
642.972	3.38
643.005	-0.62
643.039	9.38
643.073	19.38
643.107	14.38
643.141	8.38
643.175	5.38
643.209	2.38
643.243	-2.62
643.276	24.38
643.31	-6.62
643.344	-10.62
643.378	4.38
643.412	15.38
643.446	6.38
643.48	-0.62
643.513	-5.62
643.547	-4.62
643.581	-10.62
643.615	-7.62
643.649	13.38
643.683	2.38
643.716	-2.62
643.75	32.38
643.784	-10.62
643.818	10.38
643.852	1.38
643.886	8.38
643.919	22.38
643.953	9.38
643.987	0.38
644.021	6.38
644.055	7.38
644.088	3.38
644.122	-3.62
644.156	-11.62
644.19	6.38
644.224	13.38
644.257	21.38
644.291	26.38
644.325	11.38
644.359	9.38
644.392	20.38
644.426	16.38
644.46	0.38
644.494	0.38
644.527	-13.62
644.561	2.38
644.595	-1.62
644.629	11.38
644.662	9.38
644.696	33.38
644.73	3.38
644.764	12.38
644.797	7.38
644.831	10.38
644.865	23.38
644.899	0.38
644.932	25.38
644.966	-3.62
645	10.38
645.033	6.38
645.067	1.38
645.101	17.38
645.135	6.38
645.168	16.38
645.202	-10.62
645.236	-8.62
645.269	9.38
645.303	2.38
645.337	-10.62
645.37	0.38
645.404	14.38
645.438	7.38
645.471	7.38
645.505	16.38
645.539	4.38
645.572	-11.62
645.606	3.38
645.64	4.38
645.673	2.38
645.707	18.38
645.741	-5.62
645.774	-1.62
645.808	13.38
645.842	6.38
645.875	4.38
645.909	12.38
645.943	0.38
645.976	-0.62
646.01	15.38
646.043	21.38
646.077	2.38
646.111	8.38
646.144	3.38
646.178	9.38
646.212	-9.62
646.245	-6.62
646.279	9.38
646.312	15.38
646.346	8.38
646.38	-0.62
646.413	9.38
646.447	5.38
646.48	9.38
646.514	5.38
646.547	-15.62
646.581	-1.62
646.615	22.38
646.648	0.38
646.682	-9.62
646.715	9.38
646.749	13.38
646.782	-0.62
646.816	-0.62
646.85	8.38
646.883	-0.62
646.917	4.38
646.95	19.38
646.984	14.38
647.017	14.38
647.051	3.38
647.084	14.38
647.118	-1.62
647.151	-5.62
647.185	-3.62
647.218	-8.62
647.252	21.38
647.285	-8.62
647.319	-1.62
647.353	8.38
647.386	20.38
647.42	0.38
647.453	1.38
647.487	-0.62
647.52	8.38
647.553	20.38
647.587	-4.62
647.62	5.38
647.654	-2.62
647.687	12.38
647.721	22.38
647.754	25.38
647.788	9.38
647.821	-12.62
647.855	7.38
647.888	7.38
647.922	20.38
647.955	16.38
647.989	2.38
648.022	1.38
648.055	7.38
648.089	12.38
648.122	24.38
648.156	1.38
648.189	-6.62
648.223	11.38
648.256	21.38
648.29	5.38
648.323	-3.62
648.356	6.38
648.39	23.38
648.423	7.38
648.457	9.38
648.49	-5.62
648.523	17.38
648.557	12.38
648.59	12.38
648.624	10.38
648.657	5.38
648.69	21.38
648.724	10.38
648.757	15.38
648.791	22.38
648.824	7.38
648.857	3.38
648.891	8.38
648.924	5.38
648.957	16.38
648.991	-2.62
649.024	12.38
649.057	-1.62
649.091	15.38
649.124	6.38
649.158	7.38
649.191	21.38
649.224	-3.62
649.258	2.38
649.291	19.38
649.324	9.38
649.358	1.38
649.391	-7.62
649.424	0.38
649.458	0.38
649.491	7.38
649.524	-5.62
649.557	-1.62
649.591	-8.62
649.624	19.38
649.657	-4.62
649.691	13.38
649.724	11.38
649.757	9.38
649.791	-10.62
649.824	23.38
649.857	29.38
649.89	6.38
649.924	-13.62
649.957	3.38
649.99	-17.62
650.023	-0.62
650.057	5.38
650.09	-2.62
650.123	2.38
650.157	13.38
650.19	22.38
650.223	-6.62
650.256	-1.62
650.29	0.38
650.323	2.38
650.356	10.38
650.389	-8.62
650.423	-5.62
650.456	9.38
650.489	-3.62
650.522	3.38
650.555	18.38
650.589	8.38
650.622	13.38
650.655	18.38
650.688	-9.62
650.721	3.38
650.755	13.38
650.788	16.38
650.821	-7.62
650.854	-12.62
650.887	9.38
650.921	7.38
650.954	-22.62
650.987	0.38
651.02	9.38
651.053	-4.62
651.087	-3.62
651.12	20.38
651.153	9.38
651.186	-11.62
651.219	-14.62
651.252	5.38
651.286	6.38
651.319	-2.62
651.352	8.38
651.385	-7.62
651.418	11.38
651.451	21.38
651.484	-1.62
651.518	-10.62
651.551	16.38
651.584	-10.62
651.617	21.38
651.65	17.38
651.683	22.38
651.716	2.38
651.749	-21.62
651.783	-9.62
651.816	7.38
651.849	-1.62
651.882	6.38
651.915	4.38
651.948	17.38
651.981	-8.62
652.014	-29.62
652.047	-9.62
652.08	-30.62
652.114	8.38
652.147	5.38
652.18	6.38
652.213	33.38
652.246	3.38
652.279	4.38
652.312	12.38
652.345	5.38
652.378	6.38
652.411	14.38
652.444	10.38
652.477	-3.62
652.51	5.38
652.543	-8.62
652.576	6.38
652.609	-2.62
652.642	15.38
652.675	6.38
652.709	7.38
652.742	14.38
652.775	11.38
652.808	21.38
652.841	9.38
652.874	-6.62
652.907	-3.62
652.94	4.38
652.973	-12.62
653.006	3.38
653.039	5.38
653.072	-1.62
653.105	5.38
653.138	-7.62
653.171	7.38
653.204	-5.62
653.237	12.38
653.27	4.38
653.303	10.38
653.336	9.38
653.368	-4.62
653.401	18.38
653.434	-3.62
653.467	2.38
653.5	10.38
653.533	-5.62
653.566	9.38
653.599	9.38
653.632	8.38
653.665	1.38
653.698	-17.62
653.731	-8.62
653.764	5.38
653.797	1.38
653.83	-0.62
653.863	1.38
653.896	-2.62
653.929	13.38
653.961	5.38
653.994	6.38
654.027	-16.62
654.06	-5.62
654.093	7.38
654.126	10.38
654.159	-15.62
654.192	6.38
654.225	-10.62
654.258	-12.62
654.29	0.38
654.323	15.38
654.356	5.38
654.389	-7.62
654.422	-19.62
654.455	-9.62
654.488	12.38
654.521	-22.62
654.553	-5.62
654.586	8.38
654.619	7.38
654.652	12.38
654.685	17.38
654.718	17.38
654.751	12.38
654.783	0.38
654.816	30.38
654.849	12.38
654.882	-5.62
654.915	-21.62
654.948	-5.62
654.98	5.38
655.013	-6.62
655.046	-9.62
655.079	4.38
655.112	11.38
655.144	4.38
655.177	4.38
655.21	-1.62
655.243	14.38
655.276	8.38
655.308	-4.62
655.341	-13.62
655.374	16.38
655.407	3.38
655.44	1.38
655.472	20.38
655.505	-0.62
655.538	2.38
655.571	14.38
655.603	1.38
655.636	15.38
655.669	13.38
655.702	14.38
655.734	13.38
655.767	19.38
655.8	27.38
655.833	12.38
655.865	34.38
655.898	20.38
655.931	19.38
655.964	54.38
655.996	48.38
656.029	55.38
656.062	57.38
656.095	66.38
656.127	43.38
656.16	94.38
656.193	140.38
656.225	180.38
656.258	262.38
656.291	509.38
656.324	1146.38
656.356	3373.38
656.389	7526.38
656.422	6025.38
656.454	2083.38
656.487	677.38
656.52	262.38
656.552	122.38
656.585	80.38
656.618	53.38
656.65	46.38
656.683	27.38
656.716	31.38
656.748	19.38
656.781	2.38
656.814	4.38
656.846	8.38
656.879	-8.62
656.912	8.38
656.944	-6.62
656.977	-7.62
657.01	-0.62
657.042	6.38
657.075	9.38
657.108	5.38
657.14	6.38
657.173	21.38
657.205	31.38
657.238	18.38
657.271	9.38
657.303	-16.62
657.336	1.38
657.369	1.38
657.401	4.38
657.434	5.38
657.466	7.38
657.499	2.38
657.532	-4.62
657.564	14.38
657.597	10.38
657.629	11.38
657.662	8.38
657.694	15.38
657.727	-11.62
657.76	15.38
657.792	8.38
657.825	-7.62
657.857	8.38
657.89	11.38
657.922	5.38
657.955	3.38
657.987	11.38
658.02	2.38
658.053	8.38
658.085	9.38
658.118	10.38
658.15	1.38
658.183	31.38
658.215	2.38
658.248	6.38
658.28	5.38
658.313	26.38
658.345	22.38
658.378	-3.62
658.41	12.38
658.443	4.38
658.475	-3.62
658.508	-8.62
658.54	-3.62
658.573	-17.62
658.605	-2.62
658.638	5.38
658.67	16.38
658.703	-4.62
658.735	-12.62
658.768	5.38
658.8	13.38
658.833	12.38
658.865	8.38
658.898	5.38
658.93	2.38
658.963	-1.62
658.995	-9.62
659.028	-6.62
659.06	-5.62
659.092	5.38
659.125	3.38
659.157	2.38
659.19	-2.62
659.222	4.38
659.255	15.38
659.287	4.38
659.32	6.38
659.352	12.38
659.384	5.38
659.417	-13.62
659.449	-4.62
659.482	12.38
659.514	6.38
659.546	20.38
659.579	-5.62
659.611	9.38
659.644	-8.62
659.676	-1.62
659.708	-6.62
659.741	-0.62
659.773	22.38
659.806	5.38
659.838	3.38
659.87	9.38
659.903	2.38
659.935	5.38
659.967	-2.62
660	1.38
660.032	-8.62
660.065	10.38
660.097	9.38
660.129	4.38
660.162	-14.62
660.194	4.38
660.226	15.38
660.259	9.38
660.291	6.38
660.323	0.38
660.356	2.38
660.388	9.38
660.42	-7.62
660.453	25.38
660.485	14.38
660.517	19.38
660.55	27.38
660.582	2.38
660.614	1.38
660.647	0.38
660.679	-10.62
660.711	2.38
660.743	-9.62
660.776	-8.62
660.808	-1.62
660.84	-20.62
660.873	-7.62
660.905	4.38
660.937	3.38
660.969	7.38
661.002	-2.62
661.034	14.38
661.066	-9.62
661.099	-2.62
661.131	22.38
661.163	10.38
661.195	12.38
661.228	14.38
661.26	7.38
661.292	-9.62
661.324	12.38
661.357	14.38
661.389	12.38
661.421	0.38
661.453	11.38
661.485	7.38
661.518	-8.62
661.55	-12.62
661.582	-14.62
661.614	-15.62
661.647	6.38
661.679	7.38
661.711	9.38
661.743	-2.62
661.775	-3.62
661.808	28.38
661.84	-30.62
661.872	-9.62
661.904	-2.62
661.936	-1.62
661.969	-33.62
662.001	-23.62
662.033	9.38
662.065	1.38
662.097	3.38
662.129	7.38
662.162	6.38
662.194	3.38
662.226	3.38
662.258	6.38
662.29	3.38
662.322	-10.62
662.355	-7.62
662.387	22.38
662.419	21.38
662.451	22.38
662.483	3.38
662.515	3.38
662.547	-6.62
662.58	-3.62
662.612	-5.62
662.644	-3.62
662.676	-1.62
662.708	23.38
662.74	-3.62
662.772	-6.62
662.804	6.38
662.836	5.38
662.869	-10.62
662.901	11.38
662.933	1.38
662.965	-0.62
662.997	20.38
663.029	-15.62
663.061	-8.62
663.093	-14.62
663.125	-5.62
663.157	8.38
663.189	-2.62
663.221	5.38
663.254	0.38
663.286	-4.62
663.318	5.38
663.35	-2.62
663.382	-4.62
663.414	16.38
663.446	13.38
663.478	-12.62
663.51	25.38
663.542	-7.62
663.574	-16.62
663.606	-6.62
663.638	-0.62
663.67	6.38
663.702	-6.62
663.734	-8.62
663.766	6.38
663.798	12.38
663.83	9.38
663.862	9.38
663.894	-2.62
663.926	3.38
663.958	7.38
663.99	-0.62
664.022	-0.62
664.054	25.38
664.086	3.38
664.118	-0.62
664.15	-4.62
664.182	8.38
664.214	4.38
664.246	6.38
664.278	-3.62
664.31	20.38
664.342	12.38
664.374	-14.62
664.406	4.38
664.438	5.38
664.47	15.38
664.502	-8.62
664.534	-1.62
664.566	-5.62
664.598	12.38
664.63	5.38
664.662	-9.62
664.693	-11.62
664.725	-10.62
664.757	-3.62
664.789	5.38
664.821	13.38
664.853	12.38
664.885	-0.62
664.917	-11.62
664.949	6.38
664.981	7.38
665.013	-1.62
665.045	0.38
665.076	10.38
665.108	9.38
665.14	0.38
665.172	10.38
665.204	2.38
665.236	8.38
665.268	22.38
665.3	6.38
665.331	-5.62
665.363	0.38
665.395	-20.62
665.427	-2.62
665.459	-2.62
665.491	0.38
665.523	13.38
665.555	13.38
665.586	16.38
665.618	-5.62
665.65	-10.62
665.682	5.38
665.714	1.38
665.746	-1.62
665.777	-4.62
665.809	-8.62
665.841	1.38
665.873	6.38
665.905	-4.62
665.937	5.38
665.968	9.38
666	1.38
666.032	-0.62
666.064	-9.62
666.096	-3.62
666.127	17.38
666.159	19.38
666.191	6.38
666.223	-5.62
666.255	-4.62
666.286	4.38
666.318	8.38
666.35	29.38
666.382	13.38
666.413	0.38
666.445	1.38
666.477	1.38
666.509	10.38
666.54	8.38
666.572	-1.62
666.604	2.38
666.636	3.38
666.667	5.38
666.699	24.38
666.731	-7.62
666.763	-3.62
666.794	12.38
666.826	4.38
666.858	-0.62
666.89	16.38
666.921	-2.62
666.953	5.38
666.985	2.38
667.017	19.38
667.048	20.38
667.08	1.38
667.112	-6.62
667.143	1.38
667.175	-1.62
667.207	7.38
667.238	11.38
667.27	4.38
667.302	1.38
667.334	3.38
667.365	8.38
667.397	6.38
667.429	8.38
667.46	17.38
667.492	5.38
667.524	-6.62
667.555	3.38
667.587	11.38
667.619	-3.62
667.65	-11.62
667.682	9.38
667.714	17.38
667.745	5.38
667.777	12.38
667.808	4.38
667.84	2.38
667.872	11.38
667.903	25.38
667.935	3.38
667.967	1.38
667.998	6.38
668.03	-5.62
668.061	20.38
668.093	2.38
668.125	-2.62
668.156	3.38
668.188	-6.62
668.22	-14.62
668.251	7.38
668.283	13.38
668.314	15.38
668.346	7.38
668.377	14.38
668.409	13.38
668.441	9.38
668.472	-2.62
668.504	8.38
668.535	-2.62
668.567	3.38
668.599	-0.62
668.63	16.38
668.662	6.38
668.693	15.38
668.725	-0.62
668.756	2.38
668.788	-3.62
668.819	8.38
668.851	4.38
668.882	-0.62
668.914	1.38
668.946	-9.62
668.977	-10.62
669.009	-7.62
669.04	-19.62
669.072	4.38
669.103	-5.62
669.135	5.38
669.166	6.38
669.198	14.38
669.229	14.38
669.261	-9.62
669.292	1.38
669.324	16.38
669.355	2.38
669.387	10.38
669.418	-2.62
669.45	-22.62
669.481	18.38
669.513	-8.62
669.544	2.38
669.576	17.38
669.607	7.38
669.639	2.38
669.67	-5.62
669.701	21.38
669.733	-14.62
669.764	-1.62
669.796	-2.62
669.827	-7.62
669.859	-6.62
669.89	5.38
669.922	9.38
669.953	4.38
669.985	7.38
670.016	14.38
670.047	1.38
670.079	3.38
670.11	15.38
670.142	-3.62
670.173	-2.62
670.204	7.38
670.236	0.38
670.267	-4.62
670.299	1.38
670.33	4.38
670.362	9.38
670.393	-5.62
670.424	-1.62
670.456	-6.62
670.487	-6.62
670.518	-2.62
670.55	5.38
670.581	-0.62
670.613	2.38
670.644	-9.62
670.675	-9.62
670.707	-10.62
670.738	3.38
670.769	4.38
670.801	-9.62
670.832	11.38
670.864	-25.62
670.895	7.38
670.926	-11.62
670.958	-1.62
670.989	4.38
671.02	5.38
671.052	8.38
671.083	13.38
671.114	2.38
671.146	11.38
671.177	8.38
671.208	-9.62
671.24	-10.62
671.271	-5.62
671.302	-1.62
671.333	0.38
671.365	-12.62
671.396	-7.62
671.427	17.38
671.459	4.38
671.49	4.38
671.521	9.38
671.553	7.38
671.584	18.38
671.615	-2.62
671.646	8.38
671.678	1.38
671.709	2.38
671.74	-25.62
671.771	-7.62
671.803	-8.62
671.834	-7.62
671.865	5.38
671.896	-0.62
671.928	-2.62
671.959	2.38
671.99	4.38
672.021	-5.62
672.053	-6.62
672.084	9.38
672.115	9.38
672.146	-7.62
672.178	-15.62
672.209	-10.62
672.24	-2.62
672.271	23.38
672.303	-2.62
672.334	10.38
672.365	0.38
672.396	7.38
672.427	12.38
672.459	8.38
672.49	17.38
672.521	16.38
672.552	13.38
672.583	-4.62
672.615	-2.62
672.646	16.38
672.677	-6.62
672.708	12.38
672.739	7.38
672.77	28.38
672.802	8.38
672.833	-24.62
672.864	3.38
672.895	3.38
672.926	-4.62
672.957	-14.62
672.989	-2.62
673.02	-12.62
673.051	-12.62
673.082	23.38
673.113	-1.62
673.144	2.38
673.175	1.38
673.206	-5.62
673.238	-18.62
673.269	4.38
673.3	-6.62
673.331	22.38
673.362	4.38
673.393	-21.62
673.424	-0.62
673.455	7.38
673.487	4.38
673.518	26.38
673.549	1.38
673.58	-1.62
673.611	-1.62
673.642	1.38
673.673	-11.62
673.704	-6.62
673.735	13.38
673.766	0.38
673.797	-2.62
673.828	-2.62
673.86	4.38
673.891	-5.62
673.922	-12.62
673.953	8.38
673.984	-2.62
674.015	11.38
674.046	23.38
674.077	5.38
674.108	-5.62
674.139	-15.62
674.17	-3.62
674.201	-5.62
674.232	-6.62
674.263	-21.62
674.294	-5.62
674.325	-2.62
674.356	-9.62
674.387	10.38
674.418	3.38
674.449	-19.62
674.48	1.38
674.511	3.38
674.542	13.38
674.573	-17.62
674.604	7.38
674.635	-2.62
674.666	6.38
674.697	20.38
674.728	5.38
674.759	11.38
674.79	-15.62
674.821	-1.62
674.852	11.38
674.883	4.38
674.914	19.38
674.945	6.38
674.976	15.38
675.007	-15.62
675.038	-18.62
675.069	-12.62
675.1	8.38
675.131	5.38
675.162	0.38
675.193	-9.62
675.224	-10.62
675.254	3.38
675.285	15.38
675.316	15.38
675.347	7.38
675.378	-2.62
675.409	-8.62
675.44	8.38
675.471	4.38
675.502	0.38
675.533	-8.62
675.564	6.38
675.595	6.38
675.625	4.38
675.656	8.38
675.687	13.38
675.718	-17.62
675.749	7.38
675.78	8.38
675.811	-4.62
675.842	16.38
675.873	-3.62
675.903	-5.62
675.934	2.38
675.965	-2.62
675.996	-14.62
676.027	10.38
676.058	-0.62
676.089	-20.62
676.119	8.38
676.15	-3.62
676.181	11.38
676.212	-5.62
676.243	12.38
676.274	2.38
676.304	3.38
676.335	-9.62
676.366	-8.62
676.397	1.38
676.428	-5.62
676.459	-17.62
676.489	3.38
676.52	12.38
676.551	-9.62
676.582	-8.62
676.613	-0.62
676.643	-22.62
676.674	4.38
676.705	-7.62
676.736	11.38
676.767	15.38
676.797	17.38
676.828	5.38
676.859	7.38
676.89	9.38
676.92	5.38
676.951	3.38
676.982	5.38
677.013	13.38
677.044	9.38
677.074	-2.62
677.105	-9.62
677.136	0.38
677.167	4.38
677.197	7.38
677.228	2.38
677.259	-12.62
677.289	5.38
677.32	-17.62
677.351	-1.62
677.382	0.38
677.412	4.38
677.443	5.38
677.474	13.38
677.505	-15.62
677.535	5.38
677.566	-15.62
677.597	-7.62
677.627	6.38
677.658	4.38
677.689	12.38
677.72	4.38
677.75	3.38
677.781	12.38
677.812	-11.62
677.842	13.38
677.873	14.38
677.904	1.38
677.934	-1.62
677.965	-2.62
677.996	-14.62
678.026	-1.62
678.057	4.38
678.088	-7.62
678.118	-12.62
678.149	-20.62
678.18	-8.62
678.21	-15.62
678.241	-1.62
678.272	19.38
678.302	-7.62
678.333	-9.62
678.363	10.38
678.394	0.38
678.425	5.38
678.455	-17.62
678.486	12.38
678.517	-10.62
678.547	17.38
678.578	1.38
678.608	-22.62
678.639	-10.62
678.67	-9.62
678.7	4.38
678.731	-10.62
678.761	-8.62
678.792	11.38
678.823	2.38
678.853	-9.62
678.884	-19.62
678.914	-1.62
678.945	2.38
678.975	3.38
679.006	5.38
679.037	-3.62
679.067	5.38
679.098	-5.62
679.128	-0.62
679.159	-0.62
679.189	10.38
679.22	2.38
679.25	18.38
679.281	4.38
679.312	-10.62
679.342	12.38
679.373	28.38
679.403	7.38
679.434	17.38
679.464	4.38
679.495	-3.62
679.525	12.38
679.556	4.38
679.586	0.38
679.617	-1.62
679.647	-8.62
679.678	5.38
679.708	8.38
679.739	-1.62
679.769	-4.62
679.8	2.38
679.83	-14.62
679.861	17.38
679.891	3.38
679.922	-0.62
679.952	2.38
679.983	10.38
680.013	1.38
680.044	-13.62
680.074	6.38
680.105	9.38
680.135	3.38
680.165	5.38
680.196	2.38
680.226	2.38
680.257	5.38
680.287	-1.62
680.318	-9.62
680.348	-11.62
680.379	11.38
680.409	-2.62
680.439	-2.62
680.47	-5.62
680.5	-0.62
680.531	14.38
680.561	19.38
680.592	13.38
680.622	9.38
680.652	1.38
680.683	5.38
680.713	-3.62
680.744	-7.62
680.774	8.38
680.804	23.38
680.835	9.38
680.865	-7.62
680.896	11.38
680.926	6.38
680.956	2.38
680.987	3.38
681.017	-5.62
681.047	-1.62
681.078	-1.62
681.108	-7.62
681.139	-7.62
681.169	6.38
681.199	1.38
681.23	0.38
681.26	5.38
681.29	2.38
681.321	-5.62
681.351	2.38
681.381	-9.62
681.412	0.38
681.442	-8.62
681.472	8.38
681.503	10.38
681.533	4.38
681.563	0.38
681.594	-8.62
681.624	14.38
681.654	-10.62
681.685	-0.62
681.715	-0.62
681.745	7.38
681.775	-22.62
681.806	2.38
681.836	-12.62
681.866	-6.62
681.897	-2.62
681.927	-2.62
681.957	-8.62
681.987	-6.62
682.018	6.38
682.048	-2.62
682.078	5.38
682.109	30.38
682.139	7.38
682.169	-6.62
682.199	2.38
682.23	-12.62
682.26	14.38
682.29	-6.62
682.32	-19.62
682.351	1.38
682.381	1.38
682.411	7.38
682.441	12.38
682.472	1.38
682.502	-9.62
682.532	0.38
682.562	23.38
682.592	15.38
682.623	5.38
682.653	-4.62
682.683	-8.62
682.713	0.38
682.743	-0.62
682.774	1.38
682.804	-2.62
682.834	14.38
682.864	-4.62
682.894	-2.62
682.925	-2.62
682.955	-5.62
682.985	-1.62
683.015	4.38
683.045	2.38
683.076	-1.62
683.106	1.38
683.136	-6.62
683.166	-14.62
683.196	-8.62
683.226	-7.62
683.257	3.38
683.287	11.38
683.317	7.38
683.347	-7.62
683.377	-14.62
683.407	-12.62
683.437	4.38
683.468	11.38
683.498	3.38
683.528	7.38
683.558	10.38
683.588	-2.62
683.618	-0.62
683.648	-0.62
683.678	11.38
683.708	13.38
683.739	13.38
683.769	5.38
683.799	-4.62
683.829	1.38
683.859	14.38
683.889	10.38
683.919	5.38
683.949	12.38
683.979	-8.62
684.009	5.38
684.039	10.38
684.07	-6.62
684.1	21.38
684.13	14.38
684.16	0.38
684.19	-9.62
684.22	-12.62
684.25	-4.62
684.28	4.38
684.31	14.38
684.34	7.38
684.37	11.38
684.4	-10.62
684.43	-13.62
684.46	-7.62
684.49	-6.62
684.52	13.38
684.55	9.38
684.58	-1.62
684.61	18.38
684.64	5.38
684.67	8.38
684.7	0.38
684.73	8.38
684.76	-9.62
684.79	20.38
684.82	4.38
684.85	6.38
684.88	-1.62
684.91	4.38
684.94	5.38
684.97	-7.62
685	-2.62
685.03	-0.62
685.06	-4.62
685.09	4.38
685.12	13.38
685.15	12.38
685.18	8.38
685.21	15.38
685.24	20.38
685.27	21.38
685.3	-2.62
685.33	13.38
685.36	2.38
685.39	-1.62
685.42	-7.62
685.45	-7.62
685.48	0.38
685.51	-0.62
685.54	10.38
685.569	4.38
685.599	11.38
685.629	2.38
685.659	-0.62
685.689	-2.62
685.719	7.38
685.749	13.38
685.779	0.38
685.809	14.38
685.839	19.38
685.869	0.38
685.898	8.38
685.928	20.38
685.958	1.38
685.988	4.38
686.018	-3.62
686.048	8.38
686.078	-3.62
686.108	8.38
686.137	-0.62
686.167	17.38
686.197	-2.62
686.227	18.38
686.257	17.38
686.287	16.38
686.317	0.38
686.346	0.38
686.376	-10.62
686.406	12.38
686.436	-3.62
686.466	-8.62
686.496	9.38
686.525	1.38
686.555	2.38
686.585	17.38
686.615	21.38
686.645	18.38
686.675	13.38
686.704	17.38
686.734	13.38
686.764	-4.62
686.794	-2.62
686.824	-0.62
686.853	11.38
686.883	14.38
686.913	23.38
686.943	-8.62
686.973	-5.62
687.002	3.38
687.032	-8.62
687.062	2.38
687.092	19.38
687.121	-3.62
687.151	10.38
687.181	-3.62
687.211	6.38
687.24	8.38
687.27	1.38
687.3	-6.62
687.33	1.38
687.359	-2.62
687.389	-1.62
687.419	-1.62
687.449	8.38
687.478	16.38
687.508	10.38
687.538	18.38
687.568	2.38
687.597	-3.62
687.627	3.38
687.657	-0.62
687.686	-1.62
687.716	13.38
687.746	0.38
687.776	0.38
687.805	-4.62
687.835	-3.62
687.865	10.38
687.894	6.38
687.924	-2.62
687.954	9.38
687.983	-3.62
688.013	12.38
688.043	12.38
688.072	-1.62
688.102	-4.62
688.132	6.38
688.161	-1.62
688.191	1.38
688.221	23.38
688.25	1.38
688.28	14.38
688.31	3.38
688.339	8.38
688.369	-19.62
688.399	-9.62
688.428	3.38
688.458	13.38
688.488	3.38
688.517	8.38
688.547	-18.62
688.576	15.38
688.606	15.38
688.636	7.38
688.665	4.38
688.695	7.38
688.725	17.38
688.754	1.38
688.784	18.38
688.813	9.38
688.843	6.38
688.873	1.38
688.902	-3.62
688.932	5.38
688.961	20.38
688.991	-0.62
689.02	12.38
689.05	3.38
689.08	16.38
689.109	17.38
689.139	13.38
689.168	7.38
689.198	-6.62
689.227	-12.62
689.257	-0.62
689.287	15.38
689.316	7.38
689.346	-2.62
689.375	-1.62
689.405	20.38
689.434	5.38
689.464	11.38
689.493	-0.62
689.523	-1.62
689.552	-3.62
689.582	-2.62
689.611	1.38
689.641	13.38
689.67	-7.62
689.7	7.38
689.73	11.38
689.759	13.38
689.789	9.38
689.818	3.38
689.848	-6.62
689.877	7.38
689.906	-4.62
689.936	0.38
689.965	-0.62
689.995	8.38
690.024	14.38
690.054	0.38
690.083	11.38
690.113	-7.62
690.142	-1.62
690.172	-6.62
690.201	4.38
690.231	-6.62
690.26	10.38
690.29	4.38
690.319	23.38
690.348	-1.62
690.378	3.38
690.407	13.38
690.437	-9.62
690.466	-10.62
690.496	-3.62
690.525	-0.62
690.555	-3.62
690.584	-1.62
690.613	1.38
690.643	23.38
690.672	16.38
690.702	5.38
690.731	-3.62
690.76	7.38
690.79	-6.62
690.819	-8.62
690.849	-1.62
690.878	-5.62
690.907	0.38
690.937	12.38
690.966	20.38
690.996	-1.62
691.025	-2.62
691.054	5.38
691.084	7.38
691.113	4.38
691.142	10.38
691.172	3.38
691.201	-3.62
691.23	4.38
691.26	7.38
691.289	-2.62
691.319	3.38
691.348	13.38
691.377	22.38
691.407	12.38
691.436	10.38
691.465	-2.62
691.495	-1.62
691.524	-23.62
691.553	-5.62
691.583	18.38
691.612	27.38
691.641	4.38
691.67	1.38
691.7	14.38
691.729	13.38
691.758	5.38
691.788	6.38
691.817	-2.62
691.846	1.38
691.876	9.38
691.905	-2.62
691.934	-4.62
691.963	16.38
691.993	-4.62
692.022	-4.62
692.051	-13.62
692.081	5.38
692.11	21.38
692.139	10.38
692.168	19.38
692.198	12.38
692.227	24.38
692.256	9.38
692.285	2.38
692.315	5.38
692.344	23.38
692.373	14.38
692.402	-6.62
692.432	-13.62
692.461	7.38
692.49	11.38
692.519	10.38
692.548	10.38
692.578	7.38
692.607	0.38
692.636	-25.62
692.665	20.38
692.694	0.38
692.724	1.38
692.753	12.38
692.782	-0.62
692.811	-5.62
692.84	8.38
692.87	9.38
692.899	4.38
692.928	6.38
692.957	18.38
692.986	-4.62
693.016	2.38
693.045	9.38
693.074	-1.62
693.103	-2.62
693.132	2.38
693.161	5.38
693.191	-8.62
693.22	-7.62
693.249	-7.62
693.278	4.38
693.307	11.38
693.336	-4.62
693.365	-5.62
693.395	-13.62
693.424	21.38
693.453	9.38
693.482	-4.62
693.511	1.38
693.54	1.38
693.569	12.38
693.598	8.38
693.628	32.38
693.657	10.38
693.686	21.38
693.715	3.38
693.744	21.38
693.773	22.38
693.802	2.38
693.831	-4.62
693.86	18.38
693.889	-1.62
693.919	6.38
693.948	9.38
693.977	9.38
694.006	11.38
694.035	3.38
694.064	6.38
694.093	3.38
694.122	-0.62
694.151	-6.62
694.18	0.38
694.209	15.38
694.238	8.38
694.267	20.38
694.296	23.38
694.325	13.38
694.354	14.38
694.383	9.38
694.412	-9.62
694.441	-16.62
694.471	-9.62
694.5	-9.62
694.529	6.38
694.558	9.38
694.587	-3.62
694.616	2.38
694.645	9.38
694.674	17.38
694.703	-0.62
694.732	12.38
694.761	9.38
694.79	32.38
694.819	-4.62
694.848	1.38
694.877	3.38
694.906	27.38
694.935	6.38
694.963	10.38
694.992	12.38
695.021	13.38
695.05	11.38
695.079	-3.62
695.108	-3.62
695.137	22.38
695.166	2.38
695.195	-4.62
695.224	4.38
695.253	11.38
695.282	9.38
695.311	8.38
695.34	6.38
695.369	-2.62
695.398	9.38
695.427	9.38
695.456	2.38
695.485	3.38
695.513	12.38
695.542	1.38
695.571	-1.62
695.6	24.38
695.629	12.38
695.658	1.38
695.687	14.38
695.716	9.38
695.745	11.38
695.774	-3.62
695.802	3.38
695.831	3.38
695.86	2.38
695.889	19.38
695.918	12.38
695.947	18.38
695.976	12.38
696.005	-3.62
696.033	9.38
696.062	17.38
696.091	2.38
696.12	6.38
696.149	10.38
696.178	3.38
696.207	12.38
696.235	-6.62
696.264	4.38
696.293	4.38
696.322	1.38
696.351	6.38
696.38	12.38
696.408	-9.62
696.437	5.38
696.466	6.38
696.495	3.38
696.524	1.38
696.553	0.38
696.581	19.38
696.61	17.38
696.639	6.38
696.668	5.38
696.697	14.38
696.725	4.38
696.754	-3.62
696.783	-5.62
696.812	-4.62
696.84	25.38
696.869	18.38
696.898	1.38
696.927	8.38
696.956	29.38
696.984	2.38
697.013	-4.62
697.042	1.38
697.071	5.38
697.099	-2.62
697.128	5.38
697.157	7.38
697.186	0.38
697.214	-2.62
697.243	13.38
697.272	-15.62
697.301	5.38
697.329	2.38
697.358	10.38
697.387	23.38
697.415	26.38
697.444	0.38
697.473	12.38
697.502	-5.62
697.53	16.38
697.559	-1.62
697.588	3.38
697.616	6.38
697.645	1.38
697.674	21.38
697.703	-10.62
697.731	15.38
697.76	26.38
697.789	-0.62
697.817	18.38
697.846	17.38
697.875	20.38
697.903	32.38
697.932	22.38
697.961	7.38
697.989	12.38
698.018	6.38
698.047	-1.62
698.075	19.38
698.104	-1.62
698.133	-0.62
698.161	-9.62
698.19	5.38
698.218	9.38
698.247	-4.62
698.276	-3.62
698.304	-1.62
698.333	0.38
698.362	13.38
698.39	1.38
698.419	21.38
698.447	12.38
698.476	-0.62
698.505	7.38
698.533	10.38
698.562	10.38
698.591	-10.62
698.619	5.38
698.648	5.38
698.676	6.38
698.705	1.38
698.733	-13.62
698.762	12.38
698.791	1.38
698.819	0.38
698.848	-13.62
698.876	-1.62
698.905	6.38
698.933	2.38
698.962	4.38
698.991	4.38
699.019	20.38
699.048	7.38
699.076	2.38
699.105	4.38
699.133	-5.62
699.162	-1.62
699.19	20.38
699.219	19.38
699.248	-6.62
699.276	-0.62
699.305	-5.62
699.333	9.38
699.362	6.38
699.39	-3.62
699.419	-4.62
699.447	1.38
699.476	12.38
699.504	0.38
699.533	5.38
699.561	3.38
699.59	13.38
699.618	0.38
699.647	0.38
699.675	2.38
699.704	0.38
699.732	4.38
699.761	23.38
699.789	9.38
699.818	20.38
699.846	0.38
699.874	-4.62
699.903	11.38
699.931	-3.62
699.96	2.38
699.988	14.38
700.017	5.38
700.045	-2.62
700.074	-14.62
700.102	1.38
700.13	8.38
700.159	10.38
700.187	12.38
700.216	5.38
700.244	0.38
700.273	-0.62
700.301	10.38
700.329	5.38
700.358	23.38
700.386	8.38
700.415	6.38
700.443	-3.62
700.472	-3.62
700.5	3.38
700.528	14.38
700.557	12.38
700.585	1.38
700.614	12.38
700.642	16.38
700.67	30.38
700.699	9.38
700.727	-3.62
700.755	11.38
700.784	12.38
700.812	5.38
700.841	1.38
700.869	6.38
700.897	-2.62
700.926	3.38
700.954	1.38
700.982	4.38
701.011	6.38
701.039	11.38
701.067	15.38
701.096	-1.62
701.124	-8.62
701.152	5.38
701.181	-13.62
701.209	0.38
701.237	21.38
701.266	6.38
701.294	-4.62
701.322	2.38
701.351	7.38
701.379	7.38
701.407	-5.62
701.435	-12.62
701.464	0.38
701.492	28.38
701.52	-5.62
701.549	3.38
701.577	-13.62
701.605	2.38
701.634	0.38
701.662	12.38
701.69	0.38
701.718	2.38
701.747	2.38
701.775	-10.62
701.803	13.38
701.831	8.38
701.86	20.38
701.888	23.38
701.916	-1.62
701.944	4.38
701.973	-8.62
702.001	0.38
702.029	-6.62
702.057	1.38
702.086	-3.62
702.114	0.38
702.142	-6.62
702.17	-9.62
702.199	4.38
702.227	-9.62
702.255	4.38
702.283	-5.62
702.311	8.38
702.34	14.38
702.368	-12.62
702.396	10.38
702.424	7.38
702.452	9.38
702.481	5.38
702.509	6.38
702.537	8.38
702.565	5.38
702.593	2.38
702.621	10.38
702.65	2.38
702.678	-7.62
702.706	5.38
702.734	-2.62
702.762	-9.62
702.79	9.38
702.819	13.38
702.847	-2.62
702.875	17.38
702.903	18.38
702.931	-2.62
702.959	4.38
702.988	3.38
703.016	-0.62
703.044	-6.62
703.072	-2.62
703.1	-6.62
703.128	2.38
703.156	11.38
703.184	2.38
703.212	-1.62
703.241	20.38
703.269	9.38
703.297	10.38
703.325	1.38
703.353	-8.62
703.381	0.38
703.409	11.38
703.437	-5.62
703.465	3.38
703.493	-3.62
703.522	25.38
703.55	16.38
703.578	9.38
703.606	-6.62
703.634	-12.62
703.662	-3.62
703.69	7.38
703.718	1.38
703.746	31.38
703.774	7.38
703.802	17.38
703.83	-6.62
703.858	1.38
703.886	-4.62
703.914	-3.62
703.942	9.38
703.97	14.38
703.998	4.38
704.027	9.38
704.055	-2.62
704.083	8.38
704.111	-7.62
704.139	-4.62
704.167	8.38
704.195	6.38
704.223	-4.62
704.251	0.38
704.279	0.38
704.307	-12.62
704.335	-10.62
704.363	14.38
704.391	-13.62
704.419	-8.62
704.447	-13.62
704.475	-8.62
704.503	-1.62
704.531	14.38
704.558	17.38
704.586	-8.62
704.614	-14.62
704.642	2.38
704.67	-5.62
704.698	-1.62
704.726	-4.62
704.754	-4.62
704.782	-10.62
704.81	-8.62
704.838	14.38
704.866	-0.62
704.894	-13.62
704.922	-5.62
704.95	7.38
704.978	10.38
705.006	4.38
705.034	25.38
705.061	-3.62
705.089	-2.62
705.117	-0.62
705.145	-12.62
705.173	10.38
705.201	21.38
705.229	18.38
705.257	8.38
705.285	14.38
705.313	6.38
705.34	5.38
705.368	5.38
705.396	4.38
705.424	-5.62
705.452	-4.62
705.48	10.38
705.508	0.38
705.536	-1.62
705.563	0.38
705.591	-6.62
705.619	-0.62
705.647	-11.62
705.675	2.38
705.703	10.38
705.731	16.38
705.758	7.38
705.786	6.38
705.814	10.38
705.842	-6.62
705.87	7.38
705.898	22.38
705.925	-1.62
705.953	4.38
705.981	-6.62
706.009	5.38
706.037	21.38
706.065	1.38
706.092	-14.62
706.12	14.38
706.148	0.38
706.176	-5.62
706.204	12.38
706.231	15.38
706.259	-3.62
706.287	3.38
706.315	9.38
706.342	-2.62
706.37	12.38
706.398	1.38
706.426	-1.62
706.454	0.38
706.481	10.38
706.509	-1.62
706.537	-11.62
706.565	1.38
706.592	3.38
706.62	-2.62
706.648	-7.62
706.676	-8.62
706.703	2.38
706.731	-8.62
706.759	-7.62
706.787	6.38
706.814	2.38
706.842	0.38
706.87	7.38
706.897	-1.62
706.925	-3.62
706.953	-3.62
706.981	11.38
707.008	4.38
707.036	-2.62
707.064	-0.62
707.091	-6.62
707.119	14.38
707.147	0.38
707.174	-7.62
707.202	6.38
707.23	-0.62
707.258	3.38
707.285	-1.62
707.313	-4.62
707.341	-3.62
707.368	6.38
707.396	-7.62
707.424	6.38
707.451	0.38
707.479	10.38
707.507	2.38
707.534	-13.62
707.562	-6.62
707.59	-5.62
707.617	-11.62
707.645	16.38
707.672	16.38
707.7	8.38
707.728	1.38
707.755	2.38
707.783	-3.62
707.811	10.38
707.838	-7.62
707.866	-2.62
707.893	5.38
707.921	-0.62
707.949	-4.62
707.976	-0.62
708.004	0.38
708.031	-6.62
708.059	-6.62
708.087	9.38
708.114	-0.62
708.142	-3.62
708.169	-1.62
708.197	-10.62
708.225	-1.62
708.252	-5.62
708.28	5.38
708.307	4.38
708.335	-1.62
708.362	-2.62
708.39	-1.62
708.418	-4.62
708.445	-5.62
708.473	-15.62
708.5	-10.62
708.528	7.38
708.555	-2.62
708.583	6.38
708.61	0.38
708.638	4.38
708.665	-5.62
708.693	0.38
708.72	-10.62
708.748	6.38
708.776	-19.62
708.803	1.38
708.831	5.38
708.858	17.38
708.886	-15.62
708.913	1.38
708.941	-12.62
708.968	-3.62
708.996	-0.62
709.023	9.38
709.051	4.38
709.078	-19.62
709.105	12.38
709.133	1.38
709.16	0.38
709.188	3.38
709.215	14.38
709.243	-13.62
709.27	-6.62
709.298	-3.62
709.325	-5.62
709.353	2.38
709.38	-2.62
709.408	17.38
709.435	0.38
709.462	-2.62
709.49	9.38
709.517	11.38
709.545	-4.62
709.572	-3.62
709.6	2.38
709.627	-1.62
709.655	-15.62
709.682	-3.62
709.709	5.38
709.737	-2.62
709.764	5.38
709.792	5.38
709.819	20.38
709.846	-1.62
709.874	8.38
709.901	19.38
709.929	21.38
709.956	5.38
709.983	-6.62
710.011	-5.62
710.038	0.38
710.066	13.38
710.093	10.38
710.12	5.38
710.148	0.38
710.175	-14.62
710.202	-11.62
710.23	-2.62
710.257	0.38
710.284	2.38
710.312	1.38
710.339	-13.62
710.366	4.38
710.394	3.38
710.421	11.38
710.448	-3.62
710.476	-0.62
710.503	-2.62
710.53	21.38
710.558	28.38
710.585	25.38
710.612	-9.62
710.64	3.38
710.667	13.38
710.694	4.38
710.722	1.38
710.749	1.38
710.776	3.38
710.804	5.38
710.831	9.38
710.858	9.38
710.885	9.38
710.913	-6.62
710.94	33.38
710.967	14.38
710.995	0.38
711.022	-2.62
711.049	-0.62
711.076	-15.62
711.104	9.38
711.131	-9.62
711.158	-2.62
711.185	7.38
711.213	-10.62
711.24	0.38
711.267	13.38
711.294	-0.62
711.322	4.38
711.349	-4.62
711.376	-9.62
711.403	-2.62
711.431	-15.62
711.458	1.38
711.485	-10.62
711.512	-19.62
711.54	2.38
711.567	8.38
711.594	-12.62
711.621	2.38
711.648	13.38
711.676	11.38
711.703	-3.62
711.73	-21.62
711.757	1.38
711.784	1.38
711.812	-5.62
711.839	1.38
711.866	-3.62
711.893	2.38
711.92	16.38
711.947	5.38
711.975	24.38
712.002	-1.62
712.029	11.38
712.056	0.38
712.083	-10.62
712.11	-14.62
712.138	13.38
712.165	12.38
712.192	5.38
712.219	-10.62
712.246	-8.62
712.273	-11.62
712.3	-5.62
712.328	13.38
712.355	5.38
712.382	-17.62
712.409	-2.62
712.436	-9.62
712.463	18.38
712.49	8.38
712.517	-9.62
712.544	-29.62
712.572	-10.62
712.599	-6.62
712.626	6.38
712.653	4.38
712.68	-6.62
712.707	3.38
712.734	12.38
712.761	10.38
712.788	0.38
712.815	0.38
712.842	40.38
712.87	6.38
712.897	-5.62
712.924	-21.62
712.951	-3.62
712.978	13.38
713.005	7.38
713.032	9.38
713.059	-4.62
713.086	-1.62
713.113	-5.62
713.14	-15.62
713.167	-4.62
713.194	4.38
713.221	10.38
713.248	18.38
713.275	-14.62
713.302	3.38
713.329	1.38
713.356	1.38
713.383	-14.62
713.41	14.38
713.437	-7.62
713.464	-11.62
713.491	7.38
713.518	5.38
713.545	-2.62
713.572	-4.62
713.599	-3.62
713.626	10.38
713.653	5.38
713.68	1.38
713.707	2.38
713.734	8.38
713.761	-12.62
713.788	10.38
713.815	11.38
713.842	-4.62
713.869	-10.62
713.896	5.38
713.923	5.38
713.95	1.38
713.977	-0.62
714.004	-10.62
714.031	-16.62
714.058	4.38
714.085	4.38
714.112	20.38
714.139	-6.62
714.165	-10.62
714.192	-5.62
714.219	6.38
714.246	14.38
714.273	-3.62
714.3	8.38
714.327	6.38
714.354	12.38
714.381	3.38
714.408	3.38
714.435	12.38
714.461	-2.62
714.488	4.38
714.515	1.38
714.542	-2.62
714.569	-3.62
714.596	-8.62
714.623	-8.62
714.65	-11.62
714.677	3.38
714.703	-1.62
714.73	12.38
714.757	8.38
714.784	5.38
714.811	-27.62
714.838	-10.62
714.865	-10.62
714.891	1.38
714.918	10.38
714.945	-4.62
714.972	3.38
714.999	-1.62
715.026	-19.62
715.052	2.38
715.079	11.38
715.106	19.38
715.133	11.38
715.16	7.38
715.187	9.38
715.213	14.38
715.24	-7.62
715.267	-1.62
715.294	8.38
715.321	-3.62
715.347	-5.62
715.374	-3.62
715.401	10.38
715.428	0.38
715.455	5.38
715.481	-20.62
715.508	8.38
715.535	-0.62
715.562	16.38
715.588	-0.62
715.615	-1.62
715.642	4.38
715.669	11.38
715.695	-21.62
715.722	-15.62
715.749	-6.62
715.776	2.38
715.802	-6.62
715.829	5.38
715.856	-0.62
715.883	13.38
715.909	-4.62
715.936	-4.62
715.963	-3.62
715.99	-16.62
716.016	13.38
716.043	-19.62
716.07	-6.62
716.096	-14.62
716.123	-5.62
716.15	0.38
716.177	12.38
716.203	16.38
716.23	1.38
716.257	1.38
716.283	5.38
716.31	-1.62
716.337	-3.62
716.363	-7.62
716.39	19.38
716.417	21.38
716.443	7.38
716.47	20.38
716.497	20.38
716.523	11.38
716.55	22.38
716.577	14.38
716.603	0.38
716.63	8.38
716.657	8.38
716.683	1.38
716.71	3.38
716.737	-2.62
716.763	9.38
716.79	7.38
716.817	-3.62
716.843	0.38
716.87	9.38
716.897	-4.62
716.923	4.38
716.95	-3.62
716.976	-6.62
717.003	-1.62
717.03	4.38
717.056	4.38
717.083	-6.62
717.109	6.38
717.136	5.38
717.163	-6.62
717.189	9.38
717.216	-6.62
717.242	-4.62
717.269	4.38
717.296	5.38
717.322	-1.62
717.349	-0.62
717.375	0.38
717.402	-0.62
717.428	-0.62
717.455	9.38
717.481	10.38
717.508	13.38
717.535	-4.62
717.561	1.38
717.588	2.38
717.614	-0.62
717.641	1.38
717.667	1.38
717.694	4.38
717.72	-7.62
717.747	2.38
717.773	7.38
717.8	9.38
717.826	-3.62
717.853	9.38
717.88	11.38
717.906	12.38
717.933	6.38
717.959	3.38
717.986	-1.62
718.012	7.38
718.039	7.38
718.065	28.38
718.092	-3.62
718.118	-6.62
718.144	0.38
718.171	13.38
718.197	18.38
718.224	0.38
718.25	9.38
718.277	6.38
718.303	15.38
718.33	-6.62
718.356	0.38
718.383	-7.62
718.409	9.38
718.436	6.38
718.462	3.38
718.489	-0.62
718.515	17.38
718.541	38.38
718.568	23.38
718.594	-4.62
718.621	9.38
718.647	-7.62
718.674	4.38
718.7	20.38
718.726	10.38
718.753	9.38
718.779	12.38
718.806	-2.62
718.832	-0.62
718.858	-2.62
718.885	0.38
718.911	-8.62
718.938	7.38
718.964	-5.62
718.99	-1.62
719.017	15.38
719.043	-2.62
719.07	8.38
719.096	-20.62
719.122	15.38
719.149	3.38
719.175	1.38
719.201	2.38
719.228	5.38
719.254	15.38
719.281	-5.62
719.307	-8.62
719.333	2.38
719.36	12.38
719.386	-3.62
719.412	-0.62
719.439	4.38
719.465	2.38
719.491	-2.62
719.518	4.38
719.544	7.38
719.57	8.38
719.597	15.38
719.623	-10.62
719.649	13.38
719.675	0.38
719.702	7.38
719.728	2.38
719.754	-12.62
719.781	4.38
719.807	-3.62
719.833	8.38
719.86	-8.62
719.886	5.38
719.912	-3.62
719.938	-4.62
719.965	4.38
719.991	22.38
720.017	11.38
720.044	6.38
720.07	6.38
720.096	8.38
720.122	3.38
720.149	13.38
720.175	13.38
720.201	13.38
720.227	5.38
720.254	-3.62
720.28	-2.62
720.306	5.38
720.332	-0.62
720.359	-1.62
720.385	4.38
720.411	12.38
720.437	3.38
720.463	-0.62
720.49	22.38
720.516	-12.62
720.542	-13.62
720.568	7.38
720.595	5.38
720.621	5.38
720.647	12.38
720.673	23.38
720.699	-6.62
720.725	-2.62
720.752	15.38
720.778	9.38
720.804	17.38
720.83	13.38
720.856	-2.62
720.883	-1.62
720.909	-1.62
720.935	9.38
720.961	9.38
720.987	13.38
721.013	8.38
721.04	5.38
721.066	2.38
721.092	-5.62
721.118	15.38
721.144	4.38
721.17	8.38
721.196	-0.62
721.223	-4.62
721.249	-4.62
721.275	7.38
721.301	13.38
721.327	12.38
721.353	3.38
721.379	7.38
721.405	3.38
721.432	14.38
721.458	1.38
721.484	32.38
721.51	-17.62
721.536	2.38
721.562	-2.62
721.588	1.38
721.614	-23.62
721.64	-5.62
721.666	2.38
721.693	-3.62
721.719	-5.62
721.745	5.38
721.771	0.38
721.797	13.38
721.823	-12.62
721.849	6.38
721.875	10.38
721.901	14.38
721.927	7.38
721.953	-3.62
721.979	-2.62
722.005	6.38
722.031	-13.62
722.057	-3.62
722.083	-3.62
722.109	8.38
722.135	7.38
722.161	8.38
722.187	0.38
722.214	-2.62
722.24	-10.62
722.266	-3.62
722.292	18.38
722.318	10.38
722.344	-5.62
722.37	10.38
722.396	-3.62
722.422	6.38
722.448	-2.62
722.474	-14.62
722.5	2.38
722.526	6.38
722.552	11.38
722.578	-2.62
722.603	8.38
722.629	1.38
722.655	4.38
722.681	-1.62
722.707	-8.62
722.733	4.38
722.759	-7.62
722.785	-15.62
722.811	6.38
722.837	-10.62
722.863	-6.62
722.889	8.38
722.915	3.38
722.941	0.38
722.967	3.38
722.993	6.38
723.019	-7.62
723.045	13.38
723.071	1.38
723.097	5.38
723.122	0.38
723.148	-9.62
723.174	0.38
723.2	5.38
723.226	-3.62
723.252	5.38
723.278	-6.62
723.304	1.38
723.33	-1.62
723.356	3.38
723.381	1.38
723.407	-5.62
723.433	10.38
723.459	8.38
723.485	0.38
723.511	14.38
723.537	-6.62
723.563	-4.62
723.588	6.38
723.614	10.38
723.64	3.38
723.666	-2.62
723.692	12.38
723.718	-2.62
723.744	2.38
723.769	-2.62
723.795	-4.62
723.821	5.38
723.847	-0.62
723.873	-1.62
723.899	-5.62
723.924	-11.62
723.95	-1.62
723.976	-9.62
724.002	6.38
724.028	-5.62
724.053	-1.62
724.079	2.38
724.105	1.38
724.131	-5.62
724.157	-1.62
724.182	7.38
724.208	8.38
724.234	2.38
724.26	10.38
724.286	21.38
724.311	11.38
724.337	-13.62
724.363	-24.62
724.389	6.38
724.415	13.38
724.44	20.38
724.466	3.38
724.492	2.38
724.518	4.38
724.543	6.38
724.569	2.38
724.595	8.38
724.621	-8.62
724.646	-20.62
724.672	-15.62
724.698	-4.62
724.723	7.38
724.749	0.38
724.775	13.38
724.801	4.38
724.826	-14.62
724.852	4.38
724.878	-4.62
724.904	-20.62
724.929	6.38
724.955	3.38
724.981	0.38
725.006	-1.62
725.032	4.38
725.058	-2.62
725.083	-9.62
725.109	-2.62
725.135	1.38
725.161	0.38
725.186	-0.62
725.212	-2.62
725.238	8.38
725.263	5.38
725.289	-17.62
725.315	-18.62
725.34	-7.62
725.366	-1.62
725.392	-2.62
725.417	6.38
725.443	-0.62
725.468	1.38
725.494	7.38
725.52	14.38
725.545	9.38
725.571	12.38
725.597	-2.62
725.622	-3.62
725.648	-6.62
725.674	10.38
725.699	9.38
725.725	2.38
725.75	17.38
725.776	-3.62
725.802	-1.62
725.827	20.38
725.853	3.38
725.878	3.38
725.904	1.38
725.93	15.38
725.955	-8.62
725.981	-6.62
726.006	-0.62
726.032	22.38
726.057	2.38
726.083	-6.62
726.109	0.38
726.134	8.38
726.16	0.38
726.185	-12.62
726.211	-14.62
726.236	8.38
726.262	17.38
726.288	10.38
726.313	10.38
726.339	5.38
726.364	-0.62
726.39	11.38
726.415	1.38
726.441	2.38
726.466	-15.62
726.492	-8.62
726.517	5.38
726.543	9.38
726.568	-6.62
726.594	-10.62
726.619	2.38
726.645	7.38
726.67	5.38
726.696	-1.62
726.721	3.38
726.747	-3.62
726.772	-3.62
726.798	-1.62
726.823	-9.62
726.849	-1.62
726.874	5.38
726.9	24.38
726.925	16.38
726.951	-5.62
726.976	1.38
727.002	-3.62
727.027	0.38
727.053	17.38
727.078	4.38
727.104	14.38
727.129	-11.62
727.155	-9.62
727.18	29.38
727.205	-3.62
727.231	3.38
727.256	14.38
727.282	5.38
727.307	14.38
727.333	0.38
727.358	1.38
727.383	-13.62
727.409	-19.62
727.434	3.38
727.46	-3.62
727.485	0.38
727.511	-6.62
727.536	-7.62
727.561	-13.62
727.587	-11.62
727.612	-10.62
727.637	-2.62
727.663	-6.62
727.688	10.38
727.714	-14.62
727.739	-2.62
727.764	-2.62
727.79	20.38
727.815	-1.62
727.841	-2.62
727.866	13.38
727.891	2.38
727.917	-7.62
727.942	-7.62
727.967	-0.62
727.993	-9.62
728.018	-4.62
728.043	9.38
728.069	8.38
728.094	3.38
728.119	8.38
728.145	3.38
728.17	9.38
728.195	1.38
728.221	14.38
728.246	-14.62
728.271	-11.62
728.297	-6.62
728.322	10.38
728.347	6.38
728.373	-2.62
728.398	2.38
728.423	-6.62
728.448	24.38
728.474	-2.62
728.499	-1.62
728.524	-10.62
728.55	-1.62
728.575	5.38
728.6	-9.62
728.625	-11.62
728.651	11.38
728.676	-14.62
728.701	-0.62
728.727	-5.62
728.752	-17.62
728.777	0.38
728.802	5.38
728.828	2.38
728.853	2.38
728.878	-11.62
728.903	-9.62
728.929	-11.62
728.954	4.38
728.979	8.38
729.004	-2.62
729.03	0.38
729.055	6.38
729.08	-13.62
729.105	10.38
729.13	21.38
729.156	16.38
729.181	4.38
729.206	-11.62
729.231	3.38
729.256	5.38
729.282	-3.62
729.307	-15.62
729.332	-13.62
729.357	-3.62
729.382	6.38
729.408	1.38
729.433	0.38
729.458	1.38
729.483	-1.62
729.508	6.38
729.533	7.38
729.559	12.38
729.584	1.38
729.609	5.38
729.634	11.38
729.659	4.38
729.684	-2.62
729.71	22.38
729.735	8.38
729.76	-6.62
729.785	-7.62
729.81	17.38
729.835	2.38
729.86	-12.62
729.886	10.38
729.911	-1.62
729.936	-20.62
729.961	-5.62
729.986	-18.62
730.011	16.38
730.036	10.38
730.061	6.38
730.086	11.38
730.112	5.38
730.137	22.38
730.162	13.38
730.187	8.38
730.212	18.38
730.237	-7.62
730.262	-1.62
730.287	-6.62
730.312	6.38
730.337	-15.62
730.362	18.38
730.387	11.38
730.413	3.38
730.438	-6.62
730.463	9.38
730.488	-1.62
730.513	-9.62
730.538	2.38
730.563	-1.62
730.588	7.38
730.613	15.38
730.638	-0.62
730.663	5.38
730.688	15.38
730.713	6.38
730.738	-4.62
730.763	3.38
730.788	-11.62
730.813	2.38
730.838	1.38
730.863	12.38
730.888	1.38
730.913	-3.62
730.938	-12.62
730.963	-6.62
730.988	-2.62
731.013	22.38
731.038	2.38
731.063	-23.62
731.088	7.38
731.113	2.38
731.138	9.38
731.163	1.38
731.188	-5.62
731.213	1.38
731.238	5.38
731.263	-1.62
731.288	-1.62
731.313	-5.62
731.338	-5.62
731.363	9.38
731.388	10.38
731.413	12.38
731.438	17.38
731.463	13.38
731.487	14.38
731.512	0.38
731.537	4.38
731.562	4.38
731.587	18.38
731.612	0.38
731.637	6.38
731.662	1.38
731.687	4.38
731.712	-23.62
731.737	3.38
731.762	-5.62
731.786	4.38
731.811	-1.62
731.836	-2.62
731.861	0.38
731.886	-8.62
731.911	11.38
731.936	-0.62
731.961	-12.62
731.986	-7.62
732.01	-7.62
732.035	-1.62
732.06	-1.62
732.085	6.38
732.11	19.38
732.135	-6.62
732.16	-3.62
732.184	-2.62
732.209	-5.62
732.234	18.38
732.259	-3.62
732.284	17.38
732.309	0.38
732.334	-6.62
732.358	-5.62
732.383	-6.62
732.408	-17.62
732.433	-4.62
732.458	-1.62
732.482	2.38
732.507	-0.62
732.532	8.38
732.557	5.38
732.582	1.38
732.607	12.38
732.631	-9.62
732.656	0.38
732.681	-3.62
732.706	-4.62
732.73	-3.62
732.755	-3.62
732.78	3.38
732.805	11.38
732.83	4.38
732.854	0.38
732.879	10.38
732.904	-3.62
732.929	-13.62
732.953	8.38
732.978	-9.62
733.003	-6.62
733.028	6.38
733.052	17.38
733.077	5.38
733.102	21.38
733.127	-1.62
733.151	-4.62
733.176	5.38
733.201	-3.62
733.226	4.38
733.25	-4.62
733.275	-8.62
733.3	-5.62
733.324	11.38
733.349	14.38
733.374	12.38
733.399	-2.62
733.423	-2.62
733.448	-15.62
733.473	1.38
733.497	10.38
733.522	-9.62
733.547	14.38
733.571	16.38
733.596	13.38
733.621	4.38
733.646	-11.62
733.67	4.38
733.695	-9.62
733.72	1.38
733.744	1.38
733.769	-1.62
733.794	8.38
733.818	11.38
733.843	13.38
733.867	0.38
733.892	1.38
733.917	3.38
733.941	-3.62
733.966	-12.62
733.991	-2.62
734.015	16.38
734.04	12.38
734.065	3.38
734.089	9.38
734.114	-2.62
734.138	12.38
734.163	-0.62
734.188	10.38
734.212	9.38
734.237	-17.62
734.261	4.38
734.286	-7.62
734.311	1.38
734.335	8.38
734.36	-10.62
734.384	1.38
734.409	-3.62
734.434	-10.62
734.458	7.38
734.483	6.38
734.507	-1.62
734.532	0.38
734.556	-5.62
734.581	6.38
734.606	0.38
734.63	-5.62
734.655	14.38
734.679	-3.62
734.704	-2.62
734.728	-3.62
734.753	10.38
734.777	0.38
734.802	4.38
734.826	9.38
734.851	6.38
734.876	15.38
734.9	5.38
734.925	25.38
734.949	14.38
734.974	1.38
734.998	4.38
735.023	-7.62
735.047	-14.62
735.072	9.38
735.096	-4.62
735.121	1.38
735.145	-5.62
735.17	-7.62
735.194	4.38
735.219	-1.62
735.243	-0.62
735.268	-1.62
735.292	-2.62
735.317	17.38
735.341	1.38
735.365	-10.62
735.39	17.38
735.414	9.38
735.439	1.38
735.463	5.38
735.488	6.38
735.512	10.38
735.537	-2.62
735.561	5.38
735.586	8.38
735.61	14.38
735.634	-0.62
735.659	-5.62
735.683	3.38
735.708	-5.62
735.732	-2.62
735.757	-1.62
735.781	13.38
735.805	5.38
735.83	-3.62
735.854	-6.62
735.879	-13.62
735.903	6.38
735.927	18.38
735.952	0.38
735.976	-5.62
736.001	1.38
736.025	-5.62
736.049	12.38
736.074	9.38
736.098	9.38
736.123	9.38
736.147	-7.62
736.171	0.38
736.196	21.38
736.22	0.38
736.244	2.38
736.269	-4.62
736.293	7.38
736.317	0.38
736.342	16.38
736.366	24.38
736.39	14.38
736.415	-6.62
736.439	1.38
736.463	14.38
736.488	-2.62
736.512	1.38
736.536	1.38
736.561	14.38
736.585	-4.62
736.609	4.38
736.634	-2.62
736.658	-0.62
736.682	-14.62
736.707	-8.62
736.731	0.38
736.755	-2.62
736.78	14.38
736.804	17.38
736.828	13.38
736.852	6.38
736.877	3.38
736.901	2.38
736.925	13.38
736.949	19.38
736.974	16.38
736.998	-0.62
737.022	9.38
737.047	1.38
737.071	1.38
737.095	9.38
737.119	11.38
737.144	-2.62
737.168	-3.62
737.192	-0.62
737.216	6.38
737.241	-4.62
737.265	5.38
737.289	4.38
737.313	14.38
737.337	13.38
737.362	3.38
737.386	11.38
737.41	-5.62
737.434	-2.62
737.459	2.38
737.483	15.38
737.507	7.38
737.531	14.38
737.555	6.38
737.58	8.38
737.604	-0.62
737.628	-8.62
737.652	-6.62
737.676	-0.62
737.701	24.38
737.725	19.38
737.749	21.38
737.773	18.38
737.797	3.38
737.821	-2.62
737.846	1.38
737.87	14.38
737.894	-5.62
737.918	-7.62
737.942	0.38
737.966	32.38
737.99	18.38
738.015	18.38
738.039	3.38
738.063	7.38
738.087	17.38
738.111	8.38
738.135	14.38
738.159	-6.62
738.184	-16.62
738.208	4.38
738.232	9.38
738.256	13.38
738.28	16.38
738.304	-2.62
738.328	-14.62
738.352	4.38
738.376	-1.62
738.4	8.38
738.425	3.38
738.449	5.38
738.473	23.38
738.497	10.38
738.521	12.38
738.545	4.38
738.569	1.38
738.593	16.38
738.617	10.38
738.641	4.38
738.665	-7.62
738.689	3.38
738.713	-8.62
738.737	7.38
738.762	17.38
738.786	1.38
738.81	-10.62
738.834	11.38
738.858	-3.62
738.882	1.38
738.906	-9.62
738.93	2.38
738.954	2.38
738.978	20.38
739.002	1.38
739.026	2.38
739.05	19.38
739.074	13.38
739.098	29.38
739.122	15.38
739.146	12.38
739.17	14.38
739.194	2.38
739.218	4.38
739.242	3.38
739.266	2.38
739.29	9.38
739.314	10.38
739.338	-6.62
739.362	-4.62
739.386	8.38
739.41	4.38
739.434	-13.62
739.458	26.38
739.482	9.38
739.506	12.38
739.53	-1.62
739.554	13.38
739.577	4.38
739.601	9.38
739.625	5.38
739.649	-6.62
739.673	-10.62
739.697	14.38
739.721	-4.62
739.745	8.38
739.769	10.38
739.793	3.38
739.817	16.38
739.841	11.38
739.865	10.38
739.889	0.38
739.912	8.38
739.936	-4.62
739.96	1.38
739.984	24.38
740.008	0.38
740.032	0.38
740.056	1.38
740.08	3.38
740.104	6.38
740.127	5.38
740.151	11.38
740.175	16.38
740.199	10.38
740.223	55.38
740.247	25.38
740.271	2.38
740.295	-8.62
740.318	-7.62
740.342	-1.62
740.366	12.38
740.39	-6.62
740.414	-15.62
740.438	-20.62
740.461	10.38
740.485	16.38
740.509	-8.62
740.533	24.38
740.557	-6.62
740.581	-11.62
740.604	-10.62
740.628	10.38
740.652	-7.62
740.676	-11.62
740.7	1.38
740.723	-2.62
740.747	5.38
740.771	-0.62
740.795	-2.62
740.819	0.38
740.842	3.38
740.866	12.38
740.89	6.38
740.914	-9.62
740.938	0.38
740.961	30.38
740.985	3.38
741.009	-9.62
741.033	16.38
741.056	-9.62
741.08	-2.62
741.104	-10.62
741.128	0.38
741.151	5.38
741.175	5.38
741.199	9.38
741.223	14.38
741.246	-8.62
741.27	16.38
741.294	20.38
741.318	11.38
741.341	0.38
741.365	23.38
741.389	20.38
741.413	22.38
741.436	13.38
741.46	-9.62
741.484	11.38
741.507	6.38
741.531	10.38
741.555	12.38
741.579	13.38
741.602	-2.62
741.626	15.38
741.65	6.38
741.673	5.38
741.697	13.38
741.721	-17.62
741.744	-12.62
741.768	-7.62
741.792	11.38
741.815	3.38
741.839	29.38
741.863	18.38
741.886	20.38
741.91	18.38
741.934	9.38
741.957	-8.62
741.981	7.38
742.005	11.38
742.028	-4.62
742.052	-9.62
742.075	8.38
742.099	11.38
742.123	-1.62
742.146	14.38
742.17	13.38
742.194	-25.62
742.217	-9.62
742.241	-3.62
742.264	-2.62
742.288	11.38
742.312	-6.62
742.335	-2.62
742.359	5.38
742.382	18.38
742.406	13.38
742.43	6.38
742.453	2.38
742.477	0.38
742.5	20.38
742.524	2.38
742.548	-4.62
742.571	-1.62
742.595	-2.62
742.618	-3.62
742.642	-3.62
742.665	11.38
742.689	-5.62
742.712	13.38
742.736	2.38
742.76	5.38
742.783	6.38
742.807	10.38
742.83	21.38
742.854	-4.62
742.877	-6.62
742.901	5.38
742.924	-6.62
742.948	-3.62
742.971	-3.62
742.995	0.38
743.018	3.38
743.042	8.38
743.065	0.38
743.089	-8.62
743.112	-5.62
743.136	3.38
743.159	-5.62
743.183	-3.62
743.206	6.38
743.23	-5.62
743.253	3.38
743.277	4.38
743.3	-1.62
743.324	7.38
743.347	-4.62
743.371	13.38
743.394	13.38
743.418	21.38
743.441	8.38
743.465	6.38
743.488	0.38
743.512	-11.62
743.535	-0.62
743.558	-3.62
743.582	2.38
743.605	5.38
743.629	-1.62
743.652	-2.62
743.676	4.38
743.699	13.38
743.723	16.38
743.746	12.38
743.769	-11.62
743.793	7.38
743.816	-11.62
743.84	5.38
743.863	10.38
743.886	14.38
743.91	17.38
743.933	23.38
743.957	6.38
743.98	0.38
744.003	12.38
744.027	13.38
744.05	-4.62
744.074	5.38
744.097	-18.62
744.12	-6.62
744.144	-3.62
744.167	25.38
744.19	5.38
744.214	2.38
744.237	-8.62
744.26	21.38
744.284	10.38
744.307	-20.62
744.331	-13.62
744.354	-7.62
744.377	1.38
744.401	0.38
744.424	3.38
744.447	3.38
744.471	-1.62
