Data from HighRes_H2_15_09_11_07_2024_HR4C61891__109__15-11-07-301.txt Node

Date: Thu Nov 07 15:11:07 EST 2024
User: crc00042
Spectrometer: HR4C6189
Trigger mode: 4
Integration Time (sec): 1.000000E-1
Scans to average: 1
Electric dark correction enabled: true
Nonlinearity correction enabled: false
Boxcar width: 0
XAxis mode: Wavelengths
Number of Pixels in Spectrum: 3648
>>>>>Begin Spectral Data<<<<<
639.567	-59.85
639.602	-59.85
639.636	-59.85
639.67	-53.85
639.704	-19.85
639.738	-7.85
639.773	27.15
639.807	-19.85
639.841	-3.85
639.875	11.15
639.909	-13.85
639.943	-13.85
639.978	1.15
640.012	7.15
640.046	11.15
640.08	-1.85
640.114	8.15
640.148	-4.85
640.182	-6.85
640.217	-7.85
640.251	11.15
640.285	7.15
640.319	-13.85
640.353	-0.85
640.387	-6.85
640.421	3.15
640.455	7.15
640.49	-1.85
640.524	5.15
640.558	8.15
640.592	5.15
640.626	-6.85
640.66	7.15
640.694	-5.85
640.728	5.15
640.762	5.15
640.796	21.15
640.83	28.15
640.865	-1.85
640.899	1.15
640.933	2.15
640.967	4.15
641.001	0.15
641.035	12.15
641.069	-5.85
641.103	-20.85
641.137	-3.85
641.171	-8.85
641.205	17.15
641.239	3.15
641.273	5.15
641.307	7.15
641.341	1.15
641.375	-11.85
641.409	-1.85
641.443	6.15
641.477	-2.85
641.511	-3.85
641.545	0.15
641.579	7.15
641.614	6.15
641.648	8.15
641.682	-18.85
641.716	0.15
641.75	10.15
641.784	-8.85
641.818	-5.85
641.852	-3.85
641.886	-5.85
641.919	25.15
641.953	-9.85
641.987	-2.85
642.021	-0.85
642.055	3.15
642.089	-14.85
642.123	3.15
642.157	-0.85
642.191	-0.85
642.225	19.15
642.259	9.15
642.293	7.15
642.327	4.15
642.361	4.15
642.395	-7.85
642.429	8.15
642.463	-0.85
642.497	5.15
642.531	-3.85
642.565	8.15
642.599	20.15
642.633	-9.85
642.666	15.15
642.7	19.15
642.734	6.15
642.768	-21.85
642.802	-14.85
642.836	11.15
642.87	2.15
642.904	15.15
642.938	10.15
642.972	-11.85
643.005	0.15
643.039	19.15
643.073	1.15
643.107	10.15
643.141	0.15
643.175	-4.85
643.209	-2.85
643.243	3.15
643.276	10.15
643.31	-5.85
643.344	-7.85
643.378	4.15
643.412	8.15
643.446	4.15
643.48	0.15
643.513	-1.85
643.547	3.15
643.581	-3.85
643.615	5.15
643.649	3.15
643.683	11.15
643.716	0.15
643.75	8.15
643.784	-12.85
643.818	19.15
643.852	-9.85
643.886	-6.85
643.919	4.15
643.953	-22.85
643.987	-1.85
644.021	19.15
644.055	22.15
644.088	1.15
644.122	-12.85
644.156	-5.85
644.19	-16.85
644.224	6.15
644.257	3.15
644.291	12.15
644.325	15.15
644.359	-11.85
644.392	20.15
644.426	16.15
644.46	8.15
644.494	11.15
644.527	6.15
644.561	-0.85
644.595	-5.85
644.629	12.15
644.662	-4.85
644.696	14.15
644.73	5.15
644.764	8.15
644.797	0.15
644.831	0.15
644.865	20.15
644.899	8.15
644.932	21.15
644.966	5.15
645	-4.85
645.033	8.15
645.067	-7.85
645.101	12.15
645.135	-6.85
645.168	-0.85
645.202	-17.85
645.236	-1.85
645.269	11.15
645.303	12.15
645.337	-13.85
645.37	-2.85
645.404	22.15
645.438	2.15
645.471	-10.85
645.505	1.15
645.539	-4.85
645.572	-16.85
645.606	0.15
645.64	-3.85
645.673	0.15
645.707	24.15
645.741	-1.85
645.774	-2.85
645.808	1.15
645.842	-3.85
645.875	0.15
645.909	-14.85
645.943	9.15
645.976	4.15
646.01	11.15
646.043	16.15
646.077	10.15
646.111	4.15
646.144	5.15
646.178	-1.85
646.212	-11.85
646.245	-5.85
646.279	13.15
646.312	13.15
646.346	11.15
646.38	0.15
646.413	1.15
646.447	-20.85
646.48	-8.85
646.514	1.15
646.547	-16.85
646.581	-8.85
646.615	4.15
646.648	-4.85
646.682	-0.85
646.715	7.15
646.749	13.15
646.782	5.15
646.816	-3.85
646.85	21.15
646.883	-8.85
646.917	2.15
646.95	2.15
646.984	10.15
647.017	-4.85
647.051	4.15
647.084	7.15
647.118	-1.85
647.151	-4.85
647.185	3.15
647.218	-18.85
647.252	14.15
647.285	-2.85
647.319	7.15
647.353	4.15
647.386	16.15
647.42	10.15
647.453	7.15
647.487	0.15
647.52	5.15
647.553	-10.85
647.587	-0.85
647.62	14.15
647.654	3.15
647.687	2.15
647.721	-3.85
647.754	1.15
647.788	3.15
647.821	-11.85
647.855	0.15
647.888	7.15
647.922	15.15
647.955	3.15
647.989	-5.85
648.022	-9.85
648.055	2.15
648.089	-7.85
648.122	32.15
648.156	3.15
648.189	-11.85
648.223	0.15
648.256	-6.85
648.29	-1.85
648.323	1.15
648.356	13.15
648.39	0.15
648.423	11.15
648.457	-5.85
648.49	15.15
648.523	11.15
648.557	-4.85
648.59	0.15
648.624	-3.85
648.657	8.15
648.69	15.15
648.724	9.15
648.757	23.15
648.791	5.15
648.824	15.15
648.857	25.15
648.891	8.15
648.924	16.15
648.957	11.15
648.991	-34.85
649.024	10.15
649.057	14.15
649.091	-16.85
649.124	9.15
649.158	8.15
649.191	26.15
649.224	-2.85
649.258	11.15
649.291	3.15
649.324	7.15
649.358	11.15
649.391	12.15
649.424	9.15
649.458	-1.85
649.491	-9.85
649.524	-4.85
649.557	-13.85
649.591	-33.85
649.624	12.15
649.657	-17.85
649.691	-1.85
649.724	8.15
649.757	5.15
649.791	-5.85
649.824	18.15
649.857	14.15
649.89	4.15
649.924	-7.85
649.957	-11.85
649.99	3.15
650.023	-5.85
650.057	-2.85
650.09	1.15
650.123	7.15
650.157	11.15
650.19	19.15
650.223	1.15
650.256	-8.85
650.29	-12.85
650.323	-10.85
650.356	1.15
650.389	-12.85
650.423	-8.85
650.456	4.15
650.489	-5.85
650.522	7.15
650.555	29.15
650.589	7.15
650.622	5.15
650.655	12.15
650.688	-8.85
650.721	6.15
650.755	0.15
650.788	13.15
650.821	5.15
650.854	6.15
650.887	0.15
650.921	11.15
650.954	-2.85
650.987	0.15
651.02	-19.85
651.053	-3.85
651.087	-3.85
651.12	21.15
651.153	17.15
651.186	-1.85
651.219	-5.85
651.252	1.15
651.286	-3.85
651.319	0.15
651.352	8.15
651.385	14.15
651.418	6.15
651.451	20.15
651.484	10.15
651.518	-3.85
651.551	25.15
651.584	5.15
651.617	18.15
651.65	-9.85
651.683	4.15
651.716	-8.85
651.749	-6.85
651.783	-5.85
651.816	4.15
651.849	11.15
651.882	0.15
651.915	2.15
651.948	12.15
651.981	2.15
652.014	-23.85
652.047	3.15
652.08	-13.85
652.114	-0.85
652.147	-1.85
652.18	-3.85
652.213	12.15
652.246	-8.85
652.279	-8.85
652.312	9.15
652.345	2.15
652.378	-5.85
652.411	11.15
652.444	17.15
652.477	3.15
652.51	-3.85
652.543	-14.85
652.576	5.15
652.609	-5.85
652.642	1.15
652.675	-1.85
652.709	18.15
652.742	-3.85
652.775	12.15
652.808	14.15
652.841	-15.85
652.874	-5.85
652.907	11.15
652.94	-1.85
652.973	-22.85
653.006	-0.85
653.039	12.15
653.072	1.15
653.105	-6.85
653.138	-7.85
653.171	-1.85
653.204	-2.85
653.237	10.15
653.27	-8.85
653.303	3.15
653.336	7.15
653.368	0.15
653.401	-6.85
653.434	-10.85
653.467	11.15
653.5	-1.85
653.533	-14.85
653.566	-5.85
653.599	2.15
653.632	12.15
653.665	5.15
653.698	-9.85
653.731	-6.85
653.764	8.15
653.797	-6.85
653.83	15.15
653.863	-3.85
653.896	-19.85
653.929	0.15
653.961	1.15
653.994	6.15
654.027	-9.85
654.06	2.15
654.093	5.15
654.126	2.15
654.159	2.15
654.192	13.15
654.225	4.15
654.258	4.15
654.29	3.15
654.323	-6.85
654.356	-5.85
654.389	3.15
654.422	-3.85
654.455	5.15
654.488	1.15
654.521	-22.85
654.553	-5.85
654.586	6.15
654.619	-5.85
654.652	3.15
654.685	24.15
654.718	5.15
654.751	8.15
654.783	12.15
654.816	11.15
654.849	3.15
654.882	-11.85
654.915	-5.85
654.948	3.15
654.98	3.15
655.013	-3.85
655.046	3.15
655.079	-4.85
655.112	2.15
655.144	0.15
655.177	9.15
655.21	33.15
655.243	10.15
655.276	-3.85
655.308	-4.85
655.341	-4.85
655.374	-0.85
655.407	6.15
655.44	-4.85
655.472	17.15
655.505	13.15
655.538	8.15
655.571	11.15
655.603	12.15
655.636	9.15
655.669	24.15
655.702	11.15
655.734	3.15
655.767	22.15
655.8	12.15
655.833	23.15
655.865	43.15
655.898	27.15
655.931	33.15
655.964	49.15
655.996	50.15
656.029	63.15
656.062	46.15
656.095	59.15
656.127	78.15
656.16	99.15
656.193	101.15
656.225	179.15
656.258	276.15
656.291	486.15
656.324	1073.15
656.356	3367.15
656.389	7535.15
656.422	6020.15
656.454	2027.15
656.487	670.15
656.52	249.15
656.552	115.15
656.585	82.15
656.618	61.15
656.65	37.15
656.683	6.15
656.716	13.15
656.748	25.15
656.781	8.15
656.814	-7.85
656.846	11.15
656.879	7.15
656.912	0.15
656.944	-19.85
656.977	-0.85
657.01	7.15
657.042	-0.85
657.075	14.15
657.108	-14.85
657.14	-7.85
657.173	8.15
657.205	24.15
657.238	4.15
657.271	15.15
657.303	-19.85
657.336	7.15
657.369	5.15
657.401	-7.85
657.434	6.15
657.466	10.15
657.499	7.15
657.532	7.15
657.564	11.15
657.597	8.15
657.629	17.15
657.662	13.15
657.694	14.15
657.727	-14.85
657.76	8.15
657.792	-11.85
657.825	-5.85
657.857	4.15
657.89	-1.85
657.922	5.15
657.955	4.15
657.987	2.15
658.02	10.15
658.053	2.15
658.085	-13.85
658.118	14.15
658.15	12.15
658.183	18.15
658.215	2.15
658.248	-13.85
658.28	-8.85
658.313	8.15
658.345	9.15
658.378	-8.85
658.41	2.15
658.443	-2.85
658.475	5.15
658.508	-7.85
658.54	8.15
658.573	11.15
658.605	1.15
658.638	-4.85
658.67	-6.85
658.703	-0.85
658.735	-12.85
658.768	0.15
658.8	-8.85
658.833	31.15
658.865	9.15
658.898	-1.85
658.93	4.15
658.963	-3.85
658.995	-19.85
659.028	-12.85
659.06	-4.85
659.092	2.15
659.125	5.15
659.157	14.15
659.19	-11.85
659.222	-6.85
659.255	-12.85
659.287	-4.85
659.32	0.15
659.352	8.15
659.384	4.15
659.417	-12.85
659.449	2.15
659.482	11.15
659.514	-10.85
659.546	4.15
659.579	9.15
659.611	7.15
659.644	-9.85
659.676	-5.85
659.708	3.15
659.741	7.15
659.773	5.15
659.806	-4.85
659.838	-0.85
659.87	-1.85
659.903	-9.85
659.935	5.15
659.967	-5.85
660	-11.85
660.032	-21.85
660.065	3.15
660.097	14.15
660.129	-8.85
660.162	-7.85
660.194	3.15
660.226	4.15
660.259	7.15
660.291	0.15
660.323	-4.85
660.356	13.15
660.388	-8.85
660.42	-1.85
660.453	13.15
660.485	20.15
660.517	16.15
660.55	12.15
660.582	14.15
660.614	11.15
660.647	3.15
660.679	-9.85
660.711	14.15
660.743	-5.85
660.776	-10.85
660.808	-2.85
660.84	-8.85
660.873	7.15
660.905	-2.85
660.937	0.15
660.969	-14.85
661.002	-3.85
661.034	14.15
661.066	10.15
661.099	-2.85
661.131	19.15
661.163	12.15
661.195	-7.85
661.228	12.15
661.26	-6.85
661.292	-8.85
661.324	16.15
661.357	10.15
661.389	1.15
661.421	14.15
661.453	4.15
661.485	2.15
661.518	-1.85
661.55	1.15
661.582	-16.85
661.614	0.15
661.647	4.15
661.679	-0.85
661.711	-0.85
661.743	-4.85
661.775	-3.85
661.808	13.15
661.84	-12.85
661.872	2.15
661.904	9.15
661.936	7.15
661.969	-17.85
662.001	-1.85
662.033	-13.85
662.065	2.15
662.097	23.15
662.129	-3.85
662.162	-18.85
662.194	17.15
662.226	15.15
662.258	19.15
662.29	22.15
662.322	-6.85
662.355	-21.85
662.387	23.15
662.419	7.15
662.451	16.15
662.483	27.15
662.515	3.15
662.547	-0.85
662.58	-2.85
662.612	-17.85
662.644	-2.85
662.676	-12.85
662.708	13.15
662.74	-1.85
662.772	1.15
662.804	4.15
662.836	20.15
662.869	-8.85
662.901	4.15
662.933	-2.85
662.965	5.15
662.997	3.15
663.029	-1.85
663.061	-13.85
663.093	7.15
663.125	0.15
663.157	-5.85
663.189	-2.85
663.221	13.15
663.254	-1.85
663.286	-7.85
663.318	-15.85
663.35	-0.85
663.382	-0.85
663.414	-2.85
663.446	7.15
663.478	7.15
663.51	22.15
663.542	-17.85
663.574	2.15
663.606	9.15
663.638	-4.85
663.67	-11.85
663.702	-14.85
663.734	-11.85
663.766	18.15
663.798	-9.85
663.83	-12.85
663.862	9.15
663.894	-2.85
663.926	-6.85
663.958	16.15
663.99	5.15
664.022	1.15
664.054	18.15
664.086	-8.85
664.118	-14.85
664.15	-1.85
664.182	4.15
664.214	6.15
664.246	9.15
664.278	7.15
664.31	14.15
664.342	11.15
664.374	4.15
664.406	11.15
664.438	-10.85
664.47	24.15
664.502	18.15
664.534	-12.85
664.566	-16.85
664.598	4.15
664.63	-14.85
664.662	3.15
664.693	-9.85
664.725	-12.85
664.757	-14.85
664.789	-12.85
664.821	-0.85
664.853	15.15
664.885	16.15
664.917	15.15
664.949	7.15
664.981	11.15
665.013	1.15
665.045	-10.85
665.076	-6.85
665.108	11.15
665.14	-12.85
665.172	3.15
665.204	9.15
665.236	-0.85
665.268	16.15
665.3	-9.85
665.331	-15.85
665.363	4.15
665.395	-4.85
665.427	-9.85
665.459	16.15
665.491	-6.85
665.523	-5.85
665.555	3.15
665.586	9.15
665.618	-13.85
665.65	-20.85
665.682	4.15
665.714	15.15
665.746	10.15
665.777	12.15
665.809	-14.85
665.841	-9.85
665.873	-25.85
665.905	-0.85
665.937	19.15
665.968	3.15
666	-2.85
666.032	-3.85
666.064	-0.85
666.096	-7.85
666.127	3.15
666.159	8.15
666.191	7.15
666.223	-7.85
666.255	11.15
666.286	12.15
666.318	0.15
666.35	25.15
666.382	-2.85
666.413	-18.85
666.445	-5.85
666.477	-0.85
666.509	-11.85
666.54	-0.85
666.572	-10.85
666.604	-6.85
666.636	-8.85
666.667	12.15
666.699	9.15
666.731	-2.85
666.763	-25.85
666.794	-1.85
666.826	4.15
666.858	-6.85
666.89	0.15
666.921	7.15
666.953	-4.85
666.985	23.15
667.017	20.15
667.048	7.15
667.08	-14.85
667.112	2.15
667.143	4.15
667.175	10.15
667.207	3.15
667.238	6.15
667.27	15.15
667.302	1.15
667.334	9.15
667.365	22.15
667.397	6.15
667.429	-1.85
667.46	6.15
667.492	2.15
667.524	3.15
667.555	-16.85
667.587	-7.85
667.619	2.15
667.65	-5.85
667.682	3.15
667.714	8.15
667.745	-2.85
667.777	-4.85
667.808	-3.85
667.84	6.15
667.872	-3.85
667.903	19.15
667.935	-8.85
667.967	5.15
667.998	-4.85
668.03	-4.85
668.061	1.15
668.093	3.15
668.125	-4.85
668.156	3.15
668.188	-14.85
668.22	-1.85
668.251	11.15
668.283	9.15
668.314	13.15
668.346	-11.85
668.377	-5.85
668.409	-4.85
668.441	14.15
668.472	0.15
668.504	-2.85
668.535	8.15
668.567	2.15
668.599	3.15
668.63	-6.85
668.662	11.15
668.693	11.15
668.725	2.15
668.756	4.15
668.788	-11.85
668.819	-5.85
668.851	-0.85
668.882	-7.85
668.914	-6.85
668.946	-9.85
668.977	-16.85
669.009	6.15
669.04	-16.85
669.072	-13.85
669.103	-0.85
669.135	-11.85
669.166	9.15
669.198	-14.85
669.229	4.15
669.261	-1.85
669.292	-10.85
669.324	16.15
669.355	4.15
669.387	-5.85
669.418	-5.85
669.45	-23.85
669.481	-2.85
669.513	13.15
669.544	1.15
669.576	-9.85
669.607	15.15
669.639	16.15
669.67	4.15
669.701	18.15
669.733	-8.85
669.764	-4.85
669.796	4.15
669.827	-4.85
669.859	-4.85
669.89	7.15
669.922	1.15
669.953	0.15
669.985	-7.85
670.016	-3.85
670.047	-6.85
670.079	0.15
670.11	14.15
670.142	0.15
670.173	-0.85
670.204	4.15
670.236	-13.85
670.267	-14.85
670.299	-0.85
670.33	-5.85
670.362	-8.85
670.393	-15.85
670.424	0.15
670.456	-8.85
670.487	-1.85
670.518	-10.85
670.55	-18.85
670.581	2.15
670.613	0.15
670.644	-22.85
670.675	-8.85
670.707	5.15
670.738	-0.85
670.769	5.15
670.801	6.15
670.832	10.15
670.864	-5.85
670.895	-10.85
670.926	-6.85
670.958	-5.85
670.989	-5.85
671.02	-7.85
671.052	-11.85
671.083	-16.85
671.114	0.15
671.146	8.15
671.177	4.15
671.208	-11.85
671.24	0.15
671.271	-6.85
671.302	-7.85
671.333	-5.85
671.365	-7.85
671.396	-0.85
671.427	-6.85
671.459	-1.85
671.49	10.15
671.521	17.15
671.553	0.15
671.584	17.15
671.615	-3.85
671.646	8.15
671.678	0.15
671.709	-11.85
671.74	-6.85
671.771	-10.85
671.803	-6.85
671.834	-5.85
671.865	2.15
671.896	-5.85
671.928	1.15
671.959	3.15
671.99	0.15
672.021	1.15
672.053	-14.85
672.084	4.15
672.115	4.15
672.146	7.15
672.178	-9.85
672.209	3.15
672.24	-1.85
672.271	3.15
672.303	0.15
672.334	-1.85
672.365	-7.85
672.396	9.15
672.427	-3.85
672.459	-0.85
672.49	16.15
672.521	7.15
672.552	4.15
672.583	5.15
672.615	5.15
672.646	14.15
672.677	-11.85
672.708	-16.85
672.739	-9.85
672.77	7.15
672.802	-0.85
672.833	-2.85
672.864	-3.85
672.895	0.15
672.926	-16.85
672.957	-31.85
672.989	1.15
673.02	2.15
673.051	-11.85
673.082	-3.85
673.113	-9.85
673.144	1.15
673.175	2.15
673.206	0.15
673.238	-6.85
673.269	-13.85
673.3	-8.85
673.331	6.15
673.362	0.15
673.393	3.15
673.424	-1.85
673.455	5.15
673.487	-2.85
673.518	19.15
673.549	17.15
673.58	-9.85
673.611	-5.85
673.642	-6.85
673.673	-11.85
673.704	5.15
673.735	-17.85
673.766	6.15
673.797	-8.85
673.828	-9.85
673.86	-19.85
673.891	-6.85
673.922	2.15
673.953	-14.85
673.984	3.15
674.015	11.15
674.046	-0.85
674.077	0.15
674.108	-8.85
674.139	6.15
674.17	-14.85
674.201	-3.85
674.232	0.15
674.263	-12.85
674.294	-11.85
674.325	-1.85
674.356	15.15
674.387	16.15
674.418	11.15
674.449	-6.85
674.48	-8.85
674.511	4.15
674.542	14.15
674.573	-9.85
674.604	2.15
674.635	7.15
674.666	-6.85
674.697	2.15
674.728	-1.85
674.759	-0.85
674.79	-12.85
674.821	-11.85
674.852	8.15
674.883	-13.85
674.914	-7.85
674.945	-8.85
674.976	0.15
675.007	2.15
675.038	-12.85
675.069	-24.85
675.1	-4.85
675.131	6.15
675.162	-9.85
675.193	6.15
675.224	-7.85
675.254	5.15
675.285	-2.85
675.316	5.15
675.347	-7.85
675.378	-21.85
675.409	-16.85
675.44	7.15
675.471	0.15
675.502	-10.85
675.533	5.15
675.564	-5.85
675.595	1.15
675.625	23.15
675.656	5.15
675.687	-0.85
675.718	-22.85
675.749	-8.85
675.78	6.15
675.811	-6.85
675.842	-2.85
675.873	4.15
675.903	-14.85
675.934	-10.85
675.965	-12.85
675.996	-21.85
676.027	3.15
676.058	9.15
676.089	-13.85
676.119	3.15
676.15	-1.85
676.181	10.15
676.212	-2.85
676.243	1.15
676.274	-4.85
676.304	22.15
676.335	-16.85
676.366	2.15
676.397	2.15
676.428	-6.85
676.459	7.15
676.489	28.15
676.52	9.15
676.551	11.15
676.582	3.15
676.613	1.15
676.643	9.15
676.674	27.15
676.705	4.15
676.736	0.15
676.767	10.15
676.797	3.15
676.828	-0.85
676.859	1.15
676.89	-6.85
676.92	-12.85
676.951	1.15
676.982	-3.85
677.013	-20.85
677.044	1.15
677.074	-4.85
677.105	-3.85
677.136	-1.85
677.167	-3.85
677.197	10.15
677.228	1.15
677.259	-10.85
677.289	5.15
677.32	-8.85
677.351	-4.85
677.382	-6.85
677.412	8.15
677.443	6.15
677.474	7.15
677.505	-5.85
677.535	-0.85
677.566	5.15
677.597	-0.85
677.627	-4.85
677.658	2.15
677.689	-0.85
677.72	-12.85
677.75	-6.85
677.781	3.15
677.812	-4.85
677.842	13.15
677.873	-3.85
677.904	-2.85
677.934	15.15
677.965	8.15
677.996	-20.85
678.026	-1.85
678.057	6.15
678.088	-8.85
678.118	-3.85
678.149	-20.85
678.18	-1.85
678.21	2.15
678.241	16.15
678.272	-7.85
678.302	7.15
678.333	12.15
678.363	8.15
678.394	6.15
678.425	0.15
678.455	22.15
678.486	5.15
678.517	6.15
678.547	0.15
678.578	-4.85
678.608	-8.85
678.639	7.15
678.67	4.15
678.7	-21.85
678.731	-5.85
678.761	0.15
678.792	3.15
678.823	8.15
678.853	13.15
678.884	10.15
678.914	24.15
678.945	5.15
678.975	7.15
679.006	14.15
679.037	0.15
679.067	18.15
679.098	11.15
679.128	-11.85
679.159	-0.85
679.189	-0.85
679.22	-16.85
679.25	2.15
679.281	10.15
679.312	3.15
679.342	-3.85
679.373	9.15
679.403	5.15
679.434	-4.85
679.464	4.15
679.495	1.15
679.525	3.15
679.556	-3.85
679.586	7.15
679.617	8.15
679.647	-2.85
679.678	-8.85
679.708	-10.85
679.739	8.15
679.769	4.15
679.8	7.15
679.83	-0.85
679.861	5.15
679.891	-5.85
679.922	-12.85
679.952	4.15
679.983	8.15
680.013	1.15
680.044	-10.85
680.074	6.15
680.105	8.15
680.135	0.15
680.165	21.15
680.196	11.15
680.226	1.15
680.257	7.15
680.287	-12.85
680.318	-6.85
680.348	-12.85
680.379	-11.85
680.409	-3.85
680.439	-3.85
680.47	1.15
680.5	-12.85
680.531	2.15
680.561	14.15
680.592	3.15
680.622	20.15
680.652	-6.85
680.683	10.15
680.713	0.15
680.744	3.15
680.774	4.15
680.804	19.15
680.835	-14.85
680.865	-6.85
680.896	30.15
680.926	17.15
680.956	3.15
680.987	-0.85
681.017	9.15
681.047	6.15
681.078	-0.85
681.108	17.15
681.139	11.15
681.169	8.15
681.199	-12.85
681.23	8.15
681.26	10.15
681.29	3.15
681.321	-10.85
681.351	4.15
681.381	-10.85
681.412	-9.85
681.442	-10.85
681.472	0.15
681.503	9.15
681.533	-12.85
681.563	1.15
681.594	6.15
681.624	13.15
681.654	-3.85
681.685	-7.85
681.715	0.15
681.745	-8.85
681.775	-5.85
681.806	8.15
681.836	10.15
681.866	-10.85
681.897	14.15
681.927	-7.85
681.957	-21.85
681.987	1.15
682.018	6.15
682.048	-12.85
682.078	1.15
682.109	16.15
682.139	30.15
682.169	6.15
682.199	-7.85
682.23	-6.85
682.26	6.15
682.29	-12.85
682.32	-4.85
682.351	0.15
682.381	2.15
682.411	10.15
682.441	-6.85
682.472	3.15
682.502	-6.85
682.532	-0.85
682.562	-2.85
682.592	19.15
682.623	15.15
682.653	3.15
682.683	-1.85
682.713	6.15
682.743	-5.85
682.774	3.15
682.804	4.15
682.834	21.15
682.864	-4.85
682.894	5.15
682.925	5.15
682.955	13.15
682.985	-4.85
683.015	9.15
683.045	8.15
683.076	-1.85
683.106	-9.85
683.136	6.15
683.166	-15.85
683.196	-0.85
683.226	-13.85
683.257	-7.85
683.287	-3.85
683.317	-13.85
683.347	-12.85
683.377	-11.85
683.407	5.15
683.437	14.15
683.468	5.15
683.498	0.15
683.528	-3.85
683.558	-6.85
683.588	7.15
683.618	-6.85
683.648	-6.85
683.678	-1.85
683.708	7.15
683.739	6.15
683.769	0.15
683.799	3.15
683.829	-11.85
683.859	-5.85
683.889	17.15
683.919	-4.85
683.949	0.15
683.979	-4.85
684.009	-7.85
684.039	-1.85
684.07	-1.85
684.1	15.15
684.13	3.15
684.16	16.15
684.19	1.15
684.22	-1.85
684.25	-1.85
684.28	10.15
684.31	12.15
684.34	9.15
684.37	8.15
684.4	-1.85
684.43	3.15
684.46	4.15
684.49	3.15
684.52	4.15
684.55	8.15
684.58	-1.85
684.61	5.15
684.64	6.15
684.67	10.15
684.7	-26.85
684.73	-9.85
684.76	-10.85
684.79	2.15
684.82	3.15
684.85	-15.85
684.88	-0.85
684.91	0.15
684.94	3.15
684.97	-12.85
685	-5.85
685.03	-1.85
685.06	-0.85
685.09	4.15
685.12	20.15
685.15	-2.85
685.18	12.15
685.21	-0.85
685.24	15.15
685.27	5.15
685.3	4.15
685.33	5.15
685.36	-8.85
685.39	-6.85
685.42	2.15
685.45	-2.85
685.48	2.15
685.51	0.15
685.54	20.15
685.569	2.15
685.599	7.15
685.629	10.15
685.659	-0.85
685.689	1.15
685.719	8.15
685.749	-10.85
685.779	5.15
685.809	4.15
685.839	12.15
685.869	6.15
685.898	19.15
685.928	4.15
685.958	10.15
685.988	20.15
686.018	2.15
686.048	2.15
686.078	24.15
686.108	10.15
686.137	-6.85
686.167	11.15
686.197	-36.85
686.227	-2.85
686.257	16.15
686.287	1.15
686.317	7.15
686.346	11.15
686.376	-0.85
686.406	11.15
686.436	13.15
686.466	-5.85
686.496	-4.85
686.525	-14.85
686.555	-2.85
686.585	11.15
686.615	9.15
686.645	-1.85
686.675	-12.85
686.704	1.15
686.734	21.15
686.764	-8.85
686.794	0.15
686.824	-0.85
686.853	4.15
686.883	14.15
686.913	21.15
686.943	-3.85
686.973	-14.85
687.002	10.15
687.032	4.15
687.062	1.15
687.092	9.15
687.121	6.15
687.151	-8.85
687.181	-0.85
687.211	15.15
687.24	8.15
687.27	3.15
687.3	-0.85
687.33	11.15
687.359	-14.85
687.389	10.15
687.419	4.15
687.449	-10.85
687.478	12.15
687.508	-7.85
687.538	1.15
687.568	3.15
687.597	-10.85
687.627	4.15
687.657	7.15
687.686	8.15
687.716	9.15
687.746	-13.85
687.776	0.15
687.805	-5.85
687.835	7.15
687.865	11.15
687.894	8.15
687.924	-7.85
687.954	9.15
687.983	-5.85
688.013	5.15
688.043	4.15
688.072	11.15
688.102	1.15
688.132	7.15
688.161	0.15
688.191	-10.85
688.221	22.15
688.25	-5.85
688.28	-0.85
688.31	8.15
688.339	1.15
688.369	-1.85
688.399	10.15
688.428	14.15
688.458	-2.85
688.488	3.15
688.517	-12.85
688.547	2.15
688.576	30.15
688.606	0.15
688.636	-24.85
688.665	4.15
688.695	2.15
688.725	9.15
688.754	6.15
688.784	0.15
688.813	-0.85
688.843	0.15
688.873	-10.85
688.902	-8.85
688.932	-0.85
688.961	0.15
688.991	2.15
689.02	5.15
689.05	4.15
689.08	-1.85
689.109	-3.85
689.139	-2.85
689.168	5.15
689.198	-6.85
689.227	-7.85
689.257	-10.85
689.287	5.15
689.316	-3.85
689.346	1.15
689.375	-6.85
689.405	13.15
689.434	0.15
689.464	4.15
689.493	-8.85
689.523	-11.85
689.552	-8.85
689.582	2.15
689.611	2.15
689.641	-3.85
689.67	4.15
689.7	11.15
689.73	21.15
689.759	18.15
689.789	19.15
689.818	0.15
689.848	-2.85
689.877	18.15
689.906	-2.85
689.936	-4.85
689.965	-2.85
689.995	10.15
690.024	3.15
690.054	0.15
690.083	2.15
690.113	-2.85
690.142	-1.85
690.172	-8.85
690.201	-3.85
690.231	9.15
690.26	21.15
690.29	6.15
690.319	6.15
690.348	-8.85
690.378	6.15
690.407	2.15
690.437	9.15
690.466	11.15
690.496	1.15
690.525	9.15
690.555	-3.85
690.584	-6.85
690.613	-13.85
690.643	6.15
690.672	2.15
690.702	1.15
690.731	-8.85
690.76	-12.85
690.79	1.15
690.819	-0.85
690.849	14.15
690.878	13.15
690.907	-2.85
690.937	8.15
690.966	2.15
690.996	6.15
691.025	3.15
691.054	-1.85
691.084	11.15
691.113	1.15
691.142	-5.85
691.172	8.15
691.201	12.15
691.23	7.15
691.26	15.15
691.289	2.15
691.319	-5.85
691.348	-0.85
691.377	9.15
691.407	-0.85
691.436	20.15
691.465	9.15
691.495	-15.85
691.524	-20.85
691.553	-1.85
691.583	-15.85
691.612	15.15
691.641	-1.85
691.67	8.15
691.7	11.15
691.729	-5.85
691.758	2.15
691.788	12.15
691.817	5.15
691.846	0.15
691.876	-12.85
691.905	4.15
691.934	2.15
691.963	15.15
691.993	-7.85
692.022	-16.85
692.051	-8.85
692.081	12.15
692.11	17.15
692.139	1.15
692.168	-2.85
692.198	17.15
692.227	7.15
692.256	5.15
692.285	8.15
692.315	-0.85
692.344	4.15
692.373	-1.85
692.402	-17.85
692.432	-29.85
692.461	7.15
692.49	12.15
692.519	-2.85
692.548	16.15
692.578	36.15
692.607	-4.85
692.636	3.15
692.665	17.15
692.694	-7.85
692.724	8.15
692.753	16.15
692.782	2.15
692.811	-12.85
692.84	-2.85
692.87	3.15
692.899	-3.85
692.928	-7.85
692.957	13.15
692.986	10.15
693.016	-0.85
693.045	4.15
693.074	5.15
693.103	-10.85
693.132	9.15
693.161	19.15
693.191	1.15
693.22	-16.85
693.249	-12.85
693.278	3.15
693.307	10.15
693.336	-9.85
693.365	-19.85
693.395	-0.85
693.424	5.15
693.453	9.15
693.482	-3.85
693.511	5.15
693.54	23.15
693.569	-8.85
693.598	1.15
693.628	4.15
693.657	17.15
693.686	24.15
693.715	23.15
693.744	20.15
693.773	11.15
693.802	9.15
693.831	-12.85
693.86	12.15
693.889	12.15
693.919	8.15
693.948	6.15
693.977	-1.85
694.006	-0.85
694.035	-9.85
694.064	-7.85
694.093	19.15
694.122	2.15
694.151	3.15
694.18	4.15
694.209	35.15
694.238	7.15
694.267	19.15
694.296	7.15
694.325	5.15
694.354	13.15
694.383	8.15
694.412	-0.85
694.441	-7.85
694.471	-17.85
694.5	-23.85
694.529	5.15
694.558	5.15
694.587	13.15
694.616	8.15
694.645	-2.85
694.674	5.15
694.703	8.15
694.732	-8.85
694.761	9.15
694.79	9.15
694.819	-15.85
694.848	-4.85
694.877	11.15
694.906	18.15
694.935	5.15
694.963	20.15
694.992	-12.85
695.021	15.15
695.05	13.15
695.079	3.15
695.108	1.15
695.137	20.15
695.166	24.15
695.195	16.15
695.224	21.15
695.253	-5.85
695.282	-5.85
695.311	18.15
695.34	-6.85
695.369	10.15
695.398	-7.85
695.427	37.15
695.456	9.15
695.485	1.15
695.513	-10.85
695.542	-0.85
695.571	13.15
695.6	13.15
695.629	2.15
695.658	17.15
695.687	-0.85
695.716	-0.85
695.745	13.15
695.774	-16.85
695.802	-1.85
695.831	15.15
695.86	2.15
695.889	11.15
695.918	-0.85
695.947	2.15
695.976	0.15
696.005	-3.85
696.033	4.15
696.062	10.15
696.091	3.15
696.12	4.15
696.149	17.15
696.178	9.15
696.207	-6.85
696.235	-6.85
696.264	6.15
696.293	-0.85
696.322	9.15
696.351	13.15
696.38	8.15
696.408	4.15
696.437	-1.85
696.466	5.15
696.495	7.15
696.524	16.15
696.553	18.15
696.581	8.15
696.61	-11.85
696.639	-0.85
696.668	12.15
696.697	-6.85
696.725	8.15
696.754	-8.85
696.783	-5.85
696.812	-8.85
696.84	23.15
696.869	11.15
696.898	18.15
696.927	20.15
696.956	28.15
696.984	-1.85
697.013	-0.85
697.042	5.15
697.071	-6.85
697.099	13.15
697.128	5.15
697.157	27.15
697.186	8.15
697.214	0.15
697.243	-8.85
697.272	-2.85
697.301	20.15
697.329	4.15
697.358	6.15
697.387	16.15
697.415	14.15
697.444	9.15
697.473	-1.85
697.502	-10.85
697.53	8.15
697.559	-12.85
697.588	8.15
697.616	-4.85
697.645	-15.85
697.674	13.15
697.703	-7.85
697.731	11.15
697.76	6.15
697.789	-0.85
697.817	7.15
697.846	15.15
697.875	1.15
697.903	18.15
697.932	12.15
697.961	-1.85
697.989	4.15
698.018	17.15
698.047	13.15
698.075	19.15
698.104	0.15
698.133	2.15
698.161	-0.85
698.19	17.15
698.218	3.15
698.247	7.15
698.276	-1.85
698.304	5.15
698.333	11.15
698.362	6.15
698.39	-2.85
698.419	11.15
698.447	-7.85
698.476	0.15
698.505	9.15
698.533	20.15
698.562	2.15
698.591	-18.85
698.619	1.15
698.648	2.15
698.676	3.15
698.705	-9.85
698.733	-14.85
698.762	0.15
698.791	-3.85
698.819	1.15
698.848	-2.85
698.876	5.15
698.905	-1.85
698.933	5.15
698.962	11.15
698.991	-11.85
699.019	17.15
699.048	17.15
699.076	4.15
699.105	4.15
699.133	4.15
699.162	16.15
699.19	25.15
699.219	4.15
699.248	3.15
699.276	-4.85
699.305	-0.85
699.333	14.15
699.362	-4.85
699.39	4.15
699.419	0.15
699.447	-2.85
699.476	7.15
699.504	-2.85
699.533	1.15
699.561	1.15
699.59	20.15
699.618	5.15
699.647	13.15
699.675	14.15
699.704	9.15
699.732	-1.85
699.761	4.15
699.789	10.15
699.818	0.15
699.846	0.15
699.874	-2.85
699.903	-3.85
699.931	-5.85
699.96	26.15
699.988	-15.85
700.017	2.15
700.045	6.15
700.074	-9.85
700.102	-14.85
700.13	-1.85
700.159	0.15
700.187	8.15
700.216	13.15
700.244	-0.85
700.273	1.15
700.301	16.15
700.329	17.15
700.358	4.15
700.386	-6.85
700.415	5.15
700.443	10.15
700.472	0.15
700.5	5.15
700.528	9.15
700.557	1.15
700.585	-1.85
700.614	3.15
700.642	15.15
700.67	13.15
700.699	-2.85
700.727	0.15
700.755	10.15
700.784	0.15
700.812	-7.85
700.841	-4.85
700.869	4.15
700.897	-2.85
700.926	2.15
700.954	15.15
700.982	3.15
701.011	-22.85
701.039	-5.85
701.067	4.15
701.096	-6.85
701.124	-9.85
701.152	-7.85
701.181	-8.85
701.209	-1.85
701.237	-6.85
701.266	3.15
701.294	0.15
701.322	11.15
701.351	1.15
701.379	-0.85
701.407	-3.85
701.435	-9.85
701.464	7.15
701.492	8.15
701.52	-14.85
701.549	5.15
701.577	-22.85
701.605	-4.85
701.634	8.15
701.662	11.15
701.69	-7.85
701.718	-5.85
701.747	4.15
701.775	4.15
701.803	5.15
701.831	27.15
701.86	-2.85
701.888	-0.85
701.916	-0.85
701.944	0.15
701.973	-3.85
702.001	-15.85
702.029	-9.85
702.057	-8.85
702.086	-12.85
702.114	-3.85
702.142	-4.85
702.17	-4.85
702.199	-6.85
702.227	1.15
702.255	4.15
702.283	1.15
702.311	-2.85
702.34	-8.85
702.368	-1.85
702.396	-8.85
702.424	-22.85
702.452	7.15
702.481	1.15
702.509	-7.85
702.537	-0.85
702.565	-3.85
702.593	-9.85
702.621	-6.85
702.65	-0.85
702.678	-9.85
702.706	1.15
702.734	-4.85
702.762	6.15
702.79	-0.85
702.819	-4.85
702.847	1.15
702.875	22.15
702.903	11.15
702.931	0.15
702.959	-1.85
702.988	-0.85
703.016	-6.85
703.044	-12.85
703.072	-3.85
703.1	-16.85
703.128	3.15
703.156	10.15
703.184	-8.85
703.212	6.15
703.241	14.15
703.269	-3.85
703.297	-5.85
703.325	7.15
703.353	-23.85
703.381	-12.85
703.409	4.15
703.437	-4.85
703.465	0.15
703.493	-11.85
703.522	-4.85
703.55	6.15
703.578	16.15
703.606	-19.85
703.634	-16.85
703.662	1.15
703.69	8.15
703.718	1.15
703.746	13.15
703.774	-2.85
703.802	11.15
703.83	2.15
703.858	4.15
703.886	0.15
703.914	-21.85
703.942	18.15
703.97	3.15
703.998	4.15
704.027	34.15
704.055	7.15
704.083	3.15
704.111	-1.85
704.139	-1.85
704.167	-15.85
704.195	-0.85
704.223	-2.85
704.251	1.15
704.279	26.15
704.307	3.15
704.335	-15.85
704.363	5.15
704.391	-0.85
704.419	-7.85
704.447	-14.85
704.475	0.15
704.503	1.15
704.531	13.15
704.558	14.15
704.586	-6.85
704.614	-7.85
704.642	20.15
704.67	6.15
704.698	8.15
704.726	2.15
704.754	-15.85
704.782	-4.85
704.81	3.15
704.838	17.15
704.866	15.15
704.894	-22.85
704.922	-7.85
704.95	-9.85
704.978	8.15
705.006	10.15
705.034	14.15
705.061	-5.85
705.089	-8.85
705.117	-25.85
705.145	-15.85
705.173	9.15
705.201	14.15
705.229	7.15
705.257	12.15
705.285	10.15
705.313	5.15
705.34	-6.85
705.368	8.15
705.396	13.15
705.424	14.15
705.452	-9.85
705.48	8.15
705.508	-8.85
705.536	-13.85
705.563	-13.85
705.591	-0.85
705.619	-3.85
705.647	-24.85
705.675	-5.85
705.703	24.15
705.731	-4.85
705.758	-9.85
705.786	-0.85
705.814	16.15
705.842	7.15
705.87	0.15
705.898	8.15
705.925	-11.85
705.953	7.15
705.981	-4.85
706.009	5.15
706.037	5.15
706.065	0.15
706.092	-12.85
706.12	-0.85
706.148	-8.85
706.176	-7.85
706.204	12.15
706.231	2.15
706.259	-2.85
706.287	-8.85
706.315	5.15
706.342	-3.85
706.37	5.15
706.398	19.15
706.426	3.15
706.454	8.15
706.481	4.15
706.509	-7.85
706.537	-8.85
706.565	-14.85
706.592	21.15
706.62	3.15
706.648	0.15
706.676	-9.85
706.703	3.15
706.731	3.15
706.759	-6.85
706.787	6.15
706.814	-2.85
706.842	-14.85
706.87	-12.85
706.897	0.15
706.925	-8.85
706.953	-4.85
706.981	4.15
707.008	8.15
707.036	2.15
707.064	-0.85
707.091	-22.85
707.119	7.15
707.147	-2.85
707.174	-7.85
707.202	-0.85
707.23	-4.85
707.258	6.15
707.285	4.15
707.313	2.15
707.341	-7.85
707.368	-8.85
707.396	2.15
707.424	21.15
707.451	1.15
707.479	3.15
707.507	2.15
707.534	0.15
707.562	6.15
707.59	-5.85
707.617	-12.85
707.645	-0.85
707.672	-7.85
707.7	1.15
707.728	22.15
707.755	2.15
707.783	-18.85
707.811	-0.85
707.838	-1.85
707.866	2.15
707.893	-12.85
707.921	-7.85
707.949	-3.85
707.976	3.15
708.004	7.15
708.031	-5.85
708.059	-10.85
708.087	-1.85
708.114	-3.85
708.142	-8.85
708.169	-15.85
708.197	-15.85
708.225	-15.85
708.252	2.15
708.28	12.15
708.307	-9.85
708.335	12.15
708.362	13.15
708.39	8.15
708.418	-20.85
708.445	-4.85
708.473	7.15
708.5	-16.85
708.528	11.15
708.555	-2.85
708.583	-6.85
708.61	3.15
708.638	0.15
708.665	-5.85
708.693	-14.85
708.72	-12.85
708.748	-6.85
708.776	-4.85
708.803	12.15
708.831	9.15
708.858	15.15
708.886	-0.85
708.913	3.15
708.941	5.15
708.968	5.15
708.996	-2.85
709.023	56.15
709.051	4.15
709.078	-9.85
709.105	5.15
709.133	0.15
709.16	-12.85
709.188	-3.85
709.215	2.15
709.243	-10.85
709.27	-17.85
709.298	-14.85
709.325	-5.85
709.353	-4.85
709.38	-0.85
709.408	6.15
709.435	5.15
709.462	-2.85
709.49	-0.85
709.517	5.15
709.545	-3.85
709.572	3.15
709.6	5.15
709.627	-1.85
709.655	-1.85
709.682	1.15
709.709	14.15
709.737	-8.85
709.764	-5.85
709.792	0.15
709.819	-1.85
709.846	-0.85
709.874	-11.85
709.901	7.15
709.929	14.15
709.956	6.15
709.983	-12.85
710.011	0.15
710.038	-0.85
710.066	7.15
710.093	2.15
710.12	-4.85
710.148	5.15
710.175	-9.85
710.202	-4.85
710.23	5.15
710.257	2.15
710.284	3.15
710.312	5.15
710.339	8.15
710.366	-2.85
710.394	-8.85
710.421	6.15
710.448	-1.85
710.476	-2.85
710.503	-5.85
710.53	4.15
710.558	8.15
710.585	2.15
710.612	10.15
710.64	5.15
710.667	4.15
710.694	-12.85
710.722	-0.85
710.749	-2.85
710.776	9.15
710.804	23.15
710.831	-2.85
710.858	5.15
710.885	-1.85
710.913	-19.85
710.94	22.15
710.967	11.15
710.995	0.15
711.022	-6.85
711.049	5.15
711.076	-9.85
711.104	6.15
711.131	-7.85
711.158	3.15
711.185	-0.85
711.213	-22.85
711.24	-10.85
711.267	-3.85
711.294	-5.85
711.322	-3.85
711.349	7.15
711.376	-6.85
711.403	-12.85
711.431	-2.85
711.458	-0.85
711.485	0.15
711.512	18.15
711.54	-3.85
711.567	1.15
711.594	0.15
711.621	9.15
711.648	9.15
711.676	9.15
711.703	6.15
711.73	-12.85
711.757	-6.85
711.784	12.15
711.812	6.15
711.839	-4.85
711.866	-25.85
711.893	15.15
711.92	16.15
711.947	1.15
711.975	8.15
712.002	-1.85
712.029	4.15
712.056	-3.85
712.083	2.15
712.11	-1.85
712.138	12.15
712.165	8.15
712.192	-4.85
712.219	6.15
712.246	2.15
712.273	1.15
712.3	3.15
712.328	10.15
712.355	-14.85
712.382	-1.85
712.409	9.15
712.436	-4.85
712.463	16.15
712.49	11.15
712.517	-13.85
712.544	-1.85
712.572	10.15
712.599	-8.85
712.626	3.15
712.653	1.15
712.68	-14.85
712.707	11.15
712.734	13.15
712.761	3.15
712.788	-7.85
712.815	3.15
712.842	13.15
712.87	-9.85
712.897	-16.85
712.924	-24.85
712.951	3.15
712.978	10.15
713.005	5.15
713.032	-6.85
713.059	0.15
713.086	-3.85
713.113	-7.85
713.14	-13.85
713.167	18.15
713.194	11.15
713.221	-4.85
713.248	-1.85
713.275	-1.85
713.302	-12.85
713.329	0.15
713.356	6.15
713.383	0.15
713.41	4.15
713.437	-7.85
713.464	0.15
713.491	19.15
713.518	3.15
713.545	-7.85
713.572	7.15
713.599	11.15
713.626	0.15
713.653	11.15
713.68	8.15
713.707	3.15
713.734	4.15
713.761	-5.85
713.788	5.15
713.815	4.15
713.842	-1.85
713.869	-0.85
713.896	-13.85
713.923	-5.85
713.95	-11.85
713.977	-12.85
714.004	-8.85
714.031	-5.85
714.058	-17.85
714.085	-6.85
714.112	10.15
714.139	1.15
714.165	-7.85
714.192	6.15
714.219	0.15
714.246	-0.85
714.273	5.15
714.3	-5.85
714.327	-13.85
714.354	13.15
714.381	-8.85
714.408	2.15
714.435	14.15
714.461	-7.85
714.488	7.15
714.515	2.15
714.542	-9.85
714.569	-12.85
714.596	-5.85
714.623	-5.85
714.65	-7.85
714.677	1.15
714.703	2.15
714.73	-4.85
714.757	-9.85
714.784	13.15
714.811	-5.85
714.838	3.15
714.865	-15.85
714.891	2.15
714.918	15.15
714.945	-8.85
714.972	-3.85
714.999	4.15
715.026	-0.85
715.052	28.15
715.079	2.15
715.106	-6.85
715.133	-0.85
715.16	-16.85
715.187	6.15
715.213	10.15
715.24	-2.85
715.267	-1.85
715.294	-3.85
715.321	-9.85
715.347	-4.85
715.374	-12.85
715.401	-3.85
715.428	1.15
715.455	1.15
715.481	-13.85
715.508	14.15
715.535	-1.85
715.562	21.15
715.588	-3.85
715.615	-2.85
715.642	-0.85
715.669	11.15
715.695	-11.85
715.722	1.15
715.749	11.15
715.776	2.15
715.802	-2.85
715.829	-9.85
715.856	0.15
715.883	-6.85
715.909	-12.85
715.936	-9.85
715.963	5.15
715.99	-4.85
716.016	1.15
716.043	-7.85
716.07	-9.85
716.096	-11.85
716.123	-8.85
716.15	3.15
716.177	2.15
716.203	2.15
716.23	22.15
716.257	4.15
716.283	18.15
716.31	8.15
716.337	15.15
716.363	-1.85
716.39	-0.85
716.417	11.15
716.443	-6.85
716.47	-1.85
716.497	17.15
716.523	-0.85
716.55	9.15
716.577	-0.85
716.603	8.15
716.63	-2.85
716.657	4.15
716.683	-12.85
716.71	-3.85
716.737	-8.85
716.763	6.15
716.79	11.15
716.817	-4.85
716.843	-7.85
716.87	0.15
716.897	1.15
716.923	19.15
716.95	-5.85
716.976	-8.85
717.003	-19.85
717.03	4.15
717.056	5.15
717.083	-3.85
717.109	3.15
717.136	13.15
717.163	-0.85
717.189	-2.85
717.216	-8.85
717.242	3.15
717.269	-8.85
717.296	-1.85
717.322	12.15
717.349	-2.85
717.375	19.15
717.402	0.15
717.428	-0.85
717.455	19.15
717.481	-5.85
717.508	9.15
717.535	3.15
717.561	-2.85
717.588	-5.85
717.614	-2.85
717.641	1.15
717.667	-0.85
717.694	10.15
717.72	0.15
717.747	12.15
717.773	0.15
717.8	5.15
717.826	-4.85
717.853	8.15
717.88	15.15
717.906	17.15
717.933	3.15
717.959	14.15
717.986	8.15
718.012	0.15
718.039	17.15
718.065	16.15
718.092	-7.85
718.118	-7.85
718.144	-3.85
718.171	2.15
718.197	12.15
718.224	3.15
718.25	-5.85
718.277	2.15
718.303	13.15
718.33	-6.85
718.356	-25.85
718.383	-17.85
718.409	-5.85
718.436	9.15
718.462	-7.85
718.489	-3.85
718.515	15.15
718.541	14.15
718.568	6.15
718.594	-3.85
718.621	-0.85
718.647	3.15
718.674	10.15
718.7	18.15
718.726	-12.85
718.753	-3.85
718.779	10.15
718.806	-1.85
718.832	-7.85
718.858	-9.85
718.885	-11.85
718.911	-6.85
718.938	22.15
718.964	3.15
718.99	11.15
719.017	10.15
719.043	-5.85
719.07	9.15
719.096	-8.85
719.122	10.15
719.149	0.15
719.175	-1.85
719.201	-7.85
719.228	-14.85
719.254	2.15
719.281	-12.85
719.307	-9.85
719.333	3.15
719.36	14.15
719.386	-1.85
719.412	12.15
719.439	-17.85
719.465	-4.85
719.491	-14.85
719.518	-0.85
719.544	4.15
719.57	3.15
719.597	-14.85
719.623	-17.85
719.649	-16.85
719.675	7.15
719.702	-8.85
719.728	14.15
719.754	-1.85
719.781	-9.85
719.807	-0.85
719.833	-14.85
719.86	-6.85
719.886	-7.85
719.912	-5.85
719.938	-18.85
719.965	15.15
719.991	1.15
720.017	-5.85
720.044	-11.85
720.07	-0.85
720.096	12.15
720.122	6.15
720.149	7.15
720.175	21.15
720.201	-1.85
720.227	-0.85
720.254	-5.85
720.28	2.15
720.306	-8.85
720.332	-0.85
720.359	-3.85
720.385	-3.85
720.411	-6.85
720.437	0.15
720.463	-11.85
720.49	-3.85
720.516	7.15
720.542	-7.85
720.568	3.15
720.595	21.15
720.621	0.15
720.647	-4.85
720.673	24.15
720.699	-5.85
720.725	1.15
720.752	11.15
720.778	3.15
720.804	6.15
720.83	-4.85
720.856	-17.85
720.883	-11.85
720.909	-13.85
720.935	16.15
720.961	27.15
720.987	3.15
721.013	3.15
721.04	-5.85
721.066	-9.85
721.092	-9.85
721.118	8.15
721.144	-3.85
721.17	-9.85
721.196	-1.85
721.223	-9.85
721.249	11.15
721.275	22.15
721.301	-6.85
721.327	-6.85
721.353	10.15
721.379	1.15
721.405	3.15
721.432	-4.85
721.458	-15.85
721.484	-0.85
721.51	4.15
721.536	15.15
721.562	9.15
721.588	-4.85
721.614	-0.85
721.64	-13.85
721.666	-3.85
721.693	-9.85
721.719	-8.85
721.745	-16.85
721.771	-13.85
721.797	-8.85
721.823	-11.85
721.849	20.15
721.875	14.15
721.901	-7.85
721.927	3.15
721.953	7.15
721.979	0.15
722.005	26.15
722.031	10.15
722.057	15.15
722.083	0.15
722.109	8.15
722.135	18.15
722.161	-3.85
722.187	6.15
722.214	-8.85
722.24	1.15
722.266	-10.85
722.292	7.15
722.318	8.15
722.344	-4.85
722.37	10.15
722.396	-5.85
722.422	-1.85
722.448	12.15
722.474	-9.85
722.5	-3.85
722.526	6.15
722.552	1.15
722.578	10.15
722.603	2.15
722.629	-10.85
722.655	-3.85
722.681	-7.85
722.707	-3.85
722.733	-3.85
722.759	-2.85
722.785	0.15
722.811	3.15
722.837	-2.85
722.863	-0.85
722.889	6.15
722.915	10.15
722.941	-1.85
722.967	3.15
722.993	11.15
723.019	7.15
723.045	0.15
723.071	4.15
723.097	1.15
723.122	11.15
723.148	-8.85
723.174	-3.85
723.2	8.15
723.226	-2.85
723.252	0.15
723.278	-3.85
723.304	-4.85
723.33	4.15
723.356	-7.85
723.381	-13.85
723.407	-25.85
723.433	-1.85
723.459	-5.85
723.485	-1.85
723.511	-13.85
723.537	-16.85
723.563	-8.85
723.588	3.15
723.614	-10.85
723.64	-22.85
723.666	-1.85
723.692	2.15
723.718	2.15
723.744	4.15
723.769	7.15
723.795	-7.85
723.821	9.15
723.847	-22.85
723.873	-5.85
723.899	15.15
723.924	-5.85
723.95	17.15
723.976	-1.85
724.002	-1.85
724.028	-6.85
724.053	-1.85
724.079	-8.85
724.105	-13.85
724.131	2.15
724.157	-6.85
724.182	5.15
724.208	5.15
724.234	7.15
724.26	-9.85
724.286	16.15
724.311	2.15
724.337	-3.85
724.363	-9.85
724.389	16.15
724.415	12.15
724.44	41.15
724.466	12.15
724.492	10.15
724.518	10.15
724.543	0.15
724.569	12.15
724.595	2.15
724.621	3.15
724.646	-9.85
724.672	-14.85
724.698	-1.85
724.723	-8.85
724.749	11.15
724.775	-1.85
724.801	-11.85
724.826	-16.85
724.852	-10.85
724.878	-12.85
724.904	-25.85
724.929	-5.85
724.955	-15.85
724.981	4.15
725.006	-14.85
725.032	-7.85
725.058	12.15
725.083	2.15
725.109	3.15
725.135	5.15
725.161	9.15
725.186	13.15
725.212	10.15
725.238	15.15
725.263	12.15
725.289	-7.85
725.315	-7.85
725.34	-17.85
725.366	17.15
725.392	-1.85
725.417	3.15
725.443	-1.85
725.468	4.15
725.494	6.15
725.52	23.15
725.545	10.15
725.571	6.15
725.597	1.15
725.622	6.15
725.648	-0.85
725.674	-3.85
725.699	-3.85
725.725	-7.85
725.75	21.15
725.776	-10.85
725.802	-9.85
725.827	-4.85
725.853	-0.85
725.878	21.15
725.904	-3.85
725.93	2.15
725.955	-15.85
725.981	-7.85
726.006	-4.85
726.032	21.15
726.057	-5.85
726.083	-4.85
726.109	-3.85
726.134	2.15
726.16	-12.85
726.185	12.15
726.211	2.15
726.236	0.15
726.262	-1.85
726.288	3.15
726.313	12.15
726.339	8.15
726.364	4.15
726.39	19.15
726.415	-5.85
726.441	-6.85
726.466	-1.85
726.492	9.15
726.517	-4.85
726.543	-1.85
726.568	-4.85
726.594	-7.85
726.619	-2.85
726.645	-12.85
726.67	4.15
726.696	15.15
726.721	-3.85
726.747	-5.85
726.772	2.15
726.798	-11.85
726.823	12.15
726.849	-1.85
726.874	0.15
726.9	26.15
726.925	1.15
726.951	1.15
726.976	-2.85
727.002	-13.85
727.027	13.15
727.053	15.15
727.078	0.15
727.104	1.15
727.129	-29.85
727.155	-3.85
727.18	11.15
727.205	19.15
727.231	-2.85
727.256	3.15
727.282	3.15
727.307	-4.85
727.333	3.15
727.358	-10.85
727.383	-6.85
727.409	-8.85
727.434	-1.85
727.46	-0.85
727.485	-5.85
727.511	9.15
727.536	-14.85
727.561	-2.85
727.587	-3.85
727.612	6.15
727.637	9.15
727.663	-5.85
727.688	15.15
727.714	-3.85
727.739	-0.85
727.764	-4.85
727.79	-4.85
727.815	-1.85
727.841	-6.85
727.866	10.15
727.891	-0.85
727.917	-16.85
727.942	-17.85
727.967	-13.85
727.993	-0.85
728.018	3.15
728.043	-3.85
728.069	9.15
728.094	6.15
728.119	-9.85
728.145	16.15
728.17	-1.85
728.195	4.15
728.221	8.15
728.246	2.15
728.271	-3.85
728.297	0.15
728.322	-11.85
728.347	7.15
728.373	-1.85
728.398	24.15
728.423	7.15
728.448	1.15
728.474	-19.85
728.499	13.15
728.524	-1.85
728.55	-8.85
728.575	6.15
728.6	2.15
728.625	-6.85
728.651	4.15
728.676	-1.85
728.701	14.15
728.727	4.15
728.752	-19.85
728.777	2.15
728.802	-4.85
728.828	10.15
728.853	-3.85
728.878	-1.85
728.903	-8.85
728.929	-0.85
728.954	-5.85
728.979	-3.85
729.004	-4.85
729.03	6.15
729.055	13.15
729.08	1.15
729.105	-17.85
729.13	19.15
729.156	3.15
729.181	-5.85
729.206	-25.85
729.231	1.15
729.256	21.15
729.282	-0.85
729.307	-13.85
729.332	-16.85
729.357	-1.85
729.382	-4.85
729.408	-4.85
729.433	3.15
729.458	-3.85
729.483	19.15
729.508	12.15
729.533	-3.85
729.559	4.15
729.584	-26.85
729.609	11.15
729.634	-1.85
729.659	-8.85
729.684	-7.85
729.71	16.15
729.735	1.15
729.76	-8.85
729.785	-1.85
729.81	4.15
729.835	-14.85
729.86	-19.85
729.886	2.15
729.911	10.15
729.936	-21.85
729.961	7.15
729.986	-5.85
730.011	6.15
730.036	-1.85
730.061	1.15
730.086	5.15
730.112	9.15
730.137	26.15
730.162	0.15
730.187	-1.85
730.212	12.15
730.237	-17.85
730.262	0.15
730.287	3.15
730.312	18.15
730.337	-1.85
730.362	25.15
730.387	-6.85
730.413	-9.85
730.438	-12.85
730.463	-7.85
730.488	2.15
730.513	-4.85
730.538	-0.85
730.563	10.15
730.588	12.15
730.613	16.15
730.638	-10.85
730.663	-1.85
730.688	8.15
730.713	2.15
730.738	-5.85
730.763	-3.85
730.788	-9.85
730.813	1.15
730.838	-4.85
730.863	11.15
730.888	2.15
730.913	-1.85
730.938	-15.85
730.963	-3.85
730.988	1.15
731.013	13.15
731.038	-0.85
731.063	3.15
731.088	17.15
731.113	-7.85
731.138	-6.85
731.163	-8.85
731.188	0.15
731.213	6.15
731.238	7.15
731.263	-6.85
731.288	-4.85
731.313	12.15
731.338	-5.85
731.363	-1.85
731.388	-6.85
731.413	-4.85
731.438	11.15
731.463	11.15
731.487	-0.85
731.512	-3.85
731.537	-0.85
731.562	4.15
731.587	2.15
731.612	-17.85
731.637	-5.85
731.662	12.15
731.687	2.15
731.712	-9.85
731.737	-6.85
731.762	-3.85
731.786	0.15
731.811	-1.85
731.836	-6.85
731.861	4.15
731.886	4.15
731.911	7.15
731.936	10.15
731.961	11.15
731.986	-24.85
732.01	-8.85
732.035	6.15
732.06	15.15
732.085	-8.85
732.11	3.15
732.135	-11.85
732.16	-6.85
732.184	-1.85
732.209	-11.85
732.234	10.15
732.259	-2.85
732.284	3.15
732.309	-20.85
732.334	-7.85
732.358	-7.85
732.383	-16.85
732.408	-23.85
732.433	-1.85
732.458	-2.85
732.482	0.15
732.507	-10.85
732.532	-2.85
732.557	7.15
732.582	22.15
732.607	4.15
732.631	-15.85
732.656	-7.85
732.681	7.15
732.706	5.15
732.73	-7.85
732.755	5.15
732.78	-10.85
732.805	2.15
732.83	-8.85
732.854	-8.85
732.879	1.15
732.904	6.15
732.929	-4.85
732.953	-1.85
732.978	-5.85
733.003	3.15
733.028	-5.85
733.052	6.15
733.077	2.15
733.102	13.15
733.127	-3.85
733.151	6.15
733.176	5.15
733.201	-0.85
733.226	3.15
733.25	2.15
733.275	4.15
733.3	8.15
733.324	-4.85
733.349	11.15
733.374	3.15
733.399	-5.85
733.423	13.15
733.448	-6.85
733.473	-0.85
733.497	-13.85
733.522	-11.85
733.547	3.15
733.571	13.15
733.596	13.15
733.621	19.15
733.646	7.15
733.67	8.15
733.695	-15.85
733.72	-1.85
733.744	16.15
733.769	7.15
733.794	11.15
733.818	-9.85
733.843	-6.85
733.867	-10.85
733.892	-11.85
733.917	2.15
733.941	5.15
733.966	-23.85
733.991	-16.85
734.015	5.15
734.04	12.15
734.065	8.15
734.089	6.15
734.114	-5.85
734.138	1.15
734.163	-7.85
734.188	10.15
734.212	18.15
734.237	19.15
734.261	0.15
734.286	-6.85
734.311	-5.85
734.335	-0.85
734.36	-0.85
734.384	-0.85
734.409	-2.85
734.434	-1.85
734.458	3.15
734.483	-4.85
734.507	-6.85
734.532	-2.85
734.556	7.15
734.581	7.15
734.606	9.15
734.63	4.15
734.655	1.15
734.679	4.15
734.704	7.15
734.728	-5.85
734.753	-9.85
734.777	-7.85
734.802	-0.85
734.826	11.15
734.851	-3.85
734.876	0.15
734.9	-7.85
734.925	5.15
734.949	-1.85
734.974	-21.85
734.998	6.15
735.023	-12.85
735.047	-7.85
735.072	17.15
735.096	0.15
735.121	-5.85
735.145	-3.85
735.17	-0.85
735.194	5.15
735.219	-9.85
735.243	-8.85
735.268	-8.85
735.292	0.15
735.317	-1.85
735.341	6.15
735.365	-1.85
735.39	18.15
735.414	10.15
735.439	-9.85
735.463	-14.85
735.488	3.15
735.512	12.15
735.537	16.15
735.561	-6.85
735.586	2.15
735.61	3.15
735.634	-7.85
735.659	5.15
735.683	31.15
735.708	11.15
735.732	1.15
735.757	9.15
735.781	-4.85
735.805	-0.85
735.83	-9.85
735.854	4.15
735.879	3.15
735.903	2.15
735.927	16.15
735.952	10.15
735.976	6.15
736.001	8.15
736.025	4.15
736.049	14.15
736.074	-4.85
736.098	-4.85
736.123	-14.85
736.147	-0.85
736.171	8.15
736.196	4.15
736.22	-14.85
736.244	8.15
736.269	0.15
736.293	-11.85
736.317	3.15
736.342	1.15
736.366	11.15
736.39	26.15
736.415	6.15
736.439	-1.85
736.463	10.15
736.488	9.15
736.512	6.15
736.536	11.15
736.561	17.15
736.585	14.15
736.609	5.15
736.634	7.15
736.658	3.15
736.682	-12.85
736.707	-9.85
736.731	-15.85
736.755	7.15
736.78	4.15
736.804	0.15
736.828	1.15
736.852	-5.85
736.877	10.15
736.901	6.15
736.925	7.15
736.949	0.15
736.974	2.15
736.998	-5.85
737.022	2.15
737.047	-8.85
737.071	0.15
737.095	1.15
737.119	14.15
737.144	5.15
737.168	-8.85
737.192	-1.85
737.216	12.15
737.241	2.15
737.265	2.15
737.289	-4.85
737.313	3.15
737.337	9.15
737.362	6.15
737.386	-5.85
737.41	7.15
737.434	7.15
737.459	13.15
737.483	23.15
737.507	7.15
737.531	13.15
737.555	4.15
737.58	0.15
737.604	-1.85
737.628	-5.85
737.652	4.15
737.676	-11.85
737.701	11.15
737.725	0.15
737.749	6.15
737.773	-3.85
737.797	-1.85
737.821	-2.85
737.846	-3.85
737.87	29.15
737.894	3.15
737.918	10.15
737.942	-11.85
737.966	10.15
737.99	-1.85
738.015	-5.85
738.039	-4.85
738.063	-3.85
738.087	16.15
738.111	0.15
738.135	23.15
738.159	-4.85
738.184	-0.85
738.208	0.15
738.232	-6.85
738.256	24.15
738.28	22.15
738.304	11.15
738.328	-13.85
738.352	-8.85
738.376	9.15
738.4	2.15
738.425	8.15
738.449	-10.85
738.473	10.15
738.497	4.15
738.521	7.15
738.545	-1.85
738.569	16.15
738.593	25.15
738.617	11.15
738.641	1.15
738.665	-3.85
738.689	2.15
738.713	1.15
738.737	21.15
738.762	16.15
738.786	6.15
738.81	-9.85
738.834	13.15
738.858	-17.85
738.882	-3.85
738.906	-4.85
738.93	2.15
738.954	10.15
738.978	-0.85
739.002	-13.85
739.026	-10.85
739.05	15.15
739.074	2.15
739.098	25.15
739.122	14.15
739.146	0.15
739.17	6.15
739.194	-1.85
739.218	0.15
739.242	-0.85
739.266	-3.85
739.29	-5.85
739.314	-5.85
739.338	0.15
739.362	-6.85
739.386	6.15
739.41	11.15
739.434	-0.85
739.458	11.15
739.482	7.15
739.506	3.15
739.53	2.15
739.554	17.15
739.577	4.15
739.601	14.15
739.625	-9.85
739.649	-10.85
739.673	-8.85
739.697	3.15
739.721	5.15
739.745	17.15
739.769	18.15
739.793	4.15
739.817	4.15
739.841	-7.85
739.865	-13.85
739.889	-6.85
739.912	-1.85
739.936	-6.85
739.96	-6.85
739.984	11.15
740.008	3.15
740.032	-4.85
740.056	-1.85
740.08	10.15
740.104	-1.85
740.127	11.15
740.151	11.15
740.175	6.15
740.199	4.15
740.223	51.15
740.247	19.15
740.271	-1.85
740.295	-8.85
740.318	0.15
740.342	-4.85
740.366	-5.85
740.39	-2.85
740.414	-8.85
740.438	-17.85
740.461	11.15
740.485	0.15
740.509	-13.85
740.533	11.15
740.557	-5.85
740.581	-11.85
740.604	-15.85
740.628	6.15
740.652	8.15
740.676	-9.85
740.7	14.15
740.723	-21.85
740.747	-12.85
740.771	-0.85
740.795	-13.85
740.819	22.15
740.842	-1.85
740.866	15.15
740.89	7.15
740.914	-1.85
740.938	-10.85
740.961	18.15
740.985	2.15
741.009	-3.85
741.033	2.15
741.056	4.15
741.08	4.15
741.104	-7.85
741.128	3.15
741.151	17.15
741.175	-1.85
741.199	4.15
741.223	18.15
741.246	-9.85
741.27	5.15
741.294	-0.85
741.318	-28.85
741.341	-4.85
741.365	-6.85
741.389	-0.85
741.413	10.15
741.436	14.15
741.46	-9.85
741.484	4.15
741.507	-10.85
741.531	8.15
741.555	13.15
741.579	5.15
741.602	10.15
741.626	4.15
741.65	-3.85
741.673	5.15
741.697	15.15
741.721	3.15
741.744	-16.85
741.768	-16.85
741.792	-0.85
741.815	-3.85
741.839	14.15
741.863	8.15
741.886	14.15
741.91	1.15
741.934	2.15
741.957	-2.85
741.981	4.15
742.005	9.15
742.028	-8.85
742.052	-10.85
742.075	8.15
742.099	0.15
742.123	-0.85
742.146	-11.85
742.17	-4.85
742.194	-14.85
742.217	1.15
742.241	-1.85
742.264	-4.85
742.288	33.15
742.312	12.15
742.335	13.15
742.359	-5.85
742.382	-3.85
742.406	17.15
742.43	-3.85
742.453	5.15
742.477	-5.85
742.5	14.15
742.524	-1.85
742.548	-9.85
742.571	-0.85
742.595	-1.85
742.618	-0.85
742.642	1.15
742.665	7.15
742.689	-10.85
742.712	3.15
742.736	0.15
742.76	3.15
742.783	-1.85
742.807	-7.85
742.83	-0.85
742.854	-17.85
742.877	-14.85
742.901	-8.85
742.924	-4.85
742.948	8.15
742.971	10.15
742.995	0.15
743.018	-22.85
743.042	-27.85
743.065	1.15
743.089	1.15
743.112	0.15
743.136	-10.85
743.159	-13.85
743.183	-0.85
743.206	6.15
743.23	5.15
743.253	-9.85
743.277	17.15
743.3	0.15
743.324	5.15
743.347	-4.85
743.371	19.15
743.394	-9.85
743.418	9.15
743.441	22.15
743.465	2.15
743.488	0.15
743.512	-11.85
743.535	-3.85
743.558	6.15
743.582	6.15
743.605	2.15
743.629	6.15
743.652	6.15
743.676	3.15
743.699	3.15
743.723	-4.85
743.746	4.15
743.769	-5.85
743.793	-1.85
743.816	-11.85
743.84	7.15
743.863	-8.85
743.886	3.15
743.91	1.15
743.933	1.15
743.957	-0.85
743.98	-8.85
744.003	-4.85
744.027	-16.85
744.05	-3.85
744.074	-4.85
744.097	-15.85
744.12	4.15
744.144	-8.85
744.167	6.15
744.19	0.15
744.214	7.15
744.237	-3.85
744.26	24.15
744.284	13.15
744.307	-3.85
744.331	7.15
744.354	-5.85
744.377	-9.85
744.401	-1.85
744.424	0.15
744.447	-19.85
744.471	3.15
