Data from HighRes_H2_15_09_11_07_2024_HR4C61891__136__15-11-10-003.txt Node

Date: Thu Nov 07 15:11:10 EST 2024
User: crc00042
Spectrometer: HR4C6189
Trigger mode: 4
Integration Time (sec): 1.000000E-1
Scans to average: 1
Electric dark correction enabled: true
Nonlinearity correction enabled: false
Boxcar width: 0
XAxis mode: Wavelengths
Number of Pixels in Spectrum: 3648
>>>>>Begin Spectral Data<<<<<
639.567	-25.54
639.602	-25.54
639.636	-25.54
639.67	-26.54
639.704	-23.54
639.738	-2.54
639.773	4.46
639.807	-0.54
639.841	20.46
639.875	9.46
639.909	-11.54
639.943	-4.54
639.978	1.46
640.012	-2.54
640.046	-1.54
640.08	6.46
640.114	-7.54
640.148	-11.54
640.182	-2.54
640.217	5.46
640.251	11.46
640.285	7.46
640.319	-1.54
640.353	7.46
640.387	-10.54
640.421	-9.54
640.455	8.46
640.49	7.46
640.524	-9.54
640.558	11.46
640.592	10.46
640.626	12.46
640.66	13.46
640.694	-19.54
640.728	-1.54
640.762	22.46
640.796	15.46
640.83	17.46
640.865	14.46
640.899	8.46
640.933	5.46
640.967	10.46
641.001	7.46
641.035	15.46
641.069	-0.54
641.103	3.46
641.137	-0.54
641.171	-3.54
641.205	0.46
641.239	7.46
641.273	5.46
641.307	15.46
641.341	-0.54
641.375	-2.54
641.409	-3.54
641.443	-1.54
641.477	-4.54
641.511	15.46
641.545	4.46
641.579	9.46
641.614	5.46
641.648	-2.54
641.682	-6.54
641.716	11.46
641.75	18.46
641.784	8.46
641.818	13.46
641.852	14.46
641.886	-6.54
641.919	20.46
641.953	1.46
641.987	-2.54
642.021	3.46
642.055	8.46
642.089	5.46
642.123	-1.54
642.157	2.46
642.191	-6.54
642.225	27.46
642.259	18.46
642.293	1.46
642.327	2.46
642.361	-4.54
642.395	17.46
642.429	12.46
642.463	27.46
642.497	4.46
642.531	5.46
642.565	-10.54
642.599	8.46
642.633	-1.54
642.666	9.46
642.7	18.46
642.734	7.46
642.768	-15.54
642.802	8.46
642.836	1.46
642.87	2.46
642.904	17.46
642.938	13.46
642.972	16.46
643.005	9.46
643.039	14.46
643.073	-3.54
643.107	6.46
643.141	0.46
643.175	0.46
643.209	3.46
643.243	9.46
643.276	15.46
643.31	10.46
643.344	1.46
643.378	-12.54
643.412	7.46
643.446	-1.54
643.48	-9.54
643.513	0.46
643.547	0.46
643.581	5.46
643.615	18.46
643.649	-5.54
643.683	6.46
643.716	3.46
643.75	4.46
643.784	-16.54
643.818	4.46
643.852	-2.54
643.886	8.46
643.919	-1.54
643.953	12.46
643.987	7.46
644.021	13.46
644.055	22.46
644.088	16.46
644.122	-17.54
644.156	-4.54
644.19	2.46
644.224	-8.54
644.257	19.46
644.291	30.46
644.325	23.46
644.359	1.46
644.392	25.46
644.426	5.46
644.46	10.46
644.494	9.46
644.527	16.46
644.561	6.46
644.595	6.46
644.629	-9.54
644.662	-2.54
644.696	-5.54
644.73	4.46
644.764	19.46
644.797	12.46
644.831	-0.54
644.865	11.46
644.899	-2.54
644.932	13.46
644.966	-1.54
645	14.46
645.033	25.46
645.067	-0.54
645.101	3.46
645.135	7.46
645.168	-6.54
645.202	-5.54
645.236	3.46
645.269	10.46
645.303	15.46
645.337	-14.54
645.37	-7.54
645.404	4.46
645.438	-5.54
645.471	1.46
645.505	7.46
645.539	7.46
645.572	-5.54
645.606	-6.54
645.64	6.46
645.673	5.46
645.707	19.46
645.741	-0.54
645.774	2.46
645.808	16.46
645.842	8.46
645.875	14.46
645.909	-5.54
645.943	-1.54
645.976	8.46
646.01	13.46
646.043	13.46
646.077	7.46
646.111	10.46
646.144	4.46
646.178	25.46
646.212	-6.54
646.245	0.46
646.279	9.46
646.312	8.46
646.346	15.46
646.38	8.46
646.413	2.46
646.447	-3.54
646.48	-1.54
646.514	10.46
646.547	1.46
646.581	-3.54
646.615	-7.54
646.648	-14.54
646.682	-0.54
646.715	4.46
646.749	3.46
646.782	7.46
646.816	14.46
646.85	18.46
646.883	5.46
646.917	18.46
646.95	22.46
646.984	21.46
647.017	7.46
647.051	23.46
647.084	8.46
647.118	3.46
647.151	-1.54
647.185	-4.54
647.218	-10.54
647.252	17.46
647.285	4.46
647.319	7.46
647.353	1.46
647.386	21.46
647.42	5.46
647.453	3.46
647.487	20.46
647.52	10.46
647.553	5.46
647.587	7.46
647.62	-3.54
647.654	6.46
647.687	3.46
647.721	22.46
647.754	10.46
647.788	-4.54
647.821	-10.54
647.855	7.46
647.888	14.46
647.922	16.46
647.955	12.46
647.989	-1.54
648.022	8.46
648.055	28.46
648.089	-4.54
648.122	15.46
648.156	4.46
648.189	-9.54
648.223	13.46
648.256	26.46
648.29	4.46
648.323	-3.54
648.356	5.46
648.39	12.46
648.423	2.46
648.457	-8.54
648.49	12.46
648.523	10.46
648.557	8.46
648.59	6.46
648.624	-0.54
648.657	-1.54
648.69	27.46
648.724	8.46
648.757	18.46
648.791	3.46
648.824	11.46
648.857	19.46
648.891	10.46
648.924	16.46
648.957	19.46
648.991	-6.54
649.024	12.46
649.057	12.46
649.091	-1.54
649.124	22.46
649.158	18.46
649.191	28.46
649.224	1.46
649.258	18.46
649.291	2.46
649.324	12.46
649.358	7.46
649.391	15.46
649.424	11.46
649.458	8.46
649.491	-4.54
649.524	-2.54
649.557	8.46
649.591	-15.54
649.624	16.46
649.657	-4.54
649.691	0.46
649.724	2.46
649.757	-5.54
649.791	-7.54
649.824	-1.54
649.857	5.46
649.89	8.46
649.924	-8.54
649.957	1.46
649.99	-5.54
650.023	3.46
650.057	15.46
650.09	12.46
650.123	10.46
650.157	21.46
650.19	32.46
650.223	17.46
650.256	-6.54
650.29	21.46
650.323	20.46
650.356	7.46
650.389	12.46
650.423	-4.54
650.456	-0.54
650.489	-5.54
650.522	7.46
650.555	16.46
650.589	10.46
650.622	-5.54
650.655	14.46
650.688	0.46
650.721	7.46
650.755	7.46
650.788	0.46
650.821	10.46
650.854	7.46
650.887	16.46
650.921	8.46
650.954	5.46
650.987	-5.54
651.02	-16.54
651.053	-9.54
651.087	6.46
651.12	18.46
651.153	1.46
651.186	-0.54
651.219	-4.54
651.252	8.46
651.286	9.46
651.319	4.46
651.352	10.46
651.385	3.46
651.418	3.46
651.451	17.46
651.484	15.46
651.518	0.46
651.551	36.46
651.584	8.46
651.617	20.46
651.65	2.46
651.683	24.46
651.716	7.46
651.749	6.46
651.783	14.46
651.816	2.46
651.849	-4.54
651.882	12.46
651.915	-7.54
651.948	-17.54
651.981	-8.54
652.014	-16.54
652.047	-7.54
652.08	-5.54
652.114	0.46
652.147	1.46
652.18	8.46
652.213	23.46
652.246	-3.54
652.279	-9.54
652.312	-6.54
652.345	4.46
652.378	11.46
652.411	28.46
652.444	9.46
652.477	10.46
652.51	5.46
652.543	-23.54
652.576	3.46
652.609	-18.54
652.642	11.46
652.675	1.46
652.709	-3.54
652.742	5.46
652.775	5.46
652.808	16.46
652.841	-1.54
652.874	6.46
652.907	-6.54
652.94	6.46
652.973	-16.54
653.006	-11.54
653.039	3.46
653.072	16.46
653.105	-1.54
653.138	-23.54
653.171	-0.54
653.204	-2.54
653.237	4.46
653.27	6.46
653.303	19.46
653.336	12.46
653.368	-18.54
653.401	0.46
653.434	7.46
653.467	-16.54
653.5	-4.54
653.533	-2.54
653.566	4.46
653.599	6.46
653.632	-0.54
653.665	-5.54
653.698	-12.54
653.731	-2.54
653.764	9.46
653.797	-1.54
653.83	14.46
653.863	8.46
653.896	1.46
653.929	3.46
653.961	6.46
653.994	9.46
654.027	-6.54
654.06	13.46
654.093	6.46
654.126	0.46
654.159	-12.54
654.192	11.46
654.225	-1.54
654.258	-7.54
654.29	-1.54
654.323	7.46
654.356	-2.54
654.389	9.46
654.422	8.46
654.455	-1.54
654.488	6.46
654.521	-10.54
654.553	6.46
654.586	12.46
654.619	11.46
654.652	-11.54
654.685	-9.54
654.718	25.46
654.751	-1.54
654.783	3.46
654.816	9.46
654.849	-7.54
654.882	-0.54
654.915	-9.54
654.948	2.46
654.98	-12.54
655.013	1.46
655.046	-12.54
655.079	-21.54
655.112	5.46
655.144	0.46
655.177	19.46
655.21	35.46
655.243	30.46
655.276	11.46
655.308	4.46
655.341	-7.54
655.374	19.46
655.407	-4.54
655.44	-1.54
655.472	7.46
655.505	8.46
655.538	-6.54
655.571	13.46
655.603	17.46
655.636	-1.54
655.669	19.46
655.702	3.46
655.734	9.46
655.767	16.46
655.8	22.46
655.833	7.46
655.865	19.46
655.898	51.46
655.931	42.46
655.964	50.46
655.996	59.46
656.029	73.46
656.062	59.46
656.095	67.46
656.127	74.46
656.16	113.46
656.193	126.46
656.225	180.46
656.258	258.46
656.291	520.46
656.324	1133.46
656.356	3410.46
656.389	7608.46
656.422	6005.46
656.454	2055.46
656.487	691.46
656.52	271.46
656.552	136.46
656.585	59.46
656.618	58.46
656.65	35.46
656.683	22.46
656.716	14.46
656.748	0.46
656.781	6.46
656.814	-9.54
656.846	17.46
656.879	10.46
656.912	5.46
656.944	2.46
656.977	3.46
657.01	18.46
657.042	0.46
657.075	9.46
657.108	-6.54
657.14	-5.54
657.173	9.46
657.205	32.46
657.238	7.46
657.271	-4.54
657.303	-1.54
657.336	5.46
657.369	4.46
657.401	1.46
657.434	-10.54
657.466	4.46
657.499	-2.54
657.532	5.46
657.564	10.46
657.597	-4.54
657.629	2.46
657.662	6.46
657.694	2.46
657.727	-2.54
657.76	7.46
657.792	5.46
657.825	-17.54
657.857	-1.54
657.89	4.46
657.922	27.46
657.955	-4.54
657.987	12.46
658.02	16.46
658.053	6.46
658.085	7.46
658.118	9.46
658.15	20.46
658.183	25.46
658.215	6.46
658.248	8.46
658.28	-5.54
658.313	16.46
658.345	8.46
658.378	0.46
658.41	-4.54
658.443	20.46
658.475	6.46
658.508	-3.54
658.54	-5.54
658.573	-10.54
658.605	-1.54
658.638	5.46
658.67	-0.54
658.703	6.46
658.735	-14.54
658.768	9.46
658.8	7.46
658.833	23.46
658.865	-0.54
658.898	-9.54
658.93	1.46
658.963	14.46
658.995	-7.54
659.028	1.46
659.06	2.46
659.092	16.46
659.125	-5.54
659.157	11.46
659.19	1.46
659.222	-7.54
659.255	-4.54
659.287	9.46
659.32	4.46
659.352	6.46
659.384	8.46
659.417	-4.54
659.449	-0.54
659.482	13.46
659.514	1.46
659.546	18.46
659.579	-10.54
659.611	15.46
659.644	-2.54
659.676	-11.54
659.708	-14.54
659.741	-0.54
659.773	4.46
659.806	10.46
659.838	-1.54
659.87	-10.54
659.903	-0.54
659.935	15.46
659.967	11.46
660	-14.54
660.032	-18.54
660.065	13.46
660.097	1.46
660.129	-9.54
660.162	1.46
660.194	18.46
660.226	22.46
660.259	9.46
660.291	-1.54
660.323	9.46
660.356	18.46
660.388	-1.54
660.42	-3.54
660.453	20.46
660.485	10.46
660.517	16.46
660.55	8.46
660.582	-0.54
660.614	22.46
660.647	-9.54
660.679	-2.54
660.711	7.46
660.743	-3.54
660.776	-12.54
660.808	7.46
660.84	-10.54
660.873	-4.54
660.905	0.46
660.937	2.46
660.969	6.46
661.002	15.46
661.034	19.46
661.066	1.46
661.099	25.46
661.131	21.46
661.163	3.46
661.195	-10.54
661.228	29.46
661.26	2.46
661.292	-6.54
661.324	0.46
661.357	15.46
661.389	5.46
661.421	6.46
661.453	4.46
661.485	9.46
661.518	5.46
661.55	-9.54
661.582	-9.54
661.614	-4.54
661.647	-9.54
661.679	-5.54
661.711	1.46
661.743	1.46
661.775	18.46
661.808	25.46
661.84	-15.54
661.872	9.46
661.904	14.46
661.936	-0.54
661.969	-10.54
662.001	2.46
662.033	-3.54
662.065	5.46
662.097	16.46
662.129	8.46
662.162	-13.54
662.194	-4.54
662.226	1.46
662.258	13.46
662.29	3.46
662.322	-13.54
662.355	-11.54
662.387	18.46
662.419	25.46
662.451	11.46
662.483	18.46
662.515	1.46
662.547	-7.54
662.58	-8.54
662.612	5.46
662.644	0.46
662.676	4.46
662.708	7.46
662.74	-15.54
662.772	8.46
662.804	2.46
662.836	11.46
662.869	-11.54
662.901	14.46
662.933	6.46
662.965	25.46
662.997	14.46
663.029	3.46
663.061	2.46
663.093	-12.54
663.125	10.46
663.157	17.46
663.189	4.46
663.221	11.46
663.254	11.46
663.286	22.46
663.318	6.46
663.35	9.46
663.382	31.46
663.414	15.46
663.446	10.46
663.478	0.46
663.51	16.46
663.542	-4.54
663.574	12.46
663.606	13.46
663.638	-5.54
663.67	7.46
663.702	2.46
663.734	0.46
663.766	2.46
663.798	-0.54
663.83	12.46
663.862	14.46
663.894	17.46
663.926	5.46
663.958	14.46
663.99	5.46
664.022	-10.54
664.054	12.46
664.086	10.46
664.118	-3.54
664.15	4.46
664.182	-4.54
664.214	-7.54
664.246	10.46
664.278	5.46
664.31	10.46
664.342	10.46
664.374	16.46
664.406	7.46
664.438	13.46
664.47	8.46
664.502	-9.54
664.534	3.46
664.566	-9.54
664.598	11.46
664.63	9.46
664.662	15.46
664.693	-0.54
664.725	-4.54
664.757	-12.54
664.789	-22.54
664.821	-2.54
664.853	17.46
664.885	3.46
664.917	-4.54
664.949	23.46
664.981	23.46
665.013	28.46
665.045	-2.54
665.076	-5.54
665.108	3.46
665.14	12.46
665.172	1.46
665.204	-6.54
665.236	-4.54
665.268	7.46
665.3	-6.54
665.331	4.46
665.363	7.46
665.395	3.46
665.427	11.46
665.459	26.46
665.491	8.46
665.523	9.46
665.555	-4.54
665.586	-0.54
665.618	-8.54
665.65	1.46
665.682	4.46
665.714	-6.54
665.746	3.46
665.777	12.46
665.809	8.46
665.841	5.46
665.873	11.46
665.905	-6.54
665.937	3.46
665.968	16.46
666	1.46
666.032	1.46
666.064	6.46
666.096	1.46
666.127	19.46
666.159	24.46
666.191	6.46
666.223	9.46
666.255	6.46
666.286	11.46
666.318	9.46
666.35	8.46
666.382	-1.54
666.413	-0.54
666.445	-7.54
666.477	-13.54
666.509	3.46
666.54	0.46
666.572	5.46
666.604	-1.54
666.636	5.46
666.667	13.46
666.699	29.46
666.731	15.46
666.763	4.46
666.794	0.46
666.826	-4.54
666.858	-22.54
666.89	-0.54
666.921	-5.54
666.953	-1.54
666.985	4.46
667.017	25.46
667.048	-1.54
667.08	10.46
667.112	-6.54
667.143	-6.54
667.175	19.46
667.207	12.46
667.238	4.46
667.27	5.46
667.302	5.46
667.334	2.46
667.365	11.46
667.397	1.46
667.429	6.46
667.46	19.46
667.492	22.46
667.524	-7.54
667.555	-0.54
667.587	-4.54
667.619	1.46
667.65	-3.54
667.682	0.46
667.714	4.46
667.745	6.46
667.777	7.46
667.808	0.46
667.84	10.46
667.872	-0.54
667.903	21.46
667.935	2.46
667.967	-15.54
667.998	4.46
668.03	16.46
668.061	4.46
668.093	4.46
668.125	15.46
668.156	17.46
668.188	5.46
668.22	-1.54
668.251	12.46
668.283	-1.54
668.314	14.46
668.346	-4.54
668.377	3.46
668.409	-13.54
668.441	1.46
668.472	-0.54
668.504	4.46
668.535	5.46
668.567	7.46
668.599	12.46
668.63	15.46
668.662	2.46
668.693	6.46
668.725	21.46
668.756	10.46
668.788	3.46
668.819	-0.54
668.851	14.46
668.882	-2.54
668.914	4.46
668.946	3.46
668.977	5.46
669.009	0.46
669.04	-14.54
669.072	-1.54
669.103	0.46
669.135	3.46
669.166	-5.54
669.198	-5.54
669.229	-7.54
669.261	3.46
669.292	5.46
669.324	15.46
669.355	14.46
669.387	-10.54
669.418	6.46
669.45	-4.54
669.481	-3.54
669.513	2.46
669.544	11.46
669.576	8.46
669.607	25.46
669.639	24.46
669.67	-3.54
669.701	2.46
669.733	-5.54
669.764	3.46
669.796	9.46
669.827	-0.54
669.859	-13.54
669.89	3.46
669.922	18.46
669.953	13.46
669.985	13.46
670.016	19.46
670.047	-0.54
670.079	3.46
670.11	11.46
670.142	-13.54
670.173	4.46
670.204	-7.54
670.236	4.46
670.267	-5.54
670.299	-10.54
670.33	5.46
670.362	-7.54
670.393	-19.54
670.424	5.46
670.456	2.46
670.487	-12.54
670.518	-17.54
670.55	-3.54
670.581	2.46
670.613	9.46
670.644	-0.54
670.675	-4.54
670.707	11.46
670.738	20.46
670.769	-12.54
670.801	-11.54
670.832	-2.54
670.864	-8.54
670.895	0.46
670.926	9.46
670.958	0.46
670.989	4.46
671.02	-19.54
671.052	-6.54
671.083	16.46
671.114	-0.54
671.146	23.46
671.177	6.46
671.208	4.46
671.24	4.46
671.271	7.46
671.302	13.46
671.333	-9.54
671.365	-0.54
671.396	2.46
671.427	8.46
671.459	16.46
671.49	11.46
671.521	11.46
671.553	5.46
671.584	7.46
671.615	-18.54
671.646	17.46
671.678	8.46
671.709	0.46
671.74	-11.54
671.771	-5.54
671.803	6.46
671.834	15.46
671.865	-1.54
671.896	8.46
671.928	13.46
671.959	-16.54
671.99	-1.54
672.021	5.46
672.053	-18.54
672.084	24.46
672.115	5.46
672.146	1.46
672.178	-16.54
672.209	-8.54
672.24	-16.54
672.271	3.46
672.303	3.46
672.334	9.46
672.365	-3.54
672.396	18.46
672.427	13.46
672.459	-5.54
672.49	10.46
672.521	-5.54
672.552	-6.54
672.583	15.46
672.615	8.46
672.646	9.46
672.677	-3.54
672.708	7.46
672.739	3.46
672.77	16.46
672.802	15.46
672.833	8.46
672.864	-1.54
672.895	3.46
672.926	5.46
672.957	-11.54
672.989	0.46
673.02	11.46
673.051	8.46
673.082	23.46
673.113	6.46
673.144	-2.54
673.175	3.46
673.206	-17.54
673.238	2.46
673.269	5.46
673.3	3.46
673.331	15.46
673.362	3.46
673.393	14.46
673.424	26.46
673.455	20.46
673.487	6.46
673.518	8.46
673.549	-6.54
673.58	1.46
673.611	-0.54
673.642	-1.54
673.673	-23.54
673.704	10.46
673.735	26.46
673.766	-8.54
673.797	10.46
673.828	16.46
673.86	-10.54
673.891	-9.54
673.922	-5.54
673.953	-10.54
673.984	2.46
674.015	8.46
674.046	-9.54
674.077	-2.54
674.108	2.46
674.139	3.46
674.17	-13.54
674.201	-11.54
674.232	3.46
674.263	7.46
674.294	-1.54
674.325	-7.54
674.356	5.46
674.387	20.46
674.418	-7.54
674.449	-4.54
674.48	-23.54
674.511	9.46
674.542	2.46
674.573	-2.54
674.604	8.46
674.635	2.46
674.666	11.46
674.697	7.46
674.728	2.46
674.759	-4.54
674.79	-7.54
674.821	-12.54
674.852	1.46
674.883	4.46
674.914	6.46
674.945	7.46
674.976	7.46
675.007	-13.54
675.038	-3.54
675.069	-19.54
675.1	2.46
675.131	5.46
675.162	-6.54
675.193	-8.54
675.224	2.46
675.254	2.46
675.285	12.46
675.316	20.46
675.347	3.46
675.378	-8.54
675.409	-18.54
675.44	-1.54
675.471	10.46
675.502	-1.54
675.533	-7.54
675.564	18.46
675.595	1.46
675.625	16.46
675.656	6.46
675.687	-6.54
675.718	-19.54
675.749	-1.54
675.78	9.46
675.811	-8.54
675.842	4.46
675.873	1.46
675.903	-7.54
675.934	-0.54
675.965	6.46
675.996	-0.54
676.027	3.46
676.058	3.46
676.089	-20.54
676.119	1.46
676.15	1.46
676.181	-12.54
676.212	-5.54
676.243	0.46
676.274	-5.54
676.304	16.46
676.335	-3.54
676.366	-2.54
676.397	4.46
676.428	4.46
676.459	9.46
676.489	10.46
676.52	14.46
676.551	-0.54
676.582	-12.54
676.613	-11.54
676.643	-6.54
676.674	17.46
676.705	4.46
676.736	10.46
676.767	14.46
676.797	15.46
676.828	16.46
676.859	7.46
676.89	-4.54
676.92	10.46
676.951	31.46
676.982	7.46
677.013	-5.54
677.044	10.46
677.074	5.46
677.105	-1.54
677.136	-5.54
677.167	0.46
677.197	15.46
677.228	0.46
677.259	-1.54
677.289	-11.54
677.32	-24.54
677.351	-6.54
677.382	0.46
677.412	-3.54
677.443	6.46
677.474	-1.54
677.505	-2.54
677.535	11.46
677.566	8.46
677.597	-2.54
677.627	-9.54
677.658	-14.54
677.689	-11.54
677.72	3.46
677.75	-0.54
677.781	-3.54
677.812	4.46
677.842	16.46
677.873	14.46
677.904	1.46
677.934	-0.54
677.965	-5.54
677.996	-10.54
678.026	8.46
678.057	6.46
678.088	-13.54
678.118	-3.54
678.149	-9.54
678.18	3.46
678.21	6.46
678.241	9.46
678.272	-21.54
678.302	-11.54
678.333	2.46
678.363	13.46
678.394	-4.54
678.425	-12.54
678.455	-2.54
678.486	8.46
678.517	-10.54
678.547	1.46
678.578	8.46
678.608	-8.54
678.639	19.46
678.67	8.46
678.7	-1.54
678.731	0.46
678.761	5.46
678.792	3.46
678.823	16.46
678.853	6.46
678.884	-6.54
678.914	2.46
678.945	8.46
678.975	5.46
679.006	-1.54
679.037	-2.54
679.067	25.46
679.098	9.46
679.128	-3.54
679.159	4.46
679.189	15.46
679.22	-12.54
679.25	0.46
679.281	-2.54
679.312	-7.54
679.342	5.46
679.373	23.46
679.403	14.46
679.434	1.46
679.464	1.46
679.495	13.46
679.525	-8.54
679.556	1.46
679.586	-2.54
679.617	7.46
679.647	3.46
679.678	16.46
679.708	-1.54
679.739	-0.54
679.769	1.46
679.8	-7.54
679.83	-1.54
679.861	11.46
679.891	5.46
679.922	-17.54
679.952	-3.54
679.983	-0.54
680.013	15.46
680.044	-2.54
680.074	-3.54
680.105	18.46
680.135	-2.54
680.165	6.46
680.196	18.46
680.226	1.46
680.257	8.46
680.287	3.46
680.318	-7.54
680.348	-3.54
680.379	14.46
680.409	8.46
680.439	6.46
680.47	3.46
680.5	-6.54
680.531	14.46
680.561	18.46
680.592	19.46
680.622	12.46
680.652	2.46
680.683	17.46
680.713	17.46
680.744	-2.54
680.774	-19.54
680.804	14.46
680.835	-0.54
680.865	-10.54
680.896	10.46
680.926	7.46
680.956	-1.54
680.987	1.46
681.017	-1.54
681.047	11.46
681.078	8.46
681.108	-3.54
681.139	0.46
681.169	-9.54
681.199	9.46
681.23	7.46
681.26	-0.54
681.29	2.46
681.321	0.46
681.351	10.46
681.381	-5.54
681.412	17.46
681.442	4.46
681.472	13.46
681.503	2.46
681.533	-1.54
681.563	0.46
681.594	-11.54
681.624	6.46
681.654	3.46
681.685	5.46
681.715	17.46
681.745	21.46
681.775	1.46
681.806	-10.54
681.836	-7.54
681.866	-5.54
681.897	-0.54
681.927	-4.54
681.957	-21.54
681.987	4.46
682.018	8.46
682.048	6.46
682.078	3.46
682.109	35.46
682.139	19.46
682.169	-1.54
682.199	-8.54
682.23	-11.54
682.26	-0.54
682.29	7.46
682.32	14.46
682.351	-3.54
682.381	-2.54
682.411	-11.54
682.441	-4.54
682.472	-7.54
682.502	2.46
682.532	4.46
682.562	2.46
682.592	2.46
682.623	14.46
682.653	10.46
682.683	-22.54
682.713	7.46
682.743	2.46
682.774	-3.54
682.804	-1.54
682.834	5.46
682.864	0.46
682.894	-9.54
682.925	-0.54
682.955	4.46
682.985	10.46
683.015	7.46
683.045	3.46
683.076	-15.54
683.106	5.46
683.136	-6.54
683.166	-4.54
683.196	-11.54
683.226	-14.54
683.257	14.46
683.287	-3.54
683.317	-5.54
683.347	-8.54
683.377	-6.54
683.407	6.46
683.437	4.46
683.468	4.46
683.498	0.46
683.528	-3.54
683.558	-1.54
683.588	-14.54
683.618	-0.54
683.648	-5.54
683.678	10.46
683.708	13.46
683.739	7.46
683.769	6.46
683.799	8.46
683.829	6.46
683.859	6.46
683.889	-10.54
683.919	3.46
683.949	17.46
683.979	-8.54
684.009	1.46
684.039	-2.54
684.07	-22.54
684.1	36.46
684.13	10.46
684.16	3.46
684.19	7.46
684.22	-5.54
684.25	10.46
684.28	-1.54
684.31	7.46
684.34	23.46
684.37	6.46
684.4	-0.54
684.43	-4.54
684.46	-10.54
684.49	1.46
684.52	5.46
684.55	7.46
684.58	-1.54
684.61	3.46
684.64	7.46
684.67	11.46
684.7	-6.54
684.73	1.46
684.76	-0.54
684.79	17.46
684.82	-2.54
684.85	-0.54
684.88	22.46
684.91	3.46
684.94	-4.54
684.97	-16.54
685	-10.54
685.03	5.46
685.06	-3.54
685.09	-5.54
685.12	35.46
685.15	-0.54
685.18	4.46
685.21	5.46
685.24	6.46
685.27	16.46
685.3	6.46
685.33	10.46
685.36	-6.54
685.39	4.46
685.42	-11.54
685.45	4.46
685.48	13.46
685.51	-1.54
685.54	24.46
685.569	21.46
685.599	17.46
685.629	8.46
685.659	-0.54
685.689	-7.54
685.719	-2.54
685.749	1.46
685.779	9.46
685.809	24.46
685.839	10.46
685.869	0.46
685.898	15.46
685.928	3.46
685.958	1.46
685.988	8.46
686.018	19.46
686.048	14.46
686.078	14.46
686.108	8.46
686.137	-4.54
686.167	11.46
686.197	-1.54
686.227	10.46
686.257	23.46
686.287	-4.54
686.317	1.46
686.346	0.46
686.376	-9.54
686.406	-7.54
686.436	17.46
686.466	-7.54
686.496	20.46
686.525	8.46
686.555	-0.54
686.585	-4.54
686.615	11.46
686.645	17.46
686.675	4.46
686.704	10.46
686.734	-9.54
686.764	-3.54
686.794	2.46
686.824	15.46
686.853	-4.54
686.883	12.46
686.913	15.46
686.943	-3.54
686.973	-9.54
687.002	12.46
687.032	17.46
687.062	6.46
687.092	8.46
687.121	-1.54
687.151	5.46
687.181	-6.54
687.211	19.46
687.24	-14.54
687.27	-0.54
687.3	1.46
687.33	3.46
687.359	5.46
687.389	2.46
687.419	9.46
687.449	-5.54
687.478	-8.54
687.508	4.46
687.538	7.46
687.568	6.46
687.597	-7.54
687.627	12.46
687.657	7.46
687.686	13.46
687.716	20.46
687.746	-5.54
687.776	-13.54
687.805	5.46
687.835	-0.54
687.865	15.46
687.894	12.46
687.924	1.46
687.954	-5.54
687.983	7.46
688.013	5.46
688.043	5.46
688.072	2.46
688.102	3.46
688.132	-1.54
688.161	-9.54
688.191	-4.54
688.221	3.46
688.25	-11.54
688.28	-19.54
688.31	-12.54
688.339	6.46
688.369	-2.54
688.399	-8.54
688.428	5.46
688.458	2.46
688.488	-7.54
688.517	21.46
688.547	-1.54
688.576	24.46
688.606	21.46
688.636	-8.54
688.665	-0.54
688.695	6.46
688.725	4.46
688.754	8.46
688.784	4.46
688.813	16.46
688.843	-22.54
688.873	-11.54
688.902	1.46
688.932	-5.54
688.961	7.46
688.991	24.46
689.02	21.46
689.05	-16.54
689.08	18.46
689.109	28.46
689.139	6.46
689.168	-6.54
689.198	8.46
689.227	-4.54
689.257	2.46
689.287	18.46
689.316	7.46
689.346	3.46
689.375	3.46
689.405	8.46
689.434	-5.54
689.464	14.46
689.493	6.46
689.523	-0.54
689.552	9.46
689.582	9.46
689.611	-9.54
689.641	16.46
689.67	0.46
689.7	9.46
689.73	10.46
689.759	10.46
689.789	30.46
689.818	-6.54
689.848	4.46
689.877	17.46
689.906	-13.54
689.936	-14.54
689.965	8.46
689.995	-0.54
690.024	0.46
690.054	-6.54
690.083	-2.54
690.113	-8.54
690.142	-2.54
690.172	0.46
690.201	1.46
690.231	-1.54
690.26	8.46
690.29	10.46
690.319	6.46
690.348	5.46
690.378	-4.54
690.407	-4.54
690.437	8.46
690.466	-0.54
690.496	1.46
690.525	17.46
690.555	2.46
690.584	-8.54
690.613	7.46
690.643	26.46
690.672	33.46
690.702	4.46
690.731	8.46
690.76	13.46
690.79	-1.54
690.819	-0.54
690.849	-10.54
690.878	1.46
690.907	10.46
690.937	8.46
690.966	13.46
690.996	15.46
691.025	13.46
691.054	10.46
691.084	-2.54
691.113	11.46
691.142	-0.54
691.172	11.46
691.201	23.46
691.23	10.46
691.26	12.46
691.289	15.46
691.319	4.46
691.348	8.46
691.377	12.46
691.407	15.46
691.436	21.46
691.465	18.46
691.495	5.46
691.524	-13.54
691.553	7.46
691.583	9.46
691.612	27.46
691.641	-3.54
691.67	3.46
691.7	-5.54
691.729	-8.54
691.758	5.46
691.788	1.46
691.817	-1.54
691.846	2.46
691.876	7.46
691.905	9.46
691.934	-5.54
691.963	29.46
691.993	11.46
692.022	8.46
692.051	-12.54
692.081	19.46
692.11	22.46
692.139	15.46
692.168	15.46
692.198	14.46
692.227	10.46
692.256	-0.54
692.285	2.46
692.315	-4.54
692.344	16.46
692.373	6.46
692.402	-11.54
692.432	7.46
692.461	10.46
692.49	2.46
692.519	-8.54
692.548	17.46
692.578	13.46
692.607	5.46
692.636	-3.54
692.665	4.46
692.694	-3.54
692.724	2.46
692.753	11.46
692.782	-2.54
692.811	-5.54
692.84	1.46
692.87	-5.54
692.899	1.46
692.928	-3.54
692.957	4.46
692.986	8.46
693.016	8.46
693.045	5.46
693.074	7.46
693.103	-13.54
693.132	10.46
693.161	16.46
693.191	-2.54
693.22	1.46
693.249	8.46
693.278	5.46
693.307	10.46
693.336	2.46
693.365	-22.54
693.395	-2.54
693.424	7.46
693.453	30.46
693.482	-8.54
693.511	-6.54
693.54	10.46
693.569	14.46
693.598	29.46
693.628	12.46
693.657	19.46
693.686	19.46
693.715	28.46
693.744	36.46
693.773	27.46
693.802	-7.54
693.831	12.46
693.86	33.46
693.889	5.46
693.919	0.46
693.948	-10.54
693.977	9.46
694.006	14.46
694.035	4.46
694.064	0.46
694.093	-11.54
694.122	0.46
694.151	0.46
694.18	5.46
694.209	21.46
694.238	14.46
694.267	41.46
694.296	20.46
694.325	9.46
694.354	12.46
694.383	28.46
694.412	12.46
694.441	-9.54
694.471	4.46
694.5	-5.54
694.529	14.46
694.558	6.46
694.587	18.46
694.616	7.46
694.645	11.46
694.674	25.46
694.703	18.46
694.732	-0.54
694.761	24.46
694.79	13.46
694.819	-2.54
694.848	3.46
694.877	31.46
694.906	27.46
694.935	7.46
694.963	28.46
694.992	13.46
695.021	8.46
695.05	20.46
695.079	5.46
695.108	4.46
695.137	13.46
695.166	8.46
695.195	-2.54
695.224	33.46
695.253	6.46
695.282	1.46
695.311	18.46
695.34	4.46
695.369	15.46
695.398	5.46
695.427	11.46
695.456	0.46
695.485	8.46
695.513	-7.54
695.542	1.46
695.571	3.46
695.6	18.46
695.629	16.46
695.658	0.46
695.687	24.46
695.716	5.46
695.745	33.46
695.774	-11.54
695.802	-0.54
695.831	8.46
695.86	7.46
695.889	16.46
695.918	18.46
695.947	-0.54
695.976	2.46
696.005	7.46
696.033	11.46
696.062	25.46
696.091	5.46
696.12	-2.54
696.149	38.46
696.178	7.46
696.207	8.46
696.235	6.46
696.264	15.46
696.293	28.46
696.322	27.46
696.351	18.46
696.38	4.46
696.408	15.46
696.437	2.46
696.466	4.46
696.495	12.46
696.524	14.46
696.553	13.46
696.581	14.46
696.61	3.46
696.639	-8.54
696.668	5.46
696.697	10.46
696.725	18.46
696.754	5.46
696.783	6.46
696.812	-9.54
696.84	5.46
696.869	13.46
696.898	-4.54
696.927	5.46
696.956	18.46
696.984	-6.54
697.013	6.46
697.042	2.46
697.071	-3.54
697.099	9.46
697.128	5.46
697.157	12.46
697.186	3.46
697.214	5.46
697.243	9.46
697.272	3.46
697.301	9.46
697.329	15.46
697.358	17.46
697.387	36.46
697.415	14.46
697.444	12.46
697.473	10.46
697.502	9.46
697.53	12.46
697.559	-3.54
697.588	13.46
697.616	3.46
697.645	6.46
697.674	15.46
697.703	1.46
697.731	8.46
697.76	3.46
697.789	10.46
697.817	12.46
697.846	18.46
697.875	5.46
697.903	12.46
697.932	13.46
697.961	15.46
697.989	19.46
698.018	4.46
698.047	-8.54
698.075	9.46
698.104	4.46
698.133	6.46
698.161	6.46
698.19	1.46
698.218	3.46
698.247	16.46
698.276	6.46
698.304	10.46
698.333	11.46
698.362	-2.54
698.39	10.46
698.419	2.46
698.447	-5.54
698.476	2.46
698.505	21.46
698.533	9.46
698.562	-4.54
698.591	1.46
698.619	-1.54
698.648	5.46
698.676	16.46
698.705	9.46
698.733	-16.54
698.762	-8.54
698.791	-1.54
698.819	5.46
698.848	1.46
698.876	3.46
698.905	11.46
698.933	21.46
698.962	13.46
698.991	2.46
699.019	16.46
699.048	8.46
699.076	15.46
699.105	-6.54
699.133	-0.54
699.162	7.46
699.19	26.46
699.219	15.46
699.248	16.46
699.276	-3.54
699.305	14.46
699.333	6.46
699.362	-0.54
699.39	5.46
699.419	-8.54
699.447	14.46
699.476	15.46
699.504	2.46
699.533	6.46
699.561	-7.54
699.59	-2.54
699.618	2.46
699.647	2.46
699.675	10.46
699.704	9.46
699.732	12.46
699.761	5.46
699.789	-3.54
699.818	4.46
699.846	-4.54
699.874	2.46
699.903	2.46
699.931	-1.54
699.96	-5.54
699.988	19.46
700.017	-0.54
700.045	-5.54
700.074	-2.54
700.102	4.46
700.13	-11.54
700.159	4.46
700.187	21.46
700.216	0.46
700.244	9.46
700.273	16.46
700.301	15.46
700.329	29.46
700.358	18.46
700.386	-5.54
700.415	1.46
700.443	11.46
700.472	18.46
700.5	17.46
700.528	9.46
700.557	15.46
700.585	0.46
700.614	-13.54
700.642	4.46
700.67	21.46
700.699	9.46
700.727	5.46
700.755	7.46
700.784	12.46
700.812	-2.54
700.841	12.46
700.869	-13.54
700.897	-4.54
700.926	-3.54
700.954	18.46
700.982	14.46
701.011	0.46
701.039	7.46
701.067	9.46
701.096	6.46
701.124	-7.54
701.152	-10.54
701.181	1.46
701.209	1.46
701.237	5.46
701.266	-1.54
701.294	0.46
701.322	17.46
701.351	-5.54
701.379	9.46
701.407	-7.54
701.435	1.46
701.464	1.46
701.492	30.46
701.52	-4.54
701.549	11.46
701.577	15.46
701.605	13.46
701.634	3.46
701.662	10.46
701.69	5.46
701.718	-6.54
701.747	7.46
701.775	10.46
701.803	4.46
701.831	10.46
701.86	-0.54
701.888	13.46
701.916	8.46
701.944	3.46
701.973	2.46
702.001	-2.54
702.029	1.46
702.057	-0.54
702.086	1.46
702.114	4.46
702.142	3.46
702.17	-5.54
702.199	7.46
702.227	0.46
702.255	-6.54
702.283	-2.54
702.311	8.46
702.34	3.46
702.368	-7.54
702.396	-3.54
702.424	-0.54
702.452	-3.54
702.481	-0.54
702.509	-6.54
702.537	13.46
702.565	-1.54
702.593	-17.54
702.621	-0.54
702.65	18.46
702.678	5.46
702.706	7.46
702.734	16.46
702.762	7.46
702.79	11.46
702.819	10.46
702.847	-0.54
702.875	10.46
702.903	6.46
702.931	-0.54
702.959	18.46
702.988	15.46
703.016	-4.54
703.044	12.46
703.072	8.46
703.1	-6.54
703.128	-13.54
703.156	6.46
703.184	-6.54
703.212	-3.54
703.241	6.46
703.269	-5.54
703.297	10.46
703.325	14.46
703.353	-0.54
703.381	5.46
703.409	6.46
703.437	-1.54
703.465	2.46
703.493	-4.54
703.522	0.46
703.55	9.46
703.578	10.46
703.606	7.46
703.634	10.46
703.662	0.46
703.69	10.46
703.718	17.46
703.746	21.46
703.774	5.46
703.802	12.46
703.83	-0.54
703.858	5.46
703.886	-2.54
703.914	-1.54
703.942	2.46
703.97	-1.54
703.998	12.46
704.027	22.46
704.055	21.46
704.083	16.46
704.111	-18.54
704.139	6.46
704.167	-5.54
704.195	-12.54
704.223	-10.54
704.251	-25.54
704.279	8.46
704.307	8.46
704.335	-6.54
704.363	13.46
704.391	0.46
704.419	-5.54
704.447	8.46
704.475	-3.54
704.503	6.46
704.531	28.46
704.558	18.46
704.586	0.46
704.614	-8.54
704.642	3.46
704.67	-14.54
704.698	-3.54
704.726	7.46
704.754	14.46
704.782	-1.54
704.81	1.46
704.838	29.46
704.866	13.46
704.894	-10.54
704.922	-3.54
704.95	14.46
704.978	18.46
705.006	13.46
705.034	14.46
705.061	-0.54
705.089	9.46
705.117	-4.54
705.145	3.46
705.173	-9.54
705.201	3.46
705.229	6.46
705.257	24.46
705.285	1.46
705.313	5.46
705.34	7.46
705.368	-8.54
705.396	-4.54
705.424	3.46
705.452	-7.54
705.48	-4.54
705.508	11.46
705.536	-10.54
705.563	3.46
705.591	6.46
705.619	5.46
705.647	-5.54
705.675	-2.54
705.703	13.46
705.731	-3.54
705.758	-5.54
705.786	11.46
705.814	7.46
705.842	2.46
705.87	12.46
705.898	6.46
705.925	-8.54
705.953	10.46
705.981	-2.54
706.009	1.46
706.037	1.46
706.065	5.46
706.092	-1.54
706.12	4.46
706.148	-7.54
706.176	-5.54
706.204	12.46
706.231	-14.54
706.259	-10.54
706.287	0.46
706.315	19.46
706.342	11.46
706.37	4.46
706.398	12.46
706.426	5.46
706.454	14.46
706.481	17.46
706.509	10.46
706.537	-7.54
706.565	7.46
706.592	7.46
706.62	-2.54
706.648	15.46
706.676	4.46
706.703	3.46
706.731	1.46
706.759	-9.54
706.787	-0.54
706.814	-1.54
706.842	-4.54
706.87	-0.54
706.897	2.46
706.925	1.46
706.953	15.46
706.981	18.46
707.008	3.46
707.036	-0.54
707.064	-9.54
707.091	-20.54
707.119	19.46
707.147	6.46
707.174	-2.54
707.202	7.46
707.23	-5.54
707.258	12.46
707.285	-9.54
707.313	-14.54
707.341	-3.54
707.368	2.46
707.396	-6.54
707.424	5.46
707.451	2.46
707.479	15.46
707.507	10.46
707.534	3.46
707.562	3.46
707.59	-7.54
707.617	-0.54
707.645	-13.54
707.672	-1.54
707.7	8.46
707.728	6.46
707.755	22.46
707.783	7.46
707.811	13.46
707.838	-5.54
707.866	10.46
707.893	13.46
707.921	-7.54
707.949	2.46
707.976	2.46
708.004	4.46
708.031	-5.54
708.059	-9.54
708.087	5.46
708.114	-5.54
708.142	-7.54
708.169	-5.54
708.197	-6.54
708.225	0.46
708.252	-12.54
708.28	-1.54
708.307	2.46
708.335	5.46
708.362	-2.54
708.39	1.46
708.418	3.46
708.445	-5.54
708.473	-1.54
708.5	2.46
708.528	11.46
708.555	-1.54
708.583	3.46
708.61	-5.54
708.638	15.46
708.665	-12.54
708.693	8.46
708.72	10.46
708.748	11.46
708.776	0.46
708.803	22.46
708.831	14.46
708.858	4.46
708.886	4.46
708.913	14.46
708.941	-3.54
708.968	19.46
708.996	11.46
709.023	17.46
709.051	0.46
709.078	10.46
709.105	11.46
709.133	14.46
709.16	-0.54
709.188	15.46
709.215	18.46
709.243	1.46
709.27	-10.54
709.298	2.46
709.325	6.46
709.353	1.46
709.38	12.46
709.408	10.46
709.435	5.46
709.462	-7.54
709.49	4.46
709.517	-1.54
709.545	4.46
709.572	6.46
709.6	5.46
709.627	11.46
709.655	14.46
709.682	-0.54
709.709	10.46
709.737	-23.54
709.764	-3.54
709.792	22.46
709.819	0.46
709.846	0.46
709.874	10.46
709.901	1.46
709.929	1.46
709.956	4.46
709.983	-13.54
710.011	-6.54
710.038	-3.54
710.066	2.46
710.093	11.46
710.12	14.46
710.148	7.46
710.175	-1.54
710.202	-8.54
710.23	-7.54
710.257	4.46
710.284	17.46
710.312	13.46
710.339	16.46
710.366	6.46
710.394	5.46
710.421	3.46
710.448	1.46
710.476	-11.54
710.503	-0.54
710.53	5.46
710.558	16.46
710.585	16.46
710.612	-5.54
710.64	-1.54
710.667	3.46
710.694	-14.54
710.722	6.46
710.749	10.46
710.776	5.46
710.804	20.46
710.831	-9.54
710.858	9.46
710.885	7.46
710.913	4.46
710.94	29.46
710.967	2.46
710.995	6.46
711.022	13.46
711.049	4.46
711.076	-9.54
711.104	-0.54
711.131	-8.54
711.158	-12.54
711.185	11.46
711.213	-0.54
711.24	-22.54
711.267	-5.54
711.294	2.46
711.322	3.46
711.349	5.46
711.376	-8.54
711.403	-6.54
711.431	-21.54
711.458	-1.54
711.485	13.46
711.512	1.46
711.54	1.46
711.567	0.46
711.594	4.46
711.621	-10.54
711.648	19.46
711.676	2.46
711.703	1.46
711.73	-2.54
711.757	-0.54
711.784	-0.54
711.812	5.46
711.839	11.46
711.866	-7.54
711.893	-18.54
711.92	-2.54
711.947	3.46
711.975	12.46
712.002	-2.54
712.029	9.46
712.056	6.46
712.083	9.46
712.11	-9.54
712.138	9.46
712.165	7.46
712.192	6.46
712.219	-9.54
712.246	-3.54
712.273	-9.54
712.3	-13.54
712.328	1.46
712.355	-1.54
712.382	-1.54
712.409	22.46
712.436	-12.54
712.463	6.46
712.49	8.46
712.517	3.46
712.544	4.46
712.572	6.46
712.599	-12.54
712.626	3.46
712.653	-11.54
712.68	-8.54
712.707	8.46
712.734	6.46
712.761	17.46
712.788	0.46
712.815	20.46
712.842	9.46
712.87	1.46
712.897	-21.54
712.924	-12.54
712.951	-2.54
712.978	-0.54
713.005	10.46
713.032	4.46
713.059	14.46
713.086	2.46
713.113	-1.54
713.14	1.46
713.167	3.46
713.194	11.46
713.221	-2.54
713.248	11.46
713.275	-2.54
713.302	-4.54
713.329	6.46
713.356	8.46
713.383	-0.54
713.41	11.46
713.437	2.46
713.464	-12.54
713.491	6.46
713.518	-1.54
713.545	-1.54
713.572	-3.54
713.599	17.46
713.626	1.46
713.653	9.46
713.68	4.46
713.707	-7.54
713.734	21.46
713.761	6.46
713.788	10.46
713.815	7.46
713.842	13.46
713.869	2.46
713.896	-3.54
713.923	6.46
713.95	10.46
713.977	-12.54
714.004	7.46
714.031	7.46
714.058	2.46
714.085	2.46
714.112	10.46
714.139	-2.54
714.165	-2.54
714.192	5.46
714.219	16.46
714.246	3.46
714.273	11.46
714.3	11.46
714.327	11.46
714.354	2.46
714.381	2.46
714.408	6.46
714.435	-4.54
714.461	5.46
714.488	19.46
714.515	-2.54
714.542	-6.54
714.569	-10.54
714.596	-20.54
714.623	-16.54
714.65	-19.54
714.677	-6.54
714.703	22.46
714.73	1.46
714.757	30.46
714.784	7.46
714.811	5.46
714.838	7.46
714.865	-4.54
714.891	10.46
714.918	-1.54
714.945	4.46
714.972	-0.54
714.999	7.46
715.026	-7.54
715.052	6.46
715.079	9.46
715.106	18.46
715.133	11.46
715.16	-12.54
715.187	2.46
715.213	11.46
715.24	0.46
715.267	16.46
715.294	-1.54
715.321	2.46
715.347	-4.54
715.374	0.46
715.401	9.46
715.428	1.46
715.455	7.46
715.481	-12.54
715.508	6.46
715.535	2.46
715.562	22.46
715.588	5.46
715.615	-10.54
715.642	0.46
715.669	6.46
715.695	1.46
715.722	2.46
715.749	-5.54
715.776	7.46
715.802	2.46
715.829	3.46
715.856	-9.54
715.883	10.46
715.909	3.46
715.936	6.46
715.963	13.46
715.99	-3.54
716.016	7.46
716.043	9.46
716.07	-2.54
716.096	-0.54
716.123	2.46
716.15	5.46
716.177	-1.54
716.203	-6.54
716.23	11.46
716.257	2.46
716.283	-0.54
716.31	-12.54
716.337	1.46
716.363	-1.54
716.39	-0.54
716.417	15.46
716.443	-1.54
716.47	19.46
716.497	31.46
716.523	25.46
716.55	1.46
716.577	9.46
716.603	7.46
716.63	4.46
716.657	-3.54
716.683	-14.54
716.71	-9.54
716.737	7.46
716.763	3.46
716.79	2.46
716.817	8.46
716.843	8.46
716.87	0.46
716.897	-1.54
716.923	20.46
716.95	2.46
716.976	-1.54
717.003	1.46
717.03	5.46
717.056	3.46
717.083	-3.54
717.109	19.46
717.136	23.46
717.163	5.46
717.189	6.46
717.216	6.46
717.242	1.46
717.269	1.46
717.296	16.46
717.322	10.46
717.349	18.46
717.375	8.46
717.402	-4.54
717.428	4.46
717.455	21.46
717.481	1.46
717.508	23.46
717.535	9.46
717.561	-3.54
717.588	-3.54
717.614	2.46
717.641	1.46
717.667	-0.54
717.694	-8.54
717.72	11.46
717.747	1.46
717.773	-5.54
717.8	6.46
717.826	12.46
717.853	11.46
717.88	16.46
717.906	10.46
717.933	5.46
717.959	-1.54
717.986	-7.54
718.012	-0.54
718.039	13.46
718.065	22.46
718.092	10.46
718.118	-9.54
718.144	-1.54
718.171	11.46
718.197	5.46
718.224	19.46
718.25	0.46
718.277	1.46
718.303	-7.54
718.33	4.46
718.356	-6.54
718.383	-17.54
718.409	8.46
718.436	1.46
718.462	-11.54
718.489	4.46
718.515	5.46
718.541	23.46
718.568	15.46
718.594	1.46
718.621	-1.54
718.647	5.46
718.674	17.46
718.7	18.46
718.726	-9.54
718.753	-1.54
718.779	11.46
718.806	5.46
718.832	1.46
718.858	-5.54
718.885	5.46
718.911	9.46
718.938	21.46
718.964	-4.54
718.99	15.46
719.017	-5.54
719.043	1.46
719.07	2.46
719.096	6.46
719.122	17.46
719.149	-0.54
719.175	-2.54
719.201	6.46
719.228	1.46
719.254	-0.54
719.281	3.46
719.307	-4.54
719.333	10.46
719.36	17.46
719.386	2.46
719.412	-10.54
719.439	-11.54
719.465	9.46
719.491	-6.54
719.518	-5.54
719.544	5.46
719.57	19.46
719.597	9.46
719.623	12.46
719.649	18.46
719.675	0.46
719.702	7.46
719.728	6.46
719.754	8.46
719.781	-4.54
719.807	-9.54
719.833	-10.54
719.86	-2.54
719.886	-0.54
719.912	3.46
719.938	-1.54
719.965	0.46
719.991	-4.54
720.017	-3.54
720.044	-3.54
720.07	-10.54
720.096	3.46
720.122	9.46
720.149	8.46
720.175	8.46
720.201	-6.54
720.227	-6.54
720.254	-3.54
720.28	8.46
720.306	-2.54
720.332	8.46
720.359	7.46
720.385	4.46
720.411	1.46
720.437	5.46
720.463	-6.54
720.49	-7.54
720.516	-0.54
720.542	-5.54
720.568	6.46
720.595	5.46
720.621	7.46
720.647	20.46
720.673	13.46
720.699	-7.54
720.725	5.46
720.752	3.46
720.778	15.46
720.804	3.46
720.83	20.46
720.856	7.46
720.883	6.46
720.909	1.46
720.935	2.46
720.961	13.46
720.987	4.46
721.013	9.46
721.04	-6.54
721.066	-1.54
721.092	-1.54
721.118	-3.54
721.144	1.46
721.17	-6.54
721.196	-11.54
721.223	-2.54
721.249	1.46
721.275	12.46
721.301	-9.54
721.327	24.46
721.353	14.46
721.379	0.46
721.405	16.46
721.432	11.46
721.458	-1.54
721.484	-2.54
721.51	13.46
721.536	18.46
721.562	4.46
721.588	3.46
721.614	8.46
721.64	7.46
721.666	7.46
721.693	1.46
721.719	-4.54
721.745	-4.54
721.771	-6.54
721.797	-6.54
721.823	7.46
721.849	4.46
721.875	6.46
721.901	23.46
721.927	6.46
721.953	7.46
721.979	2.46
722.005	9.46
722.031	-11.54
722.057	6.46
722.083	3.46
722.109	5.46
722.135	10.46
722.161	-2.54
722.187	5.46
722.214	-0.54
722.24	-0.54
722.266	0.46
722.292	24.46
722.318	24.46
722.344	6.46
722.37	4.46
722.396	-5.54
722.422	-13.54
722.448	9.46
722.474	-0.54
722.5	1.46
722.526	0.46
722.552	-1.54
722.578	11.46
722.603	11.46
722.629	-7.54
722.655	9.46
722.681	-14.54
722.707	6.46
722.733	2.46
722.759	-4.54
722.785	3.46
722.811	3.46
722.837	7.46
722.863	15.46
722.889	12.46
722.915	2.46
722.941	0.46
722.967	-2.54
722.993	6.46
723.019	-0.54
723.045	3.46
723.071	2.46
723.097	7.46
723.122	12.46
723.148	9.46
723.174	-2.54
723.2	2.46
723.226	6.46
723.252	11.46
723.278	3.46
723.304	-0.54
723.33	9.46
723.356	-7.54
723.381	-12.54
723.407	-22.54
723.433	14.46
723.459	-0.54
723.485	6.46
723.511	12.46
723.537	3.46
723.563	1.46
723.588	14.46
723.614	16.46
723.64	2.46
723.666	6.46
723.692	12.46
723.718	15.46
723.744	10.46
723.769	1.46
723.795	-18.54
723.821	5.46
723.847	-5.54
723.873	1.46
723.899	-3.54
723.924	13.46
723.95	8.46
723.976	-10.54
724.002	13.46
724.028	3.46
724.053	1.46
724.079	7.46
724.105	1.46
724.131	-11.54
724.157	3.46
724.182	11.46
724.208	-1.54
724.234	7.46
724.26	0.46
724.286	13.46
724.311	2.46
724.337	-4.54
724.363	-10.54
724.389	6.46
724.415	-12.54
724.44	9.46
724.466	-0.54
724.492	1.46
724.518	9.46
724.543	-2.54
724.569	0.46
724.595	10.46
724.621	5.46
724.646	3.46
724.672	2.46
724.698	9.46
724.723	-6.54
724.749	-1.54
724.775	10.46
724.801	14.46
724.826	-5.54
724.852	1.46
724.878	1.46
724.904	-17.54
724.929	9.46
724.955	-0.54
724.981	2.46
725.006	12.46
725.032	0.46
725.058	4.46
725.083	4.46
725.109	2.46
725.135	16.46
725.161	7.46
725.186	13.46
725.212	4.46
725.238	23.46
725.263	-0.54
725.289	3.46
725.315	-2.54
725.34	-17.54
725.366	9.46
725.392	0.46
725.417	-3.54
725.443	1.46
725.468	15.46
725.494	10.46
725.52	22.46
725.545	1.46
725.571	6.46
725.597	1.46
725.622	15.46
725.648	13.46
725.674	7.46
725.699	4.46
725.725	-0.54
725.75	42.46
725.776	9.46
725.802	11.46
725.827	10.46
725.853	-2.54
725.878	5.46
725.904	-0.54
725.93	4.46
725.955	-5.54
725.981	-1.54
726.006	6.46
726.032	9.46
726.057	-4.54
726.083	10.46
726.109	4.46
726.134	1.46
726.16	1.46
726.185	4.46
726.211	4.46
726.236	15.46
726.262	6.46
726.288	7.46
726.313	6.46
726.339	8.46
726.364	28.46
726.39	10.46
726.415	-2.54
726.441	2.46
726.466	-1.54
726.492	9.46
726.517	-1.54
726.543	-4.54
726.568	7.46
726.594	14.46
726.619	3.46
726.645	10.46
726.67	1.46
726.696	7.46
726.721	2.46
726.747	-23.54
726.772	-1.54
726.798	1.46
726.823	10.46
726.849	3.46
726.874	21.46
726.9	25.46
726.925	18.46
726.951	9.46
726.976	-1.54
727.002	1.46
727.027	20.46
727.053	13.46
727.078	8.46
727.104	7.46
727.129	-2.54
727.155	6.46
727.18	1.46
727.205	10.46
727.231	18.46
727.256	7.46
727.282	27.46
727.307	11.46
727.333	-0.54
727.358	-0.54
727.383	-0.54
727.409	9.46
727.434	21.46
727.46	-2.54
727.485	-6.54
727.511	4.46
727.536	-10.54
727.561	-3.54
727.587	10.46
727.612	-4.54
727.637	13.46
727.663	-11.54
727.688	15.46
727.714	0.46
727.739	-4.54
727.764	6.46
727.79	10.46
727.815	16.46
727.841	8.46
727.866	4.46
727.891	15.46
727.917	-13.54
727.942	14.46
727.967	5.46
727.993	-15.54
728.018	-5.54
728.043	6.46
728.069	7.46
728.094	16.46
728.119	5.46
728.145	2.46
728.17	4.46
728.195	2.46
728.221	13.46
728.246	-6.54
728.271	-4.54
728.297	-1.54
728.322	0.46
728.347	15.46
728.373	20.46
728.398	2.46
728.423	-6.54
728.448	7.46
728.474	-9.54
728.499	16.46
728.524	-4.54
728.55	-5.54
728.575	-1.54
728.6	3.46
728.625	11.46
728.651	4.46
728.676	10.46
728.701	3.46
728.727	-6.54
728.752	-0.54
728.777	-5.54
728.802	5.46
728.828	7.46
728.853	2.46
728.878	1.46
728.903	-0.54
728.929	-3.54
728.954	-8.54
728.979	-1.54
729.004	-2.54
729.03	-10.54
729.055	8.46
729.08	-8.54
729.105	-1.54
729.13	14.46
729.156	9.46
729.181	3.46
729.206	-7.54
729.231	20.46
729.256	-1.54
729.282	0.46
729.307	-13.54
729.332	-12.54
729.357	-8.54
729.382	4.46
729.408	-3.54
729.433	-1.54
729.458	-0.54
729.483	19.46
729.508	12.46
729.533	21.46
729.559	5.46
729.584	-5.54
729.609	-3.54
729.634	0.46
729.659	-4.54
729.684	-7.54
729.71	15.46
729.735	7.46
729.76	8.46
729.785	6.46
729.81	10.46
729.835	1.46
729.86	4.46
729.886	22.46
729.911	-1.54
729.936	-10.54
729.961	3.46
729.986	-4.54
730.011	6.46
730.036	10.46
730.061	7.46
730.086	4.46
730.112	2.46
730.137	6.46
730.162	6.46
730.187	-0.54
730.212	3.46
730.237	-2.54
730.262	9.46
730.287	7.46
730.312	12.46
730.337	5.46
730.362	9.46
730.387	3.46
730.413	-0.54
730.438	6.46
730.463	23.46
730.488	-8.54
730.513	-5.54
730.538	8.46
730.563	35.46
730.588	10.46
730.613	-0.54
730.638	-0.54
730.663	-12.54
730.688	9.46
730.713	6.46
730.738	3.46
730.763	-0.54
730.788	-7.54
730.813	0.46
730.838	0.46
730.863	-12.54
730.888	1.46
730.913	-12.54
730.938	-9.54
730.963	2.46
730.988	-9.54
731.013	22.46
731.038	4.46
731.063	-6.54
731.088	15.46
731.113	-11.54
731.138	-5.54
731.163	8.46
731.188	-16.54
731.213	-1.54
731.238	10.46
731.263	-19.54
731.288	-4.54
731.313	1.46
731.338	10.46
731.363	3.46
731.388	14.46
731.413	2.46
731.438	13.46
731.463	13.46
731.487	-3.54
731.512	-9.54
731.537	7.46
731.562	2.46
731.587	3.46
731.612	-7.54
731.637	3.46
731.662	-2.54
731.687	2.46
731.712	-19.54
731.737	0.46
731.762	14.46
731.786	-1.54
731.811	5.46
731.836	5.46
731.861	-4.54
731.886	-12.54
731.911	-0.54
731.936	12.46
731.961	-0.54
731.986	5.46
732.01	7.46
732.035	6.46
732.06	28.46
732.085	-1.54
732.11	-0.54
732.135	-3.54
732.16	2.46
732.184	7.46
732.209	12.46
732.234	13.46
732.259	-4.54
732.284	11.46
732.309	-9.54
732.334	2.46
732.358	-12.54
732.383	-15.54
732.408	4.46
732.433	9.46
732.458	-2.54
732.482	12.46
732.507	-10.54
732.532	6.46
732.557	23.46
732.582	15.46
732.607	-2.54
732.631	-6.54
732.656	-5.54
732.681	10.46
732.706	5.46
732.73	14.46
732.755	-2.54
732.78	-22.54
732.805	18.46
732.83	7.46
732.854	-5.54
732.879	7.46
732.904	7.46
732.929	-2.54
732.953	12.46
732.978	2.46
733.003	-6.54
733.028	-16.54
733.052	-1.54
733.077	8.46
733.102	7.46
733.127	-8.54
733.151	7.46
733.176	1.46
733.201	-2.54
733.226	-9.54
733.25	9.46
733.275	2.46
733.3	16.46
733.324	14.46
733.349	7.46
733.374	9.46
733.399	-0.54
733.423	15.46
733.448	-2.54
733.473	-6.54
733.497	-10.54
733.522	-6.54
733.547	3.46
733.571	9.46
733.596	6.46
733.621	17.46
733.646	7.46
733.67	15.46
733.695	-8.54
733.72	10.46
733.744	18.46
733.769	14.46
733.794	10.46
733.818	2.46
733.843	-6.54
733.867	-10.54
733.892	-2.54
733.917	-3.54
733.941	5.46
733.966	-5.54
733.991	-5.54
734.015	9.46
734.04	10.46
734.065	12.46
734.089	11.46
734.114	1.46
734.138	15.46
734.163	-0.54
734.188	1.46
734.212	-1.54
734.237	19.46
734.261	-5.54
734.286	1.46
734.311	-4.54
734.335	14.46
734.36	-3.54
734.384	-10.54
734.409	6.46
734.434	-13.54
734.458	4.46
734.483	-8.54
734.507	-11.54
734.532	-0.54
734.556	5.46
734.581	2.46
734.606	3.46
734.63	-9.54
734.655	12.46
734.679	-2.54
734.704	7.46
734.728	3.46
734.753	-0.54
734.777	12.46
734.802	8.46
734.826	-7.54
734.851	4.46
734.876	17.46
734.9	12.46
734.925	16.46
734.949	5.46
734.974	0.46
734.998	11.46
735.023	1.46
735.047	-9.54
735.072	7.46
735.096	-4.54
735.121	1.46
735.145	5.46
735.17	-3.54
735.194	-2.54
735.219	-11.54
735.243	6.46
735.268	12.46
735.292	8.46
735.317	-6.54
735.341	-1.54
735.365	-16.54
735.39	1.46
735.414	1.46
735.439	-3.54
735.463	2.46
735.488	3.46
735.512	2.46
735.537	2.46
735.561	11.46
735.586	7.46
735.61	3.46
735.634	-3.54
735.659	5.46
735.683	31.46
735.708	1.46
735.732	-10.54
735.757	-16.54
735.781	-1.54
735.805	6.46
735.83	-3.54
735.854	1.46
735.879	12.46
735.903	14.46
735.927	5.46
735.952	5.46
735.976	-4.54
736.001	1.46
736.025	10.46
736.049	7.46
736.074	-2.54
736.098	8.46
736.123	6.46
736.147	-7.54
736.171	6.46
736.196	5.46
736.22	-12.54
736.244	3.46
736.269	14.46
736.293	17.46
736.317	8.46
736.342	8.46
736.366	20.46
736.39	9.46
736.415	8.46
736.439	6.46
736.463	19.46
736.488	13.46
736.512	3.46
736.536	5.46
736.561	30.46
736.585	-5.54
736.609	3.46
736.634	3.46
736.658	-1.54
736.682	-21.54
736.707	-14.54
736.731	-14.54
736.755	2.46
736.78	20.46
736.804	15.46
736.828	2.46
736.852	5.46
736.877	1.46
736.901	6.46
736.925	19.46
736.949	8.46
736.974	-5.54
736.998	-1.54
737.022	10.46
737.047	-5.54
737.071	1.46
737.095	10.46
737.119	26.46
737.144	15.46
737.168	-7.54
737.192	-3.54
737.216	-5.54
737.241	-2.54
737.265	-3.54
737.289	-4.54
737.313	1.46
737.337	14.46
737.362	-7.54
737.386	5.46
737.41	-0.54
737.434	0.46
737.459	-1.54
737.483	2.46
737.507	15.46
737.531	14.46
737.555	9.46
737.58	16.46
737.604	17.46
737.628	-9.54
737.652	-10.54
737.676	-5.54
737.701	7.46
737.725	11.46
737.749	15.46
737.773	5.46
737.797	3.46
737.821	7.46
737.846	-3.54
737.87	31.46
737.894	1.46
737.918	-6.54
737.942	13.46
737.966	26.46
737.99	7.46
738.015	-4.54
738.039	-0.54
738.063	-8.54
738.087	3.46
738.111	-10.54
738.135	9.46
738.159	20.46
738.184	7.46
738.208	13.46
738.232	8.46
738.256	10.46
738.28	0.46
738.304	1.46
738.328	-3.54
738.352	5.46
738.376	6.46
738.4	8.46
738.425	-2.54
738.449	-3.54
738.473	15.46
738.497	16.46
738.521	-0.54
738.545	5.46
738.569	24.46
738.593	31.46
738.617	10.46
738.641	10.46
738.665	-4.54
738.689	3.46
738.713	2.46
738.737	-0.54
738.762	17.46
738.786	17.46
738.81	-2.54
738.834	10.46
738.858	-7.54
738.882	11.46
738.906	4.46
738.93	-2.54
738.954	9.46
738.978	12.46
739.002	1.46
739.026	17.46
739.05	8.46
739.074	-6.54
739.098	30.46
739.122	17.46
739.146	-3.54
739.17	19.46
739.194	21.46
739.218	-1.54
739.242	2.46
739.266	-7.54
739.29	12.46
739.314	10.46
739.338	-2.54
739.362	11.46
739.386	18.46
739.41	5.46
739.434	-6.54
739.458	18.46
739.482	15.46
739.506	-3.54
739.53	4.46
739.554	4.46
739.577	12.46
739.601	5.46
739.625	5.46
739.649	10.46
739.673	-1.54
739.697	23.46
739.721	-2.54
739.745	16.46
739.769	27.46
739.793	13.46
739.817	13.46
739.841	-12.54
739.865	3.46
739.889	-15.54
739.912	24.46
739.936	-1.54
739.96	8.46
739.984	15.46
740.008	0.46
740.032	9.46
740.056	5.46
740.08	-4.54
740.104	1.46
740.127	5.46
740.151	8.46
740.175	2.46
740.199	21.46
740.223	37.46
740.247	5.46
740.271	8.46
740.295	10.46
740.318	6.46
740.342	-2.54
740.366	2.46
740.39	2.46
740.414	0.46
740.438	-12.54
740.461	23.46
740.485	5.46
740.509	-8.54
740.533	7.46
740.557	-9.54
740.581	1.46
740.604	-10.54
740.628	-7.54
740.652	4.46
740.676	-6.54
740.7	2.46
740.723	3.46
740.747	18.46
740.771	-3.54
740.795	-8.54
740.819	18.46
740.842	10.46
740.866	10.46
740.89	-2.54
740.914	-12.54
740.938	7.46
740.961	12.46
740.985	5.46
741.009	7.46
741.033	11.46
741.056	13.46
741.08	-2.54
741.104	1.46
741.128	-3.54
741.151	-5.54
741.175	7.46
741.199	7.46
741.223	16.46
741.246	-8.54
741.27	9.46
741.294	5.46
741.318	-3.54
741.341	6.46
741.365	21.46
741.389	5.46
741.413	20.46
741.436	22.46
741.46	12.46
741.484	21.46
741.507	12.46
741.531	10.46
741.555	15.46
741.579	19.46
741.602	10.46
741.626	-0.54
741.65	6.46
741.673	-0.54
741.697	14.46
741.721	9.46
741.744	-13.54
741.768	-0.54
741.792	9.46
741.815	-12.54
741.839	1.46
741.863	23.46
741.886	13.46
741.91	18.46
741.934	-4.54
741.957	-3.54
741.981	10.46
742.005	4.46
742.028	-20.54
742.052	6.46
742.075	5.46
742.099	11.46
742.123	8.46
742.146	7.46
742.17	-2.54
742.194	-2.54
742.217	-1.54
742.241	-0.54
742.264	5.46
742.288	11.46
742.312	5.46
742.335	6.46
742.359	6.46
742.382	1.46
742.406	17.46
742.43	-2.54
742.453	-1.54
742.477	-12.54
742.5	11.46
742.524	-4.54
742.548	-4.54
742.571	1.46
742.595	2.46
742.618	2.46
742.642	2.46
742.665	-2.54
742.689	-4.54
742.712	14.46
742.736	15.46
742.76	0.46
742.783	5.46
742.807	10.46
742.83	-2.54
742.854	-0.54
742.877	18.46
742.901	11.46
742.924	-12.54
742.948	0.46
742.971	-0.54
742.995	-1.54
743.018	-5.54
743.042	-7.54
743.065	10.46
743.089	14.46
743.112	10.46
743.136	-7.54
743.159	8.46
743.183	0.46
743.206	20.46
743.23	4.46
743.253	-1.54
743.277	4.46
743.3	-1.54
743.324	3.46
743.347	5.46
743.371	23.46
743.394	15.46
743.418	30.46
743.441	23.46
743.465	9.46
743.488	12.46
743.512	5.46
743.535	2.46
743.558	9.46
743.582	8.46
743.605	5.46
743.629	-6.54
743.652	9.46
743.676	-10.54
743.699	12.46
743.723	12.46
743.746	1.46
743.769	-1.54
743.793	0.46
743.816	-1.54
743.84	14.46
743.863	13.46
743.886	3.46
743.91	2.46
743.933	13.46
743.957	5.46
743.98	-4.54
744.003	10.46
744.027	-9.54
744.05	-12.54
744.074	14.46
744.097	-24.54
744.12	-2.54
744.144	-12.54
744.167	8.46
744.19	-9.54
744.214	-7.54
744.237	-1.54
744.26	18.46
744.284	6.46
744.307	-8.54
744.331	-4.54
744.354	1.46
744.377	0.46
744.401	-4.54
744.424	6.46
744.447	-13.54
744.471	4.46
