Data from HighRes_H2_15_09_11_07_2024_HR4C61891__159__15-11-12-301.txt Node

Date: Thu Nov 07 15:11:12 EST 2024
User: crc00042
Spectrometer: HR4C6189
Trigger mode: 4
Integration Time (sec): 1.000000E-1
Scans to average: 1
Electric dark correction enabled: true
Nonlinearity correction enabled: false
Boxcar width: 0
XAxis mode: Wavelengths
Number of Pixels in Spectrum: 3648
>>>>>Begin Spectral Data<<<<<
639.567	-43.77
639.602	-43.77
639.636	-43.77
639.67	-51.77
639.704	-19.77
639.738	-0.77
639.773	12.23
639.807	-16.77
639.841	4.23
639.875	3.23
639.909	0.23
639.943	-3.77
639.978	-4.77
640.012	-3.77
640.046	12.23
640.08	0.23
640.114	2.23
640.148	-4.77
640.182	-14.77
640.217	-8.77
640.251	31.23
640.285	11.23
640.319	-16.77
640.353	0.23
640.387	9.23
640.421	2.23
640.455	12.23
640.49	5.23
640.524	6.23
640.558	4.23
640.592	27.23
640.626	-4.77
640.66	9.23
640.694	-9.77
640.728	6.23
640.762	20.23
640.796	15.23
640.83	5.23
640.865	-3.77
640.899	-5.77
640.933	-7.77
640.967	-11.77
641.001	-5.77
641.035	9.23
641.069	-1.77
641.103	-6.77
641.137	-1.77
641.171	-21.77
641.205	3.23
641.239	-22.77
641.273	12.23
641.307	10.23
641.341	8.23
641.375	-15.77
641.409	-8.77
641.443	-10.77
641.477	2.23
641.511	3.23
641.545	3.23
641.579	-8.77
641.614	3.23
641.648	11.23
641.682	-12.77
641.716	4.23
641.75	23.23
641.784	-3.77
641.818	-10.77
641.852	-5.77
641.886	-2.77
641.919	8.23
641.953	-2.77
641.987	-3.77
642.021	-16.77
642.055	7.23
642.089	5.23
642.123	0.23
642.157	2.23
642.191	-1.77
642.225	-4.77
642.259	-10.77
642.293	6.23
642.327	-12.77
642.361	2.23
642.395	13.23
642.429	9.23
642.463	-11.77
642.497	21.23
642.531	6.23
642.565	1.23
642.599	5.23
642.633	-17.77
642.666	6.23
642.7	6.23
642.734	13.23
642.768	-16.77
642.802	13.23
642.836	0.23
642.87	-10.77
642.904	-4.77
642.938	-5.77
642.972	-12.77
643.005	-12.77
643.039	1.23
643.073	-0.77
643.107	2.23
643.141	6.23
643.175	4.23
643.209	-4.77
643.243	-5.77
643.276	0.23
643.31	-6.77
643.344	-6.77
643.378	8.23
643.412	-0.77
643.446	7.23
643.48	-20.77
643.513	3.23
643.547	6.23
643.581	-9.77
643.615	15.23
643.649	-3.77
643.683	-2.77
643.716	-1.77
643.75	11.23
643.784	-1.77
643.818	8.23
643.852	-1.77
643.886	16.23
643.919	3.23
643.953	3.23
643.987	-8.77
644.021	21.23
644.055	-4.77
644.088	1.23
644.122	4.23
644.156	-3.77
644.19	8.23
644.224	4.23
644.257	-0.77
644.291	13.23
644.325	2.23
644.359	-6.77
644.392	1.23
644.426	7.23
644.46	-17.77
644.494	6.23
644.527	-0.77
644.561	-1.77
644.595	-6.77
644.629	5.23
644.662	-2.77
644.696	2.23
644.73	7.23
644.764	10.23
644.797	-2.77
644.831	-11.77
644.865	-5.77
644.899	-7.77
644.932	24.23
644.966	-7.77
645	9.23
645.033	10.23
645.067	-3.77
645.101	2.23
645.135	3.23
645.168	-8.77
645.202	-2.77
645.236	10.23
645.269	15.23
645.303	2.23
645.337	-21.77
645.37	-3.77
645.404	-3.77
645.438	-1.77
645.471	-21.77
645.505	17.23
645.539	19.23
645.572	-12.77
645.606	9.23
645.64	-5.77
645.673	3.23
645.707	23.23
645.741	-3.77
645.774	-5.77
645.808	12.23
645.842	3.23
645.875	-4.77
645.909	-12.77
645.943	5.23
645.976	2.23
646.01	8.23
646.043	12.23
646.077	1.23
646.111	-4.77
646.144	10.23
646.178	22.23
646.212	-23.77
646.245	-12.77
646.279	-5.77
646.312	2.23
646.346	19.23
646.38	2.23
646.413	7.23
646.447	9.23
646.48	-0.77
646.514	1.23
646.547	3.23
646.581	1.23
646.615	-13.77
646.648	-26.77
646.682	-8.77
646.715	-10.77
646.749	9.23
646.782	-3.77
646.816	-23.77
646.85	-1.77
646.883	-2.77
646.917	9.23
646.95	18.23
646.984	5.23
647.017	-0.77
647.051	1.23
647.084	13.23
647.118	-8.77
647.151	-2.77
647.185	-0.77
647.218	-12.77
647.252	-0.77
647.285	-9.77
647.319	-14.77
647.353	-2.77
647.386	13.23
647.42	-1.77
647.453	-1.77
647.487	4.23
647.52	15.23
647.553	-5.77
647.587	3.23
647.62	-1.77
647.654	9.23
647.687	-3.77
647.721	3.23
647.754	-6.77
647.788	9.23
647.821	-5.77
647.855	2.23
647.888	14.23
647.922	2.23
647.955	-0.77
647.989	2.23
648.022	7.23
648.055	7.23
648.089	5.23
648.122	24.23
648.156	11.23
648.189	1.23
648.223	5.23
648.256	9.23
648.29	0.23
648.323	7.23
648.356	5.23
648.39	11.23
648.423	6.23
648.457	-14.77
648.49	1.23
648.523	3.23
648.557	-0.77
648.59	-13.77
648.624	5.23
648.657	-5.77
648.69	7.23
648.724	3.23
648.757	5.23
648.791	21.23
648.824	7.23
648.857	8.23
648.891	-0.77
648.924	6.23
648.957	7.23
648.991	-2.77
649.024	9.23
649.057	-0.77
649.091	-2.77
649.124	7.23
649.158	8.23
649.191	25.23
649.224	-14.77
649.258	0.23
649.291	-7.77
649.324	-15.77
649.358	3.23
649.391	11.23
649.424	-5.77
649.458	-6.77
649.491	1.23
649.524	4.23
649.557	-9.77
649.591	-7.77
649.624	10.23
649.657	-26.77
649.691	6.23
649.724	11.23
649.757	-0.77
649.791	-18.77
649.824	13.23
649.857	8.23
649.89	11.23
649.924	-10.77
649.957	-5.77
649.99	-13.77
650.023	-14.77
650.057	8.23
650.09	11.23
650.123	-12.77
650.157	16.23
650.19	19.23
650.223	-8.77
650.256	-13.77
650.29	-6.77
650.323	6.23
650.356	11.23
650.389	-14.77
650.423	-9.77
650.456	1.23
650.489	-0.77
650.522	18.23
650.555	26.23
650.589	16.23
650.622	-5.77
650.655	4.23
650.688	-11.77
650.721	6.23
650.755	9.23
650.788	3.23
650.821	-21.77
650.854	-12.77
650.887	-2.77
650.921	2.23
650.954	-4.77
650.987	6.23
651.02	-18.77
651.053	-13.77
651.087	-19.77
651.12	15.23
651.153	6.23
651.186	-6.77
651.219	-8.77
651.252	10.23
651.286	23.23
651.319	-0.77
651.352	5.23
651.385	13.23
651.418	7.23
651.451	19.23
651.484	9.23
651.518	6.23
651.551	19.23
651.584	3.23
651.617	2.23
651.65	4.23
651.683	23.23
651.716	-2.77
651.749	-2.77
651.783	-3.77
651.816	12.23
651.849	18.23
651.882	0.23
651.915	0.23
651.948	1.23
651.981	-6.77
652.014	-13.77
652.047	-4.77
652.08	-10.77
652.114	7.23
652.147	9.23
652.18	16.23
652.213	41.23
652.246	4.23
652.279	-3.77
652.312	1.23
652.345	8.23
652.378	6.23
652.411	7.23
652.444	24.23
652.477	7.23
652.51	-13.77
652.543	-17.77
652.576	-10.77
652.609	-4.77
652.642	4.23
652.675	17.23
652.709	6.23
652.742	6.23
652.775	5.23
652.808	21.23
652.841	0.23
652.874	7.23
652.907	0.23
652.94	2.23
652.973	-22.77
653.006	-9.77
653.039	5.23
653.072	-6.77
653.105	-9.77
653.138	-22.77
653.171	-8.77
653.204	-6.77
653.237	0.23
653.27	-9.77
653.303	24.23
653.336	23.23
653.368	-6.77
653.401	-10.77
653.434	-10.77
653.467	-0.77
653.5	-13.77
653.533	-12.77
653.566	2.23
653.599	-1.77
653.632	4.23
653.665	6.23
653.698	-0.77
653.731	4.23
653.764	29.23
653.797	3.23
653.83	2.23
653.863	5.23
653.896	-9.77
653.929	9.23
653.961	15.23
653.994	-7.77
654.027	-7.77
654.06	1.23
654.093	-4.77
654.126	7.23
654.159	-13.77
654.192	19.23
654.225	-1.77
654.258	-1.77
654.29	-7.77
654.323	7.23
654.356	-9.77
654.389	7.23
654.422	-3.77
654.455	0.23
654.488	10.23
654.521	-8.77
654.553	1.23
654.586	2.23
654.619	11.23
654.652	1.23
654.685	1.23
654.718	12.23
654.751	2.23
654.783	-0.77
654.816	14.23
654.849	11.23
654.882	-12.77
654.915	-27.77
654.948	5.23
654.98	-4.77
655.013	6.23
655.046	-8.77
655.079	-3.77
655.112	0.23
655.144	-4.77
655.177	14.23
655.21	22.23
655.243	33.23
655.276	14.23
655.308	-0.77
655.341	-3.77
655.374	16.23
655.407	-2.77
655.44	6.23
655.472	10.23
655.505	10.23
655.538	16.23
655.571	13.23
655.603	13.23
655.636	24.23
655.669	18.23
655.702	16.23
655.734	10.23
655.767	12.23
655.8	28.23
655.833	30.23
655.865	25.23
655.898	31.23
655.931	34.23
655.964	52.23
655.996	59.23
656.029	52.23
656.062	62.23
656.095	74.23
656.127	71.23
656.16	96.23
656.193	129.23
656.225	191.23
656.258	278.23
656.291	514.23
656.324	1127.23
656.356	3453.23
656.389	7609.23
656.422	6051.23
656.454	2081.23
656.487	689.23
656.52	265.23
656.552	120.23
656.585	59.23
656.618	65.23
656.65	53.23
656.683	31.23
656.716	10.23
656.748	17.23
656.781	9.23
656.814	-0.77
656.846	11.23
656.879	9.23
656.912	7.23
656.944	-27.77
656.977	-21.77
657.01	4.23
657.042	21.23
657.075	11.23
657.108	21.23
657.14	9.23
657.173	16.23
657.205	19.23
657.238	30.23
657.271	21.23
657.303	-12.77
657.336	0.23
657.369	1.23
657.401	9.23
657.434	6.23
657.466	0.23
657.499	-4.77
657.532	3.23
657.564	24.23
657.597	5.23
657.629	6.23
657.662	-0.77
657.694	2.23
657.727	-22.77
657.76	12.23
657.792	8.23
657.825	10.23
657.857	13.23
657.89	-0.77
657.922	11.23
657.955	-1.77
657.987	2.23
658.02	21.23
658.053	11.23
658.085	3.23
658.118	8.23
658.15	-4.77
658.183	11.23
658.215	-4.77
658.248	-11.77
658.28	-10.77
658.313	13.23
658.345	25.23
658.378	-3.77
658.41	2.23
658.443	0.23
658.475	3.23
658.508	-21.77
658.54	-14.77
658.573	5.23
658.605	9.23
658.638	1.23
658.67	4.23
658.703	7.23
658.735	-0.77
658.768	0.23
658.8	-15.77
658.833	33.23
658.865	12.23
658.898	13.23
658.93	-10.77
658.963	-14.77
658.995	-15.77
659.028	5.23
659.06	6.23
659.092	1.23
659.125	-13.77
659.157	-1.77
659.19	11.23
659.222	-12.77
659.255	12.23
659.287	8.23
659.32	12.23
659.352	9.23
659.384	-3.77
659.417	3.23
659.449	8.23
659.482	14.23
659.514	-1.77
659.546	-2.77
659.579	1.23
659.611	-3.77
659.644	-3.77
659.676	-7.77
659.708	-11.77
659.741	1.23
659.773	14.23
659.806	9.23
659.838	6.23
659.87	-4.77
659.903	-15.77
659.935	0.23
659.967	-12.77
660	-4.77
660.032	-24.77
660.065	0.23
660.097	10.23
660.129	0.23
660.162	-19.77
660.194	8.23
660.226	13.23
660.259	14.23
660.291	-20.77
660.323	-1.77
660.356	5.23
660.388	-21.77
660.42	-8.77
660.453	8.23
660.485	15.23
660.517	16.23
660.55	19.23
660.582	-0.77
660.614	-0.77
660.647	6.23
660.679	-11.77
660.711	2.23
660.743	-2.77
660.776	-11.77
660.808	-13.77
660.84	-5.77
660.873	2.23
660.905	4.23
660.937	18.23
660.969	-0.77
661.002	14.23
661.034	16.23
661.066	-8.77
661.099	4.23
661.131	11.23
661.163	8.23
661.195	12.23
661.228	-2.77
661.26	-3.77
661.292	-12.77
661.324	6.23
661.357	5.23
661.389	9.23
661.421	7.23
661.453	-5.77
661.485	6.23
661.518	6.23
661.55	-37.77
661.582	-16.77
661.614	6.23
661.647	-5.77
661.679	-4.77
661.711	2.23
661.743	1.23
661.775	4.23
661.808	18.23
661.84	12.23
661.872	4.23
661.904	7.23
661.936	15.23
661.969	-4.77
662.001	-17.77
662.033	-3.77
662.065	-25.77
662.097	12.23
662.129	7.23
662.162	1.23
662.194	-3.77
662.226	7.23
662.258	-0.77
662.29	-4.77
662.322	-16.77
662.355	-20.77
662.387	10.23
662.419	-0.77
662.451	10.23
662.483	12.23
662.515	-4.77
662.547	-6.77
662.58	-6.77
662.612	2.23
662.644	-19.77
662.676	12.23
662.708	4.23
662.74	-4.77
662.772	9.23
662.804	-10.77
662.836	5.23
662.869	6.23
662.901	4.23
662.933	-0.77
662.965	-0.77
662.997	5.23
663.029	-3.77
663.061	-10.77
663.093	-7.77
663.125	23.23
663.157	9.23
663.189	1.23
663.221	8.23
663.254	9.23
663.286	0.23
663.318	-3.77
663.35	3.23
663.382	-4.77
663.414	-7.77
663.446	7.23
663.478	-8.77
663.51	18.23
663.542	-3.77
663.574	-8.77
663.606	11.23
663.638	-1.77
663.67	-0.77
663.702	2.23
663.734	3.23
663.766	10.23
663.798	-11.77
663.83	4.23
663.862	5.23
663.894	23.23
663.926	9.23
663.958	9.23
663.99	0.23
664.022	-20.77
664.054	6.23
664.086	-15.77
664.118	-4.77
664.15	-11.77
664.182	-3.77
664.214	-15.77
664.246	4.23
664.278	3.23
664.31	18.23
664.342	13.23
664.374	-6.77
664.406	3.23
664.438	-1.77
664.47	21.23
664.502	-9.77
664.534	-8.77
664.566	-1.77
664.598	3.23
664.63	-12.77
664.662	-0.77
664.693	1.23
664.725	-30.77
664.757	-7.77
664.789	-8.77
664.821	17.23
664.853	-0.77
664.885	-6.77
664.917	-18.77
664.949	8.23
664.981	23.23
665.013	9.23
665.045	-13.77
665.076	3.23
665.108	-4.77
665.14	-13.77
665.172	4.23
665.204	2.23
665.236	-7.77
665.268	-1.77
665.3	-8.77
665.331	-8.77
665.363	4.23
665.395	-10.77
665.427	-0.77
665.459	16.23
665.491	-4.77
665.523	-4.77
665.555	-2.77
665.586	5.23
665.618	4.23
665.65	-29.77
665.682	-2.77
665.714	8.23
665.746	-10.77
665.777	-4.77
665.809	-7.77
665.841	6.23
665.873	-10.77
665.905	-7.77
665.937	32.23
665.968	18.23
666	-0.77
666.032	11.23
666.064	12.23
666.096	8.23
666.127	7.23
666.159	13.23
666.191	5.23
666.223	-2.77
666.255	5.23
666.286	30.23
666.318	6.23
666.35	2.23
666.382	-7.77
666.413	-13.77
666.445	-12.77
666.477	-8.77
666.509	-12.77
666.54	1.23
666.572	-9.77
666.604	2.23
666.636	9.23
666.667	35.23
666.699	11.23
666.731	-7.77
666.763	-0.77
666.794	4.23
666.826	19.23
666.858	-21.77
666.89	15.23
666.921	0.23
666.953	-5.77
666.985	9.23
667.017	17.23
667.048	11.23
667.08	8.23
667.112	-1.77
667.143	-15.77
667.175	4.23
667.207	10.23
667.238	-5.77
667.27	7.23
667.302	11.23
667.334	-1.77
667.365	-5.77
667.397	3.23
667.429	1.23
667.46	10.23
667.492	3.23
667.524	-5.77
667.555	4.23
667.587	4.23
667.619	-4.77
667.65	-19.77
667.682	-6.77
667.714	3.23
667.745	3.23
667.777	6.23
667.808	9.23
667.84	8.23
667.872	4.23
667.903	24.23
667.935	-11.77
667.967	-4.77
667.998	-3.77
668.03	-5.77
668.061	9.23
668.093	-1.77
668.125	5.23
668.156	13.23
668.188	-3.77
668.22	-13.77
668.251	8.23
668.283	4.23
668.314	16.23
668.346	-10.77
668.377	-3.77
668.409	-13.77
668.441	19.23
668.472	15.23
668.504	9.23
668.535	3.23
668.567	1.23
668.599	-8.77
668.63	-12.77
668.662	-0.77
668.693	-2.77
668.725	7.23
668.756	2.23
668.788	7.23
668.819	-3.77
668.851	-8.77
668.882	-3.77
668.914	0.23
668.946	5.23
668.977	2.23
669.009	8.23
669.04	-22.77
669.072	-4.77
669.103	-4.77
669.135	-19.77
669.166	-6.77
669.198	11.23
669.229	18.23
669.261	-0.77
669.292	-16.77
669.324	1.23
669.355	0.23
669.387	-23.77
669.418	-3.77
669.45	-0.77
669.481	-2.77
669.513	-3.77
669.544	12.23
669.576	5.23
669.607	15.23
669.639	16.23
669.67	12.23
669.701	7.23
669.733	-22.77
669.764	-11.77
669.796	-8.77
669.827	-12.77
669.859	-13.77
669.89	-0.77
669.922	9.23
669.953	12.23
669.985	2.23
670.016	8.23
670.047	-4.77
670.079	2.23
670.11	7.23
670.142	-2.77
670.173	-2.77
670.204	14.23
670.236	1.23
670.267	-20.77
670.299	-9.77
670.33	-0.77
670.362	8.23
670.393	-5.77
670.424	20.23
670.456	-7.77
670.487	-7.77
670.518	5.23
670.55	-0.77
670.581	7.23
670.613	10.23
670.644	-2.77
670.675	-5.77
670.707	-8.77
670.738	-10.77
670.769	-3.77
670.801	-23.77
670.832	2.23
670.864	-16.77
670.895	-13.77
670.926	-0.77
670.958	-10.77
670.989	5.23
671.02	-3.77
671.052	8.23
671.083	-16.77
671.114	-8.77
671.146	-6.77
671.177	-14.77
671.208	1.23
671.24	-27.77
671.271	-13.77
671.302	4.23
671.333	-16.77
671.365	-1.77
671.396	-18.77
671.427	7.23
671.459	6.23
671.49	2.23
671.521	-0.77
671.553	-0.77
671.584	7.23
671.615	-2.77
671.646	9.23
671.678	11.23
671.709	-14.77
671.74	-18.77
671.771	-0.77
671.803	-2.77
671.834	2.23
671.865	2.23
671.896	11.23
671.928	-7.77
671.959	6.23
671.99	-8.77
672.021	-6.77
672.053	-19.77
672.084	-0.77
672.115	-2.77
672.146	-15.77
672.178	-15.77
672.209	-12.77
672.24	-0.77
672.271	14.23
672.303	9.23
672.334	-1.77
672.365	7.23
672.396	11.23
672.427	8.23
672.459	1.23
672.49	13.23
672.521	-4.77
672.552	10.23
672.583	11.23
672.615	5.23
672.646	12.23
672.677	-11.77
672.708	4.23
672.739	2.23
672.77	3.23
672.802	5.23
672.833	-7.77
672.864	17.23
672.895	-13.77
672.926	-5.77
672.957	-2.77
672.989	-11.77
673.02	-4.77
673.051	-6.77
673.082	21.23
673.113	10.23
673.144	2.23
673.175	-8.77
673.206	-20.77
673.238	-11.77
673.269	7.23
673.3	-1.77
673.331	23.23
673.362	5.23
673.393	10.23
673.424	9.23
673.455	11.23
673.487	0.23
673.518	9.23
673.549	-0.77
673.58	-16.77
673.611	4.23
673.642	-21.77
673.673	-28.77
673.704	-2.77
673.735	6.23
673.766	-1.77
673.797	-2.77
673.828	3.23
673.86	-5.77
673.891	-1.77
673.922	-24.77
673.953	-12.77
673.984	-1.77
674.015	9.23
674.046	-0.77
674.077	-5.77
674.108	-18.77
674.139	-23.77
674.17	-11.77
674.201	-19.77
674.232	-14.77
674.263	-8.77
674.294	-5.77
674.325	-16.77
674.356	4.23
674.387	14.23
674.418	7.23
674.449	3.23
674.48	-5.77
674.511	7.23
674.542	19.23
674.573	-20.77
674.604	-2.77
674.635	-9.77
674.666	5.23
674.697	10.23
674.728	3.23
674.759	3.23
674.79	-13.77
674.821	7.23
674.852	-20.77
674.883	-11.77
674.914	-7.77
674.945	3.23
674.976	-7.77
675.007	-3.77
675.038	-8.77
675.069	-13.77
675.1	-21.77
675.131	3.23
675.162	-11.77
675.193	-8.77
675.224	1.23
675.254	-6.77
675.285	-0.77
675.316	7.23
675.347	12.23
675.378	-0.77
675.409	-1.77
675.44	5.23
675.471	2.23
675.502	-19.77
675.533	-2.77
675.564	2.23
675.595	-4.77
675.625	12.23
675.656	4.23
675.687	-1.77
675.718	3.23
675.749	1.23
675.78	-6.77
675.811	-6.77
675.842	16.23
675.873	-6.77
675.903	-8.77
675.934	-13.77
675.965	-9.77
675.996	-11.77
676.027	1.23
676.058	-3.77
676.089	-8.77
676.119	-0.77
676.15	0.23
676.181	7.23
676.212	18.23
676.243	-2.77
676.274	2.23
676.304	14.23
676.335	-11.77
676.366	-11.77
676.397	-11.77
676.428	-1.77
676.459	10.23
676.489	-3.77
676.52	-3.77
676.551	2.23
676.582	-17.77
676.613	-5.77
676.643	-10.77
676.674	7.23
676.705	-3.77
676.736	-6.77
676.767	7.23
676.797	3.23
676.828	0.23
676.859	3.23
676.89	-7.77
676.92	-19.77
676.951	8.23
676.982	15.23
677.013	-12.77
677.044	10.23
677.074	-8.77
677.105	-29.77
677.136	15.23
677.167	6.23
677.197	9.23
677.228	-4.77
677.259	-8.77
677.289	2.23
677.32	-14.77
677.351	-14.77
677.382	-8.77
677.412	-26.77
677.443	2.23
677.474	8.23
677.505	-9.77
677.535	-6.77
677.566	-5.77
677.597	-15.77
677.627	-6.77
677.658	-3.77
677.689	-15.77
677.72	4.23
677.75	-8.77
677.781	3.23
677.812	1.23
677.842	7.23
677.873	-9.77
677.904	-0.77
677.934	1.23
677.965	3.23
677.996	-10.77
678.026	-5.77
678.057	-0.77
678.088	-7.77
678.118	7.23
678.149	-27.77
678.18	0.23
678.21	-9.77
678.241	-0.77
678.272	3.23
678.302	-3.77
678.333	3.23
678.363	0.23
678.394	12.23
678.425	-2.77
678.455	7.23
678.486	19.23
678.517	-3.77
678.547	-7.77
678.578	2.23
678.608	-5.77
678.639	4.23
678.67	-0.77
678.7	7.23
678.731	-0.77
678.761	5.23
678.792	-5.77
678.823	4.23
678.853	8.23
678.884	-1.77
678.914	5.23
678.945	-3.77
678.975	-9.77
679.006	-8.77
679.037	-2.77
679.067	16.23
679.098	-13.77
679.128	-19.77
679.159	-12.77
679.189	7.23
679.22	-12.77
679.25	4.23
679.281	-18.77
679.312	-6.77
679.342	18.23
679.373	28.23
679.403	1.23
679.434	-3.77
679.464	-5.77
679.495	7.23
679.525	1.23
679.556	-4.77
679.586	8.23
679.617	-3.77
679.647	-1.77
679.678	2.23
679.708	-3.77
679.739	9.23
679.769	-8.77
679.8	5.23
679.83	1.23
679.861	17.23
679.891	-9.77
679.922	-12.77
679.952	-14.77
679.983	8.23
680.013	5.23
680.044	-0.77
680.074	-8.77
680.105	10.23
680.135	-7.77
680.165	-0.77
680.196	8.23
680.226	11.23
680.257	7.23
680.287	0.23
680.318	3.23
680.348	-17.77
680.379	1.23
680.409	10.23
680.439	0.23
680.47	-4.77
680.5	-3.77
680.531	2.23
680.561	5.23
680.592	9.23
680.622	13.23
680.652	10.23
680.683	0.23
680.713	-5.77
680.744	-4.77
680.774	-33.77
680.804	11.23
680.835	-8.77
680.865	-9.77
680.896	25.23
680.926	7.23
680.956	-4.77
680.987	4.23
681.017	-3.77
681.047	13.23
681.078	-4.77
681.108	-0.77
681.139	5.23
681.169	5.23
681.199	-0.77
681.23	18.23
681.26	11.23
681.29	21.23
681.321	-15.77
681.351	8.23
681.381	-1.77
681.412	11.23
681.442	-3.77
681.472	10.23
681.503	6.23
681.533	0.23
681.563	4.23
681.594	2.23
681.624	1.23
681.654	-7.77
681.685	-2.77
681.715	8.23
681.745	-4.77
681.775	-14.77
681.806	-8.77
681.836	-7.77
681.866	-8.77
681.897	-14.77
681.927	-3.77
681.957	-9.77
681.987	2.23
682.018	-12.77
682.048	-6.77
682.078	0.23
682.109	15.23
682.139	3.23
682.169	17.23
682.199	4.23
682.23	-8.77
682.26	6.23
682.29	-0.77
682.32	-16.77
682.351	2.23
682.381	0.23
682.411	2.23
682.441	-8.77
682.472	-1.77
682.502	-3.77
682.532	-5.77
682.562	-2.77
682.592	-1.77
682.623	-0.77
682.653	0.23
682.683	-0.77
682.713	15.23
682.743	-6.77
682.774	10.23
682.804	3.23
682.834	15.23
682.864	-3.77
682.894	-11.77
682.925	-10.77
682.955	0.23
682.985	7.23
683.015	10.23
683.045	35.23
683.076	-11.77
683.106	-11.77
683.136	-16.77
683.166	-16.77
683.196	-12.77
683.226	-15.77
683.257	-13.77
683.287	3.23
683.317	1.23
683.347	-17.77
683.377	-3.77
683.407	2.23
683.437	-14.77
683.468	-1.77
683.498	3.23
683.528	-4.77
683.558	18.23
683.588	11.23
683.618	-9.77
683.648	-4.77
683.678	5.23
683.708	-1.77
683.739	11.23
683.769	-3.77
683.799	-5.77
683.829	4.23
683.859	5.23
683.889	-1.77
683.919	-8.77
683.949	2.23
683.979	-5.77
684.009	-13.77
684.039	0.23
684.07	-5.77
684.1	2.23
684.13	-15.77
684.16	12.23
684.19	-12.77
684.22	-1.77
684.25	15.23
684.28	-3.77
684.31	19.23
684.34	3.23
684.37	-6.77
684.4	-7.77
684.43	8.23
684.46	10.23
684.49	7.23
684.52	2.23
684.55	-4.77
684.58	-3.77
684.61	-1.77
684.64	17.23
684.67	15.23
684.7	-4.77
684.73	24.23
684.76	1.23
684.79	7.23
684.82	-0.77
684.85	-10.77
684.88	-1.77
684.91	-4.77
684.94	1.23
684.97	-12.77
685	-12.77
685.03	-14.77
685.06	-0.77
685.09	-10.77
685.12	19.23
685.15	-0.77
685.18	13.23
685.21	0.23
685.24	12.23
685.27	17.23
685.3	8.23
685.33	11.23
685.36	-0.77
685.39	-0.77
685.42	-11.77
685.45	-26.77
685.48	-3.77
685.51	-3.77
685.54	14.23
685.569	10.23
685.599	7.23
685.629	15.23
685.659	-11.77
685.689	-6.77
685.719	-8.77
685.749	-9.77
685.779	-4.77
685.809	0.23
685.839	-2.77
685.869	9.23
685.898	19.23
685.928	5.23
685.958	0.23
685.988	5.23
686.018	1.23
686.048	18.23
686.078	5.23
686.108	11.23
686.137	4.23
686.167	3.23
686.197	-0.77
686.227	-7.77
686.257	29.23
686.287	10.23
686.317	6.23
686.346	-3.77
686.376	-6.77
686.406	-13.77
686.436	17.23
686.466	-6.77
686.496	-3.77
686.525	3.23
686.555	5.23
686.585	11.23
686.615	19.23
686.645	17.23
686.675	13.23
686.704	13.23
686.734	6.23
686.764	-5.77
686.794	1.23
686.824	-1.77
686.853	4.23
686.883	21.23
686.913	10.23
686.943	-0.77
686.973	-13.77
687.002	-0.77
687.032	11.23
687.062	3.23
687.092	10.23
687.121	0.23
687.151	11.23
687.181	2.23
687.211	-0.77
687.24	9.23
687.27	-5.77
687.3	2.23
687.33	-3.77
687.359	-14.77
687.389	8.23
687.419	1.23
687.449	13.23
687.478	6.23
687.508	12.23
687.538	10.23
687.568	-2.77
687.597	3.23
687.627	3.23
687.657	3.23
687.686	2.23
687.716	17.23
687.746	-26.77
687.776	0.23
687.805	0.23
687.835	-9.77
687.865	11.23
687.894	11.23
687.924	5.23
687.954	-7.77
687.983	-0.77
688.013	8.23
688.043	10.23
688.072	-10.77
688.102	17.23
688.132	-2.77
688.161	-10.77
688.191	0.23
688.221	15.23
688.25	-13.77
688.28	-2.77
688.31	-1.77
688.339	-9.77
688.369	-13.77
688.399	-5.77
688.428	1.23
688.458	1.23
688.488	-16.77
688.517	15.23
688.547	-7.77
688.576	32.23
688.606	21.23
688.636	-9.77
688.665	7.23
688.695	1.23
688.725	8.23
688.754	6.23
688.784	0.23
688.813	20.23
688.843	2.23
688.873	4.23
688.902	0.23
688.932	-8.77
688.961	5.23
688.991	5.23
689.02	-3.77
689.05	-0.77
689.08	2.23
689.109	16.23
689.139	17.23
689.168	-2.77
689.198	-8.77
689.227	5.23
689.257	9.23
689.287	-10.77
689.316	-9.77
689.346	3.23
689.375	2.23
689.405	9.23
689.434	19.23
689.464	-3.77
689.493	-0.77
689.523	-13.77
689.552	-10.77
689.582	-9.77
689.611	-4.77
689.641	2.23
689.67	4.23
689.7	-7.77
689.73	8.23
689.759	12.23
689.789	18.23
689.818	1.23
689.848	-8.77
689.877	20.23
689.906	-0.77
689.936	-0.77
689.965	8.23
689.995	-8.77
690.024	8.23
690.054	-5.77
690.083	4.23
690.113	-4.77
690.142	-3.77
690.172	-13.77
690.201	-7.77
690.231	1.23
690.26	2.23
690.29	4.23
690.319	23.23
690.348	4.23
690.378	6.23
690.407	12.23
690.437	-1.77
690.466	-7.77
690.496	0.23
690.525	11.23
690.555	1.23
690.584	11.23
690.613	-3.77
690.643	7.23
690.672	10.23
690.702	12.23
690.731	3.23
690.76	-0.77
690.79	-0.77
690.819	2.23
690.849	12.23
690.878	0.23
690.907	-7.77
690.937	2.23
690.966	9.23
690.996	4.23
691.025	9.23
691.054	1.23
691.084	-2.77
691.113	2.23
691.142	9.23
691.172	7.23
691.201	23.23
691.23	-1.77
691.26	-1.77
691.289	6.23
691.319	-1.77
691.348	1.23
691.377	7.23
691.407	-0.77
691.436	1.23
691.465	6.23
691.495	-8.77
691.524	-16.77
691.553	4.23
691.583	-5.77
691.612	15.23
691.641	-0.77
691.67	-0.77
691.7	8.23
691.729	-4.77
691.758	2.23
691.788	-4.77
691.817	-0.77
691.846	-3.77
691.876	-10.77
691.905	12.23
691.934	-7.77
691.963	9.23
691.993	-7.77
692.022	-8.77
692.051	-8.77
692.081	17.23
692.11	25.23
692.139	-7.77
692.168	1.23
692.198	12.23
692.227	16.23
692.256	12.23
692.285	6.23
692.315	6.23
692.344	2.23
692.373	1.23
692.402	-16.77
692.432	-3.77
692.461	2.23
692.49	1.23
692.519	8.23
692.548	1.23
692.578	6.23
692.607	-13.77
692.636	-17.77
692.665	12.23
692.694	-6.77
692.724	7.23
692.753	0.23
692.782	7.23
692.811	-9.77
692.84	-11.77
692.87	-0.77
692.899	9.23
692.928	5.23
692.957	6.23
692.986	-0.77
693.016	4.23
693.045	8.23
693.074	1.23
693.103	3.23
693.132	4.23
693.161	13.23
693.191	-7.77
693.22	-17.77
693.249	-7.77
693.278	4.23
693.307	28.23
693.336	9.23
693.365	-2.77
693.395	6.23
693.424	15.23
693.453	5.23
693.482	1.23
693.511	-2.77
693.54	1.23
693.569	4.23
693.598	-15.77
693.628	8.23
693.657	6.23
693.686	35.23
693.715	21.23
693.744	22.23
693.773	12.23
693.802	10.23
693.831	-6.77
693.86	10.23
693.889	3.23
693.919	6.23
693.948	2.23
693.977	6.23
694.006	-0.77
694.035	4.23
694.064	7.23
694.093	-0.77
694.122	-8.77
694.151	-4.77
694.18	11.23
694.209	29.23
694.238	24.23
694.267	23.23
694.296	13.23
694.325	6.23
694.354	9.23
694.383	-0.77
694.412	-12.77
694.441	-7.77
694.471	3.23
694.5	-6.77
694.529	5.23
694.558	23.23
694.587	7.23
694.616	-5.77
694.645	5.23
694.674	7.23
694.703	2.23
694.732	-1.77
694.761	15.23
694.79	22.23
694.819	-8.77
694.848	4.23
694.877	10.23
694.906	19.23
694.935	2.23
694.963	13.23
694.992	-0.77
695.021	8.23
695.05	7.23
695.079	-3.77
695.108	-7.77
695.137	18.23
695.166	11.23
695.195	-3.77
695.224	2.23
695.253	-12.77
695.282	7.23
695.311	-2.77
695.34	9.23
695.369	13.23
695.398	10.23
695.427	41.23
695.456	24.23
695.485	3.23
695.513	9.23
695.542	6.23
695.571	5.23
695.6	5.23
695.629	-12.77
695.658	-2.77
695.687	-6.77
695.716	1.23
695.745	10.23
695.774	-5.77
695.802	-21.77
695.831	1.23
695.86	23.23
695.889	21.23
695.918	-0.77
695.947	4.23
695.976	-8.77
696.005	-4.77
696.033	-0.77
696.062	15.23
696.091	-1.77
696.12	2.23
696.149	15.23
696.178	-4.77
696.207	3.23
696.235	-7.77
696.264	-0.77
696.293	-12.77
696.322	1.23
696.351	7.23
696.38	1.23
696.408	5.23
696.437	7.23
696.466	20.23
696.495	11.23
696.524	18.23
696.553	13.23
696.581	0.23
696.61	-8.77
696.639	0.23
696.668	0.23
696.697	-4.77
696.725	9.23
696.754	9.23
696.783	1.23
696.812	0.23
696.84	11.23
696.869	8.23
696.898	-7.77
696.927	14.23
696.956	7.23
696.984	0.23
697.013	-1.77
697.042	5.23
697.071	15.23
697.099	1.23
697.128	-1.77
697.157	1.23
697.186	-5.77
697.214	-7.77
697.243	-0.77
697.272	10.23
697.301	0.23
697.329	13.23
697.358	0.23
697.387	8.23
697.415	2.23
697.444	15.23
697.473	7.23
697.502	-3.77
697.53	12.23
697.559	9.23
697.588	5.23
697.616	-16.77
697.645	-13.77
697.674	-5.77
697.703	-4.77
697.731	5.23
697.76	19.23
697.789	9.23
697.817	7.23
697.846	14.23
697.875	6.23
697.903	22.23
697.932	14.23
697.961	11.23
697.989	15.23
698.018	-4.77
698.047	3.23
698.075	17.23
698.104	0.23
698.133	-4.77
698.161	4.23
698.19	-5.77
698.218	-1.77
698.247	7.23
698.276	12.23
698.304	9.23
698.333	5.23
698.362	2.23
698.39	0.23
698.419	13.23
698.447	-2.77
698.476	6.23
698.505	22.23
698.533	11.23
698.562	13.23
698.591	-6.77
698.619	-7.77
698.648	4.23
698.676	8.23
698.705	3.23
698.733	-19.77
698.762	-0.77
698.791	-2.77
698.819	3.23
698.848	6.23
698.876	0.23
698.905	26.23
698.933	20.23
698.962	4.23
698.991	7.23
699.019	10.23
699.048	4.23
699.076	3.23
699.105	-3.77
699.133	2.23
699.162	9.23
699.19	6.23
699.219	-6.77
699.248	-8.77
699.276	-0.77
699.305	-0.77
699.333	17.23
699.362	0.23
699.39	22.23
699.419	-3.77
699.447	13.23
699.476	7.23
699.504	6.23
699.533	4.23
699.561	-10.77
699.59	-1.77
699.618	-12.77
699.647	-0.77
699.675	-0.77
699.704	11.23
699.732	21.23
699.761	10.23
699.789	-5.77
699.818	-6.77
699.846	-21.77
699.874	-16.77
699.903	-2.77
699.931	-14.77
699.96	7.23
699.988	3.23
700.017	-10.77
700.045	7.23
700.074	-10.77
700.102	1.23
700.13	-9.77
700.159	4.23
700.187	0.23
700.216	-3.77
700.244	-7.77
700.273	-1.77
700.301	4.23
700.329	28.23
700.358	27.23
700.386	3.23
700.415	0.23
700.443	2.23
700.472	-1.77
700.5	0.23
700.528	-3.77
700.557	9.23
700.585	-3.77
700.614	6.23
700.642	2.23
700.67	19.23
700.699	8.23
700.727	13.23
700.755	2.23
700.784	2.23
700.812	10.23
700.841	11.23
700.869	-2.77
700.897	-13.77
700.926	-10.77
700.954	16.23
700.982	7.23
701.011	10.23
701.039	-10.77
701.067	-4.77
701.096	4.23
701.124	-7.77
701.152	-29.77
701.181	-1.77
701.209	-18.77
701.237	4.23
701.266	-8.77
701.294	-7.77
701.322	12.23
701.351	20.23
701.379	7.23
701.407	-12.77
701.435	1.23
701.464	21.23
701.492	19.23
701.52	1.23
701.549	13.23
701.577	8.23
701.605	-13.77
701.634	-7.77
701.662	9.23
701.69	-17.77
701.718	-3.77
701.747	23.23
701.775	13.23
701.803	-4.77
701.831	0.23
701.86	-1.77
701.888	-8.77
701.916	-3.77
701.944	3.23
701.973	-3.77
702.001	-18.77
702.029	0.23
702.057	-4.77
702.086	-12.77
702.114	-2.77
702.142	-4.77
702.17	-13.77
702.199	-2.77
702.227	2.23
702.255	-10.77
702.283	2.23
702.311	6.23
702.34	4.23
702.368	2.23
702.396	-3.77
702.424	-1.77
702.452	6.23
702.481	6.23
702.509	0.23
702.537	13.23
702.565	7.23
702.593	-11.77
702.621	3.23
702.65	7.23
702.678	14.23
702.706	4.23
702.734	2.23
702.762	17.23
702.79	3.23
702.819	-1.77
702.847	13.23
702.875	7.23
702.903	-0.77
702.931	-11.77
702.959	8.23
702.988	6.23
703.016	-0.77
703.044	-1.77
703.072	-9.77
703.1	2.23
703.128	11.23
703.156	6.23
703.184	-0.77
703.212	9.23
703.241	-1.77
703.269	4.23
703.297	5.23
703.325	11.23
703.353	-6.77
703.381	-14.77
703.409	0.23
703.437	-7.77
703.465	-4.77
703.493	-5.77
703.522	-13.77
703.55	0.23
703.578	1.23
703.606	-4.77
703.634	-6.77
703.662	-12.77
703.69	-8.77
703.718	4.23
703.746	16.23
703.774	-0.77
703.802	22.23
703.83	0.23
703.858	-5.77
703.886	-2.77
703.914	4.23
703.942	9.23
703.97	-5.77
703.998	-8.77
704.027	12.23
704.055	0.23
704.083	7.23
704.111	-22.77
704.139	5.23
704.167	-10.77
704.195	-11.77
704.223	-7.77
704.251	11.23
704.279	7.23
704.307	-3.77
704.335	-25.77
704.363	-11.77
704.391	-5.77
704.419	-15.77
704.447	-11.77
704.475	4.23
704.503	8.23
704.531	5.23
704.558	9.23
704.586	-12.77
704.614	-1.77
704.642	6.23
704.67	-24.77
704.698	-4.77
704.726	-0.77
704.754	-0.77
704.782	-11.77
704.81	-9.77
704.838	8.23
704.866	7.23
704.894	-23.77
704.922	5.23
704.95	7.23
704.978	24.23
705.006	-15.77
705.034	21.23
705.061	0.23
705.089	7.23
705.117	-9.77
705.145	-0.77
705.173	16.23
705.201	0.23
705.229	10.23
705.257	7.23
705.285	12.23
705.313	9.23
705.34	14.23
705.368	13.23
705.396	19.23
705.424	2.23
705.452	1.23
705.48	11.23
705.508	1.23
705.536	1.23
705.563	-2.77
705.591	-1.77
705.619	-6.77
705.647	-1.77
705.675	5.23
705.703	6.23
705.731	-0.77
705.758	10.23
705.786	-6.77
705.814	10.23
705.842	9.23
705.87	5.23
705.898	2.23
705.925	-3.77
705.953	4.23
705.981	3.23
706.009	-5.77
706.037	6.23
706.065	-8.77
706.092	-7.77
706.12	-2.77
706.148	-2.77
706.176	11.23
706.204	4.23
706.231	-7.77
706.259	-2.77
706.287	-7.77
706.315	2.23
706.342	-0.77
706.37	8.23
706.398	6.23
706.426	5.23
706.454	-4.77
706.481	7.23
706.509	6.23
706.537	-22.77
706.565	-23.77
706.592	-6.77
706.62	-0.77
706.648	0.23
706.676	-17.77
706.703	10.23
706.731	-0.77
706.759	-1.77
706.787	0.23
706.814	2.23
706.842	-4.77
706.87	-4.77
706.897	-7.77
706.925	-21.77
706.953	7.23
706.981	15.23
707.008	-2.77
707.036	10.23
707.064	9.23
707.091	-25.77
707.119	14.23
707.147	7.23
707.174	6.23
707.202	-1.77
707.23	-9.77
707.258	6.23
707.285	-5.77
707.313	0.23
707.341	-4.77
707.368	-2.77
707.396	18.23
707.424	15.23
707.451	13.23
707.479	6.23
707.507	-20.77
707.534	-0.77
707.562	-14.77
707.59	-7.77
707.617	-4.77
707.645	5.23
707.672	5.23
707.7	5.23
707.728	-0.77
707.755	14.23
707.783	-3.77
707.811	3.23
707.838	-3.77
707.866	-7.77
707.893	-1.77
707.921	-12.77
707.949	-1.77
707.976	5.23
708.004	5.23
708.031	-4.77
708.059	15.23
708.087	-6.77
708.114	-8.77
708.142	-19.77
708.169	-9.77
708.197	-19.77
708.225	-7.77
708.252	-11.77
708.28	0.23
708.307	-15.77
708.335	4.23
708.362	-2.77
708.39	-6.77
708.418	3.23
708.445	-2.77
708.473	-0.77
708.5	-8.77
708.528	0.23
708.555	-1.77
708.583	-6.77
708.61	-9.77
708.638	-4.77
708.665	-4.77
708.693	-4.77
708.72	-17.77
708.748	-12.77
708.776	-8.77
708.803	12.23
708.831	12.23
708.858	17.23
708.886	6.23
708.913	-13.77
708.941	-21.77
708.968	11.23
708.996	1.23
709.023	19.23
709.051	-11.77
709.078	-13.77
709.105	10.23
709.133	2.23
709.16	-6.77
709.188	12.23
709.215	10.23
709.243	7.23
709.27	-6.77
709.298	2.23
709.325	1.23
709.353	-11.77
709.38	7.23
709.408	-1.77
709.435	8.23
709.462	-3.77
709.49	9.23
709.517	-11.77
709.545	3.23
709.572	2.23
709.6	-0.77
709.627	2.23
709.655	-3.77
709.682	-2.77
709.709	-3.77
709.737	-11.77
709.764	2.23
709.792	18.23
709.819	5.23
709.846	-3.77
709.874	-2.77
709.901	7.23
709.929	6.23
709.956	21.23
709.983	-0.77
710.011	-0.77
710.038	-4.77
710.066	-4.77
710.093	4.23
710.12	1.23
710.148	0.23
710.175	-11.77
710.202	-12.77
710.23	2.23
710.257	-6.77
710.284	-1.77
710.312	-6.77
710.339	-3.77
710.366	6.23
710.394	-0.77
710.421	-0.77
710.448	2.23
710.476	-12.77
710.503	3.23
710.53	16.23
710.558	18.23
710.585	7.23
710.612	-0.77
710.64	9.23
710.667	-2.77
710.694	-20.77
710.722	-3.77
710.749	-5.77
710.776	5.23
710.804	9.23
710.831	0.23
710.858	-1.77
710.885	-2.77
710.913	2.23
710.94	27.23
710.967	21.23
710.995	10.23
711.022	-5.77
711.049	-0.77
711.076	0.23
711.104	9.23
711.131	-27.77
711.158	2.23
711.185	20.23
711.213	-4.77
711.24	-6.77
711.267	-4.77
711.294	-15.77
711.322	14.23
711.349	-11.77
711.376	-0.77
711.403	5.23
711.431	-6.77
711.458	14.23
711.485	2.23
711.512	13.23
711.54	9.23
711.567	4.23
711.594	1.23
711.621	-4.77
711.648	-12.77
711.676	-1.77
711.703	-2.77
711.73	-6.77
711.757	-1.77
711.784	8.23
711.812	9.23
711.839	-4.77
711.866	5.23
711.893	-17.77
711.92	-3.77
711.947	6.23
711.975	19.23
712.002	-8.77
712.029	13.23
712.056	12.23
712.083	5.23
712.11	-4.77
712.138	6.23
712.165	12.23
712.192	8.23
712.219	-7.77
712.246	-4.77
712.273	-1.77
712.3	-6.77
712.328	2.23
712.355	-0.77
712.382	-8.77
712.409	20.23
712.436	-10.77
712.463	8.23
712.49	23.23
712.517	-11.77
712.544	-9.77
712.572	-1.77
712.599	-0.77
712.626	-7.77
712.653	3.23
712.68	-15.77
712.707	8.23
712.734	11.23
712.761	-9.77
712.788	-9.77
712.815	-6.77
712.842	7.23
712.87	1.23
712.897	-5.77
712.924	-14.77
712.951	-0.77
712.978	10.23
713.005	6.23
713.032	0.23
713.059	3.23
713.086	-7.77
713.113	-0.77
713.14	1.23
713.167	10.23
713.194	3.23
713.221	-10.77
713.248	5.23
713.275	-10.77
713.302	-8.77
713.329	-3.77
713.356	3.23
713.383	18.23
713.41	0.23
713.437	-10.77
713.464	-1.77
713.491	15.23
713.518	-9.77
713.545	-3.77
713.572	-4.77
713.599	-1.77
713.626	-8.77
713.653	-4.77
713.68	-11.77
713.707	-3.77
713.734	-4.77
713.761	-9.77
713.788	-5.77
713.815	6.23
713.842	-0.77
713.869	-11.77
713.896	-4.77
713.923	-1.77
713.95	0.23
713.977	-11.77
714.004	0.23
714.031	-6.77
714.058	6.23
714.085	-16.77
714.112	3.23
714.139	12.23
714.165	4.23
714.192	-4.77
714.219	8.23
714.246	-0.77
714.273	-1.77
714.3	-0.77
714.327	1.23
714.354	-2.77
714.381	-7.77
714.408	-1.77
714.435	-21.77
714.461	-0.77
714.488	17.23
714.515	3.23
714.542	-14.77
714.569	-10.77
714.596	-18.77
714.623	5.23
714.65	-8.77
714.677	-0.77
714.703	-5.77
714.73	4.23
714.757	-8.77
714.784	7.23
714.811	-12.77
714.838	2.23
714.865	-5.77
714.891	5.23
714.918	-9.77
714.945	-11.77
714.972	-8.77
714.999	6.23
715.026	-15.77
715.052	25.23
715.079	-7.77
715.106	2.23
715.133	7.23
715.16	-7.77
715.187	9.23
715.213	11.23
715.24	-17.77
715.267	-0.77
715.294	-1.77
715.321	-15.77
715.347	-14.77
715.374	2.23
715.401	-3.77
715.428	3.23
715.455	-0.77
715.481	-12.77
715.508	17.23
715.535	0.23
715.562	28.23
715.588	-10.77
715.615	-8.77
715.642	-9.77
715.669	-17.77
715.695	-3.77
715.722	-21.77
715.749	-5.77
715.776	20.23
715.802	11.23
715.829	3.23
715.856	-5.77
715.883	4.23
715.909	-19.77
715.936	3.23
715.963	12.23
715.99	-8.77
716.016	2.23
716.043	-3.77
716.07	-2.77
716.096	-6.77
716.123	-1.77
716.15	2.23
716.177	4.23
716.203	-1.77
716.23	-0.77
716.257	-0.77
716.283	10.23
716.31	0.23
716.337	-0.77
716.363	2.23
716.39	0.23
716.417	0.23
716.443	-10.77
716.47	16.23
716.497	11.23
716.523	1.23
716.55	1.23
716.577	17.23
716.603	5.23
716.63	3.23
716.657	1.23
716.683	-9.77
716.71	5.23
716.737	5.23
716.763	8.23
716.79	-9.77
716.817	10.23
716.843	-5.77
716.87	-8.77
716.897	-5.77
716.923	8.23
716.95	-9.77
716.976	-22.77
717.003	-13.77
717.03	-2.77
717.056	8.23
717.083	-2.77
717.109	4.23
717.136	-0.77
717.163	-16.77
717.189	0.23
717.216	2.23
717.242	7.23
717.269	12.23
717.296	11.23
717.322	-5.77
717.349	20.23
717.375	2.23
717.402	0.23
717.428	9.23
717.455	10.23
717.481	4.23
717.508	1.23
717.535	-3.77
717.561	0.23
717.588	-12.77
717.614	-8.77
717.641	-9.77
717.667	3.23
717.694	-0.77
717.72	-5.77
717.747	-5.77
717.773	-0.77
717.8	2.23
717.826	1.23
717.853	0.23
717.88	9.23
717.906	-7.77
717.933	0.23
717.959	-8.77
717.986	6.23
718.012	-9.77
718.039	0.23
718.065	7.23
718.092	5.23
718.118	-7.77
718.144	-8.77
718.171	8.23
718.197	23.23
718.224	-5.77
718.25	8.23
718.277	4.23
718.303	-3.77
718.33	-2.77
718.356	-7.77
718.383	-19.77
718.409	2.23
718.436	-8.77
718.462	-9.77
718.489	-2.77
718.515	8.23
718.541	11.23
718.568	4.23
718.594	0.23
718.621	3.23
718.647	-4.77
718.674	6.23
718.7	11.23
718.726	-10.77
718.753	6.23
718.779	3.23
718.806	10.23
718.832	5.23
718.858	7.23
718.885	-12.77
718.911	7.23
718.938	3.23
718.964	-13.77
718.99	1.23
719.017	2.23
719.043	-1.77
719.07	9.23
719.096	-16.77
719.122	1.23
719.149	4.23
719.175	16.23
719.201	-0.77
719.228	-10.77
719.254	2.23
719.281	-8.77
719.307	-5.77
719.333	-10.77
719.36	3.23
719.386	-3.77
719.412	5.23
719.439	-8.77
719.465	-15.77
719.491	-11.77
719.518	7.23
719.544	3.23
719.57	2.23
719.597	-0.77
719.623	-16.77
719.649	14.23
719.675	8.23
719.702	5.23
719.728	27.23
719.754	-7.77
719.781	-11.77
719.807	-5.77
719.833	-4.77
719.86	4.23
719.886	-9.77
719.912	-7.77
719.938	-5.77
719.965	5.23
719.991	12.23
720.017	-4.77
720.044	1.23
720.07	11.23
720.096	16.23
720.122	4.23
720.149	12.23
720.175	30.23
720.201	11.23
720.227	3.23
720.254	0.23
720.28	-5.77
720.306	3.23
720.332	-1.77
720.359	12.23
720.385	30.23
720.411	12.23
720.437	16.23
720.463	8.23
720.49	10.23
720.516	-8.77
720.542	-4.77
720.568	-0.77
720.595	7.23
720.621	7.23
720.647	11.23
720.673	2.23
720.699	-4.77
720.725	-1.77
720.752	6.23
720.778	0.23
720.804	-3.77
720.83	0.23
720.856	-1.77
720.883	-9.77
720.909	7.23
720.935	12.23
720.961	2.23
720.987	-12.77
721.013	2.23
721.04	-4.77
721.066	-7.77
721.092	-1.77
721.118	11.23
721.144	6.23
721.17	1.23
721.196	-9.77
721.223	-13.77
721.249	-0.77
721.275	14.23
721.301	12.23
721.327	20.23
721.353	11.23
721.379	3.23
721.405	-4.77
721.432	15.23
721.458	-3.77
721.484	0.23
721.51	-5.77
721.536	-4.77
721.562	1.23
721.588	17.23
721.614	3.23
721.64	-2.77
721.666	2.23
721.693	-8.77
721.719	-5.77
721.745	-8.77
721.771	7.23
721.797	-0.77
721.823	8.23
721.849	14.23
721.875	3.23
721.901	10.23
721.927	9.23
721.953	-1.77
721.979	11.23
722.005	34.23
722.031	-3.77
722.057	6.23
722.083	-10.77
722.109	8.23
722.135	17.23
722.161	19.23
722.187	-1.77
722.214	-8.77
722.24	-4.77
722.266	-6.77
722.292	3.23
722.318	23.23
722.344	8.23
722.37	3.23
722.396	16.23
722.422	-7.77
722.448	18.23
722.474	-5.77
722.5	6.23
722.526	7.23
722.552	9.23
722.578	-2.77
722.603	8.23
722.629	-9.77
722.655	-1.77
722.681	-12.77
722.707	-5.77
722.733	-16.77
722.759	0.23
722.785	-0.77
722.811	3.23
722.837	-0.77
722.863	12.23
722.889	13.23
722.915	4.23
722.941	-1.77
722.967	2.23
722.993	15.23
723.019	7.23
723.045	5.23
723.071	0.23
723.097	0.23
723.122	-0.77
723.148	-0.77
723.174	6.23
723.2	13.23
723.226	-4.77
723.252	-3.77
723.278	-4.77
723.304	-7.77
723.33	-11.77
723.356	-7.77
723.381	-13.77
723.407	-7.77
723.433	0.23
723.459	-10.77
723.485	9.23
723.511	-0.77
723.537	-7.77
723.563	-0.77
723.588	-4.77
723.614	6.23
723.64	3.23
723.666	-16.77
723.692	19.23
723.718	-3.77
723.744	-10.77
723.769	-5.77
723.795	-4.77
723.821	6.23
723.847	-1.77
723.873	4.23
723.899	4.23
723.924	-12.77
723.95	-1.77
723.976	-12.77
724.002	9.23
724.028	8.23
724.053	-0.77
724.079	-5.77
724.105	10.23
724.131	-0.77
724.157	-0.77
724.182	9.23
724.208	13.23
724.234	2.23
724.26	-4.77
724.286	15.23
724.311	0.23
724.337	10.23
724.363	-0.77
724.389	7.23
724.415	2.23
724.44	14.23
724.466	7.23
724.492	1.23
724.518	-1.77
724.543	1.23
724.569	-3.77
724.595	1.23
724.621	-5.77
724.646	-5.77
724.672	-6.77
724.698	-23.77
724.723	-11.77
724.749	3.23
724.775	19.23
724.801	21.23
724.826	4.23
724.852	-7.77
724.878	14.23
724.904	-15.77
724.929	-0.77
724.955	-16.77
724.981	-1.77
725.006	7.23
725.032	7.23
725.058	2.23
725.083	-5.77
725.109	-5.77
725.135	10.23
725.161	2.23
725.186	-4.77
725.212	-6.77
725.238	1.23
725.263	-13.77
725.289	-19.77
725.315	-4.77
725.34	0.23
725.366	7.23
725.392	0.23
725.417	-8.77
725.443	-7.77
725.468	-15.77
725.494	10.23
725.52	-1.77
725.545	-14.77
725.571	0.23
725.597	-4.77
725.622	0.23
725.648	7.23
725.674	7.23
725.699	4.23
725.725	8.23
725.75	35.23
725.776	3.23
725.802	-3.77
725.827	-17.77
725.853	-17.77
725.878	-9.77
725.904	-7.77
725.93	6.23
725.955	-3.77
725.981	10.23
726.006	-1.77
726.032	-1.77
726.057	4.23
726.083	-7.77
726.109	17.23
726.134	3.23
726.16	12.23
726.185	-0.77
726.211	-5.77
726.236	9.23
726.262	9.23
726.288	10.23
726.313	14.23
726.339	11.23
726.364	10.23
726.39	15.23
726.415	8.23
726.441	-4.77
726.466	-17.77
726.492	7.23
726.517	-6.77
726.543	0.23
726.568	-8.77
726.594	-4.77
726.619	-8.77
726.645	4.23
726.67	-7.77
726.696	1.23
726.721	-8.77
726.747	-16.77
726.772	-2.77
726.798	-3.77
726.823	-7.77
726.849	3.23
726.874	4.23
726.9	20.23
726.925	16.23
726.951	-5.77
726.976	11.23
727.002	3.23
727.027	14.23
727.053	13.23
727.078	-12.77
727.104	-4.77
727.129	-15.77
727.155	-1.77
727.18	2.23
727.205	-0.77
727.231	2.23
727.256	-1.77
727.282	-1.77
727.307	18.23
727.333	-4.77
727.358	-13.77
727.383	-8.77
727.409	-0.77
727.434	15.23
727.46	-8.77
727.485	-8.77
727.511	-8.77
727.536	-4.77
727.561	-19.77
727.587	-0.77
727.612	-0.77
727.637	-3.77
727.663	-15.77
727.688	9.23
727.714	1.23
727.739	-14.77
727.764	-9.77
727.79	-7.77
727.815	2.23
727.841	17.23
727.866	14.23
727.891	5.23
727.917	-10.77
727.942	-20.77
727.967	-1.77
727.993	-13.77
728.018	-5.77
728.043	9.23
728.069	6.23
728.094	4.23
728.119	9.23
728.145	6.23
728.17	7.23
728.195	0.23
728.221	11.23
728.246	3.23
728.271	-7.77
728.297	-3.77
728.322	-7.77
728.347	-6.77
728.373	9.23
728.398	3.23
728.423	-4.77
728.448	2.23
728.474	4.23
728.499	14.23
728.524	-10.77
728.55	-5.77
728.575	1.23
728.6	4.23
728.625	-4.77
728.651	1.23
728.676	2.23
728.701	-2.77
728.727	1.23
728.752	-8.77
728.777	2.23
728.802	-0.77
728.828	13.23
728.853	4.23
728.878	7.23
728.903	-5.77
728.929	-17.77
728.954	-13.77
728.979	11.23
729.004	-6.77
729.03	-12.77
729.055	14.23
729.08	-14.77
729.105	-6.77
729.13	11.23
729.156	10.23
729.181	1.23
729.206	-14.77
729.231	-16.77
729.256	0.23
729.282	7.23
729.307	-14.77
729.332	-1.77
729.357	-11.77
729.382	-6.77
729.408	-1.77
729.433	13.23
729.458	12.23
729.483	3.23
729.508	21.23
729.533	8.23
729.559	4.23
729.584	-12.77
729.609	8.23
729.634	17.23
729.659	-0.77
729.684	-5.77
729.71	18.23
729.735	4.23
729.76	-19.77
729.785	-5.77
729.81	10.23
729.835	0.23
729.86	-11.77
729.886	4.23
729.911	-15.77
729.936	-1.77
729.961	0.23
729.986	-9.77
730.011	-11.77
730.036	-4.77
730.061	-4.77
730.086	19.23
730.112	11.23
730.137	14.23
730.162	-8.77
730.187	-28.77
730.212	14.23
730.237	-0.77
730.262	-3.77
730.287	-13.77
730.312	11.23
730.337	13.23
730.362	-1.77
730.387	-0.77
730.413	-11.77
730.438	-19.77
730.463	-10.77
730.488	-2.77
730.513	-4.77
730.538	-9.77
730.563	19.23
730.588	10.23
730.613	7.23
730.638	-5.77
730.663	-4.77
730.688	18.23
730.713	5.23
730.738	9.23
730.763	-1.77
730.788	-5.77
730.813	6.23
730.838	8.23
730.863	-8.77
730.888	-12.77
730.913	-19.77
730.938	-19.77
730.963	-4.77
730.988	2.23
731.013	24.23
731.038	4.23
731.063	-8.77
731.088	5.23
731.113	-3.77
731.138	2.23
731.163	-5.77
731.188	-20.77
731.213	-5.77
731.238	-1.77
731.263	-6.77
731.288	-21.77
731.313	5.23
731.338	2.23
731.363	-3.77
731.388	-13.77
731.413	-9.77
731.438	15.23
731.463	-1.77
731.487	-5.77
731.512	-6.77
731.537	-17.77
731.562	-3.77
731.587	-1.77
731.612	-27.77
731.637	2.23
731.662	-0.77
731.687	-4.77
731.712	-4.77
731.737	6.23
731.762	-13.77
731.786	-3.77
731.811	0.23
731.836	1.23
731.861	8.23
731.886	-7.77
731.911	11.23
731.936	4.23
731.961	2.23
731.986	-5.77
732.01	-11.77
732.035	7.23
732.06	15.23
732.085	-13.77
732.11	17.23
732.135	-0.77
732.16	-3.77
732.184	-4.77
732.209	6.23
732.234	12.23
732.259	6.23
732.284	11.23
732.309	-1.77
732.334	-11.77
732.358	-17.77
732.383	-12.77
732.408	-4.77
732.433	2.23
732.458	2.23
732.482	-1.77
732.507	0.23
732.532	2.23
732.557	5.23
732.582	6.23
732.607	-0.77
732.631	-6.77
732.656	-16.77
732.681	-6.77
732.706	-6.77
732.73	0.23
732.755	-5.77
732.78	1.23
732.805	2.23
732.83	-16.77
732.854	-4.77
732.879	3.23
732.904	-9.77
732.929	0.23
732.953	1.23
732.978	10.23
733.003	-12.77
733.028	-3.77
733.052	10.23
733.077	-3.77
733.102	-1.77
733.127	-9.77
733.151	1.23
733.176	10.23
733.201	5.23
733.226	-1.77
733.25	9.23
733.275	2.23
733.3	-1.77
733.324	13.23
733.349	-0.77
733.374	2.23
733.399	-4.77
733.423	11.23
733.448	-6.77
733.473	3.23
733.497	11.23
733.522	8.23
733.547	10.23
733.571	10.23
733.596	-9.77
733.621	-8.77
733.646	-6.77
733.67	0.23
733.695	-0.77
733.72	8.23
733.744	4.23
733.769	5.23
733.794	20.23
733.818	8.23
733.843	-12.77
733.867	-14.77
733.892	-0.77
733.917	-1.77
733.941	-6.77
733.966	-0.77
733.991	-5.77
734.015	18.23
734.04	6.23
734.065	20.23
734.089	5.23
734.114	-1.77
734.138	6.23
734.163	-7.77
734.188	-6.77
734.212	5.23
734.237	0.23
734.261	3.23
734.286	-4.77
734.311	-16.77
734.335	-3.77
734.36	-0.77
734.384	6.23
734.409	5.23
734.434	-5.77
734.458	-0.77
734.483	-14.77
734.507	-7.77
734.532	-6.77
734.556	-7.77
734.581	-14.77
734.606	-1.77
734.63	-0.77
734.655	6.23
734.679	-5.77
734.704	-5.77
734.728	-14.77
734.753	-0.77
734.777	-3.77
734.802	-0.77
734.826	6.23
734.851	-20.77
734.876	8.23
734.9	16.23
734.925	9.23
734.949	8.23
734.974	10.23
734.998	1.23
735.023	1.23
735.047	-10.77
735.072	8.23
735.096	-4.77
735.121	8.23
735.145	16.23
735.17	1.23
735.194	11.23
735.219	-7.77
735.243	-6.77
735.268	6.23
735.292	-4.77
735.317	-10.77
735.341	0.23
735.365	-0.77
735.39	8.23
735.414	9.23
735.439	10.23
735.463	-3.77
735.488	-6.77
735.512	2.23
735.537	-4.77
735.561	1.23
735.586	-11.77
735.61	3.23
735.634	-14.77
735.659	-3.77
735.683	20.23
735.708	-8.77
735.732	-7.77
735.757	3.23
735.781	4.23
735.805	-7.77
735.83	-15.77
735.854	-12.77
735.879	-6.77
735.903	27.23
735.927	-0.77
735.952	-5.77
735.976	-3.77
736.001	-16.77
736.025	-1.77
736.049	0.23
736.074	-8.77
736.098	2.23
736.123	3.23
736.147	-4.77
736.171	-15.77
736.196	2.23
736.22	-5.77
736.244	-2.77
736.269	0.23
736.293	-15.77
736.317	3.23
736.342	12.23
736.366	2.23
736.39	16.23
736.415	11.23
736.439	-4.77
736.463	1.23
736.488	-12.77
736.512	-13.77
736.536	12.23
736.561	16.23
736.585	6.23
736.609	2.23
736.634	-7.77
736.658	-5.77
736.682	-14.77
736.707	-8.77
736.731	-9.77
736.755	0.23
736.78	9.23
736.804	2.23
736.828	-8.77
736.852	-14.77
736.877	-12.77
736.901	-10.77
736.925	6.23
736.949	-5.77
736.974	-0.77
736.998	-0.77
737.022	-0.77
737.047	-8.77
737.071	-2.77
737.095	12.23
737.119	8.23
737.144	-0.77
737.168	-13.77
737.192	23.23
737.216	8.23
737.241	-16.77
737.265	-11.77
737.289	-1.77
737.313	-0.77
737.337	10.23
737.362	-0.77
737.386	-1.77
737.41	-0.77
737.434	8.23
737.459	7.23
737.483	14.23
737.507	21.23
737.531	12.23
737.555	0.23
737.58	-4.77
737.604	4.23
737.628	-6.77
737.652	-12.77
737.676	4.23
737.701	14.23
737.725	-3.77
737.749	-4.77
737.773	-3.77
737.797	-7.77
737.821	0.23
737.846	-9.77
737.87	28.23
737.894	11.23
737.918	-0.77
737.942	4.23
737.966	14.23
737.99	4.23
738.015	9.23
738.039	5.23
738.063	-5.77
738.087	12.23
738.111	-11.77
738.135	7.23
738.159	7.23
738.184	4.23
738.208	7.23
738.232	6.23
738.256	8.23
738.28	-4.77
738.304	3.23
738.328	-3.77
738.352	10.23
738.376	-10.77
738.4	5.23
738.425	13.23
738.449	7.23
738.473	0.23
738.497	1.23
738.521	2.23
738.545	5.23
738.569	4.23
738.593	17.23
738.617	3.23
738.641	-3.77
738.665	-7.77
738.689	6.23
738.713	-13.77
738.737	1.23
738.762	11.23
738.786	-6.77
738.81	-14.77
738.834	18.23
738.858	-0.77
738.882	-0.77
738.906	10.23
738.93	-0.77
738.954	-5.77
738.978	5.23
739.002	2.23
739.026	13.23
739.05	4.23
739.074	-12.77
739.098	5.23
739.122	16.23
739.146	-2.77
739.17	6.23
739.194	1.23
739.218	-7.77
739.242	4.23
739.266	-4.77
739.29	-3.77
739.314	-3.77
739.338	-3.77
739.362	-10.77
739.386	-8.77
739.41	-0.77
739.434	-8.77
739.458	10.23
739.482	-5.77
739.506	1.23
739.53	-8.77
739.554	16.23
739.577	15.23
739.601	13.23
739.625	-4.77
739.649	-5.77
739.673	-1.77
739.697	-0.77
739.721	-2.77
739.745	4.23
739.769	-0.77
739.793	19.23
739.817	19.23
739.841	2.23
739.865	-9.77
739.889	-7.77
739.912	14.23
739.936	-5.77
739.96	8.23
739.984	-0.77
740.008	9.23
740.032	-1.77
740.056	-7.77
740.08	-4.77
740.104	0.23
740.127	3.23
740.151	9.23
740.175	18.23
740.199	9.23
740.223	50.23
740.247	15.23
740.271	-1.77
740.295	-1.77
740.318	-15.77
740.342	-6.77
740.366	10.23
740.39	-0.77
740.414	-17.77
740.438	-16.77
740.461	8.23
740.485	-4.77
740.509	-4.77
740.533	7.23
740.557	-5.77
740.581	-1.77
740.604	-9.77
740.628	6.23
740.652	23.23
740.676	7.23
740.7	8.23
740.723	0.23
740.747	-9.77
740.771	5.23
740.795	-15.77
740.819	1.23
740.842	-17.77
740.866	-1.77
740.89	0.23
740.914	-8.77
740.938	-12.77
740.961	6.23
740.985	7.23
741.009	-3.77
741.033	10.23
741.056	6.23
741.08	4.23
741.104	-7.77
741.128	-3.77
741.151	-1.77
741.175	3.23
741.199	12.23
741.223	8.23
741.246	1.23
741.27	14.23
741.294	9.23
741.318	-12.77
741.341	-9.77
741.365	6.23
741.389	5.23
741.413	5.23
741.436	11.23
741.46	4.23
741.484	7.23
741.507	10.23
741.531	19.23
741.555	23.23
741.579	6.23
741.602	10.23
741.626	6.23
741.65	-8.77
741.673	14.23
741.697	12.23
741.721	0.23
741.744	-19.77
741.768	-3.77
741.792	3.23
741.815	6.23
741.839	16.23
741.863	17.23
741.886	19.23
741.91	10.23
741.934	2.23
741.957	6.23
741.981	6.23
742.005	-7.77
742.028	-10.77
742.052	-0.77
742.075	6.23
742.099	1.23
742.123	-2.77
742.146	2.23
742.17	1.23
742.194	-1.77
742.217	-5.77
742.241	16.23
742.264	17.23
742.288	4.23
742.312	-3.77
742.335	-3.77
742.359	9.23
742.382	9.23
742.406	6.23
742.43	-7.77
742.453	-0.77
742.477	-7.77
742.5	17.23
742.524	-8.77
742.548	7.23
742.571	5.23
742.595	-5.77
742.618	-16.77
742.642	1.23
742.665	14.23
742.689	-9.77
742.712	-4.77
742.736	-11.77
742.76	1.23
742.783	-4.77
742.807	4.23
742.83	11.23
742.854	-13.77
742.877	13.23
742.901	3.23
742.924	-1.77
742.948	-4.77
742.971	-0.77
742.995	-16.77
743.018	-7.77
743.042	-0.77
743.065	2.23
743.089	4.23
743.112	9.23
743.136	-5.77
743.159	0.23
743.183	-13.77
743.206	16.23
743.23	8.23
743.253	11.23
743.277	8.23
743.3	1.23
743.324	-6.77
743.347	-6.77
743.371	27.23
743.394	2.23
743.418	21.23
743.441	4.23
743.465	10.23
743.488	3.23
743.512	4.23
743.535	2.23
743.558	0.23
743.582	10.23
743.605	8.23
743.629	4.23
743.652	12.23
743.676	-2.77
743.699	16.23
743.723	8.23
743.746	6.23
743.769	-11.77
743.793	2.23
743.816	8.23
743.84	11.23
743.863	9.23
743.886	-1.77
743.91	8.23
743.933	3.23
743.957	25.23
743.98	0.23
744.003	2.23
744.027	5.23
744.05	-6.77
744.074	2.23
744.097	-1.77
744.12	8.23
744.144	-7.77
744.167	11.23
744.19	-3.77
744.214	-1.77
744.237	-0.77
744.26	5.23
744.284	-7.77
744.307	-8.77
744.331	8.23
744.354	-20.77
744.377	-12.77
744.401	-1.77
744.424	5.23
744.447	-14.77
744.471	2.23
