Data from HighRes_H2_15_09_11_07_2024_HR4C61891__140__15-11-10-401.txt Node

Date: Thu Nov 07 15:11:10 EST 2024
User: crc00042
Spectrometer: HR4C6189
Trigger mode: 4
Integration Time (sec): 1.000000E-1
Scans to average: 1
Electric dark correction enabled: true
Nonlinearity correction enabled: false
Boxcar width: 0
XAxis mode: Wavelengths
Number of Pixels in Spectrum: 3648
>>>>>Begin Spectral Data<<<<<
639.567	-61.54
639.602	-61.54
639.636	-61.54
639.67	-33.54
639.704	-16.54
639.738	4.46
639.773	5.46
639.807	-4.54
639.841	-9.54
639.875	18.46
639.909	1.46
639.943	-6.54
639.978	-4.54
640.012	-12.54
640.046	13.46
640.08	9.46
640.114	3.46
640.148	-18.54
640.182	-5.54
640.217	3.46
640.251	21.46
640.285	9.46
640.319	-20.54
640.353	-1.54
640.387	14.46
640.421	2.46
640.455	-15.54
640.49	4.46
640.524	2.46
640.558	-6.54
640.592	-10.54
640.626	-11.54
640.66	4.46
640.694	-2.54
640.728	9.46
640.762	16.46
640.796	23.46
640.83	33.46
640.865	9.46
640.899	5.46
640.933	8.46
640.967	5.46
641.001	14.46
641.035	11.46
641.069	13.46
641.103	6.46
641.137	-6.54
641.171	-1.54
641.205	-0.54
641.239	2.46
641.273	0.46
641.307	2.46
641.341	17.46
641.375	-4.54
641.409	-2.54
641.443	-9.54
641.477	7.46
641.511	6.46
641.545	6.46
641.579	-5.54
641.614	11.46
641.648	7.46
641.682	4.46
641.716	18.46
641.75	19.46
641.784	1.46
641.818	-8.54
641.852	5.46
641.886	-2.54
641.919	17.46
641.953	1.46
641.987	-9.54
642.021	-6.54
642.055	24.46
642.089	-1.54
642.123	-1.54
642.157	3.46
642.191	8.46
642.225	-1.54
642.259	-7.54
642.293	11.46
642.327	3.46
642.361	-3.54
642.395	13.46
642.429	17.46
642.463	13.46
642.497	10.46
642.531	5.46
642.565	-16.54
642.599	16.46
642.633	-11.54
642.666	19.46
642.7	6.46
642.734	14.46
642.768	1.46
642.802	3.46
642.836	4.46
642.87	-8.54
642.904	16.46
642.938	4.46
642.972	-4.54
643.005	4.46
643.039	6.46
643.073	7.46
643.107	7.46
643.141	5.46
643.175	12.46
643.209	2.46
643.243	-7.54
643.276	0.46
643.31	-12.54
643.344	-14.54
643.378	-13.54
643.412	2.46
643.446	2.46
643.48	-2.54
643.513	7.46
643.547	14.46
643.581	2.46
643.615	17.46
643.649	10.46
643.683	4.46
643.716	-9.54
643.75	1.46
643.784	-7.54
643.818	2.46
643.852	-10.54
643.886	3.46
643.919	13.46
643.953	-6.54
643.987	15.46
644.021	-6.54
644.055	2.46
644.088	4.46
644.122	5.46
644.156	-11.54
644.19	-6.54
644.224	2.46
644.257	-2.54
644.291	5.46
644.325	11.46
644.359	4.46
644.392	22.46
644.426	11.46
644.46	-13.54
644.494	-2.54
644.527	-0.54
644.561	3.46
644.595	-6.54
644.629	-7.54
644.662	17.46
644.696	15.46
644.73	6.46
644.764	-11.54
644.797	-9.54
644.831	-0.54
644.865	7.46
644.899	13.46
644.932	29.46
644.966	3.46
645	25.46
645.033	13.46
645.067	9.46
645.101	1.46
645.135	3.46
645.168	1.46
645.202	-2.54
645.236	-3.54
645.269	-4.54
645.303	-17.54
645.337	4.46
645.37	12.46
645.404	12.46
645.438	3.46
645.471	5.46
645.505	11.46
645.539	7.46
645.572	-5.54
645.606	-12.54
645.64	7.46
645.673	11.46
645.707	22.46
645.741	0.46
645.774	-24.54
645.808	16.46
645.842	1.46
645.875	9.46
645.909	5.46
645.943	-4.54
645.976	-10.54
646.01	-8.54
646.043	7.46
646.077	11.46
646.111	9.46
646.144	9.46
646.178	7.46
646.212	-4.54
646.245	-7.54
646.279	9.46
646.312	3.46
646.346	23.46
646.38	2.46
646.413	13.46
646.447	2.46
646.48	-6.54
646.514	21.46
646.547	1.46
646.581	-12.54
646.615	-0.54
646.648	-3.54
646.682	0.46
646.715	-4.54
646.749	13.46
646.782	12.46
646.816	3.46
646.85	6.46
646.883	1.46
646.917	2.46
646.95	3.46
646.984	6.46
647.017	15.46
647.051	18.46
647.084	14.46
647.118	-9.54
647.151	6.46
647.185	6.46
647.218	-12.54
647.252	5.46
647.285	-12.54
647.319	-4.54
647.353	10.46
647.386	21.46
647.42	-13.54
647.453	-5.54
647.487	12.46
647.52	11.46
647.553	6.46
647.587	-0.54
647.62	-9.54
647.654	-1.54
647.687	10.46
647.721	17.46
647.754	5.46
647.788	12.46
647.821	-5.54
647.855	3.46
647.888	2.46
647.922	13.46
647.955	2.46
647.989	9.46
648.022	1.46
648.055	8.46
648.089	-2.54
648.122	15.46
648.156	10.46
648.189	-4.54
648.223	6.46
648.256	12.46
648.29	-2.54
648.323	2.46
648.356	18.46
648.39	11.46
648.423	4.46
648.457	11.46
648.49	0.46
648.523	14.46
648.557	-5.54
648.59	4.46
648.624	-4.54
648.657	-0.54
648.69	25.46
648.724	15.46
648.757	7.46
648.791	5.46
648.824	7.46
648.857	31.46
648.891	4.46
648.924	8.46
648.957	21.46
648.991	-12.54
649.024	21.46
649.057	3.46
649.091	-11.54
649.124	7.46
649.158	-5.54
649.191	24.46
649.224	7.46
649.258	4.46
649.291	27.46
649.324	7.46
649.358	-3.54
649.391	4.46
649.424	6.46
649.458	-4.54
649.491	-17.54
649.524	-9.54
649.557	-3.54
649.591	-12.54
649.624	23.46
649.657	-25.54
649.691	-1.54
649.724	10.46
649.757	6.46
649.791	-13.54
649.824	20.46
649.857	-5.54
649.89	9.46
649.924	-6.54
649.957	7.46
649.99	2.46
650.023	13.46
650.057	-10.54
650.09	-3.54
650.123	-12.54
650.157	8.46
650.19	4.46
650.223	-3.54
650.256	-2.54
650.29	3.46
650.323	10.46
650.356	11.46
650.389	-14.54
650.423	-0.54
650.456	3.46
650.489	-3.54
650.522	10.46
650.555	4.46
650.589	10.46
650.622	2.46
650.655	4.46
650.688	4.46
650.721	-1.54
650.755	9.46
650.788	10.46
650.821	-2.54
650.854	6.46
650.887	10.46
650.921	-5.54
650.954	7.46
650.987	19.46
651.02	10.46
651.053	-5.54
651.087	-2.54
651.12	30.46
651.153	6.46
651.186	7.46
651.219	-0.54
651.252	10.46
651.286	7.46
651.319	-4.54
651.352	4.46
651.385	0.46
651.418	2.46
651.451	30.46
651.484	16.46
651.518	4.46
651.551	18.46
651.584	10.46
651.617	37.46
651.65	7.46
651.683	19.46
651.716	11.46
651.749	-3.54
651.783	13.46
651.816	-9.54
651.849	7.46
651.882	25.46
651.915	6.46
651.948	14.46
651.981	19.46
652.014	-6.54
652.047	-10.54
652.08	-9.54
652.114	2.46
652.147	-8.54
652.18	-2.54
652.213	1.46
652.246	-3.54
652.279	-1.54
652.312	8.46
652.345	-5.54
652.378	13.46
652.411	27.46
652.444	19.46
652.477	7.46
652.51	7.46
652.543	3.46
652.576	15.46
652.609	-1.54
652.642	13.46
652.675	28.46
652.709	4.46
652.742	33.46
652.775	6.46
652.808	-12.54
652.841	-7.54
652.874	13.46
652.907	-6.54
652.94	-17.54
652.973	-8.54
653.006	11.46
653.039	-7.54
653.072	4.46
653.105	-6.54
653.138	-11.54
653.171	6.46
653.204	10.46
653.237	22.46
653.27	16.46
653.303	7.46
653.336	11.46
653.368	15.46
653.401	1.46
653.434	-0.54
653.467	13.46
653.5	0.46
653.533	-11.54
653.566	-0.54
653.599	-5.54
653.632	1.46
653.665	7.46
653.698	-0.54
653.731	-17.54
653.764	0.46
653.797	9.46
653.83	7.46
653.863	26.46
653.896	2.46
653.929	-9.54
653.961	16.46
653.994	12.46
654.027	-5.54
654.06	2.46
654.093	-2.54
654.126	8.46
654.159	6.46
654.192	10.46
654.225	-0.54
654.258	12.46
654.29	9.46
654.323	9.46
654.356	10.46
654.389	6.46
654.422	-7.54
654.455	5.46
654.488	19.46
654.521	6.46
654.553	-4.54
654.586	27.46
654.619	3.46
654.652	3.46
654.685	12.46
654.718	21.46
654.751	13.46
654.783	6.46
654.816	30.46
654.849	15.46
654.882	7.46
654.915	-10.54
654.948	7.46
654.98	2.46
655.013	16.46
655.046	7.46
655.079	6.46
655.112	8.46
655.144	3.46
655.177	18.46
655.21	26.46
655.243	5.46
655.276	10.46
655.308	16.46
655.341	-2.54
655.374	22.46
655.407	9.46
655.44	16.46
655.472	6.46
655.505	10.46
655.538	11.46
655.571	10.46
655.603	8.46
655.636	7.46
655.669	36.46
655.702	6.46
655.734	11.46
655.767	22.46
655.8	23.46
655.833	18.46
655.865	24.46
655.898	43.46
655.931	37.46
655.964	62.46
655.996	52.46
656.029	85.46
656.062	58.46
656.095	71.46
656.127	67.46
656.16	108.46
656.193	119.46
656.225	179.46
656.258	283.46
656.291	500.46
656.324	1137.46
656.356	3400.46
656.389	7552.46
656.422	6058.46
656.454	2083.46
656.487	697.46
656.52	276.46
656.552	130.46
656.585	85.46
656.618	54.46
656.65	37.46
656.683	36.46
656.716	28.46
656.748	23.46
656.781	0.46
656.814	9.46
656.846	13.46
656.879	3.46
656.912	8.46
656.944	4.46
656.977	-8.54
657.01	1.46
657.042	4.46
657.075	11.46
657.108	-11.54
657.14	12.46
657.173	14.46
657.205	16.46
657.238	7.46
657.271	11.46
657.303	-22.54
657.336	9.46
657.369	7.46
657.401	19.46
657.434	14.46
657.466	10.46
657.499	-1.54
657.532	18.46
657.564	22.46
657.597	9.46
657.629	9.46
657.662	-3.54
657.694	8.46
657.727	-16.54
657.76	9.46
657.792	6.46
657.825	-5.54
657.857	15.46
657.89	11.46
657.922	17.46
657.955	-0.54
657.987	20.46
658.02	13.46
658.053	3.46
658.085	15.46
658.118	3.46
658.15	4.46
658.183	8.46
658.215	-19.54
658.248	-5.54
658.28	0.46
658.313	35.46
658.345	-6.54
658.378	5.46
658.41	3.46
658.443	11.46
658.475	5.46
658.508	9.46
658.54	-1.54
658.573	2.46
658.605	6.46
658.638	8.46
658.67	14.46
658.703	4.46
658.735	6.46
658.768	1.46
658.8	-9.54
658.833	12.46
658.865	7.46
658.898	4.46
658.93	-7.54
658.963	-2.54
658.995	-5.54
659.028	8.46
659.06	-5.54
659.092	5.46
659.125	-25.54
659.157	11.46
659.19	3.46
659.222	7.46
659.255	8.46
659.287	22.46
659.32	23.46
659.352	5.46
659.384	14.46
659.417	4.46
659.449	5.46
659.482	-3.54
659.514	-17.54
659.546	-6.54
659.579	1.46
659.611	7.46
659.644	-1.54
659.676	-6.54
659.708	-4.54
659.741	2.46
659.773	14.46
659.806	13.46
659.838	7.46
659.87	16.46
659.903	10.46
659.935	-3.54
659.967	-2.54
660	1.46
660.032	-13.54
660.065	18.46
660.097	5.46
660.129	-1.54
660.162	-2.54
660.194	4.46
660.226	24.46
660.259	8.46
660.291	10.46
660.323	10.46
660.356	5.46
660.388	-3.54
660.42	-1.54
660.453	15.46
660.485	15.46
660.517	13.46
660.55	18.46
660.582	-11.54
660.614	10.46
660.647	11.46
660.679	-4.54
660.711	-2.54
660.743	-21.54
660.776	-9.54
660.808	-9.54
660.84	-8.54
660.873	13.46
660.905	-6.54
660.937	6.46
660.969	3.46
661.002	-6.54
661.034	21.46
661.066	-10.54
661.099	11.46
661.131	33.46
661.163	3.46
661.195	-0.54
661.228	26.46
661.26	-1.54
661.292	6.46
661.324	-10.54
661.357	3.46
661.389	14.46
661.421	0.46
661.453	3.46
661.485	6.46
661.518	-2.54
661.55	-16.54
661.582	-6.54
661.614	-7.54
661.647	0.46
661.679	8.46
661.711	-8.54
661.743	-7.54
661.775	1.46
661.808	24.46
661.84	-11.54
661.872	-6.54
661.904	6.46
661.936	6.46
661.969	9.46
662.001	2.46
662.033	7.46
662.065	-6.54
662.097	22.46
662.129	18.46
662.162	-17.54
662.194	12.46
662.226	3.46
662.258	14.46
662.29	-6.54
662.322	-8.54
662.355	4.46
662.387	25.46
662.419	18.46
662.451	16.46
662.483	8.46
662.515	1.46
662.547	-9.54
662.58	-13.54
662.612	8.46
662.644	-9.54
662.676	0.46
662.708	22.46
662.74	4.46
662.772	4.46
662.804	9.46
662.836	3.46
662.869	-8.54
662.901	6.46
662.933	4.46
662.965	18.46
662.997	11.46
663.029	10.46
663.061	9.46
663.093	-5.54
663.125	9.46
663.157	8.46
663.189	-10.54
663.221	13.46
663.254	12.46
663.286	-2.54
663.318	9.46
663.35	-0.54
663.382	-2.54
663.414	12.46
663.446	8.46
663.478	4.46
663.51	39.46
663.542	-5.54
663.574	-6.54
663.606	6.46
663.638	-24.54
663.67	-1.54
663.702	-3.54
663.734	-2.54
663.766	12.46
663.798	5.46
663.83	11.46
663.862	5.46
663.894	7.46
663.926	-5.54
663.958	6.46
663.99	4.46
664.022	-8.54
664.054	9.46
664.086	1.46
664.118	-14.54
664.15	0.46
664.182	12.46
664.214	2.46
664.246	1.46
664.278	8.46
664.31	2.46
664.342	15.46
664.374	2.46
664.406	-2.54
664.438	-0.54
664.47	7.46
664.502	-2.54
664.534	-1.54
664.566	-13.54
664.598	22.46
664.63	-6.54
664.662	3.46
664.693	10.46
664.725	-2.54
664.757	19.46
664.789	3.46
664.821	-0.54
664.853	19.46
664.885	7.46
664.917	-18.54
664.949	17.46
664.981	15.46
665.013	-3.54
665.045	-5.54
665.076	4.46
665.108	-1.54
665.14	4.46
665.172	1.46
665.204	13.46
665.236	-2.54
665.268	33.46
665.3	-2.54
665.331	-6.54
665.363	8.46
665.395	-33.54
665.427	-1.54
665.459	3.46
665.491	9.46
665.523	8.46
665.555	-2.54
665.586	8.46
665.618	-1.54
665.65	-7.54
665.682	6.46
665.714	11.46
665.746	-0.54
665.777	-1.54
665.809	7.46
665.841	13.46
665.873	-0.54
665.905	8.46
665.937	4.46
665.968	7.46
666	-5.54
666.032	9.46
666.064	9.46
666.096	5.46
666.127	12.46
666.159	10.46
666.191	0.46
666.223	14.46
666.255	-7.54
666.286	-0.54
666.318	-4.54
666.35	7.46
666.382	3.46
666.413	2.46
666.445	-5.54
666.477	-15.54
666.509	-5.54
666.54	-4.54
666.572	-5.54
666.604	3.46
666.636	-3.54
666.667	13.46
666.699	7.46
666.731	9.46
666.763	-1.54
666.794	6.46
666.826	9.46
666.858	2.46
666.89	25.46
666.921	10.46
666.953	3.46
666.985	23.46
667.017	9.46
667.048	-3.54
667.08	-6.54
667.112	-3.54
667.143	9.46
667.175	2.46
667.207	-6.54
667.238	13.46
667.27	17.46
667.302	-14.54
667.334	1.46
667.365	21.46
667.397	1.46
667.429	-1.54
667.46	7.46
667.492	9.46
667.524	7.46
667.555	3.46
667.587	-0.54
667.619	-17.54
667.65	-0.54
667.682	3.46
667.714	27.46
667.745	2.46
667.777	12.46
667.808	8.46
667.84	0.46
667.872	6.46
667.903	41.46
667.935	-10.54
667.967	-0.54
667.998	2.46
668.03	-5.54
668.061	14.46
668.093	4.46
668.125	6.46
668.156	7.46
668.188	1.46
668.22	-9.54
668.251	7.46
668.283	9.46
668.314	18.46
668.346	1.46
668.377	15.46
668.409	-6.54
668.441	16.46
668.472	20.46
668.504	-4.54
668.535	-5.54
668.567	26.46
668.599	2.46
668.63	5.46
668.662	6.46
668.693	7.46
668.725	11.46
668.756	21.46
668.788	3.46
668.819	2.46
668.851	7.46
668.882	5.46
668.914	2.46
668.946	1.46
668.977	-21.54
669.009	4.46
669.04	-14.54
669.072	0.46
669.103	5.46
669.135	-7.54
669.166	-13.54
669.198	1.46
669.229	18.46
669.261	6.46
669.292	3.46
669.324	7.46
669.355	22.46
669.387	-7.54
669.418	14.46
669.45	4.46
669.481	4.46
669.513	12.46
669.544	5.46
669.576	-9.54
669.607	17.46
669.639	9.46
669.67	-1.54
669.701	9.46
669.733	10.46
669.764	-5.54
669.796	-10.54
669.827	-1.54
669.859	-2.54
669.89	-10.54
669.922	2.46
669.953	5.46
669.985	-3.54
670.016	17.46
670.047	14.46
670.079	2.46
670.11	21.46
670.142	16.46
670.173	15.46
670.204	-4.54
670.236	8.46
670.267	0.46
670.299	7.46
670.33	4.46
670.362	12.46
670.393	-19.54
670.424	-3.54
670.456	-15.54
670.487	-8.54
670.518	5.46
670.55	-6.54
670.581	5.46
670.613	4.46
670.644	-10.54
670.675	-4.54
670.707	6.46
670.738	5.46
670.769	-3.54
670.801	-8.54
670.832	25.46
670.864	-11.54
670.895	6.46
670.926	10.46
670.958	17.46
670.989	29.46
671.02	-0.54
671.052	0.46
671.083	2.46
671.114	10.46
671.146	-3.54
671.177	5.46
671.208	-11.54
671.24	-4.54
671.271	-9.54
671.302	2.46
671.333	-2.54
671.365	-16.54
671.396	-15.54
671.427	4.46
671.459	3.46
671.49	1.46
671.521	9.46
671.553	5.46
671.584	11.46
671.615	5.46
671.646	7.46
671.678	2.46
671.709	-4.54
671.74	-17.54
671.771	-6.54
671.803	7.46
671.834	8.46
671.865	10.46
671.896	8.46
671.928	7.46
671.959	-10.54
671.99	7.46
672.021	-0.54
672.053	-5.54
672.084	13.46
672.115	11.46
672.146	13.46
672.178	1.46
672.209	-6.54
672.24	8.46
672.271	13.46
672.303	8.46
672.334	-7.54
672.365	0.46
672.396	4.46
672.427	1.46
672.459	11.46
672.49	18.46
672.521	9.46
672.552	15.46
672.583	6.46
672.615	9.46
672.646	8.46
672.677	-12.54
672.708	2.46
672.739	0.46
672.77	20.46
672.802	8.46
672.833	7.46
672.864	17.46
672.895	-0.54
672.926	-9.54
672.957	0.46
672.989	5.46
673.02	21.46
673.051	7.46
673.082	6.46
673.113	-1.54
673.144	11.46
673.175	10.46
673.206	-15.54
673.238	10.46
673.269	6.46
673.3	2.46
673.331	5.46
673.362	23.46
673.393	3.46
673.424	11.46
673.455	7.46
673.487	3.46
673.518	11.46
673.549	-6.54
673.58	-2.54
673.611	6.46
673.642	4.46
673.673	-15.54
673.704	3.46
673.735	-6.54
673.766	0.46
673.797	3.46
673.828	10.46
673.86	8.46
673.891	-4.54
673.922	2.46
673.953	-8.54
673.984	9.46
674.015	29.46
674.046	8.46
674.077	14.46
674.108	-8.54
674.139	-1.54
674.17	-17.54
674.201	-10.54
674.232	-3.54
674.263	-15.54
674.294	12.46
674.325	6.46
674.356	18.46
674.387	26.46
674.418	21.46
674.449	1.46
674.48	-7.54
674.511	5.46
674.542	13.46
674.573	-3.54
674.604	10.46
674.635	-16.54
674.666	1.46
674.697	8.46
674.728	16.46
674.759	-2.54
674.79	-8.54
674.821	-2.54
674.852	3.46
674.883	4.46
674.914	5.46
674.945	-1.54
674.976	7.46
675.007	-2.54
675.038	-13.54
675.069	-6.54
675.1	-1.54
675.131	6.46
675.162	-13.54
675.193	-16.54
675.224	-13.54
675.254	11.46
675.285	10.46
675.316	15.46
675.347	25.46
675.378	-13.54
675.409	3.46
675.44	14.46
675.471	-0.54
675.502	-4.54
675.533	9.46
675.564	-10.54
675.595	4.46
675.625	8.46
675.656	7.46
675.687	8.46
675.718	-2.54
675.749	15.46
675.78	17.46
675.811	-11.54
675.842	-0.54
675.873	0.46
675.903	-3.54
675.934	-4.54
675.965	-1.54
675.996	-3.54
676.027	7.46
676.058	-0.54
676.089	-0.54
676.119	11.46
676.15	10.46
676.181	-4.54
676.212	8.46
676.243	14.46
676.274	6.46
676.304	18.46
676.335	0.46
676.366	6.46
676.397	4.46
676.428	6.46
676.459	2.46
676.489	1.46
676.52	5.46
676.551	-0.54
676.582	2.46
676.613	15.46
676.643	5.46
676.674	22.46
676.705	3.46
676.736	5.46
676.767	14.46
676.797	12.46
676.828	14.46
676.859	1.46
676.89	-11.54
676.92	-4.54
676.951	-0.54
676.982	8.46
677.013	5.46
677.044	14.46
677.074	5.46
677.105	-13.54
677.136	9.46
677.167	6.46
677.197	19.46
677.228	-4.54
677.259	6.46
677.289	3.46
677.32	-18.54
677.351	10.46
677.382	3.46
677.412	-4.54
677.443	14.46
677.474	20.46
677.505	3.46
677.535	11.46
677.566	-5.54
677.597	-9.54
677.627	-5.54
677.658	5.46
677.689	-5.54
677.72	1.46
677.75	-1.54
677.781	5.46
677.812	6.46
677.842	5.46
677.873	18.46
677.904	16.46
677.934	4.46
677.965	4.46
677.996	-21.54
678.026	5.46
678.057	17.46
678.088	9.46
678.118	-5.54
678.149	6.46
678.18	0.46
678.21	-1.54
678.241	-1.54
678.272	-5.54
678.302	13.46
678.333	10.46
678.363	-2.54
678.394	5.46
678.425	6.46
678.455	7.46
678.486	22.46
678.517	6.46
678.547	-3.54
678.578	-4.54
678.608	-8.54
678.639	8.46
678.67	3.46
678.7	0.46
678.731	1.46
678.761	0.46
678.792	10.46
678.823	12.46
678.853	6.46
678.884	-4.54
678.914	15.46
678.945	12.46
678.975	1.46
679.006	8.46
679.037	-2.54
679.067	24.46
679.098	-18.54
679.128	-21.54
679.159	3.46
679.189	6.46
679.22	2.46
679.25	1.46
679.281	7.46
679.312	12.46
679.342	8.46
679.373	16.46
679.403	9.46
679.434	-1.54
679.464	-1.54
679.495	-15.54
679.525	2.46
679.556	-2.54
679.586	-5.54
679.617	-8.54
679.647	-11.54
679.678	-4.54
679.708	11.46
679.739	-0.54
679.769	-0.54
679.8	-6.54
679.83	0.46
679.861	9.46
679.891	2.46
679.922	-1.54
679.952	-8.54
679.983	7.46
680.013	13.46
680.044	1.46
680.074	9.46
680.105	10.46
680.135	2.46
680.165	-4.54
680.196	-6.54
680.226	20.46
680.257	20.46
680.287	-0.54
680.318	-8.54
680.348	-17.54
680.379	21.46
680.409	-7.54
680.439	-3.54
680.47	-20.54
680.5	-12.54
680.531	10.46
680.561	14.46
680.592	6.46
680.622	11.46
680.652	3.46
680.683	13.46
680.713	-10.54
680.744	-1.54
680.774	0.46
680.804	21.46
680.835	-4.54
680.865	-18.54
680.896	20.46
680.926	24.46
680.956	11.46
680.987	-4.54
681.017	-10.54
681.047	-6.54
681.078	-12.54
681.108	4.46
681.139	9.46
681.169	14.46
681.199	1.46
681.23	-1.54
681.26	1.46
681.29	12.46
681.321	-5.54
681.351	-7.54
681.381	7.46
681.412	3.46
681.442	12.46
681.472	18.46
681.503	-10.54
681.533	-1.54
681.563	7.46
681.594	1.46
681.624	2.46
681.654	-0.54
681.685	-3.54
681.715	-1.54
681.745	4.46
681.775	-9.54
681.806	3.46
681.836	7.46
681.866	-9.54
681.897	12.46
681.927	2.46
681.957	-10.54
681.987	10.46
682.018	20.46
682.048	4.46
682.078	-0.54
682.109	12.46
682.139	15.46
682.169	5.46
682.199	10.46
682.23	-1.54
682.26	10.46
682.29	4.46
682.32	-10.54
682.351	7.46
682.381	6.46
682.411	-6.54
682.441	-6.54
682.472	-0.54
682.502	-0.54
682.532	-8.54
682.562	9.46
682.592	13.46
682.623	19.46
682.653	-10.54
682.683	-7.54
682.713	10.46
682.743	3.46
682.774	-3.54
682.804	3.46
682.834	13.46
682.864	-0.54
682.894	1.46
682.925	9.46
682.955	2.46
682.985	-5.54
683.015	-0.54
683.045	-6.54
683.076	1.46
683.106	-7.54
683.136	2.46
683.166	-36.54
683.196	-13.54
683.226	-2.54
683.257	-3.54
683.287	-0.54
683.317	-4.54
683.347	-5.54
683.377	-3.54
683.407	8.46
683.437	21.46
683.468	27.46
683.498	-2.54
683.528	3.46
683.558	3.46
683.588	-1.54
683.618	-11.54
683.648	3.46
683.678	7.46
683.708	20.46
683.739	-2.54
683.769	2.46
683.799	-4.54
683.829	-19.54
683.859	3.46
683.889	9.46
683.919	6.46
683.949	3.46
683.979	-8.54
684.009	4.46
684.039	7.46
684.07	1.46
684.1	19.46
684.13	-3.54
684.16	1.46
684.19	-9.54
684.22	-9.54
684.25	-0.54
684.28	4.46
684.31	3.46
684.34	13.46
684.37	16.46
684.4	-9.54
684.43	4.46
684.46	14.46
684.49	0.46
684.52	4.46
684.55	12.46
684.58	-1.54
684.61	3.46
684.64	5.46
684.67	14.46
684.7	5.46
684.73	11.46
684.76	-3.54
684.79	15.46
684.82	-4.54
684.85	3.46
684.88	-2.54
684.91	3.46
684.94	3.46
684.97	-12.54
685	-3.54
685.03	-14.54
685.06	-2.54
685.09	13.46
685.12	24.46
685.15	-3.54
685.18	-2.54
685.21	7.46
685.24	4.46
685.27	13.46
685.3	11.46
685.33	20.46
685.36	-0.54
685.39	4.46
685.42	-20.54
685.45	3.46
685.48	-13.54
685.51	-4.54
685.54	6.46
685.569	14.46
685.599	-6.54
685.629	7.46
685.659	-3.54
685.689	1.46
685.719	1.46
685.749	6.46
685.779	18.46
685.809	18.46
685.839	21.46
685.869	14.46
685.898	20.46
685.928	5.46
685.958	-4.54
685.988	11.46
686.018	6.46
686.048	11.46
686.078	17.46
686.108	19.46
686.137	0.46
686.167	14.46
686.197	3.46
686.227	-13.54
686.257	16.46
686.287	8.46
686.317	-2.54
686.346	-1.54
686.376	-5.54
686.406	-2.54
686.436	18.46
686.466	-4.54
686.496	12.46
686.525	10.46
686.555	11.46
686.585	9.46
686.615	22.46
686.645	9.46
686.675	-18.54
686.704	5.46
686.734	-1.54
686.764	2.46
686.794	27.46
686.824	-8.54
686.853	13.46
686.883	-2.54
686.913	25.46
686.943	-9.54
686.973	5.46
687.002	7.46
687.032	1.46
687.062	4.46
687.092	11.46
687.121	-15.54
687.151	-2.54
687.181	0.46
687.211	4.46
687.24	-19.54
687.27	14.46
687.3	-2.54
687.33	-4.54
687.359	-16.54
687.389	2.46
687.419	9.46
687.449	19.46
687.478	-1.54
687.508	4.46
687.538	2.46
687.568	-3.54
687.597	-1.54
687.627	12.46
687.657	15.46
687.686	16.46
687.716	19.46
687.746	-2.54
687.776	-2.54
687.805	-4.54
687.835	5.46
687.865	21.46
687.894	3.46
687.924	10.46
687.954	-7.54
687.983	-4.54
688.013	4.46
688.043	18.46
688.072	1.46
688.102	11.46
688.132	7.46
688.161	7.46
688.191	-8.54
688.221	34.46
688.25	1.46
688.28	-2.54
688.31	14.46
688.339	2.46
688.369	-6.54
688.399	-5.54
688.428	2.46
688.458	2.46
688.488	5.46
688.517	1.46
688.547	11.46
688.576	33.46
688.606	13.46
688.636	1.46
688.665	-2.54
688.695	26.46
688.725	11.46
688.754	5.46
688.784	13.46
688.813	19.46
688.843	4.46
688.873	-9.54
688.902	-2.54
688.932	-0.54
688.961	-9.54
688.991	27.46
689.02	12.46
689.05	-10.54
689.08	13.46
689.109	7.46
689.139	-2.54
689.168	-1.54
689.198	8.46
689.227	-0.54
689.257	-0.54
689.287	15.46
689.316	12.46
689.346	3.46
689.375	-0.54
689.405	3.46
689.434	3.46
689.464	0.46
689.493	-3.54
689.523	17.46
689.552	4.46
689.582	-3.54
689.611	-4.54
689.641	24.46
689.67	-4.54
689.7	13.46
689.73	6.46
689.759	-7.54
689.789	10.46
689.818	-8.54
689.848	5.46
689.877	7.46
689.906	7.46
689.936	6.46
689.965	1.46
689.995	1.46
690.024	3.46
690.054	2.46
690.083	5.46
690.113	7.46
690.142	5.46
690.172	19.46
690.201	3.46
690.231	4.46
690.26	29.46
690.29	6.46
690.319	8.46
690.348	0.46
690.378	5.46
690.407	3.46
690.437	-3.54
690.466	-3.54
690.496	2.46
690.525	6.46
690.555	3.46
690.584	4.46
690.613	-0.54
690.643	2.46
690.672	8.46
690.702	11.46
690.731	2.46
690.76	-2.54
690.79	0.46
690.819	-13.54
690.849	0.46
690.878	4.46
690.907	10.46
690.937	16.46
690.966	9.46
690.996	18.46
691.025	13.46
691.054	-8.54
691.084	-4.54
691.113	16.46
691.142	3.46
691.172	10.46
691.201	14.46
691.23	-2.54
691.26	12.46
691.289	1.46
691.319	-8.54
691.348	1.46
691.377	6.46
691.407	14.46
691.436	-0.54
691.465	2.46
691.495	-2.54
691.524	6.46
691.553	-2.54
691.583	-1.54
691.612	24.46
691.641	18.46
691.67	10.46
691.7	8.46
691.729	6.46
691.758	-1.54
691.788	6.46
691.817	-3.54
691.846	2.46
691.876	-9.54
691.905	7.46
691.934	5.46
691.963	11.46
691.993	12.46
692.022	3.46
692.051	-27.54
692.081	12.46
692.11	28.46
692.139	8.46
692.168	22.46
692.198	5.46
692.227	0.46
692.256	10.46
692.285	0.46
692.315	-2.54
692.344	10.46
692.373	16.46
692.402	-7.54
692.432	-5.54
692.461	4.46
692.49	6.46
692.519	3.46
692.548	9.46
692.578	6.46
692.607	-2.54
692.636	1.46
692.665	19.46
692.694	9.46
692.724	12.46
692.753	26.46
692.782	9.46
692.811	-8.54
692.84	-1.54
692.87	2.46
692.899	-20.54
692.928	-4.54
692.957	-0.54
692.986	0.46
693.016	8.46
693.045	1.46
693.074	0.46
693.103	-0.54
693.132	11.46
693.161	3.46
693.191	-5.54
693.22	-10.54
693.249	2.46
693.278	-0.54
693.307	12.46
693.336	0.46
693.365	-4.54
693.395	4.46
693.424	-3.54
693.453	27.46
693.482	5.46
693.511	3.46
693.54	-0.54
693.569	5.46
693.598	16.46
693.628	11.46
693.657	12.46
693.686	9.46
693.715	6.46
693.744	25.46
693.773	22.46
693.802	6.46
693.831	-2.54
693.86	0.46
693.889	-14.54
693.919	2.46
693.948	6.46
693.977	6.46
694.006	11.46
694.035	9.46
694.064	1.46
694.093	2.46
694.122	-14.54
694.151	-0.54
694.18	1.46
694.209	20.46
694.238	2.46
694.267	23.46
694.296	29.46
694.325	20.46
694.354	12.46
694.383	-2.54
694.412	2.46
694.441	11.46
694.471	2.46
694.5	-7.54
694.529	9.46
694.558	33.46
694.587	19.46
694.616	-4.54
694.645	-2.54
694.674	15.46
694.703	28.46
694.732	12.46
694.761	24.46
694.79	17.46
694.819	-8.54
694.848	3.46
694.877	17.46
694.906	28.46
694.935	5.46
694.963	24.46
694.992	12.46
695.021	9.46
695.05	20.46
695.079	-0.54
695.108	-7.54
695.137	-0.54
695.166	10.46
695.195	2.46
695.224	12.46
695.253	12.46
695.282	-3.54
695.311	2.46
695.34	-3.54
695.369	23.46
695.398	19.46
695.427	10.46
695.456	5.46
695.485	18.46
695.513	-7.54
695.542	11.46
695.571	-2.54
695.6	22.46
695.629	12.46
695.658	10.46
695.687	0.46
695.716	8.46
695.745	22.46
695.774	-17.54
695.802	-21.54
695.831	5.46
695.86	8.46
695.889	10.46
695.918	7.46
695.947	-0.54
695.976	-3.54
696.005	0.46
696.033	9.46
696.062	8.46
696.091	7.46
696.12	10.46
696.149	22.46
696.178	-0.54
696.207	15.46
696.235	-10.54
696.264	12.46
696.293	8.46
696.322	-1.54
696.351	10.46
696.38	1.46
696.408	16.46
696.437	6.46
696.466	17.46
696.495	21.46
696.524	3.46
696.553	15.46
696.581	11.46
696.61	-4.54
696.639	-6.54
696.668	0.46
696.697	9.46
696.725	13.46
696.754	11.46
696.783	-7.54
696.812	9.46
696.84	14.46
696.869	10.46
696.898	-1.54
696.927	12.46
696.956	4.46
696.984	3.46
697.013	-8.54
697.042	-9.54
697.071	6.46
697.099	20.46
697.128	14.46
697.157	22.46
697.186	18.46
697.214	8.46
697.243	-7.54
697.272	-6.54
697.301	19.46
697.329	34.46
697.358	14.46
697.387	13.46
697.415	2.46
697.444	12.46
697.473	13.46
697.502	0.46
697.53	22.46
697.559	-6.54
697.588	4.46
697.616	13.46
697.645	4.46
697.674	31.46
697.703	3.46
697.731	6.46
697.76	14.46
697.789	12.46
697.817	8.46
697.846	28.46
697.875	6.46
697.903	30.46
697.932	5.46
697.961	11.46
697.989	14.46
698.018	15.46
698.047	9.46
698.075	9.46
698.104	0.46
698.133	11.46
698.161	1.46
698.19	1.46
698.218	14.46
698.247	9.46
698.276	2.46
698.304	-1.54
698.333	10.46
698.362	3.46
698.39	-3.54
698.419	8.46
698.447	-0.54
698.476	3.46
698.505	14.46
698.533	5.46
698.562	-3.54
698.591	-1.54
698.619	-2.54
698.648	4.46
698.676	12.46
698.705	-0.54
698.733	1.46
698.762	2.46
698.791	5.46
698.819	-5.54
698.848	13.46
698.876	4.46
698.905	21.46
698.933	2.46
698.962	-1.54
698.991	-3.54
699.019	10.46
699.048	-0.54
699.076	3.46
699.105	-1.54
699.133	4.46
699.162	8.46
699.19	23.46
699.219	9.46
699.248	22.46
699.276	-0.54
699.305	8.46
699.333	7.46
699.362	-11.54
699.39	1.46
699.419	-13.54
699.447	8.46
699.476	14.46
699.504	-0.54
699.533	1.46
699.561	-10.54
699.59	-0.54
699.618	3.46
699.647	0.46
699.675	9.46
699.704	21.46
699.732	8.46
699.761	4.46
699.789	1.46
699.818	6.46
699.846	-8.54
699.874	-9.54
699.903	-3.54
699.931	-10.54
699.96	15.46
699.988	6.46
700.017	-1.54
700.045	-0.54
700.074	20.46
700.102	11.46
700.13	9.46
700.159	11.46
700.187	7.46
700.216	11.46
700.244	-12.54
700.273	6.46
700.301	14.46
700.329	27.46
700.358	29.46
700.386	4.46
700.415	7.46
700.443	3.46
700.472	4.46
700.5	1.46
700.528	19.46
700.557	6.46
700.585	7.46
700.614	5.46
700.642	19.46
700.67	23.46
700.699	8.46
700.727	4.46
700.755	4.46
700.784	0.46
700.812	4.46
700.841	10.46
700.869	16.46
700.897	-0.54
700.926	-1.54
700.954	3.46
700.982	16.46
701.011	8.46
701.039	10.46
701.067	13.46
701.096	23.46
701.124	-1.54
701.152	12.46
701.181	7.46
701.209	6.46
701.237	6.46
701.266	-8.54
701.294	7.46
701.322	14.46
701.351	11.46
701.379	17.46
701.407	-7.54
701.435	7.46
701.464	20.46
701.492	36.46
701.52	-2.54
701.549	9.46
701.577	2.46
701.605	-5.54
701.634	-0.54
701.662	28.46
701.69	-8.54
701.718	1.46
701.747	25.46
701.775	11.46
701.803	0.46
701.831	24.46
701.86	2.46
701.888	2.46
701.916	6.46
701.944	4.46
701.973	2.46
702.001	-3.54
702.029	1.46
702.057	11.46
702.086	-0.54
702.114	-8.54
702.142	-3.54
702.17	-5.54
702.199	-0.54
702.227	6.46
702.255	-0.54
702.283	-2.54
702.311	8.46
702.34	1.46
702.368	-11.54
702.396	-2.54
702.424	4.46
702.452	0.46
702.481	9.46
702.509	14.46
702.537	2.46
702.565	27.46
702.593	1.46
702.621	-0.54
702.65	11.46
702.678	11.46
702.706	8.46
702.734	-6.54
702.762	6.46
702.79	9.46
702.819	-3.54
702.847	6.46
702.875	12.46
702.903	14.46
702.931	1.46
702.959	6.46
702.988	6.46
703.016	-2.54
703.044	-4.54
703.072	10.46
703.1	6.46
703.128	-7.54
703.156	19.46
703.184	-5.54
703.212	4.46
703.241	15.46
703.269	10.46
703.297	-0.54
703.325	-5.54
703.353	11.46
703.381	2.46
703.409	-4.54
703.437	-1.54
703.465	15.46
703.493	-0.54
703.522	2.46
703.55	12.46
703.578	13.46
703.606	-3.54
703.634	-7.54
703.662	-10.54
703.69	6.46
703.718	14.46
703.746	22.46
703.774	7.46
703.802	14.46
703.83	3.46
703.858	6.46
703.886	4.46
703.914	-2.54
703.942	18.46
703.97	2.46
703.998	-7.54
704.027	13.46
704.055	15.46
704.083	2.46
704.111	-5.54
704.139	7.46
704.167	9.46
704.195	5.46
704.223	-8.54
704.251	-9.54
704.279	6.46
704.307	15.46
704.335	-7.54
704.363	2.46
704.391	-13.54
704.419	-4.54
704.447	-8.54
704.475	-6.54
704.503	-14.54
704.531	3.46
704.558	13.46
704.586	-7.54
704.614	-11.54
704.642	1.46
704.67	-7.54
704.698	-5.54
704.726	2.46
704.754	4.46
704.782	13.46
704.81	0.46
704.838	6.46
704.866	1.46
704.894	-12.54
704.922	-5.54
704.95	17.46
704.978	18.46
705.006	-0.54
705.034	5.46
705.061	0.46
705.089	-3.54
705.117	-0.54
705.145	1.46
705.173	-0.54
705.201	3.46
705.229	-1.54
705.257	-1.54
705.285	-1.54
705.313	11.46
705.34	5.46
705.368	-1.54
705.396	1.46
705.424	21.46
705.452	-1.54
705.48	2.46
705.508	-2.54
705.536	-3.54
705.563	-2.54
705.591	2.46
705.619	18.46
705.647	-8.54
705.675	4.46
705.703	4.46
705.731	11.46
705.758	2.46
705.786	3.46
705.814	9.46
705.842	10.46
705.87	11.46
705.898	13.46
705.925	0.46
705.953	3.46
705.981	-7.54
706.009	-9.54
706.037	18.46
706.065	18.46
706.092	-8.54
706.12	-4.54
706.148	8.46
706.176	4.46
706.204	16.46
706.231	31.46
706.259	1.46
706.287	-6.54
706.315	7.46
706.342	0.46
706.37	3.46
706.398	4.46
706.426	-4.54
706.454	-3.54
706.481	9.46
706.509	11.46
706.537	6.46
706.565	5.46
706.592	12.46
706.62	-9.54
706.648	15.46
706.676	-12.54
706.703	15.46
706.731	1.46
706.759	-14.54
706.787	13.46
706.814	3.46
706.842	3.46
706.87	-0.54
706.897	8.46
706.925	-11.54
706.953	10.46
706.981	12.46
707.008	6.46
707.036	21.46
707.064	-0.54
707.091	-0.54
707.119	26.46
707.147	6.46
707.174	-0.54
707.202	7.46
707.23	-6.54
707.258	17.46
707.285	7.46
707.313	-6.54
707.341	-4.54
707.368	-10.54
707.396	6.46
707.424	33.46
707.451	12.46
707.479	9.46
707.507	7.46
707.534	-3.54
707.562	-9.54
707.59	-5.54
707.617	-12.54
707.645	1.46
707.672	13.46
707.7	18.46
707.728	23.46
707.755	17.46
707.783	6.46
707.811	12.46
707.838	-4.54
707.866	-1.54
707.893	-8.54
707.921	-25.54
707.949	-15.54
707.976	-0.54
708.004	-1.54
708.031	-18.54
708.059	-9.54
708.087	-1.54
708.114	6.46
708.142	-5.54
708.169	7.46
708.197	-10.54
708.225	-3.54
708.252	3.46
708.28	11.46
708.307	14.46
708.335	-10.54
708.362	-16.54
708.39	-22.54
708.418	-1.54
708.445	-0.54
708.473	-1.54
708.5	-6.54
708.528	3.46
708.555	-4.54
708.583	8.46
708.61	4.46
708.638	-0.54
708.665	0.46
708.693	6.46
708.72	-4.54
708.748	3.46
708.776	5.46
708.803	27.46
708.831	4.46
708.858	8.46
708.886	5.46
708.913	2.46
708.941	-8.54
708.968	7.46
708.996	0.46
709.023	14.46
709.051	-9.54
709.078	-1.54
709.105	11.46
709.133	-0.54
709.16	7.46
709.188	7.46
709.215	-0.54
709.243	4.46
709.27	-11.54
709.298	-5.54
709.325	-2.54
709.353	-1.54
709.38	4.46
709.408	10.46
709.435	4.46
709.462	-6.54
709.49	-6.54
709.517	-9.54
709.545	-9.54
709.572	-6.54
709.6	15.46
709.627	2.46
709.655	-7.54
709.682	-0.54
709.709	8.46
709.737	2.46
709.764	-2.54
709.792	9.46
709.819	8.46
709.846	-3.54
709.874	13.46
709.901	12.46
709.929	18.46
709.956	8.46
709.983	-9.54
710.011	-11.54
710.038	7.46
710.066	1.46
710.093	21.46
710.12	6.46
710.148	-0.54
710.175	-3.54
710.202	-6.54
710.23	-5.54
710.257	11.46
710.284	7.46
710.312	-0.54
710.339	-0.54
710.366	-6.54
710.394	4.46
710.421	1.46
710.448	-11.54
710.476	-6.54
710.503	-6.54
710.53	7.46
710.558	36.46
710.585	-9.54
710.612	2.46
710.64	-3.54
710.667	0.46
710.694	9.46
710.722	10.46
710.749	1.46
710.776	12.46
710.804	27.46
710.831	8.46
710.858	-13.54
710.885	5.46
710.913	2.46
710.94	21.46
710.967	-0.54
710.995	-0.54
711.022	12.46
711.049	-3.54
711.076	-9.54
711.104	11.46
711.131	5.46
711.158	5.46
711.185	12.46
711.213	-10.54
711.24	9.46
711.267	7.46
711.294	-0.54
711.322	-0.54
711.349	-14.54
711.376	3.46
711.403	10.46
711.431	-11.54
711.458	1.46
711.485	3.46
711.512	1.46
711.54	3.46
711.567	-4.54
711.594	-2.54
711.621	-3.54
711.648	2.46
711.676	-2.54
711.703	4.46
711.73	-19.54
711.757	10.46
711.784	-0.54
711.812	1.46
711.839	-2.54
711.866	1.46
711.893	-7.54
711.92	5.46
711.947	-1.54
711.975	27.46
712.002	3.46
712.029	10.46
712.056	5.46
712.083	25.46
712.11	4.46
712.138	4.46
712.165	10.46
712.192	-3.54
712.219	-20.54
712.246	6.46
712.273	-2.54
712.3	-11.54
712.328	3.46
712.355	7.46
712.382	-7.54
712.409	14.46
712.436	-6.54
712.463	9.46
712.49	6.46
712.517	4.46
712.544	-0.54
712.572	3.46
712.599	-8.54
712.626	-0.54
712.653	-9.54
712.68	-9.54
712.707	3.46
712.734	-0.54
712.761	4.46
712.788	8.46
712.815	3.46
712.842	12.46
712.87	-5.54
712.897	-2.54
712.924	-22.54
712.951	-4.54
712.978	9.46
713.005	14.46
713.032	15.46
713.059	1.46
713.086	-4.54
713.113	-10.54
713.14	-11.54
713.167	5.46
713.194	10.46
713.221	-2.54
713.248	5.46
713.275	5.46
713.302	6.46
713.329	12.46
713.356	-4.54
713.383	17.46
713.41	2.46
713.437	-6.54
713.464	-5.54
713.491	26.46
713.518	6.46
713.545	-1.54
713.572	-8.54
713.599	9.46
713.626	-3.54
713.653	17.46
713.68	-3.54
713.707	5.46
713.734	-2.54
713.761	1.46
713.788	-13.54
713.815	9.46
713.842	-4.54
713.869	2.46
713.896	-5.54
713.923	-6.54
713.95	13.46
713.977	2.46
714.004	5.46
714.031	1.46
714.058	-0.54
714.085	-9.54
714.112	10.46
714.139	12.46
714.165	6.46
714.192	-0.54
714.219	5.46
714.246	-4.54
714.273	6.46
714.3	3.46
714.327	3.46
714.354	6.46
714.381	-6.54
714.408	10.46
714.435	6.46
714.461	0.46
714.488	18.46
714.515	-4.54
714.542	-17.54
714.569	4.46
714.596	-10.54
714.623	-7.54
714.65	-4.54
714.677	-9.54
714.703	-4.54
714.73	4.46
714.757	16.46
714.784	30.46
714.811	-7.54
714.838	6.46
714.865	-1.54
714.891	35.46
714.918	7.46
714.945	5.46
714.972	1.46
714.999	10.46
715.026	-1.54
715.052	4.46
715.079	9.46
715.106	5.46
715.133	0.46
715.16	1.46
715.187	22.46
715.213	5.46
715.24	-12.54
715.267	-4.54
715.294	-5.54
715.321	-1.54
715.347	1.46
715.374	-3.54
715.401	-4.54
715.428	6.46
715.455	6.46
715.481	-7.54
715.508	2.46
715.535	-2.54
715.562	19.46
715.588	13.46
715.615	-1.54
715.642	-4.54
715.669	15.46
715.695	-2.54
715.722	11.46
715.749	3.46
715.776	16.46
715.802	5.46
715.829	3.46
715.856	-8.54
715.883	-5.54
715.909	5.46
715.936	-6.54
715.963	-9.54
715.99	-13.54
716.016	-0.54
716.043	-3.54
716.07	-16.54
716.096	-10.54
716.123	7.46
716.15	9.46
716.177	-1.54
716.203	12.46
716.23	24.46
716.257	20.46
716.283	9.46
716.31	-3.54
716.337	11.46
716.363	-5.54
716.39	13.46
716.417	18.46
716.443	2.46
716.47	11.46
716.497	5.46
716.523	10.46
716.55	8.46
716.577	9.46
716.603	-4.54
716.63	6.46
716.657	18.46
716.683	-7.54
716.71	-5.54
716.737	-12.54
716.763	5.46
716.79	11.46
716.817	26.46
716.843	3.46
716.87	-0.54
716.897	-3.54
716.923	17.46
716.95	-6.54
716.976	-4.54
717.003	8.46
717.03	7.46
717.056	5.46
717.083	-1.54
717.109	3.46
717.136	-0.54
717.163	-23.54
717.189	-4.54
717.216	-1.54
717.242	-5.54
717.269	15.46
717.296	14.46
717.322	8.46
717.349	17.46
717.375	7.46
717.402	21.46
717.428	-4.54
717.455	7.46
717.481	-0.54
717.508	5.46
717.535	1.46
717.561	-3.54
717.588	-0.54
717.614	3.46
717.641	-9.54
717.667	-11.54
717.694	-2.54
717.72	-1.54
717.747	12.46
717.773	-0.54
717.8	17.46
717.826	29.46
717.853	12.46
717.88	6.46
717.906	6.46
717.933	11.46
717.959	3.46
717.986	16.46
718.012	7.46
718.039	18.46
718.065	15.46
718.092	-1.54
718.118	-8.54
718.144	-3.54
718.171	11.46
718.197	13.46
718.224	-18.54
718.25	-3.54
718.277	15.46
718.303	-1.54
718.33	5.46
718.356	-9.54
718.383	-12.54
718.409	6.46
718.436	9.46
718.462	-4.54
718.489	-12.54
718.515	4.46
718.541	7.46
718.568	-9.54
718.594	25.46
718.621	7.46
718.647	4.46
718.674	26.46
718.7	27.46
718.726	12.46
718.753	-1.54
718.779	17.46
718.806	-5.54
718.832	-9.54
718.858	9.46
718.885	11.46
718.911	5.46
718.938	9.46
718.964	-2.54
718.99	10.46
719.017	11.46
719.043	8.46
719.07	25.46
719.096	7.46
719.122	23.46
719.149	6.46
719.175	2.46
719.201	6.46
719.228	10.46
719.254	22.46
719.281	9.46
719.307	3.46
719.333	1.46
719.36	12.46
719.386	2.46
719.412	16.46
719.439	0.46
719.465	-4.54
719.491	-5.54
719.518	15.46
719.544	7.46
719.57	14.46
719.597	-0.54
719.623	-6.54
719.649	-3.54
719.675	-15.54
719.702	10.46
719.728	2.46
719.754	5.46
719.781	10.46
719.807	6.46
719.833	13.46
719.86	-2.54
719.886	-1.54
719.912	2.46
719.938	-1.54
719.965	20.46
719.991	24.46
720.017	5.46
720.044	10.46
720.07	9.46
720.096	-2.54
720.122	-6.54
720.149	27.46
720.175	28.46
720.201	3.46
720.227	19.46
720.254	3.46
720.28	-1.54
720.306	-12.54
720.332	9.46
720.359	-7.54
720.385	13.46
720.411	-2.54
720.437	15.46
720.463	2.46
720.49	7.46
720.516	-2.54
720.542	-6.54
720.568	1.46
720.595	27.46
720.621	10.46
720.647	6.46
720.673	-6.54
720.699	2.46
720.725	-0.54
720.752	13.46
720.778	6.46
720.804	10.46
720.83	15.46
720.856	-0.54
720.883	-9.54
720.909	-3.54
720.935	11.46
720.961	20.46
720.987	-5.54
721.013	10.46
721.04	10.46
721.066	1.46
721.092	-10.54
721.118	16.46
721.144	3.46
721.17	-5.54
721.196	0.46
721.223	-0.54
721.249	11.46
721.275	9.46
721.301	9.46
721.327	13.46
721.353	7.46
721.379	4.46
721.405	7.46
721.432	32.46
721.458	7.46
721.484	21.46
721.51	-2.54
721.536	20.46
721.562	2.46
721.588	10.46
721.614	6.46
721.64	5.46
721.666	1.46
721.693	-14.54
721.719	-3.54
721.745	5.46
721.771	6.46
721.797	-0.54
721.823	-2.54
721.849	10.46
721.875	14.46
721.901	6.46
721.927	10.46
721.953	6.46
721.979	16.46
722.005	7.46
722.031	-7.54
722.057	13.46
722.083	15.46
722.109	1.46
722.135	5.46
722.161	20.46
722.187	-1.54
722.214	-5.54
722.24	14.46
722.266	-14.54
722.292	5.46
722.318	14.46
722.344	-3.54
722.37	1.46
722.396	13.46
722.422	10.46
722.448	7.46
722.474	-21.54
722.5	6.46
722.526	7.46
722.552	2.46
722.578	11.46
722.603	17.46
722.629	-9.54
722.655	-1.54
722.681	1.46
722.707	7.46
722.733	5.46
722.759	-12.54
722.785	-1.54
722.811	-4.54
722.837	-4.54
722.863	15.46
722.889	6.46
722.915	5.46
722.941	-6.54
722.967	-2.54
722.993	18.46
723.019	-0.54
723.045	22.46
723.071	14.46
723.097	4.46
723.122	5.46
723.148	-1.54
723.174	0.46
723.2	9.46
723.226	-3.54
723.252	-5.54
723.278	-11.54
723.304	-11.54
723.33	-0.54
723.356	9.46
723.381	-11.54
723.407	-20.54
723.433	7.46
723.459	1.46
723.485	6.46
723.511	12.46
723.537	5.46
723.563	5.46
723.588	3.46
723.614	10.46
723.64	0.46
723.666	5.46
723.692	13.46
723.718	-3.54
723.744	13.46
723.769	-1.54
723.795	5.46
723.821	18.46
723.847	-7.54
723.873	-1.54
723.899	4.46
723.924	0.46
723.95	0.46
723.976	-10.54
724.002	5.46
724.028	6.46
724.053	3.46
724.079	3.46
724.105	3.46
724.131	10.46
724.157	1.46
724.182	5.46
724.208	-3.54
724.234	-6.54
724.26	-10.54
724.286	7.46
724.311	14.46
724.337	2.46
724.363	9.46
724.389	21.46
724.415	12.46
724.44	29.46
724.466	6.46
724.492	6.46
724.518	16.46
724.543	10.46
724.569	-4.54
724.595	10.46
724.621	13.46
724.646	-8.54
724.672	2.46
724.698	1.46
724.723	-9.54
724.749	8.46
724.775	14.46
724.801	6.46
724.826	2.46
724.852	22.46
724.878	7.46
724.904	-12.54
724.929	2.46
724.955	-10.54
724.981	6.46
725.006	3.46
725.032	-1.54
725.058	7.46
725.083	-10.54
725.109	-6.54
725.135	-1.54
725.161	7.46
725.186	14.46
725.212	-3.54
725.238	11.46
725.263	2.46
725.289	-5.54
725.315	-16.54
725.34	-12.54
725.366	3.46
725.392	8.46
725.417	5.46
725.443	17.46
725.468	22.46
725.494	14.46
725.52	2.46
725.545	11.46
725.571	13.46
725.597	6.46
725.622	0.46
725.648	3.46
725.674	29.46
725.699	-1.54
725.725	-0.54
725.75	26.46
725.776	5.46
725.802	3.46
725.827	-1.54
725.853	0.46
725.878	2.46
725.904	5.46
725.93	8.46
725.955	-4.54
725.981	11.46
726.006	1.46
726.032	-4.54
726.057	-20.54
726.083	-11.54
726.109	8.46
726.134	-0.54
726.16	-1.54
726.185	-4.54
726.211	0.46
726.236	1.46
726.262	4.46
726.288	11.46
726.313	14.46
726.339	12.46
726.364	5.46
726.39	22.46
726.415	13.46
726.441	-1.54
726.466	-1.54
726.492	14.46
726.517	14.46
726.543	-1.54
726.568	10.46
726.594	2.46
726.619	10.46
726.645	7.46
726.67	12.46
726.696	4.46
726.721	-10.54
726.747	-7.54
726.772	-8.54
726.798	2.46
726.823	4.46
726.849	8.46
726.874	4.46
726.9	28.46
726.925	22.46
726.951	-12.54
726.976	3.46
727.002	5.46
727.027	4.46
727.053	11.46
727.078	2.46
727.104	0.46
727.129	-5.54
727.155	-12.54
727.18	2.46
727.205	1.46
727.231	-4.54
727.256	5.46
727.282	1.46
727.307	4.46
727.333	2.46
727.358	5.46
727.383	-14.54
727.409	-3.54
727.434	17.46
727.46	-6.54
727.485	3.46
727.511	2.46
727.536	-11.54
727.561	-2.54
727.587	-4.54
727.612	-5.54
727.637	7.46
727.663	-2.54
727.688	18.46
727.714	8.46
727.739	-12.54
727.764	-6.54
727.79	4.46
727.815	2.46
727.841	31.46
727.866	10.46
727.891	12.46
727.917	-13.54
727.942	-13.54
727.967	9.46
727.993	-15.54
728.018	10.46
728.043	-1.54
728.069	1.46
728.094	13.46
728.119	-4.54
728.145	11.46
728.17	9.46
728.195	4.46
728.221	14.46
728.246	13.46
728.271	-24.54
728.297	-7.54
728.322	11.46
728.347	5.46
728.373	4.46
728.398	3.46
728.423	-4.54
728.448	-7.54
728.474	-3.54
728.499	24.46
728.524	2.46
728.55	-10.54
728.575	-13.54
728.6	0.46
728.625	14.46
728.651	1.46
728.676	-4.54
728.701	-1.54
728.727	-0.54
728.752	-6.54
728.777	10.46
728.802	24.46
728.828	-1.54
728.853	1.46
728.878	10.46
728.903	-3.54
728.929	-5.54
728.954	-12.54
728.979	15.46
729.004	6.46
729.03	7.46
729.055	11.46
729.08	-0.54
729.105	2.46
729.13	-7.54
729.156	5.46
729.181	-0.54
729.206	-26.54
729.231	-17.54
729.256	11.46
729.282	-1.54
729.307	-10.54
729.332	6.46
729.357	8.46
729.382	3.46
729.408	-2.54
729.433	7.46
729.458	-7.54
729.483	4.46
729.508	9.46
729.533	4.46
729.559	1.46
729.584	-5.54
729.609	15.46
729.634	2.46
729.659	-12.54
729.684	-7.54
729.71	21.46
729.735	11.46
729.76	-2.54
729.785	10.46
729.81	6.46
729.835	-19.54
729.86	-13.54
729.886	6.46
729.911	23.46
729.936	1.46
729.961	-3.54
729.986	-12.54
730.011	14.46
730.036	-0.54
730.061	-1.54
730.086	11.46
730.112	9.46
730.137	10.46
730.162	-0.54
730.187	-5.54
730.212	9.46
730.237	-0.54
730.262	-1.54
730.287	-5.54
730.312	1.46
730.337	-0.54
730.362	16.46
730.387	-0.54
730.413	1.46
730.438	-4.54
730.463	1.46
730.488	-7.54
730.513	11.46
730.538	16.46
730.563	13.46
730.588	-1.54
730.613	6.46
730.638	-8.54
730.663	-2.54
730.688	21.46
730.713	9.46
730.738	0.46
730.763	5.46
730.788	-3.54
730.813	5.46
730.838	1.46
730.863	-0.54
730.888	-4.54
730.913	-8.54
730.938	-1.54
730.963	5.46
730.988	-2.54
731.013	4.46
731.038	-16.54
731.063	-3.54
731.088	11.46
731.113	-12.54
731.138	10.46
731.163	3.46
731.188	-13.54
731.213	15.46
731.238	16.46
731.263	-0.54
731.288	-2.54
731.313	3.46
731.338	3.46
731.363	-1.54
731.388	-11.54
731.413	-4.54
731.438	17.46
731.463	2.46
731.487	18.46
731.512	-2.54
731.537	9.46
731.562	-2.54
731.587	7.46
731.612	5.46
731.637	2.46
731.662	2.46
731.687	-9.54
731.712	-19.54
731.737	-1.54
731.762	-0.54
731.786	-6.54
731.811	2.46
731.836	-3.54
731.861	6.46
731.886	-15.54
731.911	-3.54
731.936	1.46
731.961	-5.54
731.986	-4.54
732.01	10.46
732.035	-5.54
732.06	27.46
732.085	6.46
732.11	15.46
732.135	0.46
732.16	13.46
732.184	-9.54
732.209	10.46
732.234	1.46
732.259	-2.54
732.284	12.46
732.309	4.46
732.334	-6.54
732.358	-13.54
732.383	-18.54
732.408	7.46
732.433	-5.54
732.458	9.46
732.482	4.46
732.507	-1.54
732.532	5.46
732.557	-0.54
732.582	10.46
732.607	4.46
732.631	-6.54
732.656	-1.54
732.681	-1.54
732.706	-9.54
732.73	-3.54
732.755	2.46
732.78	-3.54
732.805	18.46
732.83	6.46
732.854	14.46
732.879	16.46
732.904	-5.54
732.929	-10.54
732.953	2.46
732.978	6.46
733.003	9.46
733.028	1.46
733.052	8.46
733.077	-0.54
733.102	18.46
733.127	7.46
733.151	1.46
733.176	2.46
733.201	-6.54
733.226	1.46
733.25	4.46
733.275	3.46
733.3	11.46
733.324	15.46
733.349	16.46
733.374	7.46
733.399	1.46
733.423	-2.54
733.448	-6.54
733.473	2.46
733.497	11.46
733.522	2.46
733.547	5.46
733.571	15.46
733.596	-1.54
733.621	18.46
733.646	8.46
733.67	8.46
733.695	7.46
733.72	2.46
733.744	12.46
733.769	2.46
733.794	22.46
733.818	9.46
733.843	-4.54
733.867	-17.54
733.892	-13.54
733.917	-7.54
733.941	5.46
733.966	-5.54
733.991	-1.54
734.015	20.46
734.04	5.46
734.065	5.46
734.089	9.46
734.114	-9.54
734.138	13.46
734.163	-16.54
734.188	8.46
734.212	5.46
734.237	1.46
734.261	3.46
734.286	0.46
734.311	-0.54
734.335	-7.54
734.36	3.46
734.384	-0.54
734.409	17.46
734.434	2.46
734.458	-1.54
734.483	-10.54
734.507	-7.54
734.532	-1.54
734.556	9.46
734.581	-3.54
734.606	3.46
734.63	-7.54
734.655	-1.54
734.679	11.46
734.704	2.46
734.728	-6.54
734.753	-2.54
734.777	13.46
734.802	-3.54
734.826	10.46
734.851	22.46
734.876	11.46
734.9	16.46
734.925	8.46
734.949	0.46
734.974	-0.54
734.998	13.46
735.023	-9.54
735.047	-17.54
735.072	14.46
735.096	-9.54
735.121	7.46
735.145	-1.54
735.17	-5.54
735.194	11.46
735.219	6.46
735.243	-1.54
735.268	15.46
735.292	11.46
735.317	18.46
735.341	18.46
735.365	7.46
735.39	6.46
735.414	9.46
735.439	8.46
735.463	-7.54
735.488	-6.54
735.512	7.46
735.537	-1.54
735.561	-17.54
735.586	-0.54
735.61	9.46
735.634	-5.54
735.659	-12.54
735.683	8.46
735.708	-12.54
735.732	-1.54
735.757	-6.54
735.781	2.46
735.805	0.46
735.83	-6.54
735.854	-7.54
735.879	-0.54
735.903	30.46
735.927	10.46
735.952	6.46
735.976	-3.54
736.001	5.46
736.025	7.46
736.049	5.46
736.074	5.46
736.098	1.46
736.123	15.46
736.147	1.46
736.171	7.46
736.196	14.46
736.22	-3.54
736.244	6.46
736.269	3.46
736.293	-1.54
736.317	5.46
736.342	2.46
736.366	26.46
736.39	10.46
736.415	7.46
736.439	-5.54
736.463	5.46
736.488	5.46
736.512	5.46
736.536	2.46
736.561	32.46
736.585	-0.54
736.609	20.46
736.634	6.46
736.658	6.46
736.682	-14.54
736.707	-5.54
736.731	-12.54
736.755	7.46
736.78	-1.54
736.804	-7.54
736.828	14.46
736.852	5.46
736.877	4.46
736.901	14.46
736.925	9.46
736.949	-1.54
736.974	-1.54
736.998	-10.54
737.022	-5.54
737.047	-7.54
737.071	-8.54
737.095	1.46
737.119	27.46
737.144	13.46
737.168	9.46
737.192	-5.54
737.216	9.46
737.241	-1.54
737.265	5.46
737.289	5.46
737.313	-7.54
737.337	5.46
737.362	3.46
737.386	5.46
737.41	-3.54
737.434	2.46
737.459	1.46
737.483	3.46
737.507	9.46
737.531	5.46
737.555	10.46
737.58	14.46
737.604	3.46
737.628	-5.54
737.652	-0.54
737.676	-3.54
737.701	6.46
737.725	4.46
737.749	4.46
737.773	2.46
737.797	-8.54
737.821	11.46
737.846	1.46
737.87	26.46
737.894	-8.54
737.918	-18.54
737.942	-2.54
737.966	16.46
737.99	16.46
738.015	22.46
738.039	-0.54
738.063	-9.54
738.087	15.46
738.111	9.46
738.135	22.46
738.159	-5.54
738.184	1.46
738.208	5.46
738.232	11.46
738.256	33.46
738.28	18.46
738.304	1.46
738.328	3.46
738.352	-1.54
738.376	0.46
738.4	0.46
738.425	6.46
738.449	-1.54
738.473	14.46
738.497	2.46
738.521	-0.54
738.545	1.46
738.569	0.46
738.593	3.46
738.617	20.46
738.641	5.46
738.665	5.46
738.689	11.46
738.713	-11.54
738.737	7.46
738.762	25.46
738.786	9.46
738.81	6.46
738.834	26.46
738.858	1.46
738.882	1.46
738.906	-0.54
738.93	21.46
738.954	11.46
738.978	6.46
739.002	1.46
739.026	9.46
739.05	5.46
739.074	-2.54
739.098	18.46
739.122	15.46
739.146	-0.54
739.17	17.46
739.194	25.46
739.218	1.46
739.242	2.46
739.266	10.46
739.29	15.46
739.314	15.46
739.338	7.46
739.362	1.46
739.386	-0.54
739.41	-1.54
739.434	2.46
739.458	14.46
739.482	4.46
739.506	16.46
739.53	13.46
739.554	9.46
739.577	6.46
739.601	17.46
739.625	1.46
739.649	-1.54
739.673	-4.54
739.697	7.46
739.721	-1.54
739.745	-0.54
739.769	13.46
739.793	10.46
739.817	3.46
739.841	-1.54
739.865	-3.54
739.889	4.46
739.912	10.46
739.936	14.46
739.96	6.46
739.984	17.46
740.008	3.46
740.032	9.46
740.056	1.46
740.08	15.46
740.104	-1.54
740.127	10.46
740.151	14.46
740.175	15.46
740.199	26.46
740.223	49.46
740.247	9.46
740.271	13.46
740.295	3.46
740.318	2.46
740.342	-7.54
740.366	-5.54
740.39	26.46
740.414	6.46
740.438	-8.54
740.461	8.46
740.485	-0.54
740.509	-1.54
740.533	12.46
740.557	-2.54
740.581	10.46
740.604	-15.54
740.628	-8.54
740.652	-2.54
740.676	3.46
740.7	2.46
740.723	9.46
740.747	-0.54
740.771	14.46
740.795	2.46
740.819	9.46
740.842	1.46
740.866	2.46
740.89	-0.54
740.914	2.46
740.938	-1.54
740.961	18.46
740.985	19.46
741.009	8.46
741.033	14.46
741.056	14.46
741.08	16.46
741.104	10.46
741.128	2.46
741.151	12.46
741.175	6.46
741.199	12.46
741.223	11.46
741.246	4.46
741.27	7.46
741.294	14.46
741.318	-0.54
741.341	-8.54
741.365	3.46
741.389	10.46
741.413	26.46
741.436	27.46
741.46	15.46
741.484	18.46
741.507	11.46
741.531	29.46
741.555	21.46
741.579	18.46
741.602	11.46
741.626	5.46
741.65	8.46
741.673	15.46
741.697	2.46
741.721	7.46
741.744	-15.54
741.768	-12.54
741.792	-9.54
741.815	-0.54
741.839	15.46
741.863	32.46
741.886	19.46
741.91	9.46
741.934	-6.54
741.957	-4.54
741.981	10.46
742.005	9.46
742.028	-3.54
742.052	6.46
742.075	-2.54
742.099	15.46
742.123	-1.54
742.146	16.46
742.17	15.46
742.194	1.46
742.217	-0.54
742.241	10.46
742.264	7.46
742.288	14.46
742.312	12.46
742.335	16.46
742.359	5.46
742.382	14.46
742.406	24.46
742.43	-8.54
742.453	0.46
742.477	-5.54
742.5	15.46
742.524	-3.54
742.548	-1.54
742.571	1.46
742.595	-3.54
742.618	-10.54
742.642	2.46
742.665	18.46
742.689	3.46
742.712	13.46
742.736	14.46
742.76	4.46
742.783	15.46
742.807	9.46
742.83	27.46
742.854	-1.54
742.877	4.46
742.901	12.46
742.924	0.46
742.948	21.46
742.971	5.46
742.995	1.46
743.018	-2.54
743.042	-0.54
743.065	16.46
743.089	8.46
743.112	17.46
743.136	4.46
743.159	1.46
743.183	-3.54
743.206	7.46
743.23	12.46
743.253	15.46
743.277	9.46
743.3	7.46
743.324	1.46
743.347	5.46
743.371	21.46
743.394	17.46
743.418	23.46
743.441	5.46
743.465	9.46
743.488	8.46
743.512	-4.54
743.535	1.46
743.558	0.46
743.582	5.46
743.605	10.46
743.629	9.46
743.652	26.46
743.676	18.46
743.699	15.46
743.723	8.46
743.746	15.46
743.769	-2.54
743.793	7.46
743.816	1.46
743.84	22.46
743.863	-2.54
743.886	3.46
743.91	8.46
743.933	12.46
743.957	17.46
743.98	-4.54
744.003	-4.54
744.027	-1.54
744.05	-4.54
744.074	5.46
744.097	4.46
744.12	-1.54
744.144	-2.54
744.167	3.46
744.19	6.46
744.214	3.46
744.237	-3.54
744.26	16.46
744.284	-14.54
744.307	-9.54
744.331	1.46
744.354	-2.54
744.377	-5.54
744.401	6.46
744.424	11.46
744.447	3.46
744.471	-6.54
