Data from HighRes_H2_15_09_11_07_2024_HR4C61891__157__15-11-12-101.txt Node

Date: Thu Nov 07 15:11:12 EST 2024
User: crc00042
Spectrometer: HR4C6189
Trigger mode: 4
Integration Time (sec): 1.000000E-1
Scans to average: 1
Electric dark correction enabled: true
Nonlinearity correction enabled: false
Boxcar width: 0
XAxis mode: Wavelengths
Number of Pixels in Spectrum: 3648
>>>>>Begin Spectral Data<<<<<
639.567	-38.54
639.602	-38.54
639.636	-38.54
639.67	-44.54
639.704	-7.54
639.738	-1.54
639.773	2.46
639.807	-4.54
639.841	8.46
639.875	21.46
639.909	-16.54
639.943	-9.54
639.978	3.46
640.012	10.46
640.046	19.46
640.08	-7.54
640.114	-12.54
640.148	-13.54
640.182	-2.54
640.217	-2.54
640.251	9.46
640.285	11.46
640.319	-11.54
640.353	-6.54
640.387	-1.54
640.421	1.46
640.455	3.46
640.49	-10.54
640.524	2.46
640.558	12.46
640.592	-8.54
640.626	4.46
640.66	17.46
640.694	6.46
640.728	4.46
640.762	9.46
640.796	17.46
640.83	16.46
640.865	4.46
640.899	-3.54
640.933	-4.54
640.967	2.46
641.001	25.46
641.035	16.46
641.069	-4.54
641.103	-6.54
641.137	-10.54
641.171	-1.54
641.205	10.46
641.239	4.46
641.273	17.46
641.307	-12.54
641.341	-5.54
641.375	9.46
641.409	-6.54
641.443	-6.54
641.477	-8.54
641.511	19.46
641.545	4.46
641.579	6.46
641.614	12.46
641.648	10.46
641.682	3.46
641.716	9.46
641.75	11.46
641.784	5.46
641.818	-4.54
641.852	5.46
641.886	-7.54
641.919	26.46
641.953	18.46
641.987	-2.54
642.021	-3.54
642.055	10.46
642.089	-3.54
642.123	-1.54
642.157	-14.54
642.191	-11.54
642.225	4.46
642.259	4.46
642.293	4.46
642.327	-7.54
642.361	12.46
642.395	21.46
642.429	20.46
642.463	7.46
642.497	11.46
642.531	9.46
642.565	3.46
642.599	7.46
642.633	-6.54
642.666	16.46
642.7	7.46
642.734	2.46
642.768	-4.54
642.802	-0.54
642.836	-17.54
642.87	4.46
642.904	20.46
642.938	12.46
642.972	7.46
643.005	-0.54
643.039	8.46
643.073	-8.54
643.107	8.46
643.141	8.46
643.175	10.46
643.209	0.46
643.243	7.46
643.276	12.46
643.31	-12.54
643.344	-12.54
643.378	11.46
643.412	18.46
643.446	7.46
643.48	0.46
643.513	14.46
643.547	5.46
643.581	9.46
643.615	10.46
643.649	8.46
643.683	16.46
643.716	5.46
643.75	-7.54
643.784	-12.54
643.818	26.46
643.852	-2.54
643.886	-3.54
643.919	-19.54
643.953	-3.54
643.987	-1.54
644.021	38.46
644.055	2.46
644.088	7.46
644.122	-6.54
644.156	0.46
644.19	13.46
644.224	-5.54
644.257	-0.54
644.291	14.46
644.325	-3.54
644.359	12.46
644.392	5.46
644.426	19.46
644.46	6.46
644.494	15.46
644.527	12.46
644.561	13.46
644.595	5.46
644.629	-4.54
644.662	5.46
644.696	13.46
644.73	8.46
644.764	13.46
644.797	-6.54
644.831	-2.54
644.865	-8.54
644.899	-1.54
644.932	29.46
644.966	15.46
645	18.46
645.033	24.46
645.067	3.46
645.101	17.46
645.135	-5.54
645.168	6.46
645.202	-5.54
645.236	8.46
645.269	8.46
645.303	-3.54
645.337	-7.54
645.37	7.46
645.404	13.46
645.438	13.46
645.471	-3.54
645.505	10.46
645.539	-3.54
645.572	2.46
645.606	-4.54
645.64	0.46
645.673	9.46
645.707	27.46
645.741	10.46
645.774	-20.54
645.808	14.46
645.842	1.46
645.875	3.46
645.909	1.46
645.943	10.46
645.976	15.46
646.01	14.46
646.043	10.46
646.077	9.46
646.111	3.46
646.144	11.46
646.178	7.46
646.212	-1.54
646.245	5.46
646.279	16.46
646.312	13.46
646.346	7.46
646.38	-11.54
646.413	-7.54
646.447	-2.54
646.48	8.46
646.514	-2.54
646.547	-3.54
646.581	-0.54
646.615	-3.54
646.648	2.46
646.682	2.46
646.715	12.46
646.749	10.46
646.782	5.46
646.816	-19.54
646.85	16.46
646.883	7.46
646.917	13.46
646.95	4.46
646.984	14.46
647.017	2.46
647.051	10.46
647.084	28.46
647.118	3.46
647.151	-5.54
647.185	2.46
647.218	-6.54
647.252	11.46
647.285	-4.54
647.319	-16.54
647.353	0.46
647.386	4.46
647.42	-4.54
647.453	4.46
647.487	1.46
647.52	8.46
647.553	15.46
647.587	-0.54
647.62	-10.54
647.654	0.46
647.687	-3.54
647.721	10.46
647.754	-2.54
647.788	1.46
647.821	2.46
647.855	-0.54
647.888	3.46
647.922	21.46
647.955	29.46
647.989	7.46
648.022	5.46
648.055	2.46
648.089	0.46
648.122	21.46
648.156	10.46
648.189	-3.54
648.223	13.46
648.256	16.46
648.29	-1.54
648.323	10.46
648.356	7.46
648.39	19.46
648.423	11.46
648.457	4.46
648.49	3.46
648.523	14.46
648.557	7.46
648.59	3.46
648.624	8.46
648.657	2.46
648.69	12.46
648.724	10.46
648.757	19.46
648.791	14.46
648.824	15.46
648.857	39.46
648.891	12.46
648.924	-1.54
648.957	21.46
648.991	-6.54
649.024	13.46
649.057	0.46
649.091	-10.54
649.124	12.46
649.158	15.46
649.191	25.46
649.224	0.46
649.258	12.46
649.291	15.46
649.324	-4.54
649.358	11.46
649.391	16.46
649.424	21.46
649.458	12.46
649.491	14.46
649.524	-1.54
649.557	-3.54
649.591	-4.54
649.624	8.46
649.657	-4.54
649.691	1.46
649.724	8.46
649.757	13.46
649.791	-1.54
649.824	21.46
649.857	9.46
649.89	-5.54
649.924	-11.54
649.957	1.46
649.99	7.46
650.023	10.46
650.057	4.46
650.09	-4.54
650.123	2.46
650.157	7.46
650.19	14.46
650.223	-8.54
650.256	-9.54
650.29	4.46
650.323	5.46
650.356	11.46
650.389	4.46
650.423	3.46
650.456	26.46
650.489	15.46
650.522	16.46
650.555	31.46
650.589	4.46
650.622	2.46
650.655	21.46
650.688	0.46
650.721	7.46
650.755	5.46
650.788	14.46
650.821	-5.54
650.854	-15.54
650.887	2.46
650.921	6.46
650.954	9.46
650.987	10.46
651.02	3.46
651.053	-29.54
651.087	-17.54
651.12	16.46
651.153	20.46
651.186	-1.54
651.219	3.46
651.252	5.46
651.286	19.46
651.319	-11.54
651.352	11.46
651.385	8.46
651.418	0.46
651.451	19.46
651.484	8.46
651.518	-4.54
651.551	10.46
651.584	-1.54
651.617	11.46
651.65	23.46
651.683	19.46
651.716	6.46
651.749	-17.54
651.783	15.46
651.816	6.46
651.849	11.46
651.882	7.46
651.915	3.46
651.948	7.46
651.981	-13.54
652.014	-6.54
652.047	-5.54
652.08	-8.54
652.114	2.46
652.147	-0.54
652.18	4.46
652.213	30.46
652.246	-3.54
652.279	4.46
652.312	8.46
652.345	8.46
652.378	19.46
652.411	25.46
652.444	9.46
652.477	0.46
652.51	-7.54
652.543	-4.54
652.576	10.46
652.609	-7.54
652.642	-10.54
652.675	16.46
652.709	1.46
652.742	5.46
652.775	13.46
652.808	20.46
652.841	2.46
652.874	8.46
652.907	-8.54
652.94	-2.54
652.973	-6.54
653.006	-5.54
653.039	21.46
653.072	9.46
653.105	5.46
653.138	-4.54
653.171	-0.54
653.204	5.46
653.237	-1.54
653.27	7.46
653.303	22.46
653.336	22.46
653.368	-1.54
653.401	-1.54
653.434	3.46
653.467	9.46
653.5	-5.54
653.533	-11.54
653.566	2.46
653.599	3.46
653.632	-18.54
653.665	4.46
653.698	-2.54
653.731	-6.54
653.764	13.46
653.797	-8.54
653.83	4.46
653.863	5.46
653.896	2.46
653.929	-4.54
653.961	3.46
653.994	16.46
654.027	3.46
654.06	11.46
654.093	1.46
654.126	11.46
654.159	-16.54
654.192	21.46
654.225	8.46
654.258	-6.54
654.29	-1.54
654.323	29.46
654.356	-16.54
654.389	5.46
654.422	0.46
654.455	-8.54
654.488	-6.54
654.521	2.46
654.553	-25.54
654.586	11.46
654.619	10.46
654.652	13.46
654.685	14.46
654.718	13.46
654.751	28.46
654.783	2.46
654.816	19.46
654.849	17.46
654.882	5.46
654.915	-7.54
654.948	7.46
654.98	8.46
655.013	-7.54
655.046	-8.54
655.079	4.46
655.112	1.46
655.144	4.46
655.177	5.46
655.21	14.46
655.243	16.46
655.276	4.46
655.308	5.46
655.341	10.46
655.374	32.46
655.407	5.46
655.44	30.46
655.472	15.46
655.505	-6.54
655.538	21.46
655.571	30.46
655.603	15.46
655.636	0.46
655.669	24.46
655.702	27.46
655.734	24.46
655.767	2.46
655.8	15.46
655.833	24.46
655.865	46.46
655.898	23.46
655.931	39.46
655.964	35.46
655.996	59.46
656.029	70.46
656.062	63.46
656.095	80.46
656.127	74.46
656.16	109.46
656.193	118.46
656.225	194.46
656.258	285.46
656.291	516.46
656.324	1149.46
656.356	3411.46
656.389	7585.46
656.422	6095.46
656.454	2072.46
656.487	691.46
656.52	272.46
656.552	140.46
656.585	72.46
656.618	61.46
656.65	59.46
656.683	32.46
656.716	24.46
656.748	19.46
656.781	6.46
656.814	7.46
656.846	12.46
656.879	3.46
656.912	2.46
656.944	-11.54
656.977	3.46
657.01	11.46
657.042	13.46
657.075	5.46
657.108	10.46
657.14	-3.54
657.173	22.46
657.205	14.46
657.238	9.46
657.271	4.46
657.303	-2.54
657.336	5.46
657.369	-3.54
657.401	9.46
657.434	13.46
657.466	16.46
657.499	4.46
657.532	2.46
657.564	13.46
657.597	10.46
657.629	12.46
657.662	21.46
657.694	11.46
657.727	4.46
657.76	26.46
657.792	7.46
657.825	3.46
657.857	2.46
657.89	-7.54
657.922	25.46
657.955	1.46
657.987	-0.54
658.02	19.46
658.053	12.46
658.085	6.46
658.118	22.46
658.15	17.46
658.183	25.46
658.215	6.46
658.248	9.46
658.28	-10.54
658.313	12.46
658.345	5.46
658.378	-6.54
658.41	-8.54
658.443	7.46
658.475	4.46
658.508	4.46
658.54	9.46
658.573	-13.54
658.605	14.46
658.638	18.46
658.67	10.46
658.703	9.46
658.735	-9.54
658.768	8.46
658.8	3.46
658.833	25.46
658.865	10.46
658.898	9.46
658.93	10.46
658.963	9.46
658.995	-17.54
659.028	-4.54
659.06	-4.54
659.092	3.46
659.125	-8.54
659.157	-1.54
659.19	-6.54
659.222	3.46
659.255	1.46
659.287	5.46
659.32	-8.54
659.352	3.46
659.384	15.46
659.417	5.46
659.449	12.46
659.482	10.46
659.514	-16.54
659.546	-10.54
659.579	-3.54
659.611	1.46
659.644	-1.54
659.676	-2.54
659.708	-0.54
659.741	3.46
659.773	9.46
659.806	6.46
659.838	-0.54
659.87	12.46
659.903	-16.54
659.935	2.46
659.967	-8.54
660	-3.54
660.032	-8.54
660.065	14.46
660.097	5.46
660.129	8.46
660.162	-10.54
660.194	6.46
660.226	3.46
660.259	10.46
660.291	0.46
660.323	0.46
660.356	18.46
660.388	4.46
660.42	3.46
660.453	9.46
660.485	26.46
660.517	27.46
660.55	26.46
660.582	5.46
660.614	21.46
660.647	7.46
660.679	-2.54
660.711	1.46
660.743	-12.54
660.776	-5.54
660.808	2.46
660.84	2.46
660.873	-11.54
660.905	1.46
660.937	-3.54
660.969	19.46
661.002	9.46
661.034	10.46
661.066	4.46
661.099	18.46
661.131	20.46
661.163	17.46
661.195	9.46
661.228	11.46
661.26	-3.54
661.292	-7.54
661.324	7.46
661.357	10.46
661.389	3.46
661.421	9.46
661.453	7.46
661.485	11.46
661.518	12.46
661.55	-12.54
661.582	-6.54
661.614	-7.54
661.647	-7.54
661.679	2.46
661.711	12.46
661.743	-4.54
661.775	11.46
661.808	20.46
661.84	6.46
661.872	-1.54
661.904	5.46
661.936	-11.54
661.969	-8.54
662.001	-2.54
662.033	-3.54
662.065	6.46
662.097	40.46
662.129	4.46
662.162	-2.54
662.194	-4.54
662.226	0.46
662.258	16.46
662.29	3.46
662.322	-21.54
662.355	-8.54
662.387	12.46
662.419	12.46
662.451	21.46
662.483	11.46
662.515	13.46
662.547	5.46
662.58	-16.54
662.612	-21.54
662.644	-22.54
662.676	4.46
662.708	21.46
662.74	2.46
662.772	4.46
662.804	6.46
662.836	9.46
662.869	4.46
662.901	12.46
662.933	1.46
662.965	6.46
662.997	20.46
663.029	-14.54
663.061	-10.54
663.093	-3.54
663.125	6.46
663.157	7.46
663.189	3.46
663.221	10.46
663.254	4.46
663.286	-2.54
663.318	-4.54
663.35	-18.54
663.382	2.46
663.414	-4.54
663.446	-8.54
663.478	-10.54
663.51	12.46
663.542	-10.54
663.574	1.46
663.606	2.46
663.638	0.46
663.67	11.46
663.702	7.46
663.734	-6.54
663.766	9.46
663.798	-7.54
663.83	-0.54
663.862	23.46
663.894	21.46
663.926	2.46
663.958	8.46
663.99	2.46
664.022	6.46
664.054	25.46
664.086	-6.54
664.118	6.46
664.15	1.46
664.182	-1.54
664.214	-3.54
664.246	11.46
664.278	-12.54
664.31	10.46
664.342	9.46
664.374	8.46
664.406	-1.54
664.438	-6.54
664.47	4.46
664.502	-15.54
664.534	-9.54
664.566	-14.54
664.598	9.46
664.63	0.46
664.662	4.46
664.693	8.46
664.725	4.46
664.757	14.46
664.789	-10.54
664.821	-3.54
664.853	9.46
664.885	9.46
664.917	-9.54
664.949	6.46
664.981	20.46
665.013	4.46
665.045	-8.54
665.076	-3.54
665.108	15.46
665.14	-6.54
665.172	7.46
665.204	3.46
665.236	5.46
665.268	8.46
665.3	19.46
665.331	-6.54
665.363	16.46
665.395	-1.54
665.427	-0.54
665.459	1.46
665.491	-3.54
665.523	10.46
665.555	-4.54
665.586	3.46
665.618	4.46
665.65	-8.54
665.682	4.46
665.714	10.46
665.746	-3.54
665.777	7.46
665.809	10.46
665.841	14.46
665.873	-8.54
665.905	-4.54
665.937	9.46
665.968	-1.54
666	16.46
666.032	12.46
666.064	4.46
666.096	0.46
666.127	6.46
666.159	7.46
666.191	4.46
666.223	10.46
666.255	9.46
666.286	2.46
666.318	-5.54
666.35	21.46
666.382	15.46
666.413	5.46
666.445	-7.54
666.477	4.46
666.509	-4.54
666.54	10.46
666.572	3.46
666.604	4.46
666.636	-1.54
666.667	16.46
666.699	23.46
666.731	-8.54
666.763	3.46
666.794	-3.54
666.826	10.46
666.858	-5.54
666.89	7.46
666.921	3.46
666.953	5.46
666.985	14.46
667.017	29.46
667.048	12.46
667.08	3.46
667.112	6.46
667.143	0.46
667.175	7.46
667.207	-3.54
667.238	3.46
667.27	11.46
667.302	11.46
667.334	8.46
667.365	21.46
667.397	18.46
667.429	5.46
667.46	12.46
667.492	-3.54
667.524	-5.54
667.555	4.46
667.587	1.46
667.619	11.46
667.65	-1.54
667.682	12.46
667.714	14.46
667.745	3.46
667.777	8.46
667.808	11.46
667.84	1.46
667.872	1.46
667.903	21.46
667.935	0.46
667.967	7.46
667.998	-0.54
668.03	1.46
668.061	-3.54
668.093	-4.54
668.125	7.46
668.156	2.46
668.188	-4.54
668.22	3.46
668.251	2.46
668.283	20.46
668.314	4.46
668.346	-5.54
668.377	-1.54
668.409	1.46
668.441	10.46
668.472	4.46
668.504	10.46
668.535	15.46
668.567	8.46
668.599	6.46
668.63	0.46
668.662	5.46
668.693	17.46
668.725	20.46
668.756	3.46
668.788	-8.54
668.819	-4.54
668.851	-1.54
668.882	2.46
668.914	-2.54
668.946	6.46
668.977	-10.54
669.009	-3.54
669.04	-18.54
669.072	1.46
669.103	10.46
669.135	-2.54
669.166	-5.54
669.198	0.46
669.229	6.46
669.261	5.46
669.292	-9.54
669.324	2.46
669.355	11.46
669.387	-11.54
669.418	3.46
669.45	-10.54
669.481	2.46
669.513	-0.54
669.544	13.46
669.576	-0.54
669.607	17.46
669.639	7.46
669.67	-2.54
669.701	19.46
669.733	-1.54
669.764	21.46
669.796	-3.54
669.827	1.46
669.859	5.46
669.89	2.46
669.922	7.46
669.953	1.46
669.985	10.46
670.016	15.46
670.047	10.46
670.079	10.46
670.11	-1.54
670.142	-9.54
670.173	8.46
670.204	0.46
670.236	5.46
670.267	-1.54
670.299	0.46
670.33	13.46
670.362	12.46
670.393	-6.54
670.424	13.46
670.456	2.46
670.487	-5.54
670.518	-1.54
670.55	11.46
670.581	10.46
670.613	15.46
670.644	6.46
670.675	9.46
670.707	0.46
670.738	8.46
670.769	-0.54
670.801	-4.54
670.832	1.46
670.864	-1.54
670.895	10.46
670.926	0.46
670.958	9.46
670.989	20.46
671.02	3.46
671.052	10.46
671.083	-2.54
671.114	-0.54
671.146	0.46
671.177	18.46
671.208	0.46
671.24	-11.54
671.271	-2.54
671.302	15.46
671.333	-2.54
671.365	-0.54
671.396	-15.54
671.427	10.46
671.459	12.46
671.49	-3.54
671.521	15.46
671.553	15.46
671.584	8.46
671.615	-10.54
671.646	5.46
671.678	-0.54
671.709	-17.54
671.74	-21.54
671.771	-23.54
671.803	-17.54
671.834	19.46
671.865	8.46
671.896	16.46
671.928	5.46
671.959	-1.54
671.99	3.46
672.021	11.46
672.053	-1.54
672.084	4.46
672.115	6.46
672.146	-2.54
672.178	-9.54
672.209	0.46
672.24	11.46
672.271	33.46
672.303	9.46
672.334	-0.54
672.365	1.46
672.396	-1.54
672.427	10.46
672.459	8.46
672.49	24.46
672.521	7.46
672.552	1.46
672.583	18.46
672.615	-8.54
672.646	4.46
672.677	0.46
672.708	-3.54
672.739	-11.54
672.77	10.46
672.802	2.46
672.833	-3.54
672.864	-6.54
672.895	-1.54
672.926	-6.54
672.957	-12.54
672.989	-5.54
673.02	4.46
673.051	-10.54
673.082	6.46
673.113	5.46
673.144	3.46
673.175	18.46
673.206	-0.54
673.238	6.46
673.269	-0.54
673.3	-1.54
673.331	5.46
673.362	13.46
673.393	1.46
673.424	9.46
673.455	7.46
673.487	3.46
673.518	19.46
673.549	3.46
673.58	8.46
673.611	4.46
673.642	3.46
673.673	-8.54
673.704	5.46
673.735	4.46
673.766	-10.54
673.797	16.46
673.828	11.46
673.86	-16.54
673.891	13.46
673.922	9.46
673.953	1.46
673.984	9.46
674.015	13.46
674.046	5.46
674.077	-8.54
674.108	-8.54
674.139	-4.54
674.17	-5.54
674.201	-12.54
674.232	-1.54
674.263	0.46
674.294	5.46
674.325	-1.54
674.356	12.46
674.387	7.46
674.418	12.46
674.449	-4.54
674.48	-2.54
674.511	3.46
674.542	5.46
674.573	-7.54
674.604	12.46
674.635	6.46
674.666	15.46
674.697	11.46
674.728	15.46
674.759	-6.54
674.79	-1.54
674.821	1.46
674.852	-0.54
674.883	-9.54
674.914	8.46
674.945	1.46
674.976	0.46
675.007	-1.54
675.038	-18.54
675.069	-26.54
675.1	-4.54
675.131	3.46
675.162	-12.54
675.193	-3.54
675.224	-5.54
675.254	2.46
675.285	2.46
675.316	12.46
675.347	5.46
675.378	-12.54
675.409	-6.54
675.44	5.46
675.471	-2.54
675.502	-22.54
675.533	-18.54
675.564	2.46
675.595	-2.54
675.625	13.46
675.656	15.46
675.687	8.46
675.718	-24.54
675.749	7.46
675.78	-5.54
675.811	-1.54
675.842	3.46
675.873	5.46
675.903	12.46
675.934	-2.54
675.965	5.46
675.996	0.46
676.027	8.46
676.058	-9.54
676.089	-17.54
676.119	-4.54
676.15	4.46
676.181	5.46
676.212	1.46
676.243	8.46
676.274	-3.54
676.304	1.46
676.335	-11.54
676.366	19.46
676.397	8.46
676.428	9.46
676.459	-1.54
676.489	16.46
676.52	-0.54
676.551	-2.54
676.582	-1.54
676.613	2.46
676.643	-9.54
676.674	7.46
676.705	-10.54
676.736	11.46
676.767	25.46
676.797	6.46
676.828	3.46
676.859	-0.54
676.89	6.46
676.92	5.46
676.951	-1.54
676.982	7.46
677.013	-0.54
677.044	16.46
677.074	1.46
677.105	-7.54
677.136	13.46
677.167	-2.54
677.197	21.46
677.228	8.46
677.259	-13.54
677.289	0.46
677.32	-10.54
677.351	6.46
677.382	-2.54
677.412	-1.54
677.443	22.46
677.474	7.46
677.505	-5.54
677.535	1.46
677.566	-1.54
677.597	-2.54
677.627	-6.54
677.658	6.46
677.689	-0.54
677.72	-3.54
677.75	-9.54
677.781	2.46
677.812	-2.54
677.842	3.46
677.873	7.46
677.904	-2.54
677.934	-9.54
677.965	4.46
677.996	7.46
678.026	1.46
678.057	10.46
678.088	-2.54
678.118	-1.54
678.149	-19.54
678.18	-9.54
678.21	-5.54
678.241	-9.54
678.272	2.46
678.302	-1.54
678.333	9.46
678.363	22.46
678.394	15.46
678.425	7.46
678.455	8.46
678.486	19.46
678.517	6.46
678.547	6.46
678.578	11.46
678.608	-2.54
678.639	-5.54
678.67	1.46
678.7	2.46
678.731	11.46
678.761	-4.54
678.792	-8.54
678.823	6.46
678.853	10.46
678.884	2.46
678.914	7.46
678.945	1.46
678.975	3.46
679.006	-0.54
679.037	-10.54
679.067	12.46
679.098	-1.54
679.128	-2.54
679.159	-11.54
679.189	18.46
679.22	-3.54
679.25	3.46
679.281	5.46
679.312	5.46
679.342	7.46
679.373	36.46
679.403	3.46
679.434	8.46
679.464	-8.54
679.495	-1.54
679.525	4.46
679.556	-14.54
679.586	16.46
679.617	2.46
679.647	0.46
679.678	9.46
679.708	8.46
679.739	-4.54
679.769	14.46
679.8	15.46
679.83	-3.54
679.861	3.46
679.891	-10.54
679.922	-9.54
679.952	-0.54
679.983	10.46
680.013	5.46
680.044	-4.54
680.074	25.46
680.105	24.46
680.135	7.46
680.165	1.46
680.196	-4.54
680.226	4.46
680.257	1.46
680.287	11.46
680.318	-2.54
680.348	-17.54
680.379	13.46
680.409	7.46
680.439	-3.54
680.47	13.46
680.5	6.46
680.531	-18.54
680.561	12.46
680.592	18.46
680.622	12.46
680.652	-6.54
680.683	-1.54
680.713	4.46
680.744	5.46
680.774	-7.54
680.804	28.46
680.835	-14.54
680.865	-13.54
680.896	19.46
680.926	25.46
680.956	5.46
680.987	1.46
681.017	-0.54
681.047	6.46
681.078	-11.54
681.108	-0.54
681.139	4.46
681.169	-3.54
681.199	5.46
681.23	14.46
681.26	-5.54
681.29	-4.54
681.321	-14.54
681.351	4.46
681.381	-24.54
681.412	-3.54
681.442	2.46
681.472	32.46
681.503	11.46
681.533	4.46
681.563	-12.54
681.594	2.46
681.624	-1.54
681.654	5.46
681.685	6.46
681.715	5.46
681.745	11.46
681.775	4.46
681.806	-9.54
681.836	0.46
681.866	-7.54
681.897	3.46
681.927	10.46
681.957	-3.54
681.987	-1.54
682.018	1.46
682.048	14.46
682.078	-6.54
682.109	30.46
682.139	10.46
682.169	-0.54
682.199	-1.54
682.23	-5.54
682.26	0.46
682.29	-10.54
682.32	14.46
682.351	-17.54
682.381	0.46
682.411	-10.54
682.441	4.46
682.472	-10.54
682.502	-12.54
682.532	-1.54
682.562	15.46
682.592	8.46
682.623	16.46
682.653	5.46
682.683	-12.54
682.713	-7.54
682.743	0.46
682.774	-13.54
682.804	5.46
682.834	26.46
682.864	-5.54
682.894	2.46
682.925	-5.54
682.955	-10.54
682.985	-4.54
683.015	1.46
683.045	-1.54
683.076	-22.54
683.106	-3.54
683.136	4.46
683.166	-9.54
683.196	-12.54
683.226	2.46
683.257	5.46
683.287	1.46
683.317	-10.54
683.347	-1.54
683.377	-2.54
683.407	11.46
683.437	2.46
683.468	4.46
683.498	-0.54
683.528	18.46
683.558	7.46
683.588	0.46
683.618	3.46
683.648	-10.54
683.678	7.46
683.708	13.46
683.739	3.46
683.769	17.46
683.799	-3.54
683.829	4.46
683.859	-12.54
683.889	10.46
683.919	4.46
683.949	4.46
683.979	13.46
684.009	-7.54
684.039	3.46
684.07	-23.54
684.1	-0.54
684.13	7.46
684.16	11.46
684.19	-5.54
684.22	-3.54
684.25	10.46
684.28	2.46
684.31	17.46
684.34	17.46
684.37	6.46
684.4	-11.54
684.43	6.46
684.46	7.46
684.49	2.46
684.52	5.46
684.55	23.46
684.58	0.46
684.61	-1.54
684.64	3.46
684.67	14.46
684.7	7.46
684.73	18.46
684.76	8.46
684.79	4.46
684.82	-6.54
684.85	-12.54
684.88	10.46
684.91	1.46
684.94	-0.54
684.97	-1.54
685	-7.54
685.03	-20.54
685.06	-6.54
685.09	7.46
685.12	18.46
685.15	-10.54
685.18	-3.54
685.21	-11.54
685.24	6.46
685.27	3.46
685.3	11.46
685.33	10.46
685.36	-6.54
685.39	2.46
685.42	-3.54
685.45	-10.54
685.48	0.46
685.51	-1.54
685.54	10.46
685.569	15.46
685.599	10.46
685.629	-1.54
685.659	-5.54
685.689	2.46
685.719	9.46
685.749	-10.54
685.779	-5.54
685.809	9.46
685.839	1.46
685.869	7.46
685.898	3.46
685.928	1.46
685.958	-0.54
685.988	17.46
686.018	5.46
686.048	15.46
686.078	11.46
686.108	31.46
686.137	2.46
686.167	6.46
686.197	-7.54
686.227	-8.54
686.257	20.46
686.287	15.46
686.317	2.46
686.346	10.46
686.376	-19.54
686.406	-9.54
686.436	15.46
686.466	18.46
686.496	13.46
686.525	3.46
686.555	-0.54
686.585	22.46
686.615	33.46
686.645	1.46
686.675	6.46
686.704	13.46
686.734	15.46
686.764	9.46
686.794	2.46
686.824	-1.54
686.853	2.46
686.883	13.46
686.913	18.46
686.943	-12.54
686.973	-9.54
687.002	6.46
687.032	1.46
687.062	10.46
687.092	9.46
687.121	-12.54
687.151	3.46
687.181	5.46
687.211	9.46
687.24	3.46
687.27	3.46
687.3	-4.54
687.33	2.46
687.359	-7.54
687.389	-1.54
687.419	-7.54
687.449	-1.54
687.478	10.46
687.508	17.46
687.538	19.46
687.568	2.46
687.597	-1.54
687.627	2.46
687.657	6.46
687.686	16.46
687.716	10.46
687.746	-7.54
687.776	-7.54
687.805	6.46
687.835	5.46
687.865	30.46
687.894	-0.54
687.924	-3.54
687.954	2.46
687.983	-0.54
688.013	15.46
688.043	12.46
688.072	1.46
688.102	9.46
688.132	21.46
688.161	-4.54
688.191	-4.54
688.221	16.46
688.25	8.46
688.28	-5.54
688.31	-28.54
688.339	1.46
688.369	-1.54
688.399	-3.54
688.428	2.46
688.458	8.46
688.488	-5.54
688.517	5.46
688.547	-1.54
688.576	15.46
688.606	21.46
688.636	-3.54
688.665	3.46
688.695	0.46
688.725	-2.54
688.754	-5.54
688.784	-7.54
688.813	13.46
688.843	0.46
688.873	1.46
688.902	2.46
688.932	7.46
688.961	-10.54
688.991	10.46
689.02	27.46
689.05	3.46
689.08	8.46
689.109	11.46
689.139	6.46
689.168	2.46
689.198	3.46
689.227	2.46
689.257	5.46
689.287	9.46
689.316	19.46
689.346	-9.54
689.375	-12.54
689.405	17.46
689.434	4.46
689.464	2.46
689.493	-11.54
689.523	-9.54
689.552	0.46
689.582	8.46
689.611	-3.54
689.641	9.46
689.67	-4.54
689.7	-4.54
689.73	23.46
689.759	11.46
689.789	8.46
689.818	4.46
689.848	9.46
689.877	34.46
689.906	-5.54
689.936	-4.54
689.965	16.46
689.995	18.46
690.024	20.46
690.054	0.46
690.083	0.46
690.113	-0.54
690.142	-3.54
690.172	9.46
690.201	18.46
690.231	-0.54
690.26	-3.54
690.29	18.46
690.319	16.46
690.348	8.46
690.378	13.46
690.407	7.46
690.437	6.46
690.466	18.46
690.496	-0.54
690.525	12.46
690.555	10.46
690.584	0.46
690.613	4.46
690.643	18.46
690.672	5.46
690.702	3.46
690.731	5.46
690.76	0.46
690.79	-0.54
690.819	-6.54
690.849	4.46
690.878	3.46
690.907	3.46
690.937	26.46
690.966	11.46
690.996	-2.54
691.025	-0.54
691.054	13.46
691.084	16.46
691.113	2.46
691.142	18.46
691.172	27.46
691.201	15.46
691.23	-5.54
691.26	34.46
691.289	2.46
691.319	-6.54
691.348	11.46
691.377	2.46
691.407	19.46
691.436	10.46
691.465	-7.54
691.495	18.46
691.524	5.46
691.553	3.46
691.583	-5.54
691.612	15.46
691.641	-7.54
691.67	7.46
691.7	2.46
691.729	-16.54
691.758	6.46
691.788	9.46
691.817	7.46
691.846	-6.54
691.876	5.46
691.905	23.46
691.934	-5.54
691.963	14.46
691.993	2.46
692.022	-8.54
692.051	-14.54
692.081	9.46
692.11	25.46
692.139	21.46
692.168	10.46
692.198	0.46
692.227	11.46
692.256	9.46
692.285	11.46
692.315	12.46
692.344	10.46
692.373	22.46
692.402	-24.54
692.432	-1.54
692.461	3.46
692.49	-2.54
692.519	-7.54
692.548	2.46
692.578	-3.54
692.607	1.46
692.636	-5.54
692.665	5.46
692.694	11.46
692.724	-5.54
692.753	3.46
692.782	27.46
692.811	-24.54
692.84	-0.54
692.87	-1.54
692.899	2.46
692.928	14.46
692.957	9.46
692.986	4.46
693.016	19.46
693.045	15.46
693.074	8.46
693.103	5.46
693.132	12.46
693.161	2.46
693.191	4.46
693.22	1.46
693.249	10.46
693.278	9.46
693.307	1.46
693.336	-12.54
693.365	-7.54
693.395	-4.54
693.424	-2.54
693.453	19.46
693.482	11.46
693.511	7.46
693.54	6.46
693.569	6.46
693.598	14.46
693.628	23.46
693.657	7.46
693.686	38.46
693.715	19.46
693.744	21.46
693.773	20.46
693.802	2.46
693.831	-5.54
693.86	10.46
693.889	-4.54
693.919	-0.54
693.948	19.46
693.977	4.46
694.006	5.46
694.035	3.46
694.064	-2.54
694.093	4.46
694.122	-6.54
694.151	-6.54
694.18	17.46
694.209	18.46
694.238	7.46
694.267	19.46
694.296	7.46
694.325	18.46
694.354	22.46
694.383	18.46
694.412	-4.54
694.441	3.46
694.471	-2.54
694.5	2.46
694.529	14.46
694.558	29.46
694.587	34.46
694.616	14.46
694.645	3.46
694.674	20.46
694.703	17.46
694.732	4.46
694.761	26.46
694.79	6.46
694.819	-12.54
694.848	2.46
694.877	27.46
694.906	26.46
694.935	2.46
694.963	15.46
694.992	0.46
695.021	6.46
695.05	2.46
695.079	12.46
695.108	1.46
695.137	30.46
695.166	9.46
695.195	-1.54
695.224	21.46
695.253	10.46
695.282	1.46
695.311	15.46
695.34	0.46
695.369	9.46
695.398	11.46
695.427	26.46
695.456	8.46
695.485	15.46
695.513	15.46
695.542	12.46
695.571	-4.54
695.6	9.46
695.629	13.46
695.658	29.46
695.687	12.46
695.716	1.46
695.745	26.46
695.774	-7.54
695.802	7.46
695.831	8.46
695.86	5.46
695.889	11.46
695.918	9.46
695.947	-5.54
695.976	1.46
696.005	4.46
696.033	22.46
696.062	12.46
696.091	3.46
696.12	14.46
696.149	21.46
696.178	19.46
696.207	19.46
696.235	-12.54
696.264	12.46
696.293	4.46
696.322	11.46
696.351	17.46
696.38	2.46
696.408	10.46
696.437	3.46
696.466	14.46
696.495	26.46
696.524	17.46
696.553	-0.54
696.581	14.46
696.61	6.46
696.639	2.46
696.668	2.46
696.697	1.46
696.725	15.46
696.754	11.46
696.783	9.46
696.812	2.46
696.84	11.46
696.869	28.46
696.898	19.46
696.927	2.46
696.956	11.46
696.984	7.46
697.013	7.46
697.042	7.46
697.071	14.46
697.099	17.46
697.128	12.46
697.157	0.46
697.186	15.46
697.214	-2.54
697.243	2.46
697.272	23.46
697.301	0.46
697.329	8.46
697.358	18.46
697.387	22.46
697.415	7.46
697.444	5.46
697.473	8.46
697.502	6.46
697.53	11.46
697.559	17.46
697.588	8.46
697.616	2.46
697.645	7.46
697.674	7.46
697.703	3.46
697.731	-2.54
697.76	11.46
697.789	10.46
697.817	19.46
697.846	26.46
697.875	24.46
697.903	19.46
697.932	14.46
697.961	6.46
697.989	5.46
698.018	8.46
698.047	19.46
698.075	15.46
698.104	-6.54
698.133	8.46
698.161	-9.54
698.19	16.46
698.218	18.46
698.247	12.46
698.276	-1.54
698.304	19.46
698.333	18.46
698.362	5.46
698.39	19.46
698.419	20.46
698.447	6.46
698.476	10.46
698.505	9.46
698.533	9.46
698.562	16.46
698.591	-1.54
698.619	-7.54
698.648	21.46
698.676	6.46
698.705	4.46
698.733	-6.54
698.762	12.46
698.791	3.46
698.819	4.46
698.848	2.46
698.876	0.46
698.905	12.46
698.933	3.46
698.962	1.46
698.991	8.46
699.019	10.46
699.048	9.46
699.076	4.46
699.105	-1.54
699.133	-1.54
699.162	5.46
699.19	24.46
699.219	10.46
699.248	5.46
699.276	8.46
699.305	1.46
699.333	2.46
699.362	-8.54
699.39	12.46
699.419	4.46
699.447	7.46
699.476	13.46
699.504	-1.54
699.533	-7.54
699.561	-14.54
699.59	9.46
699.618	-6.54
699.647	14.46
699.675	5.46
699.704	4.46
699.732	-3.54
699.761	15.46
699.789	2.46
699.818	-0.54
699.846	-5.54
699.874	3.46
699.903	-6.54
699.931	3.46
699.96	19.46
699.988	7.46
700.017	-3.54
700.045	15.46
700.074	-2.54
700.102	6.46
700.13	6.46
700.159	23.46
700.187	5.46
700.216	-9.54
700.244	-8.54
700.273	24.46
700.301	9.46
700.329	33.46
700.358	20.46
700.386	-3.54
700.415	2.46
700.443	6.46
700.472	17.46
700.5	22.46
700.528	19.46
700.557	2.46
700.585	-4.54
700.614	2.46
700.642	13.46
700.67	15.46
700.699	18.46
700.727	6.46
700.755	15.46
700.784	2.46
700.812	3.46
700.841	6.46
700.869	4.46
700.897	-14.54
700.926	4.46
700.954	18.46
700.982	13.46
701.011	-4.54
701.039	8.46
701.067	1.46
701.096	24.46
701.124	-12.54
701.152	4.46
701.181	15.46
701.209	-20.54
701.237	-3.54
701.266	-6.54
701.294	2.46
701.322	22.46
701.351	23.46
701.379	-0.54
701.407	-5.54
701.435	14.46
701.464	16.46
701.492	22.46
701.52	3.46
701.549	17.46
701.577	-9.54
701.605	10.46
701.634	18.46
701.662	20.46
701.69	0.46
701.718	7.46
701.747	9.46
701.775	0.46
701.803	-4.54
701.831	27.46
701.86	11.46
701.888	3.46
701.916	-6.54
701.944	15.46
701.973	0.46
702.001	-8.54
702.029	-5.54
702.057	-5.54
702.086	0.46
702.114	-17.54
702.142	-12.54
702.17	-4.54
702.199	-8.54
702.227	5.46
702.255	5.46
702.283	-2.54
702.311	6.46
702.34	-3.54
702.368	-13.54
702.396	7.46
702.424	0.46
702.452	17.46
702.481	9.46
702.509	7.46
702.537	-0.54
702.565	3.46
702.593	-7.54
702.621	-4.54
702.65	3.46
702.678	12.46
702.706	12.46
702.734	9.46
702.762	16.46
702.79	9.46
702.819	7.46
702.847	11.46
702.875	25.46
702.903	1.46
702.931	2.46
702.959	9.46
702.988	2.46
703.016	1.46
703.044	-6.54
703.072	3.46
703.1	4.46
703.128	6.46
703.156	-0.54
703.184	3.46
703.212	34.46
703.241	5.46
703.269	8.46
703.297	9.46
703.325	5.46
703.353	7.46
703.381	-8.54
703.409	2.46
703.437	2.46
703.465	4.46
703.493	-5.54
703.522	22.46
703.55	4.46
703.578	-1.54
703.606	-4.54
703.634	1.46
703.662	-2.54
703.69	1.46
703.718	5.46
703.746	17.46
703.774	-0.54
703.802	22.46
703.83	7.46
703.858	1.46
703.886	-2.54
703.914	3.46
703.942	8.46
703.97	3.46
703.998	8.46
704.027	8.46
704.055	12.46
704.083	-4.54
704.111	-8.54
704.139	1.46
704.167	-8.54
704.195	2.46
704.223	15.46
704.251	12.46
704.279	10.46
704.307	24.46
704.335	-9.54
704.363	3.46
704.391	-0.54
704.419	0.46
704.447	-13.54
704.475	-11.54
704.503	-16.54
704.531	9.46
704.558	-8.54
704.586	-0.54
704.614	-1.54
704.642	1.46
704.67	-10.54
704.698	1.46
704.726	16.46
704.754	2.46
704.782	-4.54
704.81	9.46
704.838	35.46
704.866	9.46
704.894	-9.54
704.922	-0.54
704.95	-3.54
704.978	-6.54
705.006	-10.54
705.034	18.46
705.061	1.46
705.089	1.46
705.117	0.46
705.145	-3.54
705.173	2.46
705.201	14.46
705.229	6.46
705.257	7.46
705.285	6.46
705.313	1.46
705.34	-8.54
705.368	0.46
705.396	2.46
705.424	18.46
705.452	11.46
705.48	14.46
705.508	4.46
705.536	-6.54
705.563	8.46
705.591	4.46
705.619	13.46
705.647	-9.54
705.675	4.46
705.703	12.46
705.731	-4.54
705.758	-2.54
705.786	5.46
705.814	12.46
705.842	7.46
705.87	17.46
705.898	19.46
705.925	-4.54
705.953	4.46
705.981	-4.54
706.009	-0.54
706.037	2.46
706.065	6.46
706.092	-3.54
706.12	8.46
706.148	1.46
706.176	6.46
706.204	3.46
706.231	1.46
706.259	0.46
706.287	7.46
706.315	6.46
706.342	4.46
706.37	9.46
706.398	3.46
706.426	7.46
706.454	19.46
706.481	16.46
706.509	7.46
706.537	-2.54
706.565	-13.54
706.592	18.46
706.62	1.46
706.648	2.46
706.676	15.46
706.703	3.46
706.731	-3.54
706.759	-1.54
706.787	-4.54
706.814	2.46
706.842	4.46
706.87	-1.54
706.897	7.46
706.925	-1.54
706.953	11.46
706.981	34.46
707.008	3.46
707.036	2.46
707.064	9.46
707.091	-10.54
707.119	10.46
707.147	0.46
707.174	4.46
707.202	3.46
707.23	-6.54
707.258	3.46
707.285	-5.54
707.313	-4.54
707.341	-10.54
707.368	5.46
707.396	-3.54
707.424	10.46
707.451	9.46
707.479	9.46
707.507	7.46
707.534	6.46
707.562	-0.54
707.59	5.46
707.617	-2.54
707.645	6.46
707.672	6.46
707.7	15.46
707.728	11.46
707.755	7.46
707.783	6.46
707.811	-5.54
707.838	-2.54
707.866	0.46
707.893	-3.54
707.921	2.46
707.949	-4.54
707.976	-0.54
708.004	14.46
708.031	10.46
708.059	13.46
708.087	7.46
708.114	-1.54
708.142	-11.54
708.169	6.46
708.197	-3.54
708.225	-6.54
708.252	-1.54
708.28	21.46
708.307	-4.54
708.335	3.46
708.362	1.46
708.39	-13.54
708.418	-12.54
708.445	-13.54
708.473	-7.54
708.5	6.46
708.528	7.46
708.555	7.46
708.583	8.46
708.61	7.46
708.638	5.46
708.665	-4.54
708.693	-13.54
708.72	-9.54
708.748	11.46
708.776	17.46
708.803	17.46
708.831	10.46
708.858	9.46
708.886	-7.54
708.913	-0.54
708.941	-3.54
708.968	-2.54
708.996	-2.54
709.023	20.46
709.051	-0.54
709.078	1.46
709.105	9.46
709.133	-2.54
709.16	6.46
709.188	20.46
709.215	0.46
709.243	-5.54
709.27	-13.54
709.298	19.46
709.325	-4.54
709.353	-6.54
709.38	9.46
709.408	5.46
709.435	12.46
709.462	-2.54
709.49	14.46
709.517	-1.54
709.545	13.46
709.572	-14.54
709.6	-6.54
709.627	12.46
709.655	-5.54
709.682	8.46
709.709	5.46
709.737	1.46
709.764	-2.54
709.792	9.46
709.819	5.46
709.846	-12.54
709.874	9.46
709.901	14.46
709.929	10.46
709.956	10.46
709.983	5.46
710.011	-0.54
710.038	-5.54
710.066	6.46
710.093	4.46
710.12	13.46
710.148	-4.54
710.175	3.46
710.202	9.46
710.23	5.46
710.257	7.46
710.284	15.46
710.312	6.46
710.339	-14.54
710.366	-13.54
710.394	4.46
710.421	-3.54
710.448	6.46
710.476	-12.54
710.503	3.46
710.53	3.46
710.558	19.46
710.585	-1.54
710.612	-13.54
710.64	-2.54
710.667	-10.54
710.694	-6.54
710.722	-7.54
710.749	2.46
710.776	-11.54
710.804	8.46
710.831	10.46
710.858	-0.54
710.885	-7.54
710.913	-1.54
710.94	19.46
710.967	2.46
710.995	-8.54
711.022	3.46
711.049	11.46
711.076	-10.54
711.104	5.46
711.131	-4.54
711.158	9.46
711.185	11.46
711.213	-15.54
711.24	-13.54
711.267	2.46
711.294	10.46
711.322	11.46
711.349	-4.54
711.376	-6.54
711.403	-2.54
711.431	-13.54
711.458	-10.54
711.485	-1.54
711.512	-2.54
711.54	-4.54
711.567	-18.54
711.594	8.46
711.621	2.46
711.648	0.46
711.676	12.46
711.703	1.46
711.73	-8.54
711.757	2.46
711.784	4.46
711.812	3.46
711.839	1.46
711.866	-12.54
711.893	8.46
711.92	8.46
711.947	1.46
711.975	7.46
712.002	-1.54
712.029	16.46
712.056	-3.54
712.083	-0.54
712.11	-12.54
712.138	6.46
712.165	1.46
712.192	-7.54
712.219	-9.54
712.246	-13.54
712.273	-5.54
712.3	-6.54
712.328	10.46
712.355	-12.54
712.382	-7.54
712.409	5.46
712.436	-9.54
712.463	11.46
712.49	7.46
712.517	4.46
712.544	8.46
712.572	8.46
712.599	-1.54
712.626	0.46
712.653	-16.54
712.68	-11.54
712.707	0.46
712.734	11.46
712.761	7.46
712.788	8.46
712.815	8.46
712.842	2.46
712.87	-8.54
712.897	-22.54
712.924	-0.54
712.951	2.46
712.978	20.46
713.005	16.46
713.032	21.46
713.059	2.46
713.086	15.46
713.113	6.46
713.14	3.46
713.167	-8.54
713.194	-3.54
713.221	-13.54
713.248	6.46
713.275	-16.54
713.302	-11.54
713.329	1.46
713.356	12.46
713.383	9.46
713.41	3.46
713.437	1.46
713.464	1.46
713.491	6.46
713.518	8.46
713.545	-11.54
713.572	-0.54
713.599	16.46
713.626	5.46
713.653	16.46
713.68	-2.54
713.707	-4.54
713.734	11.46
713.761	6.46
713.788	2.46
713.815	5.46
713.842	-18.54
713.869	-5.54
713.896	-4.54
713.923	-3.54
713.95	-1.54
713.977	-17.54
714.004	-4.54
714.031	-3.54
714.058	-3.54
714.085	-0.54
714.112	14.46
714.139	10.46
714.165	15.46
714.192	-5.54
714.219	-3.54
714.246	-2.54
714.273	11.46
714.3	-1.54
714.327	-1.54
714.354	2.46
714.381	-4.54
714.408	6.46
714.435	-4.54
714.461	-0.54
714.488	6.46
714.515	-2.54
714.542	-11.54
714.569	-21.54
714.596	-29.54
714.623	-3.54
714.65	-11.54
714.677	2.46
714.703	-6.54
714.73	7.46
714.757	8.46
714.784	23.46
714.811	0.46
714.838	0.46
714.865	3.46
714.891	12.46
714.918	-6.54
714.945	-12.54
714.972	-9.54
714.999	2.46
715.026	-14.54
715.052	9.46
715.079	-2.54
715.106	-0.54
715.133	6.46
715.16	-1.54
715.187	5.46
715.213	9.46
715.24	6.46
715.267	8.46
715.294	-0.54
715.321	2.46
715.347	-5.54
715.374	-2.54
715.401	-7.54
715.428	6.46
715.455	14.46
715.481	0.46
715.508	13.46
715.535	-10.54
715.562	11.46
715.588	-1.54
715.615	-6.54
715.642	5.46
715.669	9.46
715.695	-2.54
715.722	-5.54
715.749	3.46
715.776	27.46
715.802	1.46
715.829	-3.54
715.856	-4.54
715.883	16.46
715.909	-1.54
715.936	-1.54
715.963	-1.54
715.99	-9.54
716.016	1.46
716.043	-2.54
716.07	-3.54
716.096	3.46
716.123	13.46
716.15	12.46
716.177	15.46
716.203	23.46
716.23	16.46
716.257	2.46
716.283	14.46
716.31	13.46
716.337	0.46
716.363	-8.54
716.39	3.46
716.417	15.46
716.443	6.46
716.47	18.46
716.497	15.46
716.523	11.46
716.55	3.46
716.577	22.46
716.603	-4.54
716.63	-11.54
716.657	6.46
716.683	-9.54
716.71	6.46
716.737	4.46
716.763	13.46
716.79	-10.54
716.817	10.46
716.843	2.46
716.87	10.46
716.897	1.46
716.923	20.46
716.95	-12.54
716.976	-3.54
717.003	1.46
717.03	-2.54
717.056	8.46
717.083	2.46
717.109	6.46
717.136	15.46
717.163	0.46
717.189	6.46
717.216	8.46
717.242	-2.54
717.269	19.46
717.296	7.46
717.322	11.46
717.349	4.46
717.375	1.46
717.402	5.46
717.428	11.46
717.455	9.46
717.481	-1.54
717.508	12.46
717.535	5.46
717.561	8.46
717.588	0.46
717.614	-2.54
717.641	10.46
717.667	10.46
717.694	13.46
717.72	13.46
717.747	-3.54
717.773	-6.54
717.8	7.46
717.826	7.46
717.853	-11.54
717.88	11.46
717.906	11.46
717.933	9.46
717.959	2.46
717.986	2.46
718.012	-8.54
718.039	9.46
718.065	14.46
718.092	17.46
718.118	10.46
718.144	3.46
718.171	18.46
718.197	19.46
718.224	19.46
718.25	2.46
718.277	3.46
718.303	-1.54
718.33	4.46
718.356	5.46
718.383	-1.54
718.409	-0.54
718.436	3.46
718.462	-17.54
718.489	-5.54
718.515	27.46
718.541	22.46
718.568	1.46
718.594	-8.54
718.621	-5.54
718.647	6.46
718.674	13.46
718.7	10.46
718.726	-12.54
718.753	-2.54
718.779	12.46
718.806	2.46
718.832	1.46
718.858	13.46
718.885	-0.54
718.911	3.46
718.938	6.46
718.964	1.46
718.99	10.46
719.017	13.46
719.043	1.46
719.07	14.46
719.096	-13.54
719.122	7.46
719.149	5.46
719.175	8.46
719.201	3.46
719.228	0.46
719.254	-12.54
719.281	-6.54
719.307	4.46
719.333	1.46
719.36	25.46
719.386	4.46
719.412	6.46
719.439	-8.54
719.465	9.46
719.491	2.46
719.518	42.46
719.544	22.46
719.57	-11.54
719.597	-4.54
719.623	-1.54
719.649	-4.54
719.675	-9.54
719.702	7.46
719.728	17.46
719.754	-12.54
719.781	0.46
719.807	14.46
719.833	0.46
719.86	1.46
719.886	6.46
719.912	7.46
719.938	11.46
719.965	3.46
719.991	5.46
720.017	3.46
720.044	1.46
720.07	7.46
720.096	22.46
720.122	13.46
720.149	1.46
720.175	24.46
720.201	4.46
720.227	-5.54
720.254	1.46
720.28	7.46
720.306	6.46
720.332	9.46
720.359	3.46
720.385	22.46
720.411	6.46
720.437	12.46
720.463	9.46
720.49	20.46
720.516	6.46
720.542	-3.54
720.568	1.46
720.595	12.46
720.621	-0.54
720.647	6.46
720.673	16.46
720.699	8.46
720.725	13.46
720.752	14.46
720.778	3.46
720.804	-2.54
720.83	2.46
720.856	-1.54
720.883	-4.54
720.909	1.46
720.935	9.46
720.961	22.46
720.987	12.46
721.013	27.46
721.04	8.46
721.066	-5.54
721.092	10.46
721.118	22.46
721.144	5.46
721.17	-8.54
721.196	15.46
721.223	4.46
721.249	-11.54
721.275	19.46
721.301	3.46
721.327	4.46
721.353	8.46
721.379	12.46
721.405	11.46
721.432	36.46
721.458	5.46
721.484	10.46
721.51	-2.54
721.536	17.46
721.562	-5.54
721.588	17.46
721.614	7.46
721.64	14.46
721.666	12.46
721.693	9.46
721.719	-4.54
721.745	-3.54
721.771	-0.54
721.797	1.46
721.823	12.46
721.849	13.46
721.875	6.46
721.901	13.46
721.927	1.46
721.953	14.46
721.979	18.46
722.005	12.46
722.031	-5.54
722.057	3.46
722.083	6.46
722.109	1.46
722.135	7.46
722.161	13.46
722.187	-3.54
722.214	5.46
722.24	15.46
722.266	-14.54
722.292	6.46
722.318	5.46
722.344	-1.54
722.37	10.46
722.396	6.46
722.422	8.46
722.448	15.46
722.474	-3.54
722.5	11.46
722.526	1.46
722.552	0.46
722.578	1.46
722.603	9.46
722.629	-1.54
722.655	9.46
722.681	1.46
722.707	1.46
722.733	2.46
722.759	-2.54
722.785	-6.54
722.811	-0.54
722.837	10.46
722.863	27.46
722.889	14.46
722.915	-1.54
722.941	10.46
722.967	-9.54
722.993	21.46
723.019	2.46
723.045	9.46
723.071	20.46
723.097	1.46
723.122	14.46
723.148	2.46
723.174	5.46
723.2	13.46
723.226	-4.54
723.252	16.46
723.278	-2.54
723.304	8.46
723.33	6.46
723.356	1.46
723.381	-21.54
723.407	3.46
723.433	19.46
723.459	5.46
723.485	-8.54
723.511	9.46
723.537	-14.54
723.563	1.46
723.588	2.46
723.614	14.46
723.64	2.46
723.666	9.46
723.692	11.46
723.718	9.46
723.744	9.46
723.769	2.46
723.795	-2.54
723.821	2.46
723.847	5.46
723.873	3.46
723.899	-1.54
723.924	2.46
723.95	3.46
723.976	-0.54
724.002	4.46
724.028	3.46
724.053	-1.54
724.079	-4.54
724.105	11.46
724.131	2.46
724.157	11.46
724.182	17.46
724.208	4.46
724.234	6.46
724.26	7.46
724.286	16.46
724.311	14.46
724.337	-7.54
724.363	10.46
724.389	21.46
724.415	-0.54
724.44	21.46
724.466	0.46
724.492	-1.54
724.518	3.46
724.543	-2.54
724.569	1.46
724.595	16.46
724.621	-8.54
724.646	-14.54
724.672	2.46
724.698	6.46
724.723	2.46
724.749	12.46
724.775	13.46
724.801	4.46
724.826	3.46
724.852	-3.54
724.878	10.46
724.904	4.46
724.929	9.46
724.955	-14.54
724.981	-3.54
725.006	-8.54
725.032	11.46
725.058	17.46
725.083	-1.54
725.109	1.46
725.135	2.46
725.161	6.46
725.186	-2.54
725.212	-5.54
725.238	0.46
725.263	9.46
725.289	-17.54
725.315	-1.54
725.34	-1.54
725.366	10.46
725.392	11.46
725.417	-10.54
725.443	-2.54
725.468	12.46
725.494	24.46
725.52	19.46
725.545	9.46
725.571	11.46
725.597	3.46
725.622	8.46
725.648	1.46
725.674	21.46
725.699	15.46
725.725	4.46
725.75	17.46
725.776	-0.54
725.802	-2.54
725.827	17.46
725.853	2.46
725.878	13.46
725.904	-5.54
725.93	-5.54
725.955	-9.54
725.981	3.46
726.006	-10.54
726.032	-8.54
726.057	-11.54
726.083	-2.54
726.109	-2.54
726.134	7.46
726.16	-1.54
726.185	-2.54
726.211	-8.54
726.236	14.46
726.262	9.46
726.288	14.46
726.313	8.46
726.339	8.46
726.364	-6.54
726.39	9.46
726.415	-4.54
726.441	3.46
726.466	-8.54
726.492	3.46
726.517	7.46
726.543	4.46
726.568	-6.54
726.594	-0.54
726.619	-1.54
726.645	1.46
726.67	3.46
726.696	3.46
726.721	5.46
726.747	-6.54
726.772	-1.54
726.798	11.46
726.823	9.46
726.849	8.46
726.874	2.46
726.9	25.46
726.925	5.46
726.951	6.46
726.976	11.46
727.002	-7.54
727.027	9.46
727.053	12.46
727.078	3.46
727.104	9.46
727.129	-19.54
727.155	-6.54
727.18	18.46
727.205	-0.54
727.231	5.46
727.256	-6.54
727.282	-2.54
727.307	11.46
727.333	1.46
727.358	2.46
727.383	-6.54
727.409	11.46
727.434	14.46
727.46	3.46
727.485	-7.54
727.511	-11.54
727.536	8.46
727.561	5.46
727.587	5.46
727.612	5.46
727.637	-7.54
727.663	-13.54
727.688	23.46
727.714	-2.54
727.739	-5.54
727.764	-6.54
727.79	5.46
727.815	-0.54
727.841	8.46
727.866	17.46
727.891	7.46
727.917	-25.54
727.942	-9.54
727.967	-5.54
727.993	-11.54
728.018	6.46
728.043	7.46
728.069	2.46
728.094	13.46
728.119	-2.54
728.145	12.46
728.17	15.46
728.195	11.46
728.221	21.46
728.246	0.46
728.271	-7.54
728.297	12.46
728.322	21.46
728.347	12.46
728.373	14.46
728.398	12.46
728.423	7.46
728.448	15.46
728.474	4.46
728.499	13.46
728.524	3.46
728.55	-9.54
728.575	-6.54
728.6	7.46
728.625	1.46
728.651	12.46
728.676	1.46
728.701	0.46
728.727	3.46
728.752	-8.54
728.777	4.46
728.802	2.46
728.828	13.46
728.853	5.46
728.878	-0.54
728.903	-1.54
728.929	-4.54
728.954	-4.54
728.979	14.46
729.004	-5.54
729.03	0.46
729.055	13.46
729.08	-3.54
729.105	-12.54
729.13	19.46
729.156	12.46
729.181	-5.54
729.206	-10.54
729.231	-7.54
729.256	8.46
729.282	4.46
729.307	-8.54
729.332	-1.54
729.357	-5.54
729.382	-12.54
729.408	19.46
729.433	3.46
729.458	-2.54
729.483	6.46
729.508	35.46
729.533	6.46
729.559	15.46
729.584	-8.54
729.609	13.46
729.634	10.46
729.659	6.46
729.684	6.46
729.71	23.46
729.735	8.46
729.76	5.46
729.785	1.46
729.81	18.46
729.835	-1.54
729.86	0.46
729.886	13.46
729.911	3.46
729.936	-23.54
729.961	7.46
729.986	6.46
730.011	3.46
730.036	-0.54
730.061	-1.54
730.086	9.46
730.112	15.46
730.137	21.46
730.162	5.46
730.187	-11.54
730.212	10.46
730.237	-5.54
730.262	5.46
730.287	11.46
730.312	11.46
730.337	2.46
730.362	13.46
730.387	6.46
730.413	-10.54
730.438	-8.54
730.463	4.46
730.488	4.46
730.513	-4.54
730.538	1.46
730.563	0.46
730.588	-1.54
730.613	-3.54
730.638	-6.54
730.663	-6.54
730.688	29.46
730.713	10.46
730.738	-2.54
730.763	1.46
730.788	1.46
730.813	2.46
730.838	-2.54
730.863	-2.54
730.888	-0.54
730.913	-12.54
730.938	-4.54
730.963	0.46
730.988	12.46
731.013	17.46
731.038	-0.54
731.063	7.46
731.088	13.46
731.113	2.46
731.138	1.46
731.163	1.46
731.188	5.46
731.213	24.46
731.238	23.46
731.263	13.46
731.288	3.46
731.313	5.46
731.338	-5.54
731.363	3.46
731.388	2.46
731.413	-4.54
731.438	15.46
731.463	-0.54
731.487	17.46
731.512	-5.54
731.537	-13.54
731.562	2.46
731.587	-1.54
731.612	-1.54
731.637	-2.54
731.662	-0.54
731.687	-1.54
731.712	-6.54
731.737	0.46
731.762	6.46
731.786	13.46
731.811	8.46
731.836	5.46
731.861	25.46
731.886	2.46
731.911	21.46
731.936	9.46
731.961	-3.54
731.986	3.46
732.01	6.46
732.035	-9.54
732.06	3.46
732.085	-1.54
732.11	0.46
732.135	-19.54
732.16	-9.54
732.184	-6.54
732.209	-2.54
732.234	15.46
732.259	-3.54
732.284	16.46
732.309	3.46
732.334	-4.54
732.358	-23.54
732.383	-9.54
732.408	-13.54
732.433	8.46
732.458	13.46
732.482	14.46
732.507	9.46
732.532	-2.54
732.557	28.46
732.582	3.46
732.607	7.46
732.631	-11.54
732.656	-6.54
732.681	2.46
732.706	7.46
732.73	6.46
732.755	-17.54
732.78	-0.54
732.805	3.46
732.83	-4.54
732.854	3.46
732.879	12.46
732.904	7.46
732.929	8.46
732.953	11.46
732.978	13.46
733.003	4.46
733.028	2.46
733.052	9.46
733.077	2.46
733.102	16.46
733.127	-10.54
733.151	-2.54
733.176	8.46
733.201	-4.54
733.226	-0.54
733.25	15.46
733.275	-6.54
733.3	7.46
733.324	14.46
733.349	1.46
733.374	24.46
733.399	-2.54
733.423	-1.54
733.448	-0.54
733.473	4.46
733.497	13.46
733.522	12.46
733.547	8.46
733.571	13.46
733.596	1.46
733.621	18.46
733.646	14.46
733.67	3.46
733.695	-9.54
733.72	5.46
733.744	-1.54
733.769	13.46
733.794	22.46
733.818	4.46
733.843	-2.54
733.867	1.46
733.892	3.46
733.917	1.46
733.941	1.46
733.966	-5.54
733.991	17.46
734.015	12.46
734.04	18.46
734.065	5.46
734.089	10.46
734.114	-8.54
734.138	8.46
734.163	-2.54
734.188	4.46
734.212	22.46
734.237	3.46
734.261	18.46
734.286	-1.54
734.311	0.46
734.335	6.46
734.36	4.46
734.384	-6.54
734.409	-11.54
734.434	-8.54
734.458	6.46
734.483	5.46
734.507	12.46
734.532	15.46
734.556	2.46
734.581	-14.54
734.606	-1.54
734.63	-13.54
734.655	-0.54
734.679	-4.54
734.704	-12.54
734.728	12.46
734.753	1.46
734.777	9.46
734.802	1.46
734.826	8.46
734.851	16.46
734.876	13.46
734.9	19.46
734.925	5.46
734.949	3.46
734.974	-5.54
734.998	17.46
735.023	2.46
735.047	-6.54
735.072	24.46
735.096	-6.54
735.121	14.46
735.145	2.46
735.17	7.46
735.194	17.46
735.219	6.46
735.243	4.46
735.268	14.46
735.292	2.46
735.317	5.46
735.341	3.46
735.365	-9.54
735.39	16.46
735.414	8.46
735.439	-0.54
735.463	2.46
735.488	8.46
735.512	1.46
735.537	4.46
735.561	5.46
735.586	-0.54
735.61	-1.54
735.634	-10.54
735.659	2.46
735.683	16.46
735.708	-4.54
735.732	-21.54
735.757	-2.54
735.781	14.46
735.805	6.46
735.83	-9.54
735.854	-2.54
735.879	3.46
735.903	2.46
735.927	-10.54
735.952	5.46
735.976	17.46
736.001	-2.54
736.025	-1.54
736.049	4.46
736.074	-0.54
736.098	-2.54
736.123	5.46
736.147	-5.54
736.171	5.46
736.196	5.46
736.22	-18.54
736.244	1.46
736.269	-0.54
736.293	8.46
736.317	8.46
736.342	17.46
736.366	17.46
736.39	18.46
736.415	7.46
736.439	4.46
736.463	-3.54
736.488	15.46
736.512	14.46
736.536	-5.54
736.561	28.46
736.585	6.46
736.609	7.46
736.634	-10.54
736.658	-5.54
736.682	5.46
736.707	4.46
736.731	-0.54
736.755	-8.54
736.78	12.46
736.804	14.46
736.828	10.46
736.852	2.46
736.877	-4.54
736.901	-15.54
736.925	1.46
736.949	1.46
736.974	-12.54
736.998	-19.54
737.022	9.46
737.047	-13.54
737.071	7.46
737.095	26.46
737.119	25.46
737.144	-1.54
737.168	-20.54
737.192	10.46
737.216	4.46
737.241	-6.54
737.265	4.46
737.289	1.46
737.313	-4.54
737.337	-8.54
737.362	5.46
737.386	13.46
737.41	-0.54
737.434	-0.54
737.459	17.46
737.483	21.46
737.507	13.46
737.531	18.46
737.555	-3.54
737.58	-1.54
737.604	16.46
737.628	-4.54
737.652	4.46
737.676	11.46
737.701	4.46
737.725	-2.54
737.749	21.46
737.773	-5.54
737.797	-13.54
737.821	19.46
737.846	6.46
737.87	16.46
737.894	5.46
737.918	3.46
737.942	2.46
737.966	15.46
737.99	12.46
738.015	10.46
738.039	-1.54
738.063	-0.54
738.087	13.46
738.111	9.46
738.135	17.46
738.159	14.46
738.184	-2.54
738.208	7.46
738.232	10.46
738.256	6.46
738.28	9.46
738.304	11.46
738.328	10.46
738.352	0.46
738.376	5.46
738.4	4.46
738.425	5.46
738.449	-17.54
738.473	1.46
738.497	4.46
738.521	-0.54
738.545	-2.54
738.569	17.46
738.593	1.46
738.617	-0.54
738.641	11.46
738.665	0.46
738.689	5.46
738.713	-2.54
738.737	-4.54
738.762	21.46
738.786	8.46
738.81	6.46
738.834	16.46
738.858	-13.54
738.882	6.46
738.906	-3.54
738.93	5.46
738.954	11.46
738.978	9.46
739.002	1.46
739.026	2.46
739.05	13.46
739.074	1.46
739.098	22.46
739.122	15.46
739.146	7.46
739.17	26.46
739.194	16.46
739.218	7.46
739.242	-5.54
739.266	10.46
739.29	7.46
739.314	8.46
739.338	7.46
739.362	1.46
739.386	-4.54
739.41	1.46
739.434	-6.54
739.458	15.46
739.482	3.46
739.506	0.46
739.53	-7.54
739.554	18.46
739.577	8.46
739.601	8.46
739.625	7.46
739.649	7.46
739.673	2.46
739.697	-2.54
739.721	10.46
739.745	14.46
739.769	8.46
739.793	9.46
739.817	10.46
739.841	8.46
739.865	-6.54
739.889	-9.54
739.912	-2.54
739.936	2.46
739.96	1.46
739.984	22.46
740.008	-7.54
740.032	-6.54
740.056	8.46
740.08	-8.54
740.104	-2.54
740.127	1.46
740.151	19.46
740.175	6.46
740.199	14.46
740.223	50.46
740.247	-2.54
740.271	1.46
740.295	6.46
740.318	-7.54
740.342	5.46
740.366	1.46
740.39	9.46
740.414	-17.54
740.438	-23.54
740.461	2.46
740.485	5.46
740.509	-1.54
740.533	14.46
740.557	3.46
740.581	11.46
740.604	-9.54
740.628	1.46
740.652	3.46
740.676	-8.54
740.7	-0.54
740.723	-8.54
740.747	-13.54
740.771	7.46
740.795	-11.54
740.819	11.46
740.842	12.46
740.866	5.46
740.89	12.46
740.914	16.46
740.938	-1.54
740.961	16.46
740.985	8.46
741.009	8.46
741.033	2.46
741.056	5.46
741.08	1.46
741.104	-9.54
741.128	6.46
741.151	19.46
741.175	19.46
741.199	-5.54
741.223	5.46
741.246	-9.54
741.27	-6.54
741.294	-3.54
741.318	-8.54
741.341	-2.54
741.365	12.46
741.389	5.46
741.413	20.46
741.436	10.46
741.46	8.46
741.484	9.46
741.507	13.46
741.531	25.46
741.555	6.46
741.579	1.46
741.602	15.46
741.626	9.46
741.65	1.46
741.673	-12.54
741.697	15.46
741.721	9.46
741.744	-0.54
741.768	-0.54
741.792	9.46
741.815	9.46
741.839	7.46
741.863	9.46
741.886	7.46
741.91	19.46
741.934	-4.54
741.957	-8.54
741.981	14.46
742.005	-3.54
742.028	2.46
742.052	-0.54
742.075	-2.54
742.099	9.46
742.123	19.46
742.146	16.46
742.17	-8.54
742.194	-13.54
742.217	-2.54
742.241	12.46
742.264	5.46
742.288	11.46
742.312	6.46
742.335	-0.54
742.359	8.46
742.382	-1.54
742.406	8.46
742.43	9.46
742.453	6.46
742.477	-3.54
742.5	-6.54
742.524	14.46
742.548	18.46
742.571	12.46
742.595	-1.54
742.618	-12.54
742.642	-6.54
742.665	13.46
742.689	-0.54
742.712	6.46
742.736	-1.54
742.76	3.46
742.783	-13.54
742.807	15.46
742.83	16.46
742.854	-2.54
742.877	2.46
742.901	-2.54
742.924	-6.54
742.948	11.46
742.971	12.46
742.995	1.46
743.018	-1.54
743.042	-12.54
743.065	2.46
743.089	6.46
743.112	15.46
743.136	3.46
743.159	16.46
743.183	2.46
743.206	15.46
743.23	-5.54
743.253	-4.54
743.277	0.46
743.3	-6.54
743.324	1.46
743.347	10.46
743.371	16.46
743.394	23.46
743.418	14.46
743.441	14.46
743.465	2.46
743.488	-0.54
743.512	-9.54
743.535	-12.54
743.558	6.46
743.582	2.46
743.605	1.46
743.629	4.46
743.652	3.46
743.676	-4.54
743.699	4.46
743.723	16.46
743.746	12.46
743.769	-6.54
743.793	-0.54
743.816	-4.54
743.84	12.46
743.863	0.46
743.886	4.46
743.91	20.46
743.933	4.46
743.957	19.46
743.98	4.46
744.003	1.46
744.027	-0.54
744.05	-3.54
744.074	3.46
744.097	-17.54
744.12	0.46
744.144	11.46
744.167	6.46
744.19	-8.54
744.214	2.46
744.237	-12.54
744.26	24.46
744.284	-1.54
744.307	7.46
744.331	5.46
744.354	-8.54
744.377	9.46
744.401	-6.54
744.424	9.46
744.447	-7.54
744.471	-3.54
