Data from HighRes_H2_15_09_11_07_2024_HR4C61891__69__15-11-03-302.txt Node

Date: Thu Nov 07 15:11:03 EST 2024
User: crc00042
Spectrometer: HR4C6189
Trigger mode: 4
Integration Time (sec): 1.000000E-1
Scans to average: 1
Electric dark correction enabled: true
Nonlinearity correction enabled: false
Boxcar width: 0
XAxis mode: Wavelengths
Number of Pixels in Spectrum: 3648
>>>>>Begin Spectral Data<<<<<
639.567	-42.23
639.602	-42.23
639.636	-42.23
639.67	-42.23
639.704	3.77
639.738	-8.23
639.773	9.77
639.807	-9.23
639.841	-2.23
639.875	15.77
639.909	-8.23
639.943	-0.23
639.978	-2.23
640.012	-11.23
640.046	11.77
640.08	9.77
640.114	9.77
640.148	-15.23
640.182	-22.23
640.217	9.77
640.251	22.77
640.285	10.77
640.319	-13.23
640.353	17.77
640.387	7.77
640.421	-3.23
640.455	-9.23
640.49	8.77
640.524	1.77
640.558	-3.23
640.592	-7.23
640.626	-11.23
640.66	4.77
640.694	-14.23
640.728	14.77
640.762	7.77
640.796	7.77
640.83	18.77
640.865	2.77
640.899	15.77
640.933	7.77
640.967	20.77
641.001	4.77
641.035	-2.23
641.069	11.77
641.103	-2.23
641.137	-12.23
641.171	-13.23
641.205	-9.23
641.239	5.77
641.273	15.77
641.307	19.77
641.341	3.77
641.375	-1.23
641.409	6.77
641.443	6.77
641.477	9.77
641.511	29.77
641.545	9.77
641.579	-2.23
641.614	13.77
641.648	17.77
641.682	-3.23
641.716	25.77
641.75	9.77
641.784	0.77
641.818	4.77
641.852	9.77
641.886	4.77
641.919	32.77
641.953	-6.23
641.987	-3.23
642.021	6.77
642.055	8.77
642.089	10.77
642.123	1.77
642.157	2.77
642.191	-6.23
642.225	25.77
642.259	10.77
642.293	11.77
642.327	-3.23
642.361	3.77
642.395	16.77
642.429	13.77
642.463	10.77
642.497	19.77
642.531	7.77
642.565	3.77
642.599	8.77
642.633	16.77
642.666	-0.23
642.7	13.77
642.734	32.77
642.768	1.77
642.802	4.77
642.836	9.77
642.87	9.77
642.904	5.77
642.938	22.77
642.972	11.77
643.005	16.77
643.039	22.77
643.073	6.77
643.107	14.77
643.141	8.77
643.175	10.77
643.209	-7.23
643.243	2.77
643.276	2.77
643.31	3.77
643.344	3.77
643.378	-1.23
643.412	8.77
643.446	1.77
643.48	-3.23
643.513	1.77
643.547	5.77
643.581	-26.23
643.615	6.77
643.649	6.77
643.683	12.77
643.716	-7.23
643.75	0.77
643.784	-15.23
643.818	11.77
643.852	3.77
643.886	15.77
643.919	9.77
643.953	4.77
643.987	6.77
644.021	11.77
644.055	15.77
644.088	0.77
644.122	-21.23
644.156	-1.23
644.19	8.77
644.224	5.77
644.257	11.77
644.291	10.77
644.325	7.77
644.359	10.77
644.392	36.77
644.426	26.77
644.46	10.77
644.494	7.77
644.527	1.77
644.561	14.77
644.595	0.77
644.629	0.77
644.662	-5.23
644.696	16.77
644.73	0.77
644.764	-1.23
644.797	1.77
644.831	1.77
644.865	26.77
644.899	12.77
644.932	37.77
644.966	5.77
645	12.77
645.033	32.77
645.067	-2.23
645.101	13.77
645.135	3.77
645.168	2.77
645.202	-6.23
645.236	0.77
645.269	8.77
645.303	-17.23
645.337	-3.23
645.37	-2.23
645.404	5.77
645.438	-4.23
645.471	11.77
645.505	13.77
645.539	15.77
645.572	-2.23
645.606	13.77
645.64	25.77
645.673	-4.23
645.707	25.77
645.741	11.77
645.774	-30.23
645.808	6.77
645.842	-1.23
645.875	15.77
645.909	15.77
645.943	-2.23
645.976	14.77
646.01	1.77
646.043	5.77
646.077	21.77
646.111	-0.23
646.144	17.77
646.178	11.77
646.212	-0.23
646.245	4.77
646.279	0.77
646.312	3.77
646.346	22.77
646.38	2.77
646.413	16.77
646.447	2.77
646.48	1.77
646.514	13.77
646.547	-5.23
646.581	8.77
646.615	14.77
646.648	-12.23
646.682	-5.23
646.715	-4.23
646.749	21.77
646.782	-8.23
646.816	10.77
646.85	11.77
646.883	-1.23
646.917	-8.23
646.95	7.77
646.984	21.77
647.017	-2.23
647.051	15.77
647.084	7.77
647.118	9.77
647.151	6.77
647.185	4.77
647.218	-3.23
647.252	5.77
647.285	5.77
647.319	-8.23
647.353	6.77
647.386	15.77
647.42	2.77
647.453	-4.23
647.487	14.77
647.52	2.77
647.553	1.77
647.587	6.77
647.62	-7.23
647.654	3.77
647.687	27.77
647.721	9.77
647.754	7.77
647.788	-6.23
647.821	-11.23
647.855	7.77
647.888	16.77
647.922	10.77
647.955	-1.23
647.989	4.77
648.022	-6.23
648.055	20.77
648.089	-18.23
648.122	25.77
648.156	-2.23
648.189	-1.23
648.223	-2.23
648.256	2.77
648.29	17.77
648.323	14.77
648.356	15.77
648.39	-6.23
648.423	-1.23
648.457	-6.23
648.49	16.77
648.523	32.77
648.557	19.77
648.59	9.77
648.624	4.77
648.657	2.77
648.69	13.77
648.724	2.77
648.757	24.77
648.791	4.77
648.824	23.77
648.857	13.77
648.891	3.77
648.924	16.77
648.957	29.77
648.991	-0.23
649.024	4.77
649.057	-9.23
649.091	-3.23
649.124	-2.23
649.158	6.77
649.191	28.77
649.224	10.77
649.258	1.77
649.291	-4.23
649.324	-0.23
649.358	1.77
649.391	15.77
649.424	9.77
649.458	-7.23
649.491	-5.23
649.524	-8.23
649.557	-10.23
649.591	-9.23
649.624	16.77
649.657	-8.23
649.691	-1.23
649.724	0.77
649.757	-12.23
649.791	-0.23
649.824	12.77
649.857	8.77
649.89	-1.23
649.924	2.77
649.957	2.77
649.99	-8.23
650.023	-14.23
650.057	0.77
650.09	11.77
650.123	2.77
650.157	17.77
650.19	24.77
650.223	-7.23
650.256	-1.23
650.29	10.77
650.323	9.77
650.356	9.77
650.389	6.77
650.423	-15.23
650.456	2.77
650.489	24.77
650.522	11.77
650.555	23.77
650.589	7.77
650.622	6.77
650.655	16.77
650.688	11.77
650.721	-2.23
650.755	-8.23
650.788	17.77
650.821	12.77
650.854	5.77
650.887	-1.23
650.921	1.77
650.954	5.77
650.987	1.77
651.02	3.77
651.053	-22.23
651.087	-12.23
651.12	17.77
651.153	5.77
651.186	8.77
651.219	-6.23
651.252	6.77
651.286	23.77
651.319	-11.23
651.352	-11.23
651.385	0.77
651.418	14.77
651.451	10.77
651.484	15.77
651.518	-5.23
651.551	9.77
651.584	9.77
651.617	17.77
651.65	11.77
651.683	9.77
651.716	3.77
651.749	0.77
651.783	6.77
651.816	8.77
651.849	12.77
651.882	13.77
651.915	-2.23
651.948	16.77
651.981	8.77
652.014	-0.23
652.047	0.77
652.08	-8.23
652.114	5.77
652.147	2.77
652.18	-0.23
652.213	18.77
652.246	-6.23
652.279	2.77
652.312	21.77
652.345	7.77
652.378	15.77
652.411	21.77
652.444	23.77
652.477	7.77
652.51	-1.23
652.543	-3.23
652.576	7.77
652.609	-12.23
652.642	11.77
652.675	23.77
652.709	-7.23
652.742	-3.23
652.775	-0.23
652.808	13.77
652.841	3.77
652.874	14.77
652.907	0.77
652.94	-6.23
652.973	-2.23
653.006	-5.23
653.039	11.77
653.072	12.77
653.105	-1.23
653.138	-10.23
653.171	1.77
653.204	15.77
653.237	12.77
653.27	-5.23
653.303	-1.23
653.336	5.77
653.368	-3.23
653.401	28.77
653.434	4.77
653.467	-11.23
653.5	-0.23
653.533	-6.23
653.566	-7.23
653.599	-4.23
653.632	8.77
653.665	15.77
653.698	-11.23
653.731	-9.23
653.764	-10.23
653.797	4.77
653.83	0.77
653.863	5.77
653.896	-1.23
653.929	-8.23
653.961	3.77
653.994	2.77
654.027	6.77
654.06	22.77
654.093	16.77
654.126	9.77
654.159	8.77
654.192	7.77
654.225	2.77
654.258	-1.23
654.29	1.77
654.323	6.77
654.356	-6.23
654.389	4.77
654.422	5.77
654.455	-1.23
654.488	4.77
654.521	-22.23
654.553	-9.23
654.586	14.77
654.619	1.77
654.652	15.77
654.685	16.77
654.718	14.77
654.751	8.77
654.783	14.77
654.816	18.77
654.849	6.77
654.882	-0.23
654.915	-16.23
654.948	3.77
654.98	-0.23
655.013	-3.23
655.046	0.77
655.079	0.77
655.112	1.77
655.144	-7.23
655.177	18.77
655.21	12.77
655.243	15.77
655.276	11.77
655.308	7.77
655.341	0.77
655.374	20.77
655.407	-4.23
655.44	14.77
655.472	21.77
655.505	6.77
655.538	7.77
655.571	25.77
655.603	9.77
655.636	30.77
655.669	36.77
655.702	15.77
655.734	4.77
655.767	11.77
655.8	7.77
655.833	20.77
655.865	33.77
655.898	37.77
655.931	30.77
655.964	47.77
655.996	45.77
656.029	75.77
656.062	63.77
656.095	71.77
656.127	69.77
656.16	120.77
656.193	129.77
656.225	167.77
656.258	282.77
656.291	521.77
656.324	1154.77
656.356	3363.77
656.389	7572.77
656.422	6089.77
656.454	2066.77
656.487	684.77
656.52	251.77
656.552	120.77
656.585	77.77
656.618	65.77
656.65	47.77
656.683	35.77
656.716	20.77
656.748	11.77
656.781	8.77
656.814	15.77
656.846	13.77
656.879	-4.23
656.912	8.77
656.944	5.77
656.977	-2.23
657.01	5.77
657.042	1.77
657.075	17.77
657.108	-7.23
657.14	9.77
657.173	14.77
657.205	35.77
657.238	13.77
657.271	8.77
657.303	-8.23
657.336	-1.23
657.369	-12.23
657.401	11.77
657.434	11.77
657.466	4.77
657.499	22.77
657.532	10.77
657.564	4.77
657.597	-2.23
657.629	11.77
657.662	19.77
657.694	7.77
657.727	-8.23
657.76	22.77
657.792	-4.23
657.825	-6.23
657.857	2.77
657.89	-3.23
657.922	16.77
657.955	4.77
657.987	8.77
658.02	12.77
658.053	6.77
658.085	-4.23
658.118	11.77
658.15	4.77
658.183	15.77
658.215	2.77
658.248	-2.23
658.28	-19.23
658.313	26.77
658.345	23.77
658.378	18.77
658.41	3.77
658.443	20.77
658.475	15.77
658.508	-6.23
658.54	4.77
658.573	-7.23
658.605	-1.23
658.638	4.77
658.67	12.77
658.703	17.77
658.735	-0.23
658.768	16.77
658.8	-13.23
658.833	13.77
658.865	7.77
658.898	3.77
658.93	-3.23
658.963	-24.23
658.995	-5.23
659.028	12.77
659.06	12.77
659.092	-4.23
659.125	4.77
659.157	7.77
659.19	-18.23
659.222	-3.23
659.255	-4.23
659.287	13.77
659.32	-1.23
659.352	16.77
659.384	30.77
659.417	-6.23
659.449	15.77
659.482	0.77
659.514	-9.23
659.546	10.77
659.579	-2.23
659.611	2.77
659.644	-2.23
659.676	5.77
659.708	-0.23
659.741	4.77
659.773	-3.23
659.806	-13.23
659.838	-3.23
659.87	-11.23
659.903	3.77
659.935	15.77
659.967	10.77
660	5.77
660.032	-16.23
660.065	24.77
660.097	0.77
660.129	3.77
660.162	-3.23
660.194	25.77
660.226	5.77
660.259	4.77
660.291	10.77
660.323	-8.23
660.356	10.77
660.388	0.77
660.42	3.77
660.453	11.77
660.485	22.77
660.517	13.77
660.55	11.77
660.582	9.77
660.614	9.77
660.647	15.77
660.679	-5.23
660.711	8.77
660.743	-15.23
660.776	-4.23
660.808	-4.23
660.84	5.77
660.873	0.77
660.905	1.77
660.937	5.77
660.969	12.77
661.002	9.77
661.034	14.77
661.066	2.77
661.099	6.77
661.131	10.77
661.163	-6.23
661.195	-6.23
661.228	25.77
661.26	-3.23
661.292	-10.23
661.324	21.77
661.357	20.77
661.389	8.77
661.421	9.77
661.453	2.77
661.485	0.77
661.518	3.77
661.55	-8.23
661.582	-5.23
661.614	5.77
661.647	-3.23
661.679	2.77
661.711	16.77
661.743	-4.23
661.775	-15.23
661.808	12.77
661.84	-4.23
661.872	14.77
661.904	15.77
661.936	12.77
661.969	-7.23
662.001	6.77
662.033	22.77
662.065	3.77
662.097	18.77
662.129	15.77
662.162	-14.23
662.194	-8.23
662.226	3.77
662.258	12.77
662.29	-3.23
662.322	-4.23
662.355	-1.23
662.387	32.77
662.419	2.77
662.451	9.77
662.483	11.77
662.515	8.77
662.547	6.77
662.58	13.77
662.612	-4.23
662.644	6.77
662.676	17.77
662.708	19.77
662.74	7.77
662.772	13.77
662.804	11.77
662.836	12.77
662.869	6.77
662.901	-0.23
662.933	-10.23
662.965	28.77
662.997	9.77
663.029	-2.23
663.061	-8.23
663.093	-10.23
663.125	6.77
663.157	2.77
663.189	8.77
663.221	21.77
663.254	3.77
663.286	13.77
663.318	12.77
663.35	-4.23
663.382	-0.23
663.414	3.77
663.446	10.77
663.478	-16.23
663.51	23.77
663.542	7.77
663.574	9.77
663.606	12.77
663.638	-9.23
663.67	-0.23
663.702	-8.23
663.734	-5.23
663.766	5.77
663.798	9.77
663.83	18.77
663.862	2.77
663.894	-3.23
663.926	0.77
663.958	11.77
663.99	11.77
664.022	-5.23
664.054	10.77
664.086	-9.23
664.118	-20.23
664.15	1.77
664.182	4.77
664.214	-0.23
664.246	12.77
664.278	5.77
664.31	21.77
664.342	5.77
664.374	15.77
664.406	9.77
664.438	-2.23
664.47	22.77
664.502	19.77
664.534	7.77
664.566	-11.23
664.598	4.77
664.63	10.77
664.662	-7.23
664.693	6.77
664.725	12.77
664.757	8.77
664.789	-6.23
664.821	11.77
664.853	6.77
664.885	5.77
664.917	2.77
664.949	13.77
664.981	31.77
665.013	19.77
665.045	-5.23
665.076	7.77
665.108	9.77
665.14	-4.23
665.172	11.77
665.204	9.77
665.236	-10.23
665.268	15.77
665.3	9.77
665.331	4.77
665.363	9.77
665.395	4.77
665.427	4.77
665.459	8.77
665.491	-1.23
665.523	7.77
665.555	16.77
665.586	6.77
665.618	13.77
665.65	-4.23
665.682	21.77
665.714	-1.23
665.746	11.77
665.777	-6.23
665.809	7.77
665.841	-5.23
665.873	-11.23
665.905	-3.23
665.937	25.77
665.968	3.77
666	1.77
666.032	11.77
666.064	8.77
666.096	-13.23
666.127	9.77
666.159	16.77
666.191	4.77
666.223	-0.23
666.255	5.77
666.286	2.77
666.318	4.77
666.35	8.77
666.382	4.77
666.413	-6.23
666.445	-8.23
666.477	-11.23
666.509	-3.23
666.54	-2.23
666.572	-2.23
666.604	9.77
666.636	-3.23
666.667	22.77
666.699	21.77
666.731	0.77
666.763	-12.23
666.794	6.77
666.826	-6.23
666.858	-2.23
666.89	10.77
666.921	0.77
666.953	-2.23
666.985	6.77
667.017	24.77
667.048	14.77
667.08	15.77
667.112	1.77
667.143	4.77
667.175	21.77
667.207	0.77
667.238	8.77
667.27	9.77
667.302	7.77
667.334	16.77
667.365	30.77
667.397	20.77
667.429	1.77
667.46	17.77
667.492	8.77
667.524	7.77
667.555	7.77
667.587	-1.23
667.619	2.77
667.65	-5.23
667.682	12.77
667.714	8.77
667.745	17.77
667.777	5.77
667.808	11.77
667.84	-1.23
667.872	-5.23
667.903	4.77
667.935	8.77
667.967	1.77
667.998	-8.23
668.03	-4.23
668.061	9.77
668.093	-2.23
668.125	4.77
668.156	6.77
668.188	0.77
668.22	-5.23
668.251	19.77
668.283	9.77
668.314	28.77
668.346	-8.23
668.377	9.77
668.409	-5.23
668.441	8.77
668.472	3.77
668.504	13.77
668.535	15.77
668.567	16.77
668.599	23.77
668.63	4.77
668.662	-13.23
668.693	22.77
668.725	18.77
668.756	31.77
668.788	6.77
668.819	0.77
668.851	11.77
668.882	4.77
668.914	10.77
668.946	13.77
668.977	-6.23
669.009	5.77
669.04	-2.23
669.072	8.77
669.103	23.77
669.135	15.77
669.166	-1.23
669.198	-0.23
669.229	17.77
669.261	-7.23
669.292	-9.23
669.324	14.77
669.355	10.77
669.387	7.77
669.418	11.77
669.45	-2.23
669.481	13.77
669.513	12.77
669.544	8.77
669.576	1.77
669.607	13.77
669.639	11.77
669.67	8.77
669.701	14.77
669.733	-1.23
669.764	4.77
669.796	-7.23
669.827	-12.23
669.859	-2.23
669.89	1.77
669.922	14.77
669.953	10.77
669.985	4.77
670.016	3.77
670.047	6.77
670.079	11.77
670.11	13.77
670.142	-4.23
670.173	2.77
670.204	11.77
670.236	9.77
670.267	-18.23
670.299	3.77
670.33	3.77
670.362	15.77
670.393	3.77
670.424	16.77
670.456	-9.23
670.487	-2.23
670.518	1.77
670.55	4.77
670.581	-10.23
670.613	5.77
670.644	-6.23
670.675	-2.23
670.707	-8.23
670.738	12.77
670.769	-1.23
670.801	-10.23
670.832	9.77
670.864	6.77
670.895	18.77
670.926	8.77
670.958	2.77
670.989	3.77
671.02	-5.23
671.052	15.77
671.083	7.77
671.114	3.77
671.146	23.77
671.177	22.77
671.208	-5.23
671.24	-12.23
671.271	-8.23
671.302	-3.23
671.333	-12.23
671.365	-16.23
671.396	-15.23
671.427	10.77
671.459	18.77
671.49	-0.23
671.521	15.77
671.553	1.77
671.584	7.77
671.615	-4.23
671.646	7.77
671.678	9.77
671.709	-7.23
671.74	-15.23
671.771	-4.23
671.803	7.77
671.834	8.77
671.865	-6.23
671.896	6.77
671.928	-3.23
671.959	-8.23
671.99	-4.23
672.021	-3.23
672.053	-10.23
672.084	22.77
672.115	8.77
672.146	8.77
672.178	6.77
672.209	-0.23
672.24	-2.23
672.271	23.77
672.303	8.77
672.334	6.77
672.365	-3.23
672.396	0.77
672.427	13.77
672.459	27.77
672.49	13.77
672.521	15.77
672.552	19.77
672.583	13.77
672.615	20.77
672.646	11.77
672.677	16.77
672.708	10.77
672.739	-5.23
672.77	5.77
672.802	7.77
672.833	4.77
672.864	-7.23
672.895	-9.23
672.926	-4.23
672.957	-13.23
672.989	-4.23
673.02	3.77
673.051	3.77
673.082	22.77
673.113	11.77
673.144	6.77
673.175	6.77
673.206	-0.23
673.238	-4.23
673.269	-11.23
673.3	4.77
673.331	1.77
673.362	4.77
673.393	-3.23
673.424	2.77
673.455	12.77
673.487	8.77
673.518	3.77
673.549	-3.23
673.58	1.77
673.611	14.77
673.642	4.77
673.673	2.77
673.704	0.77
673.735	11.77
673.766	-8.23
673.797	-9.23
673.828	-0.23
673.86	3.77
673.891	-9.23
673.922	-4.23
673.953	-15.23
673.984	-2.23
674.015	14.77
674.046	-2.23
674.077	-1.23
674.108	10.77
674.139	1.77
674.17	-0.23
674.201	-7.23
674.232	2.77
674.263	-4.23
674.294	2.77
674.325	-20.23
674.356	-3.23
674.387	3.77
674.418	25.77
674.449	12.77
674.48	-7.23
674.511	4.77
674.542	22.77
674.573	11.77
674.604	5.77
674.635	-9.23
674.666	-1.23
674.697	-14.23
674.728	9.77
674.759	11.77
674.79	-7.23
674.821	-9.23
674.852	-16.23
674.883	-28.23
674.914	-6.23
674.945	7.77
674.976	14.77
675.007	-3.23
675.038	-7.23
675.069	-7.23
675.1	5.77
675.131	2.77
675.162	-4.23
675.193	0.77
675.224	10.77
675.254	6.77
675.285	11.77
675.316	20.77
675.347	11.77
675.378	-0.23
675.409	-8.23
675.44	11.77
675.471	5.77
675.502	-6.23
675.533	8.77
675.564	12.77
675.595	9.77
675.625	25.77
675.656	14.77
675.687	14.77
675.718	-13.23
675.749	16.77
675.78	17.77
675.811	5.77
675.842	11.77
675.873	14.77
675.903	-22.23
675.934	10.77
675.965	-3.23
675.996	-20.23
676.027	22.77
676.058	-7.23
676.089	-9.23
676.119	14.77
676.15	1.77
676.181	13.77
676.212	-1.23
676.243	25.77
676.274	5.77
676.304	16.77
676.335	-9.23
676.366	0.77
676.397	-6.23
676.428	-8.23
676.459	9.77
676.489	19.77
676.52	8.77
676.551	9.77
676.582	0.77
676.613	-0.23
676.643	-2.23
676.674	12.77
676.705	7.77
676.736	5.77
676.767	20.77
676.797	6.77
676.828	19.77
676.859	-10.23
676.89	2.77
676.92	3.77
676.951	15.77
676.982	6.77
677.013	13.77
677.044	10.77
677.074	4.77
677.105	14.77
677.136	8.77
677.167	-13.23
677.197	13.77
677.228	-2.23
677.259	-4.23
677.289	11.77
677.32	-8.23
677.351	-9.23
677.382	-3.23
677.412	-16.23
677.443	11.77
677.474	-2.23
677.505	0.77
677.535	3.77
677.566	-4.23
677.597	3.77
677.627	-5.23
677.658	7.77
677.689	3.77
677.72	5.77
677.75	3.77
677.781	-3.23
677.812	-0.23
677.842	4.77
677.873	21.77
677.904	15.77
677.934	5.77
677.965	-1.23
677.996	-18.23
678.026	4.77
678.057	3.77
678.088	-0.23
678.118	6.77
678.149	-0.23
678.18	-3.23
678.21	-1.23
678.241	26.77
678.272	11.77
678.302	5.77
678.333	8.77
678.363	12.77
678.394	8.77
678.425	0.77
678.455	-2.23
678.486	8.77
678.517	7.77
678.547	15.77
678.578	13.77
678.608	-11.23
678.639	-2.23
678.67	6.77
678.7	-10.23
678.731	-8.23
678.761	-10.23
678.792	-4.23
678.823	15.77
678.853	6.77
678.884	3.77
678.914	10.77
678.945	4.77
678.975	3.77
679.006	15.77
679.037	1.77
679.067	23.77
679.098	11.77
679.128	8.77
679.159	-1.23
679.189	17.77
679.22	15.77
679.25	15.77
679.281	9.77
679.312	20.77
679.342	-4.23
679.373	20.77
679.403	19.77
679.434	10.77
679.464	-1.23
679.495	1.77
679.525	8.77
679.556	-0.23
679.586	8.77
679.617	11.77
679.647	-8.23
679.678	5.77
679.708	0.77
679.739	3.77
679.769	3.77
679.8	-2.23
679.83	13.77
679.861	13.77
679.891	17.77
679.922	-12.23
679.952	-5.23
679.983	-3.23
680.013	6.77
680.044	5.77
680.074	10.77
680.105	11.77
680.135	4.77
680.165	1.77
680.196	0.77
680.226	8.77
680.257	16.77
680.287	7.77
680.318	5.77
680.348	-7.23
680.379	30.77
680.409	19.77
680.439	4.77
680.47	12.77
680.5	4.77
680.531	-2.23
680.561	17.77
680.592	8.77
680.622	12.77
680.652	-0.23
680.683	8.77
680.713	-1.23
680.744	-1.23
680.774	-0.23
680.804	8.77
680.835	6.77
680.865	0.77
680.896	23.77
680.926	28.77
680.956	5.77
680.987	12.77
681.017	5.77
681.047	6.77
681.078	3.77
681.108	-7.23
681.139	-0.23
681.169	16.77
681.199	11.77
681.23	21.77
681.26	1.77
681.29	-1.23
681.321	3.77
681.351	2.77
681.381	-6.23
681.412	2.77
681.442	10.77
681.472	15.77
681.503	1.77
681.533	-4.23
681.563	-8.23
681.594	-3.23
681.624	-4.23
681.654	3.77
681.685	2.77
681.715	9.77
681.745	-3.23
681.775	6.77
681.806	4.77
681.836	3.77
681.866	-2.23
681.897	3.77
681.927	-0.23
681.957	-8.23
681.987	10.77
682.018	6.77
682.048	11.77
682.078	1.77
682.109	37.77
682.139	17.77
682.169	22.77
682.199	-3.23
682.23	-16.23
682.26	-3.23
682.29	-1.23
682.32	9.77
682.351	-3.23
682.381	2.77
682.411	-15.23
682.441	-6.23
682.472	2.77
682.502	-2.23
682.532	0.77
682.562	7.77
682.592	26.77
682.623	15.77
682.653	11.77
682.683	5.77
682.713	9.77
682.743	6.77
682.774	5.77
682.804	1.77
682.834	23.77
682.864	-10.23
682.894	0.77
682.925	28.77
682.955	-5.23
682.985	-4.23
683.015	2.77
683.045	11.77
683.076	-10.23
683.106	-11.23
683.136	4.77
683.166	4.77
683.196	-4.23
683.226	7.77
683.257	3.77
683.287	4.77
683.317	-10.23
683.347	-11.23
683.377	2.77
683.407	13.77
683.437	22.77
683.468	28.77
683.498	-8.23
683.528	17.77
683.558	7.77
683.588	8.77
683.618	-4.23
683.648	6.77
683.678	15.77
683.708	24.77
683.739	21.77
683.769	6.77
683.799	19.77
683.829	-4.23
683.859	-2.23
683.889	7.77
683.919	-0.23
683.949	14.77
683.979	5.77
684.009	2.77
684.039	-7.23
684.07	-9.23
684.1	29.77
684.13	3.77
684.16	13.77
684.19	4.77
684.22	11.77
684.25	11.77
684.28	-0.23
684.31	10.77
684.34	4.77
684.37	0.77
684.4	3.77
684.43	17.77
684.46	-5.23
684.49	10.77
684.52	6.77
684.55	13.77
684.58	-7.23
684.61	13.77
684.64	25.77
684.67	14.77
684.7	8.77
684.73	10.77
684.76	14.77
684.79	17.77
684.82	6.77
684.85	-0.23
684.88	22.77
684.91	29.77
684.94	14.77
684.97	-3.23
685	-12.23
685.03	-8.23
685.06	-9.23
685.09	2.77
685.12	6.77
685.15	-0.23
685.18	-6.23
685.21	15.77
685.24	21.77
685.27	19.77
685.3	2.77
685.33	14.77
685.36	8.77
685.39	11.77
685.42	0.77
685.45	12.77
685.48	11.77
685.51	10.77
685.54	15.77
685.569	25.77
685.599	22.77
685.629	5.77
685.659	5.77
685.689	8.77
685.719	-13.23
685.749	5.77
685.779	10.77
685.809	7.77
685.839	-3.23
685.869	7.77
685.898	5.77
685.928	4.77
685.958	10.77
685.988	13.77
686.018	5.77
686.048	0.77
686.078	7.77
686.108	15.77
686.137	8.77
686.167	12.77
686.197	4.77
686.227	10.77
686.257	20.77
686.287	3.77
686.317	16.77
686.346	-5.23
686.376	-10.23
686.406	7.77
686.436	21.77
686.466	2.77
686.496	7.77
686.525	18.77
686.555	-0.23
686.585	5.77
686.615	24.77
686.645	26.77
686.675	22.77
686.704	0.77
686.734	4.77
686.764	10.77
686.794	6.77
686.824	-5.23
686.853	20.77
686.883	11.77
686.913	8.77
686.943	-4.23
686.973	-13.23
687.002	8.77
687.032	28.77
687.062	4.77
687.092	19.77
687.121	1.77
687.151	-1.23
687.181	6.77
687.211	11.77
687.24	7.77
687.27	1.77
687.3	-3.23
687.33	7.77
687.359	-13.23
687.389	18.77
687.419	-1.23
687.449	11.77
687.478	14.77
687.508	1.77
687.538	9.77
687.568	0.77
687.597	0.77
687.627	16.77
687.657	9.77
687.686	18.77
687.716	27.77
687.746	10.77
687.776	-6.23
687.805	20.77
687.835	-0.23
687.865	2.77
687.894	6.77
687.924	-6.23
687.954	7.77
687.983	9.77
688.013	15.77
688.043	3.77
688.072	12.77
688.102	27.77
688.132	3.77
688.161	1.77
688.191	10.77
688.221	16.77
688.25	0.77
688.28	-9.23
688.31	5.77
688.339	9.77
688.369	0.77
688.399	-6.23
688.428	-4.23
688.458	9.77
688.488	-7.23
688.517	7.77
688.547	11.77
688.576	42.77
688.606	15.77
688.636	-2.23
688.665	7.77
688.695	16.77
688.725	12.77
688.754	13.77
688.784	11.77
688.813	24.77
688.843	10.77
688.873	3.77
688.902	5.77
688.932	-2.23
688.961	12.77
688.991	7.77
689.02	1.77
689.05	-15.23
689.08	25.77
689.109	20.77
689.139	13.77
689.168	8.77
689.198	12.77
689.227	14.77
689.257	22.77
689.287	13.77
689.316	-4.23
689.346	-8.23
689.375	14.77
689.405	14.77
689.434	-8.23
689.464	7.77
689.493	-8.23
689.523	5.77
689.552	-3.23
689.582	2.77
689.611	-8.23
689.641	21.77
689.67	32.77
689.7	19.77
689.73	14.77
689.759	16.77
689.789	17.77
689.818	6.77
689.848	8.77
689.877	27.77
689.906	5.77
689.936	-3.23
689.965	12.77
689.995	16.77
690.024	7.77
690.054	4.77
690.083	19.77
690.113	11.77
690.142	8.77
690.172	15.77
690.201	17.77
690.231	7.77
690.26	12.77
690.29	13.77
690.319	9.77
690.348	-2.23
690.378	15.77
690.407	21.77
690.437	0.77
690.466	15.77
690.496	2.77
690.525	19.77
690.555	-0.23
690.584	-17.23
690.613	6.77
690.643	7.77
690.672	8.77
690.702	2.77
690.731	2.77
690.76	7.77
690.79	3.77
690.819	7.77
690.849	4.77
690.878	4.77
690.907	3.77
690.937	14.77
690.966	6.77
690.996	-2.23
691.025	9.77
691.054	6.77
691.084	23.77
691.113	4.77
691.142	6.77
691.172	30.77
691.201	25.77
691.23	17.77
691.26	8.77
691.289	-1.23
691.319	-8.23
691.348	15.77
691.377	19.77
691.407	4.77
691.436	19.77
691.465	-1.23
691.495	-9.23
691.524	-5.23
691.553	-19.23
691.583	-3.23
691.612	14.77
691.641	-10.23
691.67	7.77
691.7	-1.23
691.729	-15.23
691.758	-3.23
691.788	-1.23
691.817	5.77
691.846	-0.23
691.876	8.77
691.905	3.77
691.934	4.77
691.963	28.77
691.993	9.77
692.022	1.77
692.051	0.77
692.081	2.77
692.11	13.77
692.139	8.77
692.168	13.77
692.198	24.77
692.227	5.77
692.256	9.77
692.285	-5.23
692.315	-3.23
692.344	-4.23
692.373	1.77
692.402	-11.23
692.432	-15.23
692.461	-1.23
692.49	0.77
692.519	6.77
692.548	17.77
692.578	24.77
692.607	-2.23
692.636	-9.23
692.665	7.77
692.694	4.77
692.724	12.77
692.753	16.77
692.782	22.77
692.811	-5.23
692.84	-0.23
692.87	0.77
692.899	2.77
692.928	-3.23
692.957	8.77
692.986	23.77
693.016	12.77
693.045	-1.23
693.074	5.77
693.103	17.77
693.132	-1.23
693.161	7.77
693.191	8.77
693.22	-0.23
693.249	15.77
693.278	7.77
693.307	22.77
693.336	5.77
693.365	0.77
693.395	2.77
693.424	9.77
693.453	40.77
693.482	13.77
693.511	16.77
693.54	8.77
693.569	-1.23
693.598	7.77
693.628	8.77
693.657	24.77
693.686	15.77
693.715	21.77
693.744	12.77
693.773	12.77
693.802	16.77
693.831	3.77
693.86	21.77
693.889	6.77
693.919	13.77
693.948	0.77
693.977	9.77
694.006	2.77
694.035	7.77
694.064	-8.23
694.093	-4.23
694.122	-4.23
694.151	5.77
694.18	-3.23
694.209	16.77
694.238	14.77
694.267	13.77
694.296	12.77
694.325	6.77
694.354	15.77
694.383	9.77
694.412	-5.23
694.441	-3.23
694.471	12.77
694.5	-8.23
694.529	11.77
694.558	14.77
694.587	25.77
694.616	-10.23
694.645	-10.23
694.674	7.77
694.703	21.77
694.732	8.77
694.761	25.77
694.79	3.77
694.819	-7.23
694.848	10.77
694.877	29.77
694.906	16.77
694.935	10.77
694.963	28.77
694.992	0.77
695.021	-8.23
695.05	4.77
695.079	-7.23
695.108	4.77
695.137	40.77
695.166	8.77
695.195	7.77
695.224	25.77
695.253	7.77
695.282	2.77
695.311	10.77
695.34	-4.23
695.369	7.77
695.398	5.77
695.427	34.77
695.456	7.77
695.485	5.77
695.513	-3.23
695.542	3.77
695.571	2.77
695.6	20.77
695.629	7.77
695.658	16.77
695.687	8.77
695.716	9.77
695.745	23.77
695.774	1.77
695.802	8.77
695.831	9.77
695.86	7.77
695.889	24.77
695.918	8.77
695.947	-4.23
695.976	2.77
696.005	5.77
696.033	8.77
696.062	8.77
696.091	-10.23
696.12	-11.23
696.149	11.77
696.178	3.77
696.207	-4.23
696.235	-8.23
696.264	-0.23
696.293	1.77
696.322	8.77
696.351	12.77
696.38	-0.23
696.408	7.77
696.437	7.77
696.466	11.77
696.495	21.77
696.524	10.77
696.553	7.77
696.581	14.77
696.61	13.77
696.639	0.77
696.668	-2.23
696.697	2.77
696.725	4.77
696.754	17.77
696.783	8.77
696.812	4.77
696.84	-0.23
696.869	11.77
696.898	8.77
696.927	7.77
696.956	24.77
696.984	7.77
697.013	-3.23
697.042	10.77
697.071	10.77
697.099	8.77
697.128	2.77
697.157	31.77
697.186	10.77
697.214	-0.23
697.243	2.77
697.272	-0.23
697.301	0.77
697.329	8.77
697.358	7.77
697.387	13.77
697.415	4.77
697.444	17.77
697.473	7.77
697.502	11.77
697.53	9.77
697.559	0.77
697.588	5.77
697.616	3.77
697.645	8.77
697.674	25.77
697.703	6.77
697.731	8.77
697.76	4.77
697.789	-0.23
697.817	3.77
697.846	26.77
697.875	12.77
697.903	27.77
697.932	19.77
697.961	16.77
697.989	6.77
698.018	7.77
698.047	12.77
698.075	26.77
698.104	10.77
698.133	3.77
698.161	-2.23
698.19	-0.23
698.218	-5.23
698.247	23.77
698.276	7.77
698.304	3.77
698.333	14.77
698.362	10.77
698.39	5.77
698.419	2.77
698.447	9.77
698.476	5.77
698.505	29.77
698.533	6.77
698.562	2.77
698.591	5.77
698.619	-0.23
698.648	4.77
698.676	6.77
698.705	2.77
698.733	-9.23
698.762	8.77
698.791	1.77
698.819	9.77
698.848	-7.23
698.876	9.77
698.905	6.77
698.933	15.77
698.962	-2.23
698.991	6.77
699.019	9.77
699.048	2.77
699.076	8.77
699.105	-5.23
699.133	10.77
699.162	5.77
699.19	17.77
699.219	1.77
699.248	1.77
699.276	6.77
699.305	4.77
699.333	11.77
699.362	2.77
699.39	16.77
699.419	-18.23
699.447	1.77
699.476	34.77
699.504	13.77
699.533	6.77
699.561	1.77
699.59	8.77
699.618	-2.23
699.647	4.77
699.675	0.77
699.704	15.77
699.732	-0.23
699.761	7.77
699.789	-4.23
699.818	5.77
699.846	3.77
699.874	-7.23
699.903	-5.23
699.931	3.77
699.96	12.77
699.988	9.77
700.017	10.77
700.045	-4.23
700.074	3.77
700.102	-2.23
700.13	-12.23
700.159	8.77
700.187	6.77
700.216	-4.23
700.244	-11.23
700.273	18.77
700.301	10.77
700.329	20.77
700.358	13.77
700.386	-6.23
700.415	-7.23
700.443	-1.23
700.472	-10.23
700.5	0.77
700.528	21.77
700.557	8.77
700.585	12.77
700.614	14.77
700.642	12.77
700.67	2.77
700.699	4.77
700.727	5.77
700.755	6.77
700.784	5.77
700.812	-0.23
700.841	24.77
700.869	4.77
700.897	-12.23
700.926	7.77
700.954	13.77
700.982	14.77
701.011	3.77
701.039	31.77
701.067	-8.23
701.096	6.77
701.124	-2.23
701.152	3.77
701.181	2.77
701.209	-2.23
701.237	3.77
701.266	12.77
701.294	3.77
701.322	19.77
701.351	28.77
701.379	24.77
701.407	10.77
701.435	3.77
701.464	12.77
701.492	14.77
701.52	4.77
701.549	8.77
701.577	-4.23
701.605	-11.23
701.634	2.77
701.662	7.77
701.69	-15.23
701.718	0.77
701.747	22.77
701.775	0.77
701.803	16.77
701.831	14.77
701.86	-7.23
701.888	11.77
701.916	-7.23
701.944	2.77
701.973	-1.23
702.001	-5.23
702.029	8.77
702.057	-1.23
702.086	-16.23
702.114	-9.23
702.142	6.77
702.17	-9.23
702.199	-20.23
702.227	14.77
702.255	8.77
702.283	0.77
702.311	9.77
702.34	4.77
702.368	-4.23
702.396	8.77
702.424	16.77
702.452	-5.23
702.481	-1.23
702.509	13.77
702.537	3.77
702.565	8.77
702.593	-2.23
702.621	2.77
702.65	24.77
702.678	20.77
702.706	13.77
702.734	10.77
702.762	10.77
702.79	4.77
702.819	3.77
702.847	-14.23
702.875	6.77
702.903	16.77
702.931	9.77
702.959	2.77
702.988	3.77
703.016	-14.23
703.044	-2.23
703.072	9.77
703.1	-11.23
703.128	-4.23
703.156	13.77
703.184	-6.23
703.212	-12.23
703.241	4.77
703.269	8.77
703.297	7.77
703.325	4.77
703.353	11.77
703.381	-1.23
703.409	3.77
703.437	-5.23
703.465	1.77
703.493	-19.23
703.522	5.77
703.55	15.77
703.578	4.77
703.606	-9.23
703.634	-5.23
703.662	-3.23
703.69	20.77
703.718	-0.23
703.746	28.77
703.774	-7.23
703.802	11.77
703.83	-11.23
703.858	5.77
703.886	-0.23
703.914	-9.23
703.942	20.77
703.97	-13.23
703.998	-4.23
704.027	8.77
704.055	17.77
704.083	-2.23
704.111	-12.23
704.139	13.77
704.167	-0.23
704.195	-1.23
704.223	-16.23
704.251	-3.23
704.279	-2.23
704.307	6.77
704.335	-10.23
704.363	11.77
704.391	15.77
704.419	-1.23
704.447	1.77
704.475	7.77
704.503	-3.23
704.531	6.77
704.558	5.77
704.586	18.77
704.614	6.77
704.642	0.77
704.67	-3.23
704.698	12.77
704.726	1.77
704.754	0.77
704.782	-1.23
704.81	6.77
704.838	20.77
704.866	18.77
704.894	-7.23
704.922	4.77
704.95	6.77
704.978	29.77
705.006	19.77
705.034	16.77
705.061	5.77
705.089	8.77
705.117	-4.23
705.145	-2.23
705.173	8.77
705.201	19.77
705.229	20.77
705.257	19.77
705.285	20.77
705.313	8.77
705.34	-8.23
705.368	-15.23
705.396	13.77
705.424	4.77
705.452	0.77
705.48	8.77
705.508	2.77
705.536	11.77
705.563	-2.23
705.591	5.77
705.619	11.77
705.647	7.77
705.675	14.77
705.703	-2.23
705.731	-2.23
705.758	13.77
705.786	-3.23
705.814	16.77
705.842	14.77
705.87	9.77
705.898	14.77
705.925	2.77
705.953	-4.23
705.981	-7.23
706.009	13.77
706.037	0.77
706.065	7.77
706.092	3.77
706.12	2.77
706.148	-1.23
706.176	-1.23
706.204	10.77
706.231	-7.23
706.259	11.77
706.287	-0.23
706.315	4.77
706.342	3.77
706.37	10.77
706.398	3.77
706.426	16.77
706.454	-4.23
706.481	2.77
706.509	5.77
706.537	-7.23
706.565	-12.23
706.592	1.77
706.62	2.77
706.648	13.77
706.676	-2.23
706.703	15.77
706.731	9.77
706.759	-1.23
706.787	7.77
706.814	3.77
706.842	13.77
706.87	6.77
706.897	2.77
706.925	3.77
706.953	26.77
706.981	12.77
707.008	9.77
707.036	5.77
707.064	3.77
707.091	-18.23
707.119	20.77
707.147	6.77
707.174	-5.23
707.202	13.77
707.23	-1.23
707.258	8.77
707.285	-11.23
707.313	0.77
707.341	-7.23
707.368	-7.23
707.396	22.77
707.424	3.77
707.451	15.77
707.479	-6.23
707.507	3.77
707.534	-1.23
707.562	4.77
707.59	-0.23
707.617	-0.23
707.645	4.77
707.672	3.77
707.7	8.77
707.728	8.77
707.755	9.77
707.783	10.77
707.811	17.77
707.838	5.77
707.866	10.77
707.893	4.77
707.921	-18.23
707.949	-1.23
707.976	3.77
708.004	5.77
708.031	-5.23
708.059	-10.23
708.087	8.77
708.114	-1.23
708.142	12.77
708.169	14.77
708.197	14.77
708.225	18.77
708.252	5.77
708.28	0.77
708.307	-4.23
708.335	5.77
708.362	5.77
708.39	14.77
708.418	4.77
708.445	5.77
708.473	-1.23
708.5	-6.23
708.528	10.77
708.555	8.77
708.583	7.77
708.61	-7.23
708.638	10.77
708.665	8.77
708.693	16.77
708.72	-7.23
708.748	0.77
708.776	8.77
708.803	24.77
708.831	24.77
708.858	18.77
708.886	-2.23
708.913	-0.23
708.941	8.77
708.968	20.77
708.996	-2.23
709.023	27.77
709.051	-4.23
709.078	5.77
709.105	0.77
709.133	5.77
709.16	6.77
709.188	9.77
709.215	13.77
709.243	10.77
709.27	-3.23
709.298	-5.23
709.325	-9.23
709.353	-5.23
709.38	5.77
709.408	24.77
709.435	4.77
709.462	-1.23
709.49	18.77
709.517	1.77
709.545	2.77
709.572	6.77
709.6	19.77
709.627	15.77
709.655	3.77
709.682	-4.23
709.709	1.77
709.737	9.77
709.764	-6.23
709.792	12.77
709.819	-0.23
709.846	2.77
709.874	12.77
709.901	31.77
709.929	19.77
709.956	20.77
709.983	-0.23
710.011	-10.23
710.038	-2.23
710.066	-0.23
710.093	12.77
710.12	14.77
710.148	15.77
710.175	-3.23
710.202	5.77
710.23	11.77
710.257	7.77
710.284	27.77
710.312	8.77
710.339	0.77
710.366	0.77
710.394	-1.23
710.421	-1.23
710.448	11.77
710.476	-7.23
710.503	0.77
710.53	12.77
710.558	10.77
710.585	24.77
710.612	5.77
710.64	3.77
710.667	-1.23
710.694	-1.23
710.722	6.77
710.749	0.77
710.776	-3.23
710.804	12.77
710.831	6.77
710.858	-4.23
710.885	7.77
710.913	-8.23
710.94	20.77
710.967	11.77
710.995	20.77
711.022	12.77
711.049	4.77
711.076	-3.23
711.104	13.77
711.131	-0.23
711.158	1.77
711.185	0.77
711.213	-4.23
711.24	2.77
711.267	-0.23
711.294	7.77
711.322	19.77
711.349	11.77
711.376	-1.23
711.403	23.77
711.431	1.77
711.458	-1.23
711.485	11.77
711.512	22.77
711.54	2.77
711.567	6.77
711.594	-16.23
711.621	-0.23
711.648	8.77
711.676	-2.23
711.703	1.77
711.73	-14.23
711.757	4.77
711.784	17.77
711.812	-1.23
711.839	-2.23
711.866	-9.23
711.893	-7.23
711.92	12.77
711.947	-16.23
711.975	22.77
712.002	0.77
712.029	16.77
712.056	2.77
712.083	17.77
712.11	-11.23
712.138	18.77
712.165	7.77
712.192	10.77
712.219	-3.23
712.246	2.77
712.273	7.77
712.3	2.77
712.328	2.77
712.355	15.77
712.382	4.77
712.409	6.77
712.436	-9.23
712.463	12.77
712.49	4.77
712.517	12.77
712.544	-4.23
712.572	-0.23
712.599	-19.23
712.626	10.77
712.653	0.77
712.68	-11.23
712.707	11.77
712.734	-2.23
712.761	12.77
712.788	-1.23
712.815	0.77
712.842	10.77
712.87	2.77
712.897	-3.23
712.924	-4.23
712.951	6.77
712.978	10.77
713.005	20.77
713.032	15.77
713.059	-2.23
713.086	-8.23
713.113	-2.23
713.14	0.77
713.167	5.77
713.194	-8.23
713.221	-5.23
713.248	5.77
713.275	-10.23
713.302	-15.23
713.329	4.77
713.356	8.77
713.383	15.77
713.41	15.77
713.437	-3.23
713.464	16.77
713.491	28.77
713.518	-6.23
713.545	0.77
713.572	-0.23
713.599	1.77
713.626	-4.23
713.653	11.77
713.68	6.77
713.707	-0.23
713.734	8.77
713.761	4.77
713.788	6.77
713.815	8.77
713.842	-0.23
713.869	-12.23
713.896	5.77
713.923	-5.23
713.95	-7.23
713.977	4.77
714.004	10.77
714.031	-2.23
714.058	15.77
714.085	4.77
714.112	3.77
714.139	2.77
714.165	-0.23
714.192	-8.23
714.219	7.77
714.246	9.77
714.273	5.77
714.3	10.77
714.327	3.77
714.354	0.77
714.381	-1.23
714.408	7.77
714.435	2.77
714.461	8.77
714.488	19.77
714.515	-12.23
714.542	-9.23
714.569	-22.23
714.596	-19.23
714.623	-0.23
714.65	5.77
714.677	12.77
714.703	5.77
714.73	4.77
714.757	4.77
714.784	15.77
714.811	7.77
714.838	7.77
714.865	3.77
714.891	17.77
714.918	19.77
714.945	-2.23
714.972	-5.23
714.999	-1.23
715.026	-2.23
715.052	9.77
715.079	-8.23
715.106	1.77
715.133	8.77
715.16	-2.23
715.187	4.77
715.213	6.77
715.24	2.77
715.267	5.77
715.294	-5.23
715.321	6.77
715.347	6.77
715.374	-18.23
715.401	-5.23
715.428	0.77
715.455	3.77
715.481	-5.23
715.508	10.77
715.535	10.77
715.562	29.77
715.588	19.77
715.615	-4.23
715.642	3.77
715.669	10.77
715.695	0.77
715.722	2.77
715.749	-0.23
715.776	14.77
715.802	10.77
715.829	-5.23
715.856	-9.23
715.883	6.77
715.909	1.77
715.936	16.77
715.963	13.77
715.99	-6.23
716.016	-0.23
716.043	0.77
716.07	3.77
716.096	-13.23
716.123	0.77
716.15	-7.23
716.177	-1.23
716.203	-3.23
716.23	4.77
716.257	-0.23
716.283	21.77
716.31	17.77
716.337	2.77
716.363	-1.23
716.39	10.77
716.417	11.77
716.443	0.77
716.47	15.77
716.497	34.77
716.523	18.77
716.55	10.77
716.577	14.77
716.603	-0.23
716.63	7.77
716.657	14.77
716.683	-1.23
716.71	3.77
716.737	-5.23
716.763	8.77
716.79	14.77
716.817	20.77
716.843	-4.23
716.87	-10.23
716.897	9.77
716.923	24.77
716.95	-7.23
716.976	-0.23
717.003	-7.23
717.03	8.77
717.056	11.77
717.083	9.77
717.109	13.77
717.136	16.77
717.163	13.77
717.189	7.77
717.216	8.77
717.242	5.77
717.269	10.77
717.296	9.77
717.322	1.77
717.349	11.77
717.375	11.77
717.402	-1.23
717.428	-1.23
717.455	13.77
717.481	8.77
717.508	12.77
717.535	2.77
717.561	16.77
717.588	-1.23
717.614	-0.23
717.641	0.77
717.667	-3.23
717.694	-5.23
717.72	0.77
717.747	7.77
717.773	-3.23
717.8	3.77
717.826	10.77
717.853	-1.23
717.88	14.77
717.906	0.77
717.933	11.77
717.959	11.77
717.986	4.77
718.012	8.77
718.039	4.77
718.065	0.77
718.092	2.77
718.118	3.77
718.144	-7.23
718.171	20.77
718.197	22.77
718.224	-6.23
718.25	7.77
718.277	14.77
718.303	3.77
718.33	-4.23
718.356	-17.23
718.383	-4.23
718.409	8.77
718.436	6.77
718.462	-1.23
718.489	-2.23
718.515	12.77
718.541	22.77
718.568	11.77
718.594	6.77
718.621	10.77
718.647	2.77
718.674	12.77
718.7	9.77
718.726	-1.23
718.753	16.77
718.779	17.77
718.806	9.77
718.832	4.77
718.858	-4.23
718.885	-7.23
718.911	-9.23
718.938	10.77
718.964	-20.23
718.99	7.77
719.017	2.77
719.043	0.77
719.07	12.77
719.096	-3.23
719.122	15.77
719.149	18.77
719.175	-10.23
719.201	-5.23
719.228	0.77
719.254	-0.23
719.281	3.77
719.307	-1.23
719.333	-13.23
719.36	24.77
719.386	10.77
719.412	7.77
719.439	2.77
719.465	0.77
719.491	-8.23
719.518	20.77
719.544	0.77
719.57	9.77
719.597	11.77
719.623	-1.23
719.649	3.77
719.675	-1.23
719.702	10.77
719.728	22.77
719.754	-2.23
719.781	3.77
719.807	6.77
719.833	-8.23
719.86	12.77
719.886	4.77
719.912	-1.23
719.938	17.77
719.965	26.77
719.991	14.77
720.017	-9.23
720.044	-5.23
720.07	12.77
720.096	15.77
720.122	-2.23
720.149	12.77
720.175	30.77
720.201	17.77
720.227	4.77
720.254	5.77
720.28	5.77
720.306	-7.23
720.332	15.77
720.359	2.77
720.385	22.77
720.411	18.77
720.437	16.77
720.463	-0.23
720.49	9.77
720.516	10.77
720.542	-15.23
720.568	4.77
720.595	11.77
720.621	1.77
720.647	4.77
720.673	14.77
720.699	-9.23
720.725	5.77
720.752	18.77
720.778	-1.23
720.804	11.77
720.83	10.77
720.856	2.77
720.883	-9.23
720.909	-8.23
720.935	7.77
720.961	18.77
720.987	2.77
721.013	8.77
721.04	12.77
721.066	2.77
721.092	-3.23
721.118	2.77
721.144	-3.23
721.17	6.77
721.196	10.77
721.223	-0.23
721.249	-10.23
721.275	16.77
721.301	-9.23
721.327	11.77
721.353	11.77
721.379	14.77
721.405	12.77
721.432	22.77
721.458	-6.23
721.484	10.77
721.51	-3.23
721.536	10.77
721.562	-0.23
721.588	6.77
721.614	8.77
721.64	4.77
721.666	5.77
721.693	3.77
721.719	4.77
721.745	-1.23
721.771	-3.23
721.797	-3.23
721.823	-8.23
721.849	5.77
721.875	-1.23
721.901	1.77
721.927	-15.23
721.953	0.77
721.979	24.77
722.005	-0.23
722.031	-11.23
722.057	6.77
722.083	10.77
722.109	5.77
722.135	13.77
722.161	11.77
722.187	-11.23
722.214	-3.23
722.24	-2.23
722.266	-8.23
722.292	9.77
722.318	15.77
722.344	0.77
722.37	0.77
722.396	-5.23
722.422	4.77
722.448	11.77
722.474	2.77
722.5	6.77
722.526	14.77
722.552	0.77
722.578	-2.23
722.603	0.77
722.629	-7.23
722.655	3.77
722.681	-4.23
722.707	16.77
722.733	1.77
722.759	-11.23
722.785	8.77
722.811	-9.23
722.837	0.77
722.863	4.77
722.889	9.77
722.915	9.77
722.941	-5.23
722.967	5.77
722.993	13.77
723.019	1.77
723.045	2.77
723.071	4.77
723.097	0.77
723.122	10.77
723.148	-5.23
723.174	-3.23
723.2	13.77
723.226	3.77
723.252	6.77
723.278	-5.23
723.304	-6.23
723.33	14.77
723.356	4.77
723.381	0.77
723.407	-16.23
723.433	15.77
723.459	-5.23
723.485	4.77
723.511	-5.23
723.537	-11.23
723.563	5.77
723.588	21.77
723.614	8.77
723.64	0.77
723.666	-7.23
723.692	-1.23
723.718	2.77
723.744	21.77
723.769	4.77
723.795	2.77
723.821	2.77
723.847	-15.23
723.873	3.77
723.899	6.77
723.924	5.77
723.95	6.77
723.976	4.77
724.002	8.77
724.028	8.77
724.053	0.77
724.079	-10.23
724.105	11.77
724.131	3.77
724.157	-3.23
724.182	-4.23
724.208	11.77
724.234	14.77
724.26	6.77
724.286	-3.23
724.311	-5.23
724.337	-7.23
724.363	0.77
724.389	13.77
724.415	-0.23
724.44	19.77
724.466	-3.23
724.492	-10.23
724.518	9.77
724.543	13.77
724.569	3.77
724.595	-0.23
724.621	-5.23
724.646	0.77
724.672	0.77
724.698	-8.23
724.723	-0.23
724.749	0.77
724.775	18.77
724.801	16.77
724.826	4.77
724.852	4.77
724.878	7.77
724.904	7.77
724.929	7.77
724.955	-4.23
724.981	3.77
725.006	4.77
725.032	9.77
725.058	3.77
725.083	7.77
725.109	-4.23
725.135	-2.23
725.161	3.77
725.186	8.77
725.212	2.77
725.238	2.77
725.263	-12.23
725.289	2.77
725.315	-4.23
725.34	-7.23
725.366	6.77
725.392	3.77
725.417	-6.23
725.443	5.77
725.468	16.77
725.494	3.77
725.52	10.77
725.545	8.77
725.571	11.77
725.597	7.77
725.622	10.77
725.648	13.77
725.674	16.77
725.699	3.77
725.725	4.77
725.75	35.77
725.776	-0.23
725.802	-1.23
725.827	4.77
725.853	12.77
725.878	5.77
725.904	-5.23
725.93	1.77
725.955	12.77
725.981	2.77
726.006	2.77
726.032	3.77
726.057	-10.23
726.083	-12.23
726.109	3.77
726.134	2.77
726.16	-2.23
726.185	2.77
726.211	5.77
726.236	10.77
726.262	-11.23
726.288	2.77
726.313	21.77
726.339	13.77
726.364	-1.23
726.39	2.77
726.415	-3.23
726.441	4.77
726.466	-12.23
726.492	-3.23
726.517	2.77
726.543	7.77
726.568	-1.23
726.594	-0.23
726.619	1.77
726.645	-2.23
726.67	9.77
726.696	7.77
726.721	-1.23
726.747	-5.23
726.772	1.77
726.798	13.77
726.823	2.77
726.849	-0.23
726.874	8.77
726.9	19.77
726.925	14.77
726.951	19.77
726.976	11.77
727.002	0.77
727.027	7.77
727.053	12.77
727.078	6.77
727.104	6.77
727.129	-3.23
727.155	0.77
727.18	7.77
727.205	10.77
727.231	-4.23
727.256	-0.23
727.282	2.77
727.307	7.77
727.333	2.77
727.358	-7.23
727.383	-0.23
727.409	-3.23
727.434	8.77
727.46	-5.23
727.485	3.77
727.511	33.77
727.536	0.77
727.561	-3.23
727.587	0.77
727.612	15.77
727.637	17.77
727.663	-0.23
727.688	14.77
727.714	-9.23
727.739	-5.23
727.764	-7.23
727.79	8.77
727.815	6.77
727.841	-0.23
727.866	-3.23
727.891	15.77
727.917	-18.23
727.942	-21.23
727.967	-9.23
727.993	-4.23
728.018	9.77
728.043	15.77
728.069	13.77
728.094	12.77
728.119	9.77
728.145	14.77
728.17	14.77
728.195	-0.23
728.221	14.77
728.246	16.77
728.271	-4.23
728.297	-4.23
728.322	5.77
728.347	3.77
728.373	-3.23
728.398	13.77
728.423	-9.23
728.448	1.77
728.474	-2.23
728.499	10.77
728.524	2.77
728.55	-4.23
728.575	13.77
728.6	17.77
728.625	-0.23
728.651	-4.23
728.676	1.77
728.701	1.77
728.727	1.77
728.752	2.77
728.777	-2.23
728.802	-14.23
728.828	17.77
728.853	4.77
728.878	6.77
728.903	-5.23
728.929	0.77
728.954	-8.23
728.979	10.77
729.004	-6.23
729.03	-5.23
729.055	1.77
729.08	-7.23
729.105	4.77
729.13	20.77
729.156	10.77
729.181	14.77
729.206	-26.23
729.231	-16.23
729.256	10.77
729.282	-0.23
729.307	-3.23
729.332	-2.23
729.357	-4.23
729.382	8.77
729.408	-1.23
729.433	-7.23
729.458	-9.23
729.483	8.77
729.508	23.77
729.533	6.77
729.559	-1.23
729.584	-19.23
729.609	-2.23
729.634	15.77
729.659	6.77
729.684	6.77
729.71	25.77
729.735	7.77
729.76	14.77
729.785	-3.23
729.81	-0.23
729.835	0.77
729.86	-9.23
729.886	-1.23
729.911	7.77
729.936	11.77
729.961	9.77
729.986	-2.23
730.011	-6.23
730.036	3.77
730.061	4.77
730.086	1.77
730.112	-5.23
730.137	17.77
730.162	1.77
730.187	5.77
730.212	10.77
730.237	-1.23
730.262	-3.23
730.287	8.77
730.312	11.77
730.337	7.77
730.362	6.77
730.387	-1.23
730.413	-7.23
730.438	9.77
730.463	11.77
730.488	-6.23
730.513	5.77
730.538	0.77
730.563	17.77
730.588	22.77
730.613	11.77
730.638	2.77
730.663	11.77
730.688	24.77
730.713	-0.23
730.738	8.77
730.763	8.77
730.788	-8.23
730.813	0.77
730.838	-2.23
730.863	-2.23
730.888	3.77
730.913	1.77
730.938	-8.23
730.963	15.77
730.988	9.77
731.013	19.77
731.038	-3.23
731.063	0.77
731.088	14.77
731.113	17.77
731.138	10.77
731.163	8.77
731.188	5.77
731.213	-2.23
731.238	14.77
731.263	2.77
731.288	-21.23
731.313	12.77
731.338	6.77
731.363	11.77
731.388	0.77
731.413	3.77
731.438	19.77
731.463	10.77
731.487	15.77
731.512	-2.23
731.537	5.77
731.562	3.77
731.587	9.77
731.612	-2.23
731.637	-3.23
731.662	-4.23
731.687	6.77
731.712	2.77
731.737	12.77
731.762	-0.23
731.786	-4.23
731.811	-5.23
731.836	3.77
731.861	-0.23
731.886	-3.23
731.911	-9.23
731.936	13.77
731.961	13.77
731.986	16.77
732.01	18.77
732.035	8.77
732.06	21.77
732.085	16.77
732.11	7.77
732.135	-9.23
732.16	3.77
732.184	2.77
732.209	14.77
732.234	8.77
732.259	4.77
732.284	-2.23
732.309	-5.23
732.334	-7.23
732.358	2.77
732.383	-0.23
732.408	3.77
732.433	10.77
732.458	10.77
732.482	-1.23
732.507	-12.23
732.532	-3.23
732.557	2.77
732.582	2.77
732.607	1.77
732.631	-8.23
732.656	-1.23
732.681	15.77
732.706	10.77
732.73	-5.23
732.755	-9.23
732.78	4.77
732.805	6.77
732.83	10.77
732.854	6.77
732.879	14.77
732.904	-4.23
732.929	-0.23
732.953	20.77
732.978	-6.23
733.003	-0.23
733.028	4.77
733.052	12.77
733.077	11.77
733.102	13.77
733.127	-1.23
733.151	5.77
733.176	13.77
733.201	0.77
733.226	-0.23
733.25	12.77
733.275	0.77
733.3	8.77
733.324	12.77
733.349	-2.23
733.374	11.77
733.399	12.77
733.423	-0.23
733.448	11.77
733.473	14.77
733.497	0.77
733.522	-7.23
733.547	20.77
733.571	10.77
733.596	11.77
733.621	11.77
733.646	-5.23
733.67	18.77
733.695	2.77
733.72	7.77
733.744	6.77
733.769	10.77
733.794	16.77
733.818	11.77
733.843	9.77
733.867	0.77
733.892	0.77
733.917	-4.23
733.941	12.77
733.966	-3.23
733.991	9.77
734.015	13.77
734.04	11.77
734.065	20.77
734.089	16.77
734.114	4.77
734.138	21.77
734.163	-6.23
734.188	11.77
734.212	9.77
734.237	9.77
734.261	9.77
734.286	2.77
734.311	-17.23
734.335	8.77
734.36	-2.23
734.384	15.77
734.409	7.77
734.434	-2.23
734.458	9.77
734.483	3.77
734.507	-10.23
734.532	2.77
734.556	8.77
734.581	3.77
734.606	-0.23
734.63	-17.23
734.655	1.77
734.679	-8.23
734.704	-0.23
734.728	-5.23
734.753	14.77
734.777	13.77
734.802	8.77
734.826	30.77
734.851	-3.23
734.876	18.77
734.9	12.77
734.925	26.77
734.949	0.77
734.974	8.77
734.998	6.77
735.023	-10.23
735.047	-4.23
735.072	15.77
735.096	-4.23
735.121	-11.23
735.145	11.77
735.17	2.77
735.194	5.77
735.219	10.77
735.243	6.77
735.268	7.77
735.292	18.77
735.317	8.77
735.341	7.77
735.365	-18.23
735.39	17.77
735.414	17.77
735.439	9.77
735.463	3.77
735.488	-1.23
735.512	16.77
735.537	-5.23
735.561	7.77
735.586	3.77
735.61	1.77
735.634	-3.23
735.659	11.77
735.683	18.77
735.708	-1.23
735.732	-4.23
735.757	-3.23
735.781	2.77
735.805	11.77
735.83	9.77
735.854	2.77
735.879	5.77
735.903	20.77
735.927	18.77
735.952	14.77
735.976	10.77
736.001	6.77
736.025	2.77
736.049	4.77
736.074	-2.23
736.098	2.77
736.123	-0.23
736.147	3.77
736.171	-0.23
736.196	9.77
736.22	-14.23
736.244	-0.23
736.269	-3.23
736.293	-4.23
736.317	-1.23
736.342	1.77
736.366	11.77
736.39	14.77
736.415	26.77
736.439	0.77
736.463	6.77
736.488	4.77
736.512	13.77
736.536	14.77
736.561	11.77
736.585	-8.23
736.609	4.77
736.634	-9.23
736.658	-0.23
736.682	-2.23
736.707	-7.23
736.731	-4.23
736.755	17.77
736.78	19.77
736.804	7.77
736.828	13.77
736.852	12.77
736.877	2.77
736.901	1.77
736.925	-7.23
736.949	-5.23
736.974	1.77
736.998	-17.23
737.022	-2.23
737.047	-7.23
737.071	-0.23
737.095	2.77
737.119	11.77
737.144	15.77
737.168	15.77
737.192	6.77
737.216	8.77
737.241	-6.23
737.265	-1.23
737.289	-3.23
737.313	-2.23
737.337	9.77
737.362	5.77
737.386	-18.23
737.41	-9.23
737.434	-3.23
737.459	8.77
737.483	11.77
737.507	0.77
737.531	15.77
737.555	9.77
737.58	2.77
737.604	-0.23
737.628	-12.23
737.652	7.77
737.676	18.77
737.701	6.77
737.725	12.77
737.749	15.77
737.773	18.77
737.797	-1.23
737.821	2.77
737.846	2.77
737.87	25.77
737.894	-4.23
737.918	0.77
737.942	9.77
737.966	-6.23
737.99	16.77
738.015	-2.23
738.039	24.77
738.063	2.77
738.087	16.77
738.111	-0.23
738.135	10.77
738.159	5.77
738.184	7.77
738.208	4.77
738.232	2.77
738.256	32.77
738.28	13.77
738.304	22.77
738.328	10.77
738.352	3.77
738.376	-2.23
738.4	15.77
738.425	10.77
738.449	-10.23
738.473	35.77
738.497	11.77
738.521	20.77
738.545	22.77
738.569	9.77
738.593	19.77
738.617	10.77
738.641	7.77
738.665	4.77
738.689	10.77
738.713	-4.23
738.737	2.77
738.762	20.77
738.786	22.77
738.81	0.77
738.834	12.77
738.858	-10.23
738.882	1.77
738.906	-8.23
738.93	26.77
738.954	21.77
738.978	13.77
739.002	4.77
739.026	12.77
739.05	9.77
739.074	-1.23
739.098	29.77
739.122	18.77
739.146	11.77
739.17	12.77
739.194	2.77
739.218	-10.23
739.242	0.77
739.266	6.77
739.29	14.77
739.314	21.77
739.338	11.77
739.362	19.77
739.386	19.77
739.41	0.77
739.434	-1.23
739.458	7.77
739.482	13.77
739.506	2.77
739.53	-2.23
739.554	4.77
739.577	-4.23
739.601	4.77
739.625	-16.23
739.649	-2.23
739.673	-7.23
739.697	8.77
739.721	16.77
739.745	4.77
739.769	21.77
739.793	17.77
739.817	-0.23
739.841	0.77
739.865	-3.23
739.889	6.77
739.912	12.77
739.936	6.77
739.96	-1.23
739.984	16.77
740.008	6.77
740.032	-4.23
740.056	4.77
740.08	-0.23
740.104	2.77
740.127	-7.23
740.151	-0.23
740.175	3.77
740.199	16.77
740.223	44.77
740.247	9.77
740.271	-2.23
740.295	-7.23
740.318	-9.23
740.342	13.77
740.366	-6.23
740.39	8.77
740.414	3.77
740.438	-11.23
740.461	8.77
740.485	0.77
740.509	-3.23
740.533	14.77
740.557	-4.23
740.581	-3.23
740.604	-1.23
740.628	-0.23
740.652	22.77
740.676	7.77
740.7	8.77
740.723	-1.23
740.747	-7.23
740.771	-4.23
740.795	-2.23
740.819	11.77
740.842	14.77
740.866	3.77
740.89	-7.23
740.914	-3.23
740.938	-9.23
740.961	20.77
740.985	0.77
741.009	12.77
741.033	10.77
741.056	-3.23
741.08	-10.23
741.104	-11.23
741.128	-5.23
741.151	10.77
741.175	7.77
741.199	3.77
741.223	19.77
741.246	-1.23
741.27	8.77
741.294	10.77
741.318	-0.23
741.341	9.77
741.365	5.77
741.389	4.77
741.413	2.77
741.436	0.77
741.46	12.77
741.484	14.77
741.507	1.77
741.531	18.77
741.555	32.77
741.579	7.77
741.602	3.77
741.626	17.77
741.65	6.77
741.673	11.77
741.697	12.77
741.721	13.77
741.744	-20.23
741.768	-8.23
741.792	18.77
741.815	10.77
741.839	15.77
741.863	4.77
741.886	23.77
741.91	18.77
741.934	-2.23
741.957	-1.23
741.981	7.77
742.005	-10.23
742.028	-18.23
742.052	-16.23
742.075	14.77
742.099	11.77
742.123	5.77
742.146	6.77
742.17	4.77
742.194	-2.23
742.217	2.77
742.241	-1.23
742.264	-9.23
742.288	10.77
742.312	23.77
742.335	-1.23
742.359	4.77
742.382	23.77
742.406	8.77
742.43	-1.23
742.453	11.77
742.477	-6.23
742.5	7.77
742.524	-2.23
742.548	-1.23
742.571	2.77
742.595	13.77
742.618	7.77
742.642	3.77
742.665	12.77
742.689	-16.23
742.712	24.77
742.736	-4.23
742.76	6.77
742.783	4.77
742.807	12.77
742.83	-0.23
742.854	-2.23
742.877	4.77
742.901	11.77
742.924	-3.23
742.948	6.77
742.971	2.77
742.995	16.77
743.018	-11.23
743.042	2.77
743.065	3.77
743.089	-4.23
743.112	-1.23
743.136	-11.23
743.159	-5.23
743.183	-7.23
743.206	7.77
743.23	-7.23
743.253	25.77
743.277	14.77
743.3	-0.23
743.324	6.77
743.347	5.77
743.371	26.77
743.394	-2.23
743.418	16.77
743.441	9.77
743.465	17.77
743.488	7.77
743.512	-3.23
743.535	-3.23
743.558	10.77
743.582	12.77
743.605	-1.23
743.629	24.77
743.652	19.77
743.676	3.77
743.699	17.77
743.723	11.77
743.746	11.77
743.769	-3.23
743.793	7.77
743.816	7.77
743.84	16.77
743.863	6.77
743.886	3.77
743.91	19.77
743.933	6.77
743.957	8.77
743.98	0.77
744.003	6.77
744.027	1.77
744.05	2.77
744.074	3.77
744.097	-7.23
744.12	16.77
744.144	-7.23
744.167	10.77
744.19	10.77
744.214	-1.23
744.237	-3.23
744.26	26.77
744.284	-4.23
744.307	-7.23
744.331	2.77
744.354	3.77
744.377	0.77
744.401	-0.23
744.424	-1.23
744.447	-24.23
744.471	-3.23
