Data from HighRes_H2_15_09_11_07_2024_HR4C61891__126__15-11-09-001.txt Node

Date: Thu Nov 07 15:11:09 EST 2024
User: crc00042
Spectrometer: HR4C6189
Trigger mode: 4
Integration Time (sec): 1.000000E-1
Scans to average: 1
Electric dark correction enabled: true
Nonlinearity correction enabled: false
Boxcar width: 0
XAxis mode: Wavelengths
Number of Pixels in Spectrum: 3648
>>>>>Begin Spectral Data<<<<<
639.567	-24.85
639.602	-24.85
639.636	-24.85
639.67	-63.85
639.704	-15.85
639.738	2.15
639.773	10.15
639.807	-19.85
639.841	-8.85
639.875	8.15
639.909	9.15
639.943	-5.85
639.978	-5.85
640.012	-13.85
640.046	10.15
640.08	8.15
640.114	7.15
640.148	-0.85
640.182	-21.85
640.217	-11.85
640.251	8.15
640.285	11.15
640.319	-12.85
640.353	-24.85
640.387	3.15
640.421	6.15
640.455	5.15
640.49	-5.85
640.524	-14.85
640.558	-11.85
640.592	0.15
640.626	17.15
640.66	4.15
640.694	-5.85
640.728	-13.85
640.762	6.15
640.796	24.15
640.83	15.15
640.865	-12.85
640.899	2.15
640.933	-12.85
640.967	1.15
641.001	-4.85
641.035	-11.85
641.069	3.15
641.103	-16.85
641.137	-9.85
641.171	-10.85
641.205	-1.85
641.239	-3.85
641.273	28.15
641.307	20.15
641.341	-2.85
641.375	-13.85
641.409	-6.85
641.443	-10.85
641.477	1.15
641.511	1.15
641.545	7.15
641.579	-2.85
641.614	2.15
641.648	-3.85
641.682	-5.85
641.716	1.15
641.75	8.15
641.784	5.15
641.818	4.15
641.852	11.15
641.886	-11.85
641.919	17.15
641.953	-2.85
641.987	-7.85
642.021	11.15
642.055	26.15
642.089	16.15
642.123	1.15
642.157	-15.85
642.191	-6.85
642.225	6.15
642.259	4.15
642.293	-6.85
642.327	-8.85
642.361	5.15
642.395	9.15
642.429	28.15
642.463	8.15
642.497	9.15
642.531	-3.85
642.565	-22.85
642.599	-2.85
642.633	-6.85
642.666	20.15
642.7	7.15
642.734	6.15
642.768	-2.85
642.802	1.15
642.836	-8.85
642.87	-0.85
642.904	8.15
642.938	4.15
642.972	3.15
643.005	-11.85
643.039	15.15
643.073	3.15
643.107	4.15
643.141	-1.85
643.175	-2.85
643.209	-6.85
643.243	-11.85
643.276	5.15
643.31	-12.85
643.344	-7.85
643.378	-0.85
643.412	9.15
643.446	-13.85
643.48	-5.85
643.513	2.15
643.547	8.15
643.581	-9.85
643.615	10.15
643.649	2.15
643.683	15.15
643.716	6.15
643.75	-0.85
643.784	-22.85
643.818	3.15
643.852	-7.85
643.886	-0.85
643.919	-13.85
643.953	-18.85
643.987	-8.85
644.021	11.15
644.055	6.15
644.088	-8.85
644.122	-8.85
644.156	-10.85
644.19	-0.85
644.224	-1.85
644.257	11.15
644.291	5.15
644.325	4.15
644.359	-1.85
644.392	19.15
644.426	-5.85
644.46	0.15
644.494	10.15
644.527	-9.85
644.561	0.15
644.595	-8.85
644.629	-12.85
644.662	-8.85
644.696	2.15
644.73	-3.85
644.764	-3.85
644.797	-7.85
644.831	2.15
644.865	1.15
644.899	12.15
644.932	2.15
644.966	7.15
645	4.15
645.033	13.15
645.067	-7.85
645.101	18.15
645.135	-10.85
645.168	-9.85
645.202	-8.85
645.236	-3.85
645.269	7.15
645.303	-5.85
645.337	-21.85
645.37	-16.85
645.404	-9.85
645.438	14.15
645.471	5.15
645.505	1.15
645.539	-6.85
645.572	-22.85
645.606	-11.85
645.64	4.15
645.673	1.15
645.707	34.15
645.741	9.15
645.774	4.15
645.808	15.15
645.842	-10.85
645.875	10.15
645.909	-5.85
645.943	-14.85
645.976	-15.85
646.01	-2.85
646.043	11.15
646.077	-1.85
646.111	5.15
646.144	4.15
646.178	7.15
646.212	1.15
646.245	4.15
646.279	10.15
646.312	2.15
646.346	2.15
646.38	-29.85
646.413	6.15
646.447	-1.85
646.48	-0.85
646.514	12.15
646.547	3.15
646.581	5.15
646.615	0.15
646.648	-1.85
646.682	-1.85
646.715	-10.85
646.749	16.15
646.782	-3.85
646.816	-5.85
646.85	0.15
646.883	-10.85
646.917	7.15
646.95	13.15
646.984	11.15
647.017	4.15
647.051	-4.85
647.084	-26.85
647.118	-5.85
647.151	2.15
647.185	-3.85
647.218	0.15
647.252	-2.85
647.285	-22.85
647.319	-11.85
647.353	-1.85
647.386	7.15
647.42	18.15
647.453	7.15
647.487	-3.85
647.52	8.15
647.553	11.15
647.587	6.15
647.62	-3.85
647.654	1.15
647.687	7.15
647.721	-3.85
647.754	-11.85
647.788	4.15
647.821	-6.85
647.855	1.15
647.888	4.15
647.922	5.15
647.955	8.15
647.989	7.15
648.022	-4.85
648.055	-17.85
648.089	-15.85
648.122	13.15
648.156	-6.85
648.189	2.15
648.223	-6.85
648.256	11.15
648.29	8.15
648.323	-10.85
648.356	2.15
648.39	1.15
648.423	10.15
648.457	-4.85
648.49	5.15
648.523	25.15
648.557	-9.85
648.59	6.15
648.624	-7.85
648.657	-8.85
648.69	8.15
648.724	21.15
648.757	19.15
648.791	-0.85
648.824	1.15
648.857	14.15
648.891	12.15
648.924	9.15
648.957	20.15
648.991	5.15
649.024	13.15
649.057	7.15
649.091	2.15
649.124	4.15
649.158	0.15
649.191	18.15
649.224	6.15
649.258	2.15
649.291	-2.85
649.324	5.15
649.358	-3.85
649.391	2.15
649.424	5.15
649.458	-13.85
649.491	-9.85
649.524	-6.85
649.557	-6.85
649.591	-22.85
649.624	17.15
649.657	-14.85
649.691	-1.85
649.724	4.15
649.757	-1.85
649.791	-5.85
649.824	12.15
649.857	10.15
649.89	2.15
649.924	-15.85
649.957	2.15
649.99	-26.85
650.023	-8.85
650.057	2.15
650.09	3.15
650.123	12.15
650.157	13.15
650.19	17.15
650.223	-8.85
650.256	-10.85
650.29	-16.85
650.323	-4.85
650.356	8.15
650.389	-12.85
650.423	-6.85
650.456	5.15
650.489	11.15
650.522	-0.85
650.555	25.15
650.589	10.15
650.622	-2.85
650.655	-2.85
650.688	3.15
650.721	3.15
650.755	7.15
650.788	7.15
650.821	12.15
650.854	-5.85
650.887	3.15
650.921	-9.85
650.954	-0.85
650.987	-8.85
651.02	1.15
651.053	0.15
651.087	7.15
651.12	19.15
651.153	13.15
651.186	-0.85
651.219	-26.85
651.252	-1.85
651.286	9.15
651.319	-3.85
651.352	15.15
651.385	-0.85
651.418	9.15
651.451	-1.85
651.484	-0.85
651.518	-21.85
651.551	10.15
651.584	-8.85
651.617	17.15
651.65	13.15
651.683	8.15
651.716	7.15
651.749	-15.85
651.783	-7.85
651.816	3.15
651.849	13.15
651.882	-1.85
651.915	2.15
651.948	15.15
651.981	5.15
652.014	-17.85
652.047	-9.85
652.08	0.15
652.114	6.15
652.147	0.15
652.18	16.15
652.213	23.15
652.246	-10.85
652.279	-10.85
652.312	-2.85
652.345	2.15
652.378	12.15
652.411	19.15
652.444	22.15
652.477	-0.85
652.51	-10.85
652.543	-22.85
652.576	-1.85
652.609	-5.85
652.642	12.15
652.675	14.15
652.709	4.15
652.742	13.15
652.775	10.15
652.808	12.15
652.841	2.15
652.874	-4.85
652.907	-5.85
652.94	-0.85
652.973	-3.85
653.006	3.15
653.039	-2.85
653.072	-0.85
653.105	10.15
653.138	-2.85
653.171	8.15
653.204	12.15
653.237	4.15
653.27	-14.85
653.303	5.15
653.336	13.15
653.368	-6.85
653.401	-10.85
653.434	-12.85
653.467	7.15
653.5	-4.85
653.533	-4.85
653.566	-0.85
653.599	-2.85
653.632	15.15
653.665	7.15
653.698	-8.85
653.731	0.15
653.764	10.15
653.797	2.15
653.83	7.15
653.863	5.15
653.896	-12.85
653.929	-8.85
653.961	12.15
653.994	6.15
654.027	-8.85
654.06	-13.85
654.093	-8.85
654.126	-0.85
654.159	-9.85
654.192	-3.85
654.225	-1.85
654.258	5.15
654.29	9.15
654.323	-1.85
654.356	-8.85
654.389	-0.85
654.422	-0.85
654.455	0.15
654.488	7.15
654.521	-4.85
654.553	-7.85
654.586	10.15
654.619	-2.85
654.652	6.15
654.685	12.15
654.718	13.15
654.751	-2.85
654.783	-0.85
654.816	19.15
654.849	0.15
654.882	-3.85
654.915	-23.85
654.948	-11.85
654.98	-14.85
655.013	-10.85
655.046	-12.85
655.079	-1.85
655.112	19.15
655.144	7.15
655.177	23.15
655.21	13.15
655.243	9.15
655.276	9.15
655.308	1.15
655.341	-0.85
655.374	22.15
655.407	-9.85
655.44	-4.85
655.472	5.15
655.505	16.15
655.538	10.15
655.571	14.15
655.603	-8.85
655.636	13.15
655.669	23.15
655.702	6.15
655.734	20.15
655.767	14.15
655.8	11.15
655.833	18.15
655.865	36.15
655.898	20.15
655.931	28.15
655.964	31.15
655.996	50.15
656.029	61.15
656.062	62.15
656.095	72.15
656.127	70.15
656.16	125.15
656.193	135.15
656.225	172.15
656.258	277.15
656.291	518.15
656.324	1114.15
656.356	3389.15
656.389	7555.15
656.422	6054.15
656.454	2054.15
656.487	698.15
656.52	281.15
656.552	124.15
656.585	80.15
656.618	65.15
656.65	46.15
656.683	2.15
656.716	23.15
656.748	-1.85
656.781	-8.85
656.814	3.15
656.846	26.15
656.879	-15.85
656.912	-6.85
656.944	-15.85
656.977	2.15
657.01	3.15
657.042	23.15
657.075	8.15
657.108	-3.85
657.14	5.15
657.173	7.15
657.205	24.15
657.238	22.15
657.271	-15.85
657.303	-7.85
657.336	10.15
657.369	-12.85
657.401	1.15
657.434	-1.85
657.466	2.15
657.499	3.15
657.532	-9.85
657.564	18.15
657.597	6.15
657.629	13.15
657.662	1.15
657.694	6.15
657.727	-20.85
657.76	4.15
657.792	-1.85
657.825	-7.85
657.857	-4.85
657.89	0.15
657.922	3.15
657.955	-8.85
657.987	-6.85
658.02	10.15
658.053	-0.85
658.085	8.15
658.118	6.15
658.15	6.15
658.183	15.15
658.215	-4.85
658.248	-2.85
658.28	-11.85
658.313	17.15
658.345	14.15
658.378	2.15
658.41	-8.85
658.443	18.15
658.475	10.15
658.508	6.15
658.54	-12.85
658.573	-15.85
658.605	-11.85
658.638	0.15
658.67	2.15
658.703	-13.85
658.735	-29.85
658.768	-0.85
658.8	3.15
658.833	20.15
658.865	13.15
658.898	3.15
658.93	-3.85
658.963	-4.85
658.995	-6.85
659.028	-1.85
659.06	0.15
659.092	3.15
659.125	2.15
659.157	3.15
659.19	-4.85
659.222	-6.85
659.255	-8.85
659.287	-8.85
659.32	-5.85
659.352	-11.85
659.384	10.15
659.417	-11.85
659.449	18.15
659.482	7.15
659.514	-1.85
659.546	4.15
659.579	-3.85
659.611	-6.85
659.644	-13.85
659.676	-3.85
659.708	-0.85
659.741	-4.85
659.773	4.15
659.806	-7.85
659.838	0.15
659.87	-9.85
659.903	-0.85
659.935	1.15
659.967	6.15
660	10.15
660.032	-23.85
660.065	16.15
660.097	0.15
660.129	-0.85
660.162	-6.85
660.194	10.15
660.226	1.15
660.259	8.15
660.291	-4.85
660.323	-13.85
660.356	12.15
660.388	-12.85
660.42	1.15
660.453	17.15
660.485	6.15
660.517	15.15
660.55	21.15
660.582	8.15
660.614	17.15
660.647	-8.85
660.679	-12.85
660.711	4.15
660.743	-0.85
660.776	-15.85
660.808	1.15
660.84	6.15
660.873	-0.85
660.905	1.15
660.937	1.15
660.969	1.15
661.002	-1.85
661.034	8.15
661.066	1.15
661.099	26.15
661.131	25.15
661.163	0.15
661.195	7.15
661.228	7.15
661.26	2.15
661.292	-11.85
661.324	10.15
661.357	9.15
661.389	5.15
661.421	-10.85
661.453	-18.85
661.485	0.15
661.518	-5.85
661.55	-2.85
661.582	-5.85
661.614	-1.85
661.647	-0.85
661.679	-2.85
661.711	3.15
661.743	-18.85
661.775	0.15
661.808	18.15
661.84	-7.85
661.872	-6.85
661.904	-16.85
661.936	5.15
661.969	-11.85
662.001	-3.85
662.033	-4.85
662.065	-10.85
662.097	-4.85
662.129	10.15
662.162	-13.85
662.194	6.15
662.226	-5.85
662.258	16.15
662.29	5.15
662.322	-7.85
662.355	-1.85
662.387	23.15
662.419	-1.85
662.451	-4.85
662.483	2.15
662.515	-11.85
662.547	4.15
662.58	-8.85
662.612	-15.85
662.644	-21.85
662.676	-1.85
662.708	1.15
662.74	-0.85
662.772	5.15
662.804	6.15
662.836	14.15
662.869	9.15
662.901	13.15
662.933	1.15
662.965	24.15
662.997	17.15
663.029	-13.85
663.061	-7.85
663.093	4.15
663.125	1.15
663.157	7.15
663.189	-7.85
663.221	8.15
663.254	-0.85
663.286	-9.85
663.318	-11.85
663.35	-5.85
663.382	-2.85
663.414	11.15
663.446	10.15
663.478	6.15
663.51	13.15
663.542	-9.85
663.574	1.15
663.606	2.15
663.638	-22.85
663.67	-16.85
663.702	-19.85
663.734	-4.85
663.766	12.15
663.798	-1.85
663.83	-7.85
663.862	4.15
663.894	9.15
663.926	9.15
663.958	7.15
663.99	4.15
664.022	1.15
664.054	24.15
664.086	-6.85
664.118	-15.85
664.15	-0.85
664.182	5.15
664.214	9.15
664.246	0.15
664.278	10.15
664.31	1.15
664.342	10.15
664.374	7.15
664.406	1.15
664.438	-2.85
664.47	7.15
664.502	-4.85
664.534	0.15
664.566	5.15
664.598	14.15
664.63	-14.85
664.662	3.15
664.693	13.15
664.725	-10.85
664.757	3.15
664.789	-7.85
664.821	8.15
664.853	11.15
664.885	1.15
664.917	-2.85
664.949	1.15
664.981	-3.85
665.013	-5.85
665.045	-14.85
665.076	0.15
665.108	14.15
665.14	-5.85
665.172	12.15
665.204	-22.85
665.236	-16.85
665.268	14.15
665.3	-7.85
665.331	-13.85
665.363	10.15
665.395	-0.85
665.427	-10.85
665.459	4.15
665.491	-3.85
665.523	5.15
665.555	-6.85
665.586	2.15
665.618	-23.85
665.65	-13.85
665.682	-1.85
665.714	16.15
665.746	-14.85
665.777	-4.85
665.809	2.15
665.841	8.15
665.873	-10.85
665.905	3.15
665.937	4.15
665.968	8.15
666	-4.85
666.032	3.15
666.064	-5.85
666.096	4.15
666.127	12.15
666.159	7.15
666.191	0.15
666.223	-12.85
666.255	2.15
666.286	6.15
666.318	15.15
666.35	15.15
666.382	10.15
666.413	-7.85
666.445	-11.85
666.477	-21.85
666.509	-11.85
666.54	3.15
666.572	1.15
666.604	-1.85
666.636	11.15
666.667	9.15
666.699	9.15
666.731	-9.85
666.763	2.15
666.794	4.15
666.826	4.15
666.858	-13.85
666.89	6.15
666.921	5.15
666.953	0.15
666.985	10.15
667.017	11.15
667.048	-1.85
667.08	4.15
667.112	4.15
667.143	1.15
667.175	-2.85
667.207	-4.85
667.238	0.15
667.27	-9.85
667.302	-12.85
667.334	1.15
667.365	6.15
667.397	-5.85
667.429	-5.85
667.46	4.15
667.492	6.15
667.524	-2.85
667.555	-9.85
667.587	-7.85
667.619	5.15
667.65	-10.85
667.682	-14.85
667.714	-14.85
667.745	-11.85
667.777	-1.85
667.808	-0.85
667.84	-0.85
667.872	3.15
667.903	1.15
667.935	-9.85
667.967	2.15
667.998	11.15
668.03	-1.85
668.061	-3.85
668.093	2.15
668.125	3.15
668.156	-16.85
668.188	1.15
668.22	-20.85
668.251	-3.85
668.283	3.15
668.314	12.15
668.346	-5.85
668.377	12.15
668.409	-16.85
668.441	4.15
668.472	1.15
668.504	11.15
668.535	17.15
668.567	14.15
668.599	0.15
668.63	-15.85
668.662	-3.85
668.693	22.15
668.725	6.15
668.756	7.15
668.788	3.15
668.819	-17.85
668.851	0.15
668.882	4.15
668.914	1.15
668.946	-18.85
668.977	-5.85
669.009	9.15
669.04	-24.85
669.072	-13.85
669.103	-11.85
669.135	-1.85
669.166	2.15
669.198	-4.85
669.229	12.15
669.261	1.15
669.292	-10.85
669.324	-3.85
669.355	1.15
669.387	6.15
669.418	8.15
669.45	-3.85
669.481	-5.85
669.513	-1.85
669.544	1.15
669.576	-4.85
669.607	-2.85
669.639	8.15
669.67	1.15
669.701	-7.85
669.733	-21.85
669.764	-4.85
669.796	4.15
669.827	-15.85
669.859	-12.85
669.89	1.15
669.922	17.15
669.953	21.15
669.985	5.15
670.016	9.15
670.047	5.15
670.079	18.15
670.11	12.15
670.142	-13.85
670.173	-5.85
670.204	-0.85
670.236	2.15
670.267	-27.85
670.299	-5.85
670.33	-2.85
670.362	10.15
670.393	-14.85
670.424	1.15
670.456	-29.85
670.487	-13.85
670.518	2.15
670.55	6.15
670.581	-2.85
670.613	11.15
670.644	4.15
670.675	3.15
670.707	-11.85
670.738	9.15
670.769	1.15
670.801	-11.85
670.832	-4.85
670.864	-7.85
670.895	-8.85
670.926	0.15
670.958	1.15
670.989	-6.85
671.02	3.15
671.052	-12.85
671.083	14.15
671.114	-9.85
671.146	-1.85
671.177	-13.85
671.208	1.15
671.24	-24.85
671.271	-5.85
671.302	2.15
671.333	5.15
671.365	4.15
671.396	-11.85
671.427	9.15
671.459	8.15
671.49	10.15
671.521	-1.85
671.553	0.15
671.584	-10.85
671.615	-22.85
671.646	1.15
671.678	3.15
671.709	-5.85
671.74	-0.85
671.771	-12.85
671.803	-0.85
671.834	5.15
671.865	2.15
671.896	7.15
671.928	6.15
671.959	-17.85
671.99	-6.85
672.021	-15.85
672.053	-17.85
672.084	2.15
672.115	-4.85
672.146	-14.85
672.178	-27.85
672.209	2.15
672.24	8.15
672.271	30.15
672.303	1.15
672.334	-0.85
672.365	-18.85
672.396	8.15
672.427	10.15
672.459	7.15
672.49	25.15
672.521	-2.85
672.552	4.15
672.583	14.15
672.615	-4.85
672.646	6.15
672.677	-8.85
672.708	9.15
672.739	2.15
672.77	8.15
672.802	4.15
672.833	0.15
672.864	-8.85
672.895	-1.85
672.926	1.15
672.957	1.15
672.989	-13.85
673.02	3.15
673.051	-5.85
673.082	21.15
673.113	7.15
673.144	9.15
673.175	1.15
673.206	7.15
673.238	-2.85
673.269	-6.85
673.3	5.15
673.331	9.15
673.362	3.15
673.393	1.15
673.424	-5.85
673.455	17.15
673.487	9.15
673.518	24.15
673.549	-9.85
673.58	-10.85
673.611	10.15
673.642	-1.85
673.673	-3.85
673.704	0.15
673.735	-10.85
673.766	2.15
673.797	-0.85
673.828	-3.85
673.86	-22.85
673.891	-15.85
673.922	-23.85
673.953	-6.85
673.984	6.15
674.015	6.15
674.046	9.15
674.077	8.15
674.108	-12.85
674.139	0.15
674.17	-0.85
674.201	-12.85
674.232	2.15
674.263	5.15
674.294	-9.85
674.325	-19.85
674.356	9.15
674.387	2.15
674.418	6.15
674.449	-5.85
674.48	-23.85
674.511	3.15
674.542	2.15
674.573	-3.85
674.604	18.15
674.635	-4.85
674.666	14.15
674.697	-0.85
674.728	5.15
674.759	4.15
674.79	-12.85
674.821	-9.85
674.852	1.15
674.883	-10.85
674.914	12.15
674.945	-6.85
674.976	-3.85
675.007	-18.85
675.038	-11.85
675.069	-9.85
675.1	-13.85
675.131	2.15
675.162	-2.85
675.193	-9.85
675.224	-9.85
675.254	6.15
675.285	5.15
675.316	6.15
675.347	6.15
675.378	-13.85
675.409	-21.85
675.44	11.15
675.471	2.15
675.502	-0.85
675.533	-4.85
675.564	0.15
675.595	0.15
675.625	15.15
675.656	22.15
675.687	0.15
675.718	-19.85
675.749	9.15
675.78	10.15
675.811	-20.85
675.842	4.15
675.873	2.15
675.903	-5.85
675.934	-12.85
675.965	-2.85
675.996	-14.85
676.027	-5.85
676.058	-7.85
676.089	-4.85
676.119	8.15
676.15	-2.85
676.181	-2.85
676.212	-1.85
676.243	0.15
676.274	-0.85
676.304	14.15
676.335	-32.85
676.366	-4.85
676.397	-22.85
676.428	-0.85
676.459	-1.85
676.489	2.15
676.52	0.15
676.551	-7.85
676.582	-12.85
676.613	7.15
676.643	-1.85
676.674	9.15
676.705	-0.85
676.736	-6.85
676.767	11.15
676.797	6.15
676.828	2.15
676.859	6.15
676.89	-0.85
676.92	-4.85
676.951	-6.85
676.982	6.15
677.013	6.15
677.044	8.15
677.074	-5.85
677.105	-17.85
677.136	-0.85
677.167	-6.85
677.197	7.15
677.228	-7.85
677.259	9.15
677.289	-1.85
677.32	-22.85
677.351	-5.85
677.382	5.15
677.412	-11.85
677.443	13.15
677.474	-2.85
677.505	-11.85
677.535	6.15
677.566	-9.85
677.597	-12.85
677.627	-29.85
677.658	-5.85
677.689	16.15
677.72	1.15
677.75	-1.85
677.781	-4.85
677.812	6.15
677.842	-6.85
677.873	1.15
677.904	-11.85
677.934	7.15
677.965	4.15
677.996	-16.85
678.026	0.15
678.057	-0.85
678.088	-11.85
678.118	4.15
678.149	-10.85
678.18	-16.85
678.21	-13.85
678.241	3.15
678.272	-2.85
678.302	1.15
678.333	1.15
678.363	4.15
678.394	8.15
678.425	-1.85
678.455	-8.85
678.486	10.15
678.517	11.15
678.547	-0.85
678.578	-3.85
678.608	-16.85
678.639	-9.85
678.67	10.15
678.7	-18.85
678.731	-22.85
678.761	-15.85
678.792	-4.85
678.823	-2.85
678.853	-9.85
678.884	-15.85
678.914	-7.85
678.945	3.15
678.975	-17.85
679.006	2.15
679.037	-14.85
679.067	20.15
679.098	7.15
679.128	-5.85
679.159	5.15
679.189	16.15
679.22	-14.85
679.25	9.15
679.281	9.15
679.312	2.15
679.342	-2.85
679.373	24.15
679.403	-7.85
679.434	-4.85
679.464	1.15
679.495	1.15
679.525	-0.85
679.556	-12.85
679.586	7.15
679.617	-2.85
679.647	-8.85
679.678	1.15
679.708	-15.85
679.739	-0.85
679.769	-5.85
679.8	3.15
679.83	6.15
679.861	17.15
679.891	-4.85
679.922	-15.85
679.952	-1.85
679.983	11.15
680.013	15.15
680.044	0.15
680.074	10.15
680.105	9.15
680.135	4.15
680.165	1.15
680.196	4.15
680.226	10.15
680.257	9.15
680.287	-3.85
680.318	-0.85
680.348	-9.85
680.379	5.15
680.409	3.15
680.439	-6.85
680.47	1.15
680.5	-15.85
680.531	-1.85
680.561	21.15
680.592	7.15
680.622	6.15
680.652	2.15
680.683	16.15
680.713	-13.85
680.744	-3.85
680.774	-14.85
680.804	5.15
680.835	2.15
680.865	3.15
680.896	21.15
680.926	8.15
680.956	4.15
680.987	4.15
681.017	-2.85
681.047	-7.85
681.078	-25.85
681.108	-5.85
681.139	-7.85
681.169	1.15
681.199	-11.85
681.23	4.15
681.26	-0.85
681.29	10.15
681.321	-11.85
681.351	-0.85
681.381	-12.85
681.412	-0.85
681.442	5.15
681.472	1.15
681.503	-0.85
681.533	0.15
681.563	7.15
681.594	3.15
681.624	-2.85
681.654	-4.85
681.685	-3.85
681.715	13.15
681.745	3.15
681.775	-9.85
681.806	-18.85
681.836	-1.85
681.866	-13.85
681.897	2.15
681.927	4.15
681.957	-21.85
681.987	-4.85
682.018	6.15
682.048	7.15
682.078	5.15
682.109	11.15
682.139	17.15
682.169	-0.85
682.199	-11.85
682.23	-11.85
682.26	0.15
682.29	-9.85
682.32	-13.85
682.351	-2.85
682.381	-1.85
682.411	-8.85
682.441	-23.85
682.472	-17.85
682.502	-5.85
682.532	-12.85
682.562	-4.85
682.592	10.15
682.623	9.15
682.653	17.15
682.683	-2.85
682.713	0.15
682.743	6.15
682.774	2.15
682.804	14.15
682.834	19.15
682.864	3.15
682.894	-1.85
682.925	0.15
682.955	-4.85
682.985	-2.85
683.015	2.15
683.045	6.15
683.076	-5.85
683.106	-1.85
683.136	-11.85
683.166	-6.85
683.196	-11.85
683.226	1.15
683.257	-8.85
683.287	-3.85
683.317	-2.85
683.347	-19.85
683.377	-9.85
683.407	-5.85
683.437	6.15
683.468	11.15
683.498	-4.85
683.528	-6.85
683.558	4.15
683.588	-1.85
683.618	-17.85
683.648	-12.85
683.678	-14.85
683.708	-4.85
683.739	-11.85
683.769	-8.85
683.799	2.15
683.829	11.15
683.859	14.15
683.889	20.15
683.919	-14.85
683.949	-1.85
683.979	-2.85
684.009	-5.85
684.039	5.15
684.07	-11.85
684.1	0.15
684.13	-1.85
684.16	-2.85
684.19	4.15
684.22	0.15
684.25	0.15
684.28	3.15
684.31	17.15
684.34	2.15
684.37	2.15
684.4	3.15
684.43	-2.85
684.46	7.15
684.49	10.15
684.52	17.15
684.55	9.15
684.58	4.15
684.61	-4.85
684.64	11.15
684.67	15.15
684.7	-0.85
684.73	-2.85
684.76	-9.85
684.79	9.15
684.82	-5.85
684.85	-8.85
684.88	-13.85
684.91	2.15
684.94	2.15
684.97	-3.85
685	-15.85
685.03	-0.85
685.06	-13.85
685.09	-1.85
685.12	11.15
685.15	-1.85
685.18	-5.85
685.21	4.15
685.24	15.15
685.27	16.15
685.3	7.15
685.33	-10.85
685.36	-13.85
685.39	-6.85
685.42	0.15
685.45	-0.85
685.48	-18.85
685.51	-2.85
685.54	9.15
685.569	-4.85
685.599	-6.85
685.629	18.15
685.659	18.15
685.689	-11.85
685.719	-1.85
685.749	-16.85
685.779	-0.85
685.809	20.15
685.839	2.15
685.869	-0.85
685.898	12.15
685.928	-2.85
685.958	-1.85
685.988	11.15
686.018	-1.85
686.048	-6.85
686.078	-0.85
686.108	6.15
686.137	-1.85
686.167	20.15
686.197	0.15
686.227	-7.85
686.257	18.15
686.287	12.15
686.317	-4.85
686.346	-13.85
686.376	-9.85
686.406	1.15
686.436	8.15
686.466	-0.85
686.496	6.15
686.525	-2.85
686.555	3.15
686.585	13.15
686.615	30.15
686.645	12.15
686.675	4.15
686.704	25.15
686.734	11.15
686.764	-13.85
686.794	-2.85
686.824	-4.85
686.853	-4.85
686.883	-1.85
686.913	-3.85
686.943	2.15
686.973	-10.85
687.002	-13.85
687.032	1.15
687.062	-11.85
687.092	13.15
687.121	4.15
687.151	8.15
687.181	-1.85
687.211	16.15
687.24	-0.85
687.27	-0.85
687.3	1.15
687.33	-2.85
687.359	-19.85
687.389	-5.85
687.419	-3.85
687.449	6.15
687.478	-3.85
687.508	-15.85
687.538	7.15
687.568	-1.85
687.597	-14.85
687.627	-1.85
687.657	2.15
687.686	9.15
687.716	16.15
687.746	-13.85
687.776	-6.85
687.805	3.15
687.835	-5.85
687.865	21.15
687.894	10.15
687.924	5.15
687.954	3.15
687.983	-2.85
688.013	9.15
688.043	12.15
688.072	20.15
688.102	14.15
688.132	-4.85
688.161	2.15
688.191	3.15
688.221	15.15
688.25	2.15
688.28	8.15
688.31	2.15
688.339	11.15
688.369	-4.85
688.399	-5.85
688.428	-2.85
688.458	0.15
688.488	-0.85
688.517	6.15
688.547	-17.85
688.576	29.15
688.606	7.15
688.636	-4.85
688.665	16.15
688.695	2.15
688.725	20.15
688.754	8.15
688.784	3.15
688.813	-2.85
688.843	3.15
688.873	0.15
688.902	-13.85
688.932	-4.85
688.961	-9.85
688.991	23.15
689.02	17.15
689.05	-8.85
689.08	8.15
689.109	3.15
689.139	1.15
689.168	16.15
689.198	18.15
689.227	2.15
689.257	6.15
689.287	3.15
689.316	-7.85
689.346	-17.85
689.375	2.15
689.405	14.15
689.434	-9.85
689.464	-2.85
689.493	-5.85
689.523	-8.85
689.552	-6.85
689.582	-2.85
689.611	5.15
689.641	0.15
689.67	11.15
689.7	-2.85
689.73	7.15
689.759	-1.85
689.789	0.15
689.818	0.15
689.848	-1.85
689.877	1.15
689.906	-7.85
689.936	-23.85
689.965	-8.85
689.995	14.15
690.024	14.15
690.054	9.15
690.083	1.15
690.113	5.15
690.142	-3.85
690.172	-8.85
690.201	-2.85
690.231	-2.85
690.26	18.15
690.29	-3.85
690.319	-9.85
690.348	-15.85
690.378	-2.85
690.407	5.15
690.437	-7.85
690.466	-1.85
690.496	0.15
690.525	-2.85
690.555	0.15
690.584	-0.85
690.613	0.15
690.643	6.15
690.672	-5.85
690.702	0.15
690.731	-3.85
690.76	-3.85
690.79	-3.85
690.819	-15.85
690.849	-14.85
690.878	-1.85
690.907	-1.85
690.937	14.15
690.966	21.15
690.996	5.15
691.025	-10.85
691.054	3.15
691.084	0.15
691.113	-3.85
691.142	14.15
691.172	1.15
691.201	4.15
691.23	-14.85
691.26	1.15
691.289	7.15
691.319	-0.85
691.348	9.15
691.377	7.15
691.407	2.15
691.436	-3.85
691.465	7.15
691.495	-2.85
691.524	3.15
691.553	-8.85
691.583	-2.85
691.612	27.15
691.641	11.15
691.67	4.15
691.7	-0.85
691.729	-0.85
691.758	9.15
691.788	18.15
691.817	-4.85
691.846	8.15
691.876	7.15
691.905	15.15
691.934	2.15
691.963	14.15
691.993	16.15
692.022	-9.85
692.051	-23.85
692.081	2.15
692.11	19.15
692.139	2.15
692.168	-0.85
692.198	4.15
692.227	-16.85
692.256	-2.85
692.285	-5.85
692.315	-13.85
692.344	-4.85
692.373	2.15
692.402	-9.85
692.432	-15.85
692.461	-2.85
692.49	6.15
692.519	-1.85
692.548	3.15
692.578	2.15
692.607	-13.85
692.636	-17.85
692.665	2.15
692.694	-0.85
692.724	-4.85
692.753	12.15
692.782	18.15
692.811	2.15
692.84	10.15
692.87	18.15
692.899	9.15
692.928	12.15
692.957	-4.85
692.986	6.15
693.016	6.15
693.045	4.15
693.074	-4.85
693.103	-6.85
693.132	8.15
693.161	10.15
693.191	-0.85
693.22	-3.85
693.249	-1.85
693.278	-7.85
693.307	-7.85
693.336	-17.85
693.365	-21.85
693.395	-11.85
693.424	-0.85
693.453	14.15
693.482	-2.85
693.511	-3.85
693.54	10.15
693.569	19.15
693.598	5.15
693.628	-1.85
693.657	9.15
693.686	11.15
693.715	9.15
693.744	1.15
693.773	-2.85
693.802	0.15
693.831	-16.85
693.86	4.15
693.889	0.15
693.919	-4.85
693.948	-0.85
693.977	-12.85
694.006	-1.85
694.035	9.15
694.064	10.15
694.093	0.15
694.122	-15.85
694.151	0.15
694.18	-2.85
694.209	19.15
694.238	3.15
694.267	11.15
694.296	5.15
694.325	2.15
694.354	-2.85
694.383	10.15
694.412	-12.85
694.441	-1.85
694.471	-11.85
694.5	-17.85
694.529	-5.85
694.558	3.15
694.587	6.15
694.616	1.15
694.645	4.15
694.674	18.15
694.703	-1.85
694.732	10.15
694.761	13.15
694.79	-0.85
694.819	-16.85
694.848	5.15
694.877	21.15
694.906	17.15
694.935	4.15
694.963	-2.85
694.992	-4.85
695.021	-3.85
695.05	6.15
695.079	17.15
695.108	-3.85
695.137	25.15
695.166	0.15
695.195	-13.85
695.224	-4.85
695.253	7.15
695.282	8.15
695.311	-7.85
695.34	-0.85
695.369	15.15
695.398	6.15
695.427	24.15
695.456	2.15
695.485	0.15
695.513	-4.85
695.542	-4.85
695.571	-6.85
695.6	19.15
695.629	-6.85
695.658	19.15
695.687	-7.85
695.716	10.15
695.745	10.15
695.774	-18.85
695.802	-7.85
695.831	15.15
695.86	21.15
695.889	22.15
695.918	-1.85
695.947	-13.85
695.976	1.15
696.005	-9.85
696.033	-1.85
696.062	31.15
696.091	11.15
696.12	2.15
696.149	12.15
696.178	3.15
696.207	7.15
696.235	-10.85
696.264	11.15
696.293	9.15
696.322	15.15
696.351	6.15
696.38	-5.85
696.408	4.15
696.437	0.15
696.466	10.15
696.495	31.15
696.524	3.15
696.553	4.15
696.581	11.15
696.61	13.15
696.639	-3.85
696.668	4.15
696.697	0.15
696.725	5.15
696.754	1.15
696.783	0.15
696.812	-10.85
696.84	21.15
696.869	5.15
696.898	6.15
696.927	3.15
696.956	6.15
696.984	-10.85
697.013	2.15
697.042	-0.85
697.071	-1.85
697.099	17.15
697.128	8.15
697.157	10.15
697.186	8.15
697.214	3.15
697.243	-10.85
697.272	9.15
697.301	-11.85
697.329	-2.85
697.358	18.15
697.387	18.15
697.415	31.15
697.444	13.15
697.473	16.15
697.502	-4.85
697.53	0.15
697.559	-5.85
697.588	3.15
697.616	-2.85
697.645	-2.85
697.674	14.15
697.703	7.15
697.731	9.15
697.76	0.15
697.789	2.15
697.817	1.15
697.846	1.15
697.875	-2.85
697.903	10.15
697.932	12.15
697.961	10.15
697.989	18.15
698.018	-1.85
698.047	-4.85
698.075	16.15
698.104	-9.85
698.133	-0.85
698.161	-9.85
698.19	-0.85
698.218	-4.85
698.247	-2.85
698.276	1.15
698.304	17.15
698.333	6.15
698.362	18.15
698.39	15.15
698.419	18.15
698.447	2.15
698.476	-11.85
698.505	2.15
698.533	5.15
698.562	2.15
698.591	-8.85
698.619	-9.85
698.648	3.15
698.676	-1.85
698.705	-10.85
698.733	-28.85
698.762	-7.85
698.791	9.15
698.819	-17.85
698.848	-14.85
698.876	8.15
698.905	4.15
698.933	1.15
698.962	1.15
698.991	2.15
699.019	14.15
699.048	10.15
699.076	5.15
699.105	-13.85
699.133	-7.85
699.162	6.15
699.19	16.15
699.219	0.15
699.248	-2.85
699.276	-9.85
699.305	-5.85
699.333	6.15
699.362	8.15
699.39	5.15
699.419	-8.85
699.447	2.15
699.476	0.15
699.504	-2.85
699.533	-2.85
699.561	-8.85
699.59	14.15
699.618	-1.85
699.647	-11.85
699.675	6.15
699.704	-8.85
699.732	-7.85
699.761	6.15
699.789	6.15
699.818	0.15
699.846	-6.85
699.874	-14.85
699.903	-15.85
699.931	-6.85
699.96	-1.85
699.988	4.15
700.017	-1.85
700.045	3.15
700.074	-10.85
700.102	1.15
700.13	-0.85
700.159	2.15
700.187	-12.85
700.216	-13.85
700.244	-7.85
700.273	-7.85
700.301	-2.85
700.329	17.15
700.358	14.15
700.386	1.15
700.415	-2.85
700.443	2.15
700.472	-16.85
700.5	6.15
700.528	-0.85
700.557	4.15
700.585	-0.85
700.614	-5.85
700.642	-1.85
700.67	23.15
700.699	3.15
700.727	16.15
700.755	11.15
700.784	-1.85
700.812	4.15
700.841	11.15
700.869	5.15
700.897	-15.85
700.926	-6.85
700.954	7.15
700.982	5.15
701.011	6.15
701.039	17.15
701.067	-1.85
701.096	11.15
701.124	-10.85
701.152	-11.85
701.181	-9.85
701.209	-6.85
701.237	-1.85
701.266	3.15
701.294	-10.85
701.322	-5.85
701.351	12.15
701.379	17.15
701.407	-6.85
701.435	1.15
701.464	12.15
701.492	4.15
701.52	1.15
701.549	-6.85
701.577	-8.85
701.605	-1.85
701.634	-6.85
701.662	13.15
701.69	-5.85
701.718	-6.85
701.747	0.15
701.775	2.15
701.803	-2.85
701.831	15.15
701.86	-9.85
701.888	2.15
701.916	4.15
701.944	2.15
701.973	-13.85
702.001	-14.85
702.029	-9.85
702.057	8.15
702.086	0.15
702.114	0.15
702.142	13.15
702.17	-7.85
702.199	2.15
702.227	-11.85
702.255	10.15
702.283	-13.85
702.311	0.15
702.34	10.15
702.368	15.15
702.396	2.15
702.424	5.15
702.452	12.15
702.481	0.15
702.509	-12.85
702.537	-2.85
702.565	2.15
702.593	-11.85
702.621	-0.85
702.65	15.15
702.678	2.15
702.706	9.15
702.734	1.15
702.762	17.15
702.79	-1.85
702.819	0.15
702.847	-3.85
702.875	-1.85
702.903	9.15
702.931	-11.85
702.959	-4.85
702.988	4.15
703.016	1.15
703.044	1.15
703.072	-0.85
703.1	6.15
703.128	-18.85
703.156	-4.85
703.184	-5.85
703.212	9.15
703.241	7.15
703.269	5.15
703.297	2.15
703.325	2.15
703.353	-8.85
703.381	-8.85
703.409	4.15
703.437	-12.85
703.465	-8.85
703.493	-2.85
703.522	1.15
703.55	14.15
703.578	11.15
703.606	-14.85
703.634	-15.85
703.662	-14.85
703.69	0.15
703.718	1.15
703.746	15.15
703.774	-2.85
703.802	7.15
703.83	-2.85
703.858	-2.85
703.886	-14.85
703.914	-16.85
703.942	10.15
703.97	-0.85
703.998	-0.85
704.027	8.15
704.055	-1.85
704.083	6.15
704.111	8.15
704.139	7.15
704.167	-13.85
704.195	-2.85
704.223	-1.85
704.251	-9.85
704.279	19.15
704.307	-5.85
704.335	-11.85
704.363	-0.85
704.391	-0.85
704.419	-3.85
704.447	-17.85
704.475	-7.85
704.503	-10.85
704.531	9.15
704.558	3.15
704.586	-0.85
704.614	-9.85
704.642	-5.85
704.67	-23.85
704.698	-2.85
704.726	-3.85
704.754	-7.85
704.782	-7.85
704.81	-9.85
704.838	19.15
704.866	20.15
704.894	1.15
704.922	-7.85
704.95	17.15
704.978	1.15
705.006	6.15
705.034	-3.85
705.061	-20.85
705.089	-11.85
705.117	-16.85
705.145	-5.85
705.173	6.15
705.201	11.15
705.229	15.15
705.257	-1.85
705.285	0.15
705.313	8.15
705.34	6.15
705.368	-7.85
705.396	2.15
705.424	18.15
705.452	-6.85
705.48	7.15
705.508	-2.85
705.536	-3.85
705.563	-2.85
705.591	2.15
705.619	-5.85
705.647	-6.85
705.675	-5.85
705.703	-0.85
705.731	-13.85
705.758	-7.85
705.786	3.15
705.814	20.15
705.842	0.15
705.87	9.15
705.898	1.15
705.925	-2.85
705.953	0.15
705.981	-10.85
706.009	-0.85
706.037	-7.85
706.065	8.15
706.092	-12.85
706.12	10.15
706.148	-2.85
706.176	-3.85
706.204	12.15
706.231	14.15
706.259	-5.85
706.287	5.15
706.315	2.15
706.342	-3.85
706.37	-0.85
706.398	-0.85
706.426	1.15
706.454	5.15
706.481	15.15
706.509	-5.85
706.537	4.15
706.565	8.15
706.592	0.15
706.62	-12.85
706.648	6.15
706.676	-15.85
706.703	4.15
706.731	-8.85
706.759	-2.85
706.787	-10.85
706.814	-1.85
706.842	6.15
706.87	-4.85
706.897	2.15
706.925	0.15
706.953	15.15
706.981	22.15
707.008	5.15
707.036	15.15
707.064	2.15
707.091	-36.85
707.119	8.15
707.147	-7.85
707.174	-17.85
707.202	-1.85
707.23	-8.85
707.258	-5.85
707.285	-21.85
707.313	-14.85
707.341	-18.85
707.368	-5.85
707.396	-11.85
707.424	13.15
707.451	1.15
707.479	11.15
707.507	-5.85
707.534	-3.85
707.562	1.15
707.59	-2.85
707.617	-1.85
707.645	-7.85
707.672	0.15
707.7	11.15
707.728	-2.85
707.755	3.15
707.783	-6.85
707.811	-9.85
707.838	-9.85
707.866	2.15
707.893	-8.85
707.921	-5.85
707.949	-4.85
707.976	-0.85
708.004	9.15
708.031	1.15
708.059	-7.85
708.087	-11.85
708.114	-7.85
708.142	-10.85
708.169	-10.85
708.197	-6.85
708.225	10.15
708.252	-11.85
708.28	-2.85
708.307	-9.85
708.335	1.15
708.362	-0.85
708.39	-4.85
708.418	10.15
708.445	3.15
708.473	-0.85
708.5	-8.85
708.528	13.15
708.555	-4.85
708.583	-7.85
708.61	-9.85
708.638	-4.85
708.665	-17.85
708.693	-7.85
708.72	-6.85
708.748	-18.85
708.776	-4.85
708.803	17.15
708.831	4.15
708.858	8.15
708.886	8.15
708.913	2.15
708.941	-11.85
708.968	7.15
708.996	-4.85
709.023	18.15
709.051	-9.85
709.078	-3.85
709.105	-8.85
709.133	-4.85
709.16	-6.85
709.188	9.15
709.215	1.15
709.243	7.15
709.27	-5.85
709.298	-29.85
709.325	-12.85
709.353	-9.85
709.38	3.15
709.408	12.15
709.435	-9.85
709.462	-3.85
709.49	2.15
709.517	-4.85
709.545	-17.85
709.572	-6.85
709.6	-5.85
709.627	9.15
709.655	-9.85
709.682	7.15
709.709	6.15
709.737	-2.85
709.764	-10.85
709.792	0.15
709.819	2.15
709.846	-4.85
709.874	3.15
709.901	-1.85
709.929	8.15
709.956	10.15
709.983	-19.85
710.011	-13.85
710.038	-6.85
710.066	-3.85
710.093	-4.85
710.12	19.15
710.148	0.15
710.175	-2.85
710.202	-10.85
710.23	2.15
710.257	-10.85
710.284	-5.85
710.312	6.15
710.339	-15.85
710.366	9.15
710.394	0.15
710.421	-0.85
710.448	2.15
710.476	-9.85
710.503	-0.85
710.53	14.15
710.558	15.15
710.585	11.15
710.612	3.15
710.64	3.15
710.667	-7.85
710.694	-18.85
710.722	-5.85
710.749	2.15
710.776	8.15
710.804	28.15
710.831	3.15
710.858	7.15
710.885	-6.85
710.913	-2.85
710.94	8.15
710.967	10.15
710.995	3.15
711.022	-7.85
711.049	13.15
711.076	6.15
711.104	7.15
711.131	-13.85
711.158	-6.85
711.185	10.15
711.213	-14.85
711.24	-2.85
711.267	0.15
711.294	3.15
711.322	15.15
711.349	1.15
711.376	10.15
711.403	5.15
711.431	-2.85
711.458	-11.85
711.485	-6.85
711.512	-13.85
711.54	-21.85
711.567	-4.85
711.594	-8.85
711.621	-0.85
711.648	1.15
711.676	-4.85
711.703	12.15
711.73	-2.85
711.757	2.15
711.784	3.15
711.812	5.15
711.839	-3.85
711.866	-2.85
711.893	-18.85
711.92	10.15
711.947	13.15
711.975	11.15
712.002	-1.85
712.029	-0.85
712.056	18.15
712.083	7.15
712.11	-3.85
712.138	-1.85
712.165	0.15
712.192	-4.85
712.219	5.15
712.246	-5.85
712.273	-14.85
712.3	-24.85
712.328	-7.85
712.355	0.15
712.382	-21.85
712.409	14.15
712.436	-10.85
712.463	12.15
712.49	9.15
712.517	-2.85
712.544	4.15
712.572	9.15
712.599	-2.85
712.626	3.15
712.653	-9.85
712.68	-12.85
712.707	-5.85
712.734	-4.85
712.761	-1.85
712.788	1.15
712.815	-2.85
712.842	12.15
712.87	-8.85
712.897	-13.85
712.924	-3.85
712.951	-2.85
712.978	26.15
713.005	9.15
713.032	17.15
713.059	2.15
713.086	-0.85
713.113	-8.85
713.14	-1.85
713.167	6.15
713.194	21.15
713.221	3.15
713.248	5.15
713.275	-14.85
713.302	-9.85
713.329	5.15
713.356	10.15
713.383	6.15
713.41	5.15
713.437	-16.85
713.464	3.15
713.491	13.15
713.518	-2.85
713.545	6.15
713.572	5.15
713.599	4.15
713.626	-13.85
713.653	12.15
713.68	-3.85
713.707	-5.85
713.734	-8.85
713.761	-8.85
713.788	5.15
713.815	6.15
713.842	2.15
713.869	3.15
713.896	-2.85
713.923	-1.85
713.95	4.15
713.977	2.15
714.004	-6.85
714.031	-14.85
714.058	-10.85
714.085	-13.85
714.112	12.15
714.139	5.15
714.165	-3.85
714.192	0.15
714.219	15.15
714.246	-2.85
714.273	8.15
714.3	-16.85
714.327	-7.85
714.354	9.15
714.381	3.15
714.408	-6.85
714.435	-5.85
714.461	-6.85
714.488	9.15
714.515	-22.85
714.542	-10.85
714.569	-17.85
714.596	-13.85
714.623	-8.85
714.65	-8.85
714.677	-1.85
714.703	-2.85
714.73	13.15
714.757	2.15
714.784	13.15
714.811	-13.85
714.838	10.15
714.865	-6.85
714.891	11.15
714.918	-5.85
714.945	-8.85
714.972	-2.85
714.999	15.15
715.026	1.15
715.052	8.15
715.079	-5.85
715.106	1.15
715.133	-4.85
715.16	-10.85
715.187	15.15
715.213	11.15
715.24	1.15
715.267	3.15
715.294	5.15
715.321	-10.85
715.347	-10.85
715.374	-0.85
715.401	-10.85
715.428	-8.85
715.455	1.15
715.481	-12.85
715.508	-3.85
715.535	-4.85
715.562	9.15
715.588	-7.85
715.615	-4.85
715.642	3.15
715.669	18.15
715.695	0.15
715.722	3.15
715.749	1.15
715.776	4.15
715.802	3.15
715.829	3.15
715.856	-14.85
715.883	2.15
715.909	3.15
715.936	-8.85
715.963	-0.85
715.99	-6.85
716.016	5.15
716.043	11.15
716.07	-10.85
716.096	-6.85
716.123	-10.85
716.15	-4.85
716.177	2.15
716.203	5.15
716.23	3.15
716.257	8.15
716.283	21.15
716.31	11.15
716.337	13.15
716.363	-2.85
716.39	6.15
716.417	18.15
716.443	-2.85
716.47	3.15
716.497	11.15
716.523	17.15
716.55	-4.85
716.577	0.15
716.603	-6.85
716.63	4.15
716.657	0.15
716.683	-11.85
716.71	-7.85
716.737	2.15
716.763	-4.85
716.79	-5.85
716.817	2.15
716.843	-5.85
716.87	-2.85
716.897	16.15
716.923	14.15
716.95	7.15
716.976	-7.85
717.003	7.15
717.03	5.15
717.056	-4.85
717.083	0.15
717.109	-8.85
717.136	8.15
717.163	-10.85
717.189	14.15
717.216	7.15
717.242	-15.85
717.269	-10.85
717.296	12.15
717.322	11.15
717.349	12.15
717.375	9.15
717.402	-7.85
717.428	8.15
717.455	8.15
717.481	2.15
717.508	-7.85
717.535	11.15
717.561	1.15
717.588	-12.85
717.614	0.15
717.641	7.15
717.667	7.15
717.694	-1.85
717.72	-0.85
717.747	0.15
717.773	-6.85
717.8	12.15
717.826	-3.85
717.853	-6.85
717.88	12.15
717.906	4.15
717.933	14.15
717.959	-3.85
717.986	-6.85
718.012	-8.85
718.039	17.15
718.065	8.15
718.092	14.15
718.118	-6.85
718.144	-11.85
718.171	-0.85
718.197	6.15
718.224	7.15
718.25	-4.85
718.277	12.15
718.303	14.15
718.33	9.15
718.356	-15.85
718.383	-9.85
718.409	-4.85
718.436	2.15
718.462	-1.85
718.489	-5.85
718.515	-0.85
718.541	9.15
718.568	-1.85
718.594	-9.85
718.621	-9.85
718.647	-11.85
718.674	18.15
718.7	9.15
718.726	-6.85
718.753	1.15
718.779	-11.85
718.806	-16.85
718.832	5.15
718.858	-0.85
718.885	8.15
718.911	-2.85
718.938	0.15
718.964	-6.85
718.99	6.15
719.017	11.15
719.043	2.15
719.07	-1.85
719.096	-9.85
719.122	0.15
719.149	13.15
719.175	18.15
719.201	9.15
719.228	1.15
719.254	-1.85
719.281	-4.85
719.307	4.15
719.333	-5.85
719.36	9.15
719.386	4.15
719.412	10.15
719.439	1.15
719.465	4.15
719.491	-9.85
719.518	0.15
719.544	8.15
719.57	3.15
719.597	10.15
719.623	-15.85
719.649	0.15
719.675	-0.85
719.702	7.15
719.728	-4.85
719.754	-11.85
719.781	-7.85
719.807	-2.85
719.833	-3.85
719.86	-4.85
719.886	-9.85
719.912	5.15
719.938	5.15
719.965	-8.85
719.991	9.15
720.017	-5.85
720.044	-5.85
720.07	8.15
720.096	8.15
720.122	1.15
720.149	17.15
720.175	30.15
720.201	5.15
720.227	-9.85
720.254	2.15
720.28	5.15
720.306	0.15
720.332	0.15
720.359	8.15
720.385	12.15
720.411	-4.85
720.437	-5.85
720.463	6.15
720.49	7.15
720.516	-9.85
720.542	-12.85
720.568	2.15
720.595	9.15
720.621	-2.85
720.647	13.15
720.673	9.15
720.699	-18.85
720.725	-7.85
720.752	4.15
720.778	-1.85
720.804	-3.85
720.83	6.15
720.856	-11.85
720.883	-17.85
720.909	4.15
720.935	2.15
720.961	10.15
720.987	-3.85
721.013	6.15
721.04	-14.85
721.066	-13.85
721.092	6.15
721.118	-4.85
721.144	11.15
721.17	-1.85
721.196	-1.85
721.223	-1.85
721.249	15.15
721.275	29.15
721.301	13.15
721.327	16.15
721.353	-5.85
721.379	-12.85
721.405	-8.85
721.432	3.15
721.458	-13.85
721.484	-2.85
721.51	-4.85
721.536	0.15
721.562	-2.85
721.588	-10.85
721.614	-16.85
721.64	-8.85
721.666	2.15
721.693	-8.85
721.719	-5.85
721.745	-11.85
721.771	0.15
721.797	0.15
721.823	1.15
721.849	16.15
721.875	8.15
721.901	-9.85
721.927	9.15
721.953	-4.85
721.979	14.15
722.005	18.15
722.031	5.15
722.057	-2.85
722.083	-12.85
722.109	2.15
722.135	1.15
722.161	8.15
722.187	-6.85
722.214	-14.85
722.24	-8.85
722.266	9.15
722.292	4.15
722.318	16.15
722.344	0.15
722.37	4.15
722.396	17.15
722.422	2.15
722.448	6.15
722.474	-12.85
722.5	-5.85
722.526	1.15
722.552	-9.85
722.578	1.15
722.603	15.15
722.629	-17.85
722.655	0.15
722.681	10.15
722.707	-1.85
722.733	-4.85
722.759	-6.85
722.785	-3.85
722.811	-9.85
722.837	-9.85
722.863	-2.85
722.889	17.15
722.915	11.15
722.941	-2.85
722.967	18.15
722.993	14.15
723.019	-1.85
723.045	-10.85
723.071	-8.85
723.097	3.15
723.122	-0.85
723.148	-6.85
723.174	-8.85
723.2	17.15
723.226	-5.85
723.252	10.15
723.278	-2.85
723.304	-6.85
723.33	-11.85
723.356	-14.85
723.381	-18.85
723.407	-20.85
723.433	9.15
723.459	-7.85
723.485	-2.85
723.511	13.15
723.537	-0.85
723.563	1.15
723.588	-1.85
723.614	2.15
723.64	0.15
723.666	0.15
723.692	5.15
723.718	20.15
723.744	-2.85
723.769	-10.85
723.795	-6.85
723.821	13.15
723.847	-4.85
723.873	3.15
723.899	-2.85
723.924	-13.85
723.95	-15.85
723.976	-8.85
724.002	1.15
724.028	-0.85
724.053	-6.85
724.079	4.15
724.105	0.15
724.131	-9.85
724.157	-15.85
724.182	10.15
724.208	-2.85
724.234	-0.85
724.26	2.15
724.286	10.15
724.311	-2.85
724.337	-11.85
724.363	-5.85
724.389	1.15
724.415	0.15
724.44	-0.85
724.466	5.15
724.492	11.15
724.518	17.15
724.543	10.15
724.569	4.15
724.595	5.15
724.621	-4.85
724.646	-2.85
724.672	-7.85
724.698	-13.85
724.723	-4.85
724.749	8.15
724.775	6.15
724.801	2.15
724.826	-20.85
724.852	-10.85
724.878	-10.85
724.904	-14.85
724.929	9.15
724.955	-14.85
724.981	-8.85
725.006	-0.85
725.032	-9.85
725.058	-0.85
725.083	-7.85
725.109	-7.85
725.135	1.15
725.161	2.15
725.186	-6.85
725.212	-20.85
725.238	10.15
725.263	-9.85
725.289	-17.85
725.315	-16.85
725.34	-13.85
725.366	8.15
725.392	-5.85
725.417	-21.85
725.443	-5.85
725.468	-1.85
725.494	18.15
725.52	25.15
725.545	12.15
725.571	2.15
725.597	9.15
725.622	10.15
725.648	6.15
725.674	21.15
725.699	8.15
725.725	4.15
725.75	18.15
725.776	-11.85
725.802	2.15
725.827	22.15
725.853	4.15
725.878	5.15
725.904	5.15
725.93	2.15
725.955	-5.85
725.981	-10.85
726.006	-4.85
726.032	8.15
726.057	-2.85
726.083	-6.85
726.109	-9.85
726.134	-8.85
726.16	-5.85
726.185	3.15
726.211	-5.85
726.236	4.15
726.262	11.15
726.288	1.15
726.313	10.15
726.339	13.15
726.364	6.15
726.39	8.15
726.415	-9.85
726.441	-6.85
726.466	-15.85
726.492	-5.85
726.517	6.15
726.543	-14.85
726.568	-2.85
726.594	-5.85
726.619	-0.85
726.645	-16.85
726.67	-4.85
726.696	1.15
726.721	-17.85
726.747	-4.85
726.772	1.15
726.798	2.15
726.823	7.15
726.849	-12.85
726.874	5.15
726.9	15.15
726.925	6.15
726.951	-5.85
726.976	6.15
727.002	5.15
727.027	5.15
727.053	-0.85
727.078	-6.85
727.104	-7.85
727.129	-15.85
727.155	-5.85
727.18	-4.85
727.205	1.15
727.231	-15.85
727.256	-9.85
727.282	2.15
727.307	16.15
727.333	1.15
727.358	-17.85
727.383	-9.85
727.409	-7.85
727.434	6.15
727.46	-7.85
727.485	-7.85
727.511	8.15
727.536	-1.85
727.561	-13.85
727.587	-8.85
727.612	-17.85
727.637	-19.85
727.663	-15.85
727.688	1.15
727.714	-1.85
727.739	-2.85
727.764	-8.85
727.79	-6.85
727.815	-8.85
727.841	10.15
727.866	-2.85
727.891	-18.85
727.917	-10.85
727.942	-5.85
727.967	-12.85
727.993	-8.85
728.018	-11.85
728.043	-9.85
728.069	6.15
728.094	-0.85
728.119	-2.85
728.145	23.15
728.17	8.15
728.195	14.15
728.221	24.15
728.246	-17.85
728.271	-22.85
728.297	-0.85
728.322	-4.85
728.347	2.15
728.373	3.15
728.398	0.15
728.423	-4.85
728.448	-2.85
728.474	-3.85
728.499	22.15
728.524	1.15
728.55	-2.85
728.575	2.15
728.6	-10.85
728.625	-10.85
728.651	1.15
728.676	-7.85
728.701	-0.85
728.727	-0.85
728.752	-6.85
728.777	-8.85
728.802	5.15
728.828	5.15
728.853	9.15
728.878	-12.85
728.903	-15.85
728.929	-7.85
728.954	2.15
728.979	9.15
729.004	-10.85
729.03	-8.85
729.055	1.15
729.08	-1.85
729.105	-3.85
729.13	1.15
729.156	7.15
729.181	-4.85
729.206	-13.85
729.231	-12.85
729.256	2.15
729.282	3.15
729.307	-1.85
729.332	-8.85
729.357	-7.85
729.382	-10.85
729.408	-0.85
729.433	-6.85
729.458	1.15
729.483	11.15
729.508	6.15
729.533	6.15
729.559	-4.85
729.584	-5.85
729.609	1.15
729.634	-10.85
729.659	-2.85
729.684	-5.85
729.71	10.15
729.735	-3.85
729.76	4.15
729.785	-11.85
729.81	-2.85
729.835	-13.85
729.86	-10.85
729.886	-8.85
729.911	10.15
729.936	-13.85
729.961	2.15
729.986	-0.85
730.011	-2.85
730.036	-1.85
730.061	2.15
730.086	1.15
730.112	9.15
730.137	37.15
730.162	7.15
730.187	-15.85
730.212	13.15
730.237	-7.85
730.262	1.15
730.287	-1.85
730.312	6.15
730.337	-2.85
730.362	9.15
730.387	10.15
730.413	-7.85
730.438	-10.85
730.463	-6.85
730.488	-7.85
730.513	-0.85
730.538	-5.85
730.563	4.15
730.588	0.15
730.613	6.15
730.638	3.15
730.663	4.15
730.688	20.15
730.713	16.15
730.738	-7.85
730.763	4.15
730.788	-12.85
730.813	-1.85
730.838	0.15
730.863	12.15
730.888	-2.85
730.913	-21.85
730.938	-13.85
730.963	-13.85
730.988	-1.85
731.013	1.15
731.038	-4.85
731.063	-9.85
731.088	5.15
731.113	-11.85
731.138	-11.85
731.163	0.15
731.188	-6.85
731.213	1.15
731.238	17.15
731.263	-6.85
731.288	-11.85
731.313	2.15
731.338	1.15
731.363	-1.85
731.388	-7.85
731.413	-7.85
731.438	10.15
731.463	7.15
731.487	7.15
731.512	4.15
731.537	-6.85
731.562	-10.85
731.587	1.15
731.612	-5.85
731.637	-11.85
731.662	-2.85
731.687	-8.85
731.712	-6.85
731.737	9.15
731.762	-20.85
731.786	10.15
731.811	6.15
731.836	-1.85
731.861	5.15
731.886	0.15
731.911	6.15
731.936	9.15
731.961	-23.85
731.986	-14.85
732.01	2.15
732.035	3.15
732.06	14.15
732.085	-4.85
732.11	-4.85
732.135	-22.85
732.16	2.15
732.184	-0.85
732.209	-10.85
732.234	5.15
732.259	-8.85
732.284	22.15
732.309	-10.85
732.334	-10.85
732.358	-26.85
732.383	-21.85
732.408	-10.85
732.433	-7.85
732.458	-12.85
732.482	2.15
732.507	-2.85
732.532	2.15
732.557	19.15
732.582	15.15
732.607	-5.85
732.631	-15.85
732.656	-16.85
732.681	-0.85
732.706	6.15
732.73	1.15
732.755	1.15
732.78	-3.85
732.805	19.15
732.83	1.15
732.854	-12.85
732.879	7.15
732.904	1.15
732.929	-8.85
732.953	5.15
732.978	-6.85
733.003	-15.85
733.028	1.15
733.052	1.15
733.077	-14.85
733.102	6.15
733.127	-11.85
733.151	-10.85
733.176	-7.85
733.201	-10.85
733.226	-7.85
733.25	-7.85
733.275	-8.85
733.3	1.15
733.324	8.15
733.349	10.15
733.374	5.15
733.399	-1.85
733.423	-0.85
733.448	-16.85
733.473	5.15
733.497	-2.85
733.522	-23.85
733.547	13.15
733.571	11.15
733.596	11.15
733.621	3.15
733.646	-5.85
733.67	-4.85
733.695	-10.85
733.72	16.15
733.744	-0.85
733.769	2.15
733.794	9.15
733.818	6.15
733.843	-7.85
733.867	-13.85
733.892	-11.85
733.917	13.15
733.941	-9.85
733.966	-4.85
733.991	10.15
734.015	23.15
734.04	1.15
734.065	17.15
734.089	18.15
734.114	9.15
734.138	7.15
734.163	-4.85
734.188	1.15
734.212	18.15
734.237	8.15
734.261	12.15
734.286	-9.85
734.311	-6.85
734.335	-2.85
734.36	-7.85
734.384	-6.85
734.409	-0.85
734.434	-9.85
734.458	-1.85
734.483	-14.85
734.507	-2.85
734.532	-7.85
734.556	-7.85
734.581	-6.85
734.606	-8.85
734.63	-10.85
734.655	-10.85
734.679	-13.85
734.704	-9.85
734.728	-1.85
734.753	6.15
734.777	-2.85
734.802	5.15
734.826	6.15
734.851	6.15
734.876	8.15
734.9	-1.85
734.925	2.15
734.949	5.15
734.974	9.15
734.998	1.15
735.023	-12.85
735.047	-17.85
735.072	10.15
735.096	5.15
735.121	-1.85
735.145	-8.85
735.17	-1.85
735.194	16.15
735.219	-6.85
735.243	7.15
735.268	6.15
735.292	19.15
735.317	3.15
735.341	1.15
735.365	-14.85
735.39	14.15
735.414	10.15
735.439	-5.85
735.463	5.15
735.488	-11.85
735.512	5.15
735.537	-1.85
735.561	-4.85
735.586	-5.85
735.61	11.15
735.634	-1.85
735.659	-3.85
735.683	8.15
735.708	-5.85
735.732	3.15
735.757	-0.85
735.781	6.15
735.805	13.15
735.83	-5.85
735.854	-8.85
735.879	-2.85
735.903	-0.85
735.927	2.15
735.952	-5.85
735.976	4.15
736.001	-3.85
736.025	-5.85
736.049	7.15
736.074	4.15
736.098	5.15
736.123	9.15
736.147	-6.85
736.171	3.15
736.196	10.15
736.22	0.15
736.244	-6.85
736.269	-8.85
736.293	11.15
736.317	-6.85
736.342	3.15
736.366	6.15
736.39	17.15
736.415	8.15
736.439	9.15
736.463	-3.85
736.488	11.15
736.512	-2.85
736.536	-0.85
736.561	10.15
736.585	-1.85
736.609	6.15
736.634	-3.85
736.658	7.15
736.682	-11.85
736.707	-6.85
736.731	-16.85
736.755	-4.85
736.78	14.15
736.804	12.15
736.828	15.15
736.852	11.15
736.877	-4.85
736.901	5.15
736.925	4.15
736.949	10.15
736.974	-21.85
736.998	-14.85
737.022	4.15
737.047	-7.85
737.071	-10.85
737.095	18.15
737.119	26.15
737.144	4.15
737.168	-1.85
737.192	1.15
737.216	-5.85
737.241	-13.85
737.265	-6.85
737.289	-4.85
737.313	-2.85
737.337	7.15
737.362	-5.85
737.386	-4.85
737.41	-2.85
737.434	4.15
737.459	8.15
737.483	17.15
737.507	15.15
737.531	3.15
737.555	1.15
737.58	15.15
737.604	1.15
737.628	-22.85
737.652	-13.85
737.676	-8.85
737.701	6.15
737.725	6.15
737.749	19.15
737.773	0.15
737.797	-6.85
737.821	-2.85
737.846	0.15
737.87	15.15
737.894	-7.85
737.918	8.15
737.942	3.15
737.966	11.15
737.99	8.15
738.015	13.15
738.039	3.15
738.063	-13.85
738.087	14.15
738.111	7.15
738.135	12.15
738.159	0.15
738.184	4.15
738.208	7.15
738.232	-3.85
738.256	14.15
738.28	-2.85
738.304	16.15
738.328	-1.85
738.352	-1.85
738.376	9.15
738.4	5.15
738.425	9.15
738.449	16.15
738.473	8.15
738.497	-6.85
738.521	-6.85
738.545	6.15
738.569	5.15
738.593	11.15
738.617	-2.85
738.641	-10.85
738.665	8.15
738.689	8.15
738.713	-0.85
738.737	15.15
738.762	27.15
738.786	1.15
738.81	-7.85
738.834	4.15
738.858	-22.85
738.882	5.15
738.906	-2.85
738.93	-12.85
738.954	5.15
738.978	-3.85
739.002	-9.85
739.026	13.15
739.05	2.15
739.074	-0.85
739.098	34.15
739.122	17.15
739.146	2.15
739.17	9.15
739.194	9.15
739.218	0.15
739.242	5.15
739.266	6.15
739.29	10.15
739.314	-2.85
739.338	-4.85
739.362	4.15
739.386	3.15
739.41	-14.85
739.434	-4.85
739.458	3.15
739.482	3.15
739.506	-14.85
739.53	-1.85
739.554	3.15
739.577	-9.85
739.601	-1.85
739.625	-16.85
739.649	0.15
739.673	-4.85
739.697	-1.85
739.721	-7.85
739.745	8.15
739.769	12.15
739.793	6.15
739.817	7.15
739.841	-1.85
739.865	5.15
739.889	-5.85
739.912	-14.85
739.936	-11.85
739.96	-3.85
739.984	16.15
740.008	6.15
740.032	-2.85
740.056	-2.85
740.08	-10.85
740.104	-11.85
740.127	12.15
740.151	12.15
740.175	6.15
740.199	14.15
740.223	45.15
740.247	0.15
740.271	4.15
740.295	-4.85
740.318	-25.85
740.342	-10.85
740.366	-1.85
740.39	13.15
740.414	-7.85
740.438	-1.85
740.461	26.15
740.485	14.15
740.509	-2.85
740.533	2.15
740.557	-5.85
740.581	-20.85
740.604	-7.85
740.628	2.15
740.652	6.15
740.676	-4.85
740.7	8.15
740.723	-6.85
740.747	-14.85
740.771	-10.85
740.795	-12.85
740.819	11.15
740.842	8.15
740.866	8.15
740.89	14.15
740.914	7.15
740.938	-16.85
740.961	3.15
740.985	-6.85
741.009	3.15
741.033	2.15
741.056	-1.85
741.08	-16.85
741.104	-13.85
741.128	-13.85
741.151	-4.85
741.175	-8.85
741.199	10.15
741.223	11.15
741.246	-7.85
741.27	10.15
741.294	12.15
741.318	4.15
741.341	-6.85
741.365	-12.85
741.389	-2.85
741.413	18.15
741.436	4.15
741.46	-0.85
741.484	15.15
741.507	10.15
741.531	11.15
741.555	19.15
741.579	-0.85
741.602	1.15
741.626	7.15
741.65	2.15
741.673	-8.85
741.697	1.15
741.721	1.15
741.744	1.15
741.768	11.15
741.792	-1.85
741.815	-8.85
741.839	11.15
741.863	21.15
741.886	7.15
741.91	17.15
741.934	3.15
741.957	-11.85
741.981	0.15
742.005	2.15
742.028	-20.85
742.052	-8.85
742.075	5.15
742.099	6.15
742.123	-0.85
742.146	-6.85
742.17	12.15
742.194	1.15
742.217	-10.85
742.241	-5.85
742.264	-15.85
742.288	23.15
742.312	-2.85
742.335	10.15
742.359	9.15
742.382	17.15
742.406	7.15
742.43	-6.85
742.453	13.15
742.477	-1.85
742.5	16.15
742.524	6.15
742.548	-11.85
742.571	-11.85
742.595	1.15
742.618	0.15
742.642	-6.85
742.665	3.15
742.689	-7.85
742.712	8.15
742.736	8.15
742.76	-13.85
742.783	-8.85
742.807	-6.85
742.83	1.15
742.854	-8.85
742.877	-1.85
742.901	4.15
742.924	-0.85
742.948	2.15
742.971	-1.85
742.995	8.15
743.018	-2.85
743.042	-7.85
743.065	-8.85
743.089	-8.85
743.112	-5.85
743.136	-14.85
743.159	-8.85
743.183	-4.85
743.206	19.15
743.23	7.15
743.253	16.15
743.277	9.15
743.3	4.15
743.324	-16.85
743.347	-10.85
743.371	3.15
743.394	-0.85
743.418	17.15
743.441	14.15
743.465	-1.85
743.488	11.15
743.512	-6.85
743.535	4.15
743.558	-9.85
743.582	-13.85
743.605	-2.85
743.629	7.15
743.652	-1.85
743.676	1.15
743.699	-2.85
743.723	13.15
743.746	10.15
743.769	3.15
743.793	-5.85
743.816	-7.85
743.84	5.15
743.863	-2.85
743.886	-15.85
743.91	21.15
743.933	4.15
743.957	-10.85
743.98	11.15
744.003	5.15
744.027	10.15
744.05	6.15
744.074	1.15
744.097	-14.85
744.12	-14.85
744.144	-0.85
744.167	-2.85
744.19	-10.85
744.214	-10.85
744.237	-13.85
744.26	5.15
744.284	5.15
744.307	-1.85
744.331	-4.85
744.354	-1.85
744.377	-13.85
744.401	4.15
744.424	-1.85
744.447	-12.85
744.471	-6.85
