Data from HighRes_H2_15_09_11_07_2024_HR4C61891__124__15-11-08-801.txt Node

Date: Thu Nov 07 15:11:08 EST 2024
User: crc00042
Spectrometer: HR4C6189
Trigger mode: 4
Integration Time (sec): 1.000000E-1
Scans to average: 1
Electric dark correction enabled: true
Nonlinearity correction enabled: false
Boxcar width: 0
XAxis mode: Wavelengths
Number of Pixels in Spectrum: 3648
>>>>>Begin Spectral Data<<<<<
639.567	-53.38
639.602	-53.38
639.636	-53.38
639.67	-44.38
639.704	-18.38
639.738	-4.38
639.773	9.62
639.807	1.62
639.841	-2.38
639.875	4.62
639.909	-13.38
639.943	-3.38
639.978	-16.38
640.012	0.62
640.046	10.62
640.08	11.62
640.114	1.62
640.148	-0.38
640.182	-8.38
640.217	-4.38
640.251	10.62
640.285	3.62
640.319	-10.38
640.353	-5.38
640.387	-1.38
640.421	6.62
640.455	-4.38
640.49	-5.38
640.524	-7.38
640.558	8.62
640.592	10.62
640.626	-6.38
640.66	0.62
640.694	6.62
640.728	-2.38
640.762	7.62
640.796	15.62
640.83	7.62
640.865	-17.38
640.899	-1.38
640.933	12.62
640.967	2.62
641.001	-2.38
641.035	-11.38
641.069	-0.38
641.103	-21.38
641.137	-14.38
641.171	-13.38
641.205	0.62
641.239	1.62
641.273	3.62
641.307	4.62
641.341	-7.38
641.375	-15.38
641.409	-2.38
641.443	-7.38
641.477	0.62
641.511	-0.38
641.545	3.62
641.579	-5.38
641.614	6.62
641.648	-12.38
641.682	-28.38
641.716	1.62
641.75	10.62
641.784	5.62
641.818	3.62
641.852	8.62
641.886	-9.38
641.919	21.62
641.953	-11.38
641.987	-13.38
642.021	-5.38
642.055	5.62
642.089	8.62
642.123	-5.38
642.157	-1.38
642.191	-13.38
642.225	6.62
642.259	2.62
642.293	1.62
642.327	-1.38
642.361	-8.38
642.395	7.62
642.429	1.62
642.463	-0.38
642.497	-1.38
642.531	-2.38
642.565	7.62
642.599	15.62
642.633	-3.38
642.666	-10.38
642.7	26.62
642.734	3.62
642.768	-5.38
642.802	0.62
642.836	-0.38
642.87	3.62
642.904	9.62
642.938	-13.38
642.972	-1.38
643.005	6.62
643.039	17.62
643.073	-2.38
643.107	0.62
643.141	8.62
643.175	5.62
643.209	-2.38
643.243	-10.38
643.276	-5.38
643.31	5.62
643.344	-8.38
643.378	-3.38
643.412	3.62
643.446	-3.38
643.48	-7.38
643.513	-9.38
643.547	-0.38
643.581	-5.38
643.615	12.62
643.649	3.62
643.683	9.62
643.716	2.62
643.75	1.62
643.784	-16.38
643.818	-0.38
643.852	-1.38
643.886	4.62
643.919	6.62
643.953	0.62
643.987	-5.38
644.021	9.62
644.055	8.62
644.088	-9.38
644.122	-22.38
644.156	4.62
644.19	-17.38
644.224	-9.38
644.257	6.62
644.291	-4.38
644.325	6.62
644.359	-0.38
644.392	9.62
644.426	18.62
644.46	12.62
644.494	19.62
644.527	-11.38
644.561	-3.38
644.595	-7.38
644.629	-4.38
644.662	-21.38
644.696	6.62
644.73	5.62
644.764	2.62
644.797	-7.38
644.831	-2.38
644.865	6.62
644.899	-10.38
644.932	21.62
644.966	-4.38
645	5.62
645.033	21.62
645.067	-9.38
645.101	22.62
645.135	-5.38
645.168	0.62
645.202	-10.38
645.236	-5.38
645.269	4.62
645.303	19.62
645.337	-9.38
645.37	-8.38
645.404	-11.38
645.438	4.62
645.471	-5.38
645.505	15.62
645.539	-8.38
645.572	-25.38
645.606	0.62
645.64	3.62
645.673	5.62
645.707	7.62
645.741	-4.38
645.774	-1.38
645.808	8.62
645.842	-1.38
645.875	9.62
645.909	2.62
645.943	-2.38
645.976	-3.38
646.01	4.62
646.043	15.62
646.077	10.62
646.111	22.62
646.144	32.62
646.178	16.62
646.212	-10.38
646.245	-3.38
646.279	11.62
646.312	1.62
646.346	5.62
646.38	-4.38
646.413	14.62
646.447	-0.38
646.48	-5.38
646.514	10.62
646.547	-1.38
646.581	15.62
646.615	-7.38
646.648	-4.38
646.682	0.62
646.715	3.62
646.749	5.62
646.782	-9.38
646.816	-13.38
646.85	11.62
646.883	-6.38
646.917	7.62
646.95	4.62
646.984	0.62
647.017	0.62
647.051	-8.38
647.084	11.62
647.118	2.62
647.151	5.62
647.185	4.62
647.218	-12.38
647.252	10.62
647.285	5.62
647.319	-14.38
647.353	3.62
647.386	15.62
647.42	4.62
647.453	-15.38
647.487	7.62
647.52	6.62
647.553	13.62
647.587	-0.38
647.62	11.62
647.654	-2.38
647.687	-0.38
647.721	11.62
647.754	2.62
647.788	7.62
647.821	-7.38
647.855	9.62
647.888	-2.38
647.922	14.62
647.955	9.62
647.989	11.62
648.022	4.62
648.055	18.62
648.089	6.62
648.122	25.62
648.156	-8.38
648.189	-1.38
648.223	10.62
648.256	9.62
648.29	9.62
648.323	-1.38
648.356	4.62
648.39	2.62
648.423	11.62
648.457	-16.38
648.49	9.62
648.523	3.62
648.557	-4.38
648.59	-9.38
648.624	-0.38
648.657	6.62
648.69	22.62
648.724	15.62
648.757	24.62
648.791	9.62
648.824	11.62
648.857	15.62
648.891	0.62
648.924	-2.38
648.957	15.62
648.991	-2.38
649.024	31.62
649.057	6.62
649.091	3.62
649.124	14.62
649.158	2.62
649.191	29.62
649.224	1.62
649.258	8.62
649.291	5.62
649.324	-4.38
649.358	-14.38
649.391	14.62
649.424	8.62
649.458	-11.38
649.491	10.62
649.524	4.62
649.557	-21.38
649.591	-23.38
649.624	-0.38
649.657	2.62
649.691	-4.38
649.724	-3.38
649.757	-0.38
649.791	-6.38
649.824	5.62
649.857	-0.38
649.89	-5.38
649.924	-0.38
649.957	1.62
649.99	-4.38
650.023	-2.38
650.057	-16.38
650.09	10.62
650.123	18.62
650.157	16.62
650.19	19.62
650.223	-12.38
650.256	-7.38
650.29	8.62
650.323	6.62
650.356	5.62
650.389	-10.38
650.423	-8.38
650.456	6.62
650.489	5.62
650.522	10.62
650.555	22.62
650.589	7.62
650.622	4.62
650.655	19.62
650.688	2.62
650.721	-3.38
650.755	0.62
650.788	18.62
650.821	-7.38
650.854	2.62
650.887	-7.38
650.921	-11.38
650.954	1.62
650.987	1.62
651.02	17.62
651.053	-11.38
651.087	-4.38
651.12	25.62
651.153	6.62
651.186	-5.38
651.219	-24.38
651.252	0.62
651.286	-3.38
651.319	-22.38
651.352	-15.38
651.385	-6.38
651.418	7.62
651.451	-1.38
651.484	3.62
651.518	-12.38
651.551	11.62
651.584	19.62
651.617	29.62
651.65	-5.38
651.683	13.62
651.716	8.62
651.749	2.62
651.783	9.62
651.816	1.62
651.849	10.62
651.882	-5.38
651.915	3.62
651.948	-9.38
651.981	5.62
652.014	4.62
652.047	-2.38
652.08	-15.38
652.114	-3.38
652.147	-9.38
652.18	10.62
652.213	24.62
652.246	-7.38
652.279	-13.38
652.312	11.62
652.345	-5.38
652.378	1.62
652.411	7.62
652.444	11.62
652.477	7.62
652.51	11.62
652.543	-7.38
652.576	2.62
652.609	-9.38
652.642	-4.38
652.675	2.62
652.709	-8.38
652.742	18.62
652.775	11.62
652.808	19.62
652.841	1.62
652.874	7.62
652.907	-4.38
652.94	-1.38
652.973	-0.38
653.006	-6.38
653.039	-3.38
653.072	-2.38
653.105	-8.38
653.138	-3.38
653.171	-7.38
653.204	-2.38
653.237	-2.38
653.27	-9.38
653.303	-1.38
653.336	5.62
653.368	13.62
653.401	-4.38
653.434	12.62
653.467	16.62
653.5	-20.38
653.533	-19.38
653.566	-2.38
653.599	-5.38
653.632	-2.38
653.665	-13.38
653.698	-1.38
653.731	1.62
653.764	9.62
653.797	-7.38
653.83	12.62
653.863	-6.38
653.896	2.62
653.929	2.62
653.961	19.62
653.994	-4.38
654.027	-0.38
654.06	15.62
654.093	11.62
654.126	7.62
654.159	-0.38
654.192	-12.38
654.225	0.62
654.258	3.62
654.29	0.62
654.323	18.62
654.356	9.62
654.389	23.62
654.422	-4.38
654.455	12.62
654.488	-0.38
654.521	-18.38
654.553	-8.38
654.586	14.62
654.619	-9.38
654.652	3.62
654.685	18.62
654.718	8.62
654.751	10.62
654.783	-7.38
654.816	16.62
654.849	-0.38
654.882	-10.38
654.915	-12.38
654.948	-8.38
654.98	7.62
655.013	-10.38
655.046	20.62
655.079	1.62
655.112	1.62
655.144	-12.38
655.177	-7.38
655.21	16.62
655.243	9.62
655.276	3.62
655.308	-5.38
655.341	-9.38
655.374	-2.38
655.407	11.62
655.44	-14.38
655.472	12.62
655.505	1.62
655.538	2.62
655.571	7.62
655.603	2.62
655.636	2.62
655.669	11.62
655.702	17.62
655.734	-13.38
655.767	18.62
655.8	27.62
655.833	34.62
655.865	30.62
655.898	36.62
655.931	30.62
655.964	59.62
655.996	57.62
656.029	66.62
656.062	58.62
656.095	58.62
656.127	88.62
656.16	95.62
656.193	124.62
656.225	191.62
656.258	294.62
656.291	522.62
656.324	1139.62
656.356	3339.62
656.389	7566.62
656.422	6118.62
656.454	2104.62
656.487	682.62
656.52	267.62
656.552	129.62
656.585	84.62
656.618	55.62
656.65	42.62
656.683	14.62
656.716	19.62
656.748	-0.38
656.781	-5.38
656.814	13.62
656.846	1.62
656.879	4.62
656.912	0.62
656.944	-8.38
656.977	-13.38
657.01	-2.38
657.042	3.62
657.075	9.62
657.108	5.62
657.14	12.62
657.173	10.62
657.205	23.62
657.238	12.62
657.271	0.62
657.303	4.62
657.336	9.62
657.369	0.62
657.401	-5.38
657.434	9.62
657.466	-5.38
657.499	-8.38
657.532	-14.38
657.564	4.62
657.597	-9.38
657.629	2.62
657.662	2.62
657.694	-7.38
657.727	-9.38
657.76	5.62
657.792	-10.38
657.825	-12.38
657.857	3.62
657.89	-2.38
657.922	4.62
657.955	-26.38
657.987	-3.38
658.02	4.62
658.053	17.62
658.085	7.62
658.118	5.62
658.15	8.62
658.183	-0.38
658.215	-0.38
658.248	0.62
658.28	-3.38
658.313	4.62
658.345	12.62
658.378	-9.38
658.41	-4.38
658.443	7.62
658.475	-12.38
658.508	-4.38
658.54	2.62
658.573	-5.38
658.605	11.62
658.638	-2.38
658.67	12.62
658.703	5.62
658.735	-16.38
658.768	-13.38
658.8	-19.38
658.833	2.62
658.865	-7.38
658.898	5.62
658.93	-4.38
658.963	-15.38
658.995	-14.38
659.028	9.62
659.06	-3.38
659.092	6.62
659.125	5.62
659.157	0.62
659.19	1.62
659.222	-24.38
659.255	-22.38
659.287	-7.38
659.32	6.62
659.352	-1.38
659.384	3.62
659.417	-4.38
659.449	-5.38
659.482	-3.38
659.514	-17.38
659.546	5.62
659.579	-9.38
659.611	1.62
659.644	2.62
659.676	-5.38
659.708	-2.38
659.741	-17.38
659.773	-7.38
659.806	-1.38
659.838	-1.38
659.87	1.62
659.903	-25.38
659.935	8.62
659.967	-1.38
660	1.62
660.032	-15.38
660.065	-6.38
660.097	11.62
660.129	2.62
660.162	-5.38
660.194	1.62
660.226	-4.38
660.259	14.62
660.291	-5.38
660.323	-4.38
660.356	-7.38
660.388	-23.38
660.42	-15.38
660.453	0.62
660.485	11.62
660.517	7.62
660.55	2.62
660.582	-2.38
660.614	17.62
660.647	-17.38
660.679	-25.38
660.711	-1.38
660.743	-9.38
660.776	-19.38
660.808	3.62
660.84	-1.38
660.873	-8.38
660.905	5.62
660.937	-4.38
660.969	0.62
661.002	-1.38
661.034	15.62
661.066	-11.38
661.099	1.62
661.131	24.62
661.163	-2.38
661.195	15.62
661.228	12.62
661.26	0.62
661.292	-0.38
661.324	-6.38
661.357	12.62
661.389	6.62
661.421	-3.38
661.453	4.62
661.485	5.62
661.518	11.62
661.55	-0.38
661.582	-13.38
661.614	-15.38
661.647	2.62
661.679	9.62
661.711	0.62
661.743	-4.38
661.775	-2.38
661.808	20.62
661.84	-1.38
661.872	-1.38
661.904	-6.38
661.936	-4.38
661.969	-22.38
662.001	-10.38
662.033	-2.38
662.065	-17.38
662.097	4.62
662.129	-3.38
662.162	1.62
662.194	12.62
662.226	5.62
662.258	1.62
662.29	6.62
662.322	-10.38
662.355	-18.38
662.387	16.62
662.419	4.62
662.451	5.62
662.483	14.62
662.515	2.62
662.547	15.62
662.58	-4.38
662.612	-25.38
662.644	-11.38
662.676	-6.38
662.708	8.62
662.74	-2.38
662.772	-15.38
662.804	-1.38
662.836	-1.38
662.869	1.62
662.901	-8.38
662.933	-9.38
662.965	5.62
662.997	7.62
663.029	-1.38
663.061	-3.38
663.093	16.62
663.125	7.62
663.157	-8.38
663.189	1.62
663.221	3.62
663.254	-9.38
663.286	5.62
663.318	-7.38
663.35	-9.38
663.382	9.62
663.414	8.62
663.446	-1.38
663.478	-15.38
663.51	21.62
663.542	-13.38
663.574	-3.38
663.606	-12.38
663.638	-16.38
663.67	-4.38
663.702	7.62
663.734	2.62
663.766	3.62
663.798	-1.38
663.83	2.62
663.862	25.62
663.894	9.62
663.926	-2.38
663.958	-1.38
663.99	-14.38
664.022	-9.38
664.054	11.62
664.086	-2.38
664.118	-5.38
664.15	-10.38
664.182	4.62
664.214	-0.38
664.246	2.62
664.278	0.62
664.31	21.62
664.342	-1.38
664.374	-6.38
664.406	-3.38
664.438	-11.38
664.47	20.62
664.502	7.62
664.534	-7.38
664.566	-2.38
664.598	8.62
664.63	-4.38
664.662	3.62
664.693	2.62
664.725	-4.38
664.757	2.62
664.789	-6.38
664.821	-0.38
664.853	8.62
664.885	0.62
664.917	-2.38
664.949	25.62
664.981	19.62
665.013	15.62
665.045	6.62
665.076	-2.38
665.108	-5.38
665.14	-11.38
665.172	8.62
665.204	5.62
665.236	-0.38
665.268	15.62
665.3	10.62
665.331	-5.38
665.363	1.62
665.395	-3.38
665.427	1.62
665.459	22.62
665.491	-4.38
665.523	1.62
665.555	-18.38
665.586	-9.38
665.618	2.62
665.65	1.62
665.682	14.62
665.714	-15.38
665.746	-2.38
665.777	-0.38
665.809	-4.38
665.841	9.62
665.873	-3.38
665.905	5.62
665.937	4.62
665.968	-1.38
666	1.62
666.032	3.62
666.064	-2.38
666.096	4.62
666.127	7.62
666.159	14.62
666.191	8.62
666.223	-4.38
666.255	5.62
666.286	1.62
666.318	3.62
666.35	16.62
666.382	6.62
666.413	0.62
666.445	-17.38
666.477	-15.38
666.509	-10.38
666.54	-15.38
666.572	2.62
666.604	-4.38
666.636	11.62
666.667	12.62
666.699	4.62
666.731	11.62
666.763	2.62
666.794	2.62
666.826	-4.38
666.858	-1.38
666.89	-0.38
666.921	-6.38
666.953	-8.38
666.985	-1.38
667.017	31.62
667.048	-6.38
667.08	-20.38
667.112	-21.38
667.143	-17.38
667.175	18.62
667.207	-7.38
667.238	7.62
667.27	-3.38
667.302	2.62
667.334	1.62
667.365	11.62
667.397	15.62
667.429	-2.38
667.46	12.62
667.492	8.62
667.524	-9.38
667.555	-9.38
667.587	14.62
667.619	5.62
667.65	-5.38
667.682	9.62
667.714	0.62
667.745	-4.38
667.777	-11.38
667.808	17.62
667.84	1.62
667.872	8.62
667.903	26.62
667.935	-2.38
667.967	19.62
667.998	0.62
668.03	-17.38
668.061	17.62
668.093	-13.38
668.125	3.62
668.156	1.62
668.188	-12.38
668.22	-13.38
668.251	5.62
668.283	9.62
668.314	18.62
668.346	-15.38
668.377	8.62
668.409	0.62
668.441	1.62
668.472	-10.38
668.504	-0.38
668.535	-0.38
668.567	4.62
668.599	17.62
668.63	-1.38
668.662	4.62
668.693	23.62
668.725	-0.38
668.756	2.62
668.788	-12.38
668.819	12.62
668.851	14.62
668.882	5.62
668.914	-3.38
668.946	2.62
668.977	3.62
669.009	-3.38
669.04	-27.38
669.072	10.62
669.103	9.62
669.135	2.62
669.166	-7.38
669.198	-9.38
669.229	9.62
669.261	5.62
669.292	-2.38
669.324	8.62
669.355	16.62
669.387	-8.38
669.418	16.62
669.45	-6.38
669.481	13.62
669.513	13.62
669.544	-17.38
669.576	3.62
669.607	6.62
669.639	19.62
669.67	-2.38
669.701	17.62
669.733	-8.38
669.764	12.62
669.796	-0.38
669.827	0.62
669.859	-16.38
669.89	8.62
669.922	10.62
669.953	0.62
669.985	14.62
670.016	0.62
670.047	-6.38
670.079	3.62
670.11	3.62
670.142	-13.38
670.173	5.62
670.204	-1.38
670.236	0.62
670.267	-13.38
670.299	-1.38
670.33	-10.38
670.362	1.62
670.393	-15.38
670.424	5.62
670.456	-13.38
670.487	-6.38
670.518	-0.38
670.55	-1.38
670.581	4.62
670.613	5.62
670.644	-21.38
670.675	-10.38
670.707	-3.38
670.738	3.62
670.769	-1.38
670.801	-4.38
670.832	-1.38
670.864	-18.38
670.895	-13.38
670.926	13.62
670.958	-1.38
670.989	12.62
671.02	3.62
671.052	7.62
671.083	-9.38
671.114	-9.38
671.146	7.62
671.177	3.62
671.208	-11.38
671.24	-11.38
671.271	13.62
671.302	-5.38
671.333	-12.38
671.365	-9.38
671.396	-5.38
671.427	10.62
671.459	14.62
671.49	6.62
671.521	2.62
671.553	6.62
671.584	7.62
671.615	-7.38
671.646	4.62
671.678	-12.38
671.709	-13.38
671.74	-20.38
671.771	-6.38
671.803	-14.38
671.834	5.62
671.865	-15.38
671.896	-1.38
671.928	-7.38
671.959	4.62
671.99	-17.38
672.021	-7.38
672.053	-3.38
672.084	0.62
672.115	5.62
672.146	1.62
672.178	-20.38
672.209	-2.38
672.24	-6.38
672.271	18.62
672.303	7.62
672.334	-1.38
672.365	-1.38
672.396	4.62
672.427	16.62
672.459	15.62
672.49	7.62
672.521	-6.38
672.552	-17.38
672.583	12.62
672.615	-8.38
672.646	4.62
672.677	-3.38
672.708	-0.38
672.739	-12.38
672.77	6.62
672.802	2.62
672.833	10.62
672.864	1.62
672.895	-1.38
672.926	-0.38
672.957	-6.38
672.989	-2.38
673.02	9.62
673.051	2.62
673.082	4.62
673.113	-0.38
673.144	7.62
673.175	5.62
673.206	-2.38
673.238	-9.38
673.269	-13.38
673.3	-1.38
673.331	1.62
673.362	3.62
673.393	-3.38
673.424	23.62
673.455	24.62
673.487	2.62
673.518	7.62
673.549	-5.38
673.58	-3.38
673.611	17.62
673.642	-1.38
673.673	-21.38
673.704	-17.38
673.735	-1.38
673.766	-16.38
673.797	-7.38
673.828	11.62
673.86	-12.38
673.891	-23.38
673.922	0.62
673.953	-2.38
673.984	-7.38
674.015	0.62
674.046	3.62
674.077	8.62
674.108	-16.38
674.139	-2.38
674.17	-6.38
674.201	-12.38
674.232	-13.38
674.263	-13.38
674.294	-5.38
674.325	-15.38
674.356	6.62
674.387	-1.38
674.418	-8.38
674.449	-5.38
674.48	-6.38
674.511	0.62
674.542	-8.38
674.573	-6.38
674.604	11.62
674.635	9.62
674.666	17.62
674.697	-6.38
674.728	5.62
674.759	4.62
674.79	-12.38
674.821	-8.38
674.852	-10.38
674.883	-5.38
674.914	-9.38
674.945	-2.38
674.976	-2.38
675.007	-12.38
675.038	-14.38
675.069	-7.38
675.1	-8.38
675.131	-8.38
675.162	-10.38
675.193	-8.38
675.224	-2.38
675.254	10.62
675.285	0.62
675.316	6.62
675.347	-10.38
675.378	-9.38
675.409	-12.38
675.44	3.62
675.471	-3.38
675.502	-6.38
675.533	-3.38
675.564	-3.38
675.595	-5.38
675.625	20.62
675.656	3.62
675.687	-9.38
675.718	-16.38
675.749	-0.38
675.78	-6.38
675.811	6.62
675.842	6.62
675.873	4.62
675.903	-22.38
675.934	-3.38
675.965	-18.38
675.996	-9.38
676.027	-0.38
676.058	-0.38
676.089	-14.38
676.119	13.62
676.15	-6.38
676.181	-8.38
676.212	-13.38
676.243	6.62
676.274	-7.38
676.304	11.62
676.335	-25.38
676.366	1.62
676.397	-1.38
676.428	-6.38
676.459	3.62
676.489	9.62
676.52	-9.38
676.551	-4.38
676.582	-6.38
676.613	-14.38
676.643	-31.38
676.674	9.62
676.705	5.62
676.736	12.62
676.767	17.62
676.797	21.62
676.828	11.62
676.859	3.62
676.89	-16.38
676.92	11.62
676.951	7.62
676.982	-1.38
677.013	-9.38
677.044	12.62
677.074	-2.38
677.105	-5.38
677.136	2.62
677.167	-8.38
677.197	13.62
677.228	-1.38
677.259	-17.38
677.289	-6.38
677.32	-23.38
677.351	-19.38
677.382	10.62
677.412	1.62
677.443	19.62
677.474	1.62
677.505	-13.38
677.535	-18.38
677.566	-9.38
677.597	-6.38
677.627	1.62
677.658	-7.38
677.689	-13.38
677.72	-4.38
677.75	-13.38
677.781	-1.38
677.812	5.62
677.842	6.62
677.873	8.62
677.904	-0.38
677.934	-4.38
677.965	-14.38
677.996	-21.38
678.026	-0.38
678.057	0.62
678.088	-8.38
678.118	3.62
678.149	2.62
678.18	-11.38
678.21	-4.38
678.241	-0.38
678.272	-1.38
678.302	1.62
678.333	9.62
678.363	8.62
678.394	5.62
678.425	-6.38
678.455	-4.38
678.486	7.62
678.517	-2.38
678.547	-4.38
678.578	0.62
678.608	-16.38
678.639	3.62
678.67	2.62
678.7	-16.38
678.731	-21.38
678.761	-8.38
678.792	-7.38
678.823	11.62
678.853	-5.38
678.884	-21.38
678.914	12.62
678.945	7.62
678.975	-11.38
679.006	8.62
679.037	0.62
679.067	4.62
679.098	-4.38
679.128	-8.38
679.159	-0.38
679.189	10.62
679.22	-13.38
679.25	3.62
679.281	-1.38
679.312	-11.38
679.342	12.62
679.373	15.62
679.403	-3.38
679.434	3.62
679.464	-3.38
679.495	1.62
679.525	-11.38
679.556	5.62
679.586	5.62
679.617	-12.38
679.647	-17.38
679.678	-5.38
679.708	3.62
679.739	-0.38
679.769	0.62
679.8	1.62
679.83	-11.38
679.861	-11.38
679.891	-6.38
679.922	-14.38
679.952	-6.38
679.983	-5.38
680.013	-1.38
680.044	-9.38
680.074	-0.38
680.105	10.62
680.135	2.62
680.165	22.62
680.196	6.62
680.226	5.62
680.257	5.62
680.287	-5.38
680.318	-8.38
680.348	-11.38
680.379	6.62
680.409	-9.38
680.439	5.62
680.47	-2.38
680.5	-5.38
680.531	-2.38
680.561	7.62
680.592	-0.38
680.622	11.62
680.652	7.62
680.683	15.62
680.713	-1.38
680.744	-6.38
680.774	5.62
680.804	10.62
680.835	-11.38
680.865	-21.38
680.896	16.62
680.926	17.62
680.956	-12.38
680.987	-1.38
681.017	-17.38
681.047	-1.38
681.078	-13.38
681.108	-12.38
681.139	-9.38
681.169	3.62
681.199	-5.38
681.23	15.62
681.26	3.62
681.29	-3.38
681.321	-12.38
681.351	3.62
681.381	-4.38
681.412	-5.38
681.442	4.62
681.472	17.62
681.503	-1.38
681.533	-15.38
681.563	1.62
681.594	1.62
681.624	19.62
681.654	-2.38
681.685	-5.38
681.715	-5.38
681.745	-14.38
681.775	-9.38
681.806	-5.38
681.836	-8.38
681.866	-0.38
681.897	8.62
681.927	3.62
681.957	-14.38
681.987	3.62
682.018	3.62
682.048	20.62
682.078	3.62
682.109	13.62
682.139	7.62
682.169	2.62
682.199	-6.38
682.23	-14.38
682.26	-0.38
682.29	-12.38
682.32	-7.38
682.351	-9.38
682.381	-5.38
682.411	-8.38
682.441	-2.38
682.472	-9.38
682.502	-4.38
682.532	-8.38
682.562	-7.38
682.592	-0.38
682.623	7.62
682.653	8.62
682.683	-4.38
682.713	-8.38
682.743	-0.38
682.774	3.62
682.804	-14.38
682.834	4.62
682.864	-18.38
682.894	-12.38
682.925	-1.38
682.955	-5.38
682.985	-11.38
683.015	-4.38
683.045	0.62
683.076	-9.38
683.106	-2.38
683.136	-10.38
683.166	-7.38
683.196	2.62
683.226	-16.38
683.257	-2.38
683.287	-1.38
683.317	-9.38
683.347	-22.38
683.377	0.62
683.407	5.62
683.437	1.62
683.468	10.62
683.498	-12.38
683.528	-2.38
683.558	2.62
683.588	-5.38
683.618	4.62
683.648	3.62
683.678	-3.38
683.708	13.62
683.739	-0.38
683.769	-3.38
683.799	0.62
683.829	-13.38
683.859	6.62
683.889	-6.38
683.919	-0.38
683.949	2.62
683.979	13.62
684.009	-9.38
684.039	2.62
684.07	-0.38
684.1	18.62
684.13	3.62
684.16	3.62
684.19	-16.38
684.22	-0.38
684.25	15.62
684.28	-0.38
684.31	16.62
684.34	-3.38
684.37	-0.38
684.4	-1.38
684.43	5.62
684.46	-16.38
684.49	13.62
684.52	-5.38
684.55	10.62
684.58	10.62
684.61	-2.38
684.64	11.62
684.67	11.62
684.7	-0.38
684.73	20.62
684.76	-7.38
684.79	15.62
684.82	7.62
684.85	-14.38
684.88	0.62
684.91	-1.38
684.94	-8.38
684.97	-23.38
685	-26.38
685.03	-14.38
685.06	-2.38
685.09	-7.38
685.12	18.62
685.15	-4.38
685.18	0.62
685.21	-3.38
685.24	18.62
685.27	10.62
685.3	-9.38
685.33	2.62
685.36	-10.38
685.39	0.62
685.42	-2.38
685.45	-10.38
685.48	0.62
685.51	-2.38
685.54	0.62
685.569	-0.38
685.599	3.62
685.629	14.62
685.659	0.62
685.689	2.62
685.719	-5.38
685.749	-16.38
685.779	5.62
685.809	13.62
685.839	10.62
685.869	-0.38
685.898	6.62
685.928	6.62
685.958	9.62
685.988	11.62
686.018	0.62
686.048	1.62
686.078	30.62
686.108	7.62
686.137	-4.38
686.167	9.62
686.197	-19.38
686.227	-0.38
686.257	18.62
686.287	-6.38
686.317	0.62
686.346	6.62
686.376	-0.38
686.406	5.62
686.436	18.62
686.466	-4.38
686.496	-9.38
686.525	-7.38
686.555	-9.38
686.585	10.62
686.615	24.62
686.645	13.62
686.675	-2.38
686.704	0.62
686.734	18.62
686.764	1.62
686.794	-3.38
686.824	-22.38
686.853	1.62
686.883	2.62
686.913	18.62
686.943	3.62
686.973	-8.38
687.002	-3.38
687.032	-4.38
687.062	1.62
687.092	16.62
687.121	0.62
687.151	4.62
687.181	-11.38
687.211	4.62
687.24	14.62
687.27	3.62
687.3	-1.38
687.33	-3.38
687.359	-19.38
687.389	1.62
687.419	21.62
687.449	-0.38
687.478	3.62
687.508	11.62
687.538	4.62
687.568	8.62
687.597	-3.38
687.627	4.62
687.657	-10.38
687.686	-7.38
687.716	17.62
687.746	-6.38
687.776	-10.38
687.805	10.62
687.835	2.62
687.865	9.62
687.894	13.62
687.924	11.62
687.954	0.62
687.983	3.62
688.013	5.62
688.043	11.62
688.072	1.62
688.102	6.62
688.132	14.62
688.161	-1.38
688.191	-3.38
688.221	32.62
688.25	-12.38
688.28	-5.38
688.31	-11.38
688.339	-2.38
688.369	-24.38
688.399	0.62
688.428	-0.38
688.458	-0.38
688.488	0.62
688.517	8.62
688.547	-7.38
688.576	25.62
688.606	5.62
688.636	-13.38
688.665	10.62
688.695	6.62
688.725	12.62
688.754	13.62
688.784	3.62
688.813	30.62
688.843	-9.38
688.873	-1.38
688.902	-3.38
688.932	3.62
688.961	2.62
688.991	9.62
689.02	17.62
689.05	-8.38
689.08	1.62
689.109	18.62
689.139	-2.38
689.168	7.62
689.198	-0.38
689.227	-6.38
689.257	0.62
689.287	5.62
689.316	-0.38
689.346	-6.38
689.375	-3.38
689.405	0.62
689.434	3.62
689.464	7.62
689.493	-11.38
689.523	-13.38
689.552	-13.38
689.582	3.62
689.611	-2.38
689.641	2.62
689.67	-7.38
689.7	2.62
689.73	1.62
689.759	14.62
689.789	22.62
689.818	9.62
689.848	6.62
689.877	6.62
689.906	1.62
689.936	-13.38
689.965	-5.38
689.995	1.62
690.024	6.62
690.054	-7.38
690.083	-9.38
690.113	10.62
690.142	-8.38
690.172	-0.38
690.201	0.62
690.231	12.62
690.26	20.62
690.29	10.62
690.319	29.62
690.348	8.62
690.378	-0.38
690.407	3.62
690.437	-0.38
690.466	2.62
690.496	3.62
690.525	8.62
690.555	0.62
690.584	-0.38
690.613	0.62
690.643	-5.38
690.672	21.62
690.702	6.62
690.731	2.62
690.76	5.62
690.79	-2.38
690.819	-7.38
690.849	-0.38
690.878	3.62
690.907	2.62
690.937	24.62
690.966	26.62
690.996	9.62
691.025	-4.38
691.054	-9.38
691.084	-4.38
691.113	1.62
691.142	-3.38
691.172	2.62
691.201	16.62
691.23	4.62
691.26	12.62
691.289	0.62
691.319	-16.38
691.348	2.62
691.377	23.62
691.407	2.62
691.436	6.62
691.465	21.62
691.495	0.62
691.524	-9.38
691.553	10.62
691.583	7.62
691.612	7.62
691.641	6.62
691.67	5.62
691.7	15.62
691.729	-2.38
691.758	10.62
691.788	-0.38
691.817	4.62
691.846	10.62
691.876	-4.38
691.905	-2.38
691.934	-1.38
691.963	27.62
691.993	-0.38
692.022	-6.38
692.051	-3.38
692.081	3.62
692.11	9.62
692.139	4.62
692.168	1.62
692.198	14.62
692.227	6.62
692.256	2.62
692.285	-0.38
692.315	-1.38
692.344	3.62
692.373	13.62
692.402	-21.38
692.432	-16.38
692.461	-4.38
692.49	1.62
692.519	0.62
692.548	14.62
692.578	11.62
692.607	-5.38
692.636	-15.38
692.665	5.62
692.694	-2.38
692.724	3.62
692.753	-6.38
692.782	16.62
692.811	-7.38
692.84	0.62
692.87	-1.38
692.899	5.62
692.928	-8.38
692.957	-0.38
692.986	-2.38
693.016	6.62
693.045	-8.38
693.074	-0.38
693.103	-11.38
693.132	-1.38
693.161	-2.38
693.191	-2.38
693.22	1.62
693.249	-6.38
693.278	-13.38
693.307	7.62
693.336	-21.38
693.365	-13.38
693.395	-12.38
693.424	1.62
693.453	7.62
693.482	-5.38
693.511	10.62
693.54	4.62
693.569	12.62
693.598	10.62
693.628	3.62
693.657	2.62
693.686	17.62
693.715	32.62
693.744	5.62
693.773	7.62
693.802	21.62
693.831	-4.38
693.86	16.62
693.889	-23.38
693.919	-3.38
693.948	-0.38
693.977	8.62
694.006	6.62
694.035	-2.38
694.064	2.62
694.093	-0.38
694.122	-0.38
694.151	-2.38
694.18	0.62
694.209	18.62
694.238	8.62
694.267	23.62
694.296	12.62
694.325	-0.38
694.354	21.62
694.383	7.62
694.412	-1.38
694.441	1.62
694.471	-9.38
694.5	-18.38
694.529	3.62
694.558	22.62
694.587	13.62
694.616	2.62
694.645	-4.38
694.674	9.62
694.703	9.62
694.732	-8.38
694.761	7.62
694.79	9.62
694.819	-6.38
694.848	-2.38
694.877	16.62
694.906	2.62
694.935	-4.38
694.963	9.62
694.992	-0.38
695.021	-1.38
695.05	2.62
695.079	8.62
695.108	2.62
695.137	19.62
695.166	6.62
695.195	-21.38
695.224	-5.38
695.253	6.62
695.282	-7.38
695.311	2.62
695.34	-18.38
695.369	-3.38
695.398	-2.38
695.427	14.62
695.456	2.62
695.485	13.62
695.513	4.62
695.542	0.62
695.571	-7.38
695.6	1.62
695.629	8.62
695.658	21.62
695.687	2.62
695.716	-11.38
695.745	14.62
695.774	-5.38
695.802	3.62
695.831	8.62
695.86	14.62
695.889	13.62
695.918	1.62
695.947	9.62
695.976	21.62
696.005	-0.38
696.033	4.62
696.062	16.62
696.091	-4.38
696.12	16.62
696.149	11.62
696.178	-0.38
696.207	3.62
696.235	-8.38
696.264	-1.38
696.293	-4.38
696.322	5.62
696.351	16.62
696.38	-0.38
696.408	11.62
696.437	19.62
696.466	8.62
696.495	6.62
696.524	13.62
696.553	-0.38
696.581	7.62
696.61	5.62
696.639	1.62
696.668	4.62
696.697	-0.38
696.725	2.62
696.754	-5.38
696.783	-7.38
696.812	-9.38
696.84	13.62
696.869	-4.38
696.898	4.62
696.927	7.62
696.956	18.62
696.984	5.62
697.013	-12.38
697.042	-3.38
697.071	3.62
697.099	1.62
697.128	-0.38
697.157	2.62
697.186	-2.38
697.214	0.62
697.243	9.62
697.272	1.62
697.301	-3.38
697.329	10.62
697.358	-4.38
697.387	21.62
697.415	17.62
697.444	18.62
697.473	-9.38
697.502	-6.38
697.53	6.62
697.559	-5.38
697.588	4.62
697.616	-8.38
697.645	-3.38
697.674	10.62
697.703	4.62
697.731	10.62
697.76	1.62
697.789	-9.38
697.817	8.62
697.846	13.62
697.875	8.62
697.903	23.62
697.932	6.62
697.961	-6.38
697.989	4.62
698.018	4.62
698.047	2.62
698.075	3.62
698.104	0.62
698.133	2.62
698.161	4.62
698.19	-5.38
698.218	-0.38
698.247	-5.38
698.276	-9.38
698.304	13.62
698.333	25.62
698.362	2.62
698.39	17.62
698.419	6.62
698.447	-7.38
698.476	8.62
698.505	1.62
698.533	-2.38
698.562	-4.38
698.591	-1.38
698.619	-22.38
698.648	0.62
698.676	-2.38
698.705	1.62
698.733	-15.38
698.762	1.62
698.791	-1.38
698.819	-1.38
698.848	23.62
698.876	14.62
698.905	0.62
698.933	-0.38
698.962	-5.38
698.991	6.62
699.019	29.62
699.048	8.62
699.076	12.62
699.105	-9.38
699.133	-10.38
699.162	16.62
699.19	13.62
699.219	-9.38
699.248	9.62
699.276	-6.38
699.305	-13.38
699.333	6.62
699.362	9.62
699.39	16.62
699.419	-8.38
699.447	12.62
699.476	20.62
699.504	-6.38
699.533	-0.38
699.561	-25.38
699.59	-4.38
699.618	-3.38
699.647	5.62
699.675	-6.38
699.704	23.62
699.732	-3.38
699.761	19.62
699.789	-9.38
699.818	-1.38
699.846	0.62
699.874	-15.38
699.903	-6.38
699.931	1.62
699.96	6.62
699.988	0.62
700.017	-9.38
700.045	-10.38
700.074	5.62
700.102	-0.38
700.13	-6.38
700.159	2.62
700.187	-20.38
700.216	-1.38
700.244	3.62
700.273	10.62
700.301	8.62
700.329	-1.38
700.358	12.62
700.386	10.62
700.415	-12.38
700.443	-11.38
700.472	-8.38
700.5	5.62
700.528	1.62
700.557	-12.38
700.585	-17.38
700.614	-2.38
700.642	7.62
700.67	17.62
700.699	7.62
700.727	8.62
700.755	14.62
700.784	9.62
700.812	10.62
700.841	5.62
700.869	6.62
700.897	-6.38
700.926	-1.38
700.954	19.62
700.982	6.62
701.011	-5.38
701.039	5.62
701.067	5.62
701.096	14.62
701.124	0.62
701.152	-8.38
701.181	-1.38
701.209	-2.38
701.237	-7.38
701.266	-13.38
701.294	-6.38
701.322	-4.38
701.351	7.62
701.379	-0.38
701.407	-28.38
701.435	0.62
701.464	16.62
701.492	21.62
701.52	1.62
701.549	8.62
701.577	-9.38
701.605	-6.38
701.634	1.62
701.662	13.62
701.69	-4.38
701.718	-14.38
701.747	4.62
701.775	14.62
701.803	0.62
701.831	5.62
701.86	-1.38
701.888	18.62
701.916	6.62
701.944	-2.38
701.973	-1.38
702.001	-9.38
702.029	-0.38
702.057	-18.38
702.086	-18.38
702.114	-21.38
702.142	-12.38
702.17	-14.38
702.199	-12.38
702.227	-6.38
702.255	-3.38
702.283	-7.38
702.311	16.62
702.34	12.62
702.368	-7.38
702.396	-2.38
702.424	5.62
702.452	0.62
702.481	-0.38
702.509	1.62
702.537	4.62
702.565	4.62
702.593	-8.38
702.621	-12.38
702.65	5.62
702.678	-3.38
702.706	-0.38
702.734	-10.38
702.762	-6.38
702.79	-9.38
702.819	-0.38
702.847	2.62
702.875	7.62
702.903	2.62
702.931	-12.38
702.959	-2.38
702.988	4.62
703.016	-20.38
703.044	3.62
703.072	-5.38
703.1	-2.38
703.128	7.62
703.156	-1.38
703.184	-15.38
703.212	3.62
703.241	-0.38
703.269	11.62
703.297	-5.38
703.325	-5.38
703.353	-1.38
703.381	-6.38
703.409	8.62
703.437	-7.38
703.465	-4.38
703.493	-17.38
703.522	8.62
703.55	1.62
703.578	4.62
703.606	5.62
703.634	-6.38
703.662	-11.38
703.69	-8.38
703.718	-5.38
703.746	17.62
703.774	-1.38
703.802	15.62
703.83	-8.38
703.858	5.62
703.886	-8.38
703.914	-5.38
703.942	6.62
703.97	-17.38
703.998	1.62
704.027	25.62
704.055	4.62
704.083	-5.38
704.111	-2.38
704.139	-8.38
704.167	-5.38
704.195	3.62
704.223	3.62
704.251	-16.38
704.279	-2.38
704.307	-2.38
704.335	-4.38
704.363	-9.38
704.391	1.62
704.419	5.62
704.447	-1.38
704.475	0.62
704.503	-2.38
704.531	6.62
704.558	8.62
704.586	3.62
704.614	-8.38
704.642	-4.38
704.67	-13.38
704.698	-5.38
704.726	0.62
704.754	-2.38
704.782	-1.38
704.81	-16.38
704.838	19.62
704.866	-2.38
704.894	-13.38
704.922	-10.38
704.95	-10.38
704.978	-0.38
705.006	-9.38
705.034	12.62
705.061	-5.38
705.089	-0.38
705.117	-25.38
705.145	-7.38
705.173	-13.38
705.201	13.62
705.229	3.62
705.257	0.62
705.285	-1.38
705.313	0.62
705.34	-4.38
705.368	-7.38
705.396	11.62
705.424	5.62
705.452	-20.38
705.48	-1.38
705.508	-2.38
705.536	1.62
705.563	1.62
705.591	10.62
705.619	6.62
705.647	-5.38
705.675	-4.38
705.703	-7.38
705.731	-6.38
705.758	0.62
705.786	-5.38
705.814	7.62
705.842	5.62
705.87	-1.38
705.898	10.62
705.925	-7.38
705.953	3.62
705.981	3.62
706.009	-17.38
706.037	10.62
706.065	7.62
706.092	-18.38
706.12	1.62
706.148	-14.38
706.176	-6.38
706.204	14.62
706.231	-1.38
706.259	-0.38
706.287	-5.38
706.315	-5.38
706.342	5.62
706.37	8.62
706.398	2.62
706.426	-1.38
706.454	-4.38
706.481	17.62
706.509	-4.38
706.537	5.62
706.565	-17.38
706.592	-4.38
706.62	-2.38
706.648	-2.38
706.676	-1.38
706.703	-6.38
706.731	-14.38
706.759	-12.38
706.787	19.62
706.814	9.62
706.842	-4.38
706.87	11.62
706.897	9.62
706.925	6.62
706.953	7.62
706.981	16.62
707.008	0.62
707.036	-1.38
707.064	-8.38
707.091	-19.38
707.119	2.62
707.147	-3.38
707.174	-22.38
707.202	-2.38
707.23	-11.38
707.258	7.62
707.285	-12.38
707.313	10.62
707.341	-6.38
707.368	-3.38
707.396	-5.38
707.424	-1.38
707.451	15.62
707.479	-0.38
707.507	5.62
707.534	-4.38
707.562	-4.38
707.59	-4.38
707.617	-13.38
707.645	-17.38
707.672	-1.38
707.7	5.62
707.728	6.62
707.755	-1.38
707.783	6.62
707.811	-1.38
707.838	-2.38
707.866	4.62
707.893	0.62
707.921	-8.38
707.949	-18.38
707.976	-4.38
708.004	-5.38
708.031	-14.38
708.059	-15.38
708.087	4.62
708.114	10.62
708.142	-4.38
708.169	-1.38
708.197	-13.38
708.225	-13.38
708.252	-17.38
708.28	1.62
708.307	-7.38
708.335	8.62
708.362	2.62
708.39	-20.38
708.418	-8.38
708.445	-15.38
708.473	-23.38
708.5	-11.38
708.528	-6.38
708.555	-9.38
708.583	-15.38
708.61	-12.38
708.638	2.62
708.665	-7.38
708.693	-6.38
708.72	-9.38
708.748	-7.38
708.776	-4.38
708.803	5.62
708.831	13.62
708.858	22.62
708.886	-5.38
708.913	-4.38
708.941	-16.38
708.968	7.62
708.996	-6.38
709.023	21.62
709.051	-10.38
709.078	-8.38
709.105	-2.38
709.133	-5.38
709.16	-5.38
709.188	2.62
709.215	-1.38
709.243	1.62
709.27	-13.38
709.298	-5.38
709.325	-1.38
709.353	0.62
709.38	-4.38
709.408	-6.38
709.435	2.62
709.462	-13.38
709.49	-9.38
709.517	9.62
709.545	-9.38
709.572	-5.38
709.6	8.62
709.627	0.62
709.655	-12.38
709.682	-8.38
709.709	-4.38
709.737	-1.38
709.764	-10.38
709.792	7.62
709.819	11.62
709.846	-12.38
709.874	3.62
709.901	6.62
709.929	24.62
709.956	2.62
709.983	-8.38
710.011	-17.38
710.038	-11.38
710.066	-16.38
710.093	-5.38
710.12	5.62
710.148	-4.38
710.175	-5.38
710.202	-10.38
710.23	-4.38
710.257	-4.38
710.284	7.62
710.312	-0.38
710.339	-8.38
710.366	-5.38
710.394	-5.38
710.421	2.62
710.448	2.62
710.476	-9.38
710.503	-6.38
710.53	12.62
710.558	18.62
710.585	8.62
710.612	0.62
710.64	1.62
710.667	11.62
710.694	-4.38
710.722	-8.38
710.749	9.62
710.776	-7.38
710.804	5.62
710.831	-13.38
710.858	-15.38
710.885	-7.38
710.913	1.62
710.94	21.62
710.967	-4.38
710.995	-3.38
711.022	-5.38
711.049	10.62
711.076	-8.38
711.104	11.62
711.131	-27.38
711.158	-6.38
711.185	6.62
711.213	-23.38
711.24	-20.38
711.267	-12.38
711.294	-8.38
711.322	14.62
711.349	-7.38
711.376	-0.38
711.403	-7.38
711.431	-0.38
711.458	-1.38
711.485	8.62
711.512	-0.38
711.54	0.62
711.567	-8.38
711.594	-3.38
711.621	-2.38
711.648	6.62
711.676	-2.38
711.703	2.62
711.73	-6.38
711.757	4.62
711.784	3.62
711.812	-11.38
711.839	9.62
711.866	-10.38
711.893	-20.38
711.92	-1.38
711.947	3.62
711.975	5.62
712.002	-4.38
712.029	3.62
712.056	4.62
712.083	5.62
712.11	-15.38
712.138	3.62
712.165	-0.38
712.192	-6.38
712.219	-7.38
712.246	-14.38
712.273	3.62
712.3	0.62
712.328	-1.38
712.355	4.62
712.382	8.62
712.409	18.62
712.436	0.62
712.463	-3.38
712.49	11.62
712.517	8.62
712.544	-3.38
712.572	-3.38
712.599	-1.38
712.626	15.62
712.653	17.62
712.68	-1.38
712.707	4.62
712.734	2.62
712.761	-3.38
712.788	18.62
712.815	12.62
712.842	20.62
712.87	-5.38
712.897	-6.38
712.924	-11.38
712.951	6.62
712.978	18.62
713.005	6.62
713.032	25.62
713.059	-0.38
713.086	-9.38
713.113	-6.38
713.14	-12.38
713.167	-2.38
713.194	17.62
713.221	-5.38
713.248	5.62
713.275	-2.38
713.302	-12.38
713.329	7.62
713.356	6.62
713.383	-8.38
713.41	5.62
713.437	-9.38
713.464	5.62
713.491	16.62
713.518	1.62
713.545	-13.38
713.572	3.62
713.599	9.62
713.626	9.62
713.653	3.62
713.68	-9.38
713.707	-4.38
713.734	-6.38
713.761	-0.38
713.788	-4.38
713.815	4.62
713.842	1.62
713.869	-7.38
713.896	-4.38
713.923	5.62
713.95	5.62
713.977	-3.38
714.004	-5.38
714.031	-10.38
714.058	-5.38
714.085	-10.38
714.112	7.62
714.139	-5.38
714.165	-6.38
714.192	-19.38
714.219	-0.38
714.246	20.62
714.273	-4.38
714.3	-7.38
714.327	2.62
714.354	17.62
714.381	-8.38
714.408	14.62
714.435	-6.38
714.461	-4.38
714.488	9.62
714.515	-12.38
714.542	-8.38
714.569	-13.38
714.596	-2.38
714.623	-7.38
714.65	-6.38
714.677	2.62
714.703	-1.38
714.73	-13.38
714.757	7.62
714.784	7.62
714.811	-6.38
714.838	6.62
714.865	-8.38
714.891	9.62
714.918	6.62
714.945	-9.38
714.972	-7.38
714.999	12.62
715.026	-17.38
715.052	-0.38
715.079	-10.38
715.106	9.62
715.133	-3.38
715.16	-1.38
715.187	18.62
715.213	9.62
715.24	-17.38
715.267	8.62
715.294	2.62
715.321	-1.38
715.347	-2.38
715.374	-13.38
715.401	2.62
715.428	-4.38
715.455	1.62
715.481	-5.38
715.508	-4.38
715.535	-10.38
715.562	23.62
715.588	-1.38
715.615	7.62
715.642	-5.38
715.669	14.62
715.695	1.62
715.722	-7.38
715.749	5.62
715.776	14.62
715.802	5.62
715.829	6.62
715.856	-11.38
715.883	2.62
715.909	-9.38
715.936	0.62
715.963	-4.38
715.99	-17.38
716.016	-7.38
716.043	0.62
716.07	3.62
716.096	-12.38
716.123	2.62
716.15	2.62
716.177	17.62
716.203	3.62
716.23	17.62
716.257	-7.38
716.283	3.62
716.31	-6.38
716.337	1.62
716.363	-0.38
716.39	11.62
716.417	10.62
716.443	-15.38
716.47	9.62
716.497	17.62
716.523	7.62
716.55	-4.38
716.577	9.62
716.603	-6.38
716.63	19.62
716.657	21.62
716.683	0.62
716.71	9.62
716.737	11.62
716.763	-8.38
716.79	1.62
716.817	11.62
716.843	4.62
716.87	5.62
716.897	7.62
716.923	28.62
716.95	-6.38
716.976	-4.38
717.003	3.62
717.03	4.62
717.056	6.62
717.083	-3.38
717.109	12.62
717.136	24.62
717.163	8.62
717.189	4.62
717.216	13.62
717.242	6.62
717.269	5.62
717.296	3.62
717.322	8.62
717.349	10.62
717.375	-8.38
717.402	-5.38
717.428	6.62
717.455	8.62
717.481	1.62
717.508	14.62
717.535	-3.38
717.561	2.62
717.588	6.62
717.614	-3.38
717.641	1.62
717.667	12.62
717.694	9.62
717.72	-2.38
717.747	12.62
717.773	-9.38
717.8	14.62
717.826	-5.38
717.853	3.62
717.88	13.62
717.906	12.62
717.933	0.62
717.959	1.62
717.986	8.62
718.012	-0.38
718.039	13.62
718.065	26.62
718.092	10.62
718.118	-8.38
718.144	5.62
718.171	8.62
718.197	30.62
718.224	4.62
718.25	15.62
718.277	0.62
718.303	7.62
718.33	-4.38
718.356	-12.38
718.383	-12.38
718.409	8.62
718.436	-4.38
718.462	-0.38
718.489	-5.38
718.515	13.62
718.541	25.62
718.568	14.62
718.594	10.62
718.621	3.62
718.647	-6.38
718.674	6.62
718.7	9.62
718.726	-16.38
718.753	0.62
718.779	-5.38
718.806	-11.38
718.832	-2.38
718.858	10.62
718.885	-2.38
718.911	-1.38
718.938	4.62
718.964	-7.38
718.99	-1.38
719.017	-13.38
719.043	-2.38
719.07	19.62
719.096	-0.38
719.122	12.62
719.149	-1.38
719.175	-6.38
719.201	6.62
719.228	0.62
719.254	-1.38
719.281	2.62
719.307	-0.38
719.333	1.62
719.36	4.62
719.386	0.62
719.412	-11.38
719.439	-13.38
719.465	4.62
719.491	-9.38
719.518	5.62
719.544	9.62
719.57	3.62
719.597	7.62
719.623	1.62
719.649	19.62
719.675	-13.38
719.702	-0.38
719.728	3.62
719.754	-2.38
719.781	-1.38
719.807	-7.38
719.833	2.62
719.86	8.62
719.886	-1.38
719.912	-2.38
719.938	-10.38
719.965	8.62
719.991	13.62
720.017	3.62
720.044	-8.38
720.07	15.62
720.096	0.62
720.122	-8.38
720.149	5.62
720.175	23.62
720.201	0.62
720.227	6.62
720.254	-10.38
720.28	1.62
720.306	-5.38
720.332	3.62
720.359	10.62
720.385	3.62
720.411	-16.38
720.437	2.62
720.463	0.62
720.49	3.62
720.516	-10.38
720.542	-15.38
720.568	-4.38
720.595	16.62
720.621	13.62
720.647	5.62
720.673	7.62
720.699	-16.38
720.725	-13.38
720.752	-2.38
720.778	-0.38
720.804	8.62
720.83	12.62
720.856	13.62
720.883	-6.38
720.909	-5.38
720.935	9.62
720.961	17.62
720.987	3.62
721.013	-2.38
721.04	4.62
721.066	2.62
721.092	-14.38
721.118	3.62
721.144	1.62
721.17	5.62
721.196	-5.38
721.223	-16.38
721.249	-4.38
721.275	22.62
721.301	0.62
721.327	7.62
721.353	5.62
721.379	-8.38
721.405	-4.38
721.432	10.62
721.458	6.62
721.484	-4.38
721.51	-11.38
721.536	-4.38
721.562	1.62
721.588	-0.38
721.614	-5.38
721.64	-5.38
721.666	-5.38
721.693	-7.38
721.719	-7.38
721.745	-9.38
721.771	-18.38
721.797	-6.38
721.823	6.62
721.849	15.62
721.875	7.62
721.901	0.62
721.927	1.62
721.953	-1.38
721.979	8.62
722.005	12.62
722.031	-4.38
722.057	-2.38
722.083	7.62
722.109	10.62
722.135	4.62
722.161	6.62
722.187	-4.38
722.214	0.62
722.24	-11.38
722.266	-19.38
722.292	-9.38
722.318	12.62
722.344	7.62
722.37	13.62
722.396	6.62
722.422	-11.38
722.448	-1.38
722.474	-17.38
722.5	5.62
722.526	-1.38
722.552	-5.38
722.578	6.62
722.603	0.62
722.629	-9.38
722.655	-15.38
722.681	-12.38
722.707	2.62
722.733	-7.38
722.759	-0.38
722.785	-7.38
722.811	-1.38
722.837	11.62
722.863	0.62
722.889	1.62
722.915	2.62
722.941	-9.38
722.967	-4.38
722.993	11.62
723.019	10.62
723.045	2.62
723.071	-2.38
723.097	-8.38
723.122	-14.38
723.148	-6.38
723.174	-1.38
723.2	-4.38
723.226	-15.38
723.252	-6.38
723.278	-6.38
723.304	-9.38
723.33	13.62
723.356	-7.38
723.381	-7.38
723.407	-36.38
723.433	-1.38
723.459	-18.38
723.485	-11.38
723.511	5.62
723.537	-10.38
723.563	7.62
723.588	6.62
723.614	-0.38
723.64	7.62
723.666	6.62
723.692	10.62
723.718	-2.38
723.744	-3.38
723.769	3.62
723.795	8.62
723.821	-0.38
723.847	-1.38
723.873	-11.38
723.899	-0.38
723.924	4.62
723.95	-0.38
723.976	-7.38
724.002	-16.38
724.028	11.62
724.053	-13.38
724.079	-4.38
724.105	-12.38
724.131	4.62
724.157	1.62
724.182	-6.38
724.208	-1.38
724.234	-2.38
724.26	-10.38
724.286	7.62
724.311	-1.38
724.337	-10.38
724.363	-16.38
724.389	0.62
724.415	-5.38
724.44	11.62
724.466	-2.38
724.492	-11.38
724.518	1.62
724.543	1.62
724.569	6.62
724.595	-1.38
724.621	-10.38
724.646	-14.38
724.672	-12.38
724.698	-18.38
724.723	7.62
724.749	6.62
724.775	10.62
724.801	-10.38
724.826	4.62
724.852	-7.38
724.878	-12.38
724.904	-18.38
724.929	7.62
724.955	-24.38
724.981	-7.38
725.006	-10.38
725.032	2.62
725.058	-0.38
725.083	-4.38
725.109	1.62
725.135	-1.38
725.161	1.62
725.186	-11.38
725.212	-7.38
725.238	8.62
725.263	-5.38
725.289	-33.38
725.315	-15.38
725.34	-7.38
725.366	5.62
725.392	4.62
725.417	1.62
725.443	-11.38
725.468	17.62
725.494	-2.38
725.52	0.62
725.545	-8.38
725.571	-0.38
725.597	9.62
725.622	-4.38
725.648	-0.38
725.674	10.62
725.699	12.62
725.725	-1.38
725.75	12.62
725.776	6.62
725.802	-4.38
725.827	17.62
725.853	-4.38
725.878	5.62
725.904	-6.38
725.93	-8.38
725.955	-17.38
725.981	-2.38
726.006	-17.38
726.032	6.62
726.057	-11.38
726.083	-0.38
726.109	-2.38
726.134	17.62
726.16	-13.38
726.185	-6.38
726.211	-7.38
726.236	-9.38
726.262	1.62
726.288	12.62
726.313	-1.38
726.339	-2.38
726.364	-6.38
726.39	-1.38
726.415	-15.38
726.441	-4.38
726.466	4.62
726.492	-8.38
726.517	-6.38
726.543	1.62
726.568	-4.38
726.594	-18.38
726.619	2.62
726.645	9.62
726.67	-7.38
726.696	-5.38
726.721	-2.38
726.747	-14.38
726.772	1.62
726.798	-2.38
726.823	6.62
726.849	-3.38
726.874	-4.38
726.9	16.62
726.925	3.62
726.951	5.62
726.976	3.62
727.002	-14.38
727.027	1.62
727.053	12.62
727.078	-6.38
727.104	-2.38
727.129	-10.38
727.155	-7.38
727.18	4.62
727.205	9.62
727.231	-15.38
727.256	-7.38
727.282	8.62
727.307	-7.38
727.333	-4.38
727.358	-10.38
727.383	-16.38
727.409	-24.38
727.434	-2.38
727.46	-6.38
727.485	-3.38
727.511	-6.38
727.536	-26.38
727.561	-13.38
727.587	-9.38
727.612	-9.38
727.637	-0.38
727.663	-16.38
727.688	0.62
727.714	1.62
727.739	-10.38
727.764	-6.38
727.79	-5.38
727.815	6.62
727.841	9.62
727.866	-7.38
727.891	8.62
727.917	-13.38
727.942	-19.38
727.967	-5.38
727.993	-14.38
728.018	-10.38
728.043	-7.38
728.069	10.62
728.094	2.62
728.119	3.62
728.145	15.62
728.17	1.62
728.195	-2.38
728.221	9.62
728.246	-1.38
728.271	-28.38
728.297	-14.38
728.322	-5.38
728.347	0.62
728.373	3.62
728.398	9.62
728.423	6.62
728.448	-10.38
728.474	-13.38
728.499	12.62
728.524	-7.38
728.55	-13.38
728.575	-10.38
728.6	-19.38
728.625	-12.38
728.651	7.62
728.676	-6.38
728.701	-12.38
728.727	4.62
728.752	-14.38
728.777	-5.38
728.802	-0.38
728.828	1.62
728.853	3.62
728.878	15.62
728.903	-0.38
728.929	-13.38
728.954	1.62
728.979	11.62
729.004	-1.38
729.03	4.62
729.055	2.62
729.08	-14.38
729.105	4.62
729.13	20.62
729.156	0.62
729.181	3.62
729.206	-18.38
729.231	-4.38
729.256	17.62
729.282	-2.38
729.307	-12.38
729.332	-26.38
729.357	-3.38
729.382	-18.38
729.408	-2.38
729.433	0.62
729.458	13.62
729.483	9.62
729.508	9.62
729.533	16.62
729.559	-5.38
729.584	-10.38
729.609	12.62
729.634	25.62
729.659	-5.38
729.684	-9.38
729.71	8.62
729.735	-9.38
729.76	-11.38
729.785	-2.38
729.81	15.62
729.835	-12.38
729.86	-4.38
729.886	20.62
729.911	-6.38
729.936	-4.38
729.961	6.62
729.986	-11.38
730.011	-3.38
730.036	-4.38
730.061	-4.38
730.086	-12.38
730.112	-4.38
730.137	6.62
730.162	1.62
730.187	-18.38
730.212	5.62
730.237	1.62
730.262	1.62
730.287	1.62
730.312	14.62
730.337	-5.38
730.362	21.62
730.387	9.62
730.413	1.62
730.438	-2.38
730.463	-11.38
730.488	-19.38
730.513	0.62
730.538	-13.38
730.563	13.62
730.588	-2.38
730.613	0.62
730.638	7.62
730.663	-5.38
730.688	20.62
730.713	5.62
730.738	-4.38
730.763	11.62
730.788	-5.38
730.813	-5.38
730.838	5.62
730.863	3.62
730.888	-7.38
730.913	-30.38
730.938	-34.38
730.963	-12.38
730.988	-0.38
731.013	7.62
731.038	-2.38
731.063	-7.38
731.088	1.62
731.113	-8.38
731.138	-10.38
731.163	-7.38
731.188	-2.38
731.213	13.62
731.238	6.62
731.263	-4.38
731.288	-13.38
731.313	11.62
731.338	6.62
731.363	13.62
731.388	6.62
731.413	-10.38
731.438	25.62
731.463	0.62
731.487	5.62
731.512	-0.38
731.537	-2.38
731.562	-2.38
731.587	5.62
731.612	2.62
731.637	-10.38
731.662	1.62
731.687	1.62
731.712	-12.38
731.737	-5.38
731.762	-5.38
731.786	-1.38
731.811	2.62
731.836	-7.38
731.861	-4.38
731.886	-13.38
731.911	5.62
731.936	6.62
731.961	14.62
731.986	4.62
732.01	-7.38
732.035	6.62
732.06	11.62
732.085	6.62
732.11	-10.38
732.135	-1.38
732.16	2.62
732.184	-2.38
732.209	3.62
732.234	0.62
732.259	-13.38
732.284	8.62
732.309	-6.38
732.334	-6.38
732.358	-9.38
732.383	-10.38
732.408	-9.38
732.433	-6.38
732.458	-8.38
732.482	3.62
732.507	-12.38
732.532	5.62
732.557	1.62
732.582	-0.38
732.607	-2.38
732.631	-13.38
732.656	-7.38
732.681	-13.38
732.706	1.62
732.73	6.62
732.755	-4.38
732.78	-1.38
732.805	5.62
732.83	-18.38
732.854	-1.38
732.879	5.62
732.904	-0.38
732.929	6.62
732.953	-7.38
732.978	-4.38
733.003	6.62
733.028	-9.38
733.052	6.62
733.077	-7.38
733.102	12.62
733.127	-4.38
733.151	1.62
733.176	5.62
733.201	-8.38
733.226	-12.38
733.25	-4.38
733.275	-1.38
733.3	2.62
733.324	12.62
733.349	14.62
733.374	25.62
733.399	6.62
733.423	-8.38
733.448	-24.38
733.473	-15.38
733.497	-14.38
733.522	-9.38
733.547	2.62
733.571	29.62
733.596	15.62
733.621	3.62
733.646	7.62
733.67	22.62
733.695	-7.38
733.72	18.62
733.744	6.62
733.769	5.62
733.794	21.62
733.818	3.62
733.843	-4.38
733.867	-7.38
733.892	-13.38
733.917	-2.38
733.941	-2.38
733.966	-10.38
733.991	-10.38
734.015	10.62
734.04	-6.38
734.065	5.62
734.089	24.62
734.114	20.62
734.138	5.62
734.163	-5.38
734.188	-4.38
734.212	12.62
734.237	6.62
734.261	-2.38
734.286	7.62
734.311	-4.38
734.335	1.62
734.36	5.62
734.384	13.62
734.409	5.62
734.434	3.62
734.458	-7.38
734.483	-9.38
734.507	-10.38
734.532	-5.38
734.556	5.62
734.581	-14.38
734.606	9.62
734.63	-7.38
734.655	-10.38
734.679	7.62
734.704	-6.38
734.728	-4.38
734.753	-5.38
734.777	-0.38
734.802	-8.38
734.826	-4.38
734.851	0.62
734.876	-1.38
734.9	16.62
734.925	12.62
734.949	2.62
734.974	-12.38
734.998	12.62
735.023	-2.38
735.047	-18.38
735.072	12.62
735.096	-7.38
735.121	-1.38
735.145	0.62
735.17	-1.38
735.194	1.62
735.219	-16.38
735.243	-3.38
735.268	7.62
735.292	-2.38
735.317	-7.38
735.341	-0.38
735.365	-13.38
735.39	1.62
735.414	0.62
735.439	7.62
735.463	8.62
735.488	-3.38
735.512	-9.38
735.537	-18.38
735.561	3.62
735.586	-9.38
735.61	-5.38
735.634	1.62
735.659	-1.38
735.683	3.62
735.708	-0.38
735.732	-5.38
735.757	7.62
735.781	1.62
735.805	16.62
735.83	-12.38
735.854	-6.38
735.879	-8.38
735.903	15.62
735.927	6.62
735.952	1.62
735.976	-0.38
736.001	-18.38
736.025	7.62
736.049	9.62
736.074	2.62
736.098	-5.38
736.123	8.62
736.147	5.62
736.171	-2.38
736.196	-1.38
736.22	-6.38
736.244	-2.38
736.269	-9.38
736.293	-12.38
736.317	4.62
736.342	0.62
736.366	1.62
736.39	4.62
736.415	-1.38
736.439	-1.38
736.463	0.62
736.488	-4.38
736.512	-2.38
736.536	2.62
736.561	26.62
736.585	-11.38
736.609	0.62
736.634	-2.38
736.658	4.62
736.682	-6.38
736.707	-16.38
736.731	-5.38
736.755	-4.38
736.78	17.62
736.804	12.62
736.828	-8.38
736.852	-16.38
736.877	-5.38
736.901	-1.38
736.925	6.62
736.949	7.62
736.974	8.62
736.998	-0.38
737.022	-3.38
737.047	1.62
737.071	-5.38
737.095	19.62
737.119	11.62
737.144	8.62
737.168	-3.38
737.192	-11.38
737.216	1.62
737.241	-4.38
737.265	8.62
737.289	2.62
737.313	-4.38
737.337	3.62
737.362	6.62
737.386	-5.38
737.41	-4.38
737.434	6.62
737.459	2.62
737.483	1.62
737.507	7.62
737.531	7.62
737.555	-7.38
737.58	4.62
737.604	10.62
737.628	-5.38
737.652	-0.38
737.676	-5.38
737.701	5.62
737.725	18.62
737.749	20.62
737.773	-2.38
737.797	-12.38
737.821	3.62
737.846	-18.38
737.87	20.62
737.894	5.62
737.918	-10.38
737.942	6.62
737.966	12.62
737.99	1.62
738.015	2.62
738.039	-2.38
738.063	-6.38
738.087	10.62
738.111	1.62
738.135	22.62
738.159	-5.38
738.184	-1.38
738.208	6.62
738.232	9.62
738.256	14.62
738.28	12.62
738.304	17.62
738.328	-9.38
738.352	0.62
738.376	5.62
738.4	4.62
738.425	4.62
738.449	-11.38
738.473	10.62
738.497	-1.38
738.521	-4.38
738.545	-2.38
738.569	10.62
738.593	23.62
738.617	17.62
738.641	-0.38
738.665	2.62
738.689	16.62
738.713	2.62
738.737	0.62
738.762	1.62
738.786	1.62
738.81	-6.38
738.834	22.62
738.858	4.62
738.882	0.62
738.906	9.62
738.93	19.62
738.954	-10.38
738.978	-7.38
739.002	-2.38
739.026	-0.38
739.05	-0.38
739.074	-1.38
739.098	27.62
739.122	9.62
739.146	-2.38
739.17	9.62
739.194	-2.38
739.218	-6.38
739.242	-8.38
739.266	4.62
739.29	7.62
739.314	17.62
739.338	9.62
739.362	-0.38
739.386	5.62
739.41	-6.38
739.434	-12.38
739.458	8.62
739.482	0.62
739.506	11.62
739.53	-1.38
739.554	4.62
739.577	3.62
739.601	-6.38
739.625	-2.38
739.649	14.62
739.673	-12.38
739.697	0.62
739.721	6.62
739.745	12.62
739.769	10.62
739.793	6.62
739.817	-6.38
739.841	-7.38
739.865	-2.38
739.889	-13.38
739.912	9.62
739.936	-3.38
739.96	8.62
739.984	11.62
740.008	2.62
740.032	-6.38
740.056	-12.38
740.08	3.62
740.104	7.62
740.127	10.62
740.151	12.62
740.175	7.62
740.199	15.62
740.223	48.62
740.247	10.62
740.271	-6.38
740.295	-4.38
740.318	-10.38
740.342	-18.38
740.366	8.62
740.39	8.62
740.414	-5.38
740.438	7.62
740.461	23.62
740.485	26.62
740.509	1.62
740.533	1.62
740.557	2.62
740.581	-0.38
740.604	-5.38
740.628	-6.38
740.652	5.62
740.676	-3.38
740.7	12.62
740.723	-2.38
740.747	-4.38
740.771	-1.38
740.795	1.62
740.819	0.62
740.842	14.62
740.866	16.62
740.89	10.62
740.914	-1.38
740.938	-7.38
740.961	14.62
740.985	6.62
741.009	2.62
741.033	8.62
741.056	11.62
741.08	-0.38
741.104	2.62
741.128	2.62
741.151	2.62
741.175	5.62
741.199	2.62
741.223	11.62
741.246	-7.38
741.27	-7.38
741.294	-4.38
741.318	2.62
741.341	-2.38
741.365	6.62
741.389	-1.38
741.413	11.62
741.436	9.62
741.46	0.62
741.484	12.62
741.507	-6.38
741.531	25.62
741.555	14.62
741.579	-3.38
741.602	-6.38
741.626	14.62
741.65	-6.38
741.673	3.62
741.697	11.62
741.721	5.62
741.744	-17.38
741.768	0.62
741.792	1.62
741.815	-11.38
741.839	16.62
741.863	9.62
741.886	0.62
741.91	2.62
741.934	4.62
741.957	-22.38
741.981	-0.38
742.005	-2.38
742.028	-0.38
742.052	-21.38
742.075	2.62
742.099	18.62
742.123	4.62
742.146	-5.38
742.17	-2.38
742.194	-13.38
742.217	-8.38
742.241	0.62
742.264	3.62
742.288	20.62
742.312	7.62
742.335	-1.38
742.359	-4.38
742.382	10.62
742.406	-7.38
742.43	-12.38
742.453	-7.38
742.477	3.62
742.5	3.62
742.524	2.62
742.548	-4.38
742.571	8.62
742.595	-8.38
742.618	-1.38
742.642	-5.38
742.665	8.62
742.689	7.62
742.712	1.62
742.736	1.62
742.76	2.62
742.783	-2.38
742.807	7.62
742.83	20.62
742.854	-8.38
742.877	-7.38
742.901	-8.38
742.924	-6.38
742.948	-17.38
742.971	6.62
742.995	4.62
743.018	-2.38
743.042	-14.38
743.065	-8.38
743.089	4.62
743.112	-6.38
743.136	4.62
743.159	-1.38
743.183	-15.38
743.206	3.62
743.23	-9.38
743.253	9.62
743.277	6.62
743.3	-10.38
743.324	-10.38
743.347	-9.38
743.371	4.62
743.394	15.62
743.418	19.62
743.441	13.62
743.465	0.62
743.488	1.62
743.512	1.62
743.535	2.62
743.558	-10.38
743.582	-9.38
743.605	5.62
743.629	3.62
743.652	-2.38
743.676	-10.38
743.699	2.62
743.723	11.62
743.746	7.62
743.769	6.62
743.793	8.62
743.816	19.62
743.84	13.62
743.863	-1.38
743.886	0.62
743.91	12.62
743.933	-2.38
743.957	10.62
743.98	-2.38
744.003	-10.38
744.027	-2.38
744.05	-4.38
744.074	-7.38
744.097	-12.38
744.12	1.62
744.144	-5.38
744.167	2.62
744.19	-9.38
744.214	-9.38
744.237	-16.38
744.26	6.62
744.284	5.62
744.307	-16.38
744.331	-6.38
744.354	-23.38
744.377	-4.38
744.401	0.62
744.424	6.62
744.447	-6.38
744.471	-5.38
