Data from HighRes_H2_15_09_11_07_2024_HR4C61891__156__15-11-12-001.txt Node

Date: Thu Nov 07 15:11:12 EST 2024
User: crc00042
Spectrometer: HR4C6189
Trigger mode: 4
Integration Time (sec): 1.000000E-1
Scans to average: 1
Electric dark correction enabled: true
Nonlinearity correction enabled: false
Boxcar width: 0
XAxis mode: Wavelengths
Number of Pixels in Spectrum: 3648
>>>>>Begin Spectral Data<<<<<
639.567	-20.38
639.602	-20.38
639.636	-20.38
639.67	-56.38
639.704	-9.38
639.738	-5.38
639.773	15.62
639.807	-20.38
639.841	-3.38
639.875	15.62
639.909	-3.38
639.943	6.62
639.978	-17.38
640.012	-0.38
640.046	24.62
640.08	9.62
640.114	-9.38
640.148	-12.38
640.182	-19.38
640.217	-0.38
640.251	39.62
640.285	16.62
640.319	-1.38
640.353	1.62
640.387	0.62
640.421	0.62
640.455	-28.38
640.49	-0.38
640.524	2.62
640.558	16.62
640.592	-6.38
640.626	-6.38
640.66	-8.38
640.694	-10.38
640.728	-5.38
640.762	7.62
640.796	20.62
640.83	6.62
640.865	-8.38
640.899	14.62
640.933	6.62
640.967	0.62
641.001	7.62
641.035	16.62
641.069	-2.38
641.103	-1.38
641.137	15.62
641.171	-8.38
641.205	-4.38
641.239	-0.38
641.273	10.62
641.307	11.62
641.341	3.62
641.375	11.62
641.409	-13.38
641.443	8.62
641.477	6.62
641.511	3.62
641.545	7.62
641.579	-1.38
641.614	10.62
641.648	7.62
641.682	9.62
641.716	20.62
641.75	23.62
641.784	10.62
641.818	21.62
641.852	4.62
641.886	-11.38
641.919	35.62
641.953	4.62
641.987	-10.38
642.021	2.62
642.055	-4.38
642.089	-7.38
642.123	-12.38
642.157	-6.38
642.191	-6.38
642.225	12.62
642.259	6.62
642.293	25.62
642.327	8.62
642.361	8.62
642.395	-0.38
642.429	34.62
642.463	5.62
642.497	6.62
642.531	-4.38
642.565	-9.38
642.599	1.62
642.633	-18.38
642.666	0.62
642.7	25.62
642.734	4.62
642.768	-8.38
642.802	-7.38
642.836	2.62
642.87	15.62
642.904	8.62
642.938	19.62
642.972	5.62
643.005	16.62
643.039	15.62
643.073	7.62
643.107	0.62
643.141	2.62
643.175	14.62
643.209	6.62
643.243	-4.38
643.276	9.62
643.31	-11.38
643.344	-14.38
643.378	0.62
643.412	15.62
643.446	6.62
643.48	-0.38
643.513	12.62
643.547	6.62
643.581	1.62
643.615	7.62
643.649	9.62
643.683	-2.38
643.716	5.62
643.75	-5.38
643.784	-7.38
643.818	24.62
643.852	9.62
643.886	-9.38
643.919	17.62
643.953	-3.38
643.987	12.62
644.021	20.62
644.055	7.62
644.088	0.62
644.122	-1.38
644.156	10.62
644.19	-8.38
644.224	21.62
644.257	19.62
644.291	7.62
644.325	6.62
644.359	6.62
644.392	12.62
644.426	8.62
644.46	-15.38
644.494	-7.38
644.527	5.62
644.561	16.62
644.595	3.62
644.629	7.62
644.662	12.62
644.696	21.62
644.73	2.62
644.764	11.62
644.797	0.62
644.831	0.62
644.865	6.62
644.899	16.62
644.932	18.62
644.966	3.62
645	16.62
645.033	36.62
645.067	0.62
645.101	7.62
645.135	4.62
645.168	-7.38
645.202	1.62
645.236	11.62
645.269	11.62
645.303	-1.38
645.337	-15.38
645.37	-9.38
645.404	-0.38
645.438	6.62
645.471	-10.38
645.505	7.62
645.539	1.62
645.572	-20.38
645.606	-12.38
645.64	13.62
645.673	16.62
645.707	11.62
645.741	2.62
645.774	8.62
645.808	22.62
645.842	3.62
645.875	-1.38
645.909	1.62
645.943	-9.38
645.976	5.62
646.01	5.62
646.043	21.62
646.077	-4.38
646.111	1.62
646.144	15.62
646.178	13.62
646.212	-0.38
646.245	-1.38
646.279	16.62
646.312	21.62
646.346	13.62
646.38	-15.38
646.413	12.62
646.447	-8.38
646.48	-5.38
646.514	14.62
646.547	6.62
646.581	-16.38
646.615	10.62
646.648	-4.38
646.682	9.62
646.715	8.62
646.749	14.62
646.782	1.62
646.816	11.62
646.85	14.62
646.883	2.62
646.917	18.62
646.95	13.62
646.984	-3.38
647.017	12.62
647.051	9.62
647.084	10.62
647.118	5.62
647.151	13.62
647.185	9.62
647.218	-9.38
647.252	11.62
647.285	-13.38
647.319	-25.38
647.353	4.62
647.386	23.62
647.42	-1.38
647.453	-11.38
647.487	-11.38
647.52	-2.38
647.553	12.62
647.587	12.62
647.62	8.62
647.654	-6.38
647.687	11.62
647.721	1.62
647.754	-1.38
647.788	0.62
647.821	-1.38
647.855	13.62
647.888	26.62
647.922	18.62
647.955	15.62
647.989	18.62
648.022	4.62
648.055	18.62
648.089	4.62
648.122	17.62
648.156	8.62
648.189	1.62
648.223	8.62
648.256	20.62
648.29	15.62
648.323	14.62
648.356	21.62
648.39	18.62
648.423	5.62
648.457	-0.38
648.49	7.62
648.523	7.62
648.557	13.62
648.59	-4.38
648.624	-1.38
648.657	15.62
648.69	15.62
648.724	9.62
648.757	0.62
648.791	9.62
648.824	6.62
648.857	48.62
648.891	7.62
648.924	16.62
648.957	22.62
648.991	-4.38
649.024	10.62
649.057	-3.38
649.091	-14.38
649.124	-3.38
649.158	-2.38
649.191	14.62
649.224	23.62
649.258	10.62
649.291	-0.38
649.324	2.62
649.358	13.62
649.391	19.62
649.424	10.62
649.458	6.62
649.491	9.62
649.524	-4.38
649.557	-4.38
649.591	-9.38
649.624	16.62
649.657	2.62
649.691	14.62
649.724	-2.38
649.757	-8.38
649.791	-3.38
649.824	36.62
649.857	2.62
649.89	7.62
649.924	-8.38
649.957	-7.38
649.99	-3.38
650.023	7.62
650.057	-5.38
650.09	-4.38
650.123	9.62
650.157	17.62
650.19	31.62
650.223	-3.38
650.256	7.62
650.29	-4.38
650.323	-3.38
650.356	11.62
650.389	-2.38
650.423	-17.38
650.456	11.62
650.489	3.62
650.522	-3.38
650.555	25.62
650.589	26.62
650.622	10.62
650.655	3.62
650.688	13.62
650.721	-1.38
650.755	-1.38
650.788	3.62
650.821	-4.38
650.854	2.62
650.887	14.62
650.921	-5.38
650.954	0.62
650.987	3.62
651.02	-5.38
651.053	-22.38
651.087	2.62
651.12	12.62
651.153	12.62
651.186	-4.38
651.219	-20.38
651.252	4.62
651.286	22.62
651.319	23.62
651.352	10.62
651.385	16.62
651.418	16.62
651.451	10.62
651.484	1.62
651.518	7.62
651.551	31.62
651.584	0.62
651.617	19.62
651.65	-3.38
651.683	14.62
651.716	8.62
651.749	-8.38
651.783	3.62
651.816	1.62
651.849	20.62
651.882	12.62
651.915	10.62
651.948	15.62
651.981	0.62
652.014	-16.38
652.047	-11.38
652.08	-3.38
652.114	5.62
652.147	8.62
652.18	7.62
652.213	18.62
652.246	-4.38
652.279	-6.38
652.312	8.62
652.345	8.62
652.378	13.62
652.411	10.62
652.444	9.62
652.477	6.62
652.51	23.62
652.543	-3.38
652.576	12.62
652.609	-13.38
652.642	0.62
652.675	19.62
652.709	-9.38
652.742	6.62
652.775	10.62
652.808	20.62
652.841	17.62
652.874	1.62
652.907	-3.38
652.94	1.62
652.973	7.62
653.006	5.62
653.039	9.62
653.072	23.62
653.105	7.62
653.138	-14.38
653.171	-8.38
653.204	-7.38
653.237	6.62
653.27	3.62
653.303	21.62
653.336	16.62
653.368	7.62
653.401	5.62
653.434	0.62
653.467	9.62
653.5	-9.38
653.533	-7.38
653.566	6.62
653.599	-3.38
653.632	3.62
653.665	3.62
653.698	-13.38
653.731	-1.38
653.764	-0.38
653.797	0.62
653.83	-6.38
653.863	0.62
653.896	-6.38
653.929	-4.38
653.961	12.62
653.994	5.62
654.027	6.62
654.06	21.62
654.093	3.62
654.126	18.62
654.159	1.62
654.192	4.62
654.225	-2.38
654.258	-4.38
654.29	10.62
654.323	14.62
654.356	12.62
654.389	11.62
654.422	2.62
654.455	1.62
654.488	10.62
654.521	-12.38
654.553	-16.38
654.586	12.62
654.619	-6.38
654.652	7.62
654.685	5.62
654.718	19.62
654.751	6.62
654.783	10.62
654.816	16.62
654.849	10.62
654.882	-2.38
654.915	-12.38
654.948	-4.38
654.98	-4.38
655.013	2.62
655.046	-9.38
655.079	-2.38
655.112	16.62
655.144	2.62
655.177	11.62
655.21	25.62
655.243	25.62
655.276	21.62
655.308	14.62
655.341	5.62
655.374	18.62
655.407	10.62
655.44	8.62
655.472	28.62
655.505	8.62
655.538	-10.38
655.571	13.62
655.603	6.62
655.636	18.62
655.669	30.62
655.702	11.62
655.734	11.62
655.767	15.62
655.8	29.62
655.833	27.62
655.865	37.62
655.898	36.62
655.931	44.62
655.964	52.62
655.996	70.62
656.029	87.62
656.062	63.62
656.095	67.62
656.127	56.62
656.16	95.62
656.193	136.62
656.225	196.62
656.258	281.62
656.291	506.62
656.324	1125.62
656.356	3371.62
656.389	7561.62
656.422	6027.62
656.454	2075.62
656.487	661.62
656.52	250.62
656.552	123.62
656.585	85.62
656.618	55.62
656.65	47.62
656.683	20.62
656.716	40.62
656.748	33.62
656.781	5.62
656.814	4.62
656.846	10.62
656.879	2.62
656.912	25.62
656.944	-1.38
656.977	-10.38
657.01	-5.38
657.042	30.62
657.075	25.62
657.108	5.62
657.14	-4.38
657.173	1.62
657.205	36.62
657.238	10.62
657.271	19.62
657.303	-18.38
657.336	4.62
657.369	10.62
657.401	13.62
657.434	4.62
657.466	-3.38
657.499	-10.38
657.532	2.62
657.564	2.62
657.597	10.62
657.629	18.62
657.662	-1.38
657.694	12.62
657.727	7.62
657.76	18.62
657.792	15.62
657.825	5.62
657.857	-2.38
657.89	-10.38
657.922	12.62
657.955	-2.38
657.987	14.62
658.02	12.62
658.053	9.62
658.085	-1.38
658.118	5.62
658.15	32.62
658.183	12.62
658.215	-0.38
658.248	-4.38
658.28	-4.38
658.313	10.62
658.345	15.62
658.378	6.62
658.41	-0.38
658.443	7.62
658.475	-0.38
658.508	-0.38
658.54	6.62
658.573	-15.38
658.605	9.62
658.638	6.62
658.67	19.62
658.703	13.62
658.735	-6.38
658.768	0.62
658.8	2.62
658.833	10.62
658.865	-3.38
658.898	9.62
658.93	-7.38
658.963	-5.38
658.995	-0.38
659.028	-6.38
659.06	8.62
659.092	-4.38
659.125	-10.38
659.157	16.62
659.19	-2.38
659.222	-6.38
659.255	13.62
659.287	8.62
659.32	18.62
659.352	6.62
659.384	0.62
659.417	8.62
659.449	8.62
659.482	9.62
659.514	-11.38
659.546	-5.38
659.579	0.62
659.611	3.62
659.644	5.62
659.676	-7.38
659.708	-14.38
659.741	-10.38
659.773	13.62
659.806	17.62
659.838	-4.38
659.87	-4.38
659.903	-1.38
659.935	6.62
659.967	1.62
660	21.62
660.032	-2.38
660.065	14.62
660.097	-0.38
660.129	0.62
660.162	-2.38
660.194	14.62
660.226	5.62
660.259	14.62
660.291	-4.38
660.323	-4.38
660.356	9.62
660.388	2.62
660.42	3.62
660.453	-0.38
660.485	6.62
660.517	15.62
660.55	17.62
660.582	12.62
660.614	10.62
660.647	-1.38
660.679	-5.38
660.711	6.62
660.743	-5.38
660.776	10.62
660.808	2.62
660.84	-5.38
660.873	11.62
660.905	4.62
660.937	1.62
660.969	-1.38
661.002	-0.38
661.034	4.62
661.066	4.62
661.099	10.62
661.131	18.62
661.163	7.62
661.195	-5.38
661.228	-0.38
661.26	-9.38
661.292	-4.38
661.324	2.62
661.357	10.62
661.389	7.62
661.421	16.62
661.453	-3.38
661.485	4.62
661.518	11.62
661.55	-9.38
661.582	-11.38
661.614	-3.38
661.647	-8.38
661.679	6.62
661.711	8.62
661.743	-8.38
661.775	-2.38
661.808	21.62
661.84	-17.38
661.872	-1.38
661.904	-0.38
661.936	5.62
661.969	-0.38
662.001	-10.38
662.033	2.62
662.065	-9.38
662.097	2.62
662.129	3.62
662.162	-4.38
662.194	20.62
662.226	6.62
662.258	10.62
662.29	9.62
662.322	5.62
662.355	-5.38
662.387	29.62
662.419	9.62
662.451	7.62
662.483	7.62
662.515	-2.38
662.547	-7.38
662.58	-7.38
662.612	-1.38
662.644	-19.38
662.676	-7.38
662.708	18.62
662.74	11.62
662.772	-0.38
662.804	2.62
662.836	9.62
662.869	7.62
662.901	22.62
662.933	4.62
662.965	6.62
662.997	3.62
663.029	-12.38
663.061	-1.38
663.093	-1.38
663.125	-6.38
663.157	3.62
663.189	-0.38
663.221	22.62
663.254	-7.38
663.286	9.62
663.318	5.62
663.35	3.62
663.382	11.62
663.414	1.62
663.446	7.62
663.478	7.62
663.51	32.62
663.542	10.62
663.574	3.62
663.606	6.62
663.638	-6.38
663.67	-3.38
663.702	4.62
663.734	6.62
663.766	3.62
663.798	-2.38
663.83	-2.38
663.862	11.62
663.894	7.62
663.926	-3.38
663.958	7.62
663.99	13.62
664.022	0.62
664.054	4.62
664.086	-1.38
664.118	-4.38
664.15	-8.38
664.182	2.62
664.214	10.62
664.246	16.62
664.278	15.62
664.31	18.62
664.342	10.62
664.374	0.62
664.406	17.62
664.438	-0.38
664.47	17.62
664.502	-3.38
664.534	12.62
664.566	-9.38
664.598	13.62
664.63	19.62
664.662	11.62
664.693	-0.38
664.725	-9.38
664.757	3.62
664.789	-10.38
664.821	3.62
664.853	13.62
664.885	1.62
664.917	-9.38
664.949	-0.38
664.981	22.62
665.013	3.62
665.045	-2.38
665.076	1.62
665.108	8.62
665.14	-6.38
665.172	11.62
665.204	6.62
665.236	5.62
665.268	-1.38
665.3	-10.38
665.331	-25.38
665.363	6.62
665.395	-6.38
665.427	-2.38
665.459	2.62
665.491	0.62
665.523	5.62
665.555	7.62
665.586	1.62
665.618	-3.38
665.65	-6.38
665.682	7.62
665.714	23.62
665.746	17.62
665.777	3.62
665.809	-8.38
665.841	11.62
665.873	5.62
665.905	0.62
665.937	0.62
665.968	9.62
666	-10.38
666.032	0.62
666.064	2.62
666.096	6.62
666.127	9.62
666.159	9.62
666.191	5.62
666.223	-2.38
666.255	8.62
666.286	9.62
666.318	8.62
666.35	2.62
666.382	12.62
666.413	-11.38
666.445	-13.38
666.477	-6.38
666.509	5.62
666.54	6.62
666.572	-13.38
666.604	11.62
666.636	13.62
666.667	12.62
666.699	20.62
666.731	14.62
666.763	1.62
666.794	2.62
666.826	7.62
666.858	-8.38
666.89	19.62
666.921	4.62
666.953	12.62
666.985	0.62
667.017	13.62
667.048	11.62
667.08	-5.38
667.112	-1.38
667.143	-2.38
667.175	7.62
667.207	22.62
667.238	16.62
667.27	4.62
667.302	4.62
667.334	1.62
667.365	18.62
667.397	18.62
667.429	3.62
667.46	13.62
667.492	4.62
667.524	17.62
667.555	0.62
667.587	3.62
667.619	8.62
667.65	2.62
667.682	-7.38
667.714	4.62
667.745	6.62
667.777	5.62
667.808	9.62
667.84	25.62
667.872	19.62
667.903	29.62
667.935	1.62
667.967	5.62
667.998	9.62
668.03	6.62
668.061	2.62
668.093	-6.38
668.125	0.62
668.156	11.62
668.188	7.62
668.22	-6.38
668.251	-13.38
668.283	17.62
668.314	16.62
668.346	-2.38
668.377	-0.38
668.409	0.62
668.441	30.62
668.472	13.62
668.504	5.62
668.535	21.62
668.567	-0.38
668.599	9.62
668.63	18.62
668.662	9.62
668.693	4.62
668.725	7.62
668.756	17.62
668.788	-5.38
668.819	-4.38
668.851	6.62
668.882	9.62
668.914	12.62
668.946	-4.38
668.977	-12.38
669.009	-4.38
669.04	-6.38
669.072	11.62
669.103	5.62
669.135	0.62
669.166	4.62
669.198	4.62
669.229	-0.38
669.261	-7.38
669.292	0.62
669.324	1.62
669.355	2.62
669.387	0.62
669.418	25.62
669.45	-2.38
669.481	9.62
669.513	10.62
669.544	12.62
669.576	-3.38
669.607	2.62
669.639	6.62
669.67	-4.38
669.701	7.62
669.733	-8.38
669.764	0.62
669.796	-6.38
669.827	4.62
669.859	-9.38
669.89	-0.38
669.922	12.62
669.953	7.62
669.985	12.62
670.016	18.62
670.047	-5.38
670.079	-6.38
670.11	2.62
670.142	11.62
670.173	4.62
670.204	12.62
670.236	11.62
670.267	-7.38
670.299	2.62
670.33	-6.38
670.362	15.62
670.393	-1.38
670.424	24.62
670.456	-5.38
670.487	-2.38
670.518	0.62
670.55	-6.38
670.581	-12.38
670.613	9.62
670.644	-1.38
670.675	5.62
670.707	4.62
670.738	19.62
670.769	-2.38
670.801	-1.38
670.832	7.62
670.864	-18.38
670.895	-3.38
670.926	-2.38
670.958	-4.38
670.989	0.62
671.02	-11.38
671.052	3.62
671.083	12.62
671.114	-7.38
671.146	9.62
671.177	13.62
671.208	-4.38
671.24	-15.38
671.271	6.62
671.302	-0.38
671.333	-1.38
671.365	2.62
671.396	-1.38
671.427	5.62
671.459	27.62
671.49	15.62
671.521	5.62
671.553	4.62
671.584	4.62
671.615	3.62
671.646	8.62
671.678	6.62
671.709	-12.38
671.74	-9.38
671.771	6.62
671.803	-7.38
671.834	9.62
671.865	10.62
671.896	-3.38
671.928	-2.38
671.959	-4.38
671.99	9.62
672.021	2.62
672.053	-8.38
672.084	14.62
672.115	11.62
672.146	-1.38
672.178	-0.38
672.209	3.62
672.24	7.62
672.271	30.62
672.303	1.62
672.334	9.62
672.365	10.62
672.396	5.62
672.427	3.62
672.459	14.62
672.49	26.62
672.521	-1.38
672.552	19.62
672.583	7.62
672.615	11.62
672.646	7.62
672.677	-5.38
672.708	-0.38
672.739	12.62
672.77	13.62
672.802	-1.38
672.833	-17.38
672.864	-17.38
672.895	5.62
672.926	-10.38
672.957	-20.38
672.989	7.62
673.02	8.62
673.051	-5.38
673.082	0.62
673.113	-0.38
673.144	13.62
673.175	8.62
673.206	6.62
673.238	-3.38
673.269	7.62
673.3	5.62
673.331	8.62
673.362	2.62
673.393	18.62
673.424	13.62
673.455	26.62
673.487	9.62
673.518	11.62
673.549	-8.38
673.58	2.62
673.611	9.62
673.642	2.62
673.673	-21.38
673.704	4.62
673.735	-3.38
673.766	-5.38
673.797	9.62
673.828	-22.38
673.86	-10.38
673.891	-7.38
673.922	-3.38
673.953	-9.38
673.984	0.62
674.015	7.62
674.046	6.62
674.077	13.62
674.108	-10.38
674.139	-13.38
674.17	-12.38
674.201	-3.38
674.232	5.62
674.263	10.62
674.294	9.62
674.325	0.62
674.356	-2.38
674.387	9.62
674.418	9.62
674.449	-3.38
674.48	-8.38
674.511	5.62
674.542	4.62
674.573	6.62
674.604	7.62
674.635	15.62
674.666	12.62
674.697	5.62
674.728	11.62
674.759	10.62
674.79	-12.38
674.821	1.62
674.852	0.62
674.883	15.62
674.914	14.62
674.945	-3.38
674.976	4.62
675.007	9.62
675.038	-7.38
675.069	0.62
675.1	-2.38
675.131	3.62
675.162	5.62
675.193	-2.38
675.224	5.62
675.254	10.62
675.285	20.62
675.316	32.62
675.347	10.62
675.378	8.62
675.409	-3.38
675.44	-2.38
675.471	8.62
675.502	-7.38
675.533	8.62
675.564	-1.38
675.595	-1.38
675.625	27.62
675.656	11.62
675.687	3.62
675.718	-12.38
675.749	2.62
675.78	0.62
675.811	-11.38
675.842	17.62
675.873	15.62
675.903	4.62
675.934	4.62
675.965	2.62
675.996	2.62
676.027	12.62
676.058	-0.38
676.089	-17.38
676.119	10.62
676.15	-3.38
676.181	3.62
676.212	-8.38
676.243	16.62
676.274	3.62
676.304	3.62
676.335	-17.38
676.366	-8.38
676.397	8.62
676.428	6.62
676.459	13.62
676.489	13.62
676.52	22.62
676.551	2.62
676.582	-5.38
676.613	-1.38
676.643	-1.38
676.674	25.62
676.705	11.62
676.736	12.62
676.767	27.62
676.797	10.62
676.828	11.62
676.859	0.62
676.89	-5.38
676.92	2.62
676.951	21.62
676.982	8.62
677.013	-4.38
677.044	-1.38
677.074	-5.38
677.105	-5.38
677.136	1.62
677.167	2.62
677.197	15.62
677.228	3.62
677.259	1.62
677.289	-1.38
677.32	2.62
677.351	8.62
677.382	-7.38
677.412	-23.38
677.443	6.62
677.474	5.62
677.505	0.62
677.535	-1.38
677.566	-6.38
677.597	2.62
677.627	-13.38
677.658	-4.38
677.689	-3.38
677.72	7.62
677.75	3.62
677.781	18.62
677.812	0.62
677.842	12.62
677.873	8.62
677.904	3.62
677.934	7.62
677.965	4.62
677.996	-18.38
678.026	-2.38
678.057	13.62
678.088	1.62
678.118	-7.38
678.149	-9.38
678.18	-12.38
678.21	-5.38
678.241	11.62
678.272	4.62
678.302	7.62
678.333	7.62
678.363	16.62
678.394	-3.38
678.425	10.62
678.455	7.62
678.486	11.62
678.517	1.62
678.547	3.62
678.578	14.62
678.608	-9.38
678.639	-1.38
678.67	8.62
678.7	-8.38
678.731	6.62
678.761	2.62
678.792	7.62
678.823	21.62
678.853	-0.38
678.884	-3.38
678.914	-8.38
678.945	-1.38
678.975	-3.38
679.006	7.62
679.037	-6.38
679.067	17.62
679.098	20.62
679.128	-3.38
679.159	-4.38
679.189	9.62
679.22	-11.38
679.25	7.62
679.281	21.62
679.312	-6.38
679.342	5.62
679.373	31.62
679.403	17.62
679.434	18.62
679.464	12.62
679.495	3.62
679.525	-15.38
679.556	-9.38
679.586	22.62
679.617	1.62
679.647	-8.38
679.678	-8.38
679.708	-0.38
679.739	6.62
679.769	-1.38
679.8	14.62
679.83	8.62
679.861	1.62
679.891	-2.38
679.922	-3.38
679.952	15.62
679.983	-2.38
680.013	-5.38
680.044	5.62
680.074	8.62
680.105	-4.38
680.135	11.62
680.165	22.62
680.196	4.62
680.226	-10.38
680.257	6.62
680.287	6.62
680.318	-10.38
680.348	-4.38
680.379	-3.38
680.409	4.62
680.439	12.62
680.47	-5.38
680.5	4.62
680.531	-8.38
680.561	7.62
680.592	5.62
680.622	14.62
680.652	7.62
680.683	10.62
680.713	7.62
680.744	-10.38
680.774	-5.38
680.804	21.62
680.835	4.62
680.865	-12.38
680.896	8.62
680.926	8.62
680.956	-1.38
680.987	2.62
681.017	7.62
681.047	18.62
681.078	-9.38
681.108	2.62
681.139	-1.38
681.169	-3.38
681.199	2.62
681.23	0.62
681.26	-4.38
681.29	7.62
681.321	-2.38
681.351	-4.38
681.381	5.62
681.412	8.62
681.442	1.62
681.472	3.62
681.503	-1.38
681.533	4.62
681.563	5.62
681.594	0.62
681.624	11.62
681.654	0.62
681.685	7.62
681.715	11.62
681.745	9.62
681.775	-1.38
681.806	3.62
681.836	7.62
681.866	3.62
681.897	4.62
681.927	-0.38
681.957	-19.38
681.987	2.62
682.018	7.62
682.048	4.62
682.078	10.62
682.109	27.62
682.139	14.62
682.169	5.62
682.199	3.62
682.23	-28.38
682.26	-8.38
682.29	-2.38
682.32	4.62
682.351	6.62
682.381	13.62
682.411	-7.38
682.441	-3.38
682.472	-4.38
682.502	-0.38
682.532	7.62
682.562	-1.38
682.592	7.62
682.623	8.62
682.653	-2.38
682.683	0.62
682.713	15.62
682.743	3.62
682.774	-1.38
682.804	5.62
682.834	4.62
682.864	3.62
682.894	4.62
682.925	10.62
682.955	14.62
682.985	-3.38
683.015	7.62
683.045	18.62
683.076	6.62
683.106	6.62
683.136	-10.38
683.166	-11.38
683.196	-2.38
683.226	10.62
683.257	-7.38
683.287	-5.38
683.317	-6.38
683.347	-0.38
683.377	4.62
683.407	11.62
683.437	2.62
683.468	26.62
683.498	2.62
683.528	-6.38
683.558	0.62
683.588	4.62
683.618	-13.38
683.648	-8.38
683.678	4.62
683.708	17.62
683.739	16.62
683.769	-1.38
683.799	-6.38
683.829	-9.38
683.859	-6.38
683.889	2.62
683.919	-5.38
683.949	6.62
683.979	5.62
684.009	-4.38
684.039	-13.38
684.07	0.62
684.1	9.62
684.13	13.62
684.16	8.62
684.19	-6.38
684.22	2.62
684.25	9.62
684.28	9.62
684.31	4.62
684.34	13.62
684.37	23.62
684.4	-11.38
684.43	1.62
684.46	15.62
684.49	24.62
684.52	33.62
684.55	22.62
684.58	10.62
684.61	15.62
684.64	17.62
684.67	11.62
684.7	9.62
684.73	6.62
684.76	24.62
684.79	21.62
684.82	10.62
684.85	-10.38
684.88	3.62
684.91	15.62
684.94	0.62
684.97	5.62
685	0.62
685.03	-13.38
685.06	-0.38
685.09	1.62
685.12	24.62
685.15	-8.38
685.18	6.62
685.21	7.62
685.24	6.62
685.27	14.62
685.3	9.62
685.33	3.62
685.36	-5.38
685.39	2.62
685.42	-4.38
685.45	1.62
685.48	2.62
685.51	-1.38
685.54	3.62
685.569	7.62
685.599	17.62
685.629	1.62
685.659	9.62
685.689	-6.38
685.719	-3.38
685.749	-18.38
685.779	1.62
685.809	21.62
685.839	12.62
685.869	-6.38
685.898	5.62
685.928	-0.38
685.958	2.62
685.988	17.62
686.018	-8.38
686.048	-5.38
686.078	0.62
686.108	9.62
686.137	-12.38
686.167	8.62
686.197	-1.38
686.227	13.62
686.257	19.62
686.287	12.62
686.317	2.62
686.346	-8.38
686.376	-13.38
686.406	10.62
686.436	7.62
686.466	5.62
686.496	-4.38
686.525	-4.38
686.555	5.62
686.585	16.62
686.615	29.62
686.645	9.62
686.675	9.62
686.704	11.62
686.734	13.62
686.764	-9.38
686.794	6.62
686.824	1.62
686.853	13.62
686.883	23.62
686.913	25.62
686.943	8.62
686.973	4.62
687.002	12.62
687.032	18.62
687.062	3.62
687.092	9.62
687.121	4.62
687.151	-5.38
687.181	3.62
687.211	20.62
687.24	-2.38
687.27	7.62
687.3	3.62
687.33	7.62
687.359	-12.38
687.389	-4.38
687.419	6.62
687.449	1.62
687.478	3.62
687.508	1.62
687.538	5.62
687.568	-2.38
687.597	1.62
687.627	3.62
687.657	7.62
687.686	-0.38
687.716	7.62
687.746	-10.38
687.776	2.62
687.805	5.62
687.835	13.62
687.865	15.62
687.894	1.62
687.924	10.62
687.954	3.62
687.983	15.62
688.013	10.62
688.043	1.62
688.072	-4.38
688.102	7.62
688.132	-2.38
688.161	-0.38
688.191	15.62
688.221	26.62
688.25	-2.38
688.28	2.62
688.31	4.62
688.339	2.62
688.369	3.62
688.399	6.62
688.428	7.62
688.458	0.62
688.488	6.62
688.517	18.62
688.547	12.62
688.576	37.62
688.606	7.62
688.636	-3.38
688.665	4.62
688.695	8.62
688.725	2.62
688.754	13.62
688.784	4.62
688.813	14.62
688.843	-0.38
688.873	4.62
688.902	-16.38
688.932	-9.38
688.961	-5.38
688.991	-3.38
689.02	11.62
689.05	13.62
689.08	21.62
689.109	12.62
689.139	15.62
689.168	4.62
689.198	13.62
689.227	7.62
689.257	3.62
689.287	5.62
689.316	4.62
689.346	4.62
689.375	8.62
689.405	10.62
689.434	6.62
689.464	-7.38
689.493	3.62
689.523	-0.38
689.552	-1.38
689.582	6.62
689.611	5.62
689.641	-2.38
689.67	-5.38
689.7	3.62
689.73	2.62
689.759	7.62
689.789	12.62
689.818	6.62
689.848	1.62
689.877	15.62
689.906	4.62
689.936	6.62
689.965	1.62
689.995	5.62
690.024	-6.38
690.054	5.62
690.083	16.62
690.113	11.62
690.142	-5.38
690.172	10.62
690.201	7.62
690.231	9.62
690.26	9.62
690.29	3.62
690.319	-0.38
690.348	-4.38
690.378	8.62
690.407	7.62
690.437	0.62
690.466	18.62
690.496	-0.38
690.525	26.62
690.555	-9.38
690.584	-9.38
690.613	-0.38
690.643	6.62
690.672	5.62
690.702	14.62
690.731	20.62
690.76	6.62
690.79	-4.38
690.819	-4.38
690.849	-0.38
690.878	10.62
690.907	-0.38
690.937	16.62
690.966	10.62
690.996	6.62
691.025	7.62
691.054	6.62
691.084	3.62
691.113	-7.38
691.142	7.62
691.172	13.62
691.201	15.62
691.23	9.62
691.26	18.62
691.289	14.62
691.319	9.62
691.348	13.62
691.377	18.62
691.407	15.62
691.436	10.62
691.465	3.62
691.495	-1.38
691.524	-1.38
691.553	-16.38
691.583	-19.38
691.612	12.62
691.641	7.62
691.67	11.62
691.7	15.62
691.729	-10.38
691.758	-19.38
691.788	-6.38
691.817	4.62
691.846	-0.38
691.876	6.62
691.905	1.62
691.934	3.62
691.963	13.62
691.993	6.62
692.022	-2.38
692.051	-14.38
692.081	-2.38
692.11	22.62
692.139	-1.38
692.168	22.62
692.198	20.62
692.227	17.62
692.256	11.62
692.285	11.62
692.315	3.62
692.344	17.62
692.373	10.62
692.402	-9.38
692.432	-5.38
692.461	24.62
692.49	21.62
692.519	10.62
692.548	16.62
692.578	17.62
692.607	-3.38
692.636	3.62
692.665	10.62
692.694	-7.38
692.724	0.62
692.753	13.62
692.782	22.62
692.811	6.62
692.84	12.62
692.87	8.62
692.899	6.62
692.928	4.62
692.957	7.62
692.986	10.62
693.016	-8.38
693.045	-17.38
693.074	10.62
693.103	11.62
693.132	6.62
693.161	11.62
693.191	3.62
693.22	-4.38
693.249	2.62
693.278	6.62
693.307	13.62
693.336	-10.38
693.365	-12.38
693.395	0.62
693.424	7.62
693.453	3.62
693.482	-10.38
693.511	-1.38
693.54	6.62
693.569	4.62
693.598	-2.38
693.628	7.62
693.657	11.62
693.686	7.62
693.715	11.62
693.744	13.62
693.773	29.62
693.802	9.62
693.831	6.62
693.86	17.62
693.889	10.62
693.919	7.62
693.948	-7.38
693.977	18.62
694.006	11.62
694.035	4.62
694.064	7.62
694.093	-2.38
694.122	3.62
694.151	-10.38
694.18	-1.38
694.209	25.62
694.238	3.62
694.267	25.62
694.296	7.62
694.325	3.62
694.354	9.62
694.383	10.62
694.412	14.62
694.441	3.62
694.471	0.62
694.5	-9.38
694.529	22.62
694.558	13.62
694.587	14.62
694.616	7.62
694.645	-7.38
694.674	1.62
694.703	14.62
694.732	15.62
694.761	4.62
694.79	13.62
694.819	-19.38
694.848	-2.38
694.877	12.62
694.906	30.62
694.935	1.62
694.963	45.62
694.992	3.62
695.021	2.62
695.05	-14.38
695.079	3.62
695.108	3.62
695.137	12.62
695.166	6.62
695.195	-9.38
695.224	2.62
695.253	11.62
695.282	-0.38
695.311	14.62
695.34	9.62
695.369	-4.38
695.398	2.62
695.427	12.62
695.456	13.62
695.485	19.62
695.513	-7.38
695.542	0.62
695.571	6.62
695.6	14.62
695.629	5.62
695.658	-7.38
695.687	9.62
695.716	1.62
695.745	36.62
695.774	-9.38
695.802	4.62
695.831	19.62
695.86	9.62
695.889	7.62
695.918	-1.38
695.947	-0.38
695.976	7.62
696.005	6.62
696.033	0.62
696.062	11.62
696.091	3.62
696.12	11.62
696.149	25.62
696.178	10.62
696.207	13.62
696.235	-7.38
696.264	7.62
696.293	5.62
696.322	9.62
696.351	-4.38
696.38	-3.38
696.408	2.62
696.437	4.62
696.466	24.62
696.495	9.62
696.524	13.62
696.553	11.62
696.581	5.62
696.61	-9.38
696.639	6.62
696.668	18.62
696.697	1.62
696.725	9.62
696.754	2.62
696.783	-4.38
696.812	5.62
696.84	4.62
696.869	-6.38
696.898	6.62
696.927	6.62
696.956	22.62
696.984	-0.38
697.013	4.62
697.042	20.62
697.071	17.62
697.099	8.62
697.128	4.62
697.157	16.62
697.186	6.62
697.214	2.62
697.243	-1.38
697.272	1.62
697.301	3.62
697.329	3.62
697.358	9.62
697.387	23.62
697.415	1.62
697.444	10.62
697.473	-0.38
697.502	-9.38
697.53	3.62
697.559	-7.38
697.588	0.62
697.616	1.62
697.645	-3.38
697.674	16.62
697.703	6.62
697.731	7.62
697.76	7.62
697.789	3.62
697.817	18.62
697.846	25.62
697.875	9.62
697.903	17.62
697.932	25.62
697.961	22.62
697.989	18.62
698.018	15.62
698.047	10.62
698.075	17.62
698.104	-1.38
698.133	1.62
698.161	-5.38
698.19	7.62
698.218	2.62
698.247	2.62
698.276	7.62
698.304	11.62
698.333	2.62
698.362	-3.38
698.39	12.62
698.419	9.62
698.447	1.62
698.476	1.62
698.505	18.62
698.533	34.62
698.562	9.62
698.591	0.62
698.619	11.62
698.648	10.62
698.676	8.62
698.705	3.62
698.733	-10.38
698.762	7.62
698.791	-5.38
698.819	-13.38
698.848	-0.38
698.876	15.62
698.905	12.62
698.933	3.62
698.962	8.62
698.991	-1.38
699.019	23.62
699.048	11.62
699.076	4.62
699.105	-4.38
699.133	7.62
699.162	3.62
699.19	12.62
699.219	-3.38
699.248	-4.38
699.276	10.62
699.305	-3.38
699.333	17.62
699.362	16.62
699.39	1.62
699.419	-10.38
699.447	5.62
699.476	12.62
699.504	-7.38
699.533	2.62
699.561	-1.38
699.59	4.62
699.618	6.62
699.647	19.62
699.675	-6.38
699.704	9.62
699.732	-5.38
699.761	14.62
699.789	6.62
699.818	23.62
699.846	10.62
699.874	3.62
699.903	-8.38
699.931	-0.38
699.96	14.62
699.988	10.62
700.017	7.62
700.045	-6.38
700.074	5.62
700.102	-10.38
700.13	-2.38
700.159	11.62
700.187	11.62
700.216	6.62
700.244	12.62
700.273	13.62
700.301	1.62
700.329	29.62
700.358	12.62
700.386	0.62
700.415	0.62
700.443	-0.38
700.472	2.62
700.5	2.62
700.528	-1.38
700.557	15.62
700.585	11.62
700.614	-11.38
700.642	20.62
700.67	24.62
700.699	21.62
700.727	10.62
700.755	11.62
700.784	12.62
700.812	-0.38
700.841	11.62
700.869	11.62
700.897	-16.38
700.926	-14.38
700.954	13.62
700.982	14.62
701.011	11.62
701.039	9.62
701.067	-2.38
701.096	27.62
701.124	4.62
701.152	2.62
701.181	-0.38
701.209	-8.38
701.237	10.62
701.266	2.62
701.294	4.62
701.322	-0.38
701.351	9.62
701.379	6.62
701.407	3.62
701.435	9.62
701.464	6.62
701.492	18.62
701.52	5.62
701.549	-7.38
701.577	-11.38
701.605	-5.38
701.634	7.62
701.662	-0.38
701.69	0.62
701.718	-11.38
701.747	18.62
701.775	0.62
701.803	6.62
701.831	12.62
701.86	-1.38
701.888	3.62
701.916	-1.38
701.944	7.62
701.973	10.62
702.001	3.62
702.029	-14.38
702.057	-7.38
702.086	-8.38
702.114	-6.38
702.142	13.62
702.17	1.62
702.199	2.62
702.227	13.62
702.255	-4.38
702.283	-2.38
702.311	11.62
702.34	8.62
702.368	-10.38
702.396	-1.38
702.424	-0.38
702.452	-8.38
702.481	17.62
702.509	-5.38
702.537	16.62
702.565	11.62
702.593	-1.38
702.621	2.62
702.65	9.62
702.678	15.62
702.706	13.62
702.734	1.62
702.762	4.62
702.79	0.62
702.819	6.62
702.847	10.62
702.875	21.62
702.903	-0.38
702.931	3.62
702.959	-1.38
702.988	3.62
703.016	4.62
703.044	-5.38
703.072	-0.38
703.1	-2.38
703.128	16.62
703.156	3.62
703.184	11.62
703.212	13.62
703.241	-1.38
703.269	0.62
703.297	1.62
703.325	7.62
703.353	1.62
703.381	-9.38
703.409	5.62
703.437	-6.38
703.465	2.62
703.493	-5.38
703.522	1.62
703.55	18.62
703.578	7.62
703.606	6.62
703.634	3.62
703.662	1.62
703.69	-4.38
703.718	5.62
703.746	14.62
703.774	-1.38
703.802	14.62
703.83	-8.38
703.858	-1.38
703.886	-6.38
703.914	-7.38
703.942	13.62
703.97	-11.38
703.998	11.62
704.027	18.62
704.055	10.62
704.083	3.62
704.111	-13.38
704.139	-13.38
704.167	-0.38
704.195	9.62
704.223	6.62
704.251	4.62
704.279	-0.38
704.307	-2.38
704.335	-5.38
704.363	-4.38
704.391	1.62
704.419	-0.38
704.447	-17.38
704.475	7.62
704.503	-13.38
704.531	-2.38
704.558	10.62
704.586	3.62
704.614	-8.38
704.642	4.62
704.67	3.62
704.698	-1.38
704.726	6.62
704.754	-4.38
704.782	4.62
704.81	16.62
704.838	5.62
704.866	6.62
704.894	-10.38
704.922	3.62
704.95	20.62
704.978	10.62
705.006	-9.38
705.034	17.62
705.061	-13.38
705.089	-1.38
705.117	-16.38
705.145	-6.38
705.173	12.62
705.201	1.62
705.229	13.62
705.257	12.62
705.285	13.62
705.313	13.62
705.34	2.62
705.368	-4.38
705.396	2.62
705.424	1.62
705.452	-5.38
705.48	3.62
705.508	-4.38
705.536	-4.38
705.563	-9.38
705.591	-4.38
705.619	7.62
705.647	2.62
705.675	8.62
705.703	10.62
705.731	6.62
705.758	21.62
705.786	-5.38
705.814	22.62
705.842	16.62
705.87	14.62
705.898	12.62
705.925	-1.38
705.953	13.62
705.981	-8.38
706.009	-14.38
706.037	13.62
706.065	3.62
706.092	-7.38
706.12	9.62
706.148	2.62
706.176	-2.38
706.204	1.62
706.231	2.62
706.259	-13.38
706.287	-4.38
706.315	5.62
706.342	0.62
706.37	1.62
706.398	16.62
706.426	-6.38
706.454	-1.38
706.481	7.62
706.509	3.62
706.537	11.62
706.565	-0.38
706.592	18.62
706.62	-4.38
706.648	7.62
706.676	-8.38
706.703	9.62
706.731	-8.38
706.759	-10.38
706.787	-0.38
706.814	-6.38
706.842	6.62
706.87	-1.38
706.897	3.62
706.925	-17.38
706.953	8.62
706.981	24.62
707.008	18.62
707.036	12.62
707.064	-9.38
707.091	-12.38
707.119	11.62
707.147	-0.38
707.174	-1.38
707.202	2.62
707.23	-13.38
707.258	13.62
707.285	-7.38
707.313	20.62
707.341	-10.38
707.368	-7.38
707.396	-1.38
707.424	15.62
707.451	13.62
707.479	19.62
707.507	2.62
707.534	-2.38
707.562	19.62
707.59	-19.38
707.617	-16.38
707.645	6.62
707.672	-3.38
707.7	11.62
707.728	1.62
707.755	-3.38
707.783	1.62
707.811	8.62
707.838	2.62
707.866	13.62
707.893	-2.38
707.921	1.62
707.949	5.62
707.976	3.62
708.004	6.62
708.031	22.62
708.059	3.62
708.087	2.62
708.114	0.62
708.142	1.62
708.169	-6.38
708.197	-4.38
708.225	-0.38
708.252	7.62
708.28	18.62
708.307	-4.38
708.335	4.62
708.362	-14.38
708.39	1.62
708.418	1.62
708.445	-5.38
708.473	-19.38
708.5	5.62
708.528	7.62
708.555	15.62
708.583	1.62
708.61	-6.38
708.638	8.62
708.665	-5.38
708.693	-1.38
708.72	-11.38
708.748	-2.38
708.776	-0.38
708.803	2.62
708.831	16.62
708.858	16.62
708.886	1.62
708.913	11.62
708.941	0.62
708.968	9.62
708.996	-13.38
709.023	24.62
709.051	6.62
709.078	-2.38
709.105	-13.38
709.133	-4.38
709.16	4.62
709.188	6.62
709.215	7.62
709.243	20.62
709.27	-12.38
709.298	-6.38
709.325	-7.38
709.353	-3.38
709.38	7.62
709.408	-2.38
709.435	12.62
709.462	-0.38
709.49	14.62
709.517	-3.38
709.545	2.62
709.572	3.62
709.6	-0.38
709.627	18.62
709.655	5.62
709.682	1.62
709.709	-1.38
709.737	5.62
709.764	-0.38
709.792	12.62
709.819	14.62
709.846	22.62
709.874	11.62
709.901	9.62
709.929	22.62
709.956	3.62
709.983	-16.38
710.011	7.62
710.038	2.62
710.066	8.62
710.093	14.62
710.12	1.62
710.148	-3.38
710.175	-2.38
710.202	-1.38
710.23	17.62
710.257	18.62
710.284	0.62
710.312	-0.38
710.339	4.62
710.366	-3.38
710.394	0.62
710.421	6.62
710.448	3.62
710.476	1.62
710.503	-1.38
710.53	2.62
710.558	18.62
710.585	20.62
710.612	1.62
710.64	0.62
710.667	5.62
710.694	-9.38
710.722	11.62
710.749	2.62
710.776	7.62
710.804	21.62
710.831	4.62
710.858	1.62
710.885	-2.38
710.913	-13.38
710.94	20.62
710.967	2.62
710.995	8.62
711.022	-8.38
711.049	3.62
711.076	-23.38
711.104	-8.38
711.131	-18.38
711.158	12.62
711.185	11.62
711.213	-8.38
711.24	-3.38
711.267	-5.38
711.294	-5.38
711.322	28.62
711.349	11.62
711.376	-6.38
711.403	-5.38
711.431	-13.38
711.458	6.62
711.485	0.62
711.512	1.62
711.54	6.62
711.567	3.62
711.594	2.62
711.621	-1.38
711.648	6.62
711.676	7.62
711.703	12.62
711.73	-8.38
711.757	-5.38
711.784	-3.38
711.812	-13.38
711.839	-1.38
711.866	-1.38
711.893	4.62
711.92	5.62
711.947	-0.38
711.975	-9.38
712.002	3.62
712.029	-0.38
712.056	8.62
712.083	7.62
712.11	-6.38
712.138	10.62
712.165	-4.38
712.192	-8.38
712.219	-1.38
712.246	-15.38
712.273	-10.38
712.3	-11.38
712.328	1.62
712.355	21.62
712.382	-8.38
712.409	12.62
712.436	0.62
712.463	29.62
712.49	11.62
712.517	6.62
712.544	7.62
712.572	-1.38
712.599	1.62
712.626	15.62
712.653	-8.38
712.68	3.62
712.707	8.62
712.734	20.62
712.761	4.62
712.788	8.62
712.815	9.62
712.842	4.62
712.87	-1.38
712.897	9.62
712.924	-10.38
712.951	0.62
712.978	5.62
713.005	3.62
713.032	7.62
713.059	-1.38
713.086	-14.38
713.113	-14.38
713.14	-14.38
713.167	15.62
713.194	17.62
713.221	2.62
713.248	9.62
713.275	-11.38
713.302	-15.38
713.329	3.62
713.356	-1.38
713.383	2.62
713.41	1.62
713.437	-14.38
713.464	-3.38
713.491	15.62
713.518	10.62
713.545	12.62
713.572	-7.38
713.599	11.62
713.626	-1.38
713.653	-0.38
713.68	-13.38
713.707	4.62
713.734	21.62
713.761	-7.38
713.788	-17.38
713.815	23.62
713.842	0.62
713.869	5.62
713.896	2.62
713.923	0.62
713.95	-0.38
713.977	-7.38
714.004	0.62
714.031	-2.38
714.058	-1.38
714.085	-1.38
714.112	16.62
714.139	7.62
714.165	5.62
714.192	6.62
714.219	5.62
714.246	5.62
714.273	18.62
714.3	0.62
714.327	2.62
714.354	6.62
714.381	5.62
714.408	3.62
714.435	-7.38
714.461	-0.38
714.488	9.62
714.515	-12.38
714.542	-1.38
714.569	5.62
714.596	-13.38
714.623	2.62
714.65	2.62
714.677	-4.38
714.703	-4.38
714.73	5.62
714.757	15.62
714.784	5.62
714.811	-9.38
714.838	8.62
714.865	9.62
714.891	11.62
714.918	4.62
714.945	-11.38
714.972	6.62
714.999	21.62
715.026	5.62
715.052	16.62
715.079	4.62
715.106	19.62
715.133	3.62
715.16	4.62
715.187	17.62
715.213	4.62
715.24	-3.38
715.267	6.62
715.294	-6.38
715.321	-8.38
715.347	7.62
715.374	3.62
715.401	-3.38
715.428	5.62
715.455	3.62
715.481	6.62
715.508	17.62
715.535	7.62
715.562	5.62
715.588	3.62
715.615	-3.38
715.642	-12.38
715.669	3.62
715.695	-1.38
715.722	-18.38
715.749	-5.38
715.776	16.62
715.802	-14.38
715.829	-4.38
715.856	1.62
715.883	8.62
715.909	-0.38
715.936	5.62
715.963	-0.38
715.99	-12.38
716.016	1.62
716.043	6.62
716.07	-17.38
716.096	-18.38
716.123	5.62
716.15	4.62
716.177	-7.38
716.203	6.62
716.23	2.62
716.257	1.62
716.283	19.62
716.31	10.62
716.337	14.62
716.363	-1.38
716.39	-0.38
716.417	-1.38
716.443	-4.38
716.47	15.62
716.497	15.62
716.523	12.62
716.55	10.62
716.577	2.62
716.603	-6.38
716.63	2.62
716.657	12.62
716.683	-4.38
716.71	-3.38
716.737	-4.38
716.763	-3.38
716.79	-2.38
716.817	11.62
716.843	2.62
716.87	5.62
716.897	7.62
716.923	28.62
716.95	1.62
716.976	2.62
717.003	-2.38
717.03	-0.38
717.056	3.62
717.083	12.62
717.109	12.62
717.136	13.62
717.163	-6.38
717.189	-5.38
717.216	-1.38
717.242	9.62
717.269	11.62
717.296	15.62
717.322	3.62
717.349	11.62
717.375	17.62
717.402	2.62
717.428	1.62
717.455	9.62
717.481	4.62
717.508	-1.38
717.535	4.62
717.561	5.62
717.588	6.62
717.614	5.62
717.641	2.62
717.667	17.62
717.694	3.62
717.72	2.62
717.747	-8.38
717.773	7.62
717.8	15.62
717.826	4.62
717.853	-4.38
717.88	5.62
717.906	4.62
717.933	8.62
717.959	-1.38
717.986	13.62
718.012	3.62
718.039	2.62
718.065	11.62
718.092	25.62
718.118	-12.38
718.144	-2.38
718.171	8.62
718.197	21.62
718.224	16.62
718.25	15.62
718.277	12.62
718.303	14.62
718.33	1.62
718.356	9.62
718.383	-8.38
718.409	4.62
718.436	2.62
718.462	16.62
718.489	-11.38
718.515	10.62
718.541	19.62
718.568	-4.38
718.594	-1.38
718.621	-7.38
718.647	-8.38
718.674	7.62
718.7	15.62
718.726	-1.38
718.753	9.62
718.779	13.62
718.806	11.62
718.832	-4.38
718.858	3.62
718.885	-3.38
718.911	-6.38
718.938	4.62
718.964	-0.38
718.99	10.62
719.017	2.62
719.043	11.62
719.07	22.62
719.096	-13.38
719.122	1.62
719.149	3.62
719.175	21.62
719.201	15.62
719.228	5.62
719.254	10.62
719.281	-4.38
719.307	-11.38
719.333	-6.38
719.36	14.62
719.386	-5.38
719.412	5.62
719.439	-4.38
719.465	-5.38
719.491	-4.38
719.518	-6.38
719.544	-2.38
719.57	6.62
719.597	3.62
719.623	-7.38
719.649	0.62
719.675	0.62
719.702	-4.38
719.728	17.62
719.754	-5.38
719.781	5.62
719.807	-0.38
719.833	5.62
719.86	5.62
719.886	-5.38
719.912	-6.38
719.938	14.62
719.965	9.62
719.991	2.62
720.017	5.62
720.044	7.62
720.07	15.62
720.096	10.62
720.122	-0.38
720.149	18.62
720.175	34.62
720.201	14.62
720.227	9.62
720.254	-0.38
720.28	9.62
720.306	-5.38
720.332	3.62
720.359	11.62
720.385	14.62
720.411	-2.38
720.437	7.62
720.463	-2.38
720.49	20.62
720.516	-4.38
720.542	-12.38
720.568	1.62
720.595	9.62
720.621	-3.38
720.647	-0.38
720.673	1.62
720.699	8.62
720.725	8.62
720.752	15.62
720.778	13.62
720.804	19.62
720.83	7.62
720.856	9.62
720.883	-6.38
720.909	-2.38
720.935	-1.38
720.961	14.62
720.987	12.62
721.013	-6.38
721.04	1.62
721.066	-0.38
721.092	-0.38
721.118	1.62
721.144	3.62
721.17	-0.38
721.196	-6.38
721.223	-0.38
721.249	1.62
721.275	13.62
721.301	3.62
721.327	-4.38
721.353	4.62
721.379	14.62
721.405	1.62
721.432	20.62
721.458	15.62
721.484	15.62
721.51	-9.38
721.536	1.62
721.562	-5.38
721.588	2.62
721.614	1.62
721.64	-14.38
721.666	-8.38
721.693	-8.38
721.719	3.62
721.745	-3.38
721.771	-12.38
721.797	-1.38
721.823	6.62
721.849	4.62
721.875	7.62
721.901	-2.38
721.927	-10.38
721.953	16.62
721.979	15.62
722.005	17.62
722.031	-13.38
722.057	18.62
722.083	24.62
722.109	16.62
722.135	23.62
722.161	11.62
722.187	8.62
722.214	-1.38
722.24	7.62
722.266	9.62
722.292	7.62
722.318	10.62
722.344	3.62
722.37	10.62
722.396	3.62
722.422	2.62
722.448	15.62
722.474	-2.38
722.5	1.62
722.526	-8.38
722.552	14.62
722.578	1.62
722.603	10.62
722.629	4.62
722.655	-5.38
722.681	-6.38
722.707	-1.38
722.733	3.62
722.759	-1.38
722.785	-2.38
722.811	3.62
722.837	2.62
722.863	2.62
722.889	21.62
722.915	8.62
722.941	2.62
722.967	13.62
722.993	25.62
723.019	1.62
723.045	9.62
723.071	-6.38
723.097	8.62
723.122	-1.38
723.148	-0.38
723.174	6.62
723.2	9.62
723.226	11.62
723.252	5.62
723.278	1.62
723.304	-8.38
723.33	10.62
723.356	-3.38
723.381	-3.38
723.407	-11.38
723.433	8.62
723.459	7.62
723.485	5.62
723.511	17.62
723.537	-1.38
723.563	7.62
723.588	1.62
723.614	8.62
723.64	22.62
723.666	7.62
723.692	4.62
723.718	7.62
723.744	4.62
723.769	-2.38
723.795	-1.38
723.821	0.62
723.847	-2.38
723.873	2.62
723.899	4.62
723.924	-7.38
723.95	-4.38
723.976	-12.38
724.002	7.62
724.028	12.62
724.053	-2.38
724.079	4.62
724.105	1.62
724.131	9.62
724.157	6.62
724.182	3.62
724.208	-1.38
724.234	-4.38
724.26	-1.38
724.286	6.62
724.311	-1.38
724.337	-2.38
724.363	7.62
724.389	-1.38
724.415	3.62
724.44	21.62
724.466	3.62
724.492	1.62
724.518	16.62
724.543	2.62
724.569	4.62
724.595	2.62
724.621	2.62
724.646	-8.38
724.672	-2.38
724.698	-3.38
724.723	-0.38
724.749	-0.38
724.775	21.62
724.801	-1.38
724.826	0.62
724.852	6.62
724.878	2.62
724.904	-8.38
724.929	8.62
724.955	-8.38
724.981	-2.38
725.006	3.62
725.032	-3.38
725.058	6.62
725.083	5.62
725.109	-0.38
725.135	-4.38
725.161	12.62
725.186	-2.38
725.212	-1.38
725.238	13.62
725.263	12.62
725.289	-20.38
725.315	-10.38
725.34	-13.38
725.366	15.62
725.392	-1.38
725.417	2.62
725.443	7.62
725.468	9.62
725.494	14.62
725.52	30.62
725.545	13.62
725.571	4.62
725.597	-4.38
725.622	-2.38
725.648	10.62
725.674	-3.38
725.699	-8.38
725.725	-3.38
725.75	34.62
725.776	2.62
725.802	-2.38
725.827	-8.38
725.853	2.62
725.878	-4.38
725.904	9.62
725.93	5.62
725.955	-2.38
725.981	4.62
726.006	-9.38
726.032	2.62
726.057	2.62
726.083	5.62
726.109	-2.38
726.134	5.62
726.16	15.62
726.185	3.62
726.211	-4.38
726.236	10.62
726.262	4.62
726.288	-4.38
726.313	26.62
726.339	9.62
726.364	-4.38
726.39	12.62
726.415	4.62
726.441	-2.38
726.466	-1.38
726.492	13.62
726.517	-3.38
726.543	-1.38
726.568	4.62
726.594	11.62
726.619	2.62
726.645	5.62
726.67	11.62
726.696	4.62
726.721	-2.38
726.747	-7.38
726.772	3.62
726.798	-4.38
726.823	10.62
726.849	3.62
726.874	2.62
726.9	28.62
726.925	22.62
726.951	4.62
726.976	10.62
727.002	-1.38
727.027	7.62
727.053	10.62
727.078	-0.38
727.104	7.62
727.129	-2.38
727.155	3.62
727.18	9.62
727.205	-14.38
727.231	-6.38
727.256	11.62
727.282	12.62
727.307	6.62
727.333	-1.38
727.358	-10.38
727.383	-1.38
727.409	5.62
727.434	9.62
727.46	8.62
727.485	2.62
727.511	-9.38
727.536	0.62
727.561	-6.38
727.587	1.62
727.612	-9.38
727.637	3.62
727.663	-1.38
727.688	14.62
727.714	8.62
727.739	3.62
727.764	-0.38
727.79	-1.38
727.815	14.62
727.841	17.62
727.866	6.62
727.891	-6.38
727.917	9.62
727.942	-1.38
727.967	-2.38
727.993	-11.38
728.018	-9.38
728.043	-7.38
728.069	-11.38
728.094	22.62
728.119	-4.38
728.145	10.62
728.17	-0.38
728.195	2.62
728.221	16.62
728.246	6.62
728.271	2.62
728.297	-0.38
728.322	3.62
728.347	0.62
728.373	3.62
728.398	13.62
728.423	-5.38
728.448	-0.38
728.474	-7.38
728.499	6.62
728.524	-3.38
728.55	-13.38
728.575	-0.38
728.6	4.62
728.625	4.62
728.651	-3.38
728.676	4.62
728.701	1.62
728.727	5.62
728.752	-1.38
728.777	1.62
728.802	11.62
728.828	6.62
728.853	-0.38
728.878	-0.38
728.903	-2.38
728.929	-4.38
728.954	-6.38
728.979	9.62
729.004	-4.38
729.03	-1.38
729.055	-2.38
729.08	-13.38
729.105	7.62
729.13	3.62
729.156	2.62
729.181	9.62
729.206	-22.38
729.231	-10.38
729.256	10.62
729.282	15.62
729.307	-4.38
729.332	3.62
729.357	-4.38
729.382	-1.38
729.408	10.62
729.433	2.62
729.458	6.62
729.483	2.62
729.508	26.62
729.533	2.62
729.559	-2.38
729.584	-9.38
729.609	16.62
729.634	21.62
729.659	6.62
729.684	8.62
729.71	18.62
729.735	-8.38
729.76	12.62
729.785	1.62
729.81	12.62
729.835	-10.38
729.86	-8.38
729.886	15.62
729.911	-4.38
729.936	7.62
729.961	-2.38
729.986	-17.38
730.011	2.62
730.036	-2.38
730.061	-5.38
730.086	-9.38
730.112	6.62
730.137	13.62
730.162	6.62
730.187	-12.38
730.212	9.62
730.237	-13.38
730.262	4.62
730.287	-4.38
730.312	26.62
730.337	-8.38
730.362	14.62
730.387	13.62
730.413	-3.38
730.438	-0.38
730.463	8.62
730.488	2.62
730.513	-3.38
730.538	-1.38
730.563	21.62
730.588	7.62
730.613	6.62
730.638	2.62
730.663	15.62
730.688	12.62
730.713	-2.38
730.738	1.62
730.763	4.62
730.788	-6.38
730.813	9.62
730.838	-1.38
730.863	-3.38
730.888	5.62
730.913	-0.38
730.938	-1.38
730.963	-11.38
730.988	9.62
731.013	24.62
731.038	4.62
731.063	-7.38
731.088	11.62
731.113	-0.38
731.138	-11.38
731.163	6.62
731.188	-1.38
731.213	3.62
731.238	-3.38
731.263	-7.38
731.288	-4.38
731.313	20.62
731.338	7.62
731.363	-1.38
731.388	19.62
731.413	15.62
731.438	14.62
731.463	7.62
731.487	4.62
731.512	-6.38
731.537	2.62
731.562	11.62
731.587	3.62
731.612	-9.38
731.637	-17.38
731.662	-10.38
731.687	-0.38
731.712	-12.38
731.737	7.62
731.762	3.62
731.786	10.62
731.811	15.62
731.836	-10.38
731.861	-6.38
731.886	0.62
731.911	9.62
731.936	3.62
731.961	11.62
731.986	-8.38
732.01	7.62
732.035	16.62
732.06	14.62
732.085	-10.38
732.11	11.62
732.135	-9.38
732.16	17.62
732.184	-0.38
732.209	15.62
732.234	23.62
732.259	-1.38
732.284	13.62
732.309	13.62
732.334	-10.38
732.358	-25.38
732.383	-1.38
732.408	4.62
732.433	-4.38
732.458	15.62
732.482	15.62
732.507	2.62
732.532	-8.38
732.557	17.62
732.582	15.62
732.607	-3.38
732.631	10.62
732.656	-7.38
732.681	-0.38
732.706	-7.38
732.73	5.62
732.755	-1.38
732.78	-5.38
732.805	3.62
732.83	-1.38
732.854	10.62
732.879	14.62
732.904	-8.38
732.929	-10.38
732.953	10.62
732.978	10.62
733.003	-5.38
733.028	-6.38
733.052	7.62
733.077	5.62
733.102	15.62
733.127	-17.38
733.151	-1.38
733.176	14.62
733.201	-5.38
733.226	-11.38
733.25	2.62
733.275	11.62
733.3	-3.38
733.324	14.62
733.349	16.62
733.374	15.62
733.399	6.62
733.423	-8.38
733.448	-1.38
733.473	-2.38
733.497	-3.38
733.522	-18.38
733.547	17.62
733.571	13.62
733.596	11.62
733.621	10.62
733.646	2.62
733.67	7.62
733.695	-0.38
733.72	19.62
733.744	23.62
733.769	5.62
733.794	8.62
733.818	-3.38
733.843	-9.38
733.867	-4.38
733.892	-12.38
733.917	7.62
733.941	14.62
733.966	10.62
733.991	10.62
734.015	10.62
734.04	3.62
734.065	17.62
734.089	16.62
734.114	-3.38
734.138	2.62
734.163	1.62
734.188	3.62
734.212	5.62
734.237	10.62
734.261	9.62
734.286	-0.38
734.311	12.62
734.335	-1.38
734.36	12.62
734.384	10.62
734.409	-7.38
734.434	7.62
734.458	25.62
734.483	7.62
734.507	-10.38
734.532	-9.38
734.556	-1.38
734.581	4.62
734.606	-5.38
734.63	-12.38
734.655	1.62
734.679	-2.38
734.704	0.62
734.728	10.62
734.753	-1.38
734.777	1.62
734.802	-9.38
734.826	4.62
734.851	-0.38
734.876	9.62
734.9	17.62
734.925	7.62
734.949	-1.38
734.974	8.62
734.998	7.62
735.023	-6.38
735.047	-26.38
735.072	15.62
735.096	1.62
735.121	6.62
735.145	0.62
735.17	-6.38
735.194	9.62
735.219	0.62
735.243	-2.38
735.268	-6.38
735.292	2.62
735.317	9.62
735.341	1.62
735.365	-6.38
735.39	5.62
735.414	8.62
735.439	-12.38
735.463	1.62
735.488	1.62
735.512	20.62
735.537	13.62
735.561	6.62
735.586	11.62
735.61	14.62
735.634	-8.38
735.659	10.62
735.683	20.62
735.708	-5.38
735.732	-13.38
735.757	18.62
735.781	6.62
735.805	5.62
735.83	-9.38
735.854	18.62
735.879	16.62
735.903	7.62
735.927	-0.38
735.952	6.62
735.976	6.62
736.001	11.62
736.025	4.62
736.049	15.62
736.074	4.62
736.098	-3.38
736.123	1.62
736.147	1.62
736.171	10.62
736.196	-1.38
736.22	-7.38
736.244	6.62
736.269	-4.38
736.293	4.62
736.317	10.62
736.342	-1.38
736.366	-4.38
736.39	12.62
736.415	10.62
736.439	3.62
736.463	10.62
736.488	24.62
736.512	18.62
736.536	12.62
736.561	29.62
736.585	9.62
736.609	25.62
736.634	-8.38
736.658	-12.38
736.682	-4.38
736.707	-5.38
736.731	-4.38
736.755	2.62
736.78	27.62
736.804	20.62
736.828	23.62
736.852	5.62
736.877	0.62
736.901	7.62
736.925	12.62
736.949	7.62
736.974	5.62
736.998	5.62
737.022	0.62
737.047	9.62
737.071	12.62
737.095	18.62
737.119	28.62
737.144	16.62
737.168	-2.38
737.192	4.62
737.216	-7.38
737.241	-8.38
737.265	-6.38
737.289	-0.38
737.313	-2.38
737.337	20.62
737.362	14.62
737.386	27.62
737.41	7.62
737.434	3.62
737.459	9.62
737.483	5.62
737.507	-3.38
737.531	7.62
737.555	6.62
737.58	25.62
737.604	4.62
737.628	-5.38
737.652	-3.38
737.676	6.62
737.701	5.62
737.725	7.62
737.749	12.62
737.773	-0.38
737.797	2.62
737.821	6.62
737.846	-3.38
737.87	14.62
737.894	13.62
737.918	1.62
737.942	2.62
737.966	6.62
737.99	20.62
738.015	4.62
738.039	11.62
738.063	6.62
738.087	1.62
738.111	-2.38
738.135	13.62
738.159	3.62
738.184	1.62
738.208	-9.38
738.232	12.62
738.256	9.62
738.28	11.62
738.304	10.62
738.328	5.62
738.352	-6.38
738.376	2.62
738.4	8.62
738.425	13.62
738.449	3.62
738.473	22.62
738.497	7.62
738.521	3.62
738.545	4.62
738.569	-4.38
738.593	11.62
738.617	6.62
738.641	5.62
738.665	-1.38
738.689	10.62
738.713	3.62
738.737	13.62
738.762	20.62
738.786	5.62
738.81	-3.38
738.834	6.62
738.858	5.62
738.882	4.62
738.906	-0.38
738.93	11.62
738.954	10.62
738.978	4.62
739.002	7.62
739.026	12.62
739.05	9.62
739.074	13.62
739.098	21.62
739.122	11.62
739.146	9.62
739.17	10.62
739.194	15.62
739.218	-1.38
739.242	-1.38
739.266	11.62
739.29	12.62
739.314	8.62
739.338	13.62
739.362	4.62
739.386	3.62
739.41	-3.38
739.434	-8.38
739.458	17.62
739.482	4.62
739.506	-1.38
739.53	-8.38
739.554	21.62
739.577	3.62
739.601	14.62
739.625	3.62
739.649	1.62
739.673	4.62
739.697	14.62
739.721	-0.38
739.745	35.62
739.769	7.62
739.793	11.62
739.817	8.62
739.841	4.62
739.865	-7.38
739.889	-10.38
739.912	-3.38
739.936	6.62
739.96	-1.38
739.984	6.62
740.008	1.62
740.032	-13.38
740.056	-2.38
740.08	9.62
740.104	-5.38
740.127	-5.38
740.151	0.62
740.175	11.62
740.199	15.62
740.223	44.62
740.247	7.62
740.271	6.62
740.295	12.62
740.318	2.62
740.342	-5.38
740.366	1.62
740.39	6.62
740.414	1.62
740.438	-4.38
740.461	11.62
740.485	11.62
740.509	3.62
740.533	9.62
740.557	1.62
740.581	5.62
740.604	-7.38
740.628	-1.38
740.652	13.62
740.676	-5.38
740.7	21.62
740.723	-4.38
740.747	-2.38
740.771	5.62
740.795	-6.38
740.819	24.62
740.842	-5.38
740.866	1.62
740.89	4.62
740.914	4.62
740.938	-8.38
740.961	10.62
740.985	8.62
741.009	1.62
741.033	9.62
741.056	19.62
741.08	5.62
741.104	6.62
741.128	-2.38
741.151	18.62
741.175	14.62
741.199	-1.38
741.223	5.62
741.246	-3.38
741.27	13.62
741.294	5.62
741.318	-6.38
741.341	-5.38
741.365	-9.38
741.389	-1.38
741.413	12.62
741.436	20.62
741.46	20.62
741.484	12.62
741.507	1.62
741.531	23.62
741.555	29.62
741.579	10.62
741.602	14.62
741.626	25.62
741.65	13.62
741.673	11.62
741.697	-0.38
741.721	16.62
741.744	2.62
741.768	6.62
741.792	3.62
741.815	8.62
741.839	2.62
741.863	12.62
741.886	17.62
741.91	15.62
741.934	4.62
741.957	-9.38
741.981	15.62
742.005	12.62
742.028	1.62
742.052	-4.38
742.075	11.62
742.099	8.62
742.123	-4.38
742.146	-6.38
742.17	0.62
742.194	4.62
742.217	1.62
742.241	7.62
742.264	6.62
742.288	20.62
742.312	21.62
742.335	11.62
742.359	-0.38
742.382	0.62
742.406	18.62
742.43	3.62
742.453	15.62
742.477	-0.38
742.5	6.62
742.524	-5.38
742.548	-9.38
742.571	-7.38
742.595	-6.38
742.618	-12.38
742.642	-6.38
742.665	15.62
742.689	-3.38
742.712	3.62
742.736	-0.38
742.76	6.62
742.783	-4.38
742.807	21.62
742.83	3.62
742.854	-1.38
742.877	-5.38
742.901	-11.38
742.924	-6.38
742.948	0.62
742.971	14.62
742.995	-0.38
743.018	-4.38
743.042	1.62
743.065	-5.38
743.089	-5.38
743.112	8.62
743.136	10.62
743.159	-5.38
743.183	-1.38
743.206	16.62
743.23	4.62
743.253	12.62
743.277	15.62
743.3	9.62
743.324	-10.38
743.347	2.62
743.371	-2.38
743.394	8.62
743.418	7.62
743.441	12.62
743.465	-0.38
743.488	14.62
743.512	10.62
743.535	-1.38
743.558	20.62
743.582	9.62
743.605	13.62
743.629	17.62
743.652	15.62
743.676	-0.38
743.699	12.62
743.723	5.62
743.746	10.62
743.769	0.62
743.793	13.62
743.816	7.62
743.84	25.62
743.863	1.62
743.886	5.62
743.91	11.62
743.933	1.62
743.957	-0.38
743.98	4.62
744.003	18.62
744.027	2.62
744.05	-4.38
744.074	2.62
744.097	-6.38
744.12	7.62
744.144	2.62
744.167	-0.38
744.19	9.62
744.214	0.62
744.237	-13.38
744.26	15.62
744.284	-3.38
744.307	-8.38
744.331	13.62
744.354	10.62
744.377	-1.38
744.401	6.62
744.424	4.62
744.447	0.62
744.471	-11.38
