Data from LowRes_mercury_15_20_11_07_2024_HR4C61881__99__15-23-42-170.txt Node

Date: Thu Nov 07 15:23:42 EST 2024
User: crc00042
Spectrometer: HR4C6188
Trigger mode: 4
Integration Time (sec): 1.000000E-1
Scans to average: 1
Electric dark correction enabled: true
Nonlinearity correction enabled: false
Boxcar width: 0
XAxis mode: Wavelengths
Number of Pixels in Spectrum: 3648
>>>>>Begin Spectral Data<<<<<
245.66	-54.23
245.797	-54.23
245.934	-54.23
246.071	-65.23
246.208	18.77
246.344	2.77
246.481	-14.23
246.618	-13.23
246.755	8.77
246.892	12.77
247.029	3.77
247.165	-19.23
247.302	27.77
247.439	-12.23
247.576	0.77
247.713	-2.23
247.849	12.77
247.986	-8.23
248.123	-0.23
248.26	-7.23
248.396	2.77
248.533	6.77
248.67	1.77
248.806	0.77
248.943	-0.23
249.08	1.77
249.216	8.77
249.353	-19.23
249.49	-12.23
249.626	3.77
249.763	-4.23
249.9	-20.23
250.036	-4.23
250.173	16.77
250.309	8.77
250.446	-14.23
250.582	-10.23
250.719	-12.23
250.856	-5.23
250.992	-5.23
251.129	-1.23
251.265	-2.23
251.402	18.77
251.538	-5.23
251.675	5.77
251.811	0.77
251.948	29.77
252.084	8.77
252.221	-0.23
252.357	0.77
252.493	40.77
252.63	-13.23
252.766	30.77
252.903	7.77
253.039	-0.23
253.175	-4.23
253.312	17.77
253.448	-4.23
253.585	-24.23
253.721	15.77
253.857	9.77
253.994	14.77
254.13	3.77
254.266	2.77
254.403	-6.23
254.539	6.77
254.675	17.77
254.811	2.77
254.948	3.77
255.084	12.77
255.22	-9.23
255.356	10.77
255.493	11.77
255.629	7.77
255.765	15.77
255.901	7.77
256.037	-1.23
256.174	6.77
256.31	-20.23
256.446	-9.23
256.582	5.77
256.718	13.77
256.854	1.77
256.991	-6.23
257.127	20.77
257.263	-11.23
257.399	22.77
257.535	-15.23
257.671	-3.23
257.807	-7.23
257.943	16.77
258.079	-2.23
258.215	-1.23
258.351	22.77
258.487	5.77
258.623	12.77
258.759	-3.23
258.895	-1.23
259.031	-5.23
259.167	-10.23
259.303	18.77
259.439	-6.23
259.575	2.77
259.711	5.77
259.847	4.77
259.983	8.77
260.119	8.77
260.255	10.77
260.391	6.77
260.527	6.77
260.663	4.77
260.799	14.77
260.934	3.77
261.07	2.77
261.206	-2.23
261.342	-19.23
261.478	7.77
261.614	9.77
261.749	-3.23
261.885	6.77
262.021	-5.23
262.157	18.77
262.293	-11.23
262.428	-8.23
262.564	12.77
262.7	9.77
262.836	9.77
262.971	17.77
263.107	-0.23
263.243	18.77
263.378	18.77
263.514	-11.23
263.65	4.77
263.785	-17.23
263.921	-2.23
264.057	10.77
264.192	17.77
264.328	24.77
264.464	18.77
264.599	13.77
264.735	19.77
264.871	-7.23
265.006	17.77
265.142	5.77
265.277	-0.23
265.413	22.77
265.548	7.77
265.684	28.77
265.819	-1.23
265.955	13.77
266.091	-7.23
266.226	-5.23
266.362	-10.23
266.497	-14.23
266.633	-8.23
266.768	-5.23
266.903	15.77
267.039	14.77
267.174	35.77
267.31	-1.23
267.445	-5.23
267.581	11.77
267.716	16.77
267.851	0.77
267.987	15.77
268.122	25.77
268.258	-9.23
268.393	2.77
268.528	19.77
268.664	-5.23
268.799	-13.23
268.934	12.77
269.07	-13.23
269.205	-0.23
269.34	25.77
269.476	5.77
269.611	-24.23
269.746	33.77
269.881	21.77
270.017	25.77
270.152	19.77
270.287	15.77
270.422	23.77
270.558	5.77
270.693	15.77
270.828	3.77
270.963	-3.23
271.098	0.77
271.234	-1.23
271.369	13.77
271.504	-6.23
271.639	-12.23
271.774	1.77
271.909	14.77
272.045	3.77
272.18	-18.23
272.315	-7.23
272.45	-0.23
272.585	-3.23
272.72	-12.23
272.855	17.77
272.99	26.77
273.125	1.77
273.26	-4.23
273.395	14.77
273.53	-13.23
273.665	3.77
273.8	15.77
273.935	1.77
274.07	13.77
274.205	39.77
274.34	-10.23
274.475	-0.23
274.61	27.77
274.745	14.77
274.88	13.77
275.015	10.77
275.15	5.77
275.285	3.77
275.42	2.77
275.555	11.77
275.69	-6.23
275.825	-4.23
275.959	-6.23
276.094	-6.23
276.229	-4.23
276.364	-22.23
276.499	-5.23
276.634	-7.23
276.768	-11.23
276.903	10.77
277.038	17.77
277.173	7.77
277.308	-0.23
277.442	-11.23
277.577	-6.23
277.712	4.77
277.847	10.77
277.981	-0.23
278.116	-7.23
278.251	6.77
278.386	14.77
278.52	-1.23
278.655	5.77
278.79	24.77
278.924	11.77
279.059	3.77
279.194	-11.23
279.328	32.77
279.463	10.77
279.598	26.77
279.732	28.77
279.867	15.77
280.001	23.77
280.136	7.77
280.271	10.77
280.405	32.77
280.54	1.77
280.674	-2.23
280.809	7.77
280.943	12.77
281.078	11.77
281.213	23.77
281.347	22.77
281.482	2.77
281.616	13.77
281.751	14.77
281.885	-15.23
282.02	9.77
282.154	17.77
282.288	-5.23
282.423	-3.23
282.557	-10.23
282.692	-1.23
282.826	3.77
282.961	-0.23
283.095	0.77
283.229	2.77
283.364	-0.23
283.498	13.77
283.633	10.77
283.767	14.77
283.901	8.77
284.036	-0.23
284.17	-12.23
284.304	-9.23
284.439	-7.23
284.573	13.77
284.707	28.77
284.842	12.77
284.976	4.77
285.11	-8.23
285.244	4.77
285.379	61.77
285.513	-3.23
285.647	5.77
285.781	-4.23
285.916	14.77
286.05	-5.23
286.184	23.77
286.318	18.77
286.453	-12.23
286.587	-13.23
286.721	-9.23
286.855	2.77
286.989	16.77
287.123	1.77
287.258	-8.23
287.392	1.77
287.526	12.77
287.66	19.77
287.794	-12.23
287.928	0.77
288.062	23.77
288.196	20.77
288.33	9.77
288.464	-1.23
288.598	10.77
288.733	-5.23
288.867	14.77
289.001	20.77
289.135	8.77
289.269	-5.23
289.403	8.77
289.537	8.77
289.671	8.77
289.805	-21.23
289.939	8.77
290.073	-2.23
290.207	9.77
290.34	-1.23
290.474	21.77
290.608	30.77
290.742	4.77
290.876	7.77
291.01	13.77
291.144	19.77
291.278	26.77
291.412	30.77
291.546	22.77
291.679	10.77
291.813	28.77
291.947	16.77
292.081	12.77
292.215	9.77
292.349	17.77
292.482	32.77
292.616	7.77
292.75	15.77
292.884	21.77
293.018	17.77
293.151	-9.23
293.285	10.77
293.419	-20.23
293.553	-1.23
293.686	-5.23
293.82	22.77
293.954	24.77
294.088	25.77
294.221	-2.23
294.355	-7.23
294.489	11.77
294.622	-7.23
294.756	12.77
294.89	-0.23
295.023	2.77
295.157	21.77
295.291	10.77
295.424	21.77
295.558	10.77
295.691	-4.23
295.825	5.77
295.959	13.77
296.092	-5.23
296.226	-2.23
296.359	13.77
296.493	9.77
296.627	12.77
296.76	19.77
296.894	-13.23
297.027	-7.23
297.161	10.77
297.294	-6.23
297.428	-1.23
297.561	29.77
297.695	9.77
297.828	-19.23
297.962	6.77
298.095	7.77
298.229	15.77
298.362	-3.23
298.495	-3.23
298.629	-12.23
298.762	11.77
298.896	-9.23
299.029	-8.23
299.162	8.77
299.296	-5.23
299.429	10.77
299.563	-6.23
299.696	5.77
299.829	-5.23
299.963	0.77
300.096	18.77
300.229	13.77
300.363	-5.23
300.496	-1.23
300.629	-26.23
300.763	-1.23
300.896	-6.23
301.029	3.77
301.162	17.77
301.296	-9.23
301.429	6.77
301.562	-13.23
301.695	8.77
301.829	-2.23
301.962	9.77
302.095	1.77
302.228	-15.23
302.362	2.77
302.495	-6.23
302.628	-4.23
302.761	-1.23
302.894	9.77
303.027	0.77
303.161	-3.23
303.294	10.77
303.427	19.77
303.56	8.77
303.693	14.77
303.826	1.77
303.959	16.77
304.092	-0.23
304.225	2.77
304.359	22.77
304.492	6.77
304.625	-6.23
304.758	18.77
304.891	-2.23
305.024	15.77
305.157	15.77
305.29	-12.23
305.423	14.77
305.556	33.77
305.689	15.77
305.822	6.77
305.955	11.77
306.088	8.77
306.221	8.77
306.354	-1.23
306.487	-0.23
306.62	11.77
306.752	9.77
306.885	-3.23
307.018	2.77
307.151	15.77
307.284	6.77
307.417	-9.23
307.55	18.77
307.683	6.77
307.816	24.77
307.948	28.77
308.081	14.77
308.214	23.77
308.347	29.77
308.48	10.77
308.613	-0.23
308.745	-3.23
308.878	-8.23
309.011	-2.23
309.144	14.77
309.277	0.77
309.409	15.77
309.542	10.77
309.675	-1.23
309.808	15.77
309.94	12.77
310.073	-11.23
310.206	11.77
310.339	13.77
310.471	-23.23
310.604	33.77
310.737	-4.23
310.869	-1.23
311.002	3.77
311.135	12.77
311.267	-13.23
311.4	-11.23
311.533	23.77
311.665	6.77
311.798	5.77
311.93	10.77
312.063	27.77
312.196	38.77
312.328	77.77
312.461	48.77
312.593	30.77
312.726	69.77
312.859	103.77
312.991	176.77
313.124	59.77
313.256	21.77
313.389	23.77
313.521	0.77
313.654	-8.23
313.786	-21.23
313.919	-5.23
314.051	-8.23
314.184	0.77
314.316	19.77
314.449	-4.23
314.581	7.77
314.714	4.77
314.846	0.77
314.978	-11.23
315.111	-8.23
315.243	11.77
315.376	9.77
315.508	-1.23
315.641	5.77
315.773	9.77
315.905	12.77
316.038	22.77
316.17	11.77
316.302	10.77
316.435	-12.23
316.567	-15.23
316.699	30.77
316.832	-13.23
316.964	14.77
317.096	3.77
317.229	-0.23
317.361	-11.23
317.493	-11.23
317.625	-13.23
317.758	14.77
317.89	12.77
318.022	18.77
318.155	8.77
318.287	14.77
318.419	14.77
318.551	31.77
318.683	2.77
318.816	-9.23
318.948	7.77
319.08	-6.23
319.212	5.77
319.344	3.77
319.477	13.77
319.609	7.77
319.741	19.77
319.873	1.77
320.005	6.77
320.137	-2.23
320.269	10.77
320.401	22.77
320.534	-5.23
320.666	-8.23
320.798	0.77
320.93	15.77
321.062	1.77
321.194	-11.23
321.326	14.77
321.458	7.77
321.59	-4.23
321.722	-6.23
321.854	9.77
321.986	6.77
322.118	3.77
322.25	0.77
322.382	-15.23
322.514	-9.23
322.646	4.77
322.778	7.77
322.91	8.77
323.042	16.77
323.174	12.77
323.306	-3.23
323.438	-7.23
323.57	15.77
323.702	2.77
323.834	14.77
323.966	-3.23
324.097	1.77
324.229	-1.23
324.361	9.77
324.493	17.77
324.625	3.77
324.757	9.77
324.889	17.77
325.021	8.77
325.152	20.77
325.284	23.77
325.416	-0.23
325.548	9.77
325.68	11.77
325.811	29.77
325.943	9.77
326.075	-12.23
326.207	10.77
326.339	5.77
326.47	-4.23
326.602	22.77
326.734	15.77
326.866	16.77
326.997	0.77
327.129	6.77
327.261	-22.23
327.392	-7.23
327.524	18.77
327.656	7.77
327.787	14.77
327.919	22.77
328.051	1.77
328.182	23.77
328.314	33.77
328.446	-8.23
328.577	18.77
328.709	22.77
328.841	-1.23
328.972	-13.23
329.104	-3.23
329.235	3.77
329.367	7.77
329.499	-7.23
329.63	7.77
329.762	6.77
329.893	3.77
330.025	14.77
330.156	-5.23
330.288	-10.23
330.419	24.77
330.551	1.77
330.683	8.77
330.814	-2.23
330.946	10.77
331.077	-0.23
331.208	1.77
331.34	33.77
331.471	1.77
331.603	5.77
331.734	-7.23
331.866	29.77
331.997	11.77
332.129	2.77
332.26	10.77
332.392	34.77
332.523	9.77
332.654	1.77
332.786	-2.23
332.917	0.77
333.048	9.77
333.18	24.77
333.311	-17.23
333.443	1.77
333.574	19.77
333.705	51.77
333.837	46.77
333.968	134.77
334.099	228.77
334.231	211.77
334.362	49.77
334.493	14.77
334.624	24.77
334.756	26.77
334.887	10.77
335.018	9.77
335.15	15.77
335.281	14.77
335.412	42.77
335.543	22.77
335.675	9.77
335.806	5.77
335.937	-0.23
336.068	9.77
336.199	39.77
336.331	13.77
336.462	20.77
336.593	25.77
336.724	8.77
336.855	23.77
336.986	15.77
337.118	10.77
337.249	28.77
337.38	17.77
337.511	-1.23
337.642	10.77
337.773	19.77
337.904	27.77
338.035	17.77
338.166	11.77
338.298	2.77
338.429	10.77
338.56	10.77
338.691	14.77
338.822	25.77
338.953	6.77
339.084	26.77
339.215	38.77
339.346	12.77
339.477	16.77
339.608	21.77
339.739	17.77
339.87	15.77
340.001	3.77
340.132	21.77
340.263	19.77
340.394	21.77
340.525	19.77
340.656	8.77
340.787	13.77
340.918	25.77
341.049	19.77
341.179	11.77
341.31	9.77
341.441	9.77
341.572	11.77
341.703	8.77
341.834	7.77
341.965	27.77
342.096	23.77
342.227	14.77
342.357	4.77
342.488	11.77
342.619	18.77
342.75	28.77
342.881	22.77
343.012	42.77
343.142	57.77
343.273	19.77
343.404	31.77
343.535	52.77
343.666	43.77
343.796	24.77
343.927	31.77
344.058	45.77
344.189	32.77
344.319	9.77
344.45	15.77
344.581	24.77
344.712	13.77
344.842	30.77
344.973	16.77
345.104	28.77
345.234	22.77
345.365	-1.23
345.496	35.77
345.626	29.77
345.757	31.77
345.888	18.77
346.018	27.77
346.149	14.77
346.28	36.77
346.41	15.77
346.541	32.77
346.672	8.77
346.802	22.77
346.933	21.77
347.063	22.77
347.194	22.77
347.325	23.77
347.455	40.77
347.586	29.77
347.716	8.77
347.847	41.77
347.977	28.77
348.108	47.77
348.238	30.77
348.369	36.77
348.499	30.77
348.63	44.77
348.76	41.77
348.891	41.77
349.021	67.77
349.152	35.77
349.282	39.77
349.413	49.77
349.543	52.77
349.674	22.77
349.804	35.77
349.935	39.77
350.065	27.77
350.196	23.77
350.326	15.77
350.456	15.77
350.587	46.77
350.717	27.77
350.848	29.77
350.978	18.77
351.108	12.77
351.239	35.77
351.369	28.77
351.499	30.77
351.63	29.77
351.76	41.77
351.89	16.77
352.021	11.77
352.151	20.77
352.281	28.77
352.412	28.77
352.542	33.77
352.672	34.77
352.803	36.77
352.933	15.77
353.063	23.77
353.193	15.77
353.324	12.77
353.454	15.77
353.584	33.77
353.714	19.77
353.845	20.77
353.975	17.77
354.105	6.77
354.235	18.77
354.365	13.77
354.496	10.77
354.626	41.77
354.756	30.77
354.886	31.77
355.016	28.77
355.146	17.77
355.277	17.77
355.407	18.77
355.537	22.77
355.667	40.77
355.797	43.77
355.927	17.77
356.057	50.77
356.187	36.77
356.318	13.77
356.448	24.77
356.578	28.77
356.708	31.77
356.838	17.77
356.968	17.77
357.098	35.77
357.228	28.77
357.358	9.77
357.488	34.77
357.618	46.77
357.748	34.77
357.878	35.77
358.008	27.77
358.138	18.77
358.268	14.77
358.398	50.77
358.528	17.77
358.658	21.77
358.788	22.77
358.918	35.77
359.048	29.77
359.178	46.77
359.308	19.77
359.438	33.77
359.568	54.77
359.698	35.77
359.827	14.77
359.957	13.77
360.087	25.77
360.217	25.77
360.347	41.77
360.477	57.77
360.607	17.77
360.737	34.77
360.866	14.77
360.996	19.77
361.126	31.77
361.256	67.77
361.386	32.77
361.516	42.77
361.645	17.77
361.775	42.77
361.905	21.77
362.035	39.77
362.165	33.77
362.294	29.77
362.424	48.77
362.554	34.77
362.684	6.77
362.813	29.77
362.943	47.77
363.073	65.77
363.203	66.77
363.332	73.77
363.462	91.77
363.592	99.77
363.721	127.77
363.851	170.77
363.981	195.77
364.111	251.77
364.24	319.77
364.37	490.77
364.5	857.77
364.629	1811.77
364.759	3872.77
364.888	6323.77
365.018	9320.77
365.148	14814.77
365.277	12974.77
365.407	4760.77
365.537	3127.77
365.666	3997.77
365.796	1783.77
365.925	770.77
366.055	740.77
366.184	1083.77
366.314	1411.77
366.444	2436.77
366.573	2138.77
366.703	673.77
366.832	229.77
366.962	130.77
367.091	92.77
367.221	81.77
367.35	79.77
367.48	89.77
367.609	66.77
367.739	69.77
367.868	41.77
367.998	56.77
368.127	45.77
368.257	52.77
368.386	50.77
368.516	64.77
368.645	48.77
368.775	56.77
368.904	34.77
369.033	24.77
369.163	5.77
369.292	41.77
369.422	26.77
369.551	27.77
369.68	13.77
369.81	26.77
369.939	23.77
370.069	50.77
370.198	34.77
370.327	33.77
370.457	32.77
370.586	59.77
370.715	50.77
370.845	44.77
370.974	60.77
371.103	58.77
371.233	47.77
371.362	52.77
371.491	35.77
371.621	69.77
371.75	63.77
371.879	54.77
372.008	50.77
372.138	57.77
372.267	59.77
372.396	51.77
372.525	41.77
372.655	43.77
372.784	41.77
372.913	29.77
373.042	24.77
373.172	44.77
373.301	10.77
373.43	13.77
373.559	16.77
373.688	49.77
373.818	33.77
373.947	23.77
374.076	18.77
374.205	25.77
374.334	28.77
374.463	25.77
374.593	26.77
374.722	34.77
374.851	33.77
374.98	-5.23
375.109	35.77
375.238	28.77
375.367	32.77
375.496	22.77
375.625	10.77
375.755	39.77
375.884	33.77
376.013	26.77
376.142	19.77
376.271	9.77
376.4	8.77
376.529	24.77
376.658	36.77
376.787	39.77
376.916	49.77
377.045	38.77
377.174	32.77
377.303	22.77
377.432	39.77
377.561	17.77
377.69	10.77
377.819	45.77
377.948	11.77
378.077	13.77
378.206	13.77
378.335	10.77
378.464	-4.23
378.593	26.77
378.722	-1.23
378.851	13.77
378.98	17.77
379.108	8.77
379.237	16.77
379.366	10.77
379.495	22.77
379.624	22.77
379.753	18.77
379.882	24.77
380.011	25.77
380.14	5.77
380.268	28.77
380.397	13.77
380.526	32.77
380.655	-2.23
380.784	-6.23
380.913	2.77
381.041	9.77
381.17	-9.23
381.299	12.77
381.428	24.77
381.557	-1.23
381.685	17.77
381.814	25.77
381.943	24.77
382.072	14.77
382.2	18.77
382.329	22.77
382.458	24.77
382.587	32.77
382.715	43.77
382.844	33.77
382.973	14.77
383.102	5.77
383.23	11.77
383.359	1.77
383.488	9.77
383.616	24.77
383.745	22.77
383.874	29.77
384.003	3.77
384.131	-0.23
384.26	11.77
384.389	17.77
384.517	7.77
384.646	14.77
384.774	27.77
384.903	35.77
385.032	27.77
385.16	28.77
385.289	6.77
385.418	26.77
385.546	19.77
385.675	23.77
385.803	12.77
385.932	29.77
386.06	14.77
386.189	25.77
386.318	9.77
386.446	16.77
386.575	32.77
386.703	21.77
386.832	37.77
386.96	10.77
387.089	35.77
387.217	10.77
387.346	15.77
387.474	17.77
387.603	22.77
387.731	23.77
387.86	30.77
387.988	14.77
388.117	31.77
388.245	13.77
388.374	9.77
388.502	25.77
388.631	14.77
388.759	25.77
388.888	32.77
389.016	17.77
389.144	19.77
389.273	7.77
389.401	11.77
389.53	8.77
389.658	32.77
389.786	13.77
389.915	14.77
390.043	8.77
390.172	30.77
390.3	52.77
390.428	41.77
390.557	10.77
390.685	29.77
390.813	49.77
390.942	54.77
391.07	42.77
391.198	29.77
391.327	31.77
391.455	23.77
391.583	35.77
391.712	26.77
391.84	22.77
391.968	13.77
392.096	18.77
392.225	23.77
392.353	20.77
392.481	23.77
392.609	48.77
392.738	26.77
392.866	24.77
392.994	10.77
393.122	44.77
393.251	23.77
393.379	22.77
393.507	9.77
393.635	0.77
393.764	50.77
393.892	44.77
394.02	14.77
394.148	24.77
394.276	31.77
394.404	46.77
394.533	21.77
394.661	41.77
394.789	33.77
394.917	43.77
395.045	16.77
395.173	10.77
395.302	23.77
395.43	24.77
395.558	35.77
395.686	52.77
395.814	43.77
395.942	33.77
396.07	21.77
396.198	45.77
396.326	41.77
396.454	49.77
396.582	48.77
396.711	34.77
396.839	37.77
396.967	34.77
397.095	43.77
397.223	49.77
397.351	58.77
397.479	63.77
397.607	53.77
397.735	56.77
397.863	59.77
397.991	66.77
398.119	28.77
398.247	41.77
398.375	51.77
398.503	51.77
398.631	38.77
398.759	60.77
398.887	69.77
399.015	46.77
399.143	71.77
399.271	64.77
399.399	63.77
399.526	81.77
399.654	87.77
399.782	59.77
399.91	79.77
400.038	89.77
400.166	85.77
400.294	85.77
400.422	90.77
400.55	117.77
400.678	111.77
400.805	117.77
400.933	117.77
401.061	110.77
401.189	133.77
401.317	149.77
401.445	110.77
401.573	82.77
401.7	65.77
401.828	60.77
401.956	73.77
402.084	43.77
402.212	43.77
402.34	30.77
402.467	39.77
402.595	33.77
402.723	60.77
402.851	73.77
402.978	43.77
403.106	66.77
403.234	92.77
403.362	103.77
403.489	133.77
403.617	158.77
403.745	207.77
403.873	289.77
404	555.77
404.128	1464.77
404.256	3932.77
404.384	5081.77
404.511	5435.77
404.639	7283.77
404.767	11476.77
404.894	14624.77
405.022	4940.77
405.15	1292.77
405.277	408.77
405.405	231.77
405.533	130.77
405.66	131.77
405.788	73.77
405.916	71.77
406.043	61.77
406.171	65.77
406.299	70.77
406.426	72.77
406.554	42.77
406.681	57.77
406.809	48.77
406.937	63.77
407.064	55.77
407.192	134.77
407.319	298.77
407.447	527.77
407.574	534.77
407.702	604.77
407.83	842.77
407.957	1583.77
408.085	933.77
408.212	278.77
408.34	90.77
408.467	56.77
408.595	50.77
408.722	57.77
408.85	59.77
408.977	35.77
409.105	30.77
409.232	41.77
409.36	36.77
409.487	23.77
409.615	31.77
409.742	41.77
409.87	21.77
409.997	51.77
410.125	32.77
410.252	44.77
410.379	35.77
410.507	37.77
410.634	25.77
410.762	25.77
410.889	44.77
411.017	31.77
411.144	34.77
411.271	24.77
411.399	39.77
411.526	23.77
411.653	29.77
411.781	59.77
411.908	38.77
412.036	36.77
412.163	32.77
412.29	39.77
412.418	34.77
412.545	33.77
412.672	40.77
412.8	39.77
412.927	32.77
413.054	45.77
413.182	33.77
413.309	31.77
413.436	28.77
413.564	35.77
413.691	11.77
413.818	26.77
413.945	18.77
414.073	14.77
414.2	8.77
414.327	25.77
414.454	30.77
414.582	53.77
414.709	18.77
414.836	34.77
414.963	34.77
415.091	32.77
415.218	42.77
415.345	29.77
415.472	30.77
415.6	21.77
415.727	33.77
415.854	23.77
415.981	25.77
416.108	31.77
416.236	25.77
416.363	50.77
416.49	26.77
416.617	23.77
416.744	33.77
416.871	33.77
416.998	39.77
417.126	34.77
417.253	18.77
417.38	31.77
417.507	25.77
417.634	27.77
417.761	36.77
417.888	27.77
418.015	31.77
418.143	40.77
418.27	56.77
418.397	31.77
418.524	26.77
418.651	19.77
418.778	36.77
418.905	67.77
419.032	31.77
419.159	41.77
419.286	73.77
419.413	53.77
419.54	49.77
419.667	52.77
419.794	31.77
419.921	54.77
420.048	42.77
420.175	65.77
420.302	54.77
420.429	59.77
420.556	72.77
420.683	46.77
420.81	58.77
420.937	69.77
421.064	67.77
421.191	59.77
421.318	68.77
421.445	73.77
421.572	37.77
421.699	47.77
421.826	40.77
421.953	49.77
422.08	36.77
422.207	23.77
422.334	23.77
422.461	35.77
422.588	31.77
422.714	43.77
422.841	31.77
422.968	24.77
423.095	7.77
423.222	30.77
423.349	41.77
423.476	35.77
423.603	17.77
423.729	21.77
423.856	19.77
423.983	25.77
424.11	9.77
424.237	39.77
424.364	21.77
424.491	22.77
424.617	10.77
424.744	19.77
424.871	23.77
424.998	15.77
425.125	7.77
425.251	21.77
425.378	11.77
425.505	28.77
425.632	25.77
425.758	25.77
425.885	18.77
426.012	41.77
426.139	40.77
426.266	29.77
426.392	45.77
426.519	34.77
426.646	0.77
426.772	30.77
426.899	23.77
427.026	27.77
427.153	25.77
427.279	54.77
427.406	35.77
427.533	20.77
427.659	22.77
427.786	22.77
427.913	26.77
428.039	27.77
428.166	25.77
428.293	21.77
428.419	16.77
428.546	13.77
428.673	20.77
428.799	26.77
428.926	13.77
429.053	28.77
429.179	34.77
429.306	44.77
429.433	36.77
429.559	40.77
429.686	37.77
429.812	31.77
429.939	26.77
430.066	32.77
430.192	26.77
430.319	23.77
430.445	43.77
430.572	33.77
430.699	14.77
430.825	8.77
430.952	35.77
431.078	33.77
431.205	48.77
431.331	33.77
431.458	24.77
431.584	39.77
431.711	14.77
431.837	21.77
431.964	34.77
432.09	24.77
432.217	25.77
432.343	26.77
432.47	44.77
432.596	38.77
432.723	25.77
432.849	22.77
432.976	55.77
433.102	38.77
433.229	30.77
433.355	56.77
433.482	81.77
433.608	106.77
433.735	95.77
433.861	113.77
433.987	160.77
434.114	177.77
434.24	175.77
434.367	200.77
434.493	200.77
434.62	274.77
434.746	395.77
434.872	637.77
434.999	833.77
435.125	1723.77
435.252	5455.77
435.378	13381.77
435.504	15200.77
435.631	15401.77
435.757	15684.77
435.883	15684.77
436.01	15684.77
436.136	15684.77
436.262	15684.77
436.389	3477.77
436.515	2053.77
436.641	793.77
436.768	625.77
436.894	395.77
437.02	386.77
437.147	306.77
437.273	292.77
437.399	214.77
437.526	224.77
437.652	183.77
437.778	199.77
437.904	153.77
438.031	161.77
438.157	130.77
438.283	147.77
438.409	102.77
438.536	113.77
438.662	134.77
438.788	127.77
438.914	104.77
439.041	115.77
439.167	118.77
439.293	118.77
439.419	91.77
439.546	90.77
439.672	83.77
439.798	76.77
439.924	79.77
440.05	105.77
440.177	80.77
440.303	83.77
440.429	72.77
440.555	76.77
440.681	59.77
440.807	71.77
440.934	48.77
441.06	66.77
441.186	55.77
441.312	46.77
441.438	53.77
441.564	83.77
441.69	70.77
441.816	59.77
441.943	47.77
442.069	70.77
442.195	67.77
442.321	45.77
442.447	45.77
442.573	38.77
442.699	48.77
442.825	47.77
442.951	51.77
443.077	66.77
443.203	75.77
443.33	43.77
443.456	25.77
443.582	67.77
443.708	27.77
443.834	54.77
443.96	53.77
444.086	59.77
444.212	78.77
444.338	70.77
444.464	47.77
444.59	55.77
444.716	38.77
444.842	35.77
444.968	22.77
445.094	33.77
445.22	29.77
445.346	27.77
445.472	28.77
445.598	43.77
445.724	38.77
445.85	43.77
445.976	44.77
446.102	52.77
446.228	36.77
446.354	35.77
446.48	44.77
446.605	40.77
446.731	34.77
446.857	36.77
446.983	38.77
447.109	34.77
447.235	33.77
447.361	26.77
447.487	26.77
447.613	45.77
447.739	20.77
447.865	26.77
447.99	44.77
448.116	30.77
448.242	31.77
448.368	30.77
448.494	18.77
448.62	25.77
448.746	45.77
448.872	49.77
448.997	24.77
449.123	21.77
449.249	57.77
449.375	40.77
449.501	16.77
449.627	19.77
449.752	52.77
449.878	21.77
450.004	16.77
450.13	33.77
450.256	13.77
450.381	35.77
450.507	34.77
450.633	19.77
450.759	41.77
450.884	19.77
451.01	42.77
451.136	24.77
451.262	34.77
451.388	46.77
451.513	29.77
451.639	45.77
451.765	51.77
451.89	37.77
452.016	46.77
452.142	33.77
452.268	37.77
452.393	41.77
452.519	29.77
452.645	22.77
452.771	28.77
452.896	15.77
453.022	25.77
453.148	50.77
453.273	33.77
453.399	9.77
453.525	29.77
453.65	32.77
453.776	28.77
453.902	30.77
454.027	40.77
454.153	47.77
454.279	21.77
454.404	22.77
454.53	43.77
454.656	64.77
454.781	30.77
454.907	25.77
455.032	32.77
455.158	52.77
455.284	30.77
455.409	26.77
455.535	22.77
455.66	47.77
455.786	28.77
455.912	33.77
456.037	14.77
456.163	35.77
456.288	36.77
456.414	19.77
456.539	7.77
456.665	29.77
456.791	30.77
456.916	2.77
457.042	30.77
457.167	21.77
457.293	36.77
457.418	29.77
457.544	28.77
457.669	19.77
457.795	33.77
457.92	24.77
458.046	24.77
458.171	31.77
458.297	18.77
458.422	21.77
458.548	23.77
458.673	30.77
458.799	12.77
458.924	0.77
459.05	28.77
459.175	19.77
459.301	23.77
459.426	30.77
459.552	23.77
459.677	22.77
459.803	36.77
459.928	34.77
460.053	32.77
460.179	41.77
460.304	26.77
460.43	26.77
460.555	25.77
460.681	29.77
460.806	11.77
460.931	34.77
461.057	57.77
461.182	30.77
461.308	19.77
461.433	30.77
461.558	22.77
461.684	38.77
461.809	29.77
461.934	19.77
462.06	29.77
462.185	1.77
462.311	18.77
462.436	42.77
462.561	25.77
462.687	24.77
462.812	31.77
462.937	16.77
463.063	10.77
463.188	19.77
463.313	32.77
463.439	27.77
463.564	23.77
463.689	40.77
463.814	22.77
463.94	32.77
464.065	41.77
464.19	25.77
464.316	26.77
464.441	5.77
464.566	31.77
464.692	14.77
464.817	24.77
464.942	10.77
465.067	15.77
465.193	29.77
465.318	20.77
465.443	33.77
465.568	25.77
465.694	34.77
465.819	34.77
465.944	28.77
466.069	22.77
466.194	31.77
466.32	34.77
466.445	29.77
466.57	27.77
466.695	27.77
466.82	49.77
466.946	59.77
467.071	30.77
467.196	33.77
467.321	34.77
467.446	33.77
467.572	38.77
467.697	24.77
467.822	36.77
467.947	57.77
468.072	40.77
468.197	39.77
468.323	21.77
468.448	15.77
468.573	21.77
468.698	27.77
468.823	25.77
468.948	45.77
469.073	41.77
469.198	57.77
469.324	41.77
469.449	26.77
469.574	42.77
469.699	49.77
469.824	42.77
469.949	35.77
470.074	63.77
470.199	70.77
470.324	43.77
470.449	22.77
470.574	21.77
470.7	24.77
470.825	61.77
470.95	45.77
471.075	41.77
471.2	38.77
471.325	44.77
471.45	39.77
471.575	37.77
471.7	45.77
471.825	25.77
471.95	25.77
472.075	24.77
472.2	38.77
472.325	45.77
472.45	44.77
472.575	40.77
472.7	34.77
472.825	32.77
472.95	39.77
473.075	39.77
473.2	35.77
473.325	51.77
473.45	47.77
473.575	34.77
473.7	41.77
473.825	26.77
473.95	32.77
474.075	33.77
474.2	3.77
474.325	1.77
474.45	31.77
474.574	24.77
474.699	26.77
474.824	49.77
474.949	18.77
475.074	36.77
475.199	21.77
475.324	21.77
475.449	26.77
475.574	40.77
475.699	25.77
475.824	7.77
475.949	21.77
476.073	17.77
476.198	29.77
476.323	33.77
476.448	28.77
476.573	19.77
476.698	45.77
476.823	33.77
476.947	25.77
477.072	14.77
477.197	27.77
477.322	22.77
477.447	-0.23
477.572	28.77
477.697	13.77
477.821	28.77
477.946	38.77
478.071	23.77
478.196	26.77
478.321	9.77
478.445	19.77
478.57	27.77
478.695	21.77
478.82	23.77
478.945	26.77
479.069	14.77
479.194	10.77
479.319	33.77
479.444	39.77
479.569	5.77
479.693	16.77
479.818	13.77
479.943	35.77
480.068	26.77
480.192	37.77
480.317	24.77
480.442	19.77
480.567	16.77
480.691	14.77
480.816	8.77
480.941	8.77
481.066	30.77
481.19	28.77
481.315	14.77
481.44	23.77
481.564	17.77
481.689	23.77
481.814	32.77
481.938	20.77
482.063	1.77
482.188	25.77
482.313	19.77
482.437	26.77
482.562	23.77
482.687	21.77
482.811	23.77
482.936	37.77
483.061	24.77
483.185	19.77
483.31	47.77
483.435	21.77
483.559	27.77
483.684	19.77
483.808	37.77
483.933	45.77
484.058	17.77
484.182	27.77
484.307	19.77
484.432	28.77
484.556	21.77
484.681	14.77
484.805	9.77
484.93	20.77
485.055	24.77
485.179	64.77
485.304	41.77
485.428	19.77
485.553	32.77
485.678	33.77
485.802	32.77
485.927	55.77
486.051	51.77
486.176	31.77
486.3	7.77
486.425	10.77
486.549	21.77
486.674	41.77
486.799	16.77
486.923	22.77
487.048	9.77
487.172	22.77
487.297	21.77
487.421	4.77
487.546	6.77
487.67	33.77
487.795	5.77
487.919	30.77
488.044	22.77
488.168	27.77
488.293	5.77
488.417	5.77
488.542	25.77
488.666	45.77
488.791	35.77
488.915	29.77
489.04	6.77
489.164	21.77
489.289	39.77
489.413	28.77
489.538	25.77
489.662	31.77
489.786	13.77
489.911	23.77
490.035	18.77
490.16	28.77
490.284	32.77
490.409	-1.23
490.533	39.77
490.658	48.77
490.782	33.77
490.906	73.77
491.031	113.77
491.155	158.77
491.28	153.77
491.404	158.77
491.528	265.77
491.653	147.77
491.777	66.77
491.902	24.77
492.026	30.77
492.15	41.77
492.275	59.77
492.399	27.77
492.524	25.77
492.648	19.77
492.772	32.77
492.897	38.77
493.021	14.77
493.145	51.77
493.27	16.77
493.394	35.77
493.518	12.77
493.643	25.77
493.767	39.77
493.891	26.77
494.016	18.77
494.14	16.77
494.264	33.77
494.389	33.77
494.513	21.77
494.637	17.77
494.762	24.77
494.886	31.77
495.01	47.77
495.134	23.77
495.259	45.77
495.383	10.77
495.507	18.77
495.632	47.77
495.756	46.77
495.88	20.77
496.004	22.77
496.129	21.77
496.253	35.77
496.377	26.77
496.501	40.77
496.626	13.77
496.75	22.77
496.874	17.77
496.998	12.77
497.123	49.77
497.247	27.77
497.371	16.77
497.495	0.77
497.62	18.77
497.744	12.77
497.868	13.77
497.992	29.77
498.116	24.77
498.241	9.77
498.365	24.77
498.489	29.77
498.613	52.77
498.737	5.77
498.862	8.77
498.986	13.77
499.11	13.77
499.234	29.77
499.358	15.77
499.482	12.77
499.607	21.77
499.731	30.77
499.855	36.77
499.979	31.77
500.103	35.77
500.227	35.77
500.351	14.77
500.476	19.77
500.6	21.77
500.724	16.77
500.848	17.77
500.972	25.77
501.096	39.77
501.22	46.77
501.344	18.77
501.469	21.77
501.593	19.77
501.717	34.77
501.841	24.77
501.965	19.77
502.089	18.77
502.213	29.77
502.337	18.77
502.461	15.77
502.585	8.77
502.709	32.77
502.834	23.77
502.958	26.77
503.082	9.77
503.206	16.77
503.33	43.77
503.454	36.77
503.578	31.77
503.702	30.77
503.826	34.77
503.95	55.77
504.074	2.77
504.198	25.77
504.322	21.77
504.446	23.77
504.57	25.77
504.694	13.77
504.818	21.77
504.942	35.77
505.066	34.77
505.19	11.77
505.314	30.77
505.438	33.77
505.562	3.77
505.686	29.77
505.81	30.77
505.934	36.77
506.058	9.77
506.182	17.77
506.306	18.77
506.43	13.77
506.554	17.77
506.678	15.77
506.802	25.77
506.926	41.77
507.05	29.77
507.174	42.77
507.298	31.77
507.422	24.77
507.546	23.77
507.67	51.77
507.794	21.77
507.918	25.77
508.042	25.77
508.165	26.77
508.289	15.77
508.413	16.77
508.537	26.77
508.661	25.77
508.785	19.77
508.909	40.77
509.033	23.77
509.157	39.77
509.281	37.77
509.405	31.77
509.528	43.77
509.652	56.77
509.776	34.77
509.9	46.77
510.024	27.77
510.148	42.77
510.272	37.77
510.396	27.77
510.519	44.77
510.643	53.77
510.767	47.77
510.891	32.77
511.015	37.77
511.139	43.77
511.263	57.77
511.386	39.77
511.51	45.77
511.634	44.77
511.758	55.77
511.882	39.77
512.006	51.77
512.129	59.77
512.253	82.77
512.377	86.77
512.501	76.77
512.625	103.77
512.748	100.77
512.872	83.77
512.996	41.77
513.12	61.77
513.244	45.77
513.367	66.77
513.491	69.77
513.615	67.77
513.739	68.77
513.862	68.77
513.986	73.77
514.11	91.77
514.234	91.77
514.358	120.77
514.481	117.77
514.605	110.77
514.729	121.77
514.853	126.77
514.976	123.77
515.1	104.77
515.224	99.77
515.348	88.77
515.471	75.77
515.595	93.77
515.719	148.77
515.842	233.77
515.966	281.77
516.09	303.77
516.214	298.77
516.337	336.77
516.461	224.77
516.585	81.77
516.708	48.77
516.832	39.77
516.956	18.77
517.08	43.77
517.203	3.77
517.327	15.77
517.451	45.77
517.574	51.77
517.698	29.77
517.822	27.77
517.945	29.77
518.069	25.77
518.193	39.77
518.316	23.77
518.44	13.77
518.564	9.77
518.687	-2.23
518.811	13.77
518.935	55.77
519.058	17.77
519.182	28.77
519.306	27.77
519.429	17.77
519.553	63.77
519.676	37.77
519.8	22.77
519.924	7.77
520.047	9.77
520.171	24.77
520.294	23.77
520.418	28.77
520.542	14.77
520.665	38.77
520.789	17.77
520.913	6.77
521.036	5.77
521.16	9.77
521.283	1.77
521.407	20.77
521.53	28.77
521.654	5.77
521.778	30.77
521.901	10.77
522.025	6.77
522.148	14.77
522.272	26.77
522.395	20.77
522.519	32.77
522.643	13.77
522.766	18.77
522.89	27.77
523.013	18.77
523.137	-4.23
523.26	21.77
523.384	17.77
523.507	21.77
523.631	19.77
523.754	24.77
523.878	25.77
524.002	26.77
524.125	14.77
524.249	18.77
524.372	28.77
524.496	11.77
524.619	15.77
524.743	21.77
524.866	15.77
524.99	10.77
525.113	6.77
525.237	21.77
525.36	31.77
525.484	31.77
525.607	3.77
525.731	7.77
525.854	11.77
525.978	19.77
526.101	13.77
526.224	21.77
526.348	23.77
526.471	31.77
526.595	39.77
526.718	8.77
526.842	17.77
526.965	23.77
527.089	11.77
527.212	13.77
527.336	17.77
527.459	-1.23
527.582	13.77
527.706	11.77
527.829	22.77
527.953	17.77
528.076	18.77
528.2	17.77
528.323	47.77
528.446	23.77
528.57	13.77
528.693	20.77
528.817	7.77
528.94	21.77
529.064	48.77
529.187	16.77
529.31	16.77
529.434	18.77
529.557	1.77
529.68	27.77
529.804	10.77
529.927	19.77
530.051	20.77
530.174	18.77
530.297	18.77
530.421	18.77
530.544	20.77
530.668	9.77
530.791	21.77
530.914	22.77
531.038	18.77
531.161	25.77
531.284	34.77
531.408	23.77
531.531	14.77
531.654	12.77
531.778	24.77
531.901	3.77
532.024	19.77
532.148	-6.23
532.271	24.77
532.394	15.77
532.518	19.77
532.641	28.77
532.764	33.77
532.888	25.77
533.011	5.77
533.134	9.77
533.258	42.77
533.381	30.77
533.504	15.77
533.628	19.77
533.751	25.77
533.874	11.77
533.997	24.77
534.121	14.77
534.244	29.77
534.367	23.77
534.491	19.77
534.614	19.77
534.737	27.77
534.86	24.77
534.984	14.77
535.107	7.77
535.23	37.77
535.354	22.77
535.477	8.77
535.6	12.77
535.723	14.77
535.847	27.77
535.97	19.77
536.093	25.77
536.216	9.77
536.34	27.77
536.463	10.77
536.586	20.77
536.709	24.77
536.833	16.77
536.956	14.77
537.079	12.77
537.202	26.77
537.325	11.77
537.449	9.77
537.572	30.77
537.695	21.77
537.818	21.77
537.941	13.77
538.065	35.77
538.188	11.77
538.311	20.77
538.434	19.77
538.558	16.77
538.681	25.77
538.804	29.77
538.927	29.77
539.05	38.77
539.173	25.77
539.297	12.77
539.42	33.77
539.543	17.77
539.666	32.77
539.789	29.77
539.913	15.77
540.036	24.77
540.159	44.77
540.282	13.77
540.405	-3.23
540.528	2.77
540.651	34.77
540.775	21.77
540.898	38.77
541.021	7.77
541.144	37.77
541.267	43.77
541.39	24.77
541.513	29.77
541.637	20.77
541.76	25.77
541.883	47.77
542.006	41.77
542.129	31.77
542.252	23.77
542.375	41.77
542.498	48.77
542.622	42.77
542.745	49.77
542.868	45.77
542.991	64.77
543.114	62.77
543.237	40.77
543.36	59.77
543.483	51.77
543.606	45.77
543.73	90.77
543.853	69.77
543.976	77.77
544.099	106.77
544.222	113.77
544.345	143.77
544.468	172.77
544.591	210.77
544.714	264.77
544.837	357.77
544.96	434.77
545.083	647.77
545.206	1063.77
545.329	2400.77
545.453	10923.77
545.576	15253.77
545.699	15684.77
545.822	15684.77
545.945	15684.77
546.068	15684.77
546.191	15684.77
546.314	15684.77
546.437	15684.77
546.56	15684.77
546.683	15684.77
546.806	15684.77
546.929	15684.77
547.052	15684.77
547.175	15684.77
547.298	15684.77
547.421	15684.77
547.544	15684.77
547.667	3543.77
547.79	2366.77
547.913	1005.77
548.036	880.77
548.159	634.77
548.282	651.77
548.405	483.77
548.528	496.77
548.651	417.77
548.774	405.77
548.897	353.77
549.02	369.77
549.143	310.77
549.266	302.77
549.389	282.77
549.512	254.77
549.635	258.77
549.758	278.77
549.881	218.77
550.004	239.77
550.127	215.77
550.25	182.77
550.373	180.77
550.496	187.77
550.619	175.77
550.742	163.77
550.865	149.77
550.988	154.77
551.111	153.77
551.234	149.77
551.356	134.77
551.479	123.77
551.602	124.77
551.725	156.77
551.848	130.77
551.971	157.77
552.094	129.77
552.217	117.77
552.34	116.77
552.463	106.77
552.586	106.77
552.709	117.77
552.832	95.77
552.955	133.77
553.077	94.77
553.2	102.77
553.323	86.77
553.446	110.77
553.569	125.77
553.692	110.77
553.815	92.77
553.938	96.77
554.061	101.77
554.184	80.77
554.306	84.77
554.429	80.77
554.552	77.77
554.675	74.77
554.798	76.77
554.921	98.77
555.044	73.77
555.167	84.77
555.29	73.77
555.412	81.77
555.535	85.77
555.658	76.77
555.781	79.77
555.904	71.77
556.027	91.77
556.15	89.77
556.272	76.77
556.395	88.77
556.518	79.77
556.641	82.77
556.764	87.77
556.887	94.77
557.01	72.77
557.132	55.77
557.255	82.77
557.378	79.77
557.501	77.77
557.624	70.77
557.747	58.77
557.869	75.77
557.992	93.77
558.115	113.77
558.238	94.77
558.361	80.77
558.483	100.77
558.606	59.77
558.729	64.77
558.852	77.77
558.975	61.77
559.098	65.77
559.22	57.77
559.343	59.77
559.466	38.77
559.589	57.77
559.712	43.77
559.834	58.77
559.957	59.77
560.08	40.77
560.203	65.77
560.325	76.77
560.448	60.77
560.571	66.77
560.694	57.77
560.817	79.77
560.939	53.77
561.062	65.77
561.185	76.77
561.308	69.77
561.43	48.77
561.553	74.77
561.676	64.77
561.799	77.77
561.921	70.77
562.044	73.77
562.167	69.77
562.29	65.77
562.413	57.77
562.535	62.77
562.658	33.77
562.781	52.77
562.903	63.77
563.026	100.77
563.149	147.77
563.272	111.77
563.394	121.77
563.517	109.77
563.64	50.77
563.763	54.77
563.885	69.77
564.008	62.77
564.131	51.77
564.254	23.77
564.376	45.77
564.499	39.77
564.622	45.77
564.744	58.77
564.867	37.77
564.99	32.77
565.113	53.77
565.235	47.77
565.358	30.77
565.481	26.77
565.603	27.77
565.726	37.77
565.849	52.77
565.971	44.77
566.094	37.77
566.217	44.77
566.34	48.77
566.462	55.77
566.585	37.77
566.708	63.77
566.83	50.77
566.953	51.77
567.076	32.77
567.198	49.77
567.321	31.77
567.444	52.77
567.566	42.77
567.689	39.77
567.812	29.77
567.934	45.77
568.057	27.77
568.18	23.77
568.302	26.77
568.425	16.77
568.548	28.77
568.67	30.77
568.793	33.77
568.916	37.77
569.038	51.77
569.161	49.77
569.283	43.77
569.406	32.77
569.529	25.77
569.651	21.77
569.774	26.77
569.897	38.77
570.019	38.77
570.142	49.77
570.265	37.77
570.387	38.77
570.51	56.77
570.632	69.77
570.755	55.77
570.878	26.77
571	51.77
571.123	39.77
571.246	33.77
571.368	25.77
571.491	29.77
571.613	30.77
571.736	23.77
571.859	23.77
571.981	20.77
572.104	21.77
572.226	33.77
572.349	27.77
572.472	17.77
572.594	38.77
572.717	33.77
572.839	17.77
572.962	39.77
573.085	25.77
573.207	39.77
573.33	35.77
573.452	53.77
573.575	59.77
573.697	37.77
573.82	29.77
573.943	24.77
574.065	40.77
574.188	40.77
574.31	42.77
574.433	35.77
574.555	47.77
574.678	22.77
574.801	37.77
574.923	33.77
575.046	47.77
575.168	42.77
575.291	18.77
575.413	36.77
575.536	38.77
575.659	56.77
575.781	58.77
575.904	71.77
576.026	73.77
576.149	72.77
576.271	137.77
576.394	208.77
576.516	542.77
576.639	3669.77
576.761	10168.77
576.884	8776.77
577.007	8662.77
577.129	8032.77
577.252	3712.77
577.374	1305.77
577.497	522.77
577.619	266.77
577.742	163.77
577.864	160.77
577.987	133.77
578.109	124.77
578.232	130.77
578.354	168.77
578.477	183.77
578.599	366.77
578.722	1986.77
578.844	9079.77
578.967	9784.77
579.089	8780.77
579.212	9109.77
579.334	5295.77
579.457	1910.77
579.579	711.77
579.702	306.77
579.824	202.77
579.947	135.77
580.069	116.77
580.192	73.77
580.314	72.77
580.437	78.77
580.559	100.77
580.682	61.77
580.804	74.77
580.927	80.77
581.049	88.77
581.172	50.77
581.294	51.77
581.417	73.77
581.539	55.77
581.662	69.77
581.784	53.77
581.907	72.77
582.029	72.77
582.152	42.77
582.274	51.77
582.396	67.77
582.519	55.77
582.641	28.77
582.764	22.77
582.886	39.77
583.009	39.77
583.131	46.77
583.254	33.77
583.376	45.77
583.499	48.77
583.621	41.77
583.743	51.77
583.866	41.77
583.988	38.77
584.111	32.77
584.233	36.77
584.356	41.77
584.478	48.77
584.601	18.77
584.723	30.77
584.845	33.77
584.968	42.77
585.09	15.77
585.213	40.77
585.335	22.77
585.458	21.77
585.58	21.77
585.702	45.77
585.825	44.77
585.947	38.77
586.07	29.77
586.192	21.77
586.315	33.77
586.437	25.77
586.559	29.77
586.682	14.77
586.804	41.77
586.927	26.77
587.049	59.77
587.171	46.77
587.294	26.77
587.416	47.77
587.539	47.77
587.661	23.77
587.783	25.77
587.906	12.77
588.028	36.77
588.151	28.77
588.273	32.77
588.395	23.77
588.518	7.77
588.64	30.77
588.763	46.77
588.885	31.77
589.007	29.77
589.13	13.77
589.252	21.77
589.375	23.77
589.497	35.77
589.619	33.77
589.742	30.77
589.864	44.77
589.986	19.77
590.109	22.77
590.231	36.77
590.354	37.77
590.476	25.77
590.598	35.77
590.721	23.77
590.843	18.77
590.965	39.77
591.088	33.77
591.21	33.77
591.332	33.77
591.455	17.77
591.577	1.77
591.7	22.77
591.822	27.77
591.944	38.77
592.067	34.77
592.189	39.77
592.311	35.77
592.434	37.77
592.556	17.77
592.678	37.77
592.801	38.77
592.923	29.77
593.045	35.77
593.168	34.77
593.29	37.77
593.412	35.77
593.535	13.77
593.657	10.77
593.779	26.77
593.902	49.77
594.024	31.77
594.146	31.77
594.269	30.77
594.391	22.77
594.513	37.77
594.636	15.77
594.758	25.77
594.88	32.77
595.003	33.77
595.125	23.77
595.247	28.77
595.37	38.77
595.492	22.77
595.614	42.77
595.737	27.77
595.859	39.77
595.981	29.77
596.104	26.77
596.226	30.77
596.348	11.77
596.471	23.77
596.593	37.77
596.715	24.77
596.838	34.77
596.96	17.77
597.082	19.77
597.204	29.77
597.327	21.77
597.449	20.77
597.571	30.77
597.694	29.77
597.816	27.77
597.938	35.77
598.061	29.77
598.183	17.77
598.305	47.77
598.427	19.77
598.55	22.77
598.672	37.77
598.794	33.77
598.917	33.77
599.039	39.77
599.161	30.77
599.283	26.77
599.406	24.77
599.528	27.77
599.65	39.77
599.773	36.77
599.895	48.77
600.017	55.77
600.139	22.77
600.262	8.77
600.384	30.77
600.506	27.77
600.628	46.77
600.751	31.77
600.873	27.77
600.995	19.77
601.118	38.77
601.24	40.77
601.362	40.77
601.484	37.77
601.607	23.77
601.729	27.77
601.851	21.77
601.973	21.77
602.096	20.77
602.218	29.77
602.34	29.77
602.462	24.77
602.585	20.77
602.707	2.77
602.829	25.77
602.951	21.77
603.074	3.77
603.196	26.77
603.318	21.77
603.44	29.77
603.563	17.77
603.685	17.77
603.807	26.77
603.929	42.77
604.052	27.77
604.174	42.77
604.296	32.77
604.418	44.77
604.541	42.77
604.663	5.77
604.785	39.77
604.907	35.77
605.03	23.77
605.152	56.77
605.274	28.77
605.396	13.77
605.519	23.77
605.641	13.77
605.763	24.77
605.885	14.77
606.008	18.77
606.13	20.77
606.252	37.77
606.374	22.77
606.496	20.77
606.619	17.77
606.741	23.77
606.863	47.77
606.985	30.77
607.108	39.77
607.23	46.77
607.352	23.77
607.474	38.77
607.596	32.77
607.719	33.77
607.841	35.77
607.963	21.77
608.085	22.77
608.207	60.77
608.33	33.77
608.452	10.77
608.574	21.77
608.696	46.77
608.819	18.77
608.941	9.77
609.063	21.77
609.185	19.77
609.307	33.77
609.43	36.77
609.552	22.77
609.674	14.77
609.796	38.77
609.918	35.77
610.041	30.77
610.163	21.77
610.285	25.77
610.407	27.77
610.529	-1.23
610.652	17.77
610.774	21.77
610.896	18.77
611.018	34.77
611.14	31.77
611.263	22.77
611.385	11.77
611.507	31.77
611.629	16.77
611.751	40.77
611.873	46.77
611.996	27.77
612.118	39.77
612.24	23.77
612.362	44.77
612.484	36.77
612.607	34.77
612.729	52.77
612.851	30.77
612.973	34.77
613.095	26.77
613.218	15.77
613.34	31.77
613.462	39.77
613.584	33.77
613.706	27.77
613.828	48.77
613.951	27.77
614.073	21.77
614.195	12.77
614.317	26.77
614.439	24.77
614.561	36.77
614.684	42.77
614.806	16.77
614.928	33.77
615.05	33.77
615.172	31.77
615.294	35.77
615.417	19.77
615.539	26.77
615.661	21.77
615.783	32.77
615.905	35.77
616.027	24.77
616.15	42.77
616.272	26.77
616.394	22.77
616.516	28.77
616.638	21.77
616.76	10.77
616.883	21.77
617.005	10.77
617.127	10.77
617.249	23.77
617.371	22.77
617.493	-4.23
617.615	25.77
617.738	16.77
617.86	12.77
617.982	24.77
618.104	26.77
618.226	14.77
618.348	1.77
618.471	32.77
618.593	43.77
618.715	5.77
618.837	24.77
618.959	35.77
619.081	37.77
619.203	27.77
619.326	15.77
619.448	33.77
619.57	36.77
619.692	33.77
619.814	38.77
619.936	32.77
620.058	38.77
620.181	14.77
620.303	14.77
620.425	18.77
620.547	15.77
620.669	21.77
620.791	22.77
620.913	13.77
621.036	19.77
621.158	22.77
621.28	37.77
621.402	12.77
621.524	9.77
621.646	31.77
621.768	4.77
621.891	13.77
622.013	25.77
622.135	9.77
622.257	14.77
622.379	21.77
622.501	18.77
622.623	21.77
622.745	13.77
622.868	21.77
622.99	27.77
623.112	12.77
623.234	14.77
623.356	14.77
623.478	15.77
623.6	27.77
623.722	16.77
623.845	28.77
623.967	18.77
624.089	21.77
624.211	25.77
624.333	32.77
624.455	31.77
624.577	25.77
624.699	31.77
624.822	16.77
624.944	5.77
625.066	17.77
625.188	23.77
625.31	18.77
625.432	37.77
625.554	10.77
625.676	37.77
625.799	21.77
625.921	19.77
626.043	25.77
626.165	10.77
626.287	2.77
626.409	32.77
626.531	13.77
626.653	38.77
626.775	38.77
626.898	34.77
627.02	29.77
627.142	44.77
627.264	26.77
627.386	9.77
627.508	27.77
627.63	11.77
627.752	29.77
627.874	8.77
627.997	28.77
628.119	24.77
628.241	15.77
628.363	28.77
628.485	24.77
628.607	19.77
628.729	17.77
628.851	-10.23
628.973	20.77
629.096	5.77
629.218	14.77
629.34	15.77
629.462	7.77
629.584	12.77
629.706	20.77
629.828	32.77
629.95	25.77
630.072	23.77
630.195	6.77
630.317	14.77
630.439	15.77
630.561	22.77
630.683	27.77
630.805	27.77
630.927	22.77
631.049	19.77
631.171	4.77
631.293	13.77
631.416	32.77
631.538	15.77
631.66	6.77
631.782	34.77
631.904	23.77
632.026	-3.23
632.148	18.77
632.27	8.77
632.392	26.77
632.514	10.77
632.637	25.77
632.759	10.77
632.881	9.77
633.003	16.77
633.125	17.77
633.247	25.77
633.369	17.77
633.491	7.77
633.613	14.77
633.735	5.77
633.858	27.77
633.98	0.77
634.102	9.77
634.224	24.77
634.346	26.77
634.468	28.77
634.59	26.77
634.712	15.77
634.834	32.77
634.956	21.77
635.078	17.77
635.201	13.77
635.323	20.77
635.445	2.77
635.567	10.77
635.689	17.77
635.811	17.77
635.933	27.77
636.055	21.77
636.177	12.77
636.299	13.77
636.421	8.77
636.544	-2.23
636.666	9.77
636.788	8.77
636.91	27.77
637.032	31.77
637.154	14.77
637.276	40.77
637.398	30.77
637.52	18.77
637.642	10.77
637.764	35.77
637.887	1.77
638.009	18.77
638.131	3.77
638.253	8.77
638.375	24.77
638.497	27.77
638.619	10.77
638.741	18.77
638.863	-14.23
638.985	14.77
639.107	15.77
639.23	12.77
639.352	39.77
639.474	29.77
639.596	16.77
639.718	13.77
639.84	23.77
639.962	15.77
640.084	19.77
640.206	29.77
640.328	-4.23
640.45	27.77
640.573	29.77
640.695	12.77
640.817	36.77
640.939	29.77
641.061	9.77
641.183	21.77
641.305	14.77
641.427	29.77
641.549	11.77
641.671	22.77
641.793	14.77
641.915	12.77
642.038	16.77
642.16	7.77
642.282	15.77
642.404	5.77
642.526	5.77
642.648	-1.23
642.77	1.77
642.892	7.77
643.014	28.77
643.136	19.77
643.258	5.77
643.381	39.77
643.503	30.77
643.625	14.77
643.747	-11.23
643.869	9.77
643.991	16.77
644.113	28.77
644.235	11.77
644.357	9.77
644.479	29.77
644.601	28.77
644.723	-3.23
644.846	7.77
644.968	23.77
645.09	4.77
645.212	1.77
645.334	12.77
645.456	20.77
645.578	11.77
645.7	7.77
645.822	27.77
645.944	16.77
646.066	19.77
646.188	-9.23
646.311	34.77
646.433	19.77
646.555	24.77
646.677	25.77
646.799	27.77
646.921	23.77
647.043	41.77
647.165	9.77
647.287	20.77
647.409	6.77
647.531	41.77
647.654	20.77
647.776	22.77
647.898	20.77
648.02	-0.23
648.142	5.77
648.264	9.77
648.386	1.77
648.508	-13.23
648.63	25.77
648.752	36.77
648.874	21.77
648.997	14.77
649.119	30.77
649.241	19.77
649.363	20.77
649.485	9.77
649.607	11.77
649.729	-1.23
649.851	-9.23
649.973	-3.23
650.095	16.77
650.217	6.77
650.34	-3.23
650.462	13.77
650.584	-3.23
650.706	25.77
650.828	24.77
650.95	7.77
651.072	16.77
651.194	1.77
651.316	21.77
651.438	13.77
651.56	9.77
651.683	5.77
651.805	-0.23
651.927	9.77
652.049	6.77
652.171	21.77
652.293	0.77
652.415	-4.23
652.537	6.77
652.659	2.77
652.781	-1.23
652.903	11.77
653.026	41.77
653.148	18.77
653.27	18.77
653.392	32.77
653.514	17.77
653.636	8.77
653.758	19.77
653.88	10.77
654.002	9.77
654.124	-1.23
654.247	22.77
654.369	5.77
654.491	15.77
654.613	24.77
654.735	-2.23
654.857	17.77
654.979	17.77
655.101	23.77
655.223	30.77
655.345	10.77
655.468	12.77
655.59	13.77
655.712	9.77
655.834	-0.23
655.956	18.77
656.078	12.77
656.2	15.77
656.322	5.77
656.444	-12.23
656.566	18.77
656.689	10.77
656.811	17.77
656.933	40.77
657.055	-0.23
657.177	27.77
657.299	0.77
657.421	10.77
657.543	18.77
657.665	-1.23
657.787	-0.23
657.91	11.77
658.032	0.77
658.154	6.77
658.276	6.77
658.398	-2.23
658.52	23.77
658.642	16.77
658.764	9.77
658.886	5.77
659.009	17.77
659.131	16.77
659.253	13.77
659.375	36.77
659.497	7.77
659.619	28.77
659.741	3.77
659.863	-1.23
659.985	-12.23
660.108	7.77
660.23	12.77
660.352	10.77
660.474	21.77
660.596	25.77
660.718	13.77
660.84	12.77
660.962	38.77
661.084	5.77
661.207	5.77
661.329	31.77
661.451	5.77
661.573	1.77
661.695	21.77
661.817	17.77
661.939	18.77
662.061	20.77
662.184	1.77
662.306	6.77
662.428	27.77
662.55	31.77
662.672	9.77
662.794	17.77
662.916	8.77
663.038	4.77
663.161	41.77
663.283	25.77
663.405	14.77
663.527	3.77
663.649	8.77
663.771	13.77
663.893	1.77
664.015	9.77
664.138	5.77
664.26	5.77
664.382	-5.23
664.504	15.77
664.626	-20.23
664.748	-0.23
664.87	2.77
664.992	27.77
665.115	19.77
665.237	4.77
665.359	6.77
665.481	16.77
665.603	10.77
665.725	5.77
665.847	3.77
665.97	21.77
666.092	21.77
666.214	19.77
666.336	4.77
666.458	14.77
666.58	26.77
666.702	-2.23
666.825	20.77
666.947	-0.23
667.069	15.77
667.191	-7.23
667.313	19.77
667.435	-3.23
667.557	-3.23
667.68	-4.23
667.802	0.77
667.924	-3.23
668.046	27.77
668.168	5.77
668.29	14.77
668.412	7.77
668.535	19.77
668.657	8.77
668.779	-1.23
668.901	13.77
669.023	23.77
669.145	9.77
669.267	25.77
669.39	19.77
669.512	15.77
669.634	-9.23
669.756	3.77
669.878	17.77
670	17.77
670.123	18.77
670.245	39.77
670.367	26.77
670.489	28.77
670.611	1.77
670.733	3.77
670.856	2.77
670.978	24.77
671.1	24.77
671.222	7.77
671.344	17.77
671.466	-3.23
671.589	-4.23
671.711	6.77
671.833	3.77
671.955	-8.23
672.077	16.77
672.199	33.77
672.322	21.77
672.444	9.77
672.566	24.77
672.688	15.77
672.81	26.77
672.932	15.77
673.055	26.77
673.177	0.77
673.299	6.77
673.421	1.77
673.543	23.77
673.665	25.77
673.788	35.77
673.91	13.77
674.032	10.77
674.154	7.77
674.276	27.77
674.399	12.77
674.521	17.77
674.643	-2.23
674.765	-11.23
674.887	6.77
675.009	2.77
675.132	6.77
675.254	10.77
675.376	13.77
675.498	16.77
675.62	33.77
675.743	10.77
675.865	13.77
675.987	0.77
676.109	-2.23
676.231	22.77
676.354	35.77
676.476	6.77
676.598	23.77
676.72	25.77
676.842	7.77
676.965	6.77
677.087	21.77
677.209	30.77
677.331	19.77
677.453	21.77
677.576	16.77
677.698	21.77
677.82	9.77
677.942	11.77
678.064	20.77
678.187	8.77
678.309	15.77
678.431	9.77
678.553	13.77
678.675	55.77
678.798	30.77
678.92	27.77
679.042	11.77
679.164	5.77
679.286	26.77
679.409	22.77
679.531	3.77
679.653	6.77
679.775	22.77
679.898	13.77
680.02	-2.23
680.142	-6.23
680.264	34.77
680.386	7.77
680.509	18.77
680.631	13.77
680.753	15.77
680.875	-1.23
680.998	18.77
681.12	8.77
681.242	17.77
681.364	-3.23
681.486	15.77
681.609	10.77
681.731	-5.23
681.853	0.77
681.975	-3.23
682.098	7.77
682.22	29.77
682.342	16.77
682.464	-1.23
682.587	15.77
682.709	1.77
682.831	-6.23
682.953	10.77
683.076	11.77
683.198	17.77
683.32	23.77
683.442	10.77
683.565	35.77
683.687	21.77
683.809	11.77
683.931	-1.23
684.054	28.77
684.176	31.77
684.298	23.77
684.42	-1.23
684.543	22.77
684.665	30.77
684.787	20.77
684.909	6.77
685.032	10.77
685.154	-13.23
685.276	-3.23
685.398	15.77
685.521	14.77
685.643	7.77
685.765	17.77
685.887	18.77
686.01	23.77
686.132	11.77
686.254	28.77
686.377	22.77
686.499	21.77
686.621	25.77
686.743	29.77
686.866	29.77
686.988	34.77
687.11	1.77
687.232	25.77
687.355	0.77
687.477	15.77
687.599	27.77
687.722	-0.23
687.844	6.77
687.966	8.77
688.088	10.77
688.211	41.77
688.333	17.77
688.455	5.77
688.578	37.77
688.7	24.77
688.822	6.77
688.944	-12.23
689.067	50.77
689.189	13.77
689.311	14.77
689.434	6.77
689.556	28.77
689.678	20.77
689.801	-3.23
689.923	14.77
690.045	29.77
690.167	28.77
690.29	23.77
690.412	9.77
690.534	2.77
690.657	19.77
690.779	30.77
690.901	21.77
691.024	18.77
691.146	11.77
691.268	22.77
691.391	23.77
691.513	22.77
691.635	20.77
691.758	19.77
691.88	3.77
692.002	14.77
692.125	9.77
692.247	13.77
692.369	5.77
692.492	0.77
692.614	2.77
692.736	7.77
692.859	3.77
692.981	6.77
693.103	14.77
693.226	4.77
693.348	43.77
693.47	28.77
693.593	38.77
693.715	35.77
693.837	51.77
693.96	6.77
694.082	18.77
694.204	14.77
694.327	17.77
694.449	15.77
694.571	18.77
694.694	33.77
694.816	6.77
694.938	11.77
695.061	37.77
695.183	19.77
695.305	16.77
695.428	19.77
695.55	8.77
695.672	10.77
695.795	29.77
695.917	18.77
696.04	9.77
696.162	19.77
696.284	-2.23
696.407	9.77
696.529	24.77
696.651	34.77
696.774	9.77
696.896	31.77
697.019	20.77
697.141	21.77
697.263	21.77
697.386	-9.23
697.508	8.77
697.63	38.77
697.753	15.77
697.875	29.77
697.998	16.77
698.12	19.77
698.242	8.77
698.365	16.77
698.487	7.77
698.61	19.77
698.732	1.77
698.854	5.77
698.977	5.77
699.099	11.77
699.221	20.77
699.344	14.77
699.466	8.77
699.589	15.77
699.711	2.77
699.834	10.77
699.956	11.77
700.078	32.77
700.201	12.77
700.323	38.77
700.446	29.77
700.568	6.77
700.69	11.77
700.813	7.77
700.935	15.77
701.058	12.77
701.18	15.77
701.302	28.77
701.425	3.77
701.547	7.77
701.67	19.77
701.792	5.77
701.915	7.77
702.037	8.77
702.159	9.77
702.282	-1.23
702.404	11.77
702.527	18.77
702.649	22.77
702.772	13.77
702.894	19.77
703.017	12.77
703.139	5.77
703.261	16.77
703.384	21.77
703.506	-9.23
703.629	-2.23
703.751	12.77
703.874	16.77
703.996	-1.23
704.119	5.77
704.241	9.77
704.364	-1.23
704.486	32.77
704.608	22.77
704.731	11.77
704.853	21.77
704.976	12.77
705.098	23.77
705.221	16.77
705.343	23.77
705.466	22.77
705.588	29.77
705.711	31.77
705.833	12.77
705.956	-1.23
706.078	21.77
706.201	17.77
706.323	8.77
706.446	14.77
