Data from LowRes_mercury_15_20_11_07_2024_HR4C61881__85__15-23-40-770.txt Node

Date: Thu Nov 07 15:23:40 EST 2024
User: crc00042
Spectrometer: HR4C6188
Trigger mode: 4
Integration Time (sec): 1.000000E-1
Scans to average: 1
Electric dark correction enabled: true
Nonlinearity correction enabled: false
Boxcar width: 0
XAxis mode: Wavelengths
Number of Pixels in Spectrum: 3648
>>>>>Begin Spectral Data<<<<<
245.66	-76.38
245.797	-76.38
245.934	-76.38
246.071	-68.38
246.208	-10.38
246.344	-2.38
246.481	-4.38
246.618	-8.38
246.755	10.62
246.892	5.62
247.029	-8.38
247.165	-4.38
247.302	0.62
247.439	3.62
247.576	23.62
247.713	-23.38
247.849	25.62
247.986	-18.38
248.123	-1.38
248.26	-24.38
248.396	16.62
248.533	-10.38
248.67	-22.38
248.806	17.62
248.943	-9.38
249.08	-11.38
249.216	13.62
249.353	-27.38
249.49	-3.38
249.626	-4.38
249.763	-18.38
249.9	-13.38
250.036	26.62
250.173	-11.38
250.309	7.62
250.446	-9.38
250.582	-2.38
250.719	-10.38
250.856	-4.38
250.992	-0.38
251.129	-25.38
251.265	-1.38
251.402	8.62
251.538	1.62
251.675	4.62
251.811	10.62
251.948	11.62
252.084	2.62
252.221	-1.38
252.357	-4.38
252.493	16.62
252.63	1.62
252.766	17.62
252.903	11.62
253.039	-12.38
253.175	-1.38
253.312	8.62
253.448	-0.38
253.585	-19.38
253.721	13.62
253.857	-0.38
253.994	10.62
254.13	0.62
254.266	15.62
254.403	-4.38
254.539	-1.38
254.675	12.62
254.811	6.62
254.948	5.62
255.084	9.62
255.22	-6.38
255.356	15.62
255.493	-0.38
255.629	6.62
255.765	4.62
255.901	7.62
256.037	4.62
256.174	24.62
256.31	-12.38
256.446	-7.38
256.582	14.62
256.718	1.62
256.854	14.62
256.991	2.62
257.127	3.62
257.263	7.62
257.399	-6.38
257.535	-0.38
257.671	1.62
257.807	0.62
257.943	-16.38
258.079	-16.38
258.215	6.62
258.351	11.62
258.487	20.62
258.623	22.62
258.759	1.62
258.895	-0.38
259.031	-17.38
259.167	-6.38
259.303	13.62
259.439	8.62
259.575	6.62
259.711	2.62
259.847	-11.38
259.983	10.62
260.119	1.62
260.255	-6.38
260.391	-3.38
260.527	7.62
260.663	22.62
260.799	-0.38
260.934	-18.38
261.07	-5.38
261.206	-0.38
261.342	-18.38
261.478	18.62
261.614	18.62
261.749	2.62
261.885	-8.38
262.021	5.62
262.157	17.62
262.293	5.62
262.428	2.62
262.564	4.62
262.7	11.62
262.836	0.62
262.971	15.62
263.107	7.62
263.243	27.62
263.378	9.62
263.514	-9.38
263.65	-3.38
263.785	-25.38
263.921	-15.38
264.057	-8.38
264.192	17.62
264.328	33.62
264.464	-13.38
264.599	8.62
264.735	22.62
264.871	0.62
265.006	11.62
265.142	7.62
265.277	5.62
265.413	9.62
265.548	8.62
265.684	-2.38
265.819	-4.38
265.955	-1.38
266.091	-8.38
266.226	-24.38
266.362	5.62
266.497	10.62
266.633	-8.38
266.768	2.62
266.903	16.62
267.039	14.62
267.174	6.62
267.31	5.62
267.445	-3.38
267.581	6.62
267.716	18.62
267.851	3.62
267.987	12.62
268.122	12.62
268.258	3.62
268.393	-10.38
268.528	-1.38
268.664	-4.38
268.799	0.62
268.934	3.62
269.07	4.62
269.205	17.62
269.34	17.62
269.476	5.62
269.611	-19.38
269.746	12.62
269.881	32.62
270.017	22.62
270.152	-18.38
270.287	8.62
270.422	28.62
270.558	9.62
270.693	8.62
270.828	11.62
270.963	7.62
271.098	-17.38
271.234	4.62
271.369	16.62
271.504	6.62
271.639	-19.38
271.774	4.62
271.909	-3.38
272.045	-8.38
272.18	-3.38
272.315	1.62
272.45	16.62
272.585	-27.38
272.72	-24.38
272.855	24.62
272.99	3.62
273.125	-14.38
273.26	-12.38
273.395	-6.38
273.53	-23.38
273.665	5.62
273.8	-1.38
273.935	3.62
274.07	15.62
274.205	27.62
274.34	3.62
274.475	-15.38
274.61	23.62
274.745	17.62
274.88	20.62
275.015	-12.38
275.15	-4.38
275.285	9.62
275.42	-7.38
275.555	13.62
275.69	14.62
275.825	15.62
275.959	8.62
276.094	-2.38
276.229	-0.38
276.364	1.62
276.499	-1.38
276.634	-4.38
276.768	6.62
276.903	14.62
277.038	12.62
277.173	10.62
277.308	14.62
277.442	-2.38
277.577	-5.38
277.712	-0.38
277.847	4.62
277.981	5.62
278.116	-9.38
278.251	13.62
278.386	-9.38
278.52	15.62
278.655	6.62
278.79	3.62
278.924	7.62
279.059	27.62
279.194	-7.38
279.328	47.62
279.463	19.62
279.598	32.62
279.732	16.62
279.867	-10.38
280.001	17.62
280.136	17.62
280.271	-9.38
280.405	7.62
280.54	6.62
280.674	-13.38
280.809	26.62
280.943	21.62
281.078	0.62
281.213	7.62
281.347	6.62
281.482	13.62
281.616	-6.38
281.751	-0.38
281.885	-23.38
282.02	3.62
282.154	16.62
282.288	12.62
282.423	-5.38
282.557	-8.38
282.692	17.62
282.826	5.62
282.961	6.62
283.095	7.62
283.229	2.62
283.364	-6.38
283.498	-13.38
283.633	12.62
283.767	9.62
283.901	15.62
284.036	10.62
284.17	8.62
284.304	4.62
284.439	-0.38
284.573	19.62
284.707	30.62
284.842	-13.38
284.976	-0.38
285.11	-12.38
285.244	-10.38
285.379	53.62
285.513	6.62
285.647	15.62
285.781	-8.38
285.916	16.62
286.05	-6.38
286.184	26.62
286.318	-4.38
286.453	11.62
286.587	-15.38
286.721	2.62
286.855	4.62
286.989	17.62
287.123	15.62
287.258	1.62
287.392	-2.38
287.526	8.62
287.66	8.62
287.794	9.62
287.928	20.62
288.062	5.62
288.196	1.62
288.33	-6.38
288.464	21.62
288.598	15.62
288.733	-2.38
288.867	22.62
289.001	13.62
289.135	19.62
289.269	-7.38
289.403	2.62
289.537	14.62
289.671	20.62
289.805	-15.38
289.939	-11.38
290.073	-6.38
290.207	28.62
290.34	2.62
290.474	10.62
290.608	22.62
290.742	-3.38
290.876	-7.38
291.01	10.62
291.144	20.62
291.278	15.62
291.412	-1.38
291.546	9.62
291.679	-8.38
291.813	9.62
291.947	7.62
292.081	3.62
292.215	5.62
292.349	19.62
292.482	26.62
292.616	-8.38
292.75	5.62
292.884	2.62
293.018	8.62
293.151	3.62
293.285	15.62
293.419	-3.38
293.553	-5.38
293.686	-13.38
293.82	10.62
293.954	27.62
294.088	31.62
294.221	2.62
294.355	2.62
294.489	8.62
294.622	4.62
294.756	-2.38
294.89	-2.38
295.023	18.62
295.157	14.62
295.291	20.62
295.424	11.62
295.558	-8.38
295.691	-18.38
295.825	-2.38
295.959	11.62
296.092	-3.38
296.226	13.62
296.359	17.62
296.493	-1.38
296.627	-0.38
296.76	1.62
296.894	1.62
297.027	16.62
297.161	-3.38
297.294	-20.38
297.428	-8.38
297.561	20.62
297.695	-16.38
297.828	9.62
297.962	-6.38
298.095	10.62
298.229	7.62
298.362	-3.38
298.495	-1.38
298.629	-13.38
298.762	22.62
298.896	-10.38
299.029	-5.38
299.162	11.62
299.296	1.62
299.429	6.62
299.563	-23.38
299.696	13.62
299.829	1.62
299.963	18.62
300.096	18.62
300.229	5.62
300.363	-0.38
300.496	4.62
300.629	-9.38
300.763	-14.38
300.896	13.62
301.029	12.62
301.162	-2.38
301.296	-16.38
301.429	6.62
301.562	-5.38
301.695	21.62
301.829	11.62
301.962	16.62
302.095	2.62
302.228	-9.38
302.362	0.62
302.495	-13.38
302.628	-0.38
302.761	11.62
302.894	5.62
303.027	24.62
303.161	-0.38
303.294	11.62
303.427	15.62
303.56	14.62
303.693	6.62
303.826	-10.38
303.959	-13.38
304.092	-13.38
304.225	-1.38
304.359	-3.38
304.492	0.62
304.625	-1.38
304.758	3.62
304.891	-13.38
305.024	-15.38
305.157	-0.38
305.29	5.62
305.423	10.62
305.556	7.62
305.689	19.62
305.822	-23.38
305.955	1.62
306.088	4.62
306.221	5.62
306.354	-3.38
306.487	-0.38
306.62	-6.38
306.752	-1.38
306.885	7.62
307.018	7.62
307.151	18.62
307.284	24.62
307.417	2.62
307.55	9.62
307.683	4.62
307.816	6.62
307.948	10.62
308.081	18.62
308.214	28.62
308.347	15.62
308.48	3.62
308.613	14.62
308.745	6.62
308.878	-8.38
309.011	-0.38
309.144	24.62
309.277	2.62
309.409	24.62
309.542	-0.38
309.675	24.62
309.808	0.62
309.94	34.62
310.073	-4.38
310.206	9.62
310.339	12.62
310.471	-1.38
310.604	26.62
310.737	6.62
310.869	14.62
311.002	0.62
311.135	-13.38
311.267	-7.38
311.4	-1.38
311.533	31.62
311.665	1.62
311.798	-9.38
311.93	11.62
312.063	35.62
312.196	45.62
312.328	95.62
312.461	68.62
312.593	35.62
312.726	52.62
312.859	101.62
312.991	152.62
313.124	40.62
313.256	34.62
313.389	26.62
313.521	-14.38
313.654	12.62
313.786	-8.38
313.919	-0.38
314.051	-5.38
314.184	12.62
314.316	8.62
314.449	9.62
314.581	-7.38
314.714	11.62
314.846	9.62
314.978	-8.38
315.111	-5.38
315.243	-2.38
315.376	13.62
315.508	17.62
315.641	3.62
315.773	12.62
315.905	10.62
316.038	-9.38
316.17	8.62
316.302	22.62
316.435	9.62
316.567	-8.38
316.699	11.62
316.832	-9.38
316.964	-14.38
317.096	-8.38
317.229	-5.38
317.361	-12.38
317.493	-2.38
317.625	-12.38
317.758	14.62
317.89	21.62
318.022	1.62
318.155	-16.38
318.287	5.62
318.419	0.62
318.551	5.62
318.683	1.62
318.816	2.62
318.948	-7.38
319.08	-14.38
319.212	-6.38
319.344	11.62
319.477	3.62
319.609	17.62
319.741	27.62
319.873	1.62
320.005	3.62
320.137	8.62
320.269	26.62
320.401	3.62
320.534	-6.38
320.666	-22.38
320.798	-11.38
320.93	-7.38
321.062	-21.38
321.194	-5.38
321.326	-3.38
321.458	16.62
321.59	2.62
321.722	-18.38
321.854	2.62
321.986	1.62
322.118	-6.38
322.25	-1.38
322.382	4.62
322.514	1.62
322.646	-9.38
322.778	10.62
322.91	-11.38
323.042	9.62
323.174	3.62
323.306	15.62
323.438	-10.38
323.57	3.62
323.702	-24.38
323.834	-10.38
323.966	-17.38
324.097	-3.38
324.229	17.62
324.361	25.62
324.493	0.62
324.625	-2.38
324.757	20.62
324.889	14.62
325.021	12.62
325.152	24.62
325.284	16.62
325.416	-9.38
325.548	29.62
325.68	5.62
325.811	28.62
325.943	9.62
326.075	-6.38
326.207	11.62
326.339	0.62
326.47	8.62
326.602	29.62
326.734	26.62
326.866	11.62
326.997	10.62
327.129	0.62
327.261	-5.38
327.392	8.62
327.524	-9.38
327.656	9.62
327.787	5.62
327.919	5.62
328.051	10.62
328.182	26.62
328.314	45.62
328.446	3.62
328.577	35.62
328.709	11.62
328.841	-18.38
328.972	1.62
329.104	-4.38
329.235	1.62
329.367	14.62
329.499	9.62
329.63	16.62
329.762	8.62
329.893	22.62
330.025	7.62
330.156	-6.38
330.288	18.62
330.419	20.62
330.551	12.62
330.683	9.62
330.814	12.62
330.946	5.62
331.077	-1.38
331.208	0.62
331.34	7.62
331.471	-2.38
331.603	18.62
331.734	-6.38
331.866	1.62
331.997	1.62
332.129	10.62
332.26	5.62
332.392	19.62
332.523	-7.38
332.654	-12.38
332.786	6.62
332.917	18.62
333.048	23.62
333.18	22.62
333.311	-8.38
333.443	-1.38
333.574	15.62
333.705	38.62
333.837	41.62
333.968	114.62
334.099	246.62
334.231	210.62
334.362	68.62
334.493	22.62
334.624	34.62
334.756	29.62
334.887	19.62
335.018	9.62
335.15	25.62
335.281	14.62
335.412	29.62
335.543	18.62
335.675	23.62
335.806	2.62
335.937	7.62
336.068	5.62
336.199	26.62
336.331	1.62
336.462	11.62
336.593	32.62
336.724	-3.38
336.855	12.62
336.986	20.62
337.118	18.62
337.249	15.62
337.38	21.62
337.511	26.62
337.642	23.62
337.773	2.62
337.904	15.62
338.035	7.62
338.166	18.62
338.298	-12.38
338.429	2.62
338.56	34.62
338.691	48.62
338.822	30.62
338.953	26.62
339.084	18.62
339.215	21.62
339.346	18.62
339.477	21.62
339.608	23.62
339.739	1.62
339.87	16.62
340.001	23.62
340.132	14.62
340.263	7.62
340.394	13.62
340.525	22.62
340.656	4.62
340.787	-11.38
340.918	21.62
341.049	14.62
341.179	1.62
341.31	13.62
341.441	17.62
341.572	22.62
341.703	14.62
341.834	21.62
341.965	43.62
342.096	7.62
342.227	25.62
342.357	17.62
342.488	8.62
342.619	16.62
342.75	14.62
342.881	16.62
343.012	27.62
343.142	46.62
343.273	16.62
343.404	15.62
343.535	28.62
343.666	36.62
343.796	21.62
343.927	17.62
344.058	30.62
344.189	40.62
344.319	28.62
344.45	35.62
344.581	20.62
344.712	5.62
344.842	33.62
344.973	15.62
345.104	27.62
345.234	25.62
345.365	21.62
345.496	23.62
345.626	25.62
345.757	40.62
345.888	16.62
346.018	42.62
346.149	36.62
346.28	34.62
346.41	26.62
346.541	27.62
346.672	11.62
346.802	29.62
346.933	24.62
347.063	29.62
347.194	21.62
347.325	31.62
347.455	35.62
347.586	32.62
347.716	20.62
347.847	29.62
347.977	27.62
348.108	44.62
348.238	64.62
348.369	39.62
348.499	51.62
348.63	42.62
348.76	53.62
348.891	58.62
349.021	66.62
349.152	38.62
349.282	41.62
349.413	39.62
349.543	59.62
349.674	44.62
349.804	44.62
349.935	36.62
350.065	30.62
350.196	24.62
350.326	29.62
350.456	16.62
350.587	36.62
350.717	27.62
350.848	17.62
350.978	17.62
351.108	10.62
351.239	34.62
351.369	30.62
351.499	34.62
351.63	35.62
351.76	18.62
351.89	28.62
352.021	27.62
352.151	28.62
352.281	25.62
352.412	22.62
352.542	22.62
352.672	16.62
352.803	12.62
352.933	16.62
353.063	20.62
353.193	27.62
353.324	15.62
353.454	38.62
353.584	15.62
353.714	16.62
353.845	18.62
353.975	9.62
354.105	18.62
354.235	18.62
354.365	-0.38
354.496	12.62
354.626	16.62
354.756	32.62
354.886	23.62
355.016	33.62
355.146	26.62
355.277	9.62
355.407	4.62
355.537	13.62
355.667	15.62
355.797	21.62
355.927	32.62
356.057	39.62
356.187	4.62
356.318	19.62
356.448	18.62
356.578	29.62
356.708	34.62
356.838	51.62
356.968	35.62
357.098	38.62
357.228	37.62
357.358	36.62
357.488	21.62
357.618	57.62
357.748	41.62
357.878	30.62
358.008	29.62
358.138	42.62
358.268	19.62
358.398	30.62
358.528	1.62
358.658	28.62
358.788	24.62
358.918	40.62
359.048	14.62
359.178	33.62
359.308	41.62
359.438	47.62
359.568	42.62
359.698	37.62
359.827	30.62
359.957	33.62
360.087	31.62
360.217	33.62
360.347	46.62
360.477	41.62
360.607	20.62
360.737	34.62
360.866	35.62
360.996	19.62
361.126	12.62
361.256	30.62
361.386	57.62
361.516	38.62
361.645	18.62
361.775	32.62
361.905	10.62
362.035	14.62
362.165	30.62
362.294	45.62
362.424	39.62
362.554	42.62
362.684	28.62
362.813	48.62
362.943	56.62
363.073	72.62
363.203	46.62
363.332	91.62
363.462	72.62
363.592	97.62
363.721	110.62
363.851	149.62
363.981	200.62
364.111	245.62
364.24	316.62
364.37	490.62
364.5	875.62
364.629	1828.62
364.759	3867.62
364.888	6338.62
365.018	9451.62
365.148	14823.62
365.277	12978.62
365.407	4802.62
365.537	3167.62
365.666	4053.62
365.796	1844.62
365.925	807.62
366.055	783.62
366.184	1045.62
366.314	1386.62
366.444	2479.62
366.573	2111.62
366.703	673.62
366.832	219.62
366.962	127.62
367.091	85.62
367.221	82.62
367.35	47.62
367.48	91.62
367.609	49.62
367.739	57.62
367.868	34.62
367.998	42.62
368.127	43.62
368.257	63.62
368.386	61.62
368.516	57.62
368.645	49.62
368.775	70.62
368.904	28.62
369.033	48.62
369.163	30.62
369.292	45.62
369.422	49.62
369.551	48.62
369.68	31.62
369.81	42.62
369.939	41.62
370.069	62.62
370.198	45.62
370.327	37.62
370.457	41.62
370.586	60.62
370.715	16.62
370.845	30.62
370.974	45.62
371.103	65.62
371.233	51.62
371.362	43.62
371.491	32.62
371.621	58.62
371.75	58.62
371.879	40.62
372.008	53.62
372.138	62.62
372.267	52.62
372.396	66.62
372.525	40.62
372.655	31.62
372.784	37.62
372.913	32.62
373.042	25.62
373.172	51.62
373.301	7.62
373.43	2.62
373.559	5.62
373.688	16.62
373.818	28.62
373.947	31.62
374.076	9.62
374.205	30.62
374.334	9.62
374.463	15.62
374.593	38.62
374.722	40.62
374.851	32.62
374.98	6.62
375.109	13.62
375.238	30.62
375.367	49.62
375.496	10.62
375.625	-2.38
375.755	49.62
375.884	46.62
376.013	11.62
376.142	11.62
376.271	25.62
376.4	20.62
376.529	38.62
376.658	28.62
376.787	23.62
376.916	35.62
377.045	18.62
377.174	26.62
377.303	22.62
377.432	27.62
377.561	40.62
377.69	32.62
377.819	38.62
377.948	6.62
378.077	15.62
378.206	0.62
378.335	11.62
378.464	12.62
378.593	27.62
378.722	13.62
378.851	30.62
378.98	50.62
379.108	15.62
379.237	-2.38
379.366	33.62
379.495	31.62
379.624	34.62
379.753	37.62
379.882	20.62
380.011	7.62
380.14	11.62
380.268	14.62
380.397	14.62
380.526	37.62
380.655	15.62
380.784	-2.38
380.913	14.62
381.041	5.62
381.17	-2.38
381.299	-0.38
381.428	26.62
381.557	28.62
381.685	17.62
381.814	10.62
381.943	11.62
382.072	-1.38
382.2	9.62
382.329	20.62
382.458	24.62
382.587	44.62
382.715	36.62
382.844	24.62
382.973	17.62
383.102	20.62
383.23	20.62
383.359	6.62
383.488	36.62
383.616	17.62
383.745	-1.38
383.874	15.62
384.003	14.62
384.131	-1.38
384.26	14.62
384.389	19.62
384.517	-9.38
384.646	8.62
384.774	18.62
384.903	37.62
385.032	34.62
385.16	28.62
385.289	18.62
385.418	26.62
385.546	19.62
385.675	23.62
385.803	26.62
385.932	28.62
386.06	0.62
386.189	18.62
386.318	19.62
386.446	4.62
386.575	24.62
386.703	26.62
386.832	27.62
386.96	2.62
387.089	49.62
387.217	44.62
387.346	11.62
387.474	16.62
387.603	29.62
387.731	19.62
387.86	38.62
387.988	23.62
388.117	29.62
388.245	28.62
388.374	10.62
388.502	34.62
388.631	9.62
388.759	21.62
388.888	26.62
389.016	17.62
389.144	22.62
389.273	30.62
389.401	5.62
389.53	-3.38
389.658	25.62
389.786	24.62
389.915	4.62
390.043	-1.38
390.172	28.62
390.3	35.62
390.428	50.62
390.557	11.62
390.685	33.62
390.813	45.62
390.942	40.62
391.07	15.62
391.198	16.62
391.327	13.62
391.455	16.62
391.583	37.62
391.712	26.62
391.84	32.62
391.968	-13.38
392.096	18.62
392.225	14.62
392.353	17.62
392.481	11.62
392.609	38.62
392.738	26.62
392.866	26.62
392.994	15.62
393.122	42.62
393.251	3.62
393.379	6.62
393.507	3.62
393.635	19.62
393.764	33.62
393.892	25.62
394.02	35.62
394.148	26.62
394.276	33.62
394.404	47.62
394.533	5.62
394.661	20.62
394.789	46.62
394.917	49.62
395.045	11.62
395.173	17.62
395.302	30.62
395.43	31.62
395.558	42.62
395.686	14.62
395.814	20.62
395.942	10.62
396.07	50.62
396.198	32.62
396.326	49.62
396.454	30.62
396.582	38.62
396.711	30.62
396.839	30.62
396.967	16.62
397.095	-2.38
397.223	33.62
397.351	22.62
397.479	36.62
397.607	30.62
397.735	41.62
397.863	40.62
397.991	59.62
398.119	34.62
398.247	29.62
398.375	60.62
398.503	40.62
398.631	37.62
398.759	59.62
398.887	46.62
399.015	39.62
399.143	47.62
399.271	64.62
399.399	79.62
399.526	54.62
399.654	71.62
399.782	60.62
399.91	104.62
400.038	98.62
400.166	74.62
400.294	92.62
400.422	73.62
400.55	118.62
400.678	112.62
400.805	112.62
400.933	130.62
401.061	120.62
401.189	125.62
401.317	156.62
401.445	116.62
401.573	75.62
401.7	62.62
401.828	28.62
401.956	64.62
402.084	36.62
402.212	46.62
402.34	47.62
402.467	50.62
402.595	46.62
402.723	73.62
402.851	60.62
402.978	56.62
403.106	79.62
403.234	75.62
403.362	120.62
403.489	132.62
403.617	153.62
403.745	215.62
403.873	294.62
404	567.62
404.128	1471.62
404.256	3944.62
404.384	5156.62
404.511	5530.62
404.639	7250.62
404.767	11482.62
404.894	14661.62
405.022	4915.62
405.15	1305.62
405.277	453.62
405.405	250.62
405.533	122.62
405.66	100.62
405.788	73.62
405.916	68.62
406.043	54.62
406.171	56.62
406.299	51.62
406.426	82.62
406.554	70.62
406.681	73.62
406.809	55.62
406.937	62.62
407.064	55.62
407.192	128.62
407.319	291.62
407.447	537.62
407.574	527.62
407.702	642.62
407.83	873.62
407.957	1620.62
408.085	925.62
408.212	279.62
408.34	105.62
408.467	65.62
408.595	46.62
408.722	52.62
408.85	54.62
408.977	13.62
409.105	39.62
409.232	46.62
409.36	37.62
409.487	32.62
409.615	23.62
409.742	44.62
409.87	27.62
409.997	42.62
410.125	35.62
410.252	39.62
410.379	26.62
410.507	32.62
410.634	34.62
410.762	42.62
410.889	49.62
411.017	19.62
411.144	51.62
411.271	27.62
411.399	37.62
411.526	31.62
411.653	34.62
411.781	37.62
411.908	30.62
412.036	20.62
412.163	26.62
412.29	31.62
412.418	31.62
412.545	31.62
412.672	18.62
412.8	46.62
412.927	43.62
413.054	51.62
413.182	36.62
413.309	13.62
413.436	10.62
413.564	25.62
413.691	33.62
413.818	33.62
413.945	15.62
414.073	31.62
414.2	24.62
414.327	40.62
414.454	44.62
414.582	41.62
414.709	36.62
414.836	23.62
414.963	28.62
415.091	29.62
415.218	28.62
415.345	33.62
415.472	33.62
415.6	28.62
415.727	24.62
415.854	34.62
415.981	34.62
416.108	28.62
416.236	24.62
416.363	31.62
416.49	27.62
416.617	36.62
416.744	37.62
416.871	23.62
416.998	23.62
417.126	45.62
417.253	28.62
417.38	35.62
417.507	30.62
417.634	44.62
417.761	29.62
417.888	39.62
418.015	34.62
418.143	51.62
418.27	45.62
418.397	36.62
418.524	32.62
418.651	40.62
418.778	39.62
418.905	62.62
419.032	68.62
419.159	44.62
419.286	72.62
419.413	34.62
419.54	55.62
419.667	23.62
419.794	18.62
419.921	48.62
420.048	34.62
420.175	39.62
420.302	42.62
420.429	63.62
420.556	54.62
420.683	70.62
420.81	53.62
420.937	58.62
421.064	76.62
421.191	59.62
421.318	66.62
421.445	83.62
421.572	58.62
421.699	61.62
421.826	45.62
421.953	26.62
422.08	35.62
422.207	14.62
422.334	11.62
422.461	26.62
422.588	3.62
422.714	32.62
422.841	46.62
422.968	30.62
423.095	20.62
423.222	16.62
423.349	34.62
423.476	32.62
423.603	2.62
423.729	12.62
423.856	19.62
423.983	40.62
424.11	18.62
424.237	24.62
424.364	33.62
424.491	34.62
424.617	8.62
424.744	11.62
424.871	36.62
424.998	15.62
425.125	21.62
425.251	17.62
425.378	6.62
425.505	30.62
425.632	16.62
425.758	2.62
425.885	27.62
426.012	32.62
426.139	27.62
426.266	35.62
426.392	24.62
426.519	29.62
426.646	11.62
426.772	36.62
426.899	28.62
427.026	21.62
427.153	22.62
427.279	28.62
427.406	30.62
427.533	33.62
427.659	14.62
427.786	6.62
427.913	48.62
428.039	17.62
428.166	20.62
428.293	16.62
428.419	36.62
428.546	16.62
428.673	10.62
428.799	20.62
428.926	35.62
429.053	41.62
429.179	21.62
429.306	21.62
429.433	31.62
429.559	13.62
429.686	9.62
429.812	16.62
429.939	6.62
430.066	12.62
430.192	30.62
430.319	30.62
430.445	23.62
430.572	36.62
430.699	17.62
430.825	27.62
430.952	32.62
431.078	19.62
431.205	35.62
431.331	39.62
431.458	30.62
431.584	35.62
431.711	13.62
431.837	12.62
431.964	13.62
432.09	32.62
432.217	12.62
432.343	14.62
432.47	30.62
432.596	27.62
432.723	28.62
432.849	22.62
432.976	32.62
433.102	41.62
433.229	41.62
433.355	52.62
433.482	70.62
433.608	106.62
433.735	100.62
433.861	109.62
433.987	145.62
434.114	175.62
434.24	162.62
434.367	213.62
434.493	210.62
434.62	296.62
434.746	368.62
434.872	621.62
434.999	827.62
435.125	1716.62
435.252	5560.62
435.378	13442.62
435.504	15222.62
435.631	15433.62
435.757	15683.62
435.883	15683.62
436.01	15683.62
436.136	15683.62
436.262	15683.62
436.389	3467.62
436.515	2199.62
436.641	810.62
436.768	651.62
436.894	413.62
437.02	426.62
437.147	292.62
437.273	304.62
437.399	223.62
437.526	233.62
437.652	163.62
437.778	197.62
437.904	145.62
438.031	166.62
438.157	121.62
438.283	143.62
438.409	128.62
438.536	120.62
438.662	126.62
438.788	121.62
438.914	132.62
439.041	107.62
439.167	108.62
439.293	112.62
439.419	87.62
439.546	102.62
439.672	76.62
439.798	92.62
439.924	84.62
440.05	94.62
440.177	82.62
440.303	72.62
440.429	61.62
440.555	93.62
440.681	71.62
440.807	94.62
440.934	65.62
441.06	59.62
441.186	51.62
441.312	61.62
441.438	58.62
441.564	77.62
441.69	69.62
441.816	57.62
441.943	44.62
442.069	74.62
442.195	60.62
442.321	73.62
442.447	33.62
442.573	54.62
442.699	28.62
442.825	46.62
442.951	47.62
443.077	58.62
443.203	47.62
443.33	50.62
443.456	38.62
443.582	52.62
443.708	31.62
443.834	57.62
443.96	43.62
444.086	55.62
444.212	61.62
444.338	64.62
444.464	52.62
444.59	66.62
444.716	43.62
444.842	40.62
444.968	33.62
445.094	44.62
445.22	23.62
445.346	24.62
445.472	26.62
445.598	26.62
445.724	31.62
445.85	52.62
445.976	42.62
446.102	52.62
446.228	26.62
446.354	38.62
446.48	11.62
446.605	28.62
446.731	45.62
446.857	28.62
446.983	29.62
447.109	30.62
447.235	41.62
447.361	31.62
447.487	40.62
447.613	50.62
447.739	21.62
447.865	27.62
447.99	25.62
448.116	41.62
448.242	38.62
448.368	31.62
448.494	24.62
448.62	19.62
448.746	23.62
448.872	37.62
448.997	25.62
449.123	27.62
449.249	39.62
449.375	59.62
449.501	22.62
449.627	24.62
449.752	57.62
449.878	17.62
450.004	36.62
450.13	20.62
450.256	23.62
450.381	35.62
450.507	30.62
450.633	22.62
450.759	28.62
450.884	32.62
451.01	22.62
451.136	11.62
451.262	29.62
451.388	30.62
451.513	16.62
451.639	22.62
451.765	45.62
451.89	61.62
452.016	39.62
452.142	42.62
452.268	25.62
452.393	29.62
452.519	19.62
452.645	18.62
452.771	34.62
452.896	17.62
453.022	30.62
453.148	50.62
453.273	28.62
453.399	33.62
453.525	21.62
453.65	46.62
453.776	36.62
453.902	54.62
454.027	26.62
454.153	30.62
454.279	37.62
454.404	8.62
454.53	29.62
454.656	61.62
454.781	24.62
454.907	23.62
455.032	41.62
455.158	47.62
455.284	27.62
455.409	45.62
455.535	30.62
455.66	21.62
455.786	42.62
455.912	20.62
456.037	7.62
456.163	33.62
456.288	28.62
456.414	32.62
456.539	27.62
456.665	38.62
456.791	19.62
456.916	9.62
457.042	29.62
457.167	30.62
457.293	36.62
457.418	40.62
457.544	35.62
457.669	32.62
457.795	17.62
457.92	25.62
458.046	29.62
458.171	25.62
458.297	10.62
458.422	32.62
458.548	17.62
458.673	26.62
458.799	13.62
458.924	23.62
459.05	26.62
459.175	30.62
459.301	38.62
459.426	45.62
459.552	33.62
459.677	26.62
459.803	26.62
459.928	12.62
460.053	8.62
460.179	11.62
460.304	47.62
460.43	15.62
460.555	43.62
460.681	13.62
460.806	36.62
460.931	23.62
461.057	35.62
461.182	27.62
461.308	27.62
461.433	37.62
461.558	22.62
461.684	50.62
461.809	46.62
461.934	18.62
462.06	34.62
462.185	30.62
462.311	30.62
462.436	29.62
462.561	28.62
462.687	20.62
462.812	28.62
462.937	29.62
463.063	9.62
463.188	7.62
463.313	15.62
463.439	10.62
463.564	22.62
463.689	42.62
463.814	38.62
463.94	27.62
464.065	32.62
464.19	24.62
464.316	13.62
464.441	18.62
464.566	10.62
464.692	24.62
464.817	16.62
464.942	15.62
465.067	37.62
465.193	11.62
465.318	40.62
465.443	30.62
465.568	30.62
465.694	15.62
465.819	35.62
465.944	17.62
466.069	36.62
466.194	44.62
466.32	44.62
466.445	24.62
466.57	49.62
466.695	17.62
466.82	35.62
466.946	43.62
467.071	34.62
467.196	18.62
467.321	50.62
467.446	23.62
467.572	32.62
467.697	27.62
467.822	39.62
467.947	46.62
468.072	37.62
468.197	30.62
468.323	28.62
468.448	28.62
468.573	28.62
468.698	12.62
468.823	37.62
468.948	44.62
469.073	33.62
469.198	43.62
469.324	43.62
469.449	31.62
469.574	53.62
469.699	49.62
469.824	44.62
469.949	22.62
470.074	30.62
470.199	61.62
470.324	56.62
470.449	50.62
470.574	37.62
470.7	42.62
470.825	60.62
470.95	45.62
471.075	31.62
471.2	44.62
471.325	50.62
471.45	41.62
471.575	30.62
471.7	37.62
471.825	29.62
471.95	18.62
472.075	23.62
472.2	27.62
472.325	33.62
472.45	1.62
472.575	22.62
472.7	31.62
472.825	45.62
472.95	32.62
473.075	40.62
473.2	16.62
473.325	51.62
473.45	38.62
473.575	40.62
473.7	46.62
473.825	23.62
473.95	25.62
474.075	29.62
474.2	16.62
474.325	23.62
474.45	43.62
474.574	29.62
474.699	32.62
474.824	30.62
474.949	16.62
475.074	19.62
475.199	34.62
475.324	24.62
475.449	16.62
475.574	13.62
475.699	35.62
475.824	23.62
475.949	27.62
476.073	18.62
476.198	27.62
476.323	29.62
476.448	34.62
476.573	24.62
476.698	31.62
476.823	35.62
476.947	32.62
477.072	50.62
477.197	41.62
477.322	20.62
477.447	2.62
477.572	28.62
477.697	3.62
477.821	19.62
477.946	21.62
478.071	25.62
478.196	24.62
478.321	17.62
478.445	34.62
478.57	23.62
478.695	22.62
478.82	38.62
478.945	36.62
479.069	-0.38
479.194	31.62
479.319	34.62
479.444	21.62
479.569	17.62
479.693	19.62
479.818	22.62
479.943	22.62
480.068	14.62
480.192	29.62
480.317	36.62
480.442	10.62
480.567	18.62
480.691	16.62
480.816	17.62
480.941	1.62
481.066	26.62
481.19	41.62
481.315	25.62
481.44	29.62
481.564	4.62
481.689	28.62
481.814	40.62
481.938	29.62
482.063	5.62
482.188	14.62
482.313	27.62
482.437	21.62
482.562	16.62
482.687	19.62
482.811	23.62
482.936	24.62
483.061	46.62
483.185	31.62
483.31	15.62
483.435	32.62
483.559	21.62
483.684	25.62
483.808	38.62
483.933	22.62
484.058	18.62
484.182	23.62
484.307	20.62
484.432	27.62
484.556	16.62
484.681	21.62
484.805	10.62
484.93	15.62
485.055	27.62
485.179	45.62
485.304	41.62
485.428	33.62
485.553	12.62
485.678	24.62
485.802	17.62
485.927	40.62
486.051	32.62
486.176	30.62
486.3	25.62
486.425	15.62
486.549	31.62
486.674	24.62
486.799	43.62
486.923	16.62
487.048	19.62
487.172	24.62
487.297	32.62
487.421	31.62
487.546	27.62
487.67	38.62
487.795	1.62
487.919	18.62
488.044	29.62
488.168	29.62
488.293	16.62
488.417	17.62
488.542	20.62
488.666	40.62
488.791	34.62
488.915	25.62
489.04	30.62
489.164	40.62
489.289	48.62
489.413	9.62
489.538	24.62
489.662	25.62
489.786	8.62
489.911	31.62
490.035	22.62
490.16	25.62
490.284	21.62
490.409	12.62
490.533	35.62
490.658	46.62
490.782	29.62
490.906	59.62
491.031	121.62
491.155	124.62
491.28	150.62
491.404	161.62
491.528	254.62
491.653	171.62
491.777	91.62
491.902	28.62
492.026	24.62
492.15	25.62
492.275	46.62
492.399	34.62
492.524	21.62
492.648	32.62
492.772	20.62
492.897	28.62
493.021	15.62
493.145	33.62
493.27	30.62
493.394	22.62
493.518	19.62
493.643	7.62
493.767	26.62
493.891	18.62
494.016	9.62
494.14	25.62
494.264	31.62
494.389	38.62
494.513	33.62
494.637	16.62
494.762	21.62
494.886	29.62
495.01	25.62
495.134	21.62
495.259	24.62
495.383	17.62
495.507	30.62
495.632	48.62
495.756	52.62
495.88	31.62
496.004	14.62
496.129	8.62
496.253	33.62
496.377	21.62
496.501	38.62
496.626	10.62
496.75	21.62
496.874	10.62
496.998	8.62
497.123	33.62
497.247	18.62
497.371	29.62
497.495	32.62
497.62	33.62
497.744	14.62
497.868	26.62
497.992	14.62
498.116	23.62
498.241	19.62
498.365	18.62
498.489	13.62
498.613	23.62
498.737	17.62
498.862	35.62
498.986	15.62
499.11	31.62
499.234	28.62
499.358	28.62
499.482	14.62
499.607	28.62
499.731	20.62
499.855	18.62
499.979	22.62
500.103	38.62
500.227	20.62
500.351	10.62
500.476	20.62
500.6	24.62
500.724	47.62
500.848	27.62
500.972	34.62
501.096	28.62
501.22	39.62
501.344	23.62
501.469	20.62
501.593	27.62
501.717	30.62
501.841	17.62
501.965	42.62
502.089	29.62
502.213	38.62
502.337	24.62
502.461	36.62
502.585	31.62
502.709	6.62
502.834	22.62
502.958	22.62
503.082	12.62
503.206	26.62
503.33	38.62
503.454	17.62
503.578	40.62
503.702	20.62
503.826	17.62
503.95	37.62
504.074	21.62
504.198	7.62
504.322	27.62
504.446	12.62
504.57	27.62
504.694	29.62
504.818	18.62
504.942	32.62
505.066	35.62
505.19	19.62
505.314	29.62
505.438	30.62
505.562	24.62
505.686	36.62
505.81	14.62
505.934	35.62
506.058	26.62
506.182	12.62
506.306	34.62
506.43	27.62
506.554	19.62
506.678	20.62
506.802	30.62
506.926	29.62
507.05	24.62
507.174	27.62
507.298	35.62
507.422	24.62
507.546	36.62
507.67	28.62
507.794	3.62
507.918	31.62
508.042	34.62
508.165	10.62
508.289	22.62
508.413	27.62
508.537	20.62
508.661	24.62
508.785	23.62
508.909	39.62
509.033	29.62
509.157	45.62
509.281	26.62
509.405	20.62
509.528	57.62
509.652	35.62
509.776	29.62
509.9	56.62
510.024	45.62
510.148	22.62
510.272	46.62
510.396	47.62
510.519	34.62
510.643	45.62
510.767	30.62
510.891	32.62
511.015	46.62
511.139	41.62
511.263	50.62
511.386	54.62
511.51	46.62
511.634	35.62
511.758	51.62
511.882	38.62
512.006	50.62
512.129	70.62
512.253	88.62
512.377	86.62
512.501	93.62
512.625	89.62
512.748	85.62
512.872	60.62
512.996	58.62
513.12	76.62
513.244	45.62
513.367	82.62
513.491	76.62
513.615	68.62
513.739	67.62
513.862	78.62
513.986	80.62
514.11	112.62
514.234	79.62
514.358	115.62
514.481	109.62
514.605	125.62
514.729	121.62
514.853	105.62
514.976	112.62
515.1	108.62
515.224	117.62
515.348	91.62
515.471	88.62
515.595	111.62
515.719	142.62
515.842	213.62
515.966	267.62
516.09	305.62
516.214	301.62
516.337	325.62
516.461	242.62
516.585	91.62
516.708	48.62
516.832	30.62
516.956	27.62
517.08	17.62
517.203	8.62
517.327	20.62
517.451	27.62
517.574	44.62
517.698	24.62
517.822	24.62
517.945	30.62
518.069	38.62
518.193	56.62
518.316	30.62
518.44	36.62
518.564	25.62
518.687	4.62
518.811	31.62
518.935	51.62
519.058	31.62
519.182	24.62
519.306	33.62
519.429	14.62
519.553	62.62
519.676	38.62
519.8	27.62
519.924	16.62
520.047	13.62
520.171	18.62
520.294	20.62
520.418	37.62
520.542	22.62
520.665	45.62
520.789	29.62
520.913	13.62
521.036	15.62
521.16	18.62
521.283	4.62
521.407	16.62
521.53	21.62
521.654	10.62
521.778	36.62
521.901	11.62
522.025	18.62
522.148	18.62
522.272	26.62
522.395	16.62
522.519	33.62
522.643	10.62
522.766	26.62
522.89	11.62
523.013	28.62
523.137	-6.38
523.26	12.62
523.384	27.62
523.507	15.62
523.631	27.62
523.754	11.62
523.878	27.62
524.002	15.62
524.125	16.62
524.249	5.62
524.372	27.62
524.496	13.62
524.619	16.62
524.743	-1.38
524.866	18.62
524.99	14.62
525.113	16.62
525.237	30.62
525.36	14.62
525.484	11.62
525.607	17.62
525.731	6.62
525.854	19.62
525.978	38.62
526.101	2.62
526.224	15.62
526.348	25.62
526.471	17.62
526.595	19.62
526.718	21.62
526.842	6.62
526.965	12.62
527.089	4.62
527.212	21.62
527.336	18.62
527.459	19.62
527.582	0.62
527.706	32.62
527.829	12.62
527.953	30.62
528.076	21.62
528.2	8.62
528.323	24.62
528.446	29.62
528.57	14.62
528.693	39.62
528.817	14.62
528.94	28.62
529.064	32.62
529.187	9.62
529.31	4.62
529.434	9.62
529.557	8.62
529.68	2.62
529.804	21.62
529.927	27.62
530.051	33.62
530.174	4.62
530.297	13.62
530.421	32.62
530.544	29.62
530.668	33.62
530.791	4.62
530.914	20.62
531.038	6.62
531.161	21.62
531.284	21.62
531.408	33.62
531.531	18.62
531.654	10.62
531.778	16.62
531.901	11.62
532.024	38.62
532.148	28.62
532.271	23.62
532.394	13.62
532.518	29.62
532.641	15.62
532.764	26.62
532.888	17.62
533.011	-2.38
533.134	13.62
533.258	36.62
533.381	8.62
533.504	12.62
533.628	18.62
533.751	25.62
533.874	20.62
533.997	26.62
534.121	18.62
534.244	9.62
534.367	4.62
534.491	9.62
534.614	18.62
534.737	16.62
534.86	14.62
534.984	10.62
535.107	2.62
535.23	30.62
535.354	21.62
535.477	19.62
535.6	13.62
535.723	11.62
535.847	34.62
535.97	10.62
536.093	15.62
536.216	10.62
536.34	37.62
536.463	24.62
536.586	35.62
536.709	44.62
536.833	28.62
536.956	21.62
537.079	30.62
537.202	39.62
537.325	23.62
537.449	-9.38
537.572	21.62
537.695	5.62
537.818	16.62
537.941	25.62
538.065	20.62
538.188	9.62
538.311	14.62
538.434	30.62
538.558	23.62
538.681	36.62
538.804	30.62
538.927	33.62
539.05	24.62
539.173	19.62
539.297	22.62
539.42	26.62
539.543	14.62
539.666	30.62
539.789	29.62
539.913	32.62
540.036	4.62
540.159	27.62
540.282	16.62
540.405	13.62
540.528	22.62
540.651	33.62
540.775	25.62
540.898	27.62
541.021	23.62
541.144	36.62
541.267	28.62
541.39	34.62
541.513	43.62
541.637	46.62
541.76	37.62
541.883	25.62
542.006	23.62
542.129	31.62
542.252	19.62
542.375	29.62
542.498	24.62
542.622	36.62
542.745	42.62
542.868	39.62
542.991	59.62
543.114	57.62
543.237	64.62
543.36	73.62
543.483	57.62
543.606	70.62
543.73	71.62
543.853	82.62
543.976	80.62
544.099	104.62
544.222	129.62
544.345	142.62
544.468	174.62
544.591	215.62
544.714	272.62
544.837	347.62
544.96	473.62
545.083	701.62
545.206	1084.62
545.329	2428.62
545.453	11056.62
545.576	15269.62
545.699	15683.62
545.822	15683.62
545.945	15683.62
546.068	15683.62
546.191	15683.62
546.314	15683.62
546.437	15683.62
546.56	15683.62
546.683	15683.62
546.806	15683.62
546.929	15683.62
547.052	15683.62
547.175	15683.62
547.298	15683.62
547.421	15683.62
547.544	15683.62
547.667	3652.62
547.79	2904.62
547.913	1118.62
548.036	956.62
548.159	651.62
548.282	636.62
548.405	514.62
548.528	492.62
548.651	414.62
548.774	403.62
548.897	354.62
549.02	361.62
549.143	298.62
549.266	309.62
549.389	272.62
549.512	248.62
549.635	244.62
549.758	255.62
549.881	215.62
550.004	228.62
550.127	216.62
550.25	197.62
550.373	154.62
550.496	173.62
550.619	167.62
550.742	178.62
550.865	141.62
550.988	150.62
551.111	150.62
551.234	136.62
551.356	132.62
551.479	119.62
551.602	110.62
551.725	151.62
551.848	122.62
551.971	128.62
552.094	124.62
552.217	114.62
552.34	118.62
552.463	122.62
552.586	94.62
552.709	101.62
552.832	106.62
552.955	119.62
553.077	101.62
553.2	95.62
553.323	96.62
553.446	105.62
553.569	105.62
553.692	98.62
553.815	98.62
553.938	98.62
554.061	111.62
554.184	96.62
554.306	86.62
554.429	101.62
554.552	92.62
554.675	79.62
554.798	80.62
554.921	89.62
555.044	84.62
555.167	78.62
555.29	86.62
555.412	75.62
555.535	87.62
555.658	81.62
555.781	95.62
555.904	78.62
556.027	87.62
556.15	80.62
556.272	84.62
556.395	83.62
556.518	61.62
556.641	63.62
556.764	94.62
556.887	81.62
557.01	66.62
557.132	68.62
557.255	76.62
557.378	82.62
557.501	66.62
557.624	95.62
557.747	74.62
557.869	79.62
557.992	80.62
558.115	104.62
558.238	75.62
558.361	86.62
558.483	107.62
558.606	73.62
558.729	60.62
558.852	82.62
558.975	79.62
559.098	74.62
559.22	76.62
559.343	59.62
559.466	57.62
559.589	60.62
559.712	38.62
559.834	42.62
559.957	53.62
560.08	56.62
560.203	43.62
560.325	67.62
560.448	75.62
560.571	49.62
560.694	50.62
560.817	60.62
560.939	61.62
561.062	54.62
561.185	52.62
561.308	54.62
561.43	42.62
561.553	45.62
561.676	43.62
561.799	84.62
561.921	57.62
562.044	57.62
562.167	53.62
562.29	92.62
562.413	80.62
562.535	57.62
562.658	51.62
562.781	61.62
562.903	66.62
563.026	94.62
563.149	138.62
563.272	122.62
563.394	121.62
563.517	103.62
563.64	59.62
563.763	57.62
563.885	46.62
564.008	50.62
564.131	38.62
564.254	41.62
564.376	41.62
564.499	30.62
564.622	33.62
564.744	45.62
564.867	29.62
564.99	32.62
565.113	31.62
565.235	34.62
565.358	33.62
565.481	29.62
565.603	29.62
565.726	49.62
565.849	65.62
565.971	53.62
566.094	30.62
566.217	56.62
566.34	36.62
566.462	44.62
566.585	28.62
566.708	51.62
566.83	36.62
566.953	51.62
567.076	42.62
567.198	38.62
567.321	44.62
567.444	52.62
567.566	23.62
567.689	23.62
567.812	21.62
567.934	30.62
568.057	26.62
568.18	40.62
568.302	22.62
568.425	12.62
568.548	38.62
568.67	30.62
568.793	45.62
568.916	39.62
569.038	24.62
569.161	49.62
569.283	41.62
569.406	30.62
569.529	12.62
569.651	12.62
569.774	31.62
569.897	38.62
570.019	41.62
570.142	60.62
570.265	27.62
570.387	42.62
570.51	43.62
570.632	44.62
570.755	31.62
570.878	32.62
571	49.62
571.123	30.62
571.246	44.62
571.368	44.62
571.491	33.62
571.613	22.62
571.736	32.62
571.859	33.62
571.981	22.62
572.104	41.62
572.226	33.62
572.349	20.62
572.472	20.62
572.594	40.62
572.717	38.62
572.839	25.62
572.962	28.62
573.085	29.62
573.207	19.62
573.33	25.62
573.452	32.62
573.575	42.62
573.697	33.62
573.82	34.62
573.943	33.62
574.065	43.62
574.188	42.62
574.31	45.62
574.433	39.62
574.555	54.62
574.678	16.62
574.801	41.62
574.923	33.62
575.046	39.62
575.168	48.62
575.291	40.62
575.413	33.62
575.536	32.62
575.659	47.62
575.781	49.62
575.904	44.62
576.026	78.62
576.149	81.62
576.271	133.62
576.394	216.62
576.516	532.62
576.639	3676.62
576.761	10138.62
576.884	8757.62
577.007	8770.62
577.129	8025.62
577.252	3743.62
577.374	1311.62
577.497	517.62
577.619	289.62
577.742	156.62
577.864	148.62
577.987	134.62
578.109	140.62
578.232	117.62
578.354	144.62
578.477	190.62
578.599	377.62
578.722	1939.62
578.844	9138.62
578.967	9911.62
579.089	8791.62
579.212	9156.62
579.334	5246.62
579.457	1906.62
579.579	713.62
579.702	331.62
579.824	200.62
579.947	123.62
580.069	101.62
580.192	64.62
580.314	92.62
580.437	78.62
580.559	82.62
580.682	73.62
580.804	68.62
580.927	62.62
581.049	69.62
581.172	47.62
581.294	54.62
581.417	23.62
581.539	45.62
581.662	46.62
581.784	50.62
581.907	43.62
582.029	44.62
582.152	16.62
582.274	41.62
582.396	37.62
582.519	50.62
582.641	36.62
582.764	32.62
582.886	57.62
583.009	34.62
583.131	36.62
583.254	42.62
583.376	54.62
583.499	39.62
583.621	33.62
583.743	33.62
583.866	44.62
583.988	44.62
584.111	49.62
584.233	37.62
584.356	41.62
584.478	41.62
584.601	32.62
584.723	37.62
584.845	40.62
584.968	24.62
585.09	11.62
585.213	40.62
585.335	18.62
585.458	29.62
585.58	17.62
585.702	47.62
585.825	31.62
585.947	22.62
586.07	17.62
586.192	13.62
586.315	46.62
586.437	28.62
586.559	30.62
586.682	23.62
586.804	38.62
586.927	25.62
587.049	32.62
587.171	45.62
587.294	36.62
587.416	39.62
587.539	17.62
587.661	17.62
587.783	24.62
587.906	29.62
588.028	42.62
588.151	36.62
588.273	41.62
588.395	28.62
588.518	15.62
588.64	28.62
588.763	44.62
588.885	20.62
589.007	44.62
589.13	29.62
589.252	14.62
589.375	19.62
589.497	21.62
589.619	37.62
589.742	33.62
589.864	61.62
589.986	39.62
590.109	14.62
590.231	20.62
590.354	39.62
590.476	23.62
590.598	26.62
590.721	16.62
590.843	37.62
590.965	46.62
591.088	32.62
591.21	36.62
591.332	14.62
591.455	6.62
591.577	25.62
591.7	29.62
591.822	19.62
591.944	30.62
592.067	37.62
592.189	22.62
592.311	21.62
592.434	15.62
592.556	35.62
592.678	47.62
592.801	31.62
592.923	24.62
593.045	22.62
593.168	25.62
593.29	26.62
593.412	39.62
593.535	5.62
593.657	18.62
593.779	25.62
593.902	26.62
594.024	26.62
594.146	34.62
594.269	43.62
594.391	2.62
594.513	29.62
594.636	28.62
594.758	21.62
594.88	42.62
595.003	45.62
595.125	20.62
595.247	31.62
595.37	40.62
595.492	14.62
595.614	50.62
595.737	10.62
595.859	38.62
595.981	39.62
596.104	41.62
596.226	28.62
596.348	27.62
596.471	-4.38
596.593	15.62
596.715	14.62
596.838	23.62
596.96	22.62
597.082	40.62
597.204	16.62
597.327	20.62
597.449	15.62
597.571	31.62
597.694	26.62
597.816	9.62
597.938	12.62
598.061	5.62
598.183	18.62
598.305	23.62
598.427	35.62
598.55	25.62
598.672	24.62
598.794	31.62
598.917	21.62
599.039	33.62
599.161	31.62
599.283	15.62
599.406	32.62
599.528	26.62
599.65	42.62
599.773	42.62
599.895	45.62
600.017	23.62
600.139	33.62
600.262	16.62
600.384	37.62
600.506	20.62
600.628	30.62
600.751	38.62
600.873	14.62
600.995	21.62
601.118	48.62
601.24	13.62
601.362	38.62
601.484	41.62
601.607	34.62
601.729	28.62
601.851	11.62
601.973	17.62
602.096	21.62
602.218	17.62
602.34	20.62
602.462	31.62
602.585	25.62
602.707	2.62
602.829	3.62
602.951	14.62
603.074	7.62
603.196	13.62
603.318	11.62
603.44	25.62
603.563	29.62
603.685	-0.38
603.807	26.62
603.929	16.62
604.052	31.62
604.174	18.62
604.296	33.62
604.418	37.62
604.541	31.62
604.663	33.62
604.785	27.62
604.907	37.62
605.03	23.62
605.152	41.62
605.274	11.62
605.396	24.62
605.519	36.62
605.641	41.62
605.763	38.62
605.885	40.62
606.008	25.62
606.13	18.62
606.252	27.62
606.374	-1.38
606.496	13.62
606.619	20.62
606.741	26.62
606.863	38.62
606.985	34.62
607.108	21.62
607.23	19.62
607.352	5.62
607.474	6.62
607.596	24.62
607.719	7.62
607.841	30.62
607.963	13.62
608.085	25.62
608.207	39.62
608.33	16.62
608.452	5.62
608.574	9.62
608.696	39.62
608.819	35.62
608.941	35.62
609.063	25.62
609.185	14.62
609.307	20.62
609.43	37.62
609.552	19.62
609.674	24.62
609.796	15.62
609.918	20.62
610.041	15.62
610.163	43.62
610.285	32.62
610.407	36.62
610.529	14.62
610.652	19.62
610.774	37.62
610.896	23.62
611.018	33.62
611.14	26.62
611.263	31.62
611.385	32.62
611.507	29.62
611.629	-6.38
611.751	12.62
611.873	20.62
611.996	29.62
612.118	30.62
612.24	31.62
612.362	15.62
612.484	41.62
612.607	44.62
612.729	54.62
612.851	42.62
612.973	26.62
613.095	9.62
613.218	19.62
613.34	48.62
613.462	28.62
613.584	28.62
613.706	11.62
613.828	50.62
613.951	5.62
614.073	-5.38
614.195	6.62
614.317	37.62
614.439	25.62
614.561	32.62
614.684	10.62
614.806	12.62
614.928	18.62
615.05	35.62
615.172	31.62
615.294	47.62
615.417	22.62
615.539	12.62
615.661	29.62
615.783	30.62
615.905	29.62
616.027	32.62
616.15	29.62
616.272	11.62
616.394	5.62
616.516	1.62
616.638	3.62
616.76	27.62
616.883	29.62
617.005	15.62
617.127	14.62
617.249	32.62
617.371	27.62
617.493	40.62
617.615	44.62
617.738	36.62
617.86	21.62
617.982	26.62
618.104	35.62
618.226	14.62
618.348	14.62
618.471	16.62
618.593	22.62
618.715	18.62
618.837	40.62
618.959	21.62
619.081	39.62
619.203	33.62
619.326	32.62
619.448	24.62
619.57	27.62
619.692	27.62
619.814	32.62
619.936	25.62
620.058	28.62
620.181	23.62
620.303	16.62
620.425	17.62
620.547	24.62
620.669	24.62
620.791	24.62
620.913	25.62
621.036	18.62
621.158	33.62
621.28	44.62
621.402	-0.38
621.524	26.62
621.646	30.62
621.768	12.62
621.891	-5.38
622.013	30.62
622.135	7.62
622.257	18.62
622.379	13.62
622.501	12.62
622.623	11.62
622.745	2.62
622.868	6.62
622.99	21.62
623.112	23.62
623.234	16.62
623.356	13.62
623.478	2.62
623.6	20.62
623.722	23.62
623.845	31.62
623.967	20.62
624.089	26.62
624.211	12.62
624.333	38.62
624.455	36.62
624.577	26.62
624.699	31.62
624.822	28.62
624.944	34.62
625.066	14.62
625.188	-0.38
625.31	20.62
625.432	19.62
625.554	28.62
625.676	37.62
625.799	10.62
625.921	16.62
626.043	11.62
626.165	12.62
626.287	14.62
626.409	27.62
626.531	26.62
626.653	14.62
626.775	20.62
626.898	20.62
627.02	38.62
627.142	47.62
627.264	31.62
627.386	35.62
627.508	27.62
627.63	7.62
627.752	23.62
627.874	20.62
627.997	25.62
628.119	23.62
628.241	12.62
628.363	25.62
628.485	29.62
628.607	24.62
628.729	15.62
628.851	7.62
628.973	13.62
629.096	14.62
629.218	10.62
629.34	29.62
629.462	7.62
629.584	20.62
629.706	34.62
629.828	43.62
629.95	13.62
630.072	4.62
630.195	16.62
630.317	27.62
630.439	37.62
630.561	33.62
630.683	20.62
630.805	19.62
630.927	13.62
631.049	12.62
631.171	11.62
631.293	17.62
631.416	28.62
631.538	16.62
631.66	9.62
631.782	10.62
631.904	35.62
632.026	22.62
632.148	16.62
632.27	18.62
632.392	20.62
632.514	15.62
632.637	23.62
632.759	9.62
632.881	10.62
633.003	12.62
633.125	6.62
633.247	-4.38
633.369	13.62
633.491	14.62
633.613	33.62
633.735	5.62
633.858	20.62
633.98	3.62
634.102	16.62
634.224	8.62
634.346	1.62
634.468	20.62
634.59	21.62
634.712	12.62
634.834	20.62
634.956	25.62
635.078	11.62
635.201	1.62
635.323	20.62
635.445	1.62
635.567	-3.38
635.689	9.62
635.811	18.62
635.933	20.62
636.055	11.62
636.177	12.62
636.299	29.62
636.421	12.62
636.544	1.62
636.666	17.62
636.788	9.62
636.91	24.62
637.032	22.62
637.154	37.62
637.276	34.62
637.398	33.62
637.52	21.62
637.642	32.62
637.764	18.62
637.887	20.62
638.009	1.62
638.131	15.62
638.253	0.62
638.375	17.62
638.497	13.62
638.619	8.62
638.741	18.62
638.863	-5.38
638.985	7.62
639.107	11.62
639.23	14.62
639.352	39.62
639.474	10.62
639.596	20.62
639.718	8.62
639.84	28.62
639.962	25.62
640.084	23.62
640.206	30.62
640.328	10.62
640.45	20.62
640.573	23.62
640.695	21.62
640.817	15.62
640.939	19.62
641.061	13.62
641.183	9.62
641.305	7.62
641.427	9.62
641.549	7.62
641.671	16.62
641.793	18.62
641.915	20.62
642.038	14.62
642.16	12.62
642.282	8.62
642.404	2.62
642.526	18.62
642.648	-5.38
642.77	17.62
642.892	-2.38
643.014	25.62
643.136	9.62
643.258	10.62
643.381	36.62
643.503	16.62
643.625	12.62
643.747	0.62
643.869	18.62
643.991	17.62
644.113	6.62
644.235	13.62
644.357	32.62
644.479	6.62
644.601	18.62
644.723	11.62
644.846	17.62
644.968	20.62
645.09	11.62
645.212	6.62
645.334	17.62
645.456	24.62
645.578	30.62
645.7	13.62
645.822	37.62
645.944	22.62
646.066	20.62
646.188	20.62
646.311	7.62
646.433	10.62
646.555	29.62
646.677	22.62
646.799	30.62
646.921	16.62
647.043	21.62
647.165	2.62
647.287	5.62
647.409	15.62
647.531	9.62
647.654	-10.38
647.776	22.62
647.898	15.62
648.02	4.62
648.142	-1.38
648.264	10.62
648.386	16.62
648.508	1.62
648.63	7.62
648.752	11.62
648.874	1.62
648.997	13.62
649.119	26.62
649.241	20.62
649.363	40.62
649.485	25.62
649.607	7.62
649.729	19.62
649.851	40.62
649.973	26.62
650.095	13.62
650.217	-3.38
650.34	14.62
650.462	26.62
650.584	20.62
650.706	7.62
650.828	8.62
650.95	0.62
651.072	20.62
651.194	13.62
651.316	11.62
651.438	18.62
651.56	2.62
651.683	3.62
651.805	13.62
651.927	16.62
652.049	11.62
652.171	16.62
652.293	15.62
652.415	3.62
652.537	-1.38
652.659	0.62
652.781	11.62
652.903	7.62
653.026	24.62
653.148	17.62
653.27	17.62
653.392	32.62
653.514	14.62
653.636	20.62
653.758	17.62
653.88	5.62
654.002	18.62
654.124	13.62
654.247	12.62
654.369	14.62
654.491	15.62
654.613	23.62
654.735	2.62
654.857	24.62
654.979	15.62
655.101	18.62
655.223	41.62
655.345	17.62
655.468	28.62
655.59	-2.38
655.712	2.62
655.834	12.62
655.956	18.62
656.078	23.62
656.2	13.62
656.322	5.62
656.444	-15.38
656.566	21.62
656.689	9.62
656.811	-0.38
656.933	12.62
657.055	-5.38
657.177	16.62
657.299	7.62
657.421	1.62
657.543	15.62
657.665	22.62
657.787	11.62
657.91	11.62
658.032	-0.38
658.154	5.62
658.276	8.62
658.398	-7.38
658.52	19.62
658.642	5.62
658.764	14.62
658.886	-4.38
659.009	18.62
659.131	24.62
659.253	25.62
659.375	18.62
659.497	4.62
659.619	37.62
659.741	23.62
659.863	6.62
659.985	4.62
660.108	25.62
660.23	5.62
660.352	10.62
660.474	32.62
660.596	27.62
660.718	30.62
660.84	16.62
660.962	17.62
661.084	-9.38
661.207	6.62
661.329	7.62
661.451	6.62
661.573	5.62
661.695	26.62
661.817	8.62
661.939	25.62
662.061	29.62
662.184	14.62
662.306	2.62
662.428	15.62
662.55	22.62
662.672	0.62
662.794	4.62
662.916	14.62
663.038	12.62
663.161	10.62
663.283	24.62
663.405	23.62
663.527	17.62
663.649	14.62
663.771	16.62
663.893	12.62
664.015	10.62
664.138	16.62
664.26	11.62
664.382	0.62
664.504	9.62
664.626	6.62
664.748	15.62
664.87	4.62
664.992	29.62
665.115	32.62
665.237	14.62
665.359	17.62
665.481	10.62
665.603	12.62
665.725	7.62
665.847	4.62
665.97	1.62
666.092	5.62
666.214	28.62
666.336	8.62
666.458	2.62
666.58	20.62
666.702	-0.38
666.825	-17.38
666.947	7.62
667.069	24.62
667.191	13.62
667.313	33.62
667.435	18.62
667.557	-19.38
667.68	14.62
667.802	-2.38
667.924	17.62
668.046	12.62
668.168	13.62
668.29	17.62
668.412	5.62
668.535	7.62
668.657	0.62
668.779	7.62
668.901	13.62
669.023	16.62
669.145	17.62
669.267	16.62
669.39	18.62
669.512	6.62
669.634	10.62
669.756	1.62
669.878	6.62
670	12.62
670.123	-1.38
670.245	19.62
670.367	18.62
670.489	-0.38
670.611	18.62
670.733	5.62
670.856	5.62
670.978	15.62
671.1	4.62
671.222	15.62
671.344	-1.38
671.466	8.62
671.589	-8.38
671.711	16.62
671.833	9.62
671.955	28.62
672.077	-0.38
672.199	33.62
672.322	33.62
672.444	15.62
672.566	21.62
672.688	20.62
672.81	9.62
672.932	30.62
673.055	21.62
673.177	-10.38
673.299	9.62
673.421	10.62
673.543	4.62
673.665	17.62
673.788	15.62
673.91	14.62
674.032	5.62
674.154	19.62
674.276	17.62
674.399	-9.38
674.521	14.62
674.643	23.62
674.765	5.62
674.887	16.62
675.009	14.62
675.132	12.62
675.254	16.62
675.376	15.62
675.498	13.62
675.62	21.62
675.743	4.62
675.865	5.62
675.987	-11.38
676.109	-0.38
676.231	13.62
676.354	28.62
676.476	21.62
676.598	32.62
676.72	14.62
676.842	12.62
676.965	-2.38
677.087	6.62
677.209	10.62
677.331	13.62
677.453	23.62
677.576	29.62
677.698	23.62
677.82	2.62
677.942	-7.38
678.064	7.62
678.187	9.62
678.309	2.62
678.431	0.62
678.553	8.62
678.675	20.62
678.798	20.62
678.92	21.62
679.042	25.62
679.164	26.62
679.286	16.62
679.409	14.62
679.531	2.62
679.653	0.62
679.775	8.62
679.898	21.62
680.02	8.62
680.142	9.62
680.264	9.62
680.386	-5.38
680.509	24.62
680.631	14.62
680.753	4.62
680.875	-10.38
680.998	5.62
681.12	10.62
681.242	14.62
681.364	4.62
681.486	20.62
681.609	-0.38
681.731	14.62
681.853	8.62
681.975	11.62
682.098	29.62
682.22	26.62
682.342	17.62
682.464	-1.38
682.587	-2.38
682.709	13.62
682.831	-1.38
682.953	3.62
683.076	5.62
683.198	6.62
683.32	16.62
683.442	14.62
683.565	18.62
683.687	-6.38
683.809	-3.38
683.931	-3.38
684.054	11.62
684.176	23.62
684.298	16.62
684.42	13.62
684.543	4.62
684.665	22.62
684.787	20.62
684.909	21.62
685.032	12.62
685.154	16.62
685.276	16.62
685.398	5.62
685.521	10.62
685.643	9.62
685.765	20.62
685.887	18.62
686.01	2.62
686.132	11.62
686.254	20.62
686.377	13.62
686.499	13.62
686.621	16.62
686.743	23.62
686.866	15.62
686.988	33.62
687.11	26.62
687.232	1.62
687.355	8.62
687.477	4.62
687.599	12.62
687.722	19.62
687.844	11.62
687.966	16.62
688.088	24.62
688.211	25.62
688.333	21.62
688.455	24.62
688.578	28.62
688.7	7.62
688.822	22.62
688.944	-1.38
689.067	59.62
689.189	22.62
689.311	-18.38
689.434	-0.38
689.556	9.62
689.678	15.62
689.801	1.62
689.923	2.62
690.045	26.62
690.167	35.62
690.29	41.62
690.412	24.62
690.534	5.62
690.657	9.62
690.779	6.62
690.901	23.62
691.024	4.62
691.146	7.62
691.268	7.62
691.391	16.62
691.513	20.62
691.635	12.62
691.758	41.62
691.88	27.62
692.002	-6.38
692.125	5.62
692.247	-2.38
692.369	1.62
692.492	-1.38
692.614	16.62
692.736	9.62
692.859	12.62
692.981	2.62
693.103	6.62
693.226	24.62
693.348	37.62
693.47	13.62
693.593	29.62
693.715	26.62
693.837	37.62
693.96	20.62
694.082	5.62
694.204	22.62
694.327	12.62
694.449	-1.38
694.571	6.62
694.694	21.62
694.816	12.62
694.938	-3.38
695.061	13.62
695.183	20.62
695.305	26.62
695.428	10.62
695.55	5.62
695.672	6.62
695.795	25.62
695.917	25.62
696.04	4.62
696.162	3.62
696.284	5.62
696.407	9.62
696.529	12.62
696.651	32.62
696.774	10.62
696.896	14.62
697.019	26.62
697.141	12.62
697.263	23.62
697.386	1.62
697.508	15.62
697.63	14.62
697.753	22.62
697.875	15.62
697.998	14.62
698.12	7.62
698.242	6.62
698.365	1.62
698.487	21.62
698.61	8.62
698.732	15.62
698.854	18.62
698.977	-0.38
699.099	21.62
699.221	13.62
699.344	-11.38
699.466	18.62
699.589	0.62
699.711	-2.38
699.834	5.62
699.956	13.62
700.078	4.62
700.201	12.62
700.323	19.62
700.446	5.62
700.568	9.62
700.69	19.62
700.813	22.62
700.935	-2.38
701.058	2.62
701.18	17.62
701.302	7.62
701.425	8.62
701.547	4.62
701.67	9.62
701.792	0.62
701.915	12.62
702.037	16.62
702.159	12.62
702.282	18.62
702.404	2.62
702.527	4.62
702.649	31.62
702.772	16.62
702.894	4.62
703.017	14.62
703.139	39.62
703.261	28.62
703.384	28.62
703.506	-12.38
703.629	5.62
703.751	8.62
703.874	11.62
703.996	-4.38
704.119	-4.38
704.241	10.62
704.364	8.62
704.486	7.62
704.608	18.62
704.731	9.62
704.853	22.62
704.976	-1.38
705.098	11.62
705.221	8.62
705.343	0.62
705.466	23.62
705.588	4.62
705.711	24.62
705.833	32.62
705.956	29.62
706.078	16.62
706.201	6.62
706.323	6.62
706.446	0.62
