Data from LowRes_mercury_15_20_11_07_2024_HR4C61881__45__15-23-36-771.txt Node

Date: Thu Nov 07 15:23:36 EST 2024
User: crc00042
Spectrometer: HR4C6188
Trigger mode: 4
Integration Time (sec): 1.000000E-1
Scans to average: 1
Electric dark correction enabled: true
Nonlinearity correction enabled: false
Boxcar width: 0
XAxis mode: Wavelengths
Number of Pixels in Spectrum: 3648
>>>>>Begin Spectral Data<<<<<
245.66	-85.77
245.797	-85.77
245.934	-85.77
246.071	-73.77
246.208	2.23
246.344	0.23
246.481	-0.77
246.618	-5.77
246.755	12.23
246.892	4.23
247.029	-3.77
247.165	-18.77
247.302	18.23
247.439	7.23
247.576	2.23
247.713	-13.77
247.849	21.23
247.986	-22.77
248.123	10.23
248.26	11.23
248.396	33.23
248.533	6.23
248.67	-8.77
248.806	8.23
248.943	-20.77
249.08	5.23
249.216	17.23
249.353	-8.77
249.49	3.23
249.626	6.23
249.763	9.23
249.9	12.23
250.036	-4.77
250.173	21.23
250.309	10.23
250.446	5.23
250.582	7.23
250.719	2.23
250.856	21.23
250.992	-7.77
251.129	5.23
251.265	-1.77
251.402	14.23
251.538	-7.77
251.675	18.23
251.811	3.23
251.948	17.23
252.084	13.23
252.221	7.23
252.357	-0.77
252.493	0.23
252.63	13.23
252.766	32.23
252.903	21.23
253.039	-2.77
253.175	1.23
253.312	-1.77
253.448	12.23
253.585	-6.77
253.721	8.23
253.857	4.23
253.994	14.23
254.13	17.23
254.266	3.23
254.403	6.23
254.539	16.23
254.675	25.23
254.811	25.23
254.948	13.23
255.084	-2.77
255.22	-9.77
255.356	13.23
255.493	15.23
255.629	12.23
255.765	17.23
255.901	23.23
256.037	5.23
256.174	1.23
256.31	2.23
256.446	-0.77
256.582	17.23
256.718	16.23
256.854	28.23
256.991	7.23
257.127	17.23
257.263	-0.77
257.399	19.23
257.535	-5.77
257.671	17.23
257.807	1.23
257.943	2.23
258.079	8.23
258.215	1.23
258.351	20.23
258.487	7.23
258.623	21.23
258.759	4.23
258.895	12.23
259.031	-2.77
259.167	-10.77
259.303	15.23
259.439	8.23
259.575	21.23
259.711	4.23
259.847	-12.77
259.983	18.23
260.119	12.23
260.255	1.23
260.391	16.23
260.527	23.23
260.663	44.23
260.799	16.23
260.934	14.23
261.07	13.23
261.206	-10.77
261.342	1.23
261.478	31.23
261.614	11.23
261.749	19.23
261.885	10.23
262.021	21.23
262.157	17.23
262.293	-4.77
262.428	11.23
262.564	11.23
262.7	19.23
262.836	15.23
262.971	28.23
263.107	15.23
263.243	28.23
263.378	-8.77
263.514	-11.77
263.65	24.23
263.785	-0.77
263.921	-8.77
264.057	3.23
264.192	13.23
264.328	24.23
264.464	-7.77
264.599	-0.77
264.735	21.23
264.871	-8.77
265.006	14.23
265.142	-3.77
265.277	9.23
265.413	35.23
265.548	40.23
265.684	25.23
265.819	22.23
265.955	9.23
266.091	-7.77
266.226	-4.77
266.362	8.23
266.497	21.23
266.633	12.23
266.768	1.23
266.903	11.23
267.039	7.23
267.174	13.23
267.31	9.23
267.445	13.23
267.581	5.23
267.716	27.23
267.851	14.23
267.987	2.23
268.122	31.23
268.258	2.23
268.393	25.23
268.528	26.23
268.664	7.23
268.799	-4.77
268.934	5.23
269.07	9.23
269.205	16.23
269.34	30.23
269.476	6.23
269.611	4.23
269.746	28.23
269.881	3.23
270.017	19.23
270.152	20.23
270.287	27.23
270.422	22.23
270.558	24.23
270.693	17.23
270.828	-0.77
270.963	22.23
271.098	0.23
271.234	15.23
271.369	29.23
271.504	21.23
271.639	-2.77
271.774	-7.77
271.909	0.23
272.045	-4.77
272.18	-1.77
272.315	12.23
272.45	22.23
272.585	16.23
272.72	6.23
272.855	3.23
272.99	29.23
273.125	0.23
273.26	-8.77
273.395	6.23
273.53	0.23
273.665	18.23
273.8	20.23
273.935	-0.77
274.07	6.23
274.205	11.23
274.34	15.23
274.475	6.23
274.61	15.23
274.745	-1.77
274.88	17.23
275.015	-9.77
275.15	20.23
275.285	17.23
275.42	2.23
275.555	27.23
275.69	20.23
275.825	6.23
275.959	27.23
276.094	20.23
276.229	8.23
276.364	-6.77
276.499	9.23
276.634	6.23
276.768	12.23
276.903	24.23
277.038	25.23
277.173	23.23
277.308	7.23
277.442	12.23
277.577	7.23
277.712	11.23
277.847	8.23
277.981	14.23
278.116	-8.77
278.251	21.23
278.386	15.23
278.52	3.23
278.655	-1.77
278.79	36.23
278.924	19.23
279.059	33.23
279.194	-10.77
279.328	40.23
279.463	13.23
279.598	20.23
279.732	22.23
279.867	24.23
280.001	25.23
280.136	12.23
280.271	-0.77
280.405	17.23
280.54	18.23
280.674	-4.77
280.809	2.23
280.943	-0.77
281.078	-7.77
281.213	21.23
281.347	31.23
281.482	15.23
281.616	3.23
281.751	5.23
281.885	-18.77
282.02	-4.77
282.154	21.23
282.288	8.23
282.423	-16.77
282.557	9.23
282.692	28.23
282.826	25.23
282.961	9.23
283.095	-3.77
283.229	6.23
283.364	-2.77
283.498	13.23
283.633	12.23
283.767	11.23
283.901	11.23
284.036	9.23
284.17	9.23
284.304	6.23
284.439	16.23
284.573	4.23
284.707	22.23
284.842	3.23
284.976	7.23
285.11	3.23
285.244	19.23
285.379	62.23
285.513	-3.77
285.647	16.23
285.781	11.23
285.916	27.23
286.05	5.23
286.184	38.23
286.318	15.23
286.453	8.23
286.587	3.23
286.721	-9.77
286.855	0.23
286.989	17.23
287.123	5.23
287.258	-12.77
287.392	7.23
287.526	22.23
287.66	3.23
287.794	12.23
287.928	12.23
288.062	21.23
288.196	12.23
288.33	-2.77
288.464	15.23
288.598	24.23
288.733	21.23
288.867	43.23
289.001	-4.77
289.135	-4.77
289.269	13.23
289.403	15.23
289.537	20.23
289.671	-2.77
289.805	-3.77
289.939	13.23
290.073	24.23
290.207	29.23
290.34	18.23
290.474	32.23
290.608	12.23
290.742	-3.77
290.876	23.23
291.01	22.23
291.144	55.23
291.278	14.23
291.412	0.23
291.546	2.23
291.679	7.23
291.813	14.23
291.947	18.23
292.081	4.23
292.215	19.23
292.349	18.23
292.482	25.23
292.616	23.23
292.75	9.23
292.884	4.23
293.018	0.23
293.151	-14.77
293.285	22.23
293.419	8.23
293.553	10.23
293.686	-7.77
293.82	4.23
293.954	35.23
294.088	39.23
294.221	7.23
294.355	-3.77
294.489	16.23
294.622	15.23
294.756	17.23
294.89	11.23
295.023	6.23
295.157	21.23
295.291	32.23
295.424	34.23
295.558	21.23
295.691	13.23
295.825	-0.77
295.959	13.23
296.092	-6.77
296.226	14.23
296.359	17.23
296.493	1.23
296.627	16.23
296.76	-7.77
296.894	15.23
297.027	15.23
297.161	8.23
297.294	3.23
297.428	13.23
297.561	25.23
297.695	-5.77
297.828	4.23
297.962	23.23
298.095	14.23
298.229	24.23
298.362	-5.77
298.495	-6.77
298.629	12.23
298.762	17.23
298.896	24.23
299.029	12.23
299.162	-1.77
299.296	18.23
299.429	11.23
299.563	12.23
299.696	-2.77
299.829	18.23
299.963	26.23
300.096	9.23
300.229	9.23
300.363	16.23
300.496	8.23
300.629	6.23
300.763	13.23
300.896	15.23
301.029	24.23
301.162	3.23
301.296	-8.77
301.429	-5.77
301.562	-9.77
301.695	39.23
301.829	8.23
301.962	22.23
302.095	20.23
302.228	-12.77
302.362	-0.77
302.495	1.23
302.628	7.23
302.761	-3.77
302.894	17.23
303.027	45.23
303.161	11.23
303.294	25.23
303.427	20.23
303.56	-0.77
303.693	6.23
303.826	2.23
303.959	20.23
304.092	9.23
304.225	4.23
304.359	14.23
304.492	21.23
304.625	2.23
304.758	14.23
304.891	1.23
305.024	11.23
305.157	6.23
305.29	6.23
305.423	-2.77
305.556	21.23
305.689	49.23
305.822	14.23
305.955	6.23
306.088	7.23
306.221	9.23
306.354	1.23
306.487	-2.77
306.62	-25.77
306.752	-5.77
306.885	7.23
307.018	-0.77
307.151	23.23
307.284	28.23
307.417	-0.77
307.55	19.23
307.683	5.23
307.816	30.23
307.948	11.23
308.081	13.23
308.214	9.23
308.347	44.23
308.48	21.23
308.613	1.23
308.745	12.23
308.878	4.23
309.011	12.23
309.144	33.23
309.277	2.23
309.409	26.23
309.542	-0.77
309.675	23.23
309.808	14.23
309.94	19.23
310.073	0.23
310.206	-2.77
310.339	19.23
310.471	-3.77
310.604	27.23
310.737	3.23
310.869	-9.77
311.002	5.23
311.135	-3.77
311.267	-5.77
311.4	-6.77
311.533	18.23
311.665	9.23
311.798	24.23
311.93	21.23
312.063	59.23
312.196	39.23
312.328	80.23
312.461	44.23
312.593	45.23
312.726	54.23
312.859	104.23
312.991	171.23
313.124	69.23
313.256	41.23
313.389	22.23
313.521	5.23
313.654	1.23
313.786	-6.77
313.919	-0.77
314.051	14.23
314.184	8.23
314.316	6.23
314.449	-15.77
314.581	1.23
314.714	4.23
314.846	-0.77
314.978	-12.77
315.111	-6.77
315.243	19.23
315.376	17.23
315.508	9.23
315.641	-0.77
315.773	17.23
315.905	12.23
316.038	-9.77
316.17	3.23
316.302	-2.77
316.435	16.23
316.567	-3.77
316.699	14.23
316.832	21.23
316.964	-16.77
317.096	-4.77
317.229	-0.77
317.361	-0.77
317.493	-7.77
317.625	-3.77
317.758	14.23
317.89	24.23
318.022	-2.77
318.155	3.23
318.287	4.23
318.419	-10.77
318.551	-8.77
318.683	20.23
318.816	-0.77
318.948	7.23
319.08	-11.77
319.212	-1.77
319.344	14.23
319.477	1.23
319.609	2.23
319.741	11.23
319.873	5.23
320.005	21.23
320.137	17.23
320.269	28.23
320.401	6.23
320.534	20.23
320.666	11.23
320.798	0.23
320.93	1.23
321.062	-1.77
321.194	-3.77
321.326	5.23
321.458	27.23
321.59	14.23
321.722	1.23
321.854	23.23
321.986	7.23
322.118	22.23
322.25	2.23
322.382	-3.77
322.514	1.23
322.646	14.23
322.778	30.23
322.91	-0.77
323.042	27.23
323.174	11.23
323.306	-7.77
323.438	-6.77
323.57	6.23
323.702	6.23
323.834	-0.77
323.966	0.23
324.097	4.23
324.229	16.23
324.361	7.23
324.493	15.23
324.625	-0.77
324.757	18.23
324.889	6.23
325.021	4.23
325.152	35.23
325.284	38.23
325.416	-2.77
325.548	6.23
325.68	5.23
325.811	21.23
325.943	28.23
326.075	0.23
326.207	18.23
326.339	8.23
326.47	19.23
326.602	33.23
326.734	18.23
326.866	29.23
326.997	-7.77
327.129	1.23
327.261	-10.77
327.392	4.23
327.524	33.23
327.656	15.23
327.787	22.23
327.919	11.23
328.051	22.23
328.182	25.23
328.314	25.23
328.446	3.23
328.577	25.23
328.709	10.23
328.841	-11.77
328.972	-7.77
329.104	-6.77
329.235	4.23
329.367	9.23
329.499	20.23
329.63	6.23
329.762	13.23
329.893	15.23
330.025	19.23
330.156	2.23
330.288	25.23
330.419	32.23
330.551	13.23
330.683	5.23
330.814	8.23
330.946	23.23
331.077	0.23
331.208	9.23
331.34	4.23
331.471	-0.77
331.603	4.23
331.734	3.23
331.866	32.23
331.997	24.23
332.129	16.23
332.26	23.23
332.392	15.23
332.523	12.23
332.654	1.23
332.786	7.23
332.917	-4.77
333.048	17.23
333.18	34.23
333.311	0.23
333.443	6.23
333.574	26.23
333.705	48.23
333.837	47.23
333.968	126.23
334.099	235.23
334.231	209.23
334.362	64.23
334.493	36.23
334.624	25.23
334.756	8.23
334.887	17.23
335.018	17.23
335.15	28.23
335.281	24.23
335.412	35.23
335.543	16.23
335.675	19.23
335.806	24.23
335.937	11.23
336.068	31.23
336.199	34.23
336.331	19.23
336.462	17.23
336.593	23.23
336.724	21.23
336.855	20.23
336.986	28.23
337.118	33.23
337.249	21.23
337.38	17.23
337.511	24.23
337.642	7.23
337.773	34.23
337.904	22.23
338.035	13.23
338.166	15.23
338.298	22.23
338.429	12.23
338.56	33.23
338.691	32.23
338.822	30.23
338.953	20.23
339.084	30.23
339.215	17.23
339.346	31.23
339.477	20.23
339.608	18.23
339.739	20.23
339.87	19.23
340.001	1.23
340.132	25.23
340.263	23.23
340.394	8.23
340.525	-5.77
340.656	5.23
340.787	2.23
340.918	31.23
341.049	23.23
341.179	25.23
341.31	20.23
341.441	39.23
341.572	37.23
341.703	39.23
341.834	19.23
341.965	41.23
342.096	31.23
342.227	27.23
342.357	27.23
342.488	23.23
342.619	21.23
342.75	41.23
342.881	22.23
343.012	50.23
343.142	49.23
343.273	23.23
343.404	50.23
343.535	61.23
343.666	40.23
343.796	35.23
343.927	40.23
344.058	55.23
344.189	32.23
344.319	25.23
344.45	34.23
344.581	42.23
344.712	4.23
344.842	34.23
344.973	36.23
345.104	34.23
345.234	15.23
345.365	31.23
345.496	29.23
345.626	39.23
345.757	45.23
345.888	25.23
346.018	33.23
346.149	30.23
346.28	46.23
346.41	24.23
346.541	43.23
346.672	17.23
346.802	31.23
346.933	36.23
347.063	37.23
347.194	51.23
347.325	45.23
347.455	33.23
347.586	25.23
347.716	16.23
347.847	33.23
347.977	57.23
348.108	60.23
348.238	49.23
348.369	41.23
348.499	46.23
348.63	54.23
348.76	52.23
348.891	52.23
349.021	67.23
349.152	65.23
349.282	67.23
349.413	49.23
349.543	61.23
349.674	53.23
349.804	42.23
349.935	35.23
350.065	44.23
350.196	21.23
350.326	37.23
350.456	37.23
350.587	55.23
350.717	34.23
350.848	38.23
350.978	46.23
351.108	24.23
351.239	30.23
351.369	6.23
351.499	37.23
351.63	35.23
351.76	30.23
351.89	19.23
352.021	34.23
352.151	20.23
352.281	10.23
352.412	38.23
352.542	24.23
352.672	20.23
352.803	29.23
352.933	36.23
353.063	40.23
353.193	27.23
353.324	39.23
353.454	37.23
353.584	47.23
353.714	30.23
353.845	29.23
353.975	25.23
354.105	40.23
354.235	28.23
354.365	32.23
354.496	27.23
354.626	41.23
354.756	37.23
354.886	25.23
355.016	37.23
355.146	37.23
355.277	37.23
355.407	21.23
355.537	35.23
355.667	47.23
355.797	46.23
355.927	22.23
356.057	42.23
356.187	35.23
356.318	17.23
356.448	7.23
356.578	22.23
356.708	39.23
356.838	37.23
356.968	18.23
357.098	31.23
357.228	57.23
357.358	19.23
357.488	20.23
357.618	49.23
357.748	41.23
357.878	44.23
358.008	36.23
358.138	36.23
358.268	19.23
358.398	58.23
358.528	29.23
358.658	36.23
358.788	28.23
358.918	25.23
359.048	57.23
359.178	33.23
359.308	34.23
359.438	51.23
359.568	34.23
359.698	44.23
359.827	38.23
359.957	32.23
360.087	27.23
360.217	33.23
360.347	38.23
360.477	59.23
360.607	21.23
360.737	48.23
360.866	27.23
360.996	23.23
361.126	33.23
361.256	50.23
361.386	49.23
361.516	53.23
361.645	35.23
361.775	48.23
361.905	19.23
362.035	44.23
362.165	43.23
362.294	43.23
362.424	71.23
362.554	54.23
362.684	27.23
362.813	40.23
362.943	62.23
363.073	45.23
363.203	57.23
363.332	89.23
363.462	91.23
363.592	113.23
363.721	123.23
363.851	171.23
363.981	199.23
364.111	258.23
364.24	321.23
364.37	477.23
364.5	869.23
364.629	1805.23
364.759	3846.23
364.888	6157.23
365.018	9276.23
365.148	14773.23
365.277	12927.23
365.407	4795.23
365.537	3057.23
365.666	3992.23
365.796	1787.23
365.925	780.23
366.055	760.23
366.184	1043.23
366.314	1368.23
366.444	2475.23
366.573	2087.23
366.703	668.23
366.832	220.23
366.962	124.23
367.091	73.23
367.221	88.23
367.35	86.23
367.48	93.23
367.609	70.23
367.739	57.23
367.868	19.23
367.998	69.23
368.127	56.23
368.257	67.23
368.386	57.23
368.516	57.23
368.645	59.23
368.775	67.23
368.904	42.23
369.033	44.23
369.163	17.23
369.292	54.23
369.422	45.23
369.551	65.23
369.68	38.23
369.81	53.23
369.939	29.23
370.069	56.23
370.198	56.23
370.327	31.23
370.457	32.23
370.586	48.23
370.715	37.23
370.845	32.23
370.974	60.23
371.103	51.23
371.233	53.23
371.362	53.23
371.491	50.23
371.621	57.23
371.75	48.23
371.879	47.23
372.008	58.23
372.138	57.23
372.267	77.23
372.396	52.23
372.525	38.23
372.655	37.23
372.784	43.23
372.913	23.23
373.042	34.23
373.172	53.23
373.301	24.23
373.43	-3.77
373.559	15.23
373.688	38.23
373.818	58.23
373.947	32.23
374.076	15.23
374.205	37.23
374.334	20.23
374.463	9.23
374.593	27.23
374.722	40.23
374.851	49.23
374.98	8.23
375.109	29.23
375.238	35.23
375.367	61.23
375.496	16.23
375.625	26.23
375.755	38.23
375.884	37.23
376.013	38.23
376.142	22.23
376.271	12.23
376.4	35.23
376.529	21.23
376.658	42.23
376.787	23.23
376.916	50.23
377.045	22.23
377.174	13.23
377.303	26.23
377.432	36.23
377.561	53.23
377.69	28.23
377.819	29.23
377.948	30.23
378.077	19.23
378.206	29.23
378.335	17.23
378.464	10.23
378.593	37.23
378.722	19.23
378.851	20.23
378.98	24.23
379.108	6.23
379.237	16.23
379.366	35.23
379.495	45.23
379.624	27.23
379.753	22.23
379.882	31.23
380.011	11.23
380.14	16.23
380.268	37.23
380.397	30.23
380.526	43.23
380.655	14.23
380.784	12.23
380.913	20.23
381.041	25.23
381.17	-2.77
381.299	7.23
381.428	4.23
381.557	31.23
381.685	41.23
381.814	46.23
381.943	16.23
382.072	26.23
382.2	23.23
382.329	8.23
382.458	25.23
382.587	38.23
382.715	37.23
382.844	23.23
382.973	9.23
383.102	3.23
383.23	15.23
383.359	15.23
383.488	16.23
383.616	23.23
383.745	5.23
383.874	31.23
384.003	15.23
384.131	13.23
384.26	15.23
384.389	10.23
384.517	32.23
384.646	20.23
384.774	30.23
384.903	45.23
385.032	54.23
385.16	22.23
385.289	10.23
385.418	33.23
385.546	24.23
385.675	41.23
385.803	22.23
385.932	38.23
386.06	7.23
386.189	38.23
386.318	34.23
386.446	42.23
386.575	22.23
386.703	25.23
386.832	38.23
386.96	14.23
387.089	50.23
387.217	29.23
387.346	12.23
387.474	29.23
387.603	30.23
387.731	38.23
387.86	17.23
387.988	17.23
388.117	42.23
388.245	31.23
388.374	1.23
388.502	31.23
388.631	3.23
388.759	35.23
388.888	27.23
389.016	28.23
389.144	32.23
389.273	17.23
389.401	34.23
389.53	25.23
389.658	37.23
389.786	13.23
389.915	15.23
390.043	10.23
390.172	29.23
390.3	52.23
390.428	53.23
390.557	20.23
390.685	45.23
390.813	58.23
390.942	50.23
391.07	30.23
391.198	30.23
391.327	32.23
391.455	28.23
391.583	41.23
391.712	33.23
391.84	45.23
391.968	33.23
392.096	25.23
392.225	31.23
392.353	41.23
392.481	13.23
392.609	56.23
392.738	31.23
392.866	25.23
392.994	20.23
393.122	54.23
393.251	31.23
393.379	20.23
393.507	12.23
393.635	22.23
393.764	33.23
393.892	34.23
394.02	23.23
394.148	33.23
394.276	21.23
394.404	58.23
394.533	49.23
394.661	39.23
394.789	45.23
394.917	61.23
395.045	33.23
395.173	20.23
395.302	28.23
395.43	35.23
395.558	54.23
395.686	38.23
395.814	53.23
395.942	25.23
396.07	28.23
396.198	48.23
396.326	35.23
396.454	54.23
396.582	59.23
396.711	48.23
396.839	34.23
396.967	41.23
397.095	28.23
397.223	52.23
397.351	48.23
397.479	45.23
397.607	45.23
397.735	59.23
397.863	60.23
397.991	40.23
398.119	37.23
398.247	44.23
398.375	61.23
398.503	56.23
398.631	61.23
398.759	64.23
398.887	71.23
399.015	53.23
399.143	74.23
399.271	93.23
399.399	78.23
399.526	67.23
399.654	93.23
399.782	80.23
399.91	90.23
400.038	103.23
400.166	99.23
400.294	99.23
400.422	83.23
400.55	96.23
400.678	125.23
400.805	129.23
400.933	117.23
401.061	137.23
401.189	119.23
401.317	153.23
401.445	104.23
401.573	81.23
401.7	69.23
401.828	64.23
401.956	65.23
402.084	73.23
402.212	36.23
402.34	31.23
402.467	26.23
402.595	35.23
402.723	45.23
402.851	62.23
402.978	57.23
403.106	77.23
403.234	94.23
403.362	111.23
403.489	115.23
403.617	146.23
403.745	207.23
403.873	257.23
404	557.23
404.128	1466.23
404.256	3881.23
404.384	5067.23
404.511	5381.23
404.639	7029.23
404.767	11307.23
404.894	14561.23
405.022	4905.23
405.15	1287.23
405.277	410.23
405.405	233.23
405.533	152.23
405.66	105.23
405.788	64.23
405.916	65.23
406.043	56.23
406.171	42.23
406.299	54.23
406.426	75.23
406.554	61.23
406.681	84.23
406.809	55.23
406.937	71.23
407.064	87.23
407.192	149.23
407.319	315.23
407.447	526.23
407.574	520.23
407.702	624.23
407.83	852.23
407.957	1586.23
408.085	933.23
408.212	269.23
408.34	114.23
408.467	83.23
408.595	61.23
408.722	41.23
408.85	40.23
408.977	28.23
409.105	32.23
409.232	52.23
409.36	41.23
409.487	42.23
409.615	36.23
409.742	62.23
409.87	35.23
409.997	41.23
410.125	41.23
410.252	44.23
410.379	34.23
410.507	46.23
410.634	40.23
410.762	28.23
410.889	60.23
411.017	54.23
411.144	64.23
411.271	26.23
411.399	22.23
411.526	41.23
411.653	48.23
411.781	41.23
411.908	35.23
412.036	34.23
412.163	30.23
412.29	27.23
412.418	30.23
412.545	38.23
412.672	35.23
412.8	54.23
412.927	35.23
413.054	63.23
413.182	29.23
413.309	38.23
413.436	21.23
413.564	29.23
413.691	36.23
413.818	37.23
413.945	23.23
414.073	44.23
414.2	33.23
414.327	29.23
414.454	48.23
414.582	29.23
414.709	14.23
414.836	31.23
414.963	40.23
415.091	42.23
415.218	32.23
415.345	32.23
415.472	45.23
415.6	24.23
415.727	22.23
415.854	37.23
415.981	44.23
416.108	38.23
416.236	32.23
416.363	23.23
416.49	33.23
416.617	32.23
416.744	35.23
416.871	43.23
416.998	28.23
417.126	17.23
417.253	37.23
417.38	35.23
417.507	36.23
417.634	42.23
417.761	49.23
417.888	39.23
418.015	35.23
418.143	58.23
418.27	61.23
418.397	44.23
418.524	51.23
418.651	38.23
418.778	59.23
418.905	76.23
419.032	36.23
419.159	33.23
419.286	70.23
419.413	50.23
419.54	57.23
419.667	40.23
419.794	45.23
419.921	52.23
420.048	70.23
420.175	61.23
420.302	34.23
420.429	76.23
420.556	47.23
420.683	45.23
420.81	54.23
420.937	66.23
421.064	69.23
421.191	57.23
421.318	93.23
421.445	92.23
421.572	43.23
421.699	49.23
421.826	61.23
421.953	52.23
422.08	46.23
422.207	24.23
422.334	22.23
422.461	30.23
422.588	11.23
422.714	36.23
422.841	58.23
422.968	45.23
423.095	24.23
423.222	31.23
423.349	42.23
423.476	29.23
423.603	30.23
423.729	31.23
423.856	20.23
423.983	33.23
424.11	18.23
424.237	30.23
424.364	51.23
424.491	21.23
424.617	6.23
424.744	21.23
424.871	33.23
424.998	16.23
425.125	30.23
425.251	28.23
425.378	14.23
425.505	11.23
425.632	20.23
425.758	21.23
425.885	27.23
426.012	29.23
426.139	46.23
426.266	25.23
426.392	31.23
426.519	33.23
426.646	32.23
426.772	45.23
426.899	24.23
427.026	22.23
427.153	7.23
427.279	49.23
427.406	28.23
427.533	13.23
427.659	32.23
427.786	14.23
427.913	49.23
428.039	19.23
428.166	25.23
428.293	20.23
428.419	35.23
428.546	45.23
428.673	15.23
428.799	17.23
428.926	22.23
429.053	35.23
429.179	43.23
429.306	41.23
429.433	51.23
429.559	25.23
429.686	12.23
429.812	24.23
429.939	34.23
430.066	14.23
430.192	34.23
430.319	42.23
430.445	35.23
430.572	37.23
430.699	22.23
430.825	27.23
430.952	44.23
431.078	65.23
431.205	46.23
431.331	36.23
431.458	36.23
431.584	35.23
431.711	29.23
431.837	40.23
431.964	26.23
432.09	25.23
432.217	20.23
432.343	26.23
432.47	43.23
432.596	34.23
432.723	24.23
432.849	24.23
432.976	45.23
433.102	33.23
433.229	60.23
433.355	73.23
433.482	96.23
433.608	106.23
433.735	112.23
433.861	123.23
433.987	151.23
434.114	184.23
434.24	184.23
434.367	218.23
434.493	228.23
434.62	299.23
434.746	387.23
434.872	607.23
434.999	860.23
435.125	1721.23
435.252	5450.23
435.378	13338.23
435.504	15200.23
435.631	15383.23
435.757	15690.23
435.883	15690.23
436.01	15690.23
436.136	15690.23
436.262	15690.23
436.389	3421.23
436.515	1938.23
436.641	729.23
436.768	638.23
436.894	383.23
437.02	404.23
437.147	291.23
437.273	280.23
437.399	236.23
437.526	251.23
437.652	174.23
437.778	199.23
437.904	150.23
438.031	177.23
438.157	146.23
438.283	144.23
438.409	129.23
438.536	124.23
438.662	109.23
438.788	140.23
438.914	110.23
439.041	132.23
439.167	119.23
439.293	118.23
439.419	89.23
439.546	113.23
439.672	84.23
439.798	96.23
439.924	88.23
440.05	98.23
440.177	90.23
440.303	69.23
440.429	49.23
440.555	82.23
440.681	83.23
440.807	79.23
440.934	67.23
441.06	75.23
441.186	54.23
441.312	71.23
441.438	81.23
441.564	97.23
441.69	73.23
441.816	65.23
441.943	43.23
442.069	64.23
442.195	69.23
442.321	59.23
442.447	46.23
442.573	57.23
442.699	57.23
442.825	67.23
442.951	68.23
443.077	63.23
443.203	53.23
443.33	40.23
443.456	28.23
443.582	75.23
443.708	42.23
443.834	59.23
443.96	61.23
444.086	60.23
444.212	47.23
444.338	35.23
444.464	41.23
444.59	54.23
444.716	37.23
444.842	35.23
444.968	31.23
445.094	47.23
445.22	25.23
445.346	49.23
445.472	54.23
445.598	35.23
445.724	29.23
445.85	50.23
445.976	35.23
446.102	50.23
446.228	62.23
446.354	38.23
446.48	34.23
446.605	52.23
446.731	67.23
446.857	29.23
446.983	51.23
447.109	47.23
447.235	50.23
447.361	44.23
447.487	46.23
447.613	46.23
447.739	33.23
447.865	37.23
447.99	47.23
448.116	46.23
448.242	28.23
448.368	37.23
448.494	25.23
448.62	44.23
448.746	27.23
448.872	34.23
448.997	28.23
449.123	16.23
449.249	16.23
449.375	54.23
449.501	31.23
449.627	33.23
449.752	63.23
449.878	39.23
450.004	37.23
450.13	41.23
450.256	39.23
450.381	26.23
450.507	41.23
450.633	23.23
450.759	43.23
450.884	31.23
451.01	40.23
451.136	37.23
451.262	36.23
451.388	38.23
451.513	24.23
451.639	19.23
451.765	32.23
451.89	55.23
452.016	34.23
452.142	37.23
452.268	36.23
452.393	30.23
452.519	23.23
452.645	29.23
452.771	25.23
452.896	28.23
453.022	27.23
453.148	42.23
453.273	33.23
453.399	42.23
453.525	22.23
453.65	18.23
453.776	41.23
453.902	45.23
454.027	39.23
454.153	40.23
454.279	46.23
454.404	27.23
454.53	68.23
454.656	72.23
454.781	35.23
454.907	31.23
455.032	32.23
455.158	46.23
455.284	42.23
455.409	45.23
455.535	49.23
455.66	39.23
455.786	47.23
455.912	36.23
456.037	29.23
456.163	29.23
456.288	30.23
456.414	19.23
456.539	14.23
456.665	44.23
456.791	46.23
456.916	30.23
457.042	19.23
457.167	28.23
457.293	38.23
457.418	37.23
457.544	22.23
457.669	20.23
457.795	17.23
457.92	44.23
458.046	37.23
458.171	32.23
458.297	22.23
458.422	37.23
458.548	37.23
458.673	33.23
458.799	22.23
458.924	18.23
459.05	31.23
459.175	29.23
459.301	17.23
459.426	45.23
459.552	33.23
459.677	20.23
459.803	50.23
459.928	25.23
460.053	22.23
460.179	26.23
460.304	29.23
460.43	24.23
460.555	31.23
460.681	33.23
460.806	42.23
460.931	37.23
461.057	44.23
461.182	35.23
461.308	37.23
461.433	25.23
461.558	13.23
461.684	48.23
461.809	41.23
461.934	22.23
462.06	43.23
462.185	6.23
462.311	21.23
462.436	32.23
462.561	22.23
462.687	39.23
462.812	43.23
462.937	25.23
463.063	21.23
463.188	31.23
463.313	48.23
463.439	40.23
463.564	37.23
463.689	34.23
463.814	37.23
463.94	31.23
464.065	30.23
464.19	52.23
464.316	25.23
464.441	18.23
464.566	25.23
464.692	33.23
464.817	45.23
464.942	29.23
465.067	32.23
465.193	11.23
465.318	16.23
465.443	31.23
465.568	14.23
465.694	31.23
465.819	48.23
465.944	32.23
466.069	27.23
466.194	40.23
466.32	35.23
466.445	31.23
466.57	41.23
466.695	38.23
466.82	40.23
466.946	29.23
467.071	42.23
467.196	46.23
467.321	65.23
467.446	33.23
467.572	39.23
467.697	19.23
467.822	53.23
467.947	49.23
468.072	31.23
468.197	37.23
468.323	24.23
468.448	47.23
468.573	42.23
468.698	36.23
468.823	33.23
468.948	33.23
469.073	36.23
469.198	45.23
469.324	41.23
469.449	37.23
469.574	61.23
469.699	45.23
469.824	51.23
469.949	36.23
470.074	54.23
470.199	68.23
470.324	54.23
470.449	38.23
470.574	45.23
470.7	38.23
470.825	54.23
470.95	64.23
471.075	46.23
471.2	34.23
471.325	50.23
471.45	25.23
471.575	26.23
471.7	62.23
471.825	27.23
471.95	20.23
472.075	36.23
472.2	38.23
472.325	51.23
472.45	30.23
472.575	39.23
472.7	30.23
472.825	44.23
472.95	43.23
473.075	52.23
473.2	40.23
473.325	31.23
473.45	51.23
473.575	43.23
473.7	34.23
473.825	42.23
473.95	33.23
474.075	39.23
474.2	30.23
474.325	18.23
474.45	45.23
474.574	44.23
474.699	41.23
474.824	42.23
474.949	23.23
475.074	13.23
475.199	61.23
475.324	33.23
475.449	17.23
475.574	41.23
475.699	33.23
475.824	29.23
475.949	30.23
476.073	15.23
476.198	30.23
476.323	29.23
476.448	27.23
476.573	17.23
476.698	34.23
476.823	44.23
476.947	25.23
477.072	32.23
477.197	33.23
477.322	35.23
477.447	28.23
477.572	37.23
477.697	28.23
477.821	29.23
477.946	35.23
478.071	23.23
478.196	31.23
478.321	17.23
478.445	16.23
478.57	31.23
478.695	19.23
478.82	23.23
478.945	24.23
479.069	16.23
479.194	16.23
479.319	24.23
479.444	49.23
479.569	13.23
479.693	27.23
479.818	37.23
479.943	39.23
480.068	27.23
480.192	25.23
480.317	35.23
480.442	25.23
480.567	32.23
480.691	25.23
480.816	12.23
480.941	10.23
481.066	27.23
481.19	30.23
481.315	15.23
481.44	18.23
481.564	15.23
481.689	40.23
481.814	34.23
481.938	28.23
482.063	15.23
482.188	21.23
482.313	44.23
482.437	27.23
482.562	29.23
482.687	26.23
482.811	36.23
482.936	22.23
483.061	24.23
483.185	20.23
483.31	22.23
483.435	42.23
483.559	31.23
483.684	30.23
483.808	61.23
483.933	33.23
484.058	12.23
484.182	35.23
484.307	21.23
484.432	40.23
484.556	25.23
484.681	19.23
484.805	35.23
484.93	27.23
485.055	29.23
485.179	53.23
485.304	35.23
485.428	41.23
485.553	42.23
485.678	34.23
485.802	9.23
485.927	47.23
486.051	32.23
486.176	29.23
486.3	16.23
486.425	20.23
486.549	30.23
486.674	34.23
486.799	22.23
486.923	8.23
487.048	18.23
487.172	19.23
487.297	34.23
487.421	36.23
487.546	37.23
487.67	30.23
487.795	13.23
487.919	27.23
488.044	31.23
488.168	31.23
488.293	25.23
488.417	19.23
488.542	23.23
488.666	33.23
488.791	44.23
488.915	34.23
489.04	30.23
489.164	39.23
489.289	37.23
489.413	34.23
489.538	26.23
489.662	50.23
489.786	17.23
489.911	40.23
490.035	11.23
490.16	17.23
490.284	15.23
490.409	3.23
490.533	22.23
490.658	40.23
490.782	36.23
490.906	66.23
491.031	120.23
491.155	149.23
491.28	146.23
491.404	163.23
491.528	245.23
491.653	187.23
491.777	85.23
491.902	37.23
492.026	37.23
492.15	47.23
492.275	40.23
492.399	43.23
492.524	15.23
492.648	45.23
492.772	26.23
492.897	34.23
493.021	20.23
493.145	50.23
493.27	39.23
493.394	18.23
493.518	15.23
493.643	24.23
493.767	24.23
493.891	33.23
494.016	11.23
494.14	7.23
494.264	20.23
494.389	35.23
494.513	31.23
494.637	22.23
494.762	42.23
494.886	29.23
495.01	43.23
495.134	12.23
495.259	33.23
495.383	19.23
495.507	22.23
495.632	36.23
495.756	59.23
495.88	45.23
496.004	36.23
496.129	28.23
496.253	32.23
496.377	40.23
496.501	39.23
496.626	32.23
496.75	20.23
496.874	39.23
496.998	15.23
497.123	35.23
497.247	22.23
497.371	21.23
497.495	37.23
497.62	21.23
497.744	29.23
497.868	30.23
497.992	42.23
498.116	22.23
498.241	28.23
498.365	32.23
498.489	25.23
498.613	35.23
498.737	25.23
498.862	23.23
498.986	21.23
499.11	21.23
499.234	38.23
499.358	22.23
499.482	24.23
499.607	13.23
499.731	34.23
499.855	51.23
499.979	28.23
500.103	35.23
500.227	39.23
500.351	19.23
500.476	24.23
500.6	33.23
500.724	23.23
500.848	37.23
500.972	39.23
501.096	35.23
501.22	35.23
501.344	25.23
501.469	34.23
501.593	31.23
501.717	35.23
501.841	25.23
501.965	40.23
502.089	21.23
502.213	54.23
502.337	46.23
502.461	1.23
502.585	31.23
502.709	28.23
502.834	12.23
502.958	24.23
503.082	29.23
503.206	39.23
503.33	36.23
503.454	26.23
503.578	25.23
503.702	36.23
503.826	28.23
503.95	36.23
504.074	42.23
504.198	29.23
504.322	12.23
504.446	19.23
504.57	31.23
504.694	34.23
504.818	24.23
504.942	49.23
505.066	33.23
505.19	25.23
505.314	40.23
505.438	30.23
505.562	35.23
505.686	34.23
505.81	41.23
505.934	33.23
506.058	35.23
506.182	32.23
506.306	44.23
506.43	27.23
506.554	29.23
506.678	22.23
506.802	23.23
506.926	31.23
507.05	30.23
507.174	51.23
507.298	42.23
507.422	17.23
507.546	43.23
507.67	38.23
507.794	18.23
507.918	22.23
508.042	25.23
508.165	17.23
508.289	19.23
508.413	29.23
508.537	25.23
508.661	38.23
508.785	27.23
508.909	42.23
509.033	40.23
509.157	43.23
509.281	37.23
509.405	18.23
509.528	41.23
509.652	40.23
509.776	47.23
509.9	30.23
510.024	42.23
510.148	41.23
510.272	40.23
510.396	41.23
510.519	27.23
510.643	54.23
510.767	47.23
510.891	55.23
511.015	34.23
511.139	43.23
511.263	56.23
511.386	49.23
511.51	52.23
511.634	40.23
511.758	52.23
511.882	32.23
512.006	47.23
512.129	58.23
512.253	90.23
512.377	90.23
512.501	89.23
512.625	102.23
512.748	93.23
512.872	83.23
512.996	58.23
513.12	62.23
513.244	73.23
513.367	72.23
513.491	85.23
513.615	91.23
513.739	63.23
513.862	81.23
513.986	94.23
514.11	101.23
514.234	87.23
514.358	118.23
514.481	112.23
514.605	119.23
514.729	103.23
514.853	120.23
514.976	98.23
515.1	112.23
515.224	120.23
515.348	90.23
515.471	87.23
515.595	98.23
515.719	124.23
515.842	192.23
515.966	291.23
516.09	317.23
516.214	301.23
516.337	338.23
516.461	218.23
516.585	90.23
516.708	37.23
516.832	32.23
516.956	25.23
517.08	26.23
517.203	11.23
517.327	28.23
517.451	32.23
517.574	42.23
517.698	29.23
517.822	50.23
517.945	40.23
518.069	44.23
518.193	46.23
518.316	25.23
518.44	20.23
518.564	25.23
518.687	11.23
518.811	30.23
518.935	62.23
519.058	18.23
519.182	24.23
519.306	34.23
519.429	38.23
519.553	72.23
519.676	38.23
519.8	37.23
519.924	22.23
520.047	40.23
520.171	9.23
520.294	31.23
520.418	20.23
520.542	31.23
520.665	27.23
520.789	15.23
520.913	27.23
521.036	0.23
521.16	16.23
521.283	13.23
521.407	32.23
521.53	14.23
521.654	3.23
521.778	49.23
521.901	31.23
522.025	35.23
522.148	15.23
522.272	12.23
522.395	17.23
522.519	28.23
522.643	24.23
522.766	30.23
522.89	17.23
523.013	19.23
523.137	12.23
523.26	11.23
523.384	52.23
523.507	29.23
523.631	35.23
523.754	12.23
523.878	24.23
524.002	27.23
524.125	24.23
524.249	15.23
524.372	26.23
524.496	25.23
524.619	40.23
524.743	14.23
524.866	25.23
524.99	32.23
525.113	19.23
525.237	32.23
525.36	27.23
525.484	11.23
525.607	11.23
525.731	5.23
525.854	34.23
525.978	50.23
526.101	12.23
526.224	22.23
526.348	38.23
526.471	33.23
526.595	16.23
526.718	27.23
526.842	12.23
526.965	26.23
527.089	33.23
527.212	32.23
527.336	19.23
527.459	33.23
527.582	21.23
527.706	24.23
527.829	25.23
527.953	34.23
528.076	5.23
528.2	13.23
528.323	34.23
528.446	26.23
528.57	29.23
528.693	37.23
528.817	41.23
528.94	20.23
529.064	49.23
529.187	17.23
529.31	25.23
529.434	12.23
529.557	7.23
529.68	11.23
529.804	17.23
529.927	43.23
530.051	20.23
530.174	18.23
530.297	30.23
530.421	34.23
530.544	36.23
530.668	32.23
530.791	6.23
530.914	14.23
531.038	27.23
531.161	22.23
531.284	21.23
531.408	31.23
531.531	29.23
531.654	23.23
531.778	12.23
531.901	-3.77
532.024	18.23
532.148	-2.77
532.271	39.23
532.394	28.23
532.518	25.23
532.641	17.23
532.764	32.23
532.888	29.23
533.011	3.23
533.134	20.23
533.258	46.23
533.381	29.23
533.504	18.23
533.628	23.23
533.751	33.23
533.874	33.23
533.997	43.23
534.121	20.23
534.244	17.23
534.367	34.23
534.491	31.23
534.614	19.23
534.737	34.23
534.86	39.23
534.984	12.23
535.107	24.23
535.23	20.23
535.354	19.23
535.477	15.23
535.6	37.23
535.723	32.23
535.847	14.23
535.97	23.23
536.093	25.23
536.216	5.23
536.34	43.23
536.463	12.23
536.586	31.23
536.709	35.23
536.833	25.23
536.956	20.23
537.079	7.23
537.202	28.23
537.325	29.23
537.449	6.23
537.572	27.23
537.695	5.23
537.818	21.23
537.941	15.23
538.065	5.23
538.188	0.23
538.311	24.23
538.434	35.23
538.558	26.23
538.681	55.23
538.804	41.23
538.927	27.23
539.05	27.23
539.173	21.23
539.297	-0.77
539.42	23.23
539.543	41.23
539.666	48.23
539.789	44.23
539.913	41.23
540.036	35.23
540.159	37.23
540.282	17.23
540.405	20.23
540.528	36.23
540.651	41.23
540.775	21.23
540.898	52.23
541.021	38.23
541.144	20.23
541.267	46.23
541.39	40.23
541.513	39.23
541.637	39.23
541.76	42.23
541.883	42.23
542.006	44.23
542.129	62.23
542.252	46.23
542.375	46.23
542.498	41.23
542.622	45.23
542.745	64.23
542.868	55.23
542.991	61.23
543.114	60.23
543.237	69.23
543.36	75.23
543.483	67.23
543.606	72.23
543.73	75.23
543.853	91.23
543.976	108.23
544.099	134.23
544.222	126.23
544.345	140.23
544.468	170.23
544.591	223.23
544.714	287.23
544.837	336.23
544.96	424.23
545.083	648.23
545.206	1066.23
545.329	2396.23
545.453	10859.23
545.576	15251.23
545.699	15690.23
545.822	15690.23
545.945	15690.23
546.068	15690.23
546.191	15690.23
546.314	15690.23
546.437	15690.23
546.56	15690.23
546.683	15690.23
546.806	15690.23
546.929	15690.23
547.052	15690.23
547.175	15690.23
547.298	15690.23
547.421	15690.23
547.544	15690.23
547.667	3448.23
547.79	1921.23
547.913	952.23
548.036	874.23
548.159	623.23
548.282	623.23
548.405	473.23
548.528	480.23
548.651	382.23
548.774	407.23
548.897	367.23
549.02	349.23
549.143	312.23
549.266	327.23
549.389	281.23
549.512	255.23
549.635	252.23
549.758	247.23
549.881	217.23
550.004	219.23
550.127	199.23
550.25	217.23
550.373	182.23
550.496	180.23
550.619	169.23
550.742	161.23
550.865	157.23
550.988	155.23
551.111	173.23
551.234	169.23
551.356	128.23
551.479	139.23
551.602	99.23
551.725	136.23
551.848	138.23
551.971	130.23
552.094	110.23
552.217	108.23
552.34	115.23
552.463	96.23
552.586	120.23
552.709	112.23
552.832	103.23
552.955	113.23
553.077	98.23
553.2	117.23
553.323	96.23
553.446	98.23
553.569	106.23
553.692	118.23
553.815	97.23
553.938	121.23
554.061	118.23
554.184	100.23
554.306	76.23
554.429	98.23
554.552	94.23
554.675	75.23
554.798	110.23
554.921	93.23
555.044	79.23
555.167	76.23
555.29	70.23
555.412	83.23
555.535	84.23
555.658	84.23
555.781	92.23
555.904	93.23
556.027	72.23
556.15	86.23
556.272	87.23
556.395	89.23
556.518	65.23
556.641	85.23
556.764	91.23
556.887	82.23
557.01	78.23
557.132	53.23
557.255	82.23
557.378	103.23
557.501	84.23
557.624	75.23
557.747	89.23
557.869	98.23
557.992	101.23
558.115	96.23
558.238	85.23
558.361	80.23
558.483	99.23
558.606	80.23
558.729	57.23
558.852	89.23
558.975	65.23
559.098	60.23
559.22	57.23
559.343	50.23
559.466	67.23
559.589	65.23
559.712	65.23
559.834	53.23
559.957	61.23
560.08	45.23
560.203	72.23
560.325	61.23
560.448	68.23
560.571	53.23
560.694	53.23
560.817	61.23
560.939	75.23
561.062	64.23
561.185	46.23
561.308	48.23
561.43	54.23
561.553	68.23
561.676	68.23
561.799	90.23
561.921	72.23
562.044	61.23
562.167	53.23
562.29	88.23
562.413	83.23
562.535	86.23
562.658	57.23
562.781	41.23
562.903	70.23
563.026	87.23
563.149	134.23
563.272	117.23
563.394	135.23
563.517	120.23
563.64	66.23
563.763	52.23
563.885	64.23
564.008	82.23
564.131	52.23
564.254	40.23
564.376	41.23
564.499	37.23
564.622	38.23
564.744	72.23
564.867	58.23
564.99	59.23
565.113	45.23
565.235	52.23
565.358	36.23
565.481	37.23
565.603	39.23
565.726	51.23
565.849	35.23
565.971	35.23
566.094	46.23
566.217	49.23
566.34	31.23
566.462	38.23
566.585	58.23
566.708	76.23
566.83	50.23
566.953	53.23
567.076	41.23
567.198	48.23
567.321	34.23
567.444	60.23
567.566	40.23
567.689	39.23
567.812	34.23
567.934	45.23
568.057	41.23
568.18	57.23
568.302	24.23
568.425	42.23
568.548	31.23
568.67	46.23
568.793	35.23
568.916	40.23
569.038	33.23
569.161	44.23
569.283	40.23
569.406	39.23
569.529	31.23
569.651	25.23
569.774	27.23
569.897	33.23
570.019	51.23
570.142	53.23
570.265	31.23
570.387	54.23
570.51	58.23
570.632	54.23
570.755	31.23
570.878	42.23
571	47.23
571.123	43.23
571.246	46.23
571.368	20.23
571.491	34.23
571.613	51.23
571.736	39.23
571.859	41.23
571.981	33.23
572.104	39.23
572.226	34.23
572.349	18.23
572.472	49.23
572.594	38.23
572.717	48.23
572.839	59.23
572.962	33.23
573.085	44.23
573.207	38.23
573.33	29.23
573.452	46.23
573.575	41.23
573.697	36.23
573.82	49.23
573.943	45.23
574.065	51.23
574.188	49.23
574.31	53.23
574.433	50.23
574.555	51.23
574.678	33.23
574.801	46.23
574.923	28.23
575.046	59.23
575.168	36.23
575.291	33.23
575.413	44.23
575.536	57.23
575.659	50.23
575.781	44.23
575.904	71.23
576.026	72.23
576.149	101.23
576.271	145.23
576.394	214.23
576.516	553.23
576.639	3630.23
576.761	10124.23
576.884	8717.23
577.007	8660.23
577.129	7921.23
577.252	3647.23
577.374	1266.23
577.497	523.23
577.619	296.23
577.742	181.23
577.864	162.23
577.987	133.23
578.109	141.23
578.232	134.23
578.354	145.23
578.477	213.23
578.599	373.23
578.722	1956.23
578.844	9007.23
578.967	9748.23
579.089	8672.23
579.212	9043.23
579.334	5265.23
579.457	1931.23
579.579	733.23
579.702	318.23
579.824	205.23
579.947	128.23
580.069	117.23
580.192	89.23
580.314	86.23
580.437	75.23
580.559	94.23
580.682	78.23
580.804	80.23
580.927	68.23
581.049	68.23
581.172	51.23
581.294	58.23
581.417	47.23
581.539	61.23
581.662	54.23
581.784	67.23
581.907	51.23
582.029	63.23
582.152	21.23
582.274	49.23
582.396	61.23
582.519	40.23
582.641	35.23
582.764	44.23
582.886	52.23
583.009	42.23
583.131	58.23
583.254	36.23
583.376	44.23
583.499	42.23
583.621	47.23
583.743	53.23
583.866	22.23
583.988	33.23
584.111	52.23
584.233	54.23
584.356	49.23
584.478	39.23
584.601	28.23
584.723	29.23
584.845	45.23
584.968	25.23
585.09	33.23
585.213	51.23
585.335	43.23
585.458	49.23
585.58	36.23
585.702	54.23
585.825	57.23
585.947	47.23
586.07	44.23
586.192	20.23
586.315	47.23
586.437	34.23
586.559	21.23
586.682	38.23
586.804	44.23
586.927	35.23
587.049	26.23
587.171	38.23
587.294	35.23
587.416	57.23
587.539	21.23
587.661	23.23
587.783	7.23
587.906	36.23
588.028	38.23
588.151	23.23
588.273	38.23
588.395	30.23
588.518	28.23
588.64	39.23
588.763	48.23
588.885	46.23
589.007	63.23
589.13	25.23
589.252	19.23
589.375	35.23
589.497	38.23
589.619	34.23
589.742	35.23
589.864	63.23
589.986	42.23
590.109	20.23
590.231	21.23
590.354	35.23
590.476	15.23
590.598	26.23
590.721	-2.77
590.843	19.23
590.965	38.23
591.088	30.23
591.21	35.23
591.332	24.23
591.455	31.23
591.577	15.23
591.7	32.23
591.822	26.23
591.944	15.23
592.067	24.23
592.189	27.23
592.311	47.23
592.434	27.23
592.556	33.23
592.678	38.23
592.801	40.23
592.923	29.23
593.045	28.23
593.168	31.23
593.29	38.23
593.412	23.23
593.535	25.23
593.657	26.23
593.779	18.23
593.902	28.23
594.024	42.23
594.146	26.23
594.269	15.23
594.391	19.23
594.513	33.23
594.636	19.23
594.758	24.23
594.88	47.23
595.003	50.23
595.125	31.23
595.247	32.23
595.37	31.23
595.492	27.23
595.614	54.23
595.737	28.23
595.859	27.23
595.981	29.23
596.104	24.23
596.226	17.23
596.348	21.23
596.471	41.23
596.593	41.23
596.715	33.23
596.838	27.23
596.96	28.23
597.082	24.23
597.204	27.23
597.327	33.23
597.449	46.23
597.571	27.23
597.694	35.23
597.816	27.23
597.938	23.23
598.061	15.23
598.183	28.23
598.305	40.23
598.427	43.23
598.55	31.23
598.672	57.23
598.794	40.23
598.917	32.23
599.039	28.23
599.161	29.23
599.283	25.23
599.406	27.23
599.528	47.23
599.65	73.23
599.773	35.23
599.895	44.23
600.017	49.23
600.139	34.23
600.262	30.23
600.384	34.23
600.506	36.23
600.628	50.23
600.751	41.23
600.873	35.23
600.995	25.23
601.118	34.23
601.24	29.23
601.362	48.23
601.484	51.23
601.607	60.23
601.729	25.23
601.851	25.23
601.973	25.23
602.096	40.23
602.218	47.23
602.34	32.23
602.462	33.23
602.585	34.23
602.707	11.23
602.829	18.23
602.951	24.23
603.074	16.23
603.196	31.23
603.318	17.23
603.44	48.23
603.563	35.23
603.685	17.23
603.807	26.23
603.929	24.23
604.052	19.23
604.174	47.23
604.296	41.23
604.418	45.23
604.541	67.23
604.663	15.23
604.785	34.23
604.907	35.23
605.03	17.23
605.152	52.23
605.274	34.23
605.396	40.23
605.519	40.23
605.641	44.23
605.763	32.23
605.885	23.23
606.008	22.23
606.13	34.23
606.252	38.23
606.374	27.23
606.496	5.23
606.619	30.23
606.741	31.23
606.863	38.23
606.985	39.23
607.108	28.23
607.23	17.23
607.352	27.23
607.474	31.23
607.596	40.23
607.719	32.23
607.841	58.23
607.963	29.23
608.085	29.23
608.207	30.23
608.33	33.23
608.452	27.23
608.574	30.23
608.696	32.23
608.819	30.23
608.941	33.23
609.063	27.23
609.185	27.23
609.307	40.23
609.43	46.23
609.552	27.23
609.674	-0.77
609.796	39.23
609.918	33.23
610.041	22.23
610.163	24.23
610.285	37.23
610.407	29.23
610.529	28.23
610.652	24.23
610.774	34.23
610.896	34.23
611.018	28.23
611.14	37.23
611.263	9.23
611.385	14.23
611.507	44.23
611.629	12.23
611.751	42.23
611.873	54.23
611.996	47.23
612.118	29.23
612.24	26.23
612.362	47.23
612.484	61.23
612.607	44.23
612.729	30.23
612.851	44.23
612.973	25.23
613.095	11.23
613.218	22.23
613.34	42.23
613.462	21.23
613.584	27.23
613.706	15.23
613.828	48.23
613.951	38.23
614.073	16.23
614.195	7.23
614.317	40.23
614.439	36.23
614.561	47.23
614.684	41.23
614.806	33.23
614.928	25.23
615.05	31.23
615.172	25.23
615.294	32.23
615.417	57.23
615.539	40.23
615.661	25.23
615.783	45.23
615.905	20.23
616.027	25.23
616.15	37.23
616.272	23.23
616.394	23.23
616.516	39.23
616.638	25.23
616.76	35.23
616.883	24.23
617.005	34.23
617.127	19.23
617.249	22.23
617.371	36.23
617.493	31.23
617.615	37.23
617.738	24.23
617.86	31.23
617.982	33.23
618.104	15.23
618.226	12.23
618.348	7.23
618.471	25.23
618.593	23.23
618.715	16.23
618.837	29.23
618.959	35.23
619.081	37.23
619.203	30.23
619.326	41.23
619.448	39.23
619.57	48.23
619.692	52.23
619.814	37.23
619.936	32.23
620.058	40.23
620.181	23.23
620.303	20.23
620.425	29.23
620.547	25.23
620.669	34.23
620.791	20.23
620.913	12.23
621.036	19.23
621.158	9.23
621.28	39.23
621.402	17.23
621.524	6.23
621.646	26.23
621.768	15.23
621.891	8.23
622.013	32.23
622.135	25.23
622.257	18.23
622.379	18.23
622.501	23.23
622.623	28.23
622.745	33.23
622.868	30.23
622.99	12.23
623.112	18.23
623.234	40.23
623.356	30.23
623.478	27.23
623.6	44.23
623.722	32.23
623.845	25.23
623.967	20.23
624.089	28.23
624.211	31.23
624.333	29.23
624.455	37.23
624.577	25.23
624.699	40.23
624.822	20.23
624.944	-3.77
625.066	17.23
625.188	19.23
625.31	27.23
625.432	49.23
625.554	19.23
625.676	52.23
625.799	37.23
625.921	21.23
626.043	28.23
626.165	17.23
626.287	5.23
626.409	60.23
626.531	22.23
626.653	23.23
626.775	45.23
626.898	37.23
627.02	51.23
627.142	38.23
627.264	31.23
627.386	19.23
627.508	31.23
627.63	30.23
627.752	34.23
627.874	21.23
627.997	37.23
628.119	27.23
628.241	21.23
628.363	27.23
628.485	20.23
628.607	24.23
628.729	-3.77
628.851	32.23
628.973	22.23
629.096	16.23
629.218	15.23
629.34	36.23
629.462	27.23
629.584	6.23
629.706	19.23
629.828	43.23
629.95	32.23
630.072	15.23
630.195	28.23
630.317	28.23
630.439	7.23
630.561	33.23
630.683	7.23
630.805	35.23
630.927	16.23
631.049	9.23
631.171	19.23
631.293	29.23
631.416	30.23
631.538	22.23
631.66	18.23
631.782	11.23
631.904	18.23
632.026	29.23
632.148	20.23
632.27	15.23
632.392	30.23
632.514	15.23
632.637	33.23
632.759	21.23
632.881	23.23
633.003	19.23
633.125	12.23
633.247	19.23
633.369	35.23
633.491	25.23
633.613	35.23
633.735	21.23
633.858	28.23
633.98	16.23
634.102	26.23
634.224	34.23
634.346	27.23
634.468	19.23
634.59	31.23
634.712	14.23
634.834	13.23
634.956	11.23
635.078	16.23
635.201	20.23
635.323	24.23
635.445	16.23
635.567	11.23
635.689	19.23
635.811	16.23
635.933	31.23
636.055	17.23
636.177	22.23
636.299	39.23
636.421	14.23
636.544	-3.77
636.666	33.23
636.788	22.23
636.91	29.23
637.032	8.23
637.154	36.23
637.276	44.23
637.398	25.23
637.52	37.23
637.642	13.23
637.764	34.23
637.887	30.23
638.009	19.23
638.131	11.23
638.253	0.23
638.375	30.23
638.497	33.23
638.619	19.23
638.741	25.23
638.863	12.23
638.985	15.23
639.107	20.23
639.23	16.23
639.352	22.23
639.474	20.23
639.596	0.23
639.718	10.23
639.84	20.23
639.962	20.23
640.084	30.23
640.206	36.23
640.328	15.23
640.45	21.23
640.573	12.23
640.695	7.23
640.817	28.23
640.939	25.23
641.061	21.23
641.183	34.23
641.305	3.23
641.427	17.23
641.549	14.23
641.671	25.23
641.793	19.23
641.915	34.23
642.038	15.23
642.16	23.23
642.282	19.23
642.404	11.23
642.526	5.23
642.648	29.23
642.77	11.23
642.892	28.23
643.014	27.23
643.136	22.23
643.258	41.23
643.381	47.23
643.503	45.23
643.625	33.23
643.747	18.23
643.869	21.23
643.991	21.23
644.113	16.23
644.235	22.23
644.357	19.23
644.479	39.23
644.601	23.23
644.723	20.23
644.846	32.23
644.968	21.23
645.09	27.23
645.212	13.23
645.334	25.23
645.456	28.23
645.578	44.23
645.7	39.23
645.822	25.23
645.944	21.23
646.066	24.23
646.188	11.23
646.311	8.23
646.433	36.23
646.555	34.23
646.677	11.23
646.799	1.23
646.921	9.23
647.043	28.23
647.165	13.23
647.287	22.23
647.409	44.23
647.531	44.23
647.654	5.23
647.776	33.23
647.898	13.23
648.02	7.23
648.142	14.23
648.264	11.23
648.386	16.23
648.508	14.23
648.63	25.23
648.752	31.23
648.874	14.23
648.997	23.23
649.119	36.23
649.241	24.23
649.363	46.23
649.485	28.23
649.607	26.23
649.729	35.23
649.851	22.23
649.973	13.23
650.095	8.23
650.217	15.23
650.34	6.23
650.462	30.23
650.584	25.23
650.706	29.23
650.828	19.23
650.95	-4.77
651.072	22.23
651.194	12.23
651.316	12.23
651.438	24.23
651.56	11.23
651.683	9.23
651.805	32.23
651.927	33.23
652.049	8.23
652.171	14.23
652.293	20.23
652.415	20.23
652.537	13.23
652.659	13.23
652.781	31.23
652.903	15.23
653.026	39.23
653.148	18.23
653.27	39.23
653.392	29.23
653.514	15.23
653.636	1.23
653.758	43.23
653.88	14.23
654.002	17.23
654.124	3.23
654.247	5.23
654.369	33.23
654.491	27.23
654.613	8.23
654.735	9.23
654.857	35.23
654.979	3.23
655.101	22.23
655.223	50.23
655.345	15.23
655.468	4.23
655.59	14.23
655.712	26.23
655.834	14.23
655.956	9.23
656.078	10.23
656.2	25.23
656.322	33.23
656.444	-1.77
656.566	21.23
656.689	20.23
656.811	12.23
656.933	17.23
657.055	16.23
657.177	12.23
657.299	2.23
657.421	18.23
657.543	35.23
657.665	14.23
657.787	12.23
657.91	17.23
658.032	15.23
658.154	11.23
658.276	12.23
658.398	12.23
658.52	24.23
658.642	35.23
658.764	31.23
658.886	2.23
659.009	13.23
659.131	24.23
659.253	28.23
659.375	27.23
659.497	17.23
659.619	19.23
659.741	23.23
659.863	4.23
659.985	21.23
660.108	32.23
660.23	-2.77
660.352	23.23
660.474	37.23
660.596	28.23
660.718	36.23
660.84	23.23
660.962	25.23
661.084	3.23
661.207	16.23
661.329	16.23
661.451	6.23
661.573	14.23
661.695	24.23
661.817	32.23
661.939	48.23
662.061	44.23
662.184	7.23
662.306	16.23
662.428	20.23
662.55	29.23
662.672	-3.77
662.794	8.23
662.916	19.23
663.038	18.23
663.161	24.23
663.283	23.23
663.405	16.23
663.527	-3.77
663.649	24.23
663.771	11.23
663.893	33.23
664.015	24.23
664.138	15.23
664.26	27.23
664.382	23.23
664.504	13.23
664.626	-3.77
664.748	8.23
664.87	11.23
664.992	22.23
665.115	23.23
665.237	19.23
665.359	16.23
665.481	25.23
665.603	31.23
665.725	9.23
665.847	12.23
665.97	21.23
666.092	47.23
666.214	25.23
666.336	21.23
666.458	33.23
666.58	20.23
666.702	-0.77
666.825	26.23
666.947	9.23
667.069	19.23
667.191	13.23
667.313	33.23
667.435	15.23
667.557	5.23
667.68	7.23
667.802	6.23
667.924	17.23
668.046	11.23
668.168	35.23
668.29	28.23
668.412	-4.77
668.535	22.23
668.657	11.23
668.779	15.23
668.901	12.23
669.023	46.23
669.145	15.23
669.267	34.23
669.39	21.23
669.512	20.23
669.634	19.23
669.756	4.23
669.878	19.23
670	20.23
670.123	11.23
670.245	37.23
670.367	42.23
670.489	23.23
670.611	8.23
670.733	16.23
670.856	21.23
670.978	25.23
671.1	21.23
671.222	17.23
671.344	14.23
671.466	10.23
671.589	4.23
671.711	24.23
671.833	15.23
671.955	23.23
672.077	20.23
672.199	42.23
672.322	34.23
672.444	11.23
672.566	27.23
672.688	20.23
672.81	33.23
672.932	13.23
673.055	29.23
673.177	7.23
673.299	22.23
673.421	-4.77
673.543	12.23
673.665	37.23
673.788	31.23
673.91	1.23
674.032	9.23
674.154	22.23
674.276	37.23
674.399	6.23
674.521	5.23
674.643	6.23
674.765	10.23
674.887	23.23
675.009	15.23
675.132	24.23
675.254	16.23
675.376	17.23
675.498	5.23
675.62	30.23
675.743	7.23
675.865	18.23
675.987	20.23
676.109	18.23
676.231	9.23
676.354	31.23
676.476	1.23
676.598	13.23
676.72	25.23
676.842	27.23
676.965	17.23
677.087	22.23
677.209	12.23
677.331	19.23
677.453	6.23
677.576	7.23
677.698	12.23
677.82	31.23
677.942	9.23
678.064	9.23
678.187	26.23
678.309	32.23
678.431	23.23
678.553	27.23
678.675	24.23
678.798	27.23
678.92	30.23
679.042	28.23
679.164	-6.77
679.286	2.23
679.409	17.23
679.531	-4.77
679.653	23.23
679.775	8.23
679.898	7.23
680.02	10.23
680.142	8.23
680.264	20.23
680.386	7.23
680.509	16.23
680.631	28.23
680.753	3.23
680.875	16.23
680.998	7.23
681.12	29.23
681.242	19.23
681.364	16.23
681.486	13.23
681.609	2.23
681.731	-2.77
681.853	14.23
681.975	10.23
682.098	36.23
682.22	44.23
682.342	17.23
682.464	34.23
682.587	37.23
682.709	-6.77
682.831	-3.77
682.953	20.23
683.076	25.23
683.198	12.23
683.32	4.23
683.442	21.23
683.565	24.23
683.687	11.23
683.809	7.23
683.931	-7.77
684.054	18.23
684.176	25.23
684.298	33.23
684.42	29.23
684.543	18.23
684.665	7.23
684.787	15.23
684.909	13.23
685.032	9.23
685.154	11.23
685.276	18.23
685.398	9.23
685.521	-3.77
685.643	9.23
685.765	13.23
685.887	17.23
686.01	9.23
686.132	11.23
686.254	15.23
686.377	20.23
686.499	23.23
686.621	12.23
686.743	23.23
686.866	17.23
686.988	41.23
687.11	11.23
687.232	19.23
687.355	-0.77
687.477	14.23
687.599	11.23
687.722	16.23
687.844	28.23
687.966	14.23
688.088	19.23
688.211	44.23
688.333	31.23
688.455	19.23
688.578	22.23
688.7	22.23
688.822	17.23
688.944	17.23
689.067	38.23
689.189	15.23
689.311	11.23
689.434	14.23
689.556	35.23
689.678	23.23
689.801	8.23
689.923	24.23
690.045	37.23
690.167	16.23
690.29	21.23
690.412	30.23
690.534	24.23
690.657	8.23
690.779	25.23
690.901	17.23
691.024	15.23
691.146	15.23
691.268	-1.77
691.391	15.23
691.513	31.23
691.635	20.23
691.758	39.23
691.88	27.23
692.002	0.23
692.125	12.23
692.247	14.23
692.369	25.23
692.492	18.23
692.614	17.23
692.736	22.23
692.859	25.23
692.981	27.23
693.103	11.23
693.226	2.23
693.348	25.23
693.47	22.23
693.593	43.23
693.715	47.23
693.837	29.23
693.96	27.23
694.082	20.23
694.204	24.23
694.327	8.23
694.449	8.23
694.571	19.23
694.694	24.23
694.816	4.23
694.938	2.23
695.061	24.23
695.183	23.23
695.305	22.23
695.428	20.23
695.55	9.23
695.672	8.23
695.795	30.23
695.917	21.23
696.04	24.23
696.162	19.23
696.284	16.23
696.407	8.23
696.529	17.23
696.651	57.23
696.774	16.23
696.896	17.23
697.019	29.23
697.141	15.23
697.263	18.23
697.386	24.23
697.508	4.23
697.63	23.23
697.753	24.23
697.875	12.23
697.998	11.23
698.12	11.23
698.242	-11.77
698.365	3.23
698.487	13.23
698.61	15.23
698.732	23.23
698.854	35.23
698.977	14.23
699.099	27.23
699.221	14.23
699.344	0.23
699.466	13.23
699.589	15.23
699.711	24.23
699.834	16.23
699.956	15.23
700.078	28.23
700.201	29.23
700.323	31.23
700.446	9.23
700.568	15.23
700.69	20.23
700.813	37.23
700.935	28.23
701.058	17.23
701.18	25.23
701.302	3.23
701.425	14.23
701.547	31.23
701.67	19.23
701.792	7.23
701.915	-0.77
702.037	11.23
702.159	15.23
702.282	23.23
702.404	3.23
702.527	27.23
702.649	40.23
702.772	36.23
702.894	29.23
703.017	40.23
703.139	36.23
703.261	37.23
703.384	24.23
703.506	9.23
703.629	23.23
703.751	24.23
703.874	19.23
703.996	3.23
704.119	5.23
704.241	16.23
704.364	5.23
704.486	24.23
704.608	17.23
704.731	24.23
704.853	21.23
704.976	4.23
705.098	26.23
705.221	17.23
705.343	17.23
705.466	25.23
705.588	11.23
705.711	14.23
705.833	9.23
705.956	11.23
706.078	20.23
706.201	27.23
706.323	16.23
706.446	17.23
