Data from LowRes_mercury_15_20_11_07_2024_HR4C61881__66__15-23-38-870.txt Node

Date: Thu Nov 07 15:23:38 EST 2024
User: crc00042
Spectrometer: HR4C6188
Trigger mode: 4
Integration Time (sec): 1.000000E-1
Scans to average: 1
Electric dark correction enabled: true
Nonlinearity correction enabled: false
Boxcar width: 0
XAxis mode: Wavelengths
Number of Pixels in Spectrum: 3648
>>>>>Begin Spectral Data<<<<<
245.66	-67.85
245.797	-67.85
245.934	-67.85
246.071	-74.85
246.208	6.15
246.344	12.15
246.481	9.15
246.618	2.15
246.755	11.15
246.892	-5.85
247.029	-6.85
247.165	-26.85
247.302	-0.85
247.439	5.15
247.576	9.15
247.713	-7.85
247.849	22.15
247.986	-22.85
248.123	15.15
248.26	-4.85
248.396	5.15
248.533	5.15
248.67	2.15
248.806	-4.85
248.943	-24.85
249.08	-15.85
249.216	6.15
249.353	-23.85
249.49	-5.85
249.626	0.15
249.763	-2.85
249.9	-38.85
250.036	-7.85
250.173	12.15
250.309	22.15
250.446	8.15
250.582	0.15
250.719	-2.85
250.856	4.15
250.992	1.15
251.129	-8.85
251.265	-27.85
251.402	5.15
251.538	5.15
251.675	-12.85
251.811	12.15
251.948	12.15
252.084	6.15
252.221	2.15
252.357	6.15
252.493	13.15
252.63	-18.85
252.766	11.15
252.903	-9.85
253.039	-2.85
253.175	1.15
253.312	12.15
253.448	-11.85
253.585	-32.85
253.721	3.15
253.857	-5.85
253.994	5.15
254.13	4.15
254.266	9.15
254.403	-0.85
254.539	13.15
254.675	3.15
254.811	-18.85
254.948	12.15
255.084	1.15
255.22	-7.85
255.356	-13.85
255.493	-9.85
255.629	-15.85
255.765	5.15
255.901	16.15
256.037	-6.85
256.174	14.15
256.31	-13.85
256.446	-7.85
256.582	-1.85
256.718	10.15
256.854	12.15
256.991	4.15
257.127	21.15
257.263	-2.85
257.399	-8.85
257.535	-15.85
257.671	-16.85
257.807	-23.85
257.943	-10.85
258.079	-6.85
258.215	4.15
258.351	17.15
258.487	17.15
258.623	21.15
258.759	14.15
258.895	-9.85
259.031	4.15
259.167	-4.85
259.303	21.15
259.439	-10.85
259.575	-4.85
259.711	0.15
259.847	-14.85
259.983	16.15
260.119	-16.85
260.255	-4.85
260.391	-3.85
260.527	-8.85
260.663	8.15
260.799	7.15
260.934	9.15
261.07	-5.85
261.206	-11.85
261.342	-0.85
261.478	25.15
261.614	22.15
261.749	6.15
261.885	8.15
262.021	-0.85
262.157	10.15
262.293	-8.85
262.428	-11.85
262.564	-13.85
262.7	18.15
262.836	-14.85
262.971	9.15
263.107	-3.85
263.243	8.15
263.378	-4.85
263.514	-9.85
263.65	-1.85
263.785	-7.85
263.921	-1.85
264.057	7.15
264.192	12.15
264.328	1.15
264.464	-9.85
264.599	-3.85
264.735	8.15
264.871	4.15
265.006	17.15
265.142	17.15
265.277	-7.85
265.413	17.15
265.548	15.15
265.684	8.15
265.819	-7.85
265.955	-4.85
266.091	-28.85
266.226	-11.85
266.362	-9.85
266.497	-7.85
266.633	-14.85
266.768	-4.85
266.903	4.15
267.039	-1.85
267.174	23.15
267.31	-9.85
267.445	1.15
267.581	-4.85
267.716	18.15
267.851	2.15
267.987	19.15
268.122	26.15
268.258	10.15
268.393	-6.85
268.528	-2.85
268.664	0.15
268.799	-10.85
268.934	8.15
269.07	-7.85
269.205	0.15
269.34	16.15
269.476	-1.85
269.611	-20.85
269.746	17.15
269.881	1.15
270.017	6.15
270.152	-5.85
270.287	9.15
270.422	-7.85
270.558	8.15
270.693	-1.85
270.828	3.15
270.963	-2.85
271.098	-17.85
271.234	-5.85
271.369	13.15
271.504	9.15
271.639	-8.85
271.774	7.15
271.909	-9.85
272.045	-6.85
272.18	12.15
272.315	-6.85
272.45	6.15
272.585	-6.85
272.72	1.15
272.855	-3.85
272.99	4.15
273.125	2.15
273.26	-7.85
273.395	7.15
273.53	6.15
273.665	9.15
273.8	4.15
273.935	-7.85
274.07	-8.85
274.205	-2.85
274.34	-19.85
274.475	-11.85
274.61	15.15
274.745	-10.85
274.88	15.15
275.015	-18.85
275.15	-4.85
275.285	14.15
275.42	-13.85
275.555	21.15
275.69	-2.85
275.825	-18.85
275.959	44.15
276.094	-24.85
276.229	-4.85
276.364	4.15
276.499	-4.85
276.634	-6.85
276.768	-1.85
276.903	6.15
277.038	-2.85
277.173	-15.85
277.308	-23.85
277.442	-22.85
277.577	-16.85
277.712	-9.85
277.847	-10.85
277.981	-10.85
278.116	-28.85
278.251	-18.85
278.386	-22.85
278.52	12.15
278.655	4.15
278.79	23.15
278.924	7.15
279.059	5.15
279.194	-9.85
279.328	36.15
279.463	-3.85
279.598	1.15
279.732	22.15
279.867	29.15
280.001	3.15
280.136	-9.85
280.271	12.15
280.405	13.15
280.54	-14.85
280.674	-13.85
280.809	21.15
280.943	-7.85
281.078	-14.85
281.213	20.15
281.347	-8.85
281.482	-6.85
281.616	-5.85
281.751	-8.85
281.885	-14.85
282.02	6.15
282.154	7.15
282.288	-14.85
282.423	-19.85
282.557	-11.85
282.692	13.15
282.826	6.15
282.961	23.15
283.095	6.15
283.229	-2.85
283.364	-16.85
283.498	2.15
283.633	2.15
283.767	10.15
283.901	-1.85
284.036	-15.85
284.17	-25.85
284.304	-17.85
284.439	4.15
284.573	10.15
284.707	29.15
284.842	-1.85
284.976	-7.85
285.11	-13.85
285.244	-6.85
285.379	33.15
285.513	5.15
285.647	5.15
285.781	4.15
285.916	23.15
286.05	-2.85
286.184	32.15
286.318	7.15
286.453	-4.85
286.587	-11.85
286.721	-24.85
286.855	12.15
286.989	28.15
287.123	-1.85
287.258	-2.85
287.392	-4.85
287.526	-0.85
287.66	6.15
287.794	-3.85
287.928	2.15
288.062	14.15
288.196	-14.85
288.33	-1.85
288.464	0.15
288.598	5.15
288.733	4.15
288.867	15.15
289.001	15.15
289.135	1.15
289.269	0.15
289.403	1.15
289.537	1.15
289.671	7.15
289.805	-19.85
289.939	0.15
290.073	1.15
290.207	26.15
290.34	7.15
290.474	29.15
290.608	27.15
290.742	-16.85
290.876	-5.85
291.01	-12.85
291.144	23.15
291.278	20.15
291.412	-2.85
291.546	-10.85
291.679	4.15
291.813	4.15
291.947	10.15
292.081	-3.85
292.215	-1.85
292.349	13.15
292.482	19.15
292.616	12.15
292.75	-0.85
292.884	0.15
293.018	5.15
293.151	-18.85
293.285	1.15
293.419	-13.85
293.553	-8.85
293.686	-4.85
293.82	8.15
293.954	24.15
294.088	23.15
294.221	-17.85
294.355	-22.85
294.489	8.15
294.622	-9.85
294.756	9.15
294.89	8.15
295.023	-3.85
295.157	-9.85
295.291	1.15
295.424	8.15
295.558	-1.85
295.691	-0.85
295.825	6.15
295.959	0.15
296.092	-0.85
296.226	-11.85
296.359	-11.85
296.493	14.15
296.627	5.15
296.76	2.15
296.894	-12.85
297.027	6.15
297.161	3.15
297.294	-4.85
297.428	29.15
297.561	16.15
297.695	-21.85
297.828	-10.85
297.962	-11.85
298.095	-3.85
298.229	-2.85
298.362	-0.85
298.495	-15.85
298.629	-14.85
298.762	4.15
298.896	2.15
299.029	-3.85
299.162	-1.85
299.296	-2.85
299.429	-0.85
299.563	2.15
299.696	1.15
299.829	12.15
299.963	15.15
300.096	4.15
300.229	-7.85
300.363	14.15
300.496	28.15
300.629	-2.85
300.763	11.15
300.896	-8.85
301.029	-14.85
301.162	4.15
301.296	-17.85
301.429	-5.85
301.562	-19.85
301.695	3.15
301.829	10.15
301.962	8.15
302.095	5.15
302.228	-20.85
302.362	2.15
302.495	-16.85
302.628	3.15
302.761	-9.85
302.894	8.15
303.027	-3.85
303.161	1.15
303.294	-8.85
303.427	10.15
303.56	0.15
303.693	-7.85
303.826	-11.85
303.959	3.15
304.092	-8.85
304.225	-1.85
304.359	14.15
304.492	6.15
304.625	1.15
304.758	-6.85
304.891	-25.85
305.024	-9.85
305.157	-12.85
305.29	-12.85
305.423	8.15
305.556	6.15
305.689	-2.85
305.822	0.15
305.955	-3.85
306.088	-0.85
306.221	-15.85
306.354	-11.85
306.487	-15.85
306.62	-9.85
306.752	-6.85
306.885	11.15
307.018	0.15
307.151	2.15
307.284	3.15
307.417	-6.85
307.55	16.15
307.683	5.15
307.816	23.15
307.948	19.15
308.081	4.15
308.214	16.15
308.347	-2.85
308.48	-29.85
308.613	-7.85
308.745	-1.85
308.878	-5.85
309.011	3.15
309.144	9.15
309.277	-11.85
309.409	-0.85
309.542	7.15
309.675	3.15
309.808	1.15
309.94	8.15
310.073	-8.85
310.206	-8.85
310.339	8.15
310.471	-11.85
310.604	12.15
310.737	10.15
310.869	-11.85
311.002	1.15
311.135	-5.85
311.267	-23.85
311.4	0.15
311.533	10.15
311.665	-0.85
311.798	5.15
311.93	1.15
312.063	14.15
312.196	36.15
312.328	58.15
312.461	46.15
312.593	26.15
312.726	52.15
312.859	89.15
312.991	162.15
313.124	45.15
313.256	12.15
313.389	2.15
313.521	-17.85
313.654	-9.85
313.786	-9.85
313.919	-26.85
314.051	-10.85
314.184	5.15
314.316	19.15
314.449	-35.85
314.581	-6.85
314.714	-10.85
314.846	-4.85
314.978	-23.85
315.111	-16.85
315.243	7.15
315.376	10.15
315.508	3.15
315.641	-17.85
315.773	11.15
315.905	-6.85
316.038	-10.85
316.17	-4.85
316.302	-5.85
316.435	5.15
316.567	-1.85
316.699	21.15
316.832	-5.85
316.964	8.15
317.096	-9.85
317.229	-6.85
317.361	-19.85
317.493	-10.85
317.625	-22.85
317.758	2.15
317.89	19.15
318.022	4.15
318.155	-14.85
318.287	8.15
318.419	-1.85
318.551	-3.85
318.683	-4.85
318.816	-11.85
318.948	-7.85
319.08	-11.85
319.212	-4.85
319.344	2.15
319.477	-11.85
319.609	15.15
319.741	2.15
319.873	8.15
320.005	13.15
320.137	3.15
320.269	1.15
320.401	14.15
320.534	3.15
320.666	-24.85
320.798	-21.85
320.93	-10.85
321.062	-5.85
321.194	-5.85
321.326	8.15
321.458	6.15
321.59	-12.85
321.722	-10.85
321.854	2.15
321.986	-7.85
322.118	14.15
322.25	-29.85
322.382	-14.85
322.514	-13.85
322.646	-12.85
322.778	6.15
322.91	16.15
323.042	27.15
323.174	6.15
323.306	-35.85
323.438	-33.85
323.57	8.15
323.702	0.15
323.834	12.15
323.966	-18.85
324.097	-2.85
324.229	1.15
324.361	9.15
324.493	15.15
324.625	-9.85
324.757	-13.85
324.889	-17.85
325.021	-8.85
325.152	8.15
325.284	10.15
325.416	-3.85
325.548	0.15
325.68	0.15
325.811	17.15
325.943	25.15
326.075	2.15
326.207	-1.85
326.339	13.15
326.47	16.15
326.602	-15.85
326.734	6.15
326.866	15.15
326.997	-18.85
327.129	-13.85
327.261	-21.85
327.392	-14.85
327.524	3.15
327.656	-11.85
327.787	-14.85
327.919	8.15
328.051	5.15
328.182	18.15
328.314	15.15
328.446	27.15
328.577	19.15
328.709	-3.85
328.841	-12.85
328.972	-0.85
329.104	-2.85
329.235	8.15
329.367	11.15
329.499	-0.85
329.63	25.15
329.762	-7.85
329.893	13.15
330.025	-17.85
330.156	-23.85
330.288	14.15
330.419	10.15
330.551	-5.85
330.683	21.15
330.814	-3.85
330.946	4.15
331.077	13.15
331.208	-10.85
331.34	-15.85
331.471	-1.85
331.603	-4.85
331.734	-2.85
331.866	-5.85
331.997	-3.85
332.129	17.15
332.26	18.15
332.392	30.15
332.523	2.15
332.654	-25.85
332.786	-8.85
332.917	-14.85
333.048	17.15
333.18	27.15
333.311	18.15
333.443	8.15
333.574	21.15
333.705	31.15
333.837	36.15
333.968	128.15
334.099	244.15
334.231	205.15
334.362	54.15
334.493	25.15
334.624	25.15
334.756	15.15
334.887	18.15
335.018	5.15
335.15	11.15
335.281	3.15
335.412	18.15
335.543	10.15
335.675	0.15
335.806	2.15
335.937	3.15
336.068	11.15
336.199	39.15
336.331	1.15
336.462	6.15
336.593	4.15
336.724	0.15
336.855	12.15
336.986	31.15
337.118	5.15
337.249	13.15
337.38	-1.85
337.511	2.15
337.642	17.15
337.773	14.15
337.904	8.15
338.035	9.15
338.166	10.15
338.298	5.15
338.429	-13.85
338.56	22.15
338.691	15.15
338.822	4.15
338.953	6.15
339.084	25.15
339.215	19.15
339.346	10.15
339.477	13.15
339.608	7.15
339.739	9.15
339.87	0.15
340.001	4.15
340.132	21.15
340.263	1.15
340.394	13.15
340.525	2.15
340.656	11.15
340.787	-13.85
340.918	25.15
341.049	12.15
341.179	11.15
341.31	9.15
341.441	9.15
341.572	20.15
341.703	-6.85
341.834	-4.85
341.965	8.15
342.096	-11.85
342.227	16.15
342.357	1.15
342.488	18.15
342.619	16.15
342.75	2.15
342.881	-1.85
343.012	20.15
343.142	32.15
343.273	22.15
343.404	14.15
343.535	34.15
343.666	27.15
343.796	30.15
343.927	40.15
344.058	42.15
344.189	40.15
344.319	38.15
344.45	41.15
344.581	25.15
344.712	16.15
344.842	13.15
344.973	18.15
345.104	26.15
345.234	9.15
345.365	4.15
345.496	39.15
345.626	21.15
345.757	40.15
345.888	5.15
346.018	26.15
346.149	26.15
346.28	40.15
346.41	26.15
346.541	28.15
346.672	13.15
346.802	27.15
346.933	20.15
347.063	19.15
347.194	18.15
347.325	32.15
347.455	47.15
347.586	28.15
347.716	12.15
347.847	46.15
347.977	45.15
348.108	26.15
348.238	42.15
348.369	40.15
348.499	24.15
348.63	34.15
348.76	50.15
348.891	34.15
349.021	50.15
349.152	56.15
349.282	56.15
349.413	35.15
349.543	51.15
349.674	46.15
349.804	43.15
349.935	21.15
350.065	34.15
350.196	22.15
350.326	29.15
350.456	11.15
350.587	50.15
350.717	13.15
350.848	17.15
350.978	30.15
351.108	12.15
351.239	22.15
351.369	16.15
351.499	14.15
351.63	10.15
351.76	7.15
351.89	-2.85
352.021	19.15
352.151	-9.85
352.281	22.15
352.412	26.15
352.542	25.15
352.672	12.15
352.803	21.15
352.933	35.15
353.063	13.15
353.193	7.15
353.324	-2.85
353.454	21.15
353.584	36.15
353.714	9.15
353.845	19.15
353.975	14.15
354.105	15.15
354.235	24.15
354.365	5.15
354.496	18.15
354.626	19.15
354.756	11.15
354.886	0.15
355.016	14.15
355.146	5.15
355.277	6.15
355.407	16.15
355.537	9.15
355.667	27.15
355.797	45.15
355.927	22.15
356.057	22.15
356.187	19.15
356.318	14.15
356.448	25.15
356.578	29.15
356.708	38.15
356.838	20.15
356.968	30.15
357.098	40.15
357.228	45.15
357.358	20.15
357.488	21.15
357.618	50.15
357.748	23.15
357.878	18.15
358.008	26.15
358.138	18.15
358.268	17.15
358.398	39.15
358.528	23.15
358.658	18.15
358.788	12.15
358.918	36.15
359.048	22.15
359.178	21.15
359.308	22.15
359.438	39.15
359.568	38.15
359.698	37.15
359.827	27.15
359.957	43.15
360.087	24.15
360.217	10.15
360.347	38.15
360.477	41.15
360.607	23.15
360.737	22.15
360.866	18.15
360.996	24.15
361.126	-4.85
361.256	67.15
361.386	44.15
361.516	30.15
361.645	13.15
361.775	19.15
361.905	5.15
362.035	11.15
362.165	29.15
362.294	48.15
362.424	56.15
362.554	34.15
362.684	35.15
362.813	37.15
362.943	66.15
363.073	43.15
363.203	66.15
363.332	75.15
363.462	64.15
363.592	90.15
363.721	117.15
363.851	160.15
363.981	220.15
364.111	245.15
364.24	312.15
364.37	485.15
364.5	864.15
364.629	1804.15
364.759	3794.15
364.888	6280.15
365.018	9374.15
365.148	14781.15
365.277	12926.15
365.407	4744.15
365.537	3082.15
365.666	4029.15
365.796	1825.15
365.925	784.15
366.055	776.15
366.184	987.15
366.314	1367.15
366.444	2451.15
366.573	2121.15
366.703	648.15
366.832	218.15
366.962	129.15
367.091	90.15
367.221	60.15
367.35	44.15
367.48	88.15
367.609	46.15
367.739	60.15
367.868	29.15
367.998	43.15
368.127	43.15
368.257	44.15
368.386	56.15
368.516	56.15
368.645	40.15
368.775	55.15
368.904	31.15
369.033	30.15
369.163	30.15
369.292	25.15
369.422	31.15
369.551	48.15
369.68	34.15
369.81	30.15
369.939	29.15
370.069	54.15
370.198	31.15
370.327	41.15
370.457	25.15
370.586	43.15
370.715	30.15
370.845	20.15
370.974	22.15
371.103	50.15
371.233	56.15
371.362	26.15
371.491	30.15
371.621	51.15
371.75	33.15
371.879	46.15
372.008	41.15
372.138	34.15
372.267	61.15
372.396	47.15
372.525	25.15
372.655	32.15
372.784	28.15
372.913	40.15
373.042	17.15
373.172	28.15
373.301	-11.85
373.43	-3.85
373.559	23.15
373.688	14.15
373.818	35.15
373.947	21.15
374.076	7.15
374.205	21.15
374.334	33.15
374.463	28.15
374.593	21.15
374.722	32.15
374.851	33.15
374.98	14.15
375.109	16.15
375.238	30.15
375.367	29.15
375.496	6.15
375.625	9.15
375.755	28.15
375.884	30.15
376.013	24.15
376.142	6.15
376.271	23.15
376.4	17.15
376.529	33.15
376.658	17.15
376.787	13.15
376.916	17.15
377.045	9.15
377.174	26.15
377.303	28.15
377.432	18.15
377.561	31.15
377.69	37.15
377.819	25.15
377.948	10.15
378.077	0.15
378.206	14.15
378.335	18.15
378.464	-1.85
378.593	38.15
378.722	5.15
378.851	3.15
378.98	25.15
379.108	-6.85
379.237	-10.85
379.366	21.15
379.495	30.15
379.624	31.15
379.753	10.15
379.882	8.15
380.011	7.15
380.14	11.15
380.268	15.15
380.397	12.15
380.526	36.15
380.655	10.15
380.784	9.15
380.913	8.15
381.041	14.15
381.17	-16.85
381.299	10.15
381.428	22.15
381.557	16.15
381.685	11.15
381.814	19.15
381.943	5.15
382.072	5.15
382.2	9.15
382.329	13.15
382.458	3.15
382.587	16.15
382.715	42.15
382.844	28.15
382.973	21.15
383.102	16.15
383.23	14.15
383.359	13.15
383.488	24.15
383.616	11.15
383.745	8.15
383.874	19.15
384.003	24.15
384.131	14.15
384.26	10.15
384.389	12.15
384.517	3.15
384.646	6.15
384.774	18.15
384.903	35.15
385.032	19.15
385.16	20.15
385.289	21.15
385.418	-12.85
385.546	3.15
385.675	16.15
385.803	25.15
385.932	14.15
386.06	10.15
386.189	29.15
386.318	15.15
386.446	12.15
386.575	20.15
386.703	21.15
386.832	15.15
386.96	0.15
387.089	26.15
387.217	20.15
387.346	9.15
387.474	15.15
387.603	-1.85
387.731	17.15
387.86	17.15
387.988	28.15
388.117	30.15
388.245	13.15
388.374	9.15
388.502	20.15
388.631	17.15
388.759	-8.85
388.888	13.15
389.016	-2.85
389.144	7.15
389.273	10.15
389.401	3.15
389.53	20.15
389.658	37.15
389.786	-5.85
389.915	6.15
390.043	22.15
390.172	25.15
390.3	39.15
390.428	42.15
390.557	17.15
390.685	37.15
390.813	38.15
390.942	27.15
391.07	26.15
391.198	20.15
391.327	3.15
391.455	-4.85
391.583	23.15
391.712	20.15
391.84	28.15
391.968	11.15
392.096	30.15
392.225	17.15
392.353	10.15
392.481	21.15
392.609	32.15
392.738	22.15
392.866	36.15
392.994	18.15
393.122	41.15
393.251	33.15
393.379	16.15
393.507	-2.85
393.635	-0.85
393.764	13.15
393.892	42.15
394.02	35.15
394.148	18.15
394.276	22.15
394.404	42.15
394.533	32.15
394.661	22.15
394.789	29.15
394.917	37.15
395.045	8.15
395.173	16.15
395.302	29.15
395.43	9.15
395.558	35.15
395.686	21.15
395.814	38.15
395.942	4.15
396.07	29.15
396.198	51.15
396.326	20.15
396.454	35.15
396.582	37.15
396.711	34.15
396.839	41.15
396.967	17.15
397.095	11.15
397.223	14.15
397.351	51.15
397.479	55.15
397.607	24.15
397.735	45.15
397.863	51.15
397.991	36.15
398.119	29.15
398.247	33.15
398.375	47.15
398.503	35.15
398.631	45.15
398.759	40.15
398.887	46.15
399.015	39.15
399.143	49.15
399.271	59.15
399.399	44.15
399.526	66.15
399.654	72.15
399.782	51.15
399.91	93.15
400.038	108.15
400.166	83.15
400.294	85.15
400.422	75.15
400.55	98.15
400.678	108.15
400.805	110.15
400.933	125.15
401.061	109.15
401.189	108.15
401.317	132.15
401.445	97.15
401.573	73.15
401.7	59.15
401.828	44.15
401.956	45.15
402.084	45.15
402.212	11.15
402.34	24.15
402.467	35.15
402.595	36.15
402.723	32.15
402.851	58.15
402.978	47.15
403.106	71.15
403.234	76.15
403.362	105.15
403.489	130.15
403.617	154.15
403.745	189.15
403.873	287.15
404	547.15
404.128	1441.15
404.256	3916.15
404.384	5117.15
404.511	5455.15
404.639	7162.15
404.767	11340.15
404.894	14562.15
405.022	4889.15
405.15	1265.15
405.277	435.15
405.405	212.15
405.533	117.15
405.66	107.15
405.788	58.15
405.916	39.15
406.043	41.15
406.171	54.15
406.299	48.15
406.426	65.15
406.554	49.15
406.681	85.15
406.809	48.15
406.937	49.15
407.064	74.15
407.192	137.15
407.319	291.15
407.447	512.15
407.574	520.15
407.702	629.15
407.83	832.15
407.957	1569.15
408.085	938.15
408.212	287.15
408.34	91.15
408.467	42.15
408.595	40.15
408.722	52.15
408.85	42.15
408.977	28.15
409.105	31.15
409.232	22.15
409.36	11.15
409.487	24.15
409.615	33.15
409.742	34.15
409.87	23.15
409.997	38.15
410.125	34.15
410.252	41.15
410.379	20.15
410.507	35.15
410.634	29.15
410.762	16.15
410.889	29.15
411.017	28.15
411.144	48.15
411.271	22.15
411.399	10.15
411.526	16.15
411.653	21.15
411.781	32.15
411.908	26.15
412.036	5.15
412.163	35.15
412.29	20.15
412.418	22.15
412.545	38.15
412.672	15.15
412.8	51.15
412.927	39.15
413.054	50.15
413.182	26.15
413.309	26.15
413.436	20.15
413.564	27.15
413.691	27.15
413.818	23.15
413.945	19.15
414.073	41.15
414.2	27.15
414.327	47.15
414.454	44.15
414.582	38.15
414.709	23.15
414.836	22.15
414.963	19.15
415.091	34.15
415.218	19.15
415.345	27.15
415.472	16.15
415.6	20.15
415.727	26.15
415.854	27.15
415.981	19.15
416.108	20.15
416.236	25.15
416.363	38.15
416.49	29.15
416.617	30.15
416.744	39.15
416.871	39.15
416.998	25.15
417.126	18.15
417.253	15.15
417.38	23.15
417.507	31.15
417.634	25.15
417.761	40.15
417.888	37.15
418.015	36.15
418.143	49.15
418.27	55.15
418.397	14.15
418.524	21.15
418.651	23.15
418.778	37.15
418.905	54.15
419.032	35.15
419.159	22.15
419.286	66.15
419.413	50.15
419.54	50.15
419.667	34.15
419.794	29.15
419.921	54.15
420.048	45.15
420.175	44.15
420.302	57.15
420.429	53.15
420.556	64.15
420.683	22.15
420.81	47.15
420.937	62.15
421.064	82.15
421.191	52.15
421.318	72.15
421.445	74.15
421.572	59.15
421.699	65.15
421.826	46.15
421.953	26.15
422.08	8.15
422.207	-0.85
422.334	-2.85
422.461	48.15
422.588	18.15
422.714	24.15
422.841	33.15
422.968	34.15
423.095	13.15
423.222	14.15
423.349	20.15
423.476	23.15
423.603	15.15
423.729	1.15
423.856	15.15
423.983	28.15
424.11	12.15
424.237	26.15
424.364	29.15
424.491	27.15
424.617	3.15
424.744	12.15
424.871	10.15
424.998	22.15
425.125	4.15
425.251	22.15
425.378	11.15
425.505	11.15
425.632	26.15
425.758	8.15
425.885	25.15
426.012	28.15
426.139	26.15
426.266	28.15
426.392	21.15
426.519	34.15
426.646	3.15
426.772	17.15
426.899	11.15
427.026	18.15
427.153	41.15
427.279	33.15
427.406	25.15
427.533	4.15
427.659	7.15
427.786	23.15
427.913	33.15
428.039	22.15
428.166	17.15
428.293	20.15
428.419	30.15
428.546	27.15
428.673	10.15
428.799	9.15
428.926	16.15
429.053	26.15
429.179	20.15
429.306	31.15
429.433	49.15
429.559	32.15
429.686	28.15
429.812	23.15
429.939	13.15
430.066	8.15
430.192	5.15
430.319	39.15
430.445	36.15
430.572	28.15
430.699	28.15
430.825	23.15
430.952	3.15
431.078	24.15
431.205	29.15
431.331	25.15
431.458	36.15
431.584	30.15
431.711	4.15
431.837	38.15
431.964	28.15
432.09	19.15
432.217	12.15
432.343	6.15
432.47	19.15
432.596	21.15
432.723	22.15
432.849	19.15
432.976	42.15
433.102	47.15
433.229	28.15
433.355	59.15
433.482	84.15
433.608	99.15
433.735	108.15
433.861	98.15
433.987	152.15
434.114	194.15
434.24	169.15
434.367	214.15
434.493	230.15
434.62	268.15
434.746	390.15
434.872	640.15
434.999	840.15
435.125	1708.15
435.252	5533.15
435.378	13360.15
435.504	15189.15
435.631	15394.15
435.757	15679.15
435.883	15679.15
436.01	15679.15
436.136	15679.15
436.262	15679.15
436.389	3452.15
436.515	2020.15
436.641	770.15
436.768	610.15
436.894	373.15
437.02	397.15
437.147	283.15
437.273	306.15
437.399	222.15
437.526	240.15
437.652	164.15
437.778	193.15
437.904	154.15
438.031	161.15
438.157	136.15
438.283	139.15
438.409	105.15
438.536	123.15
438.662	129.15
438.788	114.15
438.914	121.15
439.041	122.15
439.167	121.15
439.293	111.15
439.419	101.15
439.546	96.15
439.672	70.15
439.798	74.15
439.924	86.15
440.05	89.15
440.177	83.15
440.303	62.15
440.429	55.15
440.555	77.15
440.681	56.15
440.807	72.15
440.934	59.15
441.06	86.15
441.186	46.15
441.312	54.15
441.438	64.15
441.564	73.15
441.69	60.15
441.816	65.15
441.943	42.15
442.069	54.15
442.195	44.15
442.321	79.15
442.447	49.15
442.573	61.15
442.699	41.15
442.825	42.15
442.951	48.15
443.077	64.15
443.203	52.15
443.33	31.15
443.456	23.15
443.582	43.15
443.708	17.15
443.834	49.15
443.96	28.15
444.086	41.15
444.212	39.15
444.338	37.15
444.464	54.15
444.59	52.15
444.716	39.15
444.842	44.15
444.968	38.15
445.094	60.15
445.22	18.15
445.346	29.15
445.472	35.15
445.598	29.15
445.724	23.15
445.85	38.15
445.976	31.15
446.102	30.15
446.228	46.15
446.354	34.15
446.48	21.15
446.605	50.15
446.731	37.15
446.857	30.15
446.983	13.15
447.109	23.15
447.235	35.15
447.361	22.15
447.487	26.15
447.613	10.15
447.739	17.15
447.865	9.15
447.99	11.15
448.116	24.15
448.242	35.15
448.368	28.15
448.494	32.15
448.62	19.15
448.746	25.15
448.872	30.15
448.997	11.15
449.123	18.15
449.249	29.15
449.375	43.15
449.501	21.15
449.627	9.15
449.752	40.15
449.878	18.15
450.004	9.15
450.13	43.15
450.256	27.15
450.381	12.15
450.507	26.15
450.633	34.15
450.759	28.15
450.884	8.15
451.01	18.15
451.136	37.15
451.262	43.15
451.388	42.15
451.513	14.15
451.639	25.15
451.765	42.15
451.89	36.15
452.016	23.15
452.142	4.15
452.268	12.15
452.393	24.15
452.519	4.15
452.645	30.15
452.771	25.15
452.896	26.15
453.022	19.15
453.148	32.15
453.273	18.15
453.399	28.15
453.525	12.15
453.65	8.15
453.776	41.15
453.902	42.15
454.027	39.15
454.153	30.15
454.279	38.15
454.404	24.15
454.53	33.15
454.656	37.15
454.781	28.15
454.907	25.15
455.032	12.15
455.158	30.15
455.284	36.15
455.409	26.15
455.535	16.15
455.66	18.15
455.786	26.15
455.912	30.15
456.037	20.15
456.163	35.15
456.288	28.15
456.414	-6.85
456.539	6.15
456.665	38.15
456.791	29.15
456.916	16.15
457.042	13.15
457.167	-6.85
457.293	19.15
457.418	25.15
457.544	5.15
457.669	12.15
457.795	26.15
457.92	28.15
458.046	23.15
458.171	30.15
458.297	6.15
458.422	6.15
458.548	13.15
458.673	27.15
458.799	31.15
458.924	18.15
459.05	23.15
459.175	21.15
459.301	27.15
459.426	30.15
459.552	10.15
459.677	25.15
459.803	39.15
459.928	30.15
460.053	17.15
460.179	35.15
460.304	22.15
460.43	20.15
460.555	29.15
460.681	21.15
460.806	22.15
460.931	19.15
461.057	12.15
461.182	27.15
461.308	32.15
461.433	36.15
461.558	14.15
461.684	35.15
461.809	45.15
461.934	17.15
462.06	27.15
462.185	11.15
462.311	26.15
462.436	35.15
462.561	19.15
462.687	37.15
462.812	34.15
462.937	9.15
463.063	14.15
463.188	12.15
463.313	19.15
463.439	31.15
463.564	29.15
463.689	20.15
463.814	42.15
463.94	11.15
464.065	31.15
464.19	52.15
464.316	16.15
464.441	13.15
464.566	15.15
464.692	33.15
464.817	27.15
464.942	4.15
465.067	31.15
465.193	21.15
465.318	17.15
465.443	18.15
465.568	23.15
465.694	9.15
465.819	36.15
465.944	36.15
466.069	37.15
466.194	42.15
466.32	36.15
466.445	23.15
466.57	18.15
466.695	11.15
466.82	37.15
466.946	23.15
467.071	24.15
467.196	31.15
467.321	32.15
467.446	29.15
467.572	38.15
467.697	21.15
467.822	35.15
467.947	44.15
468.072	20.15
468.197	19.15
468.323	13.15
468.448	29.15
468.573	28.15
468.698	24.15
468.823	33.15
468.948	30.15
469.073	15.15
469.198	23.15
469.324	45.15
469.449	28.15
469.574	45.15
469.699	47.15
469.824	43.15
469.949	22.15
470.074	16.15
470.199	48.15
470.324	46.15
470.449	34.15
470.574	6.15
470.7	25.15
470.825	48.15
470.95	48.15
471.075	18.15
471.2	17.15
471.325	33.15
471.45	40.15
471.575	17.15
471.7	19.15
471.825	25.15
471.95	32.15
472.075	26.15
472.2	20.15
472.325	32.15
472.45	7.15
472.575	19.15
472.7	26.15
472.825	38.15
472.95	41.15
473.075	49.15
473.2	33.15
473.325	42.15
473.45	44.15
473.575	28.15
473.7	34.15
473.825	22.15
473.95	32.15
474.075	47.15
474.2	14.15
474.325	-4.85
474.45	16.15
474.574	8.15
474.699	24.15
474.824	32.15
474.949	16.15
475.074	-11.85
475.199	11.15
475.324	22.15
475.449	10.15
475.574	34.15
475.699	28.15
475.824	0.15
475.949	16.15
476.073	5.15
476.198	20.15
476.323	26.15
476.448	29.15
476.573	11.15
476.698	21.15
476.823	6.15
476.947	26.15
477.072	15.15
477.197	21.15
477.322	19.15
477.447	0.15
477.572	18.15
477.697	26.15
477.821	25.15
477.946	32.15
478.071	41.15
478.196	23.15
478.321	33.15
478.445	23.15
478.57	6.15
478.695	4.15
478.82	6.15
478.945	8.15
479.069	16.15
479.194	-5.85
479.319	23.15
479.444	10.15
479.569	28.15
479.693	30.15
479.818	18.15
479.943	17.15
480.068	13.15
480.192	12.15
480.317	12.15
480.442	9.15
480.567	14.15
480.691	9.15
480.816	16.15
480.941	8.15
481.066	13.15
481.19	17.15
481.315	14.15
481.44	11.15
481.564	-12.85
481.689	8.15
481.814	25.15
481.938	7.15
482.063	0.15
482.188	9.15
482.313	42.15
482.437	-0.85
482.562	10.15
482.687	17.15
482.811	20.15
482.936	24.15
483.061	19.15
483.185	17.15
483.31	33.15
483.435	17.15
483.559	21.15
483.684	17.15
483.808	34.15
483.933	22.15
484.058	29.15
484.182	23.15
484.307	20.15
484.432	6.15
484.556	26.15
484.681	15.15
484.805	24.15
484.93	12.15
485.055	29.15
485.179	42.15
485.304	25.15
485.428	10.15
485.553	12.15
485.678	10.15
485.802	21.15
485.927	29.15
486.051	18.15
486.176	0.15
486.3	13.15
486.425	28.15
486.549	28.15
486.674	44.15
486.799	25.15
486.923	20.15
487.048	17.15
487.172	-2.85
487.297	26.15
487.421	15.15
487.546	18.15
487.67	23.15
487.795	2.15
487.919	12.15
488.044	22.15
488.168	16.15
488.293	21.15
488.417	4.15
488.542	16.15
488.666	7.15
488.791	8.15
488.915	22.15
489.04	20.15
489.164	25.15
489.289	29.15
489.413	1.15
489.538	23.15
489.662	29.15
489.786	21.15
489.911	22.15
490.035	13.15
490.16	16.15
490.284	17.15
490.409	2.15
490.533	10.15
490.658	42.15
490.782	31.15
490.906	30.15
491.031	83.15
491.155	139.15
491.28	148.15
491.404	165.15
491.528	247.15
491.653	155.15
491.777	60.15
491.902	24.15
492.026	41.15
492.15	24.15
492.275	37.15
492.399	10.15
492.524	22.15
492.648	41.15
492.772	41.15
492.897	22.15
493.021	8.15
493.145	34.15
493.27	26.15
493.394	24.15
493.518	14.15
493.643	9.15
493.767	27.15
493.891	-3.85
494.016	2.15
494.14	2.15
494.264	37.15
494.389	40.15
494.513	9.15
494.637	19.15
494.762	22.15
494.886	20.15
495.01	35.15
495.134	15.15
495.259	38.15
495.383	9.15
495.507	25.15
495.632	43.15
495.756	36.15
495.88	36.15
496.004	15.15
496.129	28.15
496.253	34.15
496.377	14.15
496.501	17.15
496.626	2.15
496.75	14.15
496.874	16.15
496.998	16.15
497.123	37.15
497.247	1.15
497.371	17.15
497.495	26.15
497.62	18.15
497.744	2.15
497.868	23.15
497.992	9.15
498.116	18.15
498.241	30.15
498.365	13.15
498.489	15.15
498.613	40.15
498.737	24.15
498.862	3.15
498.986	7.15
499.11	6.15
499.234	9.15
499.358	6.15
499.482	5.15
499.607	32.15
499.731	24.15
499.855	26.15
499.979	23.15
500.103	12.15
500.227	18.15
500.351	14.15
500.476	18.15
500.6	9.15
500.724	17.15
500.848	12.15
500.972	2.15
501.096	18.15
501.22	20.15
501.344	19.15
501.469	13.15
501.593	23.15
501.717	12.15
501.841	28.15
501.965	12.15
502.089	21.15
502.213	13.15
502.337	32.15
502.461	26.15
502.585	22.15
502.709	27.15
502.834	29.15
502.958	4.15
503.082	5.15
503.206	11.15
503.33	19.15
503.454	27.15
503.578	28.15
503.702	43.15
503.826	34.15
503.95	32.15
504.074	-1.85
504.198	14.15
504.322	0.15
504.446	4.15
504.57	30.15
504.694	10.15
504.818	33.15
504.942	48.15
505.066	14.15
505.19	10.15
505.314	9.15
505.438	15.15
505.562	6.15
505.686	41.15
505.81	10.15
505.934	24.15
506.058	37.15
506.182	22.15
506.306	25.15
506.43	9.15
506.554	17.15
506.678	12.15
506.802	22.15
506.926	32.15
507.05	38.15
507.174	32.15
507.298	28.15
507.422	8.15
507.546	1.15
507.67	33.15
507.794	-8.85
507.918	12.15
508.042	24.15
508.165	29.15
508.289	17.15
508.413	36.15
508.537	18.15
508.661	34.15
508.785	5.15
508.909	20.15
509.033	41.15
509.157	35.15
509.281	26.15
509.405	22.15
509.528	31.15
509.652	24.15
509.776	27.15
509.9	42.15
510.024	38.15
510.148	44.15
510.272	44.15
510.396	38.15
510.519	25.15
510.643	51.15
510.767	41.15
510.891	31.15
511.015	33.15
511.139	32.15
511.263	58.15
511.386	24.15
511.51	31.15
511.634	46.15
511.758	55.15
511.882	17.15
512.006	33.15
512.129	50.15
512.253	91.15
512.377	82.15
512.501	71.15
512.625	94.15
512.748	88.15
512.872	70.15
512.996	57.15
513.12	47.15
513.244	49.15
513.367	78.15
513.491	56.15
513.615	61.15
513.739	59.15
513.862	60.15
513.986	84.15
514.11	89.15
514.234	75.15
514.358	97.15
514.481	121.15
514.605	72.15
514.729	89.15
514.853	118.15
514.976	89.15
515.1	81.15
515.224	100.15
515.348	75.15
515.471	61.15
515.595	106.15
515.719	108.15
515.842	213.15
515.966	257.15
516.09	305.15
516.214	295.15
516.337	327.15
516.461	209.15
516.585	88.15
516.708	40.15
516.832	19.15
516.956	24.15
517.08	17.15
517.203	1.15
517.327	30.15
517.451	34.15
517.574	33.15
517.698	30.15
517.822	13.15
517.945	30.15
518.069	29.15
518.193	60.15
518.316	37.15
518.44	20.15
518.564	-5.85
518.687	9.15
518.811	13.15
518.935	38.15
519.058	19.15
519.182	26.15
519.306	9.15
519.429	25.15
519.553	43.15
519.676	31.15
519.8	21.15
519.924	10.15
520.047	2.15
520.171	6.15
520.294	20.15
520.418	25.15
520.542	8.15
520.665	27.15
520.789	16.15
520.913	14.15
521.036	-14.85
521.16	-4.85
521.283	24.15
521.407	8.15
521.53	-5.85
521.654	-9.85
521.778	4.15
521.901	14.15
522.025	14.15
522.148	2.15
522.272	13.15
522.395	14.15
522.519	1.15
522.643	10.15
522.766	1.15
522.89	14.15
523.013	19.15
523.137	-6.85
523.26	-9.85
523.384	17.15
523.507	0.15
523.631	-0.85
523.754	-3.85
523.878	21.15
524.002	22.15
524.125	18.15
524.249	-7.85
524.372	9.15
524.496	22.15
524.619	14.15
524.743	10.15
524.866	21.15
524.99	0.15
525.113	6.15
525.237	22.15
525.36	24.15
525.484	24.15
525.607	20.15
525.731	0.15
525.854	16.15
525.978	32.15
526.101	18.15
526.224	-2.85
526.348	17.15
526.471	-1.85
526.595	13.15
526.718	4.15
526.842	29.15
526.965	35.15
527.089	6.15
527.212	10.15
527.336	7.15
527.459	11.15
527.582	17.15
527.706	24.15
527.829	19.15
527.953	26.15
528.076	11.15
528.2	2.15
528.323	17.15
528.446	23.15
528.57	34.15
528.693	30.15
528.817	24.15
528.94	15.15
529.064	42.15
529.187	11.15
529.31	4.15
529.434	-1.85
529.557	11.15
529.68	26.15
529.804	19.15
529.927	32.15
530.051	16.15
530.174	3.15
530.297	14.15
530.421	28.15
530.544	27.15
530.668	20.15
530.791	19.15
530.914	20.15
531.038	11.15
531.161	16.15
531.284	7.15
531.408	32.15
531.531	6.15
531.654	5.15
531.778	16.15
531.901	5.15
532.024	23.15
532.148	13.15
532.271	6.15
532.394	17.15
532.518	10.15
532.641	8.15
532.764	23.15
532.888	25.15
533.011	-7.85
533.134	9.15
533.258	43.15
533.381	26.15
533.504	35.15
533.628	6.15
533.751	40.15
533.874	4.15
533.997	33.15
534.121	4.15
534.244	7.15
534.367	5.15
534.491	1.15
534.614	19.15
534.737	15.15
534.86	1.15
534.984	14.15
535.107	6.15
535.23	35.15
535.354	3.15
535.477	3.15
535.6	6.15
535.723	17.15
535.847	12.15
535.97	5.15
536.093	10.15
536.216	-5.85
536.34	18.15
536.463	12.15
536.586	0.15
536.709	13.15
536.833	17.15
536.956	27.15
537.079	32.15
537.202	20.15
537.325	17.15
537.449	14.15
537.572	18.15
537.695	6.15
537.818	20.15
537.941	22.15
538.065	25.15
538.188	22.15
538.311	27.15
538.434	32.15
538.558	30.15
538.681	40.15
538.804	21.15
538.927	40.15
539.05	27.15
539.173	14.15
539.297	-1.85
539.42	14.15
539.543	23.15
539.666	44.15
539.789	25.15
539.913	24.15
540.036	34.15
540.159	31.15
540.282	0.15
540.405	3.15
540.528	20.15
540.651	24.15
540.775	12.15
540.898	21.15
541.021	25.15
541.144	24.15
541.267	20.15
541.39	12.15
541.513	35.15
541.637	-0.85
541.76	28.15
541.883	28.15
542.006	28.15
542.129	48.15
542.252	29.15
542.375	41.15
542.498	44.15
542.622	39.15
542.745	40.15
542.868	15.15
542.991	54.15
543.114	43.15
543.237	56.15
543.36	75.15
543.483	56.15
543.606	70.15
543.73	77.15
543.853	65.15
543.976	78.15
544.099	109.15
544.222	102.15
544.345	136.15
544.468	164.15
544.591	196.15
544.714	266.15
544.837	352.15
544.96	462.15
545.083	676.15
545.206	1079.15
545.329	2391.15
545.453	10943.15
545.576	15246.15
545.699	15679.15
545.822	15679.15
545.945	15679.15
546.068	15679.15
546.191	15679.15
546.314	15679.15
546.437	15679.15
546.56	15679.15
546.683	15679.15
546.806	15679.15
546.929	15679.15
547.052	15679.15
547.175	15679.15
547.298	15679.15
547.421	15679.15
547.544	15679.15
547.667	3481.15
547.79	2181.15
547.913	1004.15
548.036	837.15
548.159	641.15
548.282	601.15
548.405	453.15
548.528	473.15
548.651	382.15
548.774	392.15
548.897	343.15
549.02	366.15
549.143	320.15
549.266	294.15
549.389	255.15
549.512	238.15
549.635	252.15
549.758	234.15
549.881	201.15
550.004	224.15
550.127	192.15
550.25	187.15
550.373	164.15
550.496	180.15
550.619	165.15
550.742	153.15
550.865	135.15
550.988	152.15
551.111	165.15
551.234	158.15
551.356	133.15
551.479	131.15
551.602	133.15
551.725	139.15
551.848	116.15
551.971	123.15
552.094	133.15
552.217	121.15
552.34	119.15
552.463	101.15
552.586	117.15
552.709	96.15
552.832	108.15
552.955	99.15
553.077	113.15
553.2	111.15
553.323	81.15
553.446	106.15
553.569	101.15
553.692	119.15
553.815	92.15
553.938	101.15
554.061	113.15
554.184	101.15
554.306	81.15
554.429	97.15
554.552	85.15
554.675	71.15
554.798	78.15
554.921	81.15
555.044	69.15
555.167	74.15
555.29	74.15
555.412	71.15
555.535	77.15
555.658	64.15
555.781	66.15
555.904	85.15
556.027	57.15
556.15	57.15
556.272	44.15
556.395	52.15
556.518	38.15
556.641	70.15
556.764	78.15
556.887	84.15
557.01	67.15
557.132	75.15
557.255	59.15
557.378	79.15
557.501	76.15
557.624	71.15
557.747	60.15
557.869	93.15
557.992	79.15
558.115	101.15
558.238	86.15
558.361	87.15
558.483	84.15
558.606	64.15
558.729	48.15
558.852	75.15
558.975	66.15
559.098	68.15
559.22	50.15
559.343	48.15
559.466	41.15
559.589	45.15
559.712	48.15
559.834	44.15
559.957	42.15
560.08	45.15
560.203	42.15
560.325	70.15
560.448	45.15
560.571	61.15
560.694	44.15
560.817	57.15
560.939	51.15
561.062	66.15
561.185	52.15
561.308	60.15
561.43	52.15
561.553	64.15
561.676	66.15
561.799	68.15
561.921	57.15
562.044	71.15
562.167	36.15
562.29	77.15
562.413	73.15
562.535	77.15
562.658	44.15
562.781	37.15
562.903	75.15
563.026	98.15
563.149	134.15
563.272	131.15
563.394	136.15
563.517	115.15
563.64	66.15
563.763	57.15
563.885	56.15
564.008	53.15
564.131	44.15
564.254	25.15
564.376	42.15
564.499	31.15
564.622	18.15
564.744	35.15
564.867	29.15
564.99	35.15
565.113	19.15
565.235	28.15
565.358	36.15
565.481	23.15
565.603	22.15
565.726	29.15
565.849	34.15
565.971	52.15
566.094	44.15
566.217	33.15
566.34	41.15
566.462	26.15
566.585	27.15
566.708	52.15
566.83	48.15
566.953	40.15
567.076	32.15
567.198	32.15
567.321	24.15
567.444	21.15
567.566	32.15
567.689	26.15
567.812	29.15
567.934	37.15
568.057	35.15
568.18	28.15
568.302	25.15
568.425	13.15
568.548	33.15
568.67	40.15
568.793	39.15
568.916	38.15
569.038	30.15
569.161	37.15
569.283	44.15
569.406	41.15
569.529	20.15
569.651	9.15
569.774	20.15
569.897	33.15
570.019	48.15
570.142	27.15
570.265	6.15
570.387	34.15
570.51	22.15
570.632	54.15
570.755	26.15
570.878	24.15
571	40.15
571.123	30.15
571.246	37.15
571.368	16.15
571.491	18.15
571.613	37.15
571.736	8.15
571.859	18.15
571.981	19.15
572.104	17.15
572.226	33.15
572.349	19.15
572.472	44.15
572.594	49.15
572.717	36.15
572.839	20.15
572.962	24.15
573.085	37.15
573.207	25.15
573.33	30.15
573.452	45.15
573.575	48.15
573.697	36.15
573.82	36.15
573.943	26.15
574.065	29.15
574.188	36.15
574.31	36.15
574.433	38.15
574.555	62.15
574.678	33.15
574.801	49.15
574.923	22.15
575.046	33.15
575.168	19.15
575.291	32.15
575.413	33.15
575.536	38.15
575.659	53.15
575.781	28.15
575.904	45.15
576.026	68.15
576.149	77.15
576.271	123.15
576.394	214.15
576.516	525.15
576.639	3648.15
576.761	10181.15
576.884	8760.15
577.007	8741.15
577.129	8004.15
577.252	3689.15
577.374	1304.15
577.497	512.15
577.619	260.15
577.742	161.15
577.864	160.15
577.987	125.15
578.109	143.15
578.232	130.15
578.354	157.15
578.477	196.15
578.599	384.15
578.722	1965.15
578.844	8999.15
578.967	9769.15
579.089	8797.15
579.212	9067.15
579.334	5260.15
579.457	1920.15
579.579	710.15
579.702	322.15
579.824	204.15
579.947	134.15
580.069	104.15
580.192	80.15
580.314	86.15
580.437	67.15
580.559	90.15
580.682	79.15
580.804	52.15
580.927	57.15
581.049	65.15
581.172	57.15
581.294	46.15
581.417	47.15
581.539	52.15
581.662	28.15
581.784	33.15
581.907	29.15
582.029	44.15
582.152	27.15
582.274	28.15
582.396	33.15
582.519	32.15
582.641	35.15
582.764	26.15
582.886	46.15
583.009	27.15
583.131	23.15
583.254	34.15
583.376	45.15
583.499	37.15
583.621	42.15
583.743	48.15
583.866	35.15
583.988	27.15
584.111	33.15
584.233	45.15
584.356	51.15
584.478	48.15
584.601	31.15
584.723	20.15
584.845	32.15
584.968	-2.85
585.09	16.15
585.213	24.15
585.335	17.15
585.458	35.15
585.58	16.15
585.702	39.15
585.825	37.15
585.947	32.15
586.07	25.15
586.192	19.15
586.315	44.15
586.437	17.15
586.559	18.15
586.682	12.15
586.804	45.15
586.927	26.15
587.049	25.15
587.171	27.15
587.294	38.15
587.416	59.15
587.539	33.15
587.661	16.15
587.783	21.15
587.906	24.15
588.028	33.15
588.151	20.15
588.273	43.15
588.395	15.15
588.518	16.15
588.64	15.15
588.763	45.15
588.885	27.15
589.007	30.15
589.13	20.15
589.252	15.15
589.375	13.15
589.497	4.15
589.619	10.15
589.742	29.15
589.864	46.15
589.986	22.15
590.109	16.15
590.231	9.15
590.354	36.15
590.476	20.15
590.598	13.15
590.721	7.15
590.843	34.15
590.965	33.15
591.088	27.15
591.21	13.15
591.332	18.15
591.455	11.15
591.577	7.15
591.7	33.15
591.822	18.15
591.944	24.15
592.067	11.15
592.189	14.15
592.311	36.15
592.434	19.15
592.556	30.15
592.678	32.15
592.801	37.15
592.923	24.15
593.045	17.15
593.168	31.15
593.29	31.15
593.412	41.15
593.535	34.15
593.657	35.15
593.779	23.15
593.902	19.15
594.024	30.15
594.146	33.15
594.269	21.15
594.391	6.15
594.513	28.15
594.636	33.15
594.758	11.15
594.88	31.15
595.003	29.15
595.125	14.15
595.247	21.15
595.37	27.15
595.492	16.15
595.614	46.15
595.737	28.15
595.859	43.15
595.981	8.15
596.104	21.15
596.226	16.15
596.348	35.15
596.471	18.15
596.593	33.15
596.715	18.15
596.838	0.15
596.96	8.15
597.082	23.15
597.204	28.15
597.327	30.15
597.449	16.15
597.571	16.15
597.694	29.15
597.816	14.15
597.938	4.15
598.061	11.15
598.183	16.15
598.305	20.15
598.427	16.15
598.55	34.15
598.672	26.15
598.794	12.15
598.917	13.15
599.039	32.15
599.161	35.15
599.283	13.15
599.406	18.15
599.528	12.15
599.65	22.15
599.773	26.15
599.895	36.15
600.017	36.15
600.139	37.15
600.262	17.15
600.384	10.15
600.506	38.15
600.628	39.15
600.751	31.15
600.873	19.15
600.995	23.15
601.118	41.15
601.24	39.15
601.362	34.15
601.484	34.15
601.607	26.15
601.729	15.15
601.851	18.15
601.973	20.15
602.096	34.15
602.218	39.15
602.34	30.15
602.462	28.15
602.585	3.15
602.707	18.15
602.829	23.15
602.951	14.15
603.074	1.15
603.196	13.15
603.318	-6.85
603.44	14.15
603.563	13.15
603.685	21.15
603.807	29.15
603.929	32.15
604.052	41.15
604.174	25.15
604.296	18.15
604.418	24.15
604.541	25.15
604.663	9.15
604.785	22.15
604.907	12.15
605.03	-6.85
605.152	22.15
605.274	19.15
605.396	10.15
605.519	12.15
605.641	17.15
605.763	24.15
605.885	5.15
606.008	17.15
606.13	42.15
606.252	20.15
606.374	12.15
606.496	20.15
606.619	18.15
606.741	5.15
606.863	28.15
606.985	20.15
607.108	16.15
607.23	0.15
607.352	7.15
607.474	33.15
607.596	21.15
607.719	21.15
607.841	18.15
607.963	13.15
608.085	9.15
608.207	25.15
608.33	16.15
608.452	17.15
608.574	14.15
608.696	13.15
608.819	8.15
608.941	7.15
609.063	24.15
609.185	14.15
609.307	17.15
609.43	41.15
609.552	25.15
609.674	5.15
609.796	23.15
609.918	30.15
610.041	15.15
610.163	24.15
610.285	14.15
610.407	36.15
610.529	5.15
610.652	16.15
610.774	26.15
610.896	13.15
611.018	37.15
611.14	35.15
611.263	19.15
611.385	13.15
611.507	29.15
611.629	23.15
611.751	22.15
611.873	50.15
611.996	27.15
612.118	30.15
612.24	9.15
612.362	37.15
612.484	35.15
612.607	37.15
612.729	45.15
612.851	18.15
612.973	16.15
613.095	8.15
613.218	17.15
613.34	27.15
613.462	0.15
613.584	13.15
613.706	4.15
613.828	40.15
613.951	1.15
614.073	7.15
614.195	-3.85
614.317	28.15
614.439	43.15
614.561	8.15
614.684	22.15
614.806	25.15
614.928	17.15
615.05	11.15
615.172	21.15
615.294	32.15
615.417	28.15
615.539	9.15
615.661	26.15
615.783	38.15
615.905	11.15
616.027	4.15
616.15	34.15
616.272	19.15
616.394	25.15
616.516	25.15
616.638	7.15
616.76	22.15
616.883	12.15
617.005	14.15
617.127	15.15
617.249	11.15
617.371	15.15
617.493	22.15
617.615	20.15
617.738	33.15
617.86	15.15
617.982	15.15
618.104	18.15
618.226	15.15
618.348	-9.85
618.471	21.15
618.593	16.15
618.715	10.15
618.837	23.15
618.959	26.15
619.081	30.15
619.203	14.15
619.326	11.15
619.448	21.15
619.57	27.15
619.692	34.15
619.814	25.15
619.936	20.15
620.058	24.15
620.181	8.15
620.303	-1.85
620.425	12.15
620.547	2.15
620.669	-4.85
620.791	0.15
620.913	1.15
621.036	8.15
621.158	23.15
621.28	15.15
621.402	-5.85
621.524	10.15
621.646	6.15
621.768	12.15
621.891	18.15
622.013	14.15
622.135	10.15
622.257	4.15
622.379	8.15
622.501	13.15
622.623	8.15
622.745	6.15
622.868	3.15
622.99	8.15
623.112	11.15
623.234	13.15
623.356	8.15
623.478	8.15
623.6	32.15
623.722	6.15
623.845	-1.85
623.967	13.15
624.089	10.15
624.211	0.15
624.333	11.15
624.455	21.15
624.577	5.15
624.699	36.15
624.822	19.15
624.944	9.15
625.066	6.15
625.188	12.15
625.31	6.15
625.432	25.15
625.554	-1.85
625.676	38.15
625.799	12.15
625.921	24.15
626.043	22.15
626.165	28.15
626.287	-4.85
626.409	22.15
626.531	-3.85
626.653	10.15
626.775	28.15
626.898	32.15
627.02	32.15
627.142	52.15
627.264	32.15
627.386	17.15
627.508	33.15
627.63	10.15
627.752	30.15
627.874	11.15
627.997	11.15
628.119	25.15
628.241	19.15
628.363	26.15
628.485	8.15
628.607	23.15
628.729	3.15
628.851	-2.85
628.973	9.15
629.096	4.15
629.218	9.15
629.34	17.15
629.462	-6.85
629.584	18.15
629.706	6.15
629.828	24.15
629.95	28.15
630.072	3.15
630.195	6.15
630.317	19.15
630.439	18.15
630.561	20.15
630.683	28.15
630.805	20.15
630.927	17.15
631.049	7.15
631.171	18.15
631.293	22.15
631.416	37.15
631.538	20.15
631.66	13.15
631.782	32.15
631.904	29.15
632.026	6.15
632.148	9.15
632.27	5.15
632.392	22.15
632.514	6.15
632.637	3.15
632.759	6.15
632.881	20.15
633.003	10.15
633.125	10.15
633.247	4.15
633.369	-3.85
633.491	8.15
633.613	12.15
633.735	13.15
633.858	11.15
633.98	16.15
634.102	16.15
634.224	19.15
634.346	8.15
634.468	-5.85
634.59	7.15
634.712	20.15
634.834	24.15
634.956	1.15
635.078	9.15
635.201	11.15
635.323	11.15
635.445	22.15
635.567	-7.85
635.689	19.15
635.811	21.15
635.933	11.15
636.055	22.15
636.177	22.15
636.299	11.15
636.421	-13.85
636.544	-12.85
636.666	-3.85
636.788	20.15
636.91	2.15
637.032	0.15
637.154	27.15
637.276	35.15
637.398	23.15
637.52	21.15
637.642	1.15
637.764	2.15
637.887	16.15
638.009	15.15
638.131	-4.85
638.253	1.15
638.375	10.15
638.497	17.15
638.619	1.15
638.741	22.15
638.863	13.15
638.985	10.15
639.107	19.15
639.23	10.15
639.352	26.15
639.474	10.15
639.596	12.15
639.718	2.15
639.84	11.15
639.962	22.15
640.084	27.15
640.206	32.15
640.328	8.15
640.45	19.15
640.573	16.15
640.695	12.15
640.817	28.15
640.939	12.15
641.061	14.15
641.183	28.15
641.305	10.15
641.427	-8.85
641.549	4.15
641.671	16.15
641.793	13.15
641.915	17.15
642.038	1.15
642.16	16.15
642.282	1.15
642.404	8.15
642.526	26.15
642.648	14.15
642.77	11.15
642.892	24.15
643.014	24.15
643.136	7.15
643.258	2.15
643.381	30.15
643.503	23.15
643.625	19.15
643.747	-5.85
643.869	-9.85
643.991	2.15
644.113	10.15
644.235	6.15
644.357	17.15
644.479	21.15
644.601	17.15
644.723	6.15
644.846	9.15
644.968	-10.85
645.09	0.15
645.212	6.15
645.334	20.15
645.456	16.15
645.578	6.15
645.7	10.15
645.822	19.15
645.944	9.15
646.066	9.15
646.188	13.15
646.311	32.15
646.433	12.15
646.555	31.15
646.677	16.15
646.799	0.15
646.921	10.15
647.043	12.15
647.165	8.15
647.287	12.15
647.409	16.15
647.531	30.15
647.654	-13.85
647.776	8.15
647.898	8.15
648.02	-6.85
648.142	6.15
648.264	0.15
648.386	0.15
648.508	-16.85
648.63	0.15
648.752	12.15
648.874	9.15
648.997	24.15
649.119	22.15
649.241	-2.85
649.363	28.15
649.485	6.15
649.607	-19.85
649.729	-2.85
649.851	17.15
649.973	10.15
650.095	22.15
650.217	12.15
650.34	3.15
650.462	25.15
650.584	11.15
650.706	19.15
650.828	12.15
650.95	5.15
651.072	16.15
651.194	-3.85
651.316	16.15
651.438	16.15
651.56	-1.85
651.683	-3.85
651.805	4.15
651.927	8.15
652.049	-3.85
652.171	-2.85
652.293	0.15
652.415	-5.85
652.537	5.15
652.659	4.15
652.781	16.15
652.903	12.15
653.026	28.15
653.148	-1.85
653.27	6.15
653.392	7.15
653.514	-3.85
653.636	-13.85
653.758	-2.85
653.88	-1.85
654.002	3.15
654.124	10.15
654.247	-0.85
654.369	5.15
654.491	7.15
654.613	13.15
654.735	10.15
654.857	19.15
654.979	3.15
655.101	14.15
655.223	21.15
655.345	3.15
655.468	4.15
655.59	-5.85
655.712	-5.85
655.834	7.15
655.956	23.15
656.078	8.15
656.2	11.15
656.322	19.15
656.444	2.15
656.566	0.15
656.689	13.15
656.811	8.15
656.933	37.15
657.055	0.15
657.177	4.15
657.299	16.15
657.421	14.15
657.543	13.15
657.665	12.15
657.787	-2.85
657.91	5.15
658.032	13.15
658.154	12.15
658.276	5.15
658.398	0.15
658.52	10.15
658.642	12.15
658.764	0.15
658.886	-20.85
659.009	0.15
659.131	7.15
659.253	13.15
659.375	3.15
659.497	18.15
659.619	12.15
659.741	-5.85
659.863	2.15
659.985	-1.85
660.108	16.15
660.23	-5.85
660.352	16.15
660.474	18.15
660.596	-2.85
660.718	7.15
660.84	9.15
660.962	28.15
661.084	10.15
661.207	-4.85
661.329	7.15
661.451	1.15
661.573	-15.85
661.695	17.15
661.817	9.15
661.939	26.15
662.061	43.15
662.184	-6.85
662.306	-9.85
662.428	4.15
662.55	5.15
662.672	18.15
662.794	2.15
662.916	-3.85
663.038	-4.85
663.161	21.15
663.283	1.15
663.405	12.15
663.527	19.15
663.649	-2.85
663.771	12.15
663.893	1.15
664.015	8.15
664.138	2.15
664.26	1.15
664.382	15.15
664.504	4.15
664.626	-6.85
664.748	-1.85
664.87	3.15
664.992	12.15
665.115	13.15
665.237	10.15
665.359	-1.85
665.481	-3.85
665.603	3.15
665.725	0.15
665.847	-21.85
665.97	5.15
666.092	0.15
666.214	14.15
666.336	12.15
666.458	12.15
666.58	25.15
666.702	-0.85
666.825	11.15
666.947	-4.85
667.069	8.15
667.191	7.15
667.313	10.15
667.435	-15.85
667.557	-3.85
667.68	-2.85
667.802	5.15
667.924	-9.85
668.046	13.15
668.168	13.15
668.29	29.15
668.412	7.15
668.535	18.15
668.657	-8.85
668.779	-6.85
668.901	-2.85
669.023	16.15
669.145	24.15
669.267	35.15
669.39	13.15
669.512	8.15
669.634	-0.85
669.756	-6.85
669.878	17.15
670	14.15
670.123	5.15
670.245	26.15
670.367	26.15
670.489	23.15
670.611	6.15
670.733	6.15
670.856	-2.85
670.978	9.15
671.1	13.15
671.222	23.15
671.344	12.15
671.466	-9.85
671.589	-10.85
671.711	0.15
671.833	3.15
671.955	-2.85
672.077	0.15
672.199	19.15
672.322	28.15
672.444	14.15
672.566	18.15
672.688	10.15
672.81	8.15
672.932	7.15
673.055	1.15
673.177	-4.85
673.299	7.15
673.421	-7.85
673.543	-1.85
673.665	22.15
673.788	31.15
673.91	1.15
674.032	6.15
674.154	5.15
674.276	4.15
674.399	-8.85
674.521	0.15
674.643	0.15
674.765	-1.85
674.887	17.15
675.009	-2.85
675.132	4.15
675.254	0.15
675.376	-1.85
675.498	0.15
675.62	16.15
675.743	12.15
675.865	26.15
675.987	-8.85
676.109	5.15
676.231	26.15
676.354	42.15
676.476	3.15
676.598	14.15
676.72	8.15
676.842	8.15
676.965	-5.85
677.087	6.15
677.209	-1.85
677.331	21.15
677.453	12.15
677.576	13.15
677.698	14.15
677.82	-1.85
677.942	6.15
678.064	5.15
678.187	14.15
678.309	13.15
678.431	12.15
678.553	16.15
678.675	11.15
678.798	13.15
678.92	-2.85
679.042	11.15
679.164	7.15
679.286	16.15
679.409	-7.85
679.531	-15.85
679.653	9.15
679.775	8.15
679.898	6.15
680.02	4.15
680.142	-11.85
680.264	23.15
680.386	-3.85
680.509	13.15
680.631	17.15
680.753	16.15
680.875	-8.85
680.998	5.15
681.12	17.15
681.242	6.15
681.364	-8.85
681.486	16.15
681.609	-7.85
681.731	-6.85
681.853	10.15
681.975	3.15
682.098	20.15
682.22	30.15
682.342	0.15
682.464	22.15
682.587	17.15
682.709	12.15
682.831	-15.85
682.953	-4.85
683.076	1.15
683.198	9.15
683.32	2.15
683.442	-0.85
683.565	7.15
683.687	-7.85
683.809	8.15
683.931	-7.85
684.054	19.15
684.176	11.15
684.298	5.15
684.42	10.15
684.543	-5.85
684.665	14.15
684.787	22.15
684.909	6.15
685.032	9.15
685.154	-17.85
685.276	13.15
685.398	-4.85
685.521	4.15
685.643	6.15
685.765	8.15
685.887	0.15
686.01	12.15
686.132	1.15
686.254	11.15
686.377	16.15
686.499	7.15
686.621	18.15
686.743	27.15
686.866	12.15
686.988	21.15
687.11	24.15
687.232	1.15
687.355	0.15
687.477	15.15
687.599	9.15
687.722	10.15
687.844	-3.85
687.966	9.15
688.088	3.15
688.211	29.15
688.333	21.15
688.455	6.15
688.578	0.15
688.7	12.15
688.822	22.15
688.944	-5.85
689.067	32.15
689.189	6.15
689.311	-4.85
689.434	5.15
689.556	8.15
689.678	5.15
689.801	-15.85
689.923	9.15
690.045	40.15
690.167	31.15
690.29	13.15
690.412	19.15
690.534	1.15
690.657	5.15
690.779	6.15
690.901	20.15
691.024	14.15
691.146	5.15
691.268	-6.85
691.391	41.15
691.513	8.15
691.635	34.15
691.758	21.15
691.88	23.15
692.002	4.15
692.125	11.15
692.247	5.15
692.369	-1.85
692.492	-6.85
692.614	4.15
692.736	10.15
692.859	-2.85
692.981	-7.85
693.103	-0.85
693.226	-3.85
693.348	36.15
693.47	2.15
693.593	36.15
693.715	35.15
693.837	21.15
693.96	14.15
694.082	5.15
694.204	5.15
694.327	0.15
694.449	3.15
694.571	8.15
694.694	20.15
694.816	7.15
694.938	0.15
695.061	2.15
695.183	20.15
695.305	-11.85
695.428	21.15
695.55	2.15
695.672	3.15
695.795	21.15
695.917	29.15
696.04	-2.85
696.162	-5.85
696.284	9.15
696.407	13.15
696.529	7.15
696.651	24.15
696.774	4.15
696.896	16.15
697.019	7.15
697.141	16.15
697.263	0.15
697.386	9.15
697.508	5.15
697.63	9.15
697.753	26.15
697.875	18.15
697.998	-1.85
698.12	17.15
698.242	10.15
698.365	18.15
698.487	5.15
698.61	9.15
698.732	25.15
698.854	19.15
698.977	3.15
699.099	18.15
699.221	-5.85
699.344	-1.85
699.466	-10.85
699.589	12.15
699.711	8.15
699.834	5.15
699.956	14.15
700.078	2.15
700.201	2.15
700.323	26.15
700.446	1.15
700.568	17.15
700.69	29.15
700.813	17.15
700.935	12.15
701.058	-5.85
701.18	1.15
701.302	15.15
701.425	1.15
701.547	6.15
701.67	-14.85
701.792	13.15
701.915	0.15
702.037	16.15
702.159	11.15
702.282	10.15
702.404	-8.85
702.527	3.15
702.649	28.15
702.772	4.15
702.894	20.15
703.017	26.15
703.139	30.15
703.261	26.15
703.384	21.15
703.506	-10.85
703.629	4.15
703.751	27.15
703.874	0.15
703.996	12.15
704.119	11.15
704.241	8.15
704.364	-7.85
704.486	3.15
704.608	15.15
704.731	-1.85
704.853	13.15
704.976	-5.85
705.098	21.15
705.221	-0.85
705.343	13.15
705.466	17.15
705.588	22.15
705.711	5.15
705.833	2.15
705.956	-7.85
706.078	5.15
706.201	9.15
706.323	12.15
706.446	-1.85
