Data from LowRes_mercury_15_20_11_07_2024_HR4C61881__37__15-23-35-971.txt Node

Date: Thu Nov 07 15:23:35 EST 2024
User: crc00042
Spectrometer: HR4C6188
Trigger mode: 4
Integration Time (sec): 1.000000E-1
Scans to average: 1
Electric dark correction enabled: true
Nonlinearity correction enabled: false
Boxcar width: 0
XAxis mode: Wavelengths
Number of Pixels in Spectrum: 3648
>>>>>Begin Spectral Data<<<<<
245.66	-87.54
245.797	-87.54
245.934	-87.54
246.071	-84.54
246.208	11.46
246.344	-4.54
246.481	-8.54
246.618	-0.54
246.755	32.46
246.892	-5.54
247.029	-19.54
247.165	-13.54
247.302	12.46
247.439	9.46
247.576	-8.54
247.713	-16.54
247.849	30.46
247.986	-7.54
248.123	-0.54
248.26	-8.54
248.396	0.46
248.533	3.46
248.67	-6.54
248.806	-6.54
248.943	-27.54
249.08	-6.54
249.216	27.46
249.353	3.46
249.49	1.46
249.626	6.46
249.763	-7.54
249.9	-3.54
250.036	0.46
250.173	17.46
250.309	-7.54
250.446	11.46
250.582	-6.54
250.719	-16.54
250.856	-17.54
250.992	-17.54
251.129	-3.54
251.265	-9.54
251.402	5.46
251.538	-20.54
251.675	2.46
251.811	21.46
251.948	0.46
252.084	-12.54
252.221	-8.54
252.357	-14.54
252.493	22.46
252.63	-3.54
252.766	10.46
252.903	-8.54
253.039	-7.54
253.175	-15.54
253.312	7.46
253.448	-1.54
253.585	-31.54
253.721	14.46
253.857	-4.54
253.994	-6.54
254.13	-5.54
254.266	-12.54
254.403	1.46
254.539	12.46
254.675	11.46
254.811	-0.54
254.948	-13.54
255.084	-9.54
255.22	-8.54
255.356	-10.54
255.493	8.46
255.629	3.46
255.765	12.46
255.901	14.46
256.037	10.46
256.174	7.46
256.31	-7.54
256.446	-6.54
256.582	-1.54
256.718	-8.54
256.854	15.46
256.991	3.46
257.127	7.46
257.263	10.46
257.399	10.46
257.535	-2.54
257.671	3.46
257.807	-9.54
257.943	2.46
258.079	-3.54
258.215	-3.54
258.351	26.46
258.487	0.46
258.623	19.46
258.759	4.46
258.895	-0.54
259.031	12.46
259.167	-8.54
259.303	9.46
259.439	-1.54
259.575	-2.54
259.711	2.46
259.847	-7.54
259.983	1.46
260.119	-7.54
260.255	-3.54
260.391	-6.54
260.527	11.46
260.663	23.46
260.799	-10.54
260.934	-4.54
261.07	9.46
261.206	-9.54
261.342	-10.54
261.478	-0.54
261.614	1.46
261.749	17.46
261.885	-5.54
262.021	-3.54
262.157	19.46
262.293	-4.54
262.428	-15.54
262.564	-1.54
262.7	22.46
262.836	-2.54
262.971	12.46
263.107	7.46
263.243	28.46
263.378	13.46
263.514	-31.54
263.65	-2.54
263.785	-20.54
263.921	-5.54
264.057	16.46
264.192	9.46
264.328	-1.54
264.464	-21.54
264.599	10.46
264.735	8.46
264.871	-17.54
265.006	6.46
265.142	5.46
265.277	-5.54
265.413	12.46
265.548	5.46
265.684	23.46
265.819	5.46
265.955	-9.54
266.091	-13.54
266.226	-0.54
266.362	3.46
266.497	-1.54
266.633	1.46
266.768	-12.54
266.903	15.46
267.039	-2.54
267.174	22.46
267.31	2.46
267.445	11.46
267.581	5.46
267.716	13.46
267.851	13.46
267.987	16.46
268.122	16.46
268.258	10.46
268.393	5.46
268.528	2.46
268.664	-30.54
268.799	-24.54
268.934	2.46
269.07	4.46
269.205	-16.54
269.34	14.46
269.476	-11.54
269.611	-16.54
269.746	24.46
269.881	18.46
270.017	-4.54
270.152	6.46
270.287	11.46
270.422	1.46
270.558	-5.54
270.693	2.46
270.828	12.46
270.963	0.46
271.098	4.46
271.234	5.46
271.369	17.46
271.504	7.46
271.639	-21.54
271.774	9.46
271.909	8.46
272.045	-29.54
272.18	0.46
272.315	12.46
272.45	13.46
272.585	-4.54
272.72	-0.54
272.855	7.46
272.99	15.46
273.125	-15.54
273.26	-8.54
273.395	-13.54
273.53	-22.54
273.665	31.46
273.8	-2.54
273.935	3.46
274.07	-1.54
274.205	3.46
274.34	8.46
274.475	-7.54
274.61	6.46
274.745	-15.54
274.88	24.46
275.015	5.46
275.15	0.46
275.285	4.46
275.42	-3.54
275.555	5.46
275.69	7.46
275.825	-3.54
275.959	4.46
276.094	-12.54
276.229	-4.54
276.364	-9.54
276.499	10.46
276.634	-11.54
276.768	2.46
276.903	2.46
277.038	9.46
277.173	-2.54
277.308	-4.54
277.442	-7.54
277.577	-15.54
277.712	-24.54
277.847	-7.54
277.981	6.46
278.116	-10.54
278.251	14.46
278.386	14.46
278.52	11.46
278.655	4.46
278.79	10.46
278.924	8.46
279.059	27.46
279.194	-7.54
279.328	46.46
279.463	4.46
279.598	10.46
279.732	7.46
279.867	20.46
280.001	9.46
280.136	-7.54
280.271	5.46
280.405	18.46
280.54	5.46
280.674	-8.54
280.809	29.46
280.943	6.46
281.078	-1.54
281.213	15.46
281.347	9.46
281.482	-0.54
281.616	-2.54
281.751	-2.54
281.885	-20.54
282.02	-12.54
282.154	23.46
282.288	7.46
282.423	8.46
282.557	-11.54
282.692	-1.54
282.826	24.46
282.961	20.46
283.095	2.46
283.229	5.46
283.364	-3.54
283.498	1.46
283.633	-7.54
283.767	-8.54
283.901	-16.54
284.036	13.46
284.17	-5.54
284.304	6.46
284.439	-0.54
284.573	0.46
284.707	7.46
284.842	-23.54
284.976	3.46
285.11	1.46
285.244	11.46
285.379	33.46
285.513	-9.54
285.647	7.46
285.781	-1.54
285.916	14.46
286.05	-8.54
286.184	13.46
286.318	6.46
286.453	-11.54
286.587	-16.54
286.721	11.46
286.855	6.46
286.989	19.46
287.123	-11.54
287.258	-9.54
287.392	4.46
287.526	6.46
287.66	-18.54
287.794	8.46
287.928	-3.54
288.062	0.46
288.196	-9.54
288.33	20.46
288.464	28.46
288.598	11.46
288.733	16.46
288.867	22.46
289.001	-0.54
289.135	8.46
289.269	5.46
289.403	-11.54
289.537	16.46
289.671	11.46
289.805	-0.54
289.939	-12.54
290.073	2.46
290.207	4.46
290.34	-8.54
290.474	15.46
290.608	2.46
290.742	1.46
290.876	-3.54
291.01	-1.54
291.144	18.46
291.278	15.46
291.412	17.46
291.546	8.46
291.679	-3.54
291.813	8.46
291.947	25.46
292.081	-7.54
292.215	5.46
292.349	12.46
292.482	10.46
292.616	-10.54
292.75	17.46
292.884	5.46
293.018	2.46
293.151	-18.54
293.285	7.46
293.419	4.46
293.553	22.46
293.686	-1.54
293.82	6.46
293.954	9.46
294.088	28.46
294.221	-1.54
294.355	-5.54
294.489	11.46
294.622	-13.54
294.756	11.46
294.89	-7.54
295.023	2.46
295.157	20.46
295.291	15.46
295.424	11.46
295.558	10.46
295.691	18.46
295.825	-16.54
295.959	-1.54
296.092	4.46
296.226	15.46
296.359	20.46
296.493	19.46
296.627	-5.54
296.76	7.46
296.894	8.46
297.027	-3.54
297.161	-3.54
297.294	-6.54
297.428	-11.54
297.561	10.46
297.695	-0.54
297.828	-11.54
297.962	-3.54
298.095	-8.54
298.229	-8.54
298.362	-13.54
298.495	-2.54
298.629	-14.54
298.762	22.46
298.896	3.46
299.029	-10.54
299.162	-4.54
299.296	10.46
299.429	-6.54
299.563	-1.54
299.696	-2.54
299.829	6.46
299.963	-0.54
300.096	15.46
300.229	14.46
300.363	-4.54
300.496	-10.54
300.629	-12.54
300.763	-4.54
300.896	-1.54
301.029	11.46
301.162	4.46
301.296	-11.54
301.429	7.46
301.562	-24.54
301.695	17.46
301.829	7.46
301.962	23.46
302.095	-0.54
302.228	-28.54
302.362	-4.54
302.495	-17.54
302.628	6.46
302.761	-0.54
302.894	-8.54
303.027	0.46
303.161	-0.54
303.294	-20.54
303.427	2.46
303.56	4.46
303.693	12.46
303.826	13.46
303.959	7.46
304.092	9.46
304.225	-8.54
304.359	1.46
304.492	6.46
304.625	-16.54
304.758	-1.54
304.891	-3.54
305.024	-0.54
305.157	4.46
305.29	3.46
305.423	2.46
305.556	9.46
305.689	19.46
305.822	-19.54
305.955	-9.54
306.088	-7.54
306.221	-7.54
306.354	3.46
306.487	2.46
306.62	-17.54
306.752	4.46
306.885	8.46
307.018	-4.54
307.151	20.46
307.284	7.46
307.417	-6.54
307.55	23.46
307.683	16.46
307.816	5.46
307.948	6.46
308.081	11.46
308.214	0.46
308.347	16.46
308.48	-14.54
308.613	-15.54
308.745	8.46
308.878	-5.54
309.011	-7.54
309.144	5.46
309.277	-6.54
309.409	2.46
309.542	4.46
309.675	5.46
309.808	5.46
309.94	13.46
310.073	-23.54
310.206	-21.54
310.339	-0.54
310.471	-15.54
310.604	23.46
310.737	1.46
310.869	-7.54
311.002	-9.54
311.135	-11.54
311.267	-4.54
311.4	-10.54
311.533	22.46
311.665	-28.54
311.798	-0.54
311.93	3.46
312.063	13.46
312.196	46.46
312.328	80.46
312.461	67.46
312.593	33.46
312.726	50.46
312.859	95.46
312.991	170.46
313.124	46.46
313.256	23.46
313.389	-0.54
313.521	-3.54
313.654	-5.54
313.786	-13.54
313.919	-5.54
314.051	-0.54
314.184	-1.54
314.316	15.46
314.449	-10.54
314.581	3.46
314.714	11.46
314.846	8.46
314.978	-10.54
315.111	-15.54
315.243	-8.54
315.376	-8.54
315.508	-8.54
315.641	-12.54
315.773	10.46
315.905	-1.54
316.038	3.46
316.17	0.46
316.302	9.46
316.435	1.46
316.567	4.46
316.699	12.46
316.832	10.46
316.964	1.46
317.096	8.46
317.229	-12.54
317.361	-26.54
317.493	-8.54
317.625	-4.54
317.758	14.46
317.89	11.46
318.022	-7.54
318.155	4.46
318.287	6.46
318.419	-11.54
318.551	4.46
318.683	-0.54
318.816	-18.54
318.948	2.46
319.08	-5.54
319.212	13.46
319.344	-1.54
319.477	8.46
319.609	12.46
319.741	7.46
319.873	2.46
320.005	3.46
320.137	-14.54
320.269	2.46
320.401	-11.54
320.534	-8.54
320.666	-6.54
320.798	6.46
320.93	2.46
321.062	-9.54
321.194	2.46
321.326	-3.54
321.458	17.46
321.59	-10.54
321.722	-32.54
321.854	-8.54
321.986	-6.54
322.118	3.46
322.25	-3.54
322.382	-4.54
322.514	-12.54
322.646	-6.54
322.778	23.46
322.91	1.46
323.042	-0.54
323.174	-17.54
323.306	-5.54
323.438	-11.54
323.57	-3.54
323.702	2.46
323.834	1.46
323.966	-9.54
324.097	12.46
324.229	11.46
324.361	13.46
324.493	15.46
324.625	-16.54
324.757	-8.54
324.889	0.46
325.021	6.46
325.152	19.46
325.284	19.46
325.416	-7.54
325.548	22.46
325.68	-24.54
325.811	6.46
325.943	9.46
326.075	-14.54
326.207	7.46
326.339	20.46
326.47	-8.54
326.602	2.46
326.734	-3.54
326.866	19.46
326.997	-3.54
327.129	-5.54
327.261	-22.54
327.392	-8.54
327.524	6.46
327.656	-1.54
327.787	13.46
327.919	8.46
328.051	6.46
328.182	19.46
328.314	13.46
328.446	-11.54
328.577	27.46
328.709	-13.54
328.841	-21.54
328.972	-8.54
329.104	-6.54
329.235	2.46
329.367	-12.54
329.499	19.46
329.63	12.46
329.762	7.46
329.893	12.46
330.025	7.46
330.156	-3.54
330.288	6.46
330.419	4.46
330.551	11.46
330.683	1.46
330.814	4.46
330.946	16.46
331.077	-7.54
331.208	-16.54
331.34	3.46
331.471	-5.54
331.603	11.46
331.734	-14.54
331.866	18.46
331.997	23.46
332.129	-2.54
332.26	4.46
332.392	-1.54
332.523	10.46
332.654	-0.54
332.786	-1.54
332.917	-7.54
333.048	8.46
333.18	12.46
333.311	-15.54
333.443	7.46
333.574	-0.54
333.705	27.46
333.837	49.46
333.968	118.46
334.099	224.46
334.231	195.46
334.362	40.46
334.493	18.46
334.624	18.46
334.756	17.46
334.887	13.46
335.018	2.46
335.15	9.46
335.281	-0.54
335.412	27.46
335.543	14.46
335.675	10.46
335.806	15.46
335.937	12.46
336.068	26.46
336.199	42.46
336.331	9.46
336.462	-2.54
336.593	-7.54
336.724	8.46
336.855	9.46
336.986	19.46
337.118	16.46
337.249	33.46
337.38	21.46
337.511	5.46
337.642	18.46
337.773	-7.54
337.904	4.46
338.035	46.46
338.166	13.46
338.298	26.46
338.429	16.46
338.56	5.46
338.691	10.46
338.822	6.46
338.953	15.46
339.084	21.46
339.215	27.46
339.346	15.46
339.477	9.46
339.608	1.46
339.739	3.46
339.87	8.46
340.001	4.46
340.132	15.46
340.263	14.46
340.394	19.46
340.525	23.46
340.656	12.46
340.787	-1.54
340.918	23.46
341.049	17.46
341.179	26.46
341.31	7.46
341.441	20.46
341.572	13.46
341.703	20.46
341.834	6.46
341.965	19.46
342.096	10.46
342.227	8.46
342.357	-5.54
342.488	10.46
342.619	12.46
342.75	20.46
342.881	15.46
343.012	36.46
343.142	34.46
343.273	18.46
343.404	20.46
343.535	42.46
343.666	25.46
343.796	32.46
343.927	35.46
344.058	20.46
344.189	13.46
344.319	14.46
344.45	30.46
344.581	15.46
344.712	26.46
344.842	30.46
344.973	23.46
345.104	23.46
345.234	13.46
345.365	23.46
345.496	9.46
345.626	30.46
345.757	40.46
345.888	23.46
346.018	24.46
346.149	15.46
346.28	40.46
346.41	12.46
346.541	34.46
346.672	18.46
346.802	33.46
346.933	32.46
347.063	29.46
347.194	20.46
347.325	26.46
347.455	43.46
347.586	41.46
347.716	12.46
347.847	22.46
347.977	54.46
348.108	36.46
348.238	29.46
348.369	26.46
348.499	48.46
348.63	39.46
348.76	28.46
348.891	44.46
349.021	47.46
349.152	40.46
349.282	52.46
349.413	44.46
349.543	45.46
349.674	48.46
349.804	49.46
349.935	31.46
350.065	40.46
350.196	26.46
350.326	29.46
350.456	18.46
350.587	36.46
350.717	10.46
350.848	35.46
350.978	27.46
351.108	19.46
351.239	24.46
351.369	19.46
351.499	11.46
351.63	21.46
351.76	30.46
351.89	20.46
352.021	32.46
352.151	19.46
352.281	31.46
352.412	31.46
352.542	12.46
352.672	13.46
352.803	21.46
352.933	11.46
353.063	27.46
353.193	10.46
353.324	8.46
353.454	45.46
353.584	34.46
353.714	11.46
353.845	18.46
353.975	1.46
354.105	19.46
354.235	35.46
354.365	28.46
354.496	16.46
354.626	36.46
354.756	22.46
354.886	12.46
355.016	26.46
355.146	20.46
355.277	14.46
355.407	14.46
355.537	21.46
355.667	27.46
355.797	30.46
355.927	14.46
356.057	32.46
356.187	22.46
356.318	14.46
356.448	28.46
356.578	25.46
356.708	31.46
356.838	33.46
356.968	13.46
357.098	22.46
357.228	35.46
357.358	14.46
357.488	13.46
357.618	56.46
357.748	26.46
357.878	30.46
358.008	17.46
358.138	35.46
358.268	30.46
358.398	30.46
358.528	-0.54
358.658	17.46
358.788	29.46
358.918	32.46
359.048	30.46
359.178	24.46
359.308	27.46
359.438	42.46
359.568	44.46
359.698	29.46
359.827	23.46
359.957	45.46
360.087	25.46
360.217	27.46
360.347	34.46
360.477	21.46
360.607	19.46
360.737	45.46
360.866	16.46
360.996	11.46
361.126	9.46
361.256	42.46
361.386	38.46
361.516	40.46
361.645	15.46
361.775	36.46
361.905	30.46
362.035	57.46
362.165	34.46
362.294	25.46
362.424	51.46
362.554	48.46
362.684	27.46
362.813	39.46
362.943	49.46
363.073	54.46
363.203	65.46
363.332	64.46
363.462	71.46
363.592	103.46
363.721	126.46
363.851	149.46
363.981	192.46
364.111	263.46
364.24	334.46
364.37	483.46
364.5	873.46
364.629	1779.46
364.759	3859.46
364.888	6366.46
365.018	9452.46
365.148	14843.46
365.277	13134.46
365.407	4805.46
365.537	3151.46
365.666	4104.46
365.796	1837.46
365.925	798.46
366.055	766.46
366.184	1045.46
366.314	1425.46
366.444	2509.46
366.573	2159.46
366.703	668.46
366.832	213.46
366.962	109.46
367.091	84.46
367.221	73.46
367.35	66.46
367.48	76.46
367.609	40.46
367.739	61.46
367.868	33.46
367.998	31.46
368.127	32.46
368.257	36.46
368.386	40.46
368.516	42.46
368.645	35.46
368.775	42.46
368.904	29.46
369.033	29.46
369.163	18.46
369.292	52.46
369.422	43.46
369.551	47.46
369.68	51.46
369.81	43.46
369.939	12.46
370.069	51.46
370.198	51.46
370.327	23.46
370.457	36.46
370.586	54.46
370.715	14.46
370.845	15.46
370.974	37.46
371.103	54.46
371.233	34.46
371.362	47.46
371.491	35.46
371.621	54.46
371.75	37.46
371.879	32.46
372.008	37.46
372.138	50.46
372.267	56.46
372.396	39.46
372.525	16.46
372.655	31.46
372.784	24.46
372.913	25.46
373.042	19.46
373.172	20.46
373.301	9.46
373.43	0.46
373.559	15.46
373.688	23.46
373.818	20.46
373.947	21.46
374.076	22.46
374.205	22.46
374.334	24.46
374.463	-4.54
374.593	25.46
374.722	21.46
374.851	47.46
374.98	11.46
375.109	12.46
375.238	27.46
375.367	41.46
375.496	23.46
375.625	6.46
375.755	27.46
375.884	52.46
376.013	35.46
376.142	22.46
376.271	23.46
376.4	11.46
376.529	-0.54
376.658	13.46
376.787	20.46
376.916	29.46
377.045	26.46
377.174	30.46
377.303	15.46
377.432	41.46
377.561	30.46
377.69	28.46
377.819	45.46
377.948	36.46
378.077	22.46
378.206	-10.54
378.335	6.46
378.464	28.46
378.593	35.46
378.722	13.46
378.851	17.46
378.98	37.46
379.108	-13.54
379.237	-6.54
379.366	23.46
379.495	20.46
379.624	12.46
379.753	0.46
379.882	21.46
380.011	16.46
380.14	15.46
380.268	11.46
380.397	4.46
380.526	29.46
380.655	19.46
380.784	9.46
380.913	12.46
381.041	14.46
381.17	4.46
381.299	23.46
381.428	26.46
381.557	27.46
381.685	19.46
381.814	12.46
381.943	24.46
382.072	17.46
382.2	0.46
382.329	34.46
382.458	24.46
382.587	38.46
382.715	29.46
382.844	35.46
382.973	17.46
383.102	14.46
383.23	-3.54
383.359	12.46
383.488	19.46
383.616	12.46
383.745	6.46
383.874	7.46
384.003	7.46
384.131	18.46
384.26	10.46
384.389	21.46
384.517	4.46
384.646	22.46
384.774	23.46
384.903	31.46
385.032	30.46
385.16	12.46
385.289	17.46
385.418	2.46
385.546	11.46
385.675	31.46
385.803	10.46
385.932	23.46
386.06	6.46
386.189	6.46
386.318	8.46
386.446	11.46
386.575	21.46
386.703	13.46
386.832	26.46
386.96	3.46
387.089	29.46
387.217	6.46
387.346	23.46
387.474	18.46
387.603	29.46
387.731	19.46
387.86	15.46
387.988	18.46
388.117	13.46
388.245	26.46
388.374	2.46
388.502	11.46
388.631	0.46
388.759	16.46
388.888	25.46
389.016	-3.54
389.144	19.46
389.273	26.46
389.401	15.46
389.53	-8.54
389.658	33.46
389.786	7.46
389.915	2.46
390.043	23.46
390.172	42.46
390.3	46.46
390.428	40.46
390.557	26.46
390.685	41.46
390.813	38.46
390.942	53.46
391.07	22.46
391.198	32.46
391.327	11.46
391.455	19.46
391.583	27.46
391.712	28.46
391.84	27.46
391.968	4.46
392.096	21.46
392.225	26.46
392.353	17.46
392.481	2.46
392.609	38.46
392.738	33.46
392.866	40.46
392.994	9.46
393.122	22.46
393.251	8.46
393.379	27.46
393.507	6.46
393.635	9.46
393.764	29.46
393.892	34.46
394.02	31.46
394.148	15.46
394.276	22.46
394.404	53.46
394.533	33.46
394.661	14.46
394.789	25.46
394.917	28.46
395.045	4.46
395.173	19.46
395.302	5.46
395.43	25.46
395.558	32.46
395.686	25.46
395.814	49.46
395.942	13.46
396.07	21.46
396.198	41.46
396.326	39.46
396.454	34.46
396.582	28.46
396.711	37.46
396.839	45.46
396.967	27.46
397.095	26.46
397.223	37.46
397.351	59.46
397.479	52.46
397.607	20.46
397.735	56.46
397.863	45.46
397.991	47.46
398.119	43.46
398.247	43.46
398.375	45.46
398.503	43.46
398.631	56.46
398.759	68.46
398.887	54.46
399.015	34.46
399.143	55.46
399.271	54.46
399.399	67.46
399.526	68.46
399.654	92.46
399.782	56.46
399.91	104.46
400.038	96.46
400.166	57.46
400.294	81.46
400.422	111.46
400.55	126.46
400.678	115.46
400.805	105.46
400.933	125.46
401.061	110.46
401.189	108.46
401.317	142.46
401.445	96.46
401.573	67.46
401.7	45.46
401.828	57.46
401.956	44.46
402.084	37.46
402.212	22.46
402.34	31.46
402.467	56.46
402.595	43.46
402.723	30.46
402.851	70.46
402.978	57.46
403.106	74.46
403.234	83.46
403.362	111.46
403.489	130.46
403.617	144.46
403.745	182.46
403.873	270.46
404	583.46
404.128	1492.46
404.256	3996.46
404.384	5156.46
404.511	5526.46
404.639	7243.46
404.767	11534.46
404.894	14704.46
405.022	4965.46
405.15	1346.46
405.277	435.46
405.405	241.46
405.533	135.46
405.66	121.46
405.788	54.46
405.916	75.46
406.043	43.46
406.171	55.46
406.299	67.46
406.426	61.46
406.554	50.46
406.681	73.46
406.809	58.46
406.937	80.46
407.064	77.46
407.192	145.46
407.319	321.46
407.447	511.46
407.574	556.46
407.702	646.46
407.83	876.46
407.957	1611.46
408.085	952.46
408.212	279.46
408.34	89.46
408.467	50.46
408.595	40.46
408.722	64.46
408.85	49.46
408.977	38.46
409.105	40.46
409.232	29.46
409.36	41.46
409.487	35.46
409.615	35.46
409.742	28.46
409.87	7.46
409.997	28.46
410.125	59.46
410.252	51.46
410.379	41.46
410.507	27.46
410.634	24.46
410.762	39.46
410.889	36.46
411.017	26.46
411.144	37.46
411.271	8.46
411.399	38.46
411.526	28.46
411.653	20.46
411.781	39.46
411.908	25.46
412.036	12.46
412.163	26.46
412.29	37.46
412.418	28.46
412.545	36.46
412.672	34.46
412.8	45.46
412.927	28.46
413.054	34.46
413.182	36.46
413.309	31.46
413.436	20.46
413.564	21.46
413.691	27.46
413.818	28.46
413.945	20.46
414.073	28.46
414.2	30.46
414.327	21.46
414.454	19.46
414.582	33.46
414.709	0.46
414.836	17.46
414.963	19.46
415.091	23.46
415.218	26.46
415.345	30.46
415.472	27.46
415.6	15.46
415.727	23.46
415.854	45.46
415.981	17.46
416.108	17.46
416.236	25.46
416.363	33.46
416.49	29.46
416.617	37.46
416.744	39.46
416.871	29.46
416.998	37.46
417.126	28.46
417.253	27.46
417.38	18.46
417.507	28.46
417.634	22.46
417.761	20.46
417.888	29.46
418.015	35.46
418.143	35.46
418.27	48.46
418.397	37.46
418.524	15.46
418.651	24.46
418.778	34.46
418.905	35.46
419.032	39.46
419.159	47.46
419.286	54.46
419.413	47.46
419.54	47.46
419.667	29.46
419.794	43.46
419.921	39.46
420.048	50.46
420.175	32.46
420.302	46.46
420.429	55.46
420.556	56.46
420.683	39.46
420.81	60.46
420.937	73.46
421.064	84.46
421.191	57.46
421.318	61.46
421.445	85.46
421.572	55.46
421.699	52.46
421.826	44.46
421.953	41.46
422.08	25.46
422.207	17.46
422.334	14.46
422.461	40.46
422.588	16.46
422.714	16.46
422.841	21.46
422.968	26.46
423.095	11.46
423.222	19.46
423.349	19.46
423.476	17.46
423.603	16.46
423.729	-1.54
423.856	11.46
423.983	37.46
424.11	24.46
424.237	29.46
424.364	29.46
424.491	15.46
424.617	25.46
424.744	29.46
424.871	32.46
424.998	28.46
425.125	12.46
425.251	13.46
425.378	8.46
425.505	25.46
425.632	5.46
425.758	17.46
425.885	22.46
426.012	22.46
426.139	37.46
426.266	25.46
426.392	32.46
426.519	14.46
426.646	1.46
426.772	33.46
426.899	17.46
427.026	18.46
427.153	26.46
427.279	31.46
427.406	34.46
427.533	7.46
427.659	12.46
427.786	32.46
427.913	38.46
428.039	25.46
428.166	17.46
428.293	12.46
428.419	30.46
428.546	15.46
428.673	-0.54
428.799	32.46
428.926	21.46
429.053	47.46
429.179	34.46
429.306	21.46
429.433	37.46
429.559	40.46
429.686	15.46
429.812	0.46
429.939	11.46
430.066	14.46
430.192	28.46
430.319	21.46
430.445	15.46
430.572	22.46
430.699	7.46
430.825	30.46
430.952	24.46
431.078	21.46
431.205	45.46
431.331	24.46
431.458	35.46
431.584	53.46
431.711	17.46
431.837	21.46
431.964	32.46
432.09	22.46
432.217	4.46
432.343	8.46
432.47	24.46
432.596	45.46
432.723	26.46
432.849	23.46
432.976	42.46
433.102	23.46
433.229	36.46
433.355	48.46
433.482	80.46
433.608	103.46
433.735	107.46
433.861	99.46
433.987	162.46
434.114	201.46
434.24	168.46
434.367	207.46
434.493	207.46
434.62	278.46
434.746	386.46
434.872	626.46
434.999	845.46
435.125	1741.46
435.252	5577.46
435.378	13492.46
435.504	15256.46
435.631	15470.46
435.757	15681.46
435.883	15681.46
436.01	15681.46
436.136	15681.46
436.262	15681.46
436.389	3490.46
436.515	2438.46
436.641	855.46
436.768	632.46
436.894	418.46
437.02	402.46
437.147	310.46
437.273	304.46
437.399	227.46
437.526	248.46
437.652	173.46
437.778	207.46
437.904	165.46
438.031	161.46
438.157	131.46
438.283	159.46
438.409	110.46
438.536	99.46
438.662	112.46
438.788	107.46
438.914	111.46
439.041	126.46
439.167	106.46
439.293	108.46
439.419	108.46
439.546	94.46
439.672	97.46
439.798	91.46
439.924	90.46
440.05	104.46
440.177	82.46
440.303	54.46
440.429	62.46
440.555	74.46
440.681	58.46
440.807	53.46
440.934	49.46
441.06	63.46
441.186	54.46
441.312	53.46
441.438	63.46
441.564	71.46
441.69	43.46
441.816	49.46
441.943	55.46
442.069	48.46
442.195	40.46
442.321	40.46
442.447	48.46
442.573	56.46
442.699	36.46
442.825	39.46
442.951	42.46
443.077	48.46
443.203	61.46
443.33	44.46
443.456	23.46
443.582	35.46
443.708	22.46
443.834	43.46
443.96	49.46
444.086	48.46
444.212	65.46
444.338	63.46
444.464	35.46
444.59	47.46
444.716	25.46
444.842	30.46
444.968	15.46
445.094	28.46
445.22	41.46
445.346	9.46
445.472	34.46
445.598	22.46
445.724	20.46
445.85	36.46
445.976	36.46
446.102	34.46
446.228	31.46
446.354	43.46
446.48	28.46
446.605	34.46
446.731	46.46
446.857	12.46
446.983	29.46
447.109	36.46
447.235	30.46
447.361	30.46
447.487	41.46
447.613	42.46
447.739	32.46
447.865	29.46
447.99	38.46
448.116	35.46
448.242	48.46
448.368	27.46
448.494	20.46
448.62	26.46
448.746	31.46
448.872	33.46
448.997	28.46
449.123	18.46
449.249	20.46
449.375	31.46
449.501	6.46
449.627	26.46
449.752	50.46
449.878	23.46
450.004	18.46
450.13	42.46
450.256	27.46
450.381	25.46
450.507	33.46
450.633	20.46
450.759	34.46
450.884	18.46
451.01	22.46
451.136	20.46
451.262	24.46
451.388	26.46
451.513	15.46
451.639	35.46
451.765	40.46
451.89	28.46
452.016	23.46
452.142	13.46
452.268	16.46
452.393	31.46
452.519	32.46
452.645	40.46
452.771	15.46
452.896	18.46
453.022	4.46
453.148	45.46
453.273	27.46
453.399	32.46
453.525	17.46
453.65	23.46
453.776	35.46
453.902	41.46
454.027	39.46
454.153	28.46
454.279	39.46
454.404	24.46
454.53	36.46
454.656	50.46
454.781	15.46
454.907	31.46
455.032	18.46
455.158	44.46
455.284	48.46
455.409	29.46
455.535	33.46
455.66	21.46
455.786	32.46
455.912	28.46
456.037	17.46
456.163	19.46
456.288	28.46
456.414	18.46
456.539	19.46
456.665	33.46
456.791	30.46
456.916	17.46
457.042	17.46
457.167	18.46
457.293	21.46
457.418	12.46
457.544	16.46
457.669	25.46
457.795	29.46
457.92	27.46
458.046	20.46
458.171	24.46
458.297	10.46
458.422	10.46
458.548	6.46
458.673	19.46
458.799	15.46
458.924	8.46
459.05	30.46
459.175	16.46
459.301	25.46
459.426	30.46
459.552	43.46
459.677	33.46
459.803	29.46
459.928	18.46
460.053	21.46
460.179	38.46
460.304	29.46
460.43	9.46
460.555	24.46
460.681	30.46
460.806	28.46
460.931	29.46
461.057	25.46
461.182	27.46
461.308	28.46
461.433	15.46
461.558	20.46
461.684	33.46
461.809	41.46
461.934	13.46
462.06	8.46
462.185	12.46
462.311	34.46
462.436	31.46
462.561	30.46
462.687	13.46
462.812	32.46
462.937	11.46
463.063	6.46
463.188	9.46
463.313	13.46
463.439	15.46
463.564	27.46
463.689	24.46
463.814	33.46
463.94	18.46
464.065	19.46
464.19	27.46
464.316	19.46
464.441	6.46
464.566	18.46
464.692	29.46
464.817	35.46
464.942	18.46
465.067	16.46
465.193	21.46
465.318	31.46
465.443	42.46
465.568	13.46
465.694	37.46
465.819	43.46
465.944	44.46
466.069	32.46
466.194	23.46
466.32	34.46
466.445	27.46
466.57	30.46
466.695	27.46
466.82	32.46
466.946	49.46
467.071	26.46
467.196	20.46
467.321	53.46
467.446	31.46
467.572	27.46
467.697	33.46
467.822	59.46
467.947	41.46
468.072	21.46
468.197	30.46
468.323	8.46
468.448	8.46
468.573	10.46
468.698	21.46
468.823	30.46
468.948	39.46
469.073	37.46
469.198	45.46
469.324	56.46
469.449	39.46
469.574	62.46
469.699	59.46
469.824	33.46
469.949	32.46
470.074	43.46
470.199	59.46
470.324	35.46
470.449	20.46
470.574	21.46
470.7	27.46
470.825	39.46
470.95	46.46
471.075	36.46
471.2	44.46
471.325	57.46
471.45	35.46
471.575	14.46
471.7	43.46
471.825	18.46
471.95	28.46
472.075	36.46
472.2	26.46
472.325	31.46
472.45	18.46
472.575	23.46
472.7	31.46
472.825	35.46
472.95	32.46
473.075	19.46
473.2	30.46
473.325	40.46
473.45	53.46
473.575	48.46
473.7	49.46
473.825	37.46
473.95	36.46
474.075	57.46
474.2	16.46
474.325	12.46
474.45	31.46
474.574	32.46
474.699	17.46
474.824	29.46
474.949	16.46
475.074	14.46
475.199	27.46
475.324	36.46
475.449	23.46
475.574	32.46
475.699	37.46
475.824	14.46
475.949	27.46
476.073	23.46
476.198	8.46
476.323	13.46
476.448	19.46
476.573	11.46
476.698	23.46
476.823	38.46
476.947	30.46
477.072	20.46
477.197	13.46
477.322	14.46
477.447	11.46
477.572	19.46
477.697	10.46
477.821	7.46
477.946	29.46
478.071	36.46
478.196	28.46
478.321	24.46
478.445	3.46
478.57	10.46
478.695	8.46
478.82	28.46
478.945	11.46
479.069	8.46
479.194	12.46
479.319	19.46
479.444	27.46
479.569	10.46
479.693	14.46
479.818	29.46
479.943	34.46
480.068	6.46
480.192	25.46
480.317	35.46
480.442	22.46
480.567	22.46
480.691	19.46
480.816	25.46
480.941	6.46
481.066	15.46
481.19	22.46
481.315	23.46
481.44	10.46
481.564	9.46
481.689	23.46
481.814	34.46
481.938	36.46
482.063	2.46
482.188	14.46
482.313	18.46
482.437	-0.54
482.562	25.46
482.687	20.46
482.811	7.46
482.936	18.46
483.061	25.46
483.185	23.46
483.31	27.46
483.435	11.46
483.559	2.46
483.684	30.46
483.808	34.46
483.933	24.46
484.058	24.46
484.182	23.46
484.307	35.46
484.432	17.46
484.556	6.46
484.681	7.46
484.805	22.46
484.93	26.46
485.055	21.46
485.179	56.46
485.304	30.46
485.428	21.46
485.553	18.46
485.678	44.46
485.802	28.46
485.927	51.46
486.051	36.46
486.176	28.46
486.3	7.46
486.425	21.46
486.549	29.46
486.674	37.46
486.799	13.46
486.923	15.46
487.048	17.46
487.172	16.46
487.297	18.46
487.421	34.46
487.546	29.46
487.67	39.46
487.795	24.46
487.919	26.46
488.044	27.46
488.168	21.46
488.293	12.46
488.417	3.46
488.542	23.46
488.666	23.46
488.791	10.46
488.915	30.46
489.04	19.46
489.164	21.46
489.289	23.46
489.413	2.46
489.538	1.46
489.662	26.46
489.786	7.46
489.911	33.46
490.035	12.46
490.16	-1.54
490.284	7.46
490.409	-0.54
490.533	15.46
490.658	39.46
490.782	20.46
490.906	38.46
491.031	100.46
491.155	151.46
491.28	146.46
491.404	175.46
491.528	242.46
491.653	147.46
491.777	62.46
491.902	25.46
492.026	42.46
492.15	39.46
492.275	33.46
492.399	35.46
492.524	15.46
492.648	28.46
492.772	29.46
492.897	18.46
493.021	8.46
493.145	38.46
493.27	31.46
493.394	26.46
493.518	16.46
493.643	5.46
493.767	21.46
493.891	-9.54
494.016	-5.54
494.14	4.46
494.264	18.46
494.389	32.46
494.513	20.46
494.637	17.46
494.762	40.46
494.886	34.46
495.01	15.46
495.134	19.46
495.259	7.46
495.383	14.46
495.507	8.46
495.632	44.46
495.756	30.46
495.88	26.46
496.004	13.46
496.129	14.46
496.253	16.46
496.377	12.46
496.501	44.46
496.626	4.46
496.75	40.46
496.874	26.46
496.998	24.46
497.123	43.46
497.247	35.46
497.371	7.46
497.495	-0.54
497.62	30.46
497.744	11.46
497.868	9.46
497.992	28.46
498.116	6.46
498.241	24.46
498.365	29.46
498.489	8.46
498.613	34.46
498.737	15.46
498.862	26.46
498.986	-11.54
499.11	14.46
499.234	6.46
499.358	21.46
499.482	18.46
499.607	23.46
499.731	13.46
499.855	12.46
499.979	17.46
500.103	40.46
500.227	33.46
500.351	24.46
500.476	20.46
500.6	26.46
500.724	28.46
500.848	14.46
500.972	18.46
501.096	28.46
501.22	24.46
501.344	6.46
501.469	5.46
501.593	37.46
501.717	38.46
501.841	34.46
501.965	30.46
502.089	29.46
502.213	6.46
502.337	15.46
502.461	23.46
502.585	18.46
502.709	29.46
502.834	13.46
502.958	21.46
503.082	32.46
503.206	34.46
503.33	31.46
503.454	22.46
503.578	19.46
503.702	30.46
503.826	7.46
503.95	30.46
504.074	-1.54
504.198	11.46
504.322	15.46
504.446	0.46
504.57	13.46
504.694	16.46
504.818	9.46
504.942	28.46
505.066	20.46
505.19	21.46
505.314	30.46
505.438	11.46
505.562	12.46
505.686	28.46
505.81	3.46
505.934	15.46
506.058	22.46
506.182	29.46
506.306	34.46
506.43	23.46
506.554	16.46
506.678	11.46
506.802	28.46
506.926	25.46
507.05	18.46
507.174	24.46
507.298	30.46
507.422	13.46
507.546	24.46
507.67	28.46
507.794	11.46
507.918	37.46
508.042	20.46
508.165	5.46
508.289	28.46
508.413	27.46
508.537	12.46
508.661	28.46
508.785	22.46
508.909	20.46
509.033	13.46
509.157	25.46
509.281	18.46
509.405	24.46
509.528	37.46
509.652	39.46
509.776	28.46
509.9	37.46
510.024	29.46
510.148	18.46
510.272	27.46
510.396	44.46
510.519	17.46
510.643	39.46
510.767	38.46
510.891	40.46
511.015	37.46
511.139	42.46
511.263	36.46
511.386	43.46
511.51	30.46
511.634	43.46
511.758	24.46
511.882	43.46
512.006	48.46
512.129	47.46
512.253	83.46
512.377	78.46
512.501	87.46
512.625	88.46
512.748	95.46
512.872	61.46
512.996	44.46
513.12	60.46
513.244	52.46
513.367	67.46
513.491	52.46
513.615	79.46
513.739	85.46
513.862	80.46
513.986	92.46
514.11	102.46
514.234	103.46
514.358	126.46
514.481	99.46
514.605	95.46
514.729	122.46
514.853	124.46
514.976	96.46
515.1	89.46
515.224	95.46
515.348	106.46
515.471	74.46
515.595	110.46
515.719	138.46
515.842	234.46
515.966	288.46
516.09	300.46
516.214	306.46
516.337	314.46
516.461	228.46
516.585	80.46
516.708	55.46
516.832	30.46
516.956	24.46
517.08	19.46
517.203	23.46
517.327	28.46
517.451	31.46
517.574	36.46
517.698	14.46
517.822	14.46
517.945	18.46
518.069	23.46
518.193	38.46
518.316	25.46
518.44	17.46
518.564	-5.54
518.687	17.46
518.811	22.46
518.935	36.46
519.058	18.46
519.182	18.46
519.306	20.46
519.429	9.46
519.553	47.46
519.676	28.46
519.8	26.46
519.924	2.46
520.047	15.46
520.171	11.46
520.294	29.46
520.418	34.46
520.542	24.46
520.665	16.46
520.789	18.46
520.913	0.46
521.036	-7.54
521.16	-8.54
521.283	6.46
521.407	15.46
521.53	0.46
521.654	-9.54
521.778	25.46
521.901	9.46
522.025	22.46
522.148	2.46
522.272	20.46
522.395	12.46
522.519	18.46
522.643	26.46
522.766	25.46
522.89	16.46
523.013	27.46
523.137	2.46
523.26	6.46
523.384	26.46
523.507	4.46
523.631	10.46
523.754	3.46
523.878	12.46
524.002	23.46
524.125	15.46
524.249	-8.54
524.372	9.46
524.496	19.46
524.619	21.46
524.743	18.46
524.866	11.46
524.99	26.46
525.113	-4.54
525.237	22.46
525.36	26.46
525.484	17.46
525.607	8.46
525.731	-3.54
525.854	18.46
525.978	34.46
526.101	6.46
526.224	-6.54
526.348	4.46
526.471	-4.54
526.595	14.46
526.718	2.46
526.842	3.46
526.965	29.46
527.089	9.46
527.212	8.46
527.336	34.46
527.459	24.46
527.582	10.46
527.706	20.46
527.829	21.46
527.953	32.46
528.076	3.46
528.2	-0.54
528.323	12.46
528.446	25.46
528.57	6.46
528.693	22.46
528.817	8.46
528.94	16.46
529.064	31.46
529.187	2.46
529.31	36.46
529.434	26.46
529.557	19.46
529.68	8.46
529.804	10.46
529.927	2.46
530.051	10.46
530.174	6.46
530.297	29.46
530.421	28.46
530.544	31.46
530.668	29.46
530.791	8.46
530.914	16.46
531.038	2.46
531.161	10.46
531.284	4.46
531.408	3.46
531.531	18.46
531.654	11.46
531.778	24.46
531.901	21.46
532.024	20.46
532.148	-0.54
532.271	11.46
532.394	10.46
532.518	28.46
532.641	7.46
532.764	25.46
532.888	7.46
533.011	-8.54
533.134	-7.54
533.258	24.46
533.381	0.46
533.504	6.46
533.628	8.46
533.751	19.46
533.874	5.46
533.997	19.46
534.121	24.46
534.244	11.46
534.367	-1.54
534.491	3.46
534.614	16.46
534.737	2.46
534.86	18.46
534.984	31.46
535.107	27.46
535.23	8.46
535.354	19.46
535.477	-0.54
535.6	23.46
535.723	27.46
535.847	23.46
535.97	24.46
536.093	14.46
536.216	-3.54
536.34	23.46
536.463	2.46
536.586	19.46
536.709	27.46
536.833	14.46
536.956	8.46
537.079	24.46
537.202	18.46
537.325	17.46
537.449	8.46
537.572	19.46
537.695	14.46
537.818	8.46
537.941	9.46
538.065	19.46
538.188	22.46
538.311	16.46
538.434	19.46
538.558	12.46
538.681	26.46
538.804	17.46
538.927	18.46
539.05	21.46
539.173	6.46
539.297	15.46
539.42	10.46
539.543	18.46
539.666	31.46
539.789	32.46
539.913	18.46
540.036	20.46
540.159	40.46
540.282	24.46
540.405	21.46
540.528	8.46
540.651	20.46
540.775	10.46
540.898	26.46
541.021	30.46
541.144	29.46
541.267	20.46
541.39	16.46
541.513	45.46
541.637	10.46
541.76	30.46
541.883	28.46
542.006	33.46
542.129	30.46
542.252	35.46
542.375	55.46
542.498	46.46
542.622	55.46
542.745	36.46
542.868	47.46
542.991	54.46
543.114	48.46
543.237	58.46
543.36	51.46
543.483	43.46
543.606	72.46
543.73	96.46
543.853	78.46
543.976	87.46
544.099	99.46
544.222	119.46
544.345	131.46
544.468	153.46
544.591	223.46
544.714	274.46
544.837	341.46
544.96	460.46
545.083	666.46
545.206	1083.46
545.329	2492.46
545.453	11032.46
545.576	15273.46
545.699	15681.46
545.822	15681.46
545.945	15681.46
546.068	15681.46
546.191	15681.46
546.314	15681.46
546.437	15681.46
546.56	15681.46
546.683	15681.46
546.806	15681.46
546.929	15681.46
547.052	15681.46
547.175	15681.46
547.298	15681.46
547.421	15681.46
547.544	15681.46
547.667	3806.46
547.79	4112.46
547.913	1341.46
548.036	962.46
548.159	648.46
548.282	652.46
548.405	502.46
548.528	514.46
548.651	384.46
548.774	398.46
548.897	334.46
549.02	378.46
549.143	302.46
549.266	320.46
549.389	267.46
549.512	284.46
549.635	267.46
549.758	239.46
549.881	229.46
550.004	238.46
550.127	203.46
550.25	192.46
550.373	163.46
550.496	197.46
550.619	160.46
550.742	152.46
550.865	151.46
550.988	155.46
551.111	159.46
551.234	156.46
551.356	119.46
551.479	120.46
551.602	114.46
551.725	132.46
551.848	140.46
551.971	138.46
552.094	110.46
552.217	122.46
552.34	104.46
552.463	106.46
552.586	99.46
552.709	103.46
552.832	102.46
552.955	106.46
553.077	115.46
553.2	103.46
553.323	73.46
553.446	96.46
553.569	78.46
553.692	100.46
553.815	101.46
553.938	108.46
554.061	100.46
554.184	101.46
554.306	95.46
554.429	82.46
554.552	80.46
554.675	82.46
554.798	75.46
554.921	75.46
555.044	67.46
555.167	71.46
555.29	66.46
555.412	59.46
555.535	79.46
555.658	83.46
555.781	74.46
555.904	75.46
556.027	53.46
556.15	82.46
556.272	69.46
556.395	83.46
556.518	65.46
556.641	83.46
556.764	79.46
556.887	74.46
557.01	87.46
557.132	57.46
557.255	68.46
557.378	71.46
557.501	57.46
557.624	81.46
557.747	68.46
557.869	85.46
557.992	102.46
558.115	102.46
558.238	94.46
558.361	86.46
558.483	119.46
558.606	77.46
558.729	47.46
558.852	65.46
558.975	64.46
559.098	72.46
559.22	62.46
559.343	46.46
559.466	58.46
559.589	45.46
559.712	47.46
559.834	58.46
559.957	20.46
560.08	48.46
560.203	54.46
560.325	64.46
560.448	60.46
560.571	69.46
560.694	43.46
560.817	55.46
560.939	45.46
561.062	58.46
561.185	57.46
561.308	66.46
561.43	59.46
561.553	70.46
561.676	34.46
561.799	69.46
561.921	58.46
562.044	59.46
562.167	52.46
562.29	71.46
562.413	70.46
562.535	70.46
562.658	43.46
562.781	48.46
562.903	66.46
563.026	76.46
563.149	141.46
563.272	111.46
563.394	119.46
563.517	82.46
563.64	67.46
563.763	48.46
563.885	63.46
564.008	73.46
564.131	57.46
564.254	35.46
564.376	46.46
564.499	25.46
564.622	40.46
564.744	57.46
564.867	41.46
564.99	45.46
565.113	34.46
565.235	23.46
565.358	21.46
565.481	17.46
565.603	31.46
565.726	42.46
565.849	33.46
565.971	54.46
566.094	35.46
566.217	51.46
566.34	22.46
566.462	29.46
566.585	32.46
566.708	44.46
566.83	29.46
566.953	42.46
567.076	24.46
567.198	44.46
567.321	38.46
567.444	44.46
567.566	35.46
567.689	31.46
567.812	27.46
567.934	24.46
568.057	35.46
568.18	52.46
568.302	23.46
568.425	32.46
568.548	30.46
568.67	49.46
568.793	27.46
568.916	23.46
569.038	34.46
569.161	27.46
569.283	49.46
569.406	19.46
569.529	26.46
569.651	18.46
569.774	24.46
569.897	28.46
570.019	47.46
570.142	33.46
570.265	37.46
570.387	41.46
570.51	40.46
570.632	41.46
570.755	14.46
570.878	19.46
571	46.46
571.123	50.46
571.246	58.46
571.368	22.46
571.491	34.46
571.613	20.46
571.736	12.46
571.859	18.46
571.981	18.46
572.104	24.46
572.226	32.46
572.349	28.46
572.472	23.46
572.594	24.46
572.717	29.46
572.839	28.46
572.962	18.46
573.085	38.46
573.207	29.46
573.33	36.46
573.452	31.46
573.575	31.46
573.697	35.46
573.82	19.46
573.943	20.46
574.065	33.46
574.188	45.46
574.31	63.46
574.433	35.46
574.555	54.46
574.678	37.46
574.801	36.46
574.923	12.46
575.046	40.46
575.168	22.46
575.291	47.46
575.413	39.46
575.536	30.46
575.659	77.46
575.781	53.46
575.904	62.46
576.026	84.46
576.149	94.46
576.271	127.46
576.394	222.46
576.516	555.46
576.639	3690.46
576.761	10284.46
576.884	8944.46
577.007	8955.46
577.129	8166.46
577.252	3799.46
577.374	1317.46
577.497	512.46
577.619	283.46
577.742	166.46
577.864	159.46
577.987	118.46
578.109	137.46
578.232	131.46
578.354	148.46
578.477	194.46
578.599	399.46
578.722	1972.46
578.844	9198.46
578.967	9978.46
579.089	8853.46
579.212	9176.46
579.334	5331.46
579.457	1950.46
579.579	743.46
579.702	327.46
579.824	199.46
579.947	133.46
580.069	118.46
580.192	92.46
580.314	96.46
580.437	63.46
580.559	96.46
580.682	60.46
580.804	66.46
580.927	68.46
581.049	72.46
581.172	47.46
581.294	44.46
581.417	45.46
581.539	34.46
581.662	53.46
581.784	51.46
581.907	46.46
582.029	57.46
582.152	26.46
582.274	28.46
582.396	42.46
582.519	47.46
582.641	35.46
582.764	29.46
582.886	40.46
583.009	26.46
583.131	19.46
583.254	27.46
583.376	50.46
583.499	49.46
583.621	53.46
583.743	41.46
583.866	32.46
583.988	22.46
584.111	32.46
584.233	28.46
584.356	42.46
584.478	21.46
584.601	7.46
584.723	16.46
584.845	55.46
584.968	27.46
585.09	12.46
585.213	28.46
585.335	29.46
585.458	20.46
585.58	35.46
585.702	40.46
585.825	44.46
585.947	13.46
586.07	22.46
586.192	26.46
586.315	25.46
586.437	30.46
586.559	7.46
586.682	18.46
586.804	30.46
586.927	7.46
587.049	24.46
587.171	30.46
587.294	28.46
587.416	36.46
587.539	38.46
587.661	27.46
587.783	18.46
587.906	26.46
588.028	36.46
588.151	19.46
588.273	27.46
588.395	21.46
588.518	30.46
588.64	32.46
588.763	41.46
588.885	41.46
589.007	26.46
589.13	-2.54
589.252	4.46
589.375	18.46
589.497	13.46
589.619	19.46
589.742	38.46
589.864	38.46
589.986	34.46
590.109	-10.54
590.231	18.46
590.354	34.46
590.476	9.46
590.598	11.46
590.721	13.46
590.843	26.46
590.965	16.46
591.088	39.46
591.21	30.46
591.332	31.46
591.455	3.46
591.577	-0.54
591.7	15.46
591.822	34.46
591.944	24.46
592.067	19.46
592.189	31.46
592.311	41.46
592.434	23.46
592.556	27.46
592.678	22.46
592.801	20.46
592.923	12.46
593.045	16.46
593.168	35.46
593.29	22.46
593.412	37.46
593.535	24.46
593.657	23.46
593.779	15.46
593.902	27.46
594.024	27.46
594.146	27.46
594.269	40.46
594.391	20.46
594.513	24.46
594.636	12.46
594.758	9.46
594.88	55.46
595.003	36.46
595.125	10.46
595.247	20.46
595.37	33.46
595.492	8.46
595.614	28.46
595.737	18.46
595.859	11.46
595.981	34.46
596.104	21.46
596.226	14.46
596.348	20.46
596.471	13.46
596.593	19.46
596.715	25.46
596.838	23.46
596.96	8.46
597.082	27.46
597.204	35.46
597.327	20.46
597.449	23.46
597.571	19.46
597.694	53.46
597.816	18.46
597.938	20.46
598.061	19.46
598.183	24.46
598.305	26.46
598.427	25.46
598.55	19.46
598.672	47.46
598.794	43.46
598.917	20.46
599.039	27.46
599.161	39.46
599.283	24.46
599.406	29.46
599.528	32.46
599.65	40.46
599.773	34.46
599.895	40.46
600.017	18.46
600.139	12.46
600.262	16.46
600.384	35.46
600.506	25.46
600.628	22.46
600.751	30.46
600.873	38.46
600.995	12.46
601.118	30.46
601.24	23.46
601.362	42.46
601.484	22.46
601.607	35.46
601.729	18.46
601.851	38.46
601.973	10.46
602.096	23.46
602.218	19.46
602.34	17.46
602.462	20.46
602.585	30.46
602.707	3.46
602.829	22.46
602.951	24.46
603.074	7.46
603.196	18.46
603.318	18.46
603.44	24.46
603.563	6.46
603.685	13.46
603.807	20.46
603.929	18.46
604.052	30.46
604.174	23.46
604.296	28.46
604.418	41.46
604.541	31.46
604.663	8.46
604.785	28.46
604.907	28.46
605.03	17.46
605.152	49.46
605.274	25.46
605.396	7.46
605.519	14.46
605.641	28.46
605.763	21.46
605.885	23.46
606.008	28.46
606.13	32.46
606.252	35.46
606.374	18.46
606.496	-9.54
606.619	6.46
606.741	17.46
606.863	18.46
606.985	22.46
607.108	27.46
607.23	9.46
607.352	11.46
607.474	27.46
607.596	24.46
607.719	7.46
607.841	16.46
607.963	6.46
608.085	-10.54
608.207	23.46
608.33	12.46
608.452	7.46
608.574	9.46
608.696	19.46
608.819	21.46
608.941	32.46
609.063	29.46
609.185	26.46
609.307	22.46
609.43	18.46
609.552	21.46
609.674	-3.54
609.796	12.46
609.918	18.46
610.041	21.46
610.163	25.46
610.285	27.46
610.407	36.46
610.529	16.46
610.652	4.46
610.774	13.46
610.896	23.46
611.018	14.46
611.14	22.46
611.263	5.46
611.385	3.46
611.507	21.46
611.629	21.46
611.751	25.46
611.873	49.46
611.996	28.46
612.118	20.46
612.24	28.46
612.362	29.46
612.484	37.46
612.607	35.46
612.729	53.46
612.851	44.46
612.973	23.46
613.095	23.46
613.218	27.46
613.34	34.46
613.462	33.46
613.584	31.46
613.706	10.46
613.828	40.46
613.951	25.46
614.073	2.46
614.195	2.46
614.317	40.46
614.439	29.46
614.561	26.46
614.684	33.46
614.806	18.46
614.928	28.46
615.05	27.46
615.172	32.46
615.294	23.46
615.417	24.46
615.539	24.46
615.661	31.46
615.783	32.46
615.905	25.46
616.027	24.46
616.15	34.46
616.272	4.46
616.394	7.46
616.516	15.46
616.638	4.46
616.76	22.46
616.883	8.46
617.005	6.46
617.127	16.46
617.249	18.46
617.371	7.46
617.493	-2.54
617.615	15.46
617.738	16.46
617.86	28.46
617.982	16.46
618.104	20.46
618.226	11.46
618.348	-7.54
618.471	4.46
618.593	24.46
618.715	4.46
618.837	15.46
618.959	5.46
619.081	26.46
619.203	9.46
619.326	22.46
619.448	25.46
619.57	26.46
619.692	42.46
619.814	32.46
619.936	19.46
620.058	22.46
620.181	13.46
620.303	12.46
620.425	20.46
620.547	3.46
620.669	3.46
620.791	25.46
620.913	16.46
621.036	8.46
621.158	27.46
621.28	31.46
621.402	2.46
621.524	9.46
621.646	20.46
621.768	15.46
621.891	5.46
622.013	11.46
622.135	10.46
622.257	16.46
622.379	18.46
622.501	19.46
622.623	29.46
622.745	7.46
622.868	24.46
622.99	14.46
623.112	23.46
623.234	16.46
623.356	27.46
623.478	12.46
623.6	13.46
623.722	9.46
623.845	0.46
623.967	18.46
624.089	22.46
624.211	15.46
624.333	32.46
624.455	28.46
624.577	23.46
624.699	27.46
624.822	24.46
624.944	7.46
625.066	18.46
625.188	14.46
625.31	28.46
625.432	34.46
625.554	19.46
625.676	38.46
625.799	21.46
625.921	34.46
626.043	28.46
626.165	23.46
626.287	-3.54
626.409	2.46
626.531	11.46
626.653	7.46
626.775	10.46
626.898	24.46
627.02	30.46
627.142	28.46
627.264	15.46
627.386	24.46
627.508	24.46
627.63	14.46
627.752	9.46
627.874	12.46
627.997	40.46
628.119	23.46
628.241	15.46
628.363	24.46
628.485	20.46
628.607	19.46
628.729	3.46
628.851	11.46
628.973	7.46
629.096	-1.54
629.218	15.46
629.34	18.46
629.462	18.46
629.584	7.46
629.706	8.46
629.828	31.46
629.95	18.46
630.072	11.46
630.195	-2.54
630.317	25.46
630.439	10.46
630.561	35.46
630.683	-2.54
630.805	13.46
630.927	11.46
631.049	8.46
631.171	18.46
631.293	14.46
631.416	16.46
631.538	2.46
631.66	14.46
631.782	14.46
631.904	25.46
632.026	16.46
632.148	24.46
632.27	18.46
632.392	22.46
632.514	6.46
632.637	11.46
632.759	24.46
632.881	9.46
633.003	1.46
633.125	19.46
633.247	5.46
633.369	22.46
633.491	11.46
633.613	18.46
633.735	8.46
633.858	18.46
633.98	10.46
634.102	-5.54
634.224	0.46
634.346	22.46
634.468	19.46
634.59	-1.54
634.712	18.46
634.834	11.46
634.956	1.46
635.078	15.46
635.201	-12.54
635.323	28.46
635.445	6.46
635.567	-7.54
635.689	19.46
635.811	34.46
635.933	18.46
636.055	7.46
636.177	-2.54
636.299	15.46
636.421	11.46
636.544	-4.54
636.666	21.46
636.788	20.46
636.91	28.46
637.032	-4.54
637.154	20.46
637.276	40.46
637.398	32.46
637.52	19.46
637.642	15.46
637.764	16.46
637.887	2.46
638.009	22.46
638.131	7.46
638.253	15.46
638.375	16.46
638.497	3.46
638.619	2.46
638.741	21.46
638.863	-15.54
638.985	6.46
639.107	9.46
639.23	6.46
639.352	12.46
639.474	14.46
639.596	15.46
639.718	25.46
639.84	5.46
639.962	-5.54
640.084	16.46
640.206	13.46
640.328	7.46
640.45	5.46
640.573	14.46
640.695	13.46
640.817	19.46
640.939	22.46
641.061	14.46
641.183	26.46
641.305	12.46
641.427	22.46
641.549	10.46
641.671	17.46
641.793	1.46
641.915	27.46
642.038	14.46
642.16	2.46
642.282	-0.54
642.404	-4.54
642.526	14.46
642.648	22.46
642.77	2.46
642.892	8.46
643.014	22.46
643.136	16.46
643.258	30.46
643.381	33.46
643.503	29.46
643.625	0.46
643.747	2.46
643.869	-12.54
643.991	0.46
644.113	10.46
644.235	-3.54
644.357	10.46
644.479	36.46
644.601	3.46
644.723	3.46
644.846	27.46
644.968	18.46
645.09	14.46
645.212	3.46
645.334	8.46
645.456	13.46
645.578	18.46
645.7	11.46
645.822	16.46
645.944	26.46
646.066	2.46
646.188	19.46
646.311	20.46
646.433	7.46
646.555	27.46
646.677	15.46
646.799	-11.54
646.921	18.46
647.043	28.46
647.165	-3.54
647.287	7.46
647.409	7.46
647.531	29.46
647.654	0.46
647.776	20.46
647.898	15.46
648.02	8.46
648.142	-7.54
648.264	14.46
648.386	18.46
648.508	18.46
648.63	20.46
648.752	17.46
648.874	-1.54
648.997	2.46
649.119	12.46
649.241	1.46
649.363	12.46
649.485	14.46
649.607	12.46
649.729	7.46
649.851	16.46
649.973	8.46
650.095	-17.54
650.217	6.46
650.34	21.46
650.462	13.46
650.584	-2.54
650.706	19.46
650.828	11.46
650.95	4.46
651.072	8.46
651.194	-11.54
651.316	10.46
651.438	12.46
651.56	15.46
651.683	3.46
651.805	0.46
651.927	14.46
652.049	2.46
652.171	2.46
652.293	16.46
652.415	10.46
652.537	-5.54
652.659	4.46
652.781	25.46
652.903	27.46
653.026	23.46
653.148	11.46
653.27	3.46
653.392	14.46
653.514	2.46
653.636	2.46
653.758	12.46
653.88	2.46
654.002	-3.54
654.124	6.46
654.247	2.46
654.369	18.46
654.491	4.46
654.613	6.46
654.735	-1.54
654.857	23.46
654.979	17.46
655.101	19.46
655.223	38.46
655.345	15.46
655.468	12.46
655.59	21.46
655.712	19.46
655.834	2.46
655.956	26.46
656.078	7.46
656.2	15.46
656.322	-0.54
656.444	0.46
656.566	25.46
656.689	-0.54
656.811	26.46
656.933	22.46
657.055	2.46
657.177	9.46
657.299	1.46
657.421	4.46
657.543	9.46
657.665	4.46
657.787	-2.54
657.91	8.46
658.032	3.46
658.154	4.46
658.276	6.46
658.398	-12.54
658.52	6.46
658.642	28.46
658.764	11.46
658.886	-15.54
659.009	-0.54
659.131	24.46
659.253	12.46
659.375	10.46
659.497	29.46
659.619	5.46
659.741	0.46
659.863	5.46
659.985	-5.54
660.108	21.46
660.23	4.46
660.352	13.46
660.474	18.46
660.596	30.46
660.718	25.46
660.84	7.46
660.962	6.46
661.084	2.46
661.207	20.46
661.329	18.46
661.451	18.46
661.573	10.46
661.695	24.46
661.817	12.46
661.939	11.46
662.061	18.46
662.184	9.46
662.306	8.46
662.428	2.46
662.55	23.46
662.672	-2.54
662.794	6.46
662.916	22.46
663.038	24.46
663.161	28.46
663.283	20.46
663.405	23.46
663.527	21.46
663.649	10.46
663.771	-12.54
663.893	6.46
664.015	2.46
664.138	10.46
664.26	13.46
664.382	32.46
664.504	-13.54
664.626	-1.54
664.748	5.46
664.87	0.46
664.992	16.46
665.115	14.46
665.237	18.46
665.359	13.46
665.481	10.46
665.603	24.46
665.725	15.46
665.847	-9.54
665.97	-0.54
666.092	19.46
666.214	10.46
666.336	7.46
666.458	22.46
666.58	25.46
666.702	9.46
666.825	-4.54
666.947	-8.54
667.069	4.46
667.191	8.46
667.313	10.46
667.435	-8.54
667.557	-4.54
667.68	4.46
667.802	7.46
667.924	12.46
668.046	27.46
668.168	13.46
668.29	27.46
668.412	-4.54
668.535	11.46
668.657	10.46
668.779	8.46
668.901	11.46
669.023	12.46
669.145	-3.54
669.267	22.46
669.39	10.46
669.512	19.46
669.634	4.46
669.756	5.46
669.878	11.46
670	15.46
670.123	11.46
670.245	28.46
670.367	11.46
670.489	28.46
670.611	15.46
670.733	4.46
670.856	13.46
670.978	17.46
671.1	2.46
671.222	-1.54
671.344	-13.54
671.466	6.46
671.589	10.46
671.711	-7.54
671.833	-9.54
671.955	14.46
672.077	4.46
672.199	18.46
672.322	13.46
672.444	8.46
672.566	22.46
672.688	4.46
672.81	6.46
672.932	25.46
673.055	4.46
673.177	-3.54
673.299	9.46
673.421	-10.54
673.543	12.46
673.665	26.46
673.788	22.46
673.91	10.46
674.032	2.46
674.154	11.46
674.276	-0.54
674.399	-2.54
674.521	12.46
674.643	-1.54
674.765	5.46
674.887	10.46
675.009	14.46
675.132	2.46
675.254	-3.54
675.376	14.46
675.498	9.46
675.62	34.46
675.743	11.46
675.865	32.46
675.987	8.46
676.109	4.46
676.231	4.46
676.354	20.46
676.476	2.46
676.598	14.46
676.72	7.46
676.842	18.46
676.965	18.46
677.087	20.46
677.209	4.46
677.331	6.46
677.453	14.46
677.576	-5.54
677.698	5.46
677.82	-11.54
677.942	-3.54
678.064	-0.54
678.187	6.46
678.309	20.46
678.431	24.46
678.553	20.46
678.675	20.46
678.798	15.46
678.92	9.46
679.042	2.46
679.164	-1.54
679.286	23.46
679.409	21.46
679.531	0.46
679.653	-1.54
679.775	-2.54
679.898	3.46
680.02	-13.54
680.142	0.46
680.264	9.46
680.386	3.46
680.509	18.46
680.631	19.46
680.753	22.46
680.875	-3.54
680.998	5.46
681.12	8.46
681.242	7.46
681.364	4.46
681.486	7.46
681.609	2.46
681.731	8.46
681.853	14.46
681.975	7.46
682.098	23.46
682.22	20.46
682.342	15.46
682.464	9.46
682.587	19.46
682.709	15.46
682.831	0.46
682.953	10.46
683.076	12.46
683.198	-4.54
683.32	14.46
683.442	11.46
683.565	11.46
683.687	9.46
683.809	23.46
683.931	1.46
684.054	6.46
684.176	14.46
684.298	28.46
684.42	3.46
684.543	4.46
684.665	2.46
684.787	2.46
684.909	9.46
685.032	12.46
685.154	-3.54
685.276	0.46
685.398	-11.54
685.521	6.46
685.643	4.46
685.765	7.46
685.887	18.46
686.01	16.46
686.132	18.46
686.254	19.46
686.377	9.46
686.499	11.46
686.621	5.46
686.743	7.46
686.866	-7.54
686.988	19.46
687.11	8.46
687.232	6.46
687.355	-10.54
687.477	8.46
687.599	27.46
687.722	1.46
687.844	17.46
687.966	15.46
688.088	7.46
688.211	29.46
688.333	15.46
688.455	7.46
688.578	18.46
688.7	27.46
688.822	9.46
688.944	-3.54
689.067	39.46
689.189	11.46
689.311	-9.54
689.434	-3.54
689.556	15.46
689.678	12.46
689.801	-10.54
689.923	2.46
690.045	31.46
690.167	34.46
690.29	36.46
690.412	9.46
690.534	13.46
690.657	-12.54
690.779	10.46
690.901	24.46
691.024	12.46
691.146	15.46
691.268	11.46
691.391	16.46
691.513	11.46
691.635	33.46
691.758	26.46
691.88	28.46
692.002	-3.54
692.125	-7.54
692.247	6.46
692.369	5.46
692.492	-7.54
692.614	10.46
692.736	7.46
692.859	6.46
692.981	2.46
693.103	15.46
693.226	4.46
693.348	0.46
693.47	6.46
693.593	30.46
693.715	36.46
693.837	35.46
693.96	18.46
694.082	15.46
694.204	36.46
694.327	26.46
694.449	-5.54
694.571	4.46
694.694	15.46
694.816	24.46
694.938	7.46
695.061	25.46
695.183	14.46
695.305	10.46
695.428	-0.54
695.55	10.46
695.672	7.46
695.795	21.46
695.917	16.46
696.04	8.46
696.162	14.46
696.284	14.46
696.407	29.46
696.529	-0.54
696.651	13.46
696.774	-1.54
696.896	12.46
697.019	3.46
697.141	8.46
697.263	2.46
697.386	3.46
697.508	7.46
697.63	10.46
697.753	2.46
697.875	8.46
697.998	-0.54
698.12	2.46
698.242	6.46
698.365	3.46
698.487	27.46
698.61	14.46
698.732	11.46
698.854	27.46
698.977	9.46
699.099	30.46
699.221	10.46
699.344	2.46
699.466	12.46
699.589	13.46
699.711	-4.54
699.834	10.46
699.956	18.46
700.078	12.46
700.201	6.46
700.323	5.46
700.446	-0.54
700.568	-0.54
700.69	16.46
700.813	-7.54
700.935	9.46
701.058	7.46
701.18	2.46
701.302	18.46
701.425	11.46
701.547	19.46
701.67	26.46
701.792	7.46
701.915	7.46
702.037	-2.54
702.159	1.46
702.282	6.46
702.404	13.46
702.527	15.46
702.649	12.46
702.772	24.46
702.894	22.46
703.017	5.46
703.139	25.46
703.261	-1.54
703.384	29.46
703.506	-9.54
703.629	8.46
703.751	22.46
703.874	12.46
703.996	-5.54
704.119	-3.54
704.241	8.46
704.364	-16.54
704.486	2.46
704.608	13.46
704.731	22.46
704.853	10.46
704.976	-13.54
705.098	13.46
705.221	0.46
705.343	10.46
705.466	-1.54
705.588	13.46
705.711	21.46
705.833	23.46
705.956	6.46
706.078	13.46
706.201	10.46
706.323	20.46
706.446	15.46
