Data from LowRes_mercury_15_20_11_07_2024_HR4C61881__4__15-23-32-671.txt Node

Date: Thu Nov 07 15:23:32 EST 2024
User: crc00042
Spectrometer: HR4C6188
Trigger mode: 4
Integration Time (sec): 1.000000E-1
Scans to average: 1
Electric dark correction enabled: true
Nonlinearity correction enabled: false
Boxcar width: 0
XAxis mode: Wavelengths
Number of Pixels in Spectrum: 3648
>>>>>Begin Spectral Data<<<<<
245.66	-80.54
245.797	-80.54
245.934	-80.54
246.071	-64.54
246.208	2.46
246.344	9.46
246.481	-15.54
246.618	-18.54
246.755	4.46
246.892	-12.54
247.029	-1.54
247.165	-26.54
247.302	9.46
247.439	17.46
247.576	8.46
247.713	20.46
247.849	21.46
247.986	-16.54
248.123	-10.54
248.26	-5.54
248.396	6.46
248.533	16.46
248.67	-6.54
248.806	6.46
248.943	-27.54
249.08	-8.54
249.216	11.46
249.353	-18.54
249.49	-17.54
249.626	8.46
249.763	0.46
249.9	-11.54
250.036	4.46
250.173	9.46
250.309	2.46
250.446	-6.54
250.582	-0.54
250.719	-5.54
250.856	-21.54
250.992	-9.54
251.129	0.46
251.265	-3.54
251.402	-1.54
251.538	-1.54
251.675	-16.54
251.811	0.46
251.948	20.46
252.084	14.46
252.221	-7.54
252.357	-10.54
252.493	29.46
252.63	-15.54
252.766	-4.54
252.903	-7.54
253.039	-0.54
253.175	0.46
253.312	9.46
253.448	1.46
253.585	-10.54
253.721	0.46
253.857	0.46
253.994	5.46
254.13	3.46
254.266	-4.54
254.403	5.46
254.539	4.46
254.675	-10.54
254.811	3.46
254.948	-3.54
255.084	-8.54
255.22	-1.54
255.356	5.46
255.493	14.46
255.629	3.46
255.765	13.46
255.901	2.46
256.037	-11.54
256.174	-0.54
256.31	-18.54
256.446	-18.54
256.582	-17.54
256.718	5.46
256.854	-7.54
256.991	1.46
257.127	6.46
257.263	-7.54
257.399	14.46
257.535	-9.54
257.671	-15.54
257.807	-17.54
257.943	-28.54
258.079	-26.54
258.215	-12.54
258.351	18.46
258.487	5.46
258.623	35.46
258.759	-2.54
258.895	-3.54
259.031	-3.54
259.167	-16.54
259.303	10.46
259.439	-19.54
259.575	-27.54
259.711	-3.54
259.847	2.46
259.983	7.46
260.119	-5.54
260.255	-10.54
260.391	3.46
260.527	-4.54
260.663	-4.54
260.799	4.46
260.934	-3.54
261.07	0.46
261.206	-14.54
261.342	-11.54
261.478	4.46
261.614	2.46
261.749	-5.54
261.885	-8.54
262.021	13.46
262.157	-0.54
262.293	6.46
262.428	-11.54
262.564	-4.54
262.7	18.46
262.836	-6.54
262.971	-0.54
263.107	-3.54
263.243	16.46
263.378	1.46
263.514	-26.54
263.65	-1.54
263.785	-3.54
263.921	2.46
264.057	4.46
264.192	2.46
264.328	14.46
264.464	-15.54
264.599	13.46
264.735	5.46
264.871	-16.54
265.006	6.46
265.142	1.46
265.277	2.46
265.413	4.46
265.548	7.46
265.684	7.46
265.819	-2.54
265.955	6.46
266.091	-11.54
266.226	-13.54
266.362	-10.54
266.497	-0.54
266.633	-16.54
266.768	-4.54
266.903	12.46
267.039	6.46
267.174	16.46
267.31	-9.54
267.445	-1.54
267.581	2.46
267.716	5.46
267.851	6.46
267.987	20.46
268.122	16.46
268.258	-10.54
268.393	-14.54
268.528	7.46
268.664	-15.54
268.799	-20.54
268.934	3.46
269.07	-17.54
269.205	-1.54
269.34	14.46
269.476	2.46
269.611	-25.54
269.746	14.46
269.881	-2.54
270.017	2.46
270.152	-14.54
270.287	10.46
270.422	2.46
270.558	-14.54
270.693	4.46
270.828	-13.54
270.963	-9.54
271.098	-16.54
271.234	1.46
271.369	4.46
271.504	-14.54
271.639	-14.54
271.774	-4.54
271.909	5.46
272.045	-11.54
272.18	-3.54
272.315	-4.54
272.45	19.46
272.585	-12.54
272.72	8.46
272.855	-2.54
272.99	31.46
273.125	-8.54
273.26	-29.54
273.395	0.46
273.53	6.46
273.665	12.46
273.8	-1.54
273.935	26.46
274.07	5.46
274.205	21.46
274.34	-1.54
274.475	10.46
274.61	20.46
274.745	-13.54
274.88	21.46
275.015	-21.54
275.15	3.46
275.285	-1.54
275.42	9.46
275.555	10.46
275.69	-8.54
275.825	-5.54
275.959	17.46
276.094	-1.54
276.229	-19.54
276.364	10.46
276.499	1.46
276.634	4.46
276.768	5.46
276.903	2.46
277.038	25.46
277.173	7.46
277.308	2.46
277.442	-5.54
277.577	-15.54
277.712	-14.54
277.847	-1.54
277.981	-1.54
278.116	-28.54
278.251	-9.54
278.386	-0.54
278.52	2.46
278.655	-7.54
278.79	19.46
278.924	4.46
279.059	6.46
279.194	-13.54
279.328	30.46
279.463	10.46
279.598	14.46
279.732	1.46
279.867	10.46
280.001	9.46
280.136	-9.54
280.271	4.46
280.405	0.46
280.54	-3.54
280.674	-9.54
280.809	9.46
280.943	7.46
281.078	7.46
281.213	34.46
281.347	19.46
281.482	1.46
281.616	-10.54
281.751	-10.54
281.885	-12.54
282.02	9.46
282.154	8.46
282.288	-31.54
282.423	-14.54
282.557	-18.54
282.692	-4.54
282.826	0.46
282.961	-6.54
283.095	-1.54
283.229	-1.54
283.364	-19.54
283.498	0.46
283.633	14.46
283.767	-6.54
283.901	4.46
284.036	-2.54
284.17	-11.54
284.304	-18.54
284.439	-2.54
284.573	-5.54
284.707	29.46
284.842	-0.54
284.976	8.46
285.11	-1.54
285.244	9.46
285.379	28.46
285.513	-2.54
285.647	9.46
285.781	-5.54
285.916	22.46
286.05	4.46
286.184	22.46
286.318	11.46
286.453	-11.54
286.587	-8.54
286.721	4.46
286.855	10.46
286.989	1.46
287.123	-5.54
287.258	6.46
287.392	-1.54
287.526	2.46
287.66	2.46
287.794	4.46
287.928	-5.54
288.062	2.46
288.196	-7.54
288.33	-3.54
288.464	22.46
288.598	19.46
288.733	-6.54
288.867	11.46
289.001	15.46
289.135	1.46
289.269	-5.54
289.403	-3.54
289.537	-8.54
289.671	7.46
289.805	10.46
289.939	13.46
290.073	-6.54
290.207	1.46
290.34	-0.54
290.474	18.46
290.608	11.46
290.742	-5.54
290.876	6.46
291.01	-9.54
291.144	13.46
291.278	0.46
291.412	11.46
291.546	2.46
291.679	-14.54
291.813	0.46
291.947	6.46
292.081	-12.54
292.215	5.46
292.349	16.46
292.482	-5.54
292.616	-19.54
292.75	-5.54
292.884	1.46
293.018	5.46
293.151	-20.54
293.285	-9.54
293.419	-10.54
293.553	-7.54
293.686	-31.54
293.82	-10.54
293.954	19.46
294.088	16.46
294.221	-2.54
294.355	-11.54
294.489	0.46
294.622	-2.54
294.756	-4.54
294.89	21.46
295.023	17.46
295.157	6.46
295.291	0.46
295.424	18.46
295.558	6.46
295.691	11.46
295.825	-6.54
295.959	4.46
296.092	-2.54
296.226	8.46
296.359	-10.54
296.493	5.46
296.627	-9.54
296.76	-3.54
296.894	-0.54
297.027	-8.54
297.161	3.46
297.294	-14.54
297.428	-9.54
297.561	18.46
297.695	7.46
297.828	8.46
297.962	4.46
298.095	13.46
298.229	5.46
298.362	-2.54
298.495	-11.54
298.629	-12.54
298.762	-18.54
298.896	3.46
299.029	-24.54
299.162	0.46
299.296	17.46
299.429	-25.54
299.563	-16.54
299.696	2.46
299.829	18.46
299.963	11.46
300.096	-14.54
300.229	-8.54
300.363	12.46
300.496	10.46
300.629	-17.54
300.763	-12.54
300.896	-4.54
301.029	-9.54
301.162	9.46
301.296	-4.54
301.429	24.46
301.562	-13.54
301.695	18.46
301.829	7.46
301.962	24.46
302.095	9.46
302.228	-14.54
302.362	26.46
302.495	-1.54
302.628	7.46
302.761	-5.54
302.894	5.46
303.027	10.46
303.161	-3.54
303.294	-15.54
303.427	18.46
303.56	13.46
303.693	3.46
303.826	-17.54
303.959	-9.54
304.092	-2.54
304.225	-6.54
304.359	-5.54
304.492	-2.54
304.625	-15.54
304.758	12.46
304.891	-15.54
305.024	-5.54
305.157	-14.54
305.29	-19.54
305.423	-5.54
305.556	11.46
305.689	13.46
305.822	-18.54
305.955	4.46
306.088	-0.54
306.221	3.46
306.354	-3.54
306.487	-8.54
306.62	8.46
306.752	-20.54
306.885	2.46
307.018	-9.54
307.151	9.46
307.284	17.46
307.417	-6.54
307.55	2.46
307.683	-0.54
307.816	17.46
307.948	14.46
308.081	4.46
308.214	0.46
308.347	12.46
308.48	-7.54
308.613	-4.54
308.745	6.46
308.878	-2.54
309.011	-12.54
309.144	22.46
309.277	-9.54
309.409	6.46
309.542	-12.54
309.675	-9.54
309.808	-9.54
309.94	13.46
310.073	-4.54
310.206	-10.54
310.339	4.46
310.471	-21.54
310.604	5.46
310.737	-8.54
310.869	-6.54
311.002	-19.54
311.135	-15.54
311.267	-24.54
311.4	-16.54
311.533	36.46
311.665	13.46
311.798	-2.54
311.93	12.46
312.063	28.46
312.196	33.46
312.328	81.46
312.461	51.46
312.593	1.46
312.726	51.46
312.859	81.46
312.991	157.46
313.124	42.46
313.256	19.46
313.389	-7.54
313.521	6.46
313.654	-4.54
313.786	8.46
313.919	-4.54
314.051	-14.54
314.184	3.46
314.316	-9.54
314.449	-20.54
314.581	-5.54
314.714	-10.54
314.846	4.46
314.978	-17.54
315.111	-15.54
315.243	-4.54
315.376	-7.54
315.508	9.46
315.641	2.46
315.773	14.46
315.905	19.46
316.038	-3.54
316.17	17.46
316.302	18.46
316.435	-4.54
316.567	-11.54
316.699	17.46
316.832	-0.54
316.964	2.46
317.096	-0.54
317.229	-1.54
317.361	-1.54
317.493	-10.54
317.625	10.46
317.758	10.46
317.89	0.46
318.022	-4.54
318.155	-1.54
318.287	7.46
318.419	-1.54
318.551	-2.54
318.683	8.46
318.816	-7.54
318.948	5.46
319.08	-28.54
319.212	5.46
319.344	13.46
319.477	6.46
319.609	29.46
319.741	15.46
319.873	-5.54
320.005	8.46
320.137	-8.54
320.269	-6.54
320.401	-3.54
320.534	-1.54
320.666	-21.54
320.798	-18.54
320.93	-17.54
321.062	-26.54
321.194	-11.54
321.326	1.46
321.458	12.46
321.59	10.46
321.722	-1.54
321.854	4.46
321.986	-12.54
322.118	-8.54
322.25	4.46
322.382	-6.54
322.514	-13.54
322.646	-11.54
322.778	-2.54
322.91	9.46
323.042	-1.54
323.174	14.46
323.306	-9.54
323.438	-26.54
323.57	-2.54
323.702	9.46
323.834	1.46
323.966	-17.54
324.097	-2.54
324.229	21.46
324.361	6.46
324.493	10.46
324.625	-2.54
324.757	8.46
324.889	-3.54
325.021	5.46
325.152	14.46
325.284	2.46
325.416	-13.54
325.548	14.46
325.68	-10.54
325.811	28.46
325.943	8.46
326.075	-11.54
326.207	0.46
326.339	11.46
326.47	-11.54
326.602	4.46
326.734	10.46
326.866	6.46
326.997	0.46
327.129	11.46
327.261	-6.54
327.392	-5.54
327.524	2.46
327.656	1.46
327.787	3.46
327.919	1.46
328.051	18.46
328.182	21.46
328.314	29.46
328.446	-5.54
328.577	20.46
328.709	0.46
328.841	-11.54
328.972	6.46
329.104	-1.54
329.235	8.46
329.367	0.46
329.499	-3.54
329.63	-4.54
329.762	10.46
329.893	19.46
330.025	4.46
330.156	-5.54
330.288	5.46
330.419	7.46
330.551	12.46
330.683	6.46
330.814	13.46
330.946	18.46
331.077	-12.54
331.208	-11.54
331.34	2.46
331.471	-4.54
331.603	-1.54
331.734	-15.54
331.866	4.46
331.997	7.46
332.129	1.46
332.26	1.46
332.392	-5.54
332.523	1.46
332.654	8.46
332.786	-8.54
332.917	-7.54
333.048	1.46
333.18	17.46
333.311	-2.54
333.443	-2.54
333.574	11.46
333.705	28.46
333.837	30.46
333.968	101.46
334.099	220.46
334.231	198.46
334.362	45.46
334.493	24.46
334.624	22.46
334.756	-10.54
334.887	1.46
335.018	-8.54
335.15	23.46
335.281	-9.54
335.412	29.46
335.543	3.46
335.675	-5.54
335.806	6.46
335.937	-12.54
336.068	3.46
336.199	27.46
336.331	3.46
336.462	18.46
336.593	10.46
336.724	-1.54
336.855	9.46
336.986	10.46
337.118	10.46
337.249	7.46
337.38	-5.54
337.511	-7.54
337.642	10.46
337.773	4.46
337.904	26.46
338.035	9.46
338.166	7.46
338.298	-2.54
338.429	-4.54
338.56	7.46
338.691	21.46
338.822	6.46
338.953	22.46
339.084	25.46
339.215	7.46
339.346	-2.54
339.477	9.46
339.608	3.46
339.739	8.46
339.87	9.46
340.001	2.46
340.132	0.46
340.263	6.46
340.394	10.46
340.525	4.46
340.656	-12.54
340.787	-13.54
340.918	24.46
341.049	29.46
341.179	0.46
341.31	36.46
341.441	8.46
341.572	13.46
341.703	1.46
341.834	-10.54
341.965	-5.54
342.096	-11.54
342.227	4.46
342.357	18.46
342.488	6.46
342.619	1.46
342.75	6.46
342.881	12.46
343.012	23.46
343.142	45.46
343.273	0.46
343.404	14.46
343.535	20.46
343.666	24.46
343.796	25.46
343.927	18.46
344.058	21.46
344.189	41.46
344.319	24.46
344.45	24.46
344.581	13.46
344.712	15.46
344.842	9.46
344.973	23.46
345.104	24.46
345.234	29.46
345.365	12.46
345.496	31.46
345.626	18.46
345.757	24.46
345.888	9.46
346.018	32.46
346.149	29.46
346.28	40.46
346.41	12.46
346.541	35.46
346.672	19.46
346.802	38.46
346.933	30.46
347.063	10.46
347.194	26.46
347.325	28.46
347.455	31.46
347.586	20.46
347.716	22.46
347.847	33.46
347.977	50.46
348.108	44.46
348.238	29.46
348.369	27.46
348.499	36.46
348.63	28.46
348.76	32.46
348.891	43.46
349.021	44.46
349.152	46.46
349.282	44.46
349.413	34.46
349.543	32.46
349.674	18.46
349.804	32.46
349.935	38.46
350.065	38.46
350.196	19.46
350.326	37.46
350.456	26.46
350.587	29.46
350.717	4.46
350.848	30.46
350.978	40.46
351.108	14.46
351.239	20.46
351.369	18.46
351.499	16.46
351.63	33.46
351.76	16.46
351.89	16.46
352.021	27.46
352.151	17.46
352.281	29.46
352.412	25.46
352.542	21.46
352.672	21.46
352.803	9.46
352.933	23.46
353.063	27.46
353.193	20.46
353.324	-6.54
353.454	19.46
353.584	33.46
353.714	13.46
353.845	30.46
353.975	31.46
354.105	7.46
354.235	22.46
354.365	32.46
354.496	13.46
354.626	25.46
354.756	12.46
354.886	-2.54
355.016	10.46
355.146	13.46
355.277	31.46
355.407	18.46
355.537	-0.54
355.667	12.46
355.797	33.46
355.927	19.46
356.057	18.46
356.187	12.46
356.318	15.46
356.448	24.46
356.578	31.46
356.708	21.46
356.838	19.46
356.968	8.46
357.098	22.46
357.228	48.46
357.358	-1.54
357.488	9.46
357.618	29.46
357.748	26.46
357.878	30.46
358.008	23.46
358.138	18.46
358.268	37.46
358.398	14.46
358.528	4.46
358.658	37.46
358.788	6.46
358.918	25.46
359.048	26.46
359.178	24.46
359.308	11.46
359.438	34.46
359.568	24.46
359.698	39.46
359.827	15.46
359.957	27.46
360.087	21.46
360.217	40.46
360.347	35.46
360.477	40.46
360.607	30.46
360.737	20.46
360.866	16.46
360.996	-1.54
361.126	4.46
361.256	30.46
361.386	28.46
361.516	27.46
361.645	8.46
361.775	27.46
361.905	-2.54
362.035	25.46
362.165	25.46
362.294	49.46
362.424	43.46
362.554	32.46
362.684	28.46
362.813	41.46
362.943	50.46
363.073	55.46
363.203	68.46
363.332	94.46
363.462	86.46
363.592	89.46
363.721	118.46
363.851	159.46
363.981	219.46
364.111	262.46
364.24	327.46
364.37	482.46
364.5	867.46
364.629	1837.46
364.759	3920.46
364.888	6324.46
365.018	9559.46
365.148	14890.46
365.277	13160.46
365.407	4807.46
365.537	3184.46
365.666	4166.46
365.796	1873.46
365.925	811.46
366.055	791.46
366.184	1032.46
366.314	1426.46
366.444	2535.46
366.573	2188.46
366.703	658.46
366.832	216.46
366.962	102.46
367.091	92.46
367.221	69.46
367.35	57.46
367.48	86.46
367.609	44.46
367.739	30.46
367.868	22.46
367.998	41.46
368.127	44.46
368.257	57.46
368.386	58.46
368.516	54.46
368.645	32.46
368.775	27.46
368.904	35.46
369.033	31.46
369.163	21.46
369.292	44.46
369.422	18.46
369.551	39.46
369.68	46.46
369.81	36.46
369.939	18.46
370.069	61.46
370.198	45.46
370.327	8.46
370.457	24.46
370.586	58.46
370.715	31.46
370.845	20.46
370.974	40.46
371.103	38.46
371.233	31.46
371.362	37.46
371.491	41.46
371.621	41.46
371.75	48.46
371.879	49.46
372.008	51.46
372.138	42.46
372.267	62.46
372.396	50.46
372.525	35.46
372.655	32.46
372.784	21.46
372.913	23.46
373.042	12.46
373.172	44.46
373.301	4.46
373.43	6.46
373.559	9.46
373.688	-3.54
373.818	31.46
373.947	15.46
374.076	-2.54
374.205	29.46
374.334	5.46
374.463	2.46
374.593	22.46
374.722	37.46
374.851	34.46
374.98	15.46
375.109	22.46
375.238	3.46
375.367	39.46
375.496	5.46
375.625	-12.54
375.755	12.46
375.884	27.46
376.013	40.46
376.142	-0.54
376.271	19.46
376.4	23.46
376.529	19.46
376.658	43.46
376.787	34.46
376.916	11.46
377.045	10.46
377.174	-2.54
377.303	21.46
377.432	20.46
377.561	29.46
377.69	21.46
377.819	29.46
377.948	22.46
378.077	24.46
378.206	1.46
378.335	9.46
378.464	5.46
378.593	26.46
378.722	-1.54
378.851	16.46
378.98	25.46
379.108	1.46
379.237	-11.54
379.366	9.46
379.495	18.46
379.624	2.46
379.753	20.46
379.882	3.46
380.011	5.46
380.14	-0.54
380.268	22.46
380.397	1.46
380.526	21.46
380.655	14.46
380.784	2.46
380.913	2.46
381.041	12.46
381.17	-2.54
381.299	-4.54
381.428	9.46
381.557	4.46
381.685	-0.54
381.814	34.46
381.943	4.46
382.072	11.46
382.2	-2.54
382.329	8.46
382.458	20.46
382.587	10.46
382.715	24.46
382.844	29.46
382.973	16.46
383.102	26.46
383.23	27.46
383.359	-2.54
383.488	10.46
383.616	-4.54
383.745	6.46
383.874	5.46
384.003	14.46
384.131	-1.54
384.26	5.46
384.389	17.46
384.517	-7.54
384.646	1.46
384.774	-3.54
384.903	29.46
385.032	10.46
385.16	18.46
385.289	-1.54
385.418	10.46
385.546	30.46
385.675	27.46
385.803	18.46
385.932	30.46
386.06	12.46
386.189	12.46
386.318	-12.54
386.446	6.46
386.575	32.46
386.703	5.46
386.832	-4.54
386.96	-17.54
387.089	16.46
387.217	20.46
387.346	12.46
387.474	20.46
387.603	24.46
387.731	13.46
387.86	23.46
387.988	23.46
388.117	27.46
388.245	21.46
388.374	10.46
388.502	33.46
388.631	5.46
388.759	7.46
388.888	22.46
389.016	13.46
389.144	18.46
389.273	17.46
389.401	-10.54
389.53	-5.54
389.658	15.46
389.786	20.46
389.915	5.46
390.043	10.46
390.172	27.46
390.3	40.46
390.428	29.46
390.557	8.46
390.685	30.46
390.813	45.46
390.942	47.46
391.07	24.46
391.198	8.46
391.327	19.46
391.455	19.46
391.583	29.46
391.712	21.46
391.84	17.46
391.968	-3.54
392.096	3.46
392.225	20.46
392.353	20.46
392.481	23.46
392.609	24.46
392.738	31.46
392.866	34.46
392.994	15.46
393.122	32.46
393.251	8.46
393.379	2.46
393.507	-15.54
393.635	1.46
393.764	24.46
393.892	31.46
394.02	17.46
394.148	24.46
394.276	29.46
394.404	47.46
394.533	18.46
394.661	24.46
394.789	19.46
394.917	23.46
395.045	5.46
395.173	6.46
395.302	2.46
395.43	29.46
395.558	36.46
395.686	33.46
395.814	37.46
395.942	1.46
396.07	30.46
396.198	31.46
396.326	42.46
396.454	43.46
396.582	40.46
396.711	33.46
396.839	29.46
396.967	26.46
397.095	12.46
397.223	24.46
397.351	41.46
397.479	38.46
397.607	32.46
397.735	46.46
397.863	48.46
397.991	41.46
398.119	16.46
398.247	43.46
398.375	50.46
398.503	51.46
398.631	41.46
398.759	50.46
398.887	34.46
399.015	52.46
399.143	52.46
399.271	70.46
399.399	66.46
399.526	80.46
399.654	76.46
399.782	66.46
399.91	97.46
400.038	92.46
400.166	75.46
400.294	104.46
400.422	75.46
400.55	128.46
400.678	113.46
400.805	94.46
400.933	97.46
401.061	130.46
401.189	121.46
401.317	148.46
401.445	107.46
401.573	68.46
401.7	45.46
401.828	48.46
401.956	39.46
402.084	34.46
402.212	46.46
402.34	24.46
402.467	40.46
402.595	66.46
402.723	31.46
402.851	44.46
402.978	53.46
403.106	77.46
403.234	64.46
403.362	95.46
403.489	121.46
403.617	154.46
403.745	193.46
403.873	265.46
404	558.46
404.128	1494.46
404.256	3942.46
404.384	5175.46
404.511	5509.46
404.639	7316.46
404.767	11666.46
404.894	14757.46
405.022	4968.46
405.15	1305.46
405.277	424.46
405.405	251.46
405.533	117.46
405.66	94.46
405.788	66.46
405.916	61.46
406.043	36.46
406.171	58.46
406.299	60.46
406.426	53.46
406.554	47.46
406.681	68.46
406.809	45.46
406.937	40.46
407.064	56.46
407.192	129.46
407.319	303.46
407.447	545.46
407.574	518.46
407.702	624.46
407.83	875.46
407.957	1644.46
408.085	968.46
408.212	285.46
408.34	103.46
408.467	53.46
408.595	50.46
408.722	43.46
408.85	59.46
408.977	32.46
409.105	27.46
409.232	42.46
409.36	48.46
409.487	38.46
409.615	16.46
409.742	25.46
409.87	10.46
409.997	40.46
410.125	43.46
410.252	47.46
410.379	10.46
410.507	40.46
410.634	30.46
410.762	22.46
410.889	52.46
411.017	16.46
411.144	36.46
411.271	18.46
411.399	40.46
411.526	29.46
411.653	22.46
411.781	26.46
411.908	33.46
412.036	4.46
412.163	38.46
412.29	40.46
412.418	14.46
412.545	22.46
412.672	9.46
412.8	43.46
412.927	45.46
413.054	44.46
413.182	52.46
413.309	42.46
413.436	5.46
413.564	24.46
413.691	24.46
413.818	44.46
413.945	10.46
414.073	3.46
414.2	31.46
414.327	24.46
414.454	46.46
414.582	29.46
414.709	-11.54
414.836	23.46
414.963	10.46
415.091	31.46
415.218	9.46
415.345	2.46
415.472	20.46
415.6	6.46
415.727	26.46
415.854	31.46
415.981	27.46
416.108	15.46
416.236	14.46
416.363	33.46
416.49	20.46
416.617	22.46
416.744	37.46
416.871	44.46
416.998	28.46
417.126	17.46
417.253	17.46
417.38	35.46
417.507	28.46
417.634	24.46
417.761	19.46
417.888	33.46
418.015	21.46
418.143	27.46
418.27	37.46
418.397	32.46
418.524	30.46
418.651	23.46
418.778	36.46
418.905	47.46
419.032	10.46
419.159	32.46
419.286	52.46
419.413	51.46
419.54	47.46
419.667	17.46
419.794	21.46
419.921	32.46
420.048	48.46
420.175	44.46
420.302	23.46
420.429	53.46
420.556	49.46
420.683	45.46
420.81	60.46
420.937	47.46
421.064	58.46
421.191	48.46
421.318	59.46
421.445	81.46
421.572	53.46
421.699	56.46
421.826	36.46
421.953	41.46
422.08	14.46
422.207	1.46
422.334	-2.54
422.461	18.46
422.588	13.46
422.714	26.46
422.841	27.46
422.968	33.46
423.095	22.46
423.222	-1.54
423.349	17.46
423.476	34.46
423.603	-2.54
423.729	-9.54
423.856	5.46
423.983	25.46
424.11	26.46
424.237	26.46
424.364	11.46
424.491	8.46
424.617	6.46
424.744	-2.54
424.871	28.46
424.998	17.46
425.125	-5.54
425.251	6.46
425.378	16.46
425.505	24.46
425.632	21.46
425.758	-13.54
425.885	22.46
426.012	19.46
426.139	28.46
426.266	18.46
426.392	15.46
426.519	15.46
426.646	15.46
426.772	26.46
426.899	17.46
427.026	5.46
427.153	13.46
427.279	18.46
427.406	17.46
427.533	24.46
427.659	4.46
427.786	-1.54
427.913	34.46
428.039	17.46
428.166	12.46
428.293	17.46
428.419	26.46
428.546	1.46
428.673	5.46
428.799	-7.54
428.926	20.46
429.053	24.46
429.179	30.46
429.306	17.46
429.433	25.46
429.559	18.46
429.686	18.46
429.812	13.46
429.939	17.46
430.066	17.46
430.192	17.46
430.319	26.46
430.445	9.46
430.572	10.46
430.699	17.46
430.825	17.46
430.952	20.46
431.078	26.46
431.205	31.46
431.331	19.46
431.458	15.46
431.584	36.46
431.711	23.46
431.837	23.46
431.964	18.46
432.09	12.46
432.217	12.46
432.343	8.46
432.47	30.46
432.596	29.46
432.723	24.46
432.849	12.46
432.976	34.46
433.102	24.46
433.229	29.46
433.355	52.46
433.482	90.46
433.608	109.46
433.735	89.46
433.861	96.46
433.987	181.46
434.114	185.46
434.24	166.46
434.367	233.46
434.493	230.46
434.62	273.46
434.746	390.46
434.872	633.46
434.999	843.46
435.125	1738.46
435.252	5612.46
435.378	13535.46
435.504	15267.46
435.631	15465.46
435.757	15679.46
435.883	15679.46
436.01	15679.46
436.136	15679.46
436.262	15679.46
436.389	3556.46
436.515	2703.46
436.641	896.46
436.768	664.46
436.894	388.46
437.02	421.46
437.147	303.46
437.273	291.46
437.399	217.46
437.526	230.46
437.652	169.46
437.778	208.46
437.904	154.46
438.031	157.46
438.157	154.46
438.283	147.46
438.409	117.46
438.536	99.46
438.662	115.46
438.788	115.46
438.914	116.46
439.041	123.46
439.167	109.46
439.293	95.46
439.419	95.46
439.546	95.46
439.672	78.46
439.798	92.46
439.924	90.46
440.05	76.46
440.177	71.46
440.303	61.46
440.429	53.46
440.555	73.46
440.681	66.46
440.807	70.46
440.934	55.46
441.06	68.46
441.186	62.46
441.312	38.46
441.438	76.46
441.564	64.46
441.69	71.46
441.816	49.46
441.943	49.46
442.069	51.46
442.195	50.46
442.321	68.46
442.447	52.46
442.573	35.46
442.699	30.46
442.825	33.46
442.951	55.46
443.077	48.46
443.203	51.46
443.33	31.46
443.456	20.46
443.582	47.46
443.708	37.46
443.834	53.46
443.96	36.46
444.086	36.46
444.212	47.46
444.338	48.46
444.464	44.46
444.59	52.46
444.716	47.46
444.842	34.46
444.968	25.46
445.094	31.46
445.22	32.46
445.346	15.46
445.472	27.46
445.598	44.46
445.724	32.46
445.85	31.46
445.976	43.46
446.102	49.46
446.228	46.46
446.354	43.46
446.48	15.46
446.605	41.46
446.731	20.46
446.857	26.46
446.983	27.46
447.109	33.46
447.235	20.46
447.361	17.46
447.487	22.46
447.613	21.46
447.739	22.46
447.865	36.46
447.99	26.46
448.116	41.46
448.242	31.46
448.368	36.46
448.494	3.46
448.62	31.46
448.746	23.46
448.872	20.46
448.997	1.46
449.123	20.46
449.249	32.46
449.375	32.46
449.501	25.46
449.627	16.46
449.752	36.46
449.878	35.46
450.004	4.46
450.13	17.46
450.256	27.46
450.381	21.46
450.507	26.46
450.633	10.46
450.759	29.46
450.884	18.46
451.01	29.46
451.136	8.46
451.262	26.46
451.388	20.46
451.513	5.46
451.639	8.46
451.765	26.46
451.89	26.46
452.016	15.46
452.142	14.46
452.268	30.46
452.393	30.46
452.519	10.46
452.645	21.46
452.771	27.46
452.896	14.46
453.022	12.46
453.148	38.46
453.273	5.46
453.399	14.46
453.525	16.46
453.65	37.46
453.776	29.46
453.902	38.46
454.027	29.46
454.153	27.46
454.279	42.46
454.404	18.46
454.53	28.46
454.656	31.46
454.781	22.46
454.907	23.46
455.032	8.46
455.158	29.46
455.284	26.46
455.409	18.46
455.535	37.46
455.66	31.46
455.786	45.46
455.912	23.46
456.037	-3.54
456.163	42.46
456.288	21.46
456.414	13.46
456.539	7.46
456.665	25.46
456.791	12.46
456.916	11.46
457.042	19.46
457.167	10.46
457.293	24.46
457.418	16.46
457.544	17.46
457.669	15.46
457.795	9.46
457.92	15.46
458.046	14.46
458.171	28.46
458.297	13.46
458.422	4.46
458.548	12.46
458.673	19.46
458.799	29.46
458.924	13.46
459.05	4.46
459.175	2.46
459.301	6.46
459.426	43.46
459.552	19.46
459.677	5.46
459.803	54.46
459.928	31.46
460.053	26.46
460.179	16.46
460.304	28.46
460.43	6.46
460.555	19.46
460.681	21.46
460.806	17.46
460.931	19.46
461.057	29.46
461.182	9.46
461.308	26.46
461.433	39.46
461.558	12.46
461.684	35.46
461.809	18.46
461.934	20.46
462.06	29.46
462.185	6.46
462.311	8.46
462.436	38.46
462.561	21.46
462.687	24.46
462.812	21.46
462.937	20.46
463.063	3.46
463.188	12.46
463.313	32.46
463.439	15.46
463.564	23.46
463.689	33.46
463.814	18.46
463.94	27.46
464.065	33.46
464.19	43.46
464.316	9.46
464.441	11.46
464.566	10.46
464.692	16.46
464.817	17.46
464.942	27.46
465.067	24.46
465.193	0.46
465.318	9.46
465.443	8.46
465.568	26.46
465.694	6.46
465.819	44.46
465.944	29.46
466.069	34.46
466.194	11.46
466.32	28.46
466.445	19.46
466.57	23.46
466.695	7.46
466.82	24.46
466.946	38.46
467.071	32.46
467.196	16.46
467.321	12.46
467.446	13.46
467.572	42.46
467.697	37.46
467.822	41.46
467.947	48.46
468.072	38.46
468.197	7.46
468.323	10.46
468.448	8.46
468.573	26.46
468.698	16.46
468.823	19.46
468.948	30.46
469.073	35.46
469.198	40.46
469.324	44.46
469.449	29.46
469.574	34.46
469.699	38.46
469.824	42.46
469.949	26.46
470.074	37.46
470.199	56.46
470.324	27.46
470.449	28.46
470.574	33.46
470.7	25.46
470.825	32.46
470.95	46.46
471.075	30.46
471.2	35.46
471.325	54.46
471.45	46.46
471.575	30.46
471.7	23.46
471.825	5.46
471.95	-3.54
472.075	39.46
472.2	22.46
472.325	28.46
472.45	10.46
472.575	11.46
472.7	0.46
472.825	28.46
472.95	37.46
473.075	26.46
473.2	35.46
473.325	49.46
473.45	42.46
473.575	39.46
473.7	31.46
473.825	26.46
473.95	21.46
474.075	22.46
474.2	18.46
474.325	14.46
474.45	31.46
474.574	25.46
474.699	19.46
474.824	30.46
474.949	0.46
475.074	16.46
475.199	26.46
475.324	21.46
475.449	8.46
475.574	17.46
475.699	9.46
475.824	8.46
475.949	10.46
476.073	6.46
476.198	23.46
476.323	10.46
476.448	17.46
476.573	-0.54
476.698	26.46
476.823	20.46
476.947	14.46
477.072	1.46
477.197	17.46
477.322	11.46
477.447	6.46
477.572	13.46
477.697	4.46
477.821	7.46
477.946	14.46
478.071	23.46
478.196	30.46
478.321	13.46
478.445	5.46
478.57	9.46
478.695	7.46
478.82	6.46
478.945	24.46
479.069	7.46
479.194	5.46
479.319	18.46
479.444	15.46
479.569	2.46
479.693	12.46
479.818	14.46
479.943	21.46
480.068	11.46
480.192	21.46
480.317	18.46
480.442	21.46
480.567	13.46
480.691	6.46
480.816	7.46
480.941	-14.54
481.066	9.46
481.19	23.46
481.315	8.46
481.44	17.46
481.564	20.46
481.689	23.46
481.814	15.46
481.938	6.46
482.063	8.46
482.188	13.46
482.313	24.46
482.437	8.46
482.562	22.46
482.687	28.46
482.811	23.46
482.936	24.46
483.061	7.46
483.185	3.46
483.31	23.46
483.435	20.46
483.559	18.46
483.684	27.46
483.808	37.46
483.933	21.46
484.058	13.46
484.182	21.46
484.307	-6.54
484.432	32.46
484.556	23.46
484.681	8.46
484.805	13.46
484.93	19.46
485.055	46.46
485.179	44.46
485.304	24.46
485.428	7.46
485.553	7.46
485.678	23.46
485.802	8.46
485.927	36.46
486.051	14.46
486.176	22.46
486.3	16.46
486.425	7.46
486.549	18.46
486.674	6.46
486.799	16.46
486.923	16.46
487.048	17.46
487.172	18.46
487.297	19.46
487.421	15.46
487.546	20.46
487.67	21.46
487.795	13.46
487.919	12.46
488.044	30.46
488.168	42.46
488.293	17.46
488.417	12.46
488.542	20.46
488.666	21.46
488.791	26.46
488.915	17.46
489.04	27.46
489.164	26.46
489.289	34.46
489.413	-4.54
489.538	37.46
489.662	13.46
489.786	-2.54
489.911	1.46
490.035	7.46
490.16	8.46
490.284	14.46
490.409	9.46
490.533	13.46
490.658	24.46
490.782	28.46
490.906	32.46
491.031	97.46
491.155	136.46
491.28	156.46
491.404	162.46
491.528	259.46
491.653	154.46
491.777	65.46
491.902	8.46
492.026	4.46
492.15	25.46
492.275	41.46
492.399	26.46
492.524	2.46
492.648	33.46
492.772	23.46
492.897	27.46
493.021	18.46
493.145	8.46
493.27	21.46
493.394	22.46
493.518	12.46
493.643	3.46
493.767	24.46
493.891	17.46
494.016	11.46
494.14	3.46
494.264	10.46
494.389	20.46
494.513	11.46
494.637	3.46
494.762	41.46
494.886	31.46
495.01	27.46
495.134	15.46
495.259	23.46
495.383	28.46
495.507	16.46
495.632	32.46
495.756	42.46
495.88	18.46
496.004	23.46
496.129	13.46
496.253	33.46
496.377	18.46
496.501	34.46
496.626	19.46
496.75	7.46
496.874	13.46
496.998	23.46
497.123	29.46
497.247	27.46
497.371	10.46
497.495	10.46
497.62	5.46
497.744	12.46
497.868	17.46
497.992	22.46
498.116	26.46
498.241	22.46
498.365	8.46
498.489	18.46
498.613	44.46
498.737	16.46
498.862	20.46
498.986	9.46
499.11	27.46
499.234	22.46
499.358	23.46
499.482	35.46
499.607	34.46
499.731	6.46
499.855	29.46
499.979	27.46
500.103	29.46
500.227	20.46
500.351	2.46
500.476	18.46
500.6	18.46
500.724	10.46
500.848	13.46
500.972	24.46
501.096	16.46
501.22	35.46
501.344	2.46
501.469	3.46
501.593	14.46
501.717	3.46
501.841	13.46
501.965	12.46
502.089	16.46
502.213	23.46
502.337	19.46
502.461	10.46
502.585	13.46
502.709	22.46
502.834	7.46
502.958	16.46
503.082	13.46
503.206	25.46
503.33	14.46
503.454	16.46
503.578	36.46
503.702	23.46
503.826	15.46
503.95	24.46
504.074	32.46
504.198	8.46
504.322	-1.54
504.446	5.46
504.57	14.46
504.694	12.46
504.818	19.46
504.942	41.46
505.066	24.46
505.19	8.46
505.314	18.46
505.438	26.46
505.562	20.46
505.686	25.46
505.81	1.46
505.934	29.46
506.058	16.46
506.182	19.46
506.306	22.46
506.43	2.46
506.554	33.46
506.678	13.46
506.802	5.46
506.926	23.46
507.05	40.46
507.174	23.46
507.298	12.46
507.422	19.46
507.546	28.46
507.67	15.46
507.794	6.46
507.918	10.46
508.042	25.46
508.165	-4.54
508.289	4.46
508.413	22.46
508.537	22.46
508.661	33.46
508.785	13.46
508.909	19.46
509.033	35.46
509.157	17.46
509.281	30.46
509.405	29.46
509.528	33.46
509.652	20.46
509.776	19.46
509.9	41.46
510.024	29.46
510.148	41.46
510.272	21.46
510.396	42.46
510.519	29.46
510.643	37.46
510.767	33.46
510.891	27.46
511.015	38.46
511.139	45.46
511.263	59.46
511.386	25.46
511.51	40.46
511.634	33.46
511.758	23.46
511.882	26.46
512.006	42.46
512.129	47.46
512.253	69.46
512.377	66.46
512.501	85.46
512.625	77.46
512.748	82.46
512.872	52.46
512.996	36.46
513.12	54.46
513.244	27.46
513.367	48.46
513.491	62.46
513.615	72.46
513.739	63.46
513.862	76.46
513.986	73.46
514.11	90.46
514.234	88.46
514.358	81.46
514.481	101.46
514.605	94.46
514.729	112.46
514.853	107.46
514.976	86.46
515.1	96.46
515.224	88.46
515.348	64.46
515.471	61.46
515.595	99.46
515.719	105.46
515.842	196.46
515.966	268.46
516.09	292.46
516.214	300.46
516.337	321.46
516.461	221.46
516.585	67.46
516.708	32.46
516.832	19.46
516.956	28.46
517.08	25.46
517.203	3.46
517.327	6.46
517.451	30.46
517.574	35.46
517.698	10.46
517.822	8.46
517.945	30.46
518.069	17.46
518.193	36.46
518.316	25.46
518.44	14.46
518.564	6.46
518.687	7.46
518.811	8.46
518.935	43.46
519.058	14.46
519.182	10.46
519.306	28.46
519.429	9.46
519.553	31.46
519.676	12.46
519.8	8.46
519.924	18.46
520.047	23.46
520.171	12.46
520.294	3.46
520.418	31.46
520.542	21.46
520.665	42.46
520.789	10.46
520.913	13.46
521.036	3.46
521.16	10.46
521.283	8.46
521.407	18.46
521.53	6.46
521.654	-6.54
521.778	16.46
521.901	21.46
522.025	23.46
522.148	12.46
522.272	11.46
522.395	6.46
522.519	17.46
522.643	-1.54
522.766	-3.54
522.89	-3.54
523.013	14.46
523.137	-2.54
523.26	2.46
523.384	14.46
523.507	6.46
523.631	20.46
523.754	9.46
523.878	10.46
524.002	14.46
524.125	26.46
524.249	-6.54
524.372	11.46
524.496	10.46
524.619	13.46
524.743	12.46
524.866	13.46
524.99	21.46
525.113	4.46
525.237	7.46
525.36	16.46
525.484	17.46
525.607	-10.54
525.731	-12.54
525.854	5.46
525.978	13.46
526.101	3.46
526.224	4.46
526.348	37.46
526.471	22.46
526.595	18.46
526.718	4.46
526.842	0.46
526.965	19.46
527.089	8.46
527.212	15.46
527.336	-7.54
527.459	26.46
527.582	8.46
527.706	24.46
527.829	15.46
527.953	4.46
528.076	-9.54
528.2	8.46
528.323	24.46
528.446	37.46
528.57	-9.54
528.693	24.46
528.817	9.46
528.94	18.46
529.064	44.46
529.187	11.46
529.31	1.46
529.434	12.46
529.557	9.46
529.68	13.46
529.804	6.46
529.927	29.46
530.051	-10.54
530.174	6.46
530.297	4.46
530.421	26.46
530.544	8.46
530.668	7.46
530.791	9.46
530.914	21.46
531.038	18.46
531.161	6.46
531.284	7.46
531.408	11.46
531.531	2.46
531.654	17.46
531.778	4.46
531.901	-7.54
532.024	17.46
532.148	4.46
532.271	14.46
532.394	8.46
532.518	10.46
532.641	10.46
532.764	17.46
532.888	24.46
533.011	8.46
533.134	7.46
533.258	29.46
533.381	6.46
533.504	0.46
533.628	8.46
533.751	22.46
533.874	-0.54
533.997	-1.54
534.121	-2.54
534.244	-1.54
534.367	10.46
534.491	33.46
534.614	22.46
534.737	8.46
534.86	21.46
534.984	10.46
535.107	19.46
535.23	4.46
535.354	26.46
535.477	-6.54
535.6	10.46
535.723	11.46
535.847	6.46
535.97	11.46
536.093	7.46
536.216	13.46
536.34	20.46
536.463	16.46
536.586	24.46
536.709	13.46
536.833	28.46
536.956	15.46
537.079	10.46
537.202	1.46
537.325	-0.54
537.449	14.46
537.572	14.46
537.695	1.46
537.818	6.46
537.941	11.46
538.065	8.46
538.188	6.46
538.311	15.46
538.434	29.46
538.558	22.46
538.681	25.46
538.804	11.46
538.927	38.46
539.05	27.46
539.173	4.46
539.297	-0.54
539.42	1.46
539.543	22.46
539.666	29.46
539.789	21.46
539.913	16.46
540.036	8.46
540.159	33.46
540.282	13.46
540.405	-5.54
540.528	10.46
540.651	23.46
540.775	11.46
540.898	28.46
541.021	30.46
541.144	18.46
541.267	21.46
541.39	19.46
541.513	38.46
541.637	36.46
541.76	14.46
541.883	12.46
542.006	36.46
542.129	51.46
542.252	33.46
542.375	35.46
542.498	42.46
542.622	45.46
542.745	38.46
542.868	29.46
542.991	49.46
543.114	56.46
543.237	55.46
543.36	55.46
543.483	33.46
543.606	69.46
543.73	84.46
543.853	66.46
543.976	66.46
544.099	97.46
544.222	124.46
544.345	133.46
544.468	167.46
544.591	219.46
544.714	253.46
544.837	348.46
544.96	450.46
545.083	685.46
545.206	1104.46
545.329	2507.46
545.453	11188.46
545.576	15289.46
545.699	15679.46
545.822	15679.46
545.945	15679.46
546.068	15679.46
546.191	15679.46
546.314	15679.46
546.437	15679.46
546.56	15679.46
546.683	15679.46
546.806	15679.46
546.929	15679.46
547.052	15679.46
547.175	15679.46
547.298	15679.46
547.421	15679.46
547.544	15679.46
547.667	4140.46
547.79	4979.46
547.913	1450.46
548.036	1007.46
548.159	674.46
548.282	669.46
548.405	515.46
548.528	513.46
548.651	417.46
548.774	426.46
548.897	353.46
549.02	364.46
549.143	317.46
549.266	288.46
549.389	282.46
549.512	249.46
549.635	241.46
549.758	252.46
549.881	205.46
550.004	213.46
550.127	184.46
550.25	184.46
550.373	161.46
550.496	180.46
550.619	153.46
550.742	146.46
550.865	114.46
550.988	160.46
551.111	161.46
551.234	131.46
551.356	116.46
551.479	116.46
551.602	108.46
551.725	137.46
551.848	123.46
551.971	142.46
552.094	112.46
552.217	110.46
552.34	131.46
552.463	110.46
552.586	81.46
552.709	102.46
552.832	96.46
552.955	106.46
553.077	102.46
553.2	109.46
553.323	76.46
553.446	93.46
553.569	82.46
553.692	107.46
553.815	108.46
553.938	101.46
554.061	90.46
554.184	85.46
554.306	98.46
554.429	78.46
554.552	59.46
554.675	57.46
554.798	82.46
554.921	90.46
555.044	67.46
555.167	68.46
555.29	58.46
555.412	74.46
555.535	82.46
555.658	72.46
555.781	61.46
555.904	60.46
556.027	67.46
556.15	66.46
556.272	58.46
556.395	91.46
556.518	58.46
556.641	72.46
556.764	70.46
556.887	74.46
557.01	57.46
557.132	48.46
557.255	58.46
557.378	56.46
557.501	44.46
557.624	58.46
557.747	60.46
557.869	58.46
557.992	60.46
558.115	99.46
558.238	84.46
558.361	94.46
558.483	92.46
558.606	60.46
558.729	46.46
558.852	76.46
558.975	64.46
559.098	68.46
559.22	56.46
559.343	50.46
559.466	49.46
559.589	47.46
559.712	49.46
559.834	38.46
559.957	38.46
560.08	49.46
560.203	51.46
560.325	81.46
560.448	64.46
560.571	50.46
560.694	30.46
560.817	58.46
560.939	46.46
561.062	50.46
561.185	45.46
561.308	76.46
561.43	60.46
561.553	54.46
561.676	48.46
561.799	72.46
561.921	48.46
562.044	56.46
562.167	39.46
562.29	64.46
562.413	67.46
562.535	77.46
562.658	32.46
562.781	50.46
562.903	53.46
563.026	82.46
563.149	136.46
563.272	97.46
563.394	112.46
563.517	80.46
563.64	51.46
563.763	40.46
563.885	39.46
564.008	35.46
564.131	40.46
564.254	28.46
564.376	35.46
564.499	33.46
564.622	33.46
564.744	30.46
564.867	40.46
564.99	40.46
565.113	18.46
565.235	38.46
565.358	27.46
565.481	24.46
565.603	34.46
565.726	21.46
565.849	42.46
565.971	49.46
566.094	25.46
566.217	23.46
566.34	14.46
566.462	21.46
566.585	32.46
566.708	45.46
566.83	35.46
566.953	28.46
567.076	32.46
567.198	25.46
567.321	21.46
567.444	37.46
567.566	30.46
567.689	22.46
567.812	6.46
567.934	29.46
568.057	16.46
568.18	36.46
568.302	31.46
568.425	24.46
568.548	37.46
568.67	15.46
568.793	22.46
568.916	20.46
569.038	32.46
569.161	38.46
569.283	32.46
569.406	24.46
569.529	16.46
569.651	25.46
569.774	18.46
569.897	7.46
570.019	38.46
570.142	52.46
570.265	24.46
570.387	25.46
570.51	46.46
570.632	43.46
570.755	25.46
570.878	40.46
571	46.46
571.123	24.46
571.246	36.46
571.368	16.46
571.491	21.46
571.613	11.46
571.736	26.46
571.859	21.46
571.981	24.46
572.104	21.46
572.226	43.46
572.349	18.46
572.472	26.46
572.594	55.46
572.717	17.46
572.839	14.46
572.962	5.46
573.085	31.46
573.207	37.46
573.33	36.46
573.452	42.46
573.575	50.46
573.697	31.46
573.82	11.46
573.943	28.46
574.065	37.46
574.188	16.46
574.31	33.46
574.433	31.46
574.555	54.46
574.678	21.46
574.801	44.46
574.923	10.46
575.046	30.46
575.168	31.46
575.291	25.46
575.413	29.46
575.536	42.46
575.659	51.46
575.781	54.46
575.904	41.46
576.026	57.46
576.149	93.46
576.271	121.46
576.394	199.46
576.516	537.46
576.639	3698.46
576.761	10332.46
576.884	8920.46
577.007	8899.46
577.129	8098.46
577.252	3755.46
577.374	1321.46
577.497	540.46
577.619	295.46
577.742	189.46
577.864	148.46
577.987	137.46
578.109	132.46
578.232	115.46
578.354	142.46
578.477	205.46
578.599	388.46
578.722	2025.46
578.844	9240.46
578.967	10016.46
579.089	8912.46
579.212	9226.46
579.334	5368.46
579.457	1975.46
579.579	717.46
579.702	322.46
579.824	199.46
579.947	141.46
580.069	122.46
580.192	67.46
580.314	87.46
580.437	68.46
580.559	92.46
580.682	49.46
580.804	62.46
580.927	73.46
581.049	77.46
581.172	46.46
581.294	63.46
581.417	74.46
581.539	34.46
581.662	41.46
581.784	25.46
581.907	35.46
582.029	53.46
582.152	26.46
582.274	36.46
582.396	45.46
582.519	44.46
582.641	28.46
582.764	28.46
582.886	36.46
583.009	37.46
583.131	32.46
583.254	35.46
583.376	50.46
583.499	42.46
583.621	35.46
583.743	39.46
583.866	31.46
583.988	28.46
584.111	40.46
584.233	33.46
584.356	46.46
584.478	49.46
584.601	26.46
584.723	34.46
584.845	39.46
584.968	27.46
585.09	14.46
585.213	13.46
585.335	14.46
585.458	23.46
585.58	20.46
585.702	37.46
585.825	47.46
585.947	24.46
586.07	17.46
586.192	14.46
586.315	22.46
586.437	4.46
586.559	33.46
586.682	23.46
586.804	33.46
586.927	2.46
587.049	23.46
587.171	24.46
587.294	21.46
587.416	43.46
587.539	27.46
587.661	33.46
587.783	18.46
587.906	9.46
588.028	23.46
588.151	21.46
588.273	25.46
588.395	22.46
588.518	16.46
588.64	20.46
588.763	18.46
588.885	31.46
589.007	28.46
589.13	12.46
589.252	8.46
589.375	36.46
589.497	28.46
589.619	26.46
589.742	16.46
589.864	51.46
589.986	33.46
590.109	6.46
590.231	11.46
590.354	26.46
590.476	11.46
590.598	8.46
590.721	10.46
590.843	32.46
590.965	33.46
591.088	38.46
591.21	32.46
591.332	44.46
591.455	17.46
591.577	15.46
591.7	22.46
591.822	21.46
591.944	24.46
592.067	33.46
592.189	12.46
592.311	16.46
592.434	32.46
592.556	33.46
592.678	14.46
592.801	13.46
592.923	22.46
593.045	28.46
593.168	15.46
593.29	13.46
593.412	23.46
593.535	14.46
593.657	9.46
593.779	23.46
593.902	35.46
594.024	19.46
594.146	17.46
594.269	19.46
594.391	27.46
594.513	30.46
594.636	28.46
594.758	10.46
594.88	14.46
595.003	30.46
595.125	8.46
595.247	22.46
595.37	28.46
595.492	8.46
595.614	41.46
595.737	12.46
595.859	14.46
595.981	24.46
596.104	25.46
596.226	4.46
596.348	10.46
596.471	12.46
596.593	29.46
596.715	20.46
596.838	9.46
596.96	20.46
597.082	18.46
597.204	22.46
597.327	22.46
597.449	13.46
597.571	21.46
597.694	46.46
597.816	30.46
597.938	23.46
598.061	11.46
598.183	17.46
598.305	34.46
598.427	18.46
598.55	13.46
598.672	50.46
598.794	36.46
598.917	4.46
599.039	16.46
599.161	11.46
599.283	12.46
599.406	17.46
599.528	17.46
599.65	42.46
599.773	29.46
599.895	43.46
600.017	28.46
600.139	35.46
600.262	10.46
600.384	18.46
600.506	12.46
600.628	31.46
600.751	19.46
600.873	10.46
600.995	11.46
601.118	20.46
601.24	18.46
601.362	28.46
601.484	26.46
601.607	8.46
601.729	-4.54
601.851	11.46
601.973	19.46
602.096	24.46
602.218	28.46
602.34	27.46
602.462	11.46
602.585	14.46
602.707	8.46
602.829	24.46
602.951	8.46
603.074	8.46
603.196	24.46
603.318	3.46
603.44	20.46
603.563	22.46
603.685	11.46
603.807	28.46
603.929	10.46
604.052	20.46
604.174	22.46
604.296	18.46
604.418	13.46
604.541	44.46
604.663	6.46
604.785	28.46
604.907	21.46
605.03	20.46
605.152	40.46
605.274	23.46
605.396	21.46
605.519	17.46
605.641	13.46
605.763	5.46
605.885	12.46
606.008	12.46
606.13	29.46
606.252	23.46
606.374	4.46
606.496	3.46
606.619	38.46
606.741	26.46
606.863	20.46
606.985	22.46
607.108	22.46
607.23	12.46
607.352	3.46
607.474	24.46
607.596	39.46
607.719	29.46
607.841	22.46
607.963	14.46
608.085	19.46
608.207	18.46
608.33	23.46
608.452	14.46
608.574	11.46
608.696	31.46
608.819	13.46
608.941	20.46
609.063	16.46
609.185	14.46
609.307	30.46
609.43	30.46
609.552	12.46
609.674	2.46
609.796	11.46
609.918	12.46
610.041	9.46
610.163	21.46
610.285	13.46
610.407	15.46
610.529	14.46
610.652	18.46
610.774	28.46
610.896	11.46
611.018	9.46
611.14	20.46
611.263	-2.54
611.385	23.46
611.507	32.46
611.629	22.46
611.751	36.46
611.873	46.46
611.996	21.46
612.118	18.46
612.24	10.46
612.362	34.46
612.484	29.46
612.607	27.46
612.729	45.46
612.851	39.46
612.973	29.46
613.095	2.46
613.218	15.46
613.34	24.46
613.462	20.46
613.584	16.46
613.706	21.46
613.828	24.46
613.951	24.46
614.073	17.46
614.195	6.46
614.317	19.46
614.439	16.46
614.561	12.46
614.684	16.46
614.806	20.46
614.928	21.46
615.05	30.46
615.172	30.46
615.294	29.46
615.417	17.46
615.539	12.46
615.661	30.46
615.783	17.46
615.905	14.46
616.027	21.46
616.15	18.46
616.272	16.46
616.394	-0.54
616.516	15.46
616.638	27.46
616.76	28.46
616.883	22.46
617.005	13.46
617.127	12.46
617.249	20.46
617.371	13.46
617.493	0.46
617.615	18.46
617.738	-0.54
617.86	24.46
617.982	7.46
618.104	-3.54
618.226	-9.54
618.348	6.46
618.471	36.46
618.593	27.46
618.715	8.46
618.837	28.46
618.959	27.46
619.081	36.46
619.203	16.46
619.326	27.46
619.448	21.46
619.57	25.46
619.692	22.46
619.814	20.46
619.936	6.46
620.058	25.46
620.181	9.46
620.303	4.46
620.425	6.46
620.547	15.46
620.669	4.46
620.791	8.46
620.913	-2.54
621.036	27.46
621.158	11.46
621.28	29.46
621.402	0.46
621.524	12.46
621.646	5.46
621.768	-8.54
621.891	1.46
622.013	14.46
622.135	8.46
622.257	9.46
622.379	16.46
622.501	10.46
622.623	21.46
622.745	12.46
622.868	17.46
622.99	5.46
623.112	10.46
623.234	18.46
623.356	13.46
623.478	4.46
623.6	9.46
623.722	-6.54
623.845	25.46
623.967	21.46
624.089	27.46
624.211	16.46
624.333	21.46
624.455	20.46
624.577	8.46
624.699	30.46
624.822	16.46
624.944	-7.54
625.066	1.46
625.188	4.46
625.31	20.46
625.432	24.46
625.554	14.46
625.676	42.46
625.799	11.46
625.921	18.46
626.043	4.46
626.165	24.46
626.287	-5.54
626.409	23.46
626.531	9.46
626.653	5.46
626.775	10.46
626.898	37.46
627.02	41.46
627.142	40.46
627.264	33.46
627.386	19.46
627.508	23.46
627.63	25.46
627.752	23.46
627.874	5.46
627.997	1.46
628.119	22.46
628.241	15.46
628.363	28.46
628.485	2.46
628.607	17.46
628.729	6.46
628.851	6.46
628.973	4.46
629.096	2.46
629.218	18.46
629.34	18.46
629.462	4.46
629.584	17.46
629.706	21.46
629.828	36.46
629.95	8.46
630.072	3.46
630.195	1.46
630.317	4.46
630.439	20.46
630.561	2.46
630.683	5.46
630.805	12.46
630.927	7.46
631.049	13.46
631.171	11.46
631.293	34.46
631.416	34.46
631.538	5.46
631.66	0.46
631.782	10.46
631.904	18.46
632.026	10.46
632.148	4.46
632.27	-0.54
632.392	9.46
632.514	10.46
632.637	16.46
632.759	-2.54
632.881	-0.54
633.003	6.46
633.125	-2.54
633.247	9.46
633.369	6.46
633.491	14.46
633.613	18.46
633.735	-6.54
633.858	8.46
633.98	-0.54
634.102	-1.54
634.224	5.46
634.346	5.46
634.468	12.46
634.59	4.46
634.712	10.46
634.834	14.46
634.956	2.46
635.078	13.46
635.201	29.46
635.323	13.46
635.445	15.46
635.567	1.46
635.689	23.46
635.811	17.46
635.933	9.46
636.055	22.46
636.177	5.46
636.299	22.46
636.421	-3.54
636.544	-18.54
636.666	7.46
636.788	12.46
636.91	4.46
637.032	8.46
637.154	9.46
637.276	22.46
637.398	26.46
637.52	16.46
637.642	-3.54
637.764	15.46
637.887	16.46
638.009	22.46
638.131	10.46
638.253	1.46
638.375	7.46
638.497	-3.54
638.619	-0.54
638.741	-1.54
638.863	-2.54
638.985	-0.54
639.107	13.46
639.23	10.46
639.352	16.46
639.474	-2.54
639.596	2.46
639.718	-3.54
639.84	5.46
639.962	7.46
640.084	4.46
640.206	14.46
640.328	9.46
640.45	11.46
640.573	1.46
640.695	24.46
640.817	13.46
640.939	18.46
641.061	9.46
641.183	12.46
641.305	13.46
641.427	1.46
641.549	13.46
641.671	10.46
641.793	11.46
641.915	27.46
642.038	13.46
642.16	4.46
642.282	-10.54
642.404	2.46
642.526	13.46
642.648	13.46
642.77	14.46
642.892	-2.54
643.014	24.46
643.136	14.46
643.258	-6.54
643.381	12.46
643.503	26.46
643.625	5.46
643.747	-10.54
643.869	-15.54
643.991	22.46
644.113	15.46
644.235	-4.54
644.357	11.46
644.479	19.46
644.601	-11.54
644.723	10.46
644.846	18.46
644.968	2.46
645.09	4.46
645.212	0.46
645.334	26.46
645.456	20.46
645.578	12.46
645.7	33.46
645.822	18.46
645.944	18.46
646.066	17.46
646.188	8.46
646.311	17.46
646.433	4.46
646.555	24.46
646.677	10.46
646.799	13.46
646.921	8.46
647.043	30.46
647.165	5.46
647.287	9.46
647.409	9.46
647.531	25.46
647.654	9.46
647.776	9.46
647.898	0.46
648.02	4.46
648.142	8.46
648.264	-6.54
648.386	3.46
648.508	-6.54
648.63	8.46
648.752	22.46
648.874	16.46
648.997	-2.54
649.119	22.46
649.241	6.46
649.363	-7.54
649.485	19.46
649.607	7.46
649.729	0.46
649.851	12.46
649.973	19.46
650.095	17.46
650.217	6.46
650.34	-14.54
650.462	14.46
650.584	2.46
650.706	11.46
650.828	12.46
650.95	-1.54
651.072	23.46
651.194	4.46
651.316	4.46
651.438	10.46
651.56	-5.54
651.683	-8.54
651.805	1.46
651.927	2.46
652.049	10.46
652.171	7.46
652.293	-2.54
652.415	-5.54
652.537	-20.54
652.659	-11.54
652.781	12.46
652.903	9.46
653.026	32.46
653.148	17.46
653.27	0.46
653.392	4.46
653.514	4.46
653.636	-1.54
653.758	5.46
653.88	-5.54
654.002	2.46
654.124	-7.54
654.247	-2.54
654.369	-7.54
654.491	12.46
654.613	7.46
654.735	-11.54
654.857	11.46
654.979	1.46
655.101	12.46
655.223	38.46
655.345	12.46
655.468	4.46
655.59	-2.54
655.712	13.46
655.834	14.46
655.956	24.46
656.078	11.46
656.2	5.46
656.322	-3.54
656.444	-9.54
656.566	-6.54
656.689	2.46
656.811	-6.54
656.933	28.46
657.055	-11.54
657.177	4.46
657.299	-3.54
657.421	7.46
657.543	31.46
657.665	13.46
657.787	4.46
657.91	0.46
658.032	6.46
658.154	-4.54
658.276	17.46
658.398	-15.54
658.52	-3.54
658.642	14.46
658.764	3.46
658.886	-19.54
659.009	9.46
659.131	6.46
659.253	8.46
659.375	-2.54
659.497	7.46
659.619	-1.54
659.741	17.46
659.863	11.46
659.985	-14.54
660.108	6.46
660.23	-3.54
660.352	18.46
660.474	6.46
660.596	2.46
660.718	11.46
660.84	12.46
660.962	5.46
661.084	-4.54
661.207	2.46
661.329	0.46
661.451	5.46
661.573	12.46
661.695	10.46
661.817	14.46
661.939	32.46
662.061	36.46
662.184	-1.54
662.306	6.46
662.428	0.46
662.55	13.46
662.672	-4.54
662.794	22.46
662.916	2.46
663.038	4.46
663.161	27.46
663.283	27.46
663.405	9.46
663.527	6.46
663.649	17.46
663.771	-5.54
663.893	0.46
664.015	14.46
664.138	-6.54
664.26	8.46
664.382	26.46
664.504	4.46
664.626	-9.54
664.748	-9.54
664.87	-4.54
664.992	24.46
665.115	18.46
665.237	5.46
665.359	2.46
665.481	2.46
665.603	7.46
665.725	-3.54
665.847	-7.54
665.97	7.46
666.092	2.46
666.214	-0.54
666.336	0.46
666.458	14.46
666.58	2.46
666.702	1.46
666.825	-5.54
666.947	-14.54
667.069	10.46
667.191	1.46
667.313	18.46
667.435	-15.54
667.557	-11.54
667.68	5.46
667.802	-8.54
667.924	11.46
668.046	16.46
668.168	16.46
668.29	35.46
668.412	12.46
668.535	5.46
668.657	-6.54
668.779	4.46
668.901	-2.54
669.023	15.46
669.145	5.46
669.267	-3.54
669.39	-5.54
669.512	9.46
669.634	11.46
669.756	0.46
669.878	11.46
670	24.46
670.123	-5.54
670.245	32.46
670.367	16.46
670.489	8.46
670.611	7.46
670.733	-5.54
670.856	-6.54
670.978	20.46
671.1	8.46
671.222	15.46
671.344	5.46
671.466	-2.54
671.589	-9.54
671.711	2.46
671.833	1.46
671.955	1.46
672.077	18.46
672.199	26.46
672.322	28.46
672.444	-3.54
672.566	24.46
672.688	21.46
672.81	12.46
672.932	7.46
673.055	6.46
673.177	1.46
673.299	6.46
673.421	4.46
673.543	8.46
673.665	18.46
673.788	22.46
673.91	6.46
674.032	-11.54
674.154	4.46
674.276	5.46
674.399	22.46
674.521	-1.54
674.643	-4.54
674.765	-8.54
674.887	17.46
675.009	9.46
675.132	9.46
675.254	10.46
675.376	5.46
675.498	-2.54
675.62	8.46
675.743	-10.54
675.865	-7.54
675.987	6.46
676.109	16.46
676.231	5.46
676.354	24.46
676.476	4.46
676.598	10.46
676.72	-0.54
676.842	11.46
676.965	3.46
677.087	1.46
677.209	15.46
677.331	16.46
677.453	-6.54
677.576	-6.54
677.698	13.46
677.82	12.46
677.942	10.46
678.064	1.46
678.187	12.46
678.309	0.46
678.431	-6.54
678.553	10.46
678.675	16.46
678.798	22.46
678.92	4.46
679.042	-5.54
679.164	8.46
679.286	15.46
679.409	-4.54
679.531	-1.54
679.653	-4.54
679.775	-13.54
679.898	-7.54
680.02	-10.54
680.142	-15.54
680.264	3.46
680.386	0.46
680.509	0.46
680.631	26.46
680.753	4.46
680.875	-2.54
680.998	7.46
681.12	-0.54
681.242	6.46
681.364	4.46
681.486	-4.54
681.609	-20.54
681.731	-5.54
681.853	0.46
681.975	4.46
682.098	20.46
682.22	34.46
682.342	7.46
682.464	11.46
682.587	1.46
682.709	-2.54
682.831	-4.54
682.953	-14.54
683.076	-1.54
683.198	12.46
683.32	17.46
683.442	3.46
683.565	9.46
683.687	-9.54
683.809	14.46
683.931	-15.54
684.054	39.46
684.176	9.46
684.298	10.46
684.42	-22.54
684.543	10.46
684.665	5.46
684.787	4.46
684.909	6.46
685.032	16.46
685.154	8.46
685.276	12.46
685.398	-12.54
685.521	-7.54
685.643	1.46
685.765	-0.54
685.887	12.46
686.01	5.46
686.132	2.46
686.254	30.46
686.377	17.46
686.499	12.46
686.621	9.46
686.743	4.46
686.866	-8.54
686.988	10.46
687.11	16.46
687.232	15.46
687.355	-11.54
687.477	-0.54
687.599	3.46
687.722	8.46
687.844	-4.54
687.966	16.46
688.088	12.46
688.211	20.46
688.333	23.46
688.455	12.46
688.578	11.46
688.7	19.46
688.822	-6.54
688.944	15.46
689.067	47.46
689.189	6.46
689.311	-6.54
689.434	-2.54
689.556	12.46
689.678	19.46
689.801	9.46
689.923	19.46
690.045	18.46
690.167	19.46
690.29	4.46
690.412	-0.54
690.534	6.46
690.657	4.46
690.779	-17.54
690.901	17.46
691.024	7.46
691.146	2.46
691.268	-10.54
691.391	1.46
691.513	13.46
691.635	20.46
691.758	20.46
691.88	21.46
692.002	0.46
692.125	7.46
692.247	0.46
692.369	7.46
692.492	-0.54
692.614	-7.54
692.736	-18.54
692.859	1.46
692.981	-4.54
693.103	10.46
693.226	12.46
693.348	24.46
693.47	20.46
693.593	41.46
693.715	36.46
693.837	22.46
693.96	14.46
694.082	6.46
694.204	11.46
694.327	12.46
694.449	1.46
694.571	19.46
694.694	20.46
694.816	10.46
694.938	1.46
695.061	2.46
695.183	11.46
695.305	12.46
695.428	9.46
695.55	-8.54
695.672	9.46
695.795	22.46
695.917	25.46
696.04	-3.54
696.162	-0.54
696.284	2.46
696.407	11.46
696.529	15.46
696.651	24.46
696.774	7.46
696.896	25.46
697.019	1.46
697.141	13.46
697.263	5.46
697.386	-4.54
697.508	-0.54
697.63	16.46
697.753	5.46
697.875	7.46
697.998	-4.54
698.12	12.46
698.242	-3.54
698.365	13.46
698.487	8.46
698.61	6.46
698.732	18.46
698.854	29.46
698.977	8.46
699.099	18.46
699.221	0.46
699.344	-13.54
699.466	12.46
699.589	6.46
699.711	1.46
699.834	9.46
699.956	1.46
700.078	8.46
700.201	0.46
700.323	18.46
700.446	19.46
700.568	-1.54
700.69	24.46
700.813	23.46
700.935	-2.54
701.058	-2.54
701.18	8.46
701.302	5.46
701.425	4.46
701.547	2.46
701.67	19.46
701.792	5.46
701.915	-3.54
702.037	8.46
702.159	13.46
702.282	19.46
702.404	17.46
702.527	-0.54
702.649	20.46
702.772	12.46
702.894	4.46
703.017	16.46
703.139	13.46
703.261	18.46
703.384	11.46
703.506	-26.54
703.629	-5.54
703.751	5.46
703.874	-3.54
703.996	2.46
704.119	0.46
704.241	15.46
704.364	2.46
704.486	-1.54
704.608	11.46
704.731	6.46
704.853	8.46
704.976	-13.54
705.098	4.46
705.221	9.46
705.343	15.46
705.466	12.46
705.588	22.46
705.711	14.46
705.833	1.46
705.956	20.46
706.078	18.46
706.201	10.46
706.323	5.46
706.446	10.46
