Data from LowRes_mercury_15_20_11_07_2024_HR4C61881__97__15-23-41-970.txt Node

Date: Thu Nov 07 15:23:41 EST 2024
User: crc00042
Spectrometer: HR4C6188
Trigger mode: 4
Integration Time (sec): 1.000000E-1
Scans to average: 1
Electric dark correction enabled: true
Nonlinearity correction enabled: false
Boxcar width: 0
XAxis mode: Wavelengths
Number of Pixels in Spectrum: 3648
>>>>>Begin Spectral Data<<<<<
245.66	-73.85
245.797	-73.85
245.934	-73.85
246.071	-71.85
246.208	16.15
246.344	6.15
246.481	-5.85
246.618	-1.85
246.755	16.15
246.892	-3.85
247.029	-20.85
247.165	-12.85
247.302	3.15
247.439	10.15
247.576	13.15
247.713	-21.85
247.849	29.15
247.986	-10.85
248.123	3.15
248.26	-2.85
248.396	13.15
248.533	1.15
248.67	-18.85
248.806	16.15
248.943	-13.85
249.08	-5.85
249.216	21.15
249.353	-3.85
249.49	4.15
249.626	7.15
249.763	-7.85
249.9	1.15
250.036	1.15
250.173	8.15
250.309	3.15
250.446	11.15
250.582	-0.85
250.719	-4.85
250.856	-20.85
250.992	-6.85
251.129	-2.85
251.265	-9.85
251.402	14.15
251.538	-10.85
251.675	5.15
251.811	16.15
251.948	27.15
252.084	13.15
252.221	1.15
252.357	-6.85
252.493	15.15
252.63	5.15
252.766	16.15
252.903	7.15
253.039	-0.85
253.175	1.15
253.312	-2.85
253.448	5.15
253.585	-11.85
253.721	2.15
253.857	13.15
253.994	5.15
254.13	-4.85
254.266	-0.85
254.403	-4.85
254.539	15.15
254.675	12.15
254.811	19.15
254.948	11.15
255.084	5.15
255.22	-3.85
255.356	9.15
255.493	20.15
255.629	8.15
255.765	-1.85
255.901	23.15
256.037	14.15
256.174	14.15
256.31	2.15
256.446	-10.85
256.582	9.15
256.718	20.15
256.854	24.15
256.991	19.15
257.127	19.15
257.263	1.15
257.399	6.15
257.535	-0.85
257.671	20.15
257.807	-9.85
257.943	-0.85
258.079	-22.85
258.215	14.15
258.351	24.15
258.487	7.15
258.623	28.15
258.759	6.15
258.895	-10.85
259.031	-12.85
259.167	-12.85
259.303	12.15
259.439	-20.85
259.575	14.15
259.711	3.15
259.847	5.15
259.983	12.15
260.119	2.15
260.255	16.15
260.391	22.15
260.527	16.15
260.663	17.15
260.799	14.15
260.934	7.15
261.07	-11.85
261.206	-0.85
261.342	-19.85
261.478	18.15
261.614	13.15
261.749	-15.85
261.885	-4.85
262.021	18.15
262.157	12.15
262.293	10.15
262.428	-6.85
262.564	13.15
262.7	8.15
262.836	18.15
262.971	4.15
263.107	0.15
263.243	23.15
263.378	10.15
263.514	-0.85
263.65	2.15
263.785	-11.85
263.921	-13.85
264.057	4.15
264.192	6.15
264.328	20.15
264.464	2.15
264.599	21.15
264.735	17.15
264.871	-19.85
265.006	10.15
265.142	-0.85
265.277	-21.85
265.413	1.15
265.548	6.15
265.684	11.15
265.819	-0.85
265.955	-10.85
266.091	-10.85
266.226	-6.85
266.362	5.15
266.497	14.15
266.633	-21.85
266.768	0.15
266.903	9.15
267.039	-3.85
267.174	7.15
267.31	4.15
267.445	-6.85
267.581	8.15
267.716	13.15
267.851	7.15
267.987	17.15
268.122	19.15
268.258	-3.85
268.393	13.15
268.528	17.15
268.664	5.15
268.799	0.15
268.934	-4.85
269.07	-9.85
269.205	3.15
269.34	23.15
269.476	8.15
269.611	-5.85
269.746	14.15
269.881	13.15
270.017	16.15
270.152	-9.85
270.287	15.15
270.422	20.15
270.558	5.15
270.693	18.15
270.828	2.15
270.963	9.15
271.098	-4.85
271.234	-5.85
271.369	-6.85
271.504	9.15
271.639	-17.85
271.774	-9.85
271.909	5.15
272.045	-10.85
272.18	19.15
272.315	15.15
272.45	9.15
272.585	1.15
272.72	-7.85
272.855	11.15
272.99	18.15
273.125	-11.85
273.26	-11.85
273.395	4.15
273.53	-3.85
273.665	8.15
273.8	-1.85
273.935	-1.85
274.07	-2.85
274.205	10.15
274.34	14.15
274.475	3.15
274.61	7.15
274.745	1.15
274.88	5.15
275.015	-3.85
275.15	18.15
275.285	-11.85
275.42	-6.85
275.555	18.15
275.69	4.15
275.825	-8.85
275.959	2.15
276.094	-10.85
276.229	-4.85
276.364	-2.85
276.499	2.15
276.634	2.15
276.768	5.15
276.903	13.15
277.038	29.15
277.173	14.15
277.308	-11.85
277.442	11.15
277.577	-2.85
277.712	-16.85
277.847	9.15
277.981	8.15
278.116	-12.85
278.251	-13.85
278.386	10.15
278.52	3.15
278.655	-14.85
278.79	23.15
278.924	15.15
279.059	10.15
279.194	-5.85
279.328	38.15
279.463	7.15
279.598	15.15
279.732	5.15
279.867	22.15
280.001	20.15
280.136	3.15
280.271	2.15
280.405	2.15
280.54	22.15
280.674	-13.85
280.809	17.15
280.943	6.15
281.078	-6.85
281.213	21.15
281.347	21.15
281.482	10.15
281.616	-2.85
281.751	-1.85
281.885	-14.85
282.02	-7.85
282.154	3.15
282.288	-14.85
282.423	-8.85
282.557	-7.85
282.692	-5.85
282.826	-1.85
282.961	6.15
283.095	-7.85
283.229	-7.85
283.364	-17.85
283.498	-11.85
283.633	10.15
283.767	-3.85
283.901	2.15
284.036	6.15
284.17	-13.85
284.304	4.15
284.439	3.15
284.573	-5.85
284.707	5.15
284.842	25.15
284.976	-8.85
285.11	-13.85
285.244	14.15
285.379	25.15
285.513	-11.85
285.647	17.15
285.781	15.15
285.916	8.15
286.05	12.15
286.184	31.15
286.318	12.15
286.453	8.15
286.587	-1.85
286.721	-3.85
286.855	-1.85
286.989	16.15
287.123	-4.85
287.258	-6.85
287.392	-9.85
287.526	6.15
287.66	-8.85
287.794	-9.85
287.928	-1.85
288.062	19.15
288.196	23.15
288.33	14.15
288.464	12.15
288.598	13.15
288.733	2.15
288.867	11.15
289.001	5.15
289.135	15.15
289.269	-0.85
289.403	11.15
289.537	7.15
289.671	7.15
289.805	4.15
289.939	16.15
290.073	13.15
290.207	24.15
290.34	0.15
290.474	19.15
290.608	6.15
290.742	22.15
290.876	10.15
291.01	2.15
291.144	8.15
291.278	24.15
291.412	10.15
291.546	2.15
291.679	16.15
291.813	4.15
291.947	-6.85
292.081	12.15
292.215	-6.85
292.349	10.15
292.482	8.15
292.616	-1.85
292.75	15.15
292.884	6.15
293.018	16.15
293.151	-23.85
293.285	12.15
293.419	1.15
293.553	16.15
293.686	-17.85
293.82	0.15
293.954	25.15
294.088	18.15
294.221	-11.85
294.355	0.15
294.489	3.15
294.622	-4.85
294.756	6.15
294.89	14.15
295.023	9.15
295.157	20.15
295.291	32.15
295.424	42.15
295.558	19.15
295.691	2.15
295.825	-5.85
295.959	5.15
296.092	-10.85
296.226	9.15
296.359	10.15
296.493	0.15
296.627	-1.85
296.76	-8.85
296.894	-10.85
297.027	13.15
297.161	7.15
297.294	-20.85
297.428	5.15
297.561	19.15
297.695	-3.85
297.828	14.15
297.962	-4.85
298.095	1.15
298.229	6.15
298.362	-8.85
298.495	-6.85
298.629	-10.85
298.762	-10.85
298.896	13.15
299.029	-6.85
299.162	-19.85
299.296	7.15
299.429	6.15
299.563	-6.85
299.696	16.15
299.829	7.15
299.963	19.15
300.096	-6.85
300.229	5.15
300.363	3.15
300.496	4.15
300.629	-7.85
300.763	5.15
300.896	-0.85
301.029	19.15
301.162	27.15
301.296	-7.85
301.429	-6.85
301.562	-19.85
301.695	19.15
301.829	9.15
301.962	22.15
302.095	11.15
302.228	4.15
302.362	9.15
302.495	-18.85
302.628	6.15
302.761	7.15
302.894	12.15
303.027	-2.85
303.161	-5.85
303.294	-17.85
303.427	17.15
303.56	12.15
303.693	5.15
303.826	-5.85
303.959	-22.85
304.092	4.15
304.225	2.15
304.359	5.15
304.492	5.15
304.625	12.15
304.758	18.15
304.891	-17.85
305.024	-20.85
305.157	0.15
305.29	-10.85
305.423	11.15
305.556	-1.85
305.689	26.15
305.822	-1.85
305.955	-8.85
306.088	1.15
306.221	8.15
306.354	-1.85
306.487	16.15
306.62	-2.85
306.752	0.15
306.885	5.15
307.018	8.15
307.151	8.15
307.284	14.15
307.417	-6.85
307.55	1.15
307.683	-0.85
307.816	22.15
307.948	19.15
308.081	25.15
308.214	14.15
308.347	18.15
308.48	-0.85
308.613	12.15
308.745	11.15
308.878	-5.85
309.011	5.15
309.144	13.15
309.277	-1.85
309.409	9.15
309.542	-5.85
309.675	21.15
309.808	5.15
309.94	12.15
310.073	10.15
310.206	-12.85
310.339	12.15
310.471	-13.85
310.604	21.15
310.737	-5.85
310.869	8.15
311.002	1.15
311.135	0.15
311.267	-3.85
311.4	-0.85
311.533	19.15
311.665	-16.85
311.798	-2.85
311.93	9.15
312.063	41.15
312.196	45.15
312.328	83.15
312.461	48.15
312.593	22.15
312.726	40.15
312.859	104.15
312.991	162.15
313.124	31.15
313.256	18.15
313.389	18.15
313.521	0.15
313.654	-4.85
313.786	-8.85
313.919	-3.85
314.051	-4.85
314.184	11.15
314.316	19.15
314.449	-7.85
314.581	0.15
314.714	0.15
314.846	8.15
314.978	-22.85
315.111	-10.85
315.243	6.15
315.376	13.15
315.508	6.15
315.641	5.15
315.773	15.15
315.905	2.15
316.038	4.15
316.17	17.15
316.302	-5.85
316.435	9.15
316.567	4.15
316.699	29.15
316.832	-15.85
316.964	4.15
317.096	13.15
317.229	-1.85
317.361	-8.85
317.493	-0.85
317.625	3.15
317.758	15.15
317.89	20.15
318.022	7.15
318.155	1.15
318.287	14.15
318.419	0.15
318.551	-2.85
318.683	19.15
318.816	-14.85
318.948	5.15
319.08	-8.85
319.212	-0.85
319.344	-2.85
319.477	-11.85
319.609	14.15
319.741	4.15
319.873	11.15
320.005	-13.85
320.137	4.15
320.269	2.15
320.401	14.15
320.534	-0.85
320.666	-9.85
320.798	0.15
320.93	3.15
321.062	-2.85
321.194	5.15
321.326	8.15
321.458	9.15
321.59	4.15
321.722	8.15
321.854	10.15
321.986	0.15
322.118	-1.85
322.25	-15.85
322.382	5.15
322.514	-7.85
322.646	-1.85
322.778	17.15
322.91	-8.85
323.042	-1.85
323.174	10.15
323.306	-12.85
323.438	-26.85
323.57	1.15
323.702	9.15
323.834	5.15
323.966	-17.85
324.097	9.15
324.229	32.15
324.361	15.15
324.493	-1.85
324.625	-18.85
324.757	13.15
324.889	7.15
325.021	8.15
325.152	22.15
325.284	16.15
325.416	-0.85
325.548	0.15
325.68	-19.85
325.811	9.15
325.943	20.15
326.075	-7.85
326.207	22.15
326.339	18.15
326.47	2.15
326.602	20.15
326.734	8.15
326.866	13.15
326.997	4.15
327.129	-7.85
327.261	-12.85
327.392	-3.85
327.524	9.15
327.656	18.15
327.787	26.15
327.919	9.15
328.051	-0.85
328.182	12.15
328.314	18.15
328.446	13.15
328.577	25.15
328.709	9.15
328.841	-17.85
328.972	-4.85
329.104	-9.85
329.235	-0.85
329.367	8.15
329.499	20.15
329.63	1.15
329.762	-7.85
329.893	13.15
330.025	11.15
330.156	-20.85
330.288	10.15
330.419	12.15
330.551	24.15
330.683	5.15
330.814	-11.85
330.946	13.15
331.077	-7.85
331.208	12.15
331.34	-1.85
331.471	-18.85
331.603	3.15
331.734	-4.85
331.866	7.15
331.997	8.15
332.129	13.15
332.26	-1.85
332.392	28.15
332.523	11.15
332.654	-1.85
332.786	22.15
332.917	13.15
333.048	26.15
333.18	12.15
333.311	1.15
333.443	13.15
333.574	14.15
333.705	59.15
333.837	33.15
333.968	103.15
334.099	217.15
334.231	190.15
334.362	54.15
334.493	32.15
334.624	15.15
334.756	24.15
334.887	45.15
335.018	7.15
335.15	18.15
335.281	-3.85
335.412	10.15
335.543	21.15
335.675	26.15
335.806	21.15
335.937	6.15
336.068	34.15
336.199	39.15
336.331	-4.85
336.462	-9.85
336.593	8.15
336.724	15.15
336.855	4.15
336.986	8.15
337.118	5.15
337.249	23.15
337.38	18.15
337.511	6.15
337.642	14.15
337.773	21.15
337.904	11.15
338.035	10.15
338.166	23.15
338.298	16.15
338.429	2.15
338.56	33.15
338.691	20.15
338.822	14.15
338.953	10.15
339.084	20.15
339.215	18.15
339.346	23.15
339.477	4.15
339.608	0.15
339.739	5.15
339.87	19.15
340.001	14.15
340.132	16.15
340.263	21.15
340.394	10.15
340.525	3.15
340.656	-9.85
340.787	7.15
340.918	38.15
341.049	16.15
341.179	24.15
341.31	-3.85
341.441	16.15
341.572	27.15
341.703	22.15
341.834	-2.85
341.965	21.15
342.096	6.15
342.227	9.15
342.357	18.15
342.488	19.15
342.619	20.15
342.75	13.15
342.881	2.15
343.012	37.15
343.142	37.15
343.273	8.15
343.404	22.15
343.535	36.15
343.666	32.15
343.796	31.15
343.927	35.15
344.058	41.15
344.189	35.15
344.319	35.15
344.45	21.15
344.581	22.15
344.712	13.15
344.842	36.15
344.973	22.15
345.104	40.15
345.234	41.15
345.365	22.15
345.496	30.15
345.626	27.15
345.757	16.15
345.888	12.15
346.018	29.15
346.149	23.15
346.28	42.15
346.41	23.15
346.541	26.15
346.672	16.15
346.802	39.15
346.933	26.15
347.063	39.15
347.194	28.15
347.325	19.15
347.455	33.15
347.586	36.15
347.716	21.15
347.847	41.15
347.977	37.15
348.108	44.15
348.238	45.15
348.369	40.15
348.499	49.15
348.63	34.15
348.76	38.15
348.891	51.15
349.021	58.15
349.152	60.15
349.282	53.15
349.413	31.15
349.543	35.15
349.674	22.15
349.804	56.15
349.935	21.15
350.065	14.15
350.196	33.15
350.326	24.15
350.456	10.15
350.587	34.15
350.717	25.15
350.848	38.15
350.978	57.15
351.108	22.15
351.239	43.15
351.369	22.15
351.499	21.15
351.63	41.15
351.76	21.15
351.89	25.15
352.021	35.15
352.151	24.15
352.281	36.15
352.412	34.15
352.542	16.15
352.672	16.15
352.803	21.15
352.933	30.15
353.063	17.15
353.193	13.15
353.324	18.15
353.454	28.15
353.584	26.15
353.714	16.15
353.845	17.15
353.975	14.15
354.105	18.15
354.235	36.15
354.365	23.15
354.496	22.15
354.626	24.15
354.756	45.15
354.886	27.15
355.016	30.15
355.146	19.15
355.277	14.15
355.407	27.15
355.537	25.15
355.667	15.15
355.797	27.15
355.927	22.15
356.057	37.15
356.187	30.15
356.318	20.15
356.448	27.15
356.578	24.15
356.708	39.15
356.838	41.15
356.968	37.15
357.098	52.15
357.228	38.15
357.358	9.15
357.488	7.15
357.618	48.15
357.748	42.15
357.878	14.15
358.008	8.15
358.138	32.15
358.268	32.15
358.398	25.15
358.528	28.15
358.658	47.15
358.788	22.15
358.918	31.15
359.048	38.15
359.178	37.15
359.308	32.15
359.438	46.15
359.568	30.15
359.698	41.15
359.827	18.15
359.957	22.15
360.087	21.15
360.217	24.15
360.347	57.15
360.477	24.15
360.607	6.15
360.737	37.15
360.866	26.15
360.996	14.15
361.126	38.15
361.256	46.15
361.386	52.15
361.516	29.15
361.645	4.15
361.775	44.15
361.905	7.15
362.035	61.15
362.165	42.15
362.294	40.15
362.424	30.15
362.554	35.15
362.684	32.15
362.813	19.15
362.943	52.15
363.073	50.15
363.203	58.15
363.332	68.15
363.462	76.15
363.592	94.15
363.721	125.15
363.851	169.15
363.981	227.15
364.111	264.15
364.24	320.15
364.37	468.15
364.5	851.15
364.629	1831.15
364.759	3823.15
364.888	6258.15
365.018	9372.15
365.148	14799.15
365.277	12934.15
365.407	4757.15
365.537	3098.15
365.666	4010.15
365.796	1843.15
365.925	821.15
366.055	775.15
366.184	1033.15
366.314	1403.15
366.444	2503.15
366.573	2117.15
366.703	664.15
366.832	214.15
366.962	125.15
367.091	81.15
367.221	71.15
367.35	58.15
367.48	84.15
367.609	65.15
367.739	63.15
367.868	16.15
367.998	56.15
368.127	62.15
368.257	55.15
368.386	68.15
368.516	62.15
368.645	43.15
368.775	48.15
368.904	40.15
369.033	37.15
369.163	19.15
369.292	48.15
369.422	34.15
369.551	33.15
369.68	48.15
369.81	45.15
369.939	33.15
370.069	53.15
370.198	31.15
370.327	30.15
370.457	48.15
370.586	45.15
370.715	38.15
370.845	31.15
370.974	52.15
371.103	57.15
371.233	48.15
371.362	54.15
371.491	33.15
371.621	55.15
371.75	35.15
371.879	39.15
372.008	44.15
372.138	49.15
372.267	65.15
372.396	65.15
372.525	52.15
372.655	22.15
372.784	23.15
372.913	27.15
373.042	44.15
373.172	18.15
373.301	-2.85
373.43	22.15
373.559	18.15
373.688	14.15
373.818	22.15
373.947	35.15
374.076	17.15
374.205	37.15
374.334	26.15
374.463	10.15
374.593	21.15
374.722	22.15
374.851	35.15
374.98	-0.85
375.109	14.15
375.238	21.15
375.367	28.15
375.496	7.15
375.625	34.15
375.755	22.15
375.884	35.15
376.013	35.15
376.142	-4.85
376.271	20.15
376.4	24.15
376.529	12.15
376.658	21.15
376.787	36.15
376.916	14.15
377.045	35.15
377.174	20.15
377.303	23.15
377.432	49.15
377.561	39.15
377.69	16.15
377.819	29.15
377.948	18.15
378.077	6.15
378.206	-7.85
378.335	15.15
378.464	15.15
378.593	21.15
378.722	0.15
378.851	-2.85
378.98	33.15
379.108	5.15
379.237	13.15
379.366	4.15
379.495	24.15
379.624	6.15
379.753	18.15
379.882	17.15
380.011	17.15
380.14	-1.85
380.268	10.15
380.397	11.15
380.526	24.15
380.655	2.15
380.784	7.15
380.913	0.15
381.041	10.15
381.17	-0.85
381.299	-0.85
381.428	18.15
381.557	19.15
381.685	31.15
381.814	27.15
381.943	19.15
382.072	16.15
382.2	14.15
382.329	17.15
382.458	25.15
382.587	34.15
382.715	34.15
382.844	31.15
382.973	7.15
383.102	30.15
383.23	29.15
383.359	16.15
383.488	25.15
383.616	-6.85
383.745	3.15
383.874	18.15
384.003	2.15
384.131	9.15
384.26	7.15
384.389	30.15
384.517	6.15
384.646	-6.85
384.774	11.15
384.903	22.15
385.032	39.15
385.16	17.15
385.289	19.15
385.418	22.15
385.546	19.15
385.675	23.15
385.803	29.15
385.932	42.15
386.06	39.15
386.189	37.15
386.318	35.15
386.446	9.15
386.575	9.15
386.703	34.15
386.832	10.15
386.96	7.15
387.089	47.15
387.217	23.15
387.346	3.15
387.474	-2.85
387.603	5.15
387.731	14.15
387.86	26.15
387.988	15.15
388.117	15.15
388.245	24.15
388.374	18.15
388.502	29.15
388.631	30.15
388.759	8.15
388.888	17.15
389.016	5.15
389.144	8.15
389.273	23.15
389.401	27.15
389.53	18.15
389.658	38.15
389.786	17.15
389.915	13.15
390.043	14.15
390.172	21.15
390.3	44.15
390.428	37.15
390.557	23.15
390.685	42.15
390.813	48.15
390.942	59.15
391.07	25.15
391.198	0.15
391.327	17.15
391.455	-6.85
391.583	34.15
391.712	23.15
391.84	12.15
391.968	-1.85
392.096	2.15
392.225	17.15
392.353	42.15
392.481	15.15
392.609	39.15
392.738	31.15
392.866	24.15
392.994	11.15
393.122	36.15
393.251	13.15
393.379	18.15
393.507	11.15
393.635	23.15
393.764	34.15
393.892	26.15
394.02	5.15
394.148	23.15
394.276	26.15
394.404	45.15
394.533	31.15
394.661	27.15
394.789	35.15
394.917	41.15
395.045	23.15
395.173	27.15
395.302	37.15
395.43	31.15
395.558	47.15
395.686	29.15
395.814	43.15
395.942	27.15
396.07	39.15
396.198	41.15
396.326	26.15
396.454	34.15
396.582	35.15
396.711	31.15
396.839	27.15
396.967	45.15
397.095	26.15
397.223	25.15
397.351	56.15
397.479	52.15
397.607	30.15
397.735	69.15
397.863	59.15
397.991	60.15
398.119	48.15
398.247	45.15
398.375	44.15
398.503	46.15
398.631	51.15
398.759	64.15
398.887	58.15
399.015	56.15
399.143	47.15
399.271	66.15
399.399	72.15
399.526	85.15
399.654	92.15
399.782	62.15
399.91	90.15
400.038	101.15
400.166	87.15
400.294	75.15
400.422	64.15
400.55	94.15
400.678	94.15
400.805	96.15
400.933	122.15
401.061	124.15
401.189	120.15
401.317	146.15
401.445	114.15
401.573	98.15
401.7	42.15
401.828	53.15
401.956	46.15
402.084	56.15
402.212	39.15
402.34	49.15
402.467	31.15
402.595	44.15
402.723	53.15
402.851	56.15
402.978	43.15
403.106	76.15
403.234	72.15
403.362	109.15
403.489	116.15
403.617	154.15
403.745	198.15
403.873	289.15
404	552.15
404.128	1448.15
404.256	3892.15
404.384	5118.15
404.511	5474.15
404.639	7231.15
404.767	11418.15
404.894	14618.15
405.022	4906.15
405.15	1294.15
405.277	409.15
405.405	238.15
405.533	136.15
405.66	112.15
405.788	74.15
405.916	72.15
406.043	33.15
406.171	37.15
406.299	56.15
406.426	74.15
406.554	52.15
406.681	67.15
406.809	54.15
406.937	54.15
407.064	65.15
407.192	147.15
407.319	331.15
407.447	542.15
407.574	526.15
407.702	617.15
407.83	841.15
407.957	1588.15
408.085	927.15
408.212	264.15
408.34	106.15
408.467	74.15
408.595	46.15
408.722	53.15
408.85	46.15
408.977	34.15
409.105	39.15
409.232	28.15
409.36	36.15
409.487	23.15
409.615	16.15
409.742	33.15
409.87	25.15
409.997	42.15
410.125	30.15
410.252	28.15
410.379	26.15
410.507	51.15
410.634	25.15
410.762	55.15
410.889	46.15
411.017	44.15
411.144	28.15
411.271	15.15
411.399	11.15
411.526	34.15
411.653	42.15
411.781	34.15
411.908	26.15
412.036	28.15
412.163	25.15
412.29	19.15
412.418	29.15
412.545	39.15
412.672	32.15
412.8	66.15
412.927	38.15
413.054	50.15
413.182	47.15
413.309	23.15
413.436	19.15
413.564	31.15
413.691	35.15
413.818	49.15
413.945	3.15
414.073	32.15
414.2	37.15
414.327	36.15
414.454	31.15
414.582	19.15
414.709	8.15
414.836	10.15
414.963	25.15
415.091	43.15
415.218	32.15
415.345	11.15
415.472	13.15
415.6	29.15
415.727	48.15
415.854	34.15
415.981	27.15
416.108	29.15
416.236	38.15
416.363	36.15
416.49	20.15
416.617	28.15
416.744	45.15
416.871	44.15
416.998	28.15
417.126	21.15
417.253	12.15
417.38	25.15
417.507	31.15
417.634	32.15
417.761	45.15
417.888	43.15
418.015	41.15
418.143	44.15
418.27	37.15
418.397	29.15
418.524	35.15
418.651	11.15
418.778	27.15
418.905	51.15
419.032	38.15
419.159	41.15
419.286	47.15
419.413	56.15
419.54	47.15
419.667	22.15
419.794	22.15
419.921	43.15
420.048	49.15
420.175	41.15
420.302	17.15
420.429	71.15
420.556	57.15
420.683	36.15
420.81	54.15
420.937	69.15
421.064	60.15
421.191	54.15
421.318	77.15
421.445	73.15
421.572	44.15
421.699	56.15
421.826	43.15
421.953	38.15
422.08	53.15
422.207	8.15
422.334	28.15
422.461	46.15
422.588	28.15
422.714	33.15
422.841	38.15
422.968	48.15
423.095	17.15
423.222	22.15
423.349	41.15
423.476	35.15
423.603	22.15
423.729	4.15
423.856	6.15
423.983	24.15
424.11	23.15
424.237	12.15
424.364	15.15
424.491	35.15
424.617	13.15
424.744	13.15
424.871	16.15
424.998	10.15
425.125	22.15
425.251	25.15
425.378	21.15
425.505	30.15
425.632	20.15
425.758	11.15
425.885	25.15
426.012	38.15
426.139	34.15
426.266	29.15
426.392	28.15
426.519	46.15
426.646	17.15
426.772	25.15
426.899	16.15
427.026	19.15
427.153	16.15
427.279	18.15
427.406	16.15
427.533	3.15
427.659	20.15
427.786	26.15
427.913	48.15
428.039	13.15
428.166	30.15
428.293	29.15
428.419	29.15
428.546	21.15
428.673	17.15
428.799	26.15
428.926	24.15
429.053	41.15
429.179	37.15
429.306	30.15
429.433	25.15
429.559	34.15
429.686	9.15
429.812	14.15
429.939	15.15
430.066	36.15
430.192	15.15
430.319	19.15
430.445	23.15
430.572	35.15
430.699	24.15
430.825	9.15
430.952	36.15
431.078	21.15
431.205	27.15
431.331	25.15
431.458	15.15
431.584	43.15
431.711	20.15
431.837	24.15
431.964	30.15
432.09	15.15
432.217	1.15
432.343	11.15
432.47	45.15
432.596	39.15
432.723	14.15
432.849	22.15
432.976	34.15
433.102	28.15
433.229	38.15
433.355	70.15
433.482	86.15
433.608	110.15
433.735	94.15
433.861	118.15
433.987	159.15
434.114	210.15
434.24	179.15
434.367	204.15
434.493	229.15
434.62	289.15
434.746	396.15
434.872	637.15
434.999	826.15
435.125	1732.15
435.252	5490.15
435.378	13401.15
435.504	15198.15
435.631	15413.15
435.757	15683.15
435.883	15683.15
436.01	15683.15
436.136	15683.15
436.262	15683.15
436.389	3433.15
436.515	2015.15
436.641	780.15
436.768	628.15
436.894	408.15
437.02	392.15
437.147	297.15
437.273	304.15
437.399	211.15
437.526	248.15
437.652	172.15
437.778	185.15
437.904	144.15
438.031	168.15
438.157	158.15
438.283	151.15
438.409	108.15
438.536	120.15
438.662	127.15
438.788	119.15
438.914	104.15
439.041	119.15
439.167	110.15
439.293	93.15
439.419	112.15
439.546	98.15
439.672	82.15
439.798	96.15
439.924	77.15
440.05	90.15
440.177	68.15
440.303	72.15
440.429	55.15
440.555	81.15
440.681	61.15
440.807	96.15
440.934	64.15
441.06	81.15
441.186	57.15
441.312	48.15
441.438	63.15
441.564	87.15
441.69	75.15
441.816	45.15
441.943	30.15
442.069	44.15
442.195	45.15
442.321	58.15
442.447	56.15
442.573	51.15
442.699	30.15
442.825	39.15
442.951	43.15
443.077	50.15
443.203	48.15
443.33	34.15
443.456	30.15
443.582	51.15
443.708	44.15
443.834	66.15
443.96	49.15
444.086	41.15
444.212	60.15
444.338	68.15
444.464	58.15
444.59	50.15
444.716	46.15
444.842	34.15
444.968	36.15
445.094	52.15
445.22	35.15
445.346	34.15
445.472	38.15
445.598	40.15
445.724	47.15
445.85	38.15
445.976	38.15
446.102	22.15
446.228	40.15
446.354	34.15
446.48	44.15
446.605	45.15
446.731	33.15
446.857	16.15
446.983	45.15
447.109	35.15
447.235	29.15
447.361	25.15
447.487	46.15
447.613	42.15
447.739	30.15
447.865	19.15
447.99	31.15
448.116	36.15
448.242	39.15
448.368	21.15
448.494	36.15
448.62	12.15
448.746	36.15
448.872	49.15
448.997	40.15
449.123	32.15
449.249	52.15
449.375	51.15
449.501	22.15
449.627	36.15
449.752	57.15
449.878	35.15
450.004	29.15
450.13	52.15
450.256	34.15
450.381	35.15
450.507	33.15
450.633	31.15
450.759	40.15
450.884	17.15
451.01	33.15
451.136	33.15
451.262	52.15
451.388	27.15
451.513	17.15
451.639	32.15
451.765	38.15
451.89	53.15
452.016	33.15
452.142	25.15
452.268	27.15
452.393	36.15
452.519	28.15
452.645	40.15
452.771	31.15
452.896	14.15
453.022	13.15
453.148	40.15
453.273	44.15
453.399	25.15
453.525	21.15
453.65	20.15
453.776	15.15
453.902	36.15
454.027	38.15
454.153	35.15
454.279	25.15
454.404	23.15
454.53	24.15
454.656	53.15
454.781	24.15
454.907	19.15
455.032	11.15
455.158	45.15
455.284	22.15
455.409	32.15
455.535	36.15
455.66	40.15
455.786	29.15
455.912	18.15
456.037	16.15
456.163	7.15
456.288	31.15
456.414	10.15
456.539	24.15
456.665	26.15
456.791	32.15
456.916	30.15
457.042	43.15
457.167	13.15
457.293	25.15
457.418	27.15
457.544	12.15
457.669	11.15
457.795	37.15
457.92	23.15
458.046	18.15
458.171	36.15
458.297	17.15
458.422	20.15
458.548	-1.85
458.673	32.15
458.799	32.15
458.924	13.15
459.05	11.15
459.175	21.15
459.301	30.15
459.426	43.15
459.552	49.15
459.677	31.15
459.803	16.15
459.928	22.15
460.053	42.15
460.179	28.15
460.304	56.15
460.43	17.15
460.555	28.15
460.681	31.15
460.806	28.15
460.931	32.15
461.057	33.15
461.182	27.15
461.308	29.15
461.433	19.15
461.558	4.15
461.684	37.15
461.809	37.15
461.934	15.15
462.06	34.15
462.185	17.15
462.311	10.15
462.436	14.15
462.561	28.15
462.687	18.15
462.812	25.15
462.937	11.15
463.063	12.15
463.188	8.15
463.313	42.15
463.439	32.15
463.564	20.15
463.689	41.15
463.814	49.15
463.94	24.15
464.065	22.15
464.19	32.15
464.316	14.15
464.441	17.15
464.566	2.15
464.692	32.15
464.817	21.15
464.942	33.15
465.067	24.15
465.193	-2.85
465.318	20.15
465.443	26.15
465.568	31.15
465.694	29.15
465.819	52.15
465.944	21.15
466.069	46.15
466.194	32.15
466.32	33.15
466.445	18.15
466.57	32.15
466.695	25.15
466.82	29.15
466.946	43.15
467.071	20.15
467.196	23.15
467.321	38.15
467.446	22.15
467.572	47.15
467.697	29.15
467.822	30.15
467.947	54.15
468.072	24.15
468.197	50.15
468.323	13.15
468.448	35.15
468.573	15.15
468.698	26.15
468.823	44.15
468.948	29.15
469.073	37.15
469.198	29.15
469.324	55.15
469.449	32.15
469.574	71.15
469.699	45.15
469.824	45.15
469.949	46.15
470.074	51.15
470.199	53.15
470.324	55.15
470.449	49.15
470.574	20.15
470.7	24.15
470.825	27.15
470.95	30.15
471.075	24.15
471.2	47.15
471.325	54.15
471.45	31.15
471.575	18.15
471.7	27.15
471.825	15.15
471.95	25.15
472.075	18.15
472.2	38.15
472.325	19.15
472.45	18.15
472.575	24.15
472.7	22.15
472.825	27.15
472.95	39.15
473.075	53.15
473.2	46.15
473.325	39.15
473.45	37.15
473.575	45.15
473.7	40.15
473.825	31.15
473.95	29.15
474.075	36.15
474.2	20.15
474.325	4.15
474.45	27.15
474.574	26.15
474.699	29.15
474.824	29.15
474.949	28.15
475.074	4.15
475.199	21.15
475.324	54.15
475.449	21.15
475.574	29.15
475.699	21.15
475.824	19.15
475.949	27.15
476.073	14.15
476.198	10.15
476.323	5.15
476.448	4.15
476.573	8.15
476.698	23.15
476.823	32.15
476.947	28.15
477.072	33.15
477.197	24.15
477.322	20.15
477.447	22.15
477.572	33.15
477.697	21.15
477.821	11.15
477.946	16.15
478.071	32.15
478.196	28.15
478.321	24.15
478.445	13.15
478.57	22.15
478.695	10.15
478.82	33.15
478.945	18.15
479.069	8.15
479.194	13.15
479.319	26.15
479.444	32.15
479.569	27.15
479.693	29.15
479.818	17.15
479.943	23.15
480.068	12.15
480.192	22.15
480.317	26.15
480.442	24.15
480.567	21.15
480.691	18.15
480.816	11.15
480.941	6.15
481.066	21.15
481.19	21.15
481.315	27.15
481.44	6.15
481.564	12.15
481.689	28.15
481.814	14.15
481.938	9.15
482.063	12.15
482.188	1.15
482.313	28.15
482.437	17.15
482.562	17.15
482.687	15.15
482.811	13.15
482.936	2.15
483.061	29.15
483.185	17.15
483.31	34.15
483.435	7.15
483.559	33.15
483.684	23.15
483.808	42.15
483.933	25.15
484.058	25.15
484.182	32.15
484.307	22.15
484.432	29.15
484.556	38.15
484.681	21.15
484.805	29.15
484.93	16.15
485.055	38.15
485.179	58.15
485.304	31.15
485.428	24.15
485.553	14.15
485.678	14.15
485.802	10.15
485.927	36.15
486.051	30.15
486.176	24.15
486.3	9.15
486.425	22.15
486.549	40.15
486.674	30.15
486.799	17.15
486.923	11.15
487.048	26.15
487.172	45.15
487.297	20.15
487.421	20.15
487.546	32.15
487.67	31.15
487.795	24.15
487.919	24.15
488.044	30.15
488.168	28.15
488.293	15.15
488.417	26.15
488.542	24.15
488.666	40.15
488.791	18.15
488.915	35.15
489.04	25.15
489.164	36.15
489.289	20.15
489.413	23.15
489.538	14.15
489.662	26.15
489.786	20.15
489.911	18.15
490.035	12.15
490.16	15.15
490.284	3.15
490.409	18.15
490.533	22.15
490.658	18.15
490.782	25.15
490.906	47.15
491.031	97.15
491.155	144.15
491.28	158.15
491.404	171.15
491.528	263.15
491.653	167.15
491.777	64.15
491.902	20.15
492.026	32.15
492.15	27.15
492.275	50.15
492.399	32.15
492.524	18.15
492.648	43.15
492.772	36.15
492.897	41.15
493.021	20.15
493.145	43.15
493.27	29.15
493.394	28.15
493.518	22.15
493.643	19.15
493.767	42.15
493.891	6.15
494.016	14.15
494.14	23.15
494.264	29.15
494.389	30.15
494.513	8.15
494.637	23.15
494.762	30.15
494.886	22.15
495.01	16.15
495.134	2.15
495.259	12.15
495.383	17.15
495.507	12.15
495.632	57.15
495.756	34.15
495.88	32.15
496.004	17.15
496.129	22.15
496.253	27.15
496.377	21.15
496.501	43.15
496.626	4.15
496.75	38.15
496.874	15.15
496.998	4.15
497.123	21.15
497.247	20.15
497.371	8.15
497.495	26.15
497.62	27.15
497.744	13.15
497.868	7.15
497.992	24.15
498.116	25.15
498.241	32.15
498.365	2.15
498.489	18.15
498.613	40.15
498.737	24.15
498.862	24.15
498.986	29.15
499.11	5.15
499.234	29.15
499.358	4.15
499.482	6.15
499.607	9.15
499.731	28.15
499.855	35.15
499.979	28.15
500.103	32.15
500.227	36.15
500.351	30.15
500.476	29.15
500.6	19.15
500.724	28.15
500.848	19.15
500.972	29.15
501.096	24.15
501.22	45.15
501.344	30.15
501.469	24.15
501.593	31.15
501.717	22.15
501.841	29.15
501.965	16.15
502.089	25.15
502.213	31.15
502.337	25.15
502.461	3.15
502.585	13.15
502.709	24.15
502.834	26.15
502.958	16.15
503.082	32.15
503.206	28.15
503.33	31.15
503.454	33.15
503.578	27.15
503.702	30.15
503.826	28.15
503.95	42.15
504.074	12.15
504.198	26.15
504.322	0.15
504.446	18.15
504.57	17.15
504.694	22.15
504.818	37.15
504.942	9.15
505.066	30.15
505.19	14.15
505.314	23.15
505.438	34.15
505.562	11.15
505.686	41.15
505.81	17.15
505.934	23.15
506.058	9.15
506.182	25.15
506.306	24.15
506.43	6.15
506.554	23.15
506.678	31.15
506.802	22.15
506.926	30.15
507.05	26.15
507.174	36.15
507.298	30.15
507.422	17.15
507.546	17.15
507.67	35.15
507.794	14.15
507.918	7.15
508.042	20.15
508.165	20.15
508.289	24.15
508.413	22.15
508.537	15.15
508.661	39.15
508.785	24.15
508.909	20.15
509.033	23.15
509.157	24.15
509.281	19.15
509.405	19.15
509.528	45.15
509.652	62.15
509.776	33.15
509.9	53.15
510.024	23.15
510.148	20.15
510.272	33.15
510.396	33.15
510.519	16.15
510.643	28.15
510.767	32.15
510.891	45.15
511.015	38.15
511.139	37.15
511.263	57.15
511.386	42.15
511.51	22.15
511.634	33.15
511.758	36.15
511.882	27.15
512.006	42.15
512.129	65.15
512.253	65.15
512.377	90.15
512.501	87.15
512.625	88.15
512.748	89.15
512.872	84.15
512.996	58.15
513.12	70.15
513.244	44.15
513.367	65.15
513.491	58.15
513.615	80.15
513.739	74.15
513.862	92.15
513.986	110.15
514.11	111.15
514.234	90.15
514.358	118.15
514.481	116.15
514.605	94.15
514.729	107.15
514.853	117.15
514.976	117.15
515.1	93.15
515.224	96.15
515.348	85.15
515.471	73.15
515.595	102.15
515.719	125.15
515.842	228.15
515.966	276.15
516.09	305.15
516.214	310.15
516.337	345.15
516.461	222.15
516.585	76.15
516.708	44.15
516.832	43.15
516.956	21.15
517.08	11.15
517.203	9.15
517.327	29.15
517.451	41.15
517.574	43.15
517.698	28.15
517.822	30.15
517.945	18.15
518.069	23.15
518.193	44.15
518.316	26.15
518.44	21.15
518.564	28.15
518.687	24.15
518.811	22.15
518.935	39.15
519.058	8.15
519.182	25.15
519.306	22.15
519.429	7.15
519.553	68.15
519.676	32.15
519.8	17.15
519.924	22.15
520.047	17.15
520.171	20.15
520.294	8.15
520.418	21.15
520.542	0.15
520.665	11.15
520.789	34.15
520.913	11.15
521.036	-1.85
521.16	14.15
521.283	16.15
521.407	12.15
521.53	3.15
521.654	2.15
521.778	20.15
521.901	13.15
522.025	24.15
522.148	20.15
522.272	23.15
522.395	20.15
522.519	25.15
522.643	12.15
522.766	23.15
522.89	14.15
523.013	28.15
523.137	-11.85
523.26	8.15
523.384	34.15
523.507	34.15
523.631	15.15
523.754	2.15
523.878	17.15
524.002	13.15
524.125	29.15
524.249	0.15
524.372	20.15
524.496	24.15
524.619	19.15
524.743	13.15
524.866	15.15
524.99	7.15
525.113	7.15
525.237	30.15
525.36	17.15
525.484	20.15
525.607	10.15
525.731	-1.85
525.854	26.15
525.978	27.15
526.101	-10.85
526.224	10.15
526.348	15.15
526.471	21.15
526.595	13.15
526.718	16.15
526.842	13.15
526.965	9.15
527.089	15.15
527.212	19.15
527.336	12.15
527.459	28.15
527.582	15.15
527.706	42.15
527.829	17.15
527.953	14.15
528.076	9.15
528.2	8.15
528.323	33.15
528.446	30.15
528.57	20.15
528.693	21.15
528.817	15.15
528.94	21.15
529.064	43.15
529.187	21.15
529.31	32.15
529.434	15.15
529.557	13.15
529.68	21.15
529.804	16.15
529.927	29.15
530.051	-2.85
530.174	-4.85
530.297	26.15
530.421	30.15
530.544	15.15
530.668	16.15
530.791	4.15
530.914	27.15
531.038	8.15
531.161	6.15
531.284	15.15
531.408	17.15
531.531	26.15
531.654	18.15
531.778	30.15
531.901	17.15
532.024	33.15
532.148	25.15
532.271	29.15
532.394	3.15
532.518	25.15
532.641	18.15
532.764	33.15
532.888	26.15
533.011	7.15
533.134	6.15
533.258	29.15
533.381	13.15
533.504	27.15
533.628	7.15
533.751	22.15
533.874	21.15
533.997	26.15
534.121	6.15
534.244	40.15
534.367	27.15
534.491	20.15
534.614	11.15
534.737	16.15
534.86	13.15
534.984	22.15
535.107	14.15
535.23	21.15
535.354	24.15
535.477	15.15
535.6	27.15
535.723	16.15
535.847	9.15
535.97	5.15
536.093	20.15
536.216	11.15
536.34	33.15
536.463	20.15
536.586	27.15
536.709	25.15
536.833	22.15
536.956	44.15
537.079	10.15
537.202	41.15
537.325	32.15
537.449	14.15
537.572	33.15
537.695	5.15
537.818	18.15
537.941	8.15
538.065	9.15
538.188	6.15
538.311	30.15
538.434	26.15
538.558	4.15
538.681	18.15
538.804	22.15
538.927	32.15
539.05	10.15
539.173	20.15
539.297	5.15
539.42	19.15
539.543	11.15
539.666	24.15
539.789	30.15
539.913	31.15
540.036	34.15
540.159	21.15
540.282	8.15
540.405	23.15
540.528	18.15
540.651	28.15
540.775	20.15
540.898	41.15
541.021	29.15
541.144	45.15
541.267	46.15
541.39	25.15
541.513	27.15
541.637	23.15
541.76	15.15
541.883	39.15
542.006	45.15
542.129	49.15
542.252	27.15
542.375	34.15
542.498	29.15
542.622	50.15
542.745	53.15
542.868	57.15
542.991	60.15
543.114	67.15
543.237	56.15
543.36	57.15
543.483	67.15
543.606	80.15
543.73	62.15
543.853	58.15
543.976	81.15
544.099	112.15
544.222	131.15
544.345	139.15
544.468	178.15
544.591	228.15
544.714	272.15
544.837	353.15
544.96	458.15
545.083	645.15
545.206	1097.15
545.329	2407.15
545.453	10924.15
545.576	15251.15
545.699	15683.15
545.822	15683.15
545.945	15683.15
546.068	15683.15
546.191	15683.15
546.314	15683.15
546.437	15683.15
546.56	15683.15
546.683	15683.15
546.806	15683.15
546.929	15683.15
547.052	15683.15
547.175	15683.15
547.298	15683.15
547.421	15683.15
547.544	15683.15
547.667	3500.15
547.79	2373.15
547.913	1011.15
548.036	870.15
548.159	614.15
548.282	620.15
548.405	484.15
548.528	487.15
548.651	400.15
548.774	395.15
548.897	344.15
549.02	347.15
549.143	305.15
549.266	264.15
549.389	268.15
549.512	244.15
549.635	242.15
549.758	244.15
549.881	225.15
550.004	226.15
550.127	199.15
550.25	194.15
550.373	178.15
550.496	199.15
550.619	173.15
550.742	160.15
550.865	130.15
550.988	195.15
551.111	156.15
551.234	148.15
551.356	120.15
551.479	122.15
551.602	133.15
551.725	145.15
551.848	138.15
551.971	137.15
552.094	115.15
552.217	104.15
552.34	117.15
552.463	98.15
552.586	102.15
552.709	93.15
552.832	104.15
552.955	113.15
553.077	116.15
553.2	107.15
553.323	92.15
553.446	89.15
553.569	87.15
553.692	114.15
553.815	97.15
553.938	122.15
554.061	105.15
554.184	82.15
554.306	84.15
554.429	87.15
554.552	82.15
554.675	69.15
554.798	88.15
554.921	96.15
555.044	68.15
555.167	78.15
555.29	81.15
555.412	60.15
555.535	79.15
555.658	66.15
555.781	76.15
555.904	70.15
556.027	72.15
556.15	86.15
556.272	69.15
556.395	81.15
556.518	73.15
556.641	58.15
556.764	84.15
556.887	82.15
557.01	69.15
557.132	53.15
557.255	64.15
557.378	87.15
557.501	69.15
557.624	51.15
557.747	75.15
557.869	91.15
557.992	78.15
558.115	95.15
558.238	64.15
558.361	94.15
558.483	102.15
558.606	76.15
558.729	57.15
558.852	67.15
558.975	49.15
559.098	56.15
559.22	59.15
559.343	45.15
559.466	39.15
559.589	54.15
559.712	35.15
559.834	55.15
559.957	53.15
560.08	41.15
560.203	52.15
560.325	64.15
560.448	72.15
560.571	59.15
560.694	55.15
560.817	70.15
560.939	63.15
561.062	59.15
561.185	74.15
561.308	62.15
561.43	57.15
561.553	59.15
561.676	51.15
561.799	70.15
561.921	62.15
562.044	48.15
562.167	49.15
562.29	77.15
562.413	61.15
562.535	87.15
562.658	64.15
562.781	61.15
562.903	67.15
563.026	91.15
563.149	133.15
563.272	120.15
563.394	118.15
563.517	93.15
563.64	61.15
563.763	64.15
563.885	59.15
564.008	68.15
564.131	41.15
564.254	35.15
564.376	43.15
564.499	24.15
564.622	29.15
564.744	56.15
564.867	44.15
564.99	50.15
565.113	58.15
565.235	38.15
565.358	21.15
565.481	18.15
565.603	38.15
565.726	20.15
565.849	38.15
565.971	32.15
566.094	43.15
566.217	53.15
566.34	23.15
566.462	38.15
566.585	46.15
566.708	56.15
566.83	38.15
566.953	50.15
567.076	27.15
567.198	45.15
567.321	32.15
567.444	33.15
567.566	34.15
567.689	36.15
567.812	21.15
567.934	34.15
568.057	29.15
568.18	25.15
568.302	25.15
568.425	37.15
568.548	33.15
568.67	54.15
568.793	37.15
568.916	53.15
569.038	45.15
569.161	42.15
569.283	40.15
569.406	30.15
569.529	20.15
569.651	32.15
569.774	36.15
569.897	28.15
570.019	56.15
570.142	49.15
570.265	25.15
570.387	32.15
570.51	46.15
570.632	54.15
570.755	28.15
570.878	17.15
571	36.15
571.123	38.15
571.246	34.15
571.368	34.15
571.491	33.15
571.613	38.15
571.736	8.15
571.859	37.15
571.981	21.15
572.104	16.15
572.226	36.15
572.349	20.15
572.472	38.15
572.594	36.15
572.717	21.15
572.839	19.15
572.962	31.15
573.085	45.15
573.207	29.15
573.33	34.15
573.452	40.15
573.575	39.15
573.697	25.15
573.82	16.15
573.943	40.15
574.065	55.15
574.188	30.15
574.31	50.15
574.433	43.15
574.555	59.15
574.678	34.15
574.801	29.15
574.923	34.15
575.046	31.15
575.168	23.15
575.291	36.15
575.413	39.15
575.536	34.15
575.659	44.15
575.781	41.15
575.904	59.15
576.026	70.15
576.149	72.15
576.271	113.15
576.394	216.15
576.516	505.15
576.639	3618.15
576.761	10162.15
576.884	8832.15
577.007	8746.15
577.129	8009.15
577.252	3668.15
577.374	1304.15
577.497	525.15
577.619	286.15
577.742	182.15
577.864	149.15
577.987	128.15
578.109	120.15
578.232	128.15
578.354	171.15
578.477	176.15
578.599	393.15
578.722	1934.15
578.844	9077.15
578.967	9839.15
579.089	8727.15
579.212	9022.15
579.334	5204.15
579.457	1914.15
579.579	721.15
579.702	341.15
579.824	194.15
579.947	140.15
580.069	112.15
580.192	82.15
580.314	81.15
580.437	81.15
580.559	93.15
580.682	76.15
580.804	79.15
580.927	62.15
581.049	59.15
581.172	58.15
581.294	64.15
581.417	57.15
581.539	46.15
581.662	55.15
581.784	52.15
581.907	59.15
582.029	45.15
582.152	20.15
582.274	46.15
582.396	29.15
582.519	34.15
582.641	37.15
582.764	42.15
582.886	53.15
583.009	47.15
583.131	28.15
583.254	29.15
583.376	52.15
583.499	42.15
583.621	35.15
583.743	41.15
583.866	45.15
583.988	56.15
584.111	43.15
584.233	42.15
584.356	52.15
584.478	36.15
584.601	13.15
584.723	39.15
584.845	40.15
584.968	13.15
585.09	16.15
585.213	35.15
585.335	30.15
585.458	20.15
585.58	18.15
585.702	30.15
585.825	48.15
585.947	37.15
586.07	26.15
586.192	37.15
586.315	31.15
586.437	22.15
586.559	9.15
586.682	30.15
586.804	38.15
586.927	21.15
587.049	32.15
587.171	38.15
587.294	39.15
587.416	33.15
587.539	8.15
587.661	19.15
587.783	10.15
587.906	39.15
588.028	41.15
588.151	27.15
588.273	23.15
588.395	19.15
588.518	26.15
588.64	24.15
588.763	48.15
588.885	26.15
589.007	48.15
589.13	32.15
589.252	16.15
589.375	39.15
589.497	28.15
589.619	42.15
589.742	14.15
589.864	41.15
589.986	27.15
590.109	16.15
590.231	38.15
590.354	16.15
590.476	14.15
590.598	30.15
590.721	27.15
590.843	16.15
590.965	28.15
591.088	42.15
591.21	41.15
591.332	32.15
591.455	12.15
591.577	17.15
591.7	14.15
591.822	23.15
591.944	38.15
592.067	41.15
592.189	20.15
592.311	24.15
592.434	20.15
592.556	42.15
592.678	37.15
592.801	32.15
592.923	13.15
593.045	25.15
593.168	33.15
593.29	21.15
593.412	25.15
593.535	21.15
593.657	13.15
593.779	22.15
593.902	21.15
594.024	43.15
594.146	40.15
594.269	16.15
594.391	8.15
594.513	46.15
594.636	19.15
594.758	13.15
594.88	30.15
595.003	41.15
595.125	23.15
595.247	23.15
595.37	37.15
595.492	15.15
595.614	39.15
595.737	20.15
595.859	31.15
595.981	37.15
596.104	32.15
596.226	30.15
596.348	28.15
596.471	21.15
596.593	29.15
596.715	4.15
596.838	17.15
596.96	24.15
597.082	9.15
597.204	11.15
597.327	12.15
597.449	35.15
597.571	39.15
597.694	46.15
597.816	17.15
597.938	29.15
598.061	16.15
598.183	6.15
598.305	22.15
598.427	29.15
598.55	42.15
598.672	37.15
598.794	31.15
598.917	27.15
599.039	40.15
599.161	10.15
599.283	12.15
599.406	31.15
599.528	33.15
599.65	34.15
599.773	27.15
599.895	40.15
600.017	40.15
600.139	6.15
600.262	21.15
600.384	18.15
600.506	40.15
600.628	42.15
600.751	34.15
600.873	22.15
600.995	25.15
601.118	13.15
601.24	20.15
601.362	40.15
601.484	30.15
601.607	34.15
601.729	30.15
601.851	5.15
601.973	20.15
602.096	25.15
602.218	22.15
602.34	40.15
602.462	37.15
602.585	18.15
602.707	5.15
602.829	14.15
602.951	15.15
603.074	0.15
603.196	15.15
603.318	12.15
603.44	28.15
603.563	15.15
603.685	20.15
603.807	24.15
603.929	17.15
604.052	26.15
604.174	25.15
604.296	35.15
604.418	30.15
604.541	49.15
604.663	29.15
604.785	21.15
604.907	30.15
605.03	4.15
605.152	48.15
605.274	26.15
605.396	21.15
605.519	44.15
605.641	13.15
605.763	19.15
605.885	33.15
606.008	25.15
606.13	36.15
606.252	26.15
606.374	17.15
606.496	17.15
606.619	26.15
606.741	31.15
606.863	41.15
606.985	32.15
607.108	37.15
607.23	29.15
607.352	11.15
607.474	12.15
607.596	30.15
607.719	5.15
607.841	20.15
607.963	27.15
608.085	28.15
608.207	50.15
608.33	27.15
608.452	16.15
608.574	22.15
608.696	37.15
608.819	26.15
608.941	33.15
609.063	21.15
609.185	20.15
609.307	22.15
609.43	38.15
609.552	32.15
609.674	20.15
609.796	37.15
609.918	42.15
610.041	16.15
610.163	29.15
610.285	18.15
610.407	21.15
610.529	20.15
610.652	23.15
610.774	32.15
610.896	10.15
611.018	19.15
611.14	24.15
611.263	24.15
611.385	21.15
611.507	39.15
611.629	14.15
611.751	29.15
611.873	43.15
611.996	16.15
612.118	21.15
612.24	24.15
612.362	27.15
612.484	28.15
612.607	47.15
612.729	40.15
612.851	33.15
612.973	18.15
613.095	13.15
613.218	10.15
613.34	12.15
613.462	12.15
613.584	17.15
613.706	25.15
613.828	32.15
613.951	22.15
614.073	3.15
614.195	6.15
614.317	22.15
614.439	18.15
614.561	25.15
614.684	5.15
614.806	23.15
614.928	33.15
615.05	18.15
615.172	26.15
615.294	30.15
615.417	20.15
615.539	21.15
615.661	22.15
615.783	36.15
615.905	31.15
616.027	14.15
616.15	22.15
616.272	10.15
616.394	16.15
616.516	9.15
616.638	18.15
616.76	27.15
616.883	25.15
617.005	23.15
617.127	12.15
617.249	32.15
617.371	32.15
617.493	17.15
617.615	23.15
617.738	26.15
617.86	23.15
617.982	20.15
618.104	17.15
618.226	14.15
618.348	13.15
618.471	20.15
618.593	23.15
618.715	16.15
618.837	17.15
618.959	18.15
619.081	38.15
619.203	10.15
619.326	13.15
619.448	26.15
619.57	30.15
619.692	39.15
619.814	51.15
619.936	32.15
620.058	26.15
620.181	9.15
620.303	7.15
620.425	13.15
620.547	20.15
620.669	4.15
620.791	30.15
620.913	11.15
621.036	17.15
621.158	10.15
621.28	27.15
621.402	4.15
621.524	17.15
621.646	17.15
621.768	20.15
621.891	12.15
622.013	26.15
622.135	27.15
622.257	14.15
622.379	7.15
622.501	15.15
622.623	6.15
622.745	23.15
622.868	11.15
622.99	12.15
623.112	-5.85
623.234	8.15
623.356	13.15
623.478	15.15
623.6	22.15
623.722	10.15
623.845	29.15
623.967	15.15
624.089	32.15
624.211	13.15
624.333	16.15
624.455	28.15
624.577	26.15
624.699	14.15
624.822	25.15
624.944	17.15
625.066	18.15
625.188	6.15
625.31	15.15
625.432	35.15
625.554	8.15
625.676	48.15
625.799	22.15
625.921	21.15
626.043	25.15
626.165	14.15
626.287	-2.85
626.409	1.15
626.531	-2.85
626.653	27.15
626.775	33.15
626.898	33.15
627.02	21.15
627.142	46.15
627.264	46.15
627.386	34.15
627.508	17.15
627.63	9.15
627.752	6.15
627.874	11.15
627.997	20.15
628.119	33.15
628.241	43.15
628.363	36.15
628.485	15.15
628.607	23.15
628.729	27.15
628.851	22.15
628.973	28.15
629.096	0.15
629.218	27.15
629.34	17.15
629.462	1.15
629.584	20.15
629.706	30.15
629.828	41.15
629.95	18.15
630.072	12.15
630.195	14.15
630.317	9.15
630.439	10.15
630.561	33.15
630.683	11.15
630.805	22.15
630.927	10.15
631.049	-7.85
631.171	4.15
631.293	15.15
631.416	18.15
631.538	13.15
631.66	13.15
631.782	12.15
631.904	41.15
632.026	20.15
632.148	25.15
632.27	8.15
632.392	23.15
632.514	23.15
632.637	27.15
632.759	16.15
632.881	2.15
633.003	6.15
633.125	-5.85
633.247	15.15
633.369	28.15
633.491	37.15
633.613	28.15
633.735	9.15
633.858	17.15
633.98	28.15
634.102	13.15
634.224	16.15
634.346	21.15
634.468	16.15
634.59	31.15
634.712	16.15
634.834	32.15
634.956	0.15
635.078	6.15
635.201	5.15
635.323	12.15
635.445	10.15
635.567	7.15
635.689	29.15
635.811	17.15
635.933	20.15
636.055	13.15
636.177	14.15
636.299	39.15
636.421	12.15
636.544	-0.85
636.666	10.15
636.788	1.15
636.91	30.15
637.032	21.15
637.154	11.15
637.276	38.15
637.398	32.15
637.52	6.15
637.642	9.15
637.764	19.15
637.887	13.15
638.009	8.15
638.131	9.15
638.253	14.15
638.375	29.15
638.497	22.15
638.619	0.15
638.741	3.15
638.863	-10.85
638.985	0.15
639.107	18.15
639.23	11.15
639.352	31.15
639.474	14.15
639.596	5.15
639.718	14.15
639.84	21.15
639.962	22.15
640.084	36.15
640.206	33.15
640.328	4.15
640.45	10.15
640.573	-3.85
640.695	21.15
640.817	24.15
640.939	30.15
641.061	6.15
641.183	15.15
641.305	7.15
641.427	12.15
641.549	13.15
641.671	21.15
641.793	15.15
641.915	5.15
642.038	4.15
642.16	18.15
642.282	3.15
642.404	11.15
642.526	21.15
642.648	29.15
642.77	30.15
642.892	9.15
643.014	14.15
643.136	20.15
643.258	22.15
643.381	25.15
643.503	36.15
643.625	13.15
643.747	-1.85
643.869	-0.85
643.991	9.15
644.113	9.15
644.235	5.15
644.357	8.15
644.479	21.15
644.601	-8.85
644.723	8.15
644.846	6.15
644.968	2.15
645.09	5.15
645.212	17.15
645.334	20.15
645.456	37.15
645.578	44.15
645.7	24.15
645.822	21.15
645.944	35.15
646.066	23.15
646.188	20.15
646.311	21.15
646.433	4.15
646.555	41.15
646.677	32.15
646.799	19.15
646.921	26.15
647.043	28.15
647.165	22.15
647.287	14.15
647.409	12.15
647.531	18.15
647.654	-5.85
647.776	22.15
647.898	31.15
648.02	27.15
648.142	12.15
648.264	13.15
648.386	12.15
648.508	13.15
648.63	6.15
648.752	1.15
648.874	8.15
648.997	21.15
649.119	24.15
649.241	1.15
649.363	20.15
649.485	25.15
649.607	7.15
649.729	1.15
649.851	-11.85
649.973	14.15
650.095	25.15
650.217	1.15
650.34	13.15
650.462	20.15
650.584	18.15
650.706	12.15
650.828	24.15
650.95	10.15
651.072	18.15
651.194	5.15
651.316	16.15
651.438	12.15
651.56	-2.85
651.683	-15.85
651.805	21.15
651.927	8.15
652.049	-7.85
652.171	8.15
652.293	14.15
652.415	13.15
652.537	8.15
652.659	4.15
652.781	16.15
652.903	22.15
653.026	24.15
653.148	19.15
653.27	19.15
653.392	25.15
653.514	10.15
653.636	13.15
653.758	18.15
653.88	-7.85
654.002	8.15
654.124	14.15
654.247	22.15
654.369	33.15
654.491	12.15
654.613	24.15
654.735	-0.85
654.857	33.15
654.979	29.15
655.101	18.15
655.223	44.15
655.345	32.15
655.468	0.15
655.59	12.15
655.712	7.15
655.834	11.15
655.956	33.15
656.078	15.15
656.2	15.15
656.322	22.15
656.444	-0.85
656.566	21.15
656.689	8.15
656.811	10.15
656.933	18.15
657.055	8.15
657.177	0.15
657.299	5.15
657.421	11.15
657.543	22.15
657.665	12.15
657.787	-0.85
657.91	13.15
658.032	21.15
658.154	9.15
658.276	32.15
658.398	-11.85
658.52	11.15
658.642	28.15
658.764	14.15
658.886	-6.85
659.009	16.15
659.131	24.15
659.253	13.15
659.375	30.15
659.497	8.15
659.619	18.15
659.741	12.15
659.863	3.15
659.985	1.15
660.108	14.15
660.23	10.15
660.352	12.15
660.474	23.15
660.596	15.15
660.718	22.15
660.84	-1.85
660.962	22.15
661.084	-0.85
661.207	0.15
661.329	10.15
661.451	5.15
661.573	9.15
661.695	26.15
661.817	21.15
661.939	26.15
662.061	16.15
662.184	7.15
662.306	-7.85
662.428	0.15
662.55	31.15
662.672	12.15
662.794	6.15
662.916	1.15
663.038	17.15
663.161	37.15
663.283	22.15
663.405	16.15
663.527	12.15
663.649	13.15
663.771	13.15
663.893	18.15
664.015	4.15
664.138	10.15
664.26	9.15
664.382	12.15
664.504	0.15
664.626	-0.85
664.748	-8.85
664.87	6.15
664.992	2.15
665.115	20.15
665.237	-0.85
665.359	-4.85
665.481	7.15
665.603	27.15
665.725	7.15
665.847	12.15
665.97	2.15
666.092	11.15
666.214	20.15
666.336	9.15
666.458	20.15
666.58	1.15
666.702	0.15
666.825	14.15
666.947	-3.85
667.069	10.15
667.191	17.15
667.313	28.15
667.435	-9.85
667.557	0.15
667.68	4.15
667.802	1.15
667.924	4.15
668.046	16.15
668.168	11.15
668.29	24.15
668.412	8.15
668.535	12.15
668.657	14.15
668.779	1.15
668.901	4.15
669.023	29.15
669.145	16.15
669.267	14.15
669.39	6.15
669.512	11.15
669.634	22.15
669.756	-0.85
669.878	10.15
670	23.15
670.123	2.15
670.245	37.15
670.367	26.15
670.489	9.15
670.611	-1.85
670.733	1.15
670.856	11.15
670.978	25.15
671.1	25.15
671.222	27.15
671.344	8.15
671.466	-6.85
671.589	10.15
671.711	12.15
671.833	-3.85
671.955	14.15
672.077	8.15
672.199	28.15
672.322	37.15
672.444	17.15
672.566	27.15
672.688	8.15
672.81	18.15
672.932	27.15
673.055	5.15
673.177	-14.85
673.299	9.15
673.421	-10.85
673.543	-3.85
673.665	16.15
673.788	40.15
673.91	7.15
674.032	-22.85
674.154	1.15
674.276	13.15
674.399	-1.85
674.521	11.15
674.643	15.15
674.765	-9.85
674.887	17.15
675.009	-6.85
675.132	-10.85
675.254	-4.85
675.376	6.15
675.498	0.15
675.62	14.15
675.743	3.15
675.865	20.15
675.987	-2.85
676.109	12.15
676.231	28.15
676.354	29.15
676.476	16.15
676.598	22.15
676.72	4.15
676.842	20.15
676.965	20.15
677.087	15.15
677.209	13.15
677.331	17.15
677.453	13.15
677.576	23.15
677.698	20.15
677.82	8.15
677.942	9.15
678.064	28.15
678.187	22.15
678.309	3.15
678.431	11.15
678.553	17.15
678.675	29.15
678.798	27.15
678.92	-4.85
679.042	14.15
679.164	14.15
679.286	30.15
679.409	13.15
679.531	1.15
679.653	-6.85
679.775	13.15
679.898	18.15
680.02	23.15
680.142	13.15
680.264	16.15
680.386	-14.85
680.509	22.15
680.631	13.15
680.753	12.15
680.875	5.15
680.998	6.15
681.12	17.15
681.242	16.15
681.364	-15.85
681.486	25.15
681.609	0.15
681.731	-7.85
681.853	4.15
681.975	3.15
682.098	5.15
682.22	39.15
682.342	4.15
682.464	28.15
682.587	7.15
682.709	21.15
682.831	8.15
682.953	20.15
683.076	2.15
683.198	16.15
683.32	10.15
683.442	-2.85
683.565	28.15
683.687	28.15
683.809	9.15
683.931	-12.85
684.054	20.15
684.176	14.15
684.298	18.15
684.42	9.15
684.543	10.15
684.665	1.15
684.787	13.15
684.909	10.15
685.032	29.15
685.154	-1.85
685.276	11.15
685.398	13.15
685.521	1.15
685.643	4.15
685.765	16.15
685.887	18.15
686.01	8.15
686.132	-1.85
686.254	21.15
686.377	12.15
686.499	13.15
686.621	23.15
686.743	13.15
686.866	5.15
686.988	34.15
687.11	18.15
687.232	0.15
687.355	1.15
687.477	23.15
687.599	10.15
687.722	9.15
687.844	18.15
687.966	16.15
688.088	16.15
688.211	29.15
688.333	9.15
688.455	14.15
688.578	15.15
688.7	21.15
688.822	-1.85
688.944	-3.85
689.067	39.15
689.189	5.15
689.311	-10.85
689.434	16.15
689.556	12.15
689.678	21.15
689.801	7.15
689.923	8.15
690.045	28.15
690.167	33.15
690.29	36.15
690.412	13.15
690.534	4.15
690.657	-0.85
690.779	8.15
690.901	26.15
691.024	19.15
691.146	14.15
691.268	7.15
691.391	7.15
691.513	29.15
691.635	26.15
691.758	14.15
691.88	29.15
692.002	4.15
692.125	-3.85
692.247	16.15
692.369	2.15
692.492	-0.85
692.614	4.15
692.736	0.15
692.859	2.15
692.981	-11.85
693.103	-7.85
693.226	8.15
693.348	42.15
693.47	6.15
693.593	26.15
693.715	31.15
693.837	36.15
693.96	8.15
694.082	-2.85
694.204	20.15
694.327	10.15
694.449	-8.85
694.571	14.15
694.694	7.15
694.816	20.15
694.938	5.15
695.061	8.15
695.183	7.15
695.305	-2.85
695.428	22.15
695.55	-5.85
695.672	-9.85
695.795	19.15
695.917	24.15
696.04	20.15
696.162	13.15
696.284	9.15
696.407	0.15
696.529	22.15
696.651	28.15
696.774	9.15
696.896	24.15
697.019	31.15
697.141	7.15
697.263	-6.85
697.386	10.15
697.508	28.15
697.63	12.15
697.753	23.15
697.875	11.15
697.998	19.15
698.12	14.15
698.242	5.15
698.365	8.15
698.487	8.15
698.61	16.15
698.732	8.15
698.854	13.15
698.977	1.15
699.099	20.15
699.221	17.15
699.344	-9.85
699.466	25.15
699.589	30.15
699.711	14.15
699.834	8.15
699.956	5.15
700.078	15.15
700.201	27.15
700.323	36.15
700.446	2.15
700.568	1.15
700.69	10.15
700.813	16.15
700.935	9.15
701.058	-1.85
701.18	10.15
701.302	8.15
701.425	8.15
701.547	26.15
701.67	38.15
701.792	20.15
701.915	14.15
702.037	0.15
702.159	9.15
702.282	20.15
702.404	14.15
702.527	10.15
702.649	39.15
702.772	13.15
702.894	3.15
703.017	-0.85
703.139	8.15
703.261	15.15
703.384	21.15
703.506	-11.85
703.629	-5.85
703.751	15.15
703.874	8.15
703.996	0.15
704.119	16.15
704.241	12.15
704.364	5.15
704.486	9.15
704.608	16.15
704.731	23.15
704.853	-1.85
704.976	-6.85
705.098	7.15
705.221	16.15
705.343	20.15
705.466	16.15
705.588	25.15
705.711	4.15
705.833	10.15
705.956	4.15
706.078	9.15
706.201	1.15
706.323	0.15
706.446	-5.85
