Data from LowRes_mercury_15_20_11_07_2024_HR4C61881__98__15-23-42-070.txt Node

Date: Thu Nov 07 15:23:42 EST 2024
User: crc00042
Spectrometer: HR4C6188
Trigger mode: 4
Integration Time (sec): 1.000000E-1
Scans to average: 1
Electric dark correction enabled: true
Nonlinearity correction enabled: false
Boxcar width: 0
XAxis mode: Wavelengths
Number of Pixels in Spectrum: 3648
>>>>>Begin Spectral Data<<<<<
245.66	-91.38
245.797	-91.38
245.934	-91.38
246.071	-63.38
246.208	8.62
246.344	5.62
246.481	-13.38
246.618	-1.38
246.755	9.62
246.892	5.62
247.029	0.62
247.165	-23.38
247.302	3.62
247.439	1.62
247.576	7.62
247.713	-5.38
247.849	21.62
247.986	-12.38
248.123	-1.38
248.26	-2.38
248.396	-11.38
248.533	-1.38
248.67	-3.38
248.806	2.62
248.943	-18.38
249.08	-23.38
249.216	-1.38
249.353	1.62
249.49	-8.38
249.626	-2.38
249.763	-25.38
249.9	-0.38
250.036	-3.38
250.173	-7.38
250.309	4.62
250.446	7.62
250.582	-3.38
250.719	-16.38
250.856	-7.38
250.992	-4.38
251.129	-9.38
251.265	-5.38
251.402	-12.38
251.538	-13.38
251.675	-0.38
251.811	20.62
251.948	14.62
252.084	1.62
252.221	2.62
252.357	14.62
252.493	22.62
252.63	-5.38
252.766	24.62
252.903	9.62
253.039	24.62
253.175	8.62
253.312	18.62
253.448	-14.38
253.585	-3.38
253.721	17.62
253.857	-13.38
253.994	-1.38
254.13	6.62
254.266	-1.38
254.403	1.62
254.539	-1.38
254.675	5.62
254.811	2.62
254.948	-2.38
255.084	-15.38
255.22	-19.38
255.356	-3.38
255.493	6.62
255.629	18.62
255.765	-11.38
255.901	17.62
256.037	10.62
256.174	7.62
256.31	-4.38
256.446	-1.38
256.582	10.62
256.718	22.62
256.854	22.62
256.991	21.62
257.127	16.62
257.263	4.62
257.399	9.62
257.535	-9.38
257.671	10.62
257.807	-1.38
257.943	-12.38
258.079	-1.38
258.215	-0.38
258.351	24.62
258.487	-13.38
258.623	5.62
258.759	4.62
258.895	16.62
259.031	2.62
259.167	-3.38
259.303	8.62
259.439	-2.38
259.575	-3.38
259.711	20.62
259.847	2.62
259.983	-2.38
260.119	-0.38
260.255	-9.38
260.391	-2.38
260.527	8.62
260.663	-1.38
260.799	11.62
260.934	8.62
261.07	0.62
261.206	-24.38
261.342	3.62
261.478	2.62
261.614	18.62
261.749	-2.38
261.885	-15.38
262.021	5.62
262.157	28.62
262.293	5.62
262.428	-2.38
262.564	-9.38
262.7	11.62
262.836	-2.38
262.971	17.62
263.107	11.62
263.243	-4.38
263.378	-3.38
263.514	-1.38
263.65	2.62
263.785	-10.38
263.921	-3.38
264.057	-15.38
264.192	-10.38
264.328	16.62
264.464	1.62
264.599	-0.38
264.735	22.62
264.871	-10.38
265.006	14.62
265.142	5.62
265.277	5.62
265.413	10.62
265.548	-3.38
265.684	29.62
265.819	0.62
265.955	-18.38
266.091	14.62
266.226	4.62
266.362	7.62
266.497	14.62
266.633	-14.38
266.768	-15.38
266.903	8.62
267.039	9.62
267.174	-2.38
267.31	-19.38
267.445	-7.38
267.581	-14.38
267.716	21.62
267.851	11.62
267.987	18.62
268.122	16.62
268.258	11.62
268.393	-2.38
268.528	-0.38
268.664	6.62
268.799	-14.38
268.934	7.62
269.07	-10.38
269.205	2.62
269.34	-0.38
269.476	12.62
269.611	-1.38
269.746	5.62
269.881	18.62
270.017	11.62
270.152	0.62
270.287	8.62
270.422	-4.38
270.558	-2.38
270.693	4.62
270.828	-11.38
270.963	-13.38
271.098	-1.38
271.234	-0.38
271.369	18.62
271.504	11.62
271.639	-0.38
271.774	-0.38
271.909	-5.38
272.045	-16.38
272.18	2.62
272.315	1.62
272.45	30.62
272.585	-7.38
272.72	0.62
272.855	-1.38
272.99	24.62
273.125	2.62
273.26	-7.38
273.395	-2.38
273.53	-8.38
273.665	20.62
273.8	0.62
273.935	-1.38
274.07	1.62
274.205	0.62
274.34	0.62
274.475	8.62
274.61	8.62
274.745	-5.38
274.88	13.62
275.015	8.62
275.15	11.62
275.285	4.62
275.42	4.62
275.555	18.62
275.69	15.62
275.825	-4.38
275.959	1.62
276.094	-2.38
276.229	7.62
276.364	-5.38
276.499	-13.38
276.634	-9.38
276.768	-9.38
276.903	9.62
277.038	14.62
277.173	19.62
277.308	16.62
277.442	-8.38
277.577	-21.38
277.712	17.62
277.847	-5.38
277.981	6.62
278.116	-18.38
278.251	5.62
278.386	-0.38
278.52	6.62
278.655	-9.38
278.79	15.62
278.924	7.62
279.059	-0.38
279.194	-10.38
279.328	42.62
279.463	31.62
279.598	35.62
279.732	26.62
279.867	22.62
280.001	0.62
280.136	-3.38
280.271	27.62
280.405	17.62
280.54	16.62
280.674	-5.38
280.809	15.62
280.943	18.62
281.078	11.62
281.213	13.62
281.347	7.62
281.482	5.62
281.616	10.62
281.751	0.62
281.885	-29.38
282.02	-2.38
282.154	8.62
282.288	5.62
282.423	10.62
282.557	7.62
282.692	-7.38
282.826	-8.38
282.961	10.62
283.095	5.62
283.229	-7.38
283.364	-13.38
283.498	-7.38
283.633	8.62
283.767	15.62
283.901	3.62
284.036	9.62
284.17	26.62
284.304	-4.38
284.439	-5.38
284.573	-3.38
284.707	3.62
284.842	6.62
284.976	0.62
285.11	-14.38
285.244	13.62
285.379	41.62
285.513	7.62
285.647	0.62
285.781	13.62
285.916	11.62
286.05	-1.38
286.184	21.62
286.318	-1.38
286.453	6.62
286.587	-16.38
286.721	-1.38
286.855	17.62
286.989	20.62
287.123	0.62
287.258	-4.38
287.392	-1.38
287.526	13.62
287.66	-0.38
287.794	5.62
287.928	-6.38
288.062	13.62
288.196	9.62
288.33	18.62
288.464	18.62
288.598	22.62
288.733	2.62
288.867	2.62
289.001	14.62
289.135	2.62
289.269	9.62
289.403	-2.38
289.537	8.62
289.671	5.62
289.805	16.62
289.939	23.62
290.073	8.62
290.207	6.62
290.34	1.62
290.474	7.62
290.608	17.62
290.742	2.62
290.876	17.62
291.01	-1.38
291.144	14.62
291.278	33.62
291.412	28.62
291.546	8.62
291.679	-3.38
291.813	-4.38
291.947	-7.38
292.081	17.62
292.215	11.62
292.349	16.62
292.482	-7.38
292.616	-2.38
292.75	-1.38
292.884	13.62
293.018	9.62
293.151	5.62
293.285	28.62
293.419	0.62
293.553	1.62
293.686	1.62
293.82	13.62
293.954	20.62
294.088	15.62
294.221	-2.38
294.355	-5.38
294.489	-3.38
294.622	-18.38
294.756	-11.38
294.89	-2.38
295.023	-0.38
295.157	11.62
295.291	1.62
295.424	4.62
295.558	8.62
295.691	2.62
295.825	-3.38
295.959	17.62
296.092	-27.38
296.226	-1.38
296.359	7.62
296.493	15.62
296.627	2.62
296.76	-9.38
296.894	-1.38
297.027	13.62
297.161	1.62
297.294	-29.38
297.428	0.62
297.561	10.62
297.695	5.62
297.828	-5.38
297.962	15.62
298.095	3.62
298.229	17.62
298.362	-9.38
298.495	-12.38
298.629	-16.38
298.762	19.62
298.896	2.62
299.029	2.62
299.162	14.62
299.296	7.62
299.429	0.62
299.563	16.62
299.696	-0.38
299.829	4.62
299.963	21.62
300.096	13.62
300.229	1.62
300.363	4.62
300.496	11.62
300.629	-15.38
300.763	-8.38
300.896	1.62
301.029	-6.38
301.162	5.62
301.296	-10.38
301.429	20.62
301.562	-14.38
301.695	4.62
301.829	25.62
301.962	28.62
302.095	12.62
302.228	-8.38
302.362	-3.38
302.495	-15.38
302.628	-7.38
302.761	10.62
302.894	9.62
303.027	18.62
303.161	-13.38
303.294	6.62
303.427	17.62
303.56	8.62
303.693	15.62
303.826	-2.38
303.959	2.62
304.092	-2.38
304.225	-12.38
304.359	12.62
304.492	23.62
304.625	-1.38
304.758	-2.38
304.891	-8.38
305.024	3.62
305.157	-7.38
305.29	-0.38
305.423	22.62
305.556	12.62
305.689	25.62
305.822	-7.38
305.955	-4.38
306.088	-1.38
306.221	-10.38
306.354	-1.38
306.487	0.62
306.62	7.62
306.752	8.62
306.885	0.62
307.018	6.62
307.151	8.62
307.284	6.62
307.417	-6.38
307.55	8.62
307.683	1.62
307.816	28.62
307.948	12.62
308.081	20.62
308.214	20.62
308.347	17.62
308.48	-9.38
308.613	-3.38
308.745	18.62
308.878	5.62
309.011	4.62
309.144	9.62
309.277	-0.38
309.409	15.62
309.542	-5.38
309.675	5.62
309.808	19.62
309.94	19.62
310.073	-3.38
310.206	-5.38
310.339	14.62
310.471	-10.38
310.604	21.62
310.737	1.62
310.869	2.62
311.002	8.62
311.135	-6.38
311.267	-21.38
311.4	5.62
311.533	21.62
311.665	-4.38
311.798	6.62
311.93	12.62
312.063	32.62
312.196	42.62
312.328	76.62
312.461	52.62
312.593	28.62
312.726	61.62
312.859	98.62
312.991	172.62
313.124	43.62
313.256	17.62
313.389	24.62
313.521	-6.38
313.654	-0.38
313.786	2.62
313.919	-11.38
314.051	-11.38
314.184	21.62
314.316	8.62
314.449	4.62
314.581	2.62
314.714	10.62
314.846	-4.38
314.978	-0.38
315.111	-1.38
315.243	15.62
315.376	6.62
315.508	12.62
315.641	-3.38
315.773	7.62
315.905	1.62
316.038	-4.38
316.17	1.62
316.302	4.62
316.435	5.62
316.567	-9.38
316.699	31.62
316.832	1.62
316.964	-8.38
317.096	5.62
317.229	16.62
317.361	-23.38
317.493	-6.38
317.625	-17.38
317.758	11.62
317.89	25.62
318.022	-7.38
318.155	-4.38
318.287	1.62
318.419	0.62
318.551	15.62
318.683	10.62
318.816	7.62
318.948	-3.38
319.08	1.62
319.212	-4.38
319.344	7.62
319.477	-10.38
319.609	10.62
319.741	11.62
319.873	-0.38
320.005	-2.38
320.137	-3.38
320.269	-11.38
320.401	0.62
320.534	10.62
320.666	-8.38
320.798	10.62
320.93	-4.38
321.062	-18.38
321.194	-7.38
321.326	12.62
321.458	1.62
321.59	11.62
321.722	-5.38
321.854	-3.38
321.986	-3.38
322.118	6.62
322.25	5.62
322.382	12.62
322.514	2.62
322.646	-5.38
322.778	17.62
322.91	-7.38
323.042	7.62
323.174	4.62
323.306	-4.38
323.438	-2.38
323.57	16.62
323.702	5.62
323.834	10.62
323.966	-1.38
324.097	0.62
324.229	11.62
324.361	-13.38
324.493	-18.38
324.625	-1.38
324.757	27.62
324.889	9.62
325.021	13.62
325.152	13.62
325.284	27.62
325.416	-1.38
325.548	26.62
325.68	4.62
325.811	20.62
325.943	5.62
326.075	-9.38
326.207	-1.38
326.339	14.62
326.47	5.62
326.602	8.62
326.734	12.62
326.866	25.62
326.997	-20.38
327.129	-9.38
327.261	-7.38
327.392	5.62
327.524	-18.38
327.656	-4.38
327.787	18.62
327.919	9.62
328.051	15.62
328.182	33.62
328.314	35.62
328.446	2.62
328.577	21.62
328.709	12.62
328.841	3.62
328.972	5.62
329.104	-2.38
329.235	-2.38
329.367	-8.38
329.499	-17.38
329.63	9.62
329.762	7.62
329.893	-3.38
330.025	-1.38
330.156	9.62
330.288	8.62
330.419	40.62
330.551	20.62
330.683	11.62
330.814	-1.38
330.946	14.62
331.077	-0.38
331.208	2.62
331.34	6.62
331.471	-2.38
331.603	-7.38
331.734	-2.38
331.866	14.62
331.997	9.62
332.129	15.62
332.26	-12.38
332.392	30.62
332.523	0.62
332.654	-10.38
332.786	15.62
332.917	10.62
333.048	23.62
333.18	13.62
333.311	-3.38
333.443	11.62
333.574	-0.38
333.705	51.62
333.837	40.62
333.968	127.62
334.099	247.62
334.231	206.62
334.362	56.62
334.493	18.62
334.624	21.62
334.756	32.62
334.887	29.62
335.018	12.62
335.15	28.62
335.281	16.62
335.412	21.62
335.543	10.62
335.675	11.62
335.806	8.62
335.937	14.62
336.068	7.62
336.199	39.62
336.331	-0.38
336.462	3.62
336.593	21.62
336.724	5.62
336.855	21.62
336.986	19.62
337.118	22.62
337.249	12.62
337.38	27.62
337.511	13.62
337.642	16.62
337.773	2.62
337.904	14.62
338.035	7.62
338.166	6.62
338.298	25.62
338.429	13.62
338.56	17.62
338.691	21.62
338.822	9.62
338.953	17.62
339.084	26.62
339.215	25.62
339.346	1.62
339.477	1.62
339.608	8.62
339.739	10.62
339.87	2.62
340.001	-3.38
340.132	31.62
340.263	18.62
340.394	8.62
340.525	22.62
340.656	13.62
340.787	24.62
340.918	29.62
341.049	16.62
341.179	-1.38
341.31	-0.38
341.441	11.62
341.572	17.62
341.703	14.62
341.834	16.62
341.965	20.62
342.096	0.62
342.227	12.62
342.357	22.62
342.488	5.62
342.619	21.62
342.75	9.62
342.881	6.62
343.012	41.62
343.142	38.62
343.273	7.62
343.404	21.62
343.535	35.62
343.666	20.62
343.796	42.62
343.927	21.62
344.058	43.62
344.189	37.62
344.319	30.62
344.45	11.62
344.581	37.62
344.712	20.62
344.842	38.62
344.973	17.62
345.104	36.62
345.234	31.62
345.365	9.62
345.496	18.62
345.626	29.62
345.757	26.62
345.888	26.62
346.018	12.62
346.149	35.62
346.28	55.62
346.41	17.62
346.541	34.62
346.672	24.62
346.802	33.62
346.933	21.62
347.063	25.62
347.194	38.62
347.325	34.62
347.455	42.62
347.586	15.62
347.716	30.62
347.847	42.62
347.977	28.62
348.108	27.62
348.238	47.62
348.369	38.62
348.499	27.62
348.63	43.62
348.76	39.62
348.891	39.62
349.021	56.62
349.152	48.62
349.282	47.62
349.413	29.62
349.543	34.62
349.674	40.62
349.804	45.62
349.935	23.62
350.065	32.62
350.196	42.62
350.326	43.62
350.456	27.62
350.587	40.62
350.717	25.62
350.848	25.62
350.978	32.62
351.108	31.62
351.239	26.62
351.369	23.62
351.499	28.62
351.63	37.62
351.76	39.62
351.89	31.62
352.021	31.62
352.151	27.62
352.281	28.62
352.412	32.62
352.542	22.62
352.672	22.62
352.803	30.62
352.933	14.62
353.063	40.62
353.193	24.62
353.324	34.62
353.454	17.62
353.584	41.62
353.714	23.62
353.845	19.62
353.975	0.62
354.105	11.62
354.235	32.62
354.365	7.62
354.496	14.62
354.626	36.62
354.756	32.62
354.886	17.62
355.016	26.62
355.146	17.62
355.277	13.62
355.407	16.62
355.537	21.62
355.667	21.62
355.797	11.62
355.927	32.62
356.057	20.62
356.187	16.62
356.318	14.62
356.448	26.62
356.578	22.62
356.708	44.62
356.838	36.62
356.968	22.62
357.098	32.62
357.228	39.62
357.358	19.62
357.488	39.62
357.618	62.62
357.748	33.62
357.878	22.62
358.008	13.62
358.138	23.62
358.268	32.62
358.398	39.62
358.528	13.62
358.658	27.62
358.788	27.62
358.918	33.62
359.048	22.62
359.178	37.62
359.308	29.62
359.438	36.62
359.568	24.62
359.698	20.62
359.827	20.62
359.957	3.62
360.087	26.62
360.217	44.62
360.347	27.62
360.477	57.62
360.607	18.62
360.737	42.62
360.866	20.62
360.996	19.62
361.126	39.62
361.256	50.62
361.386	31.62
361.516	49.62
361.645	22.62
361.775	41.62
361.905	3.62
362.035	39.62
362.165	28.62
362.294	37.62
362.424	37.62
362.554	48.62
362.684	36.62
362.813	44.62
362.943	49.62
363.073	50.62
363.203	70.62
363.332	69.62
363.462	82.62
363.592	101.62
363.721	113.62
363.851	164.62
363.981	201.62
364.111	255.62
364.24	330.62
364.37	475.62
364.5	861.62
364.629	1794.62
364.759	3823.62
364.888	6302.62
365.018	9281.62
365.148	14798.62
365.277	12851.62
365.407	4710.62
365.537	3102.62
365.666	4037.62
365.796	1790.62
365.925	789.62
366.055	774.62
366.184	1019.62
366.314	1395.62
366.444	2480.62
366.573	2082.62
366.703	626.62
366.832	210.62
366.962	122.62
367.091	86.62
367.221	59.62
367.35	66.62
367.48	87.62
367.609	52.62
367.739	56.62
367.868	39.62
367.998	46.62
368.127	42.62
368.257	71.62
368.386	47.62
368.516	61.62
368.645	21.62
368.775	52.62
368.904	34.62
369.033	28.62
369.163	11.62
369.292	45.62
369.422	49.62
369.551	50.62
369.68	42.62
369.81	51.62
369.939	32.62
370.069	60.62
370.198	37.62
370.327	31.62
370.457	32.62
370.586	56.62
370.715	30.62
370.845	21.62
370.974	39.62
371.103	70.62
371.233	50.62
371.362	41.62
371.491	31.62
371.621	36.62
371.75	54.62
371.879	40.62
372.008	44.62
372.138	54.62
372.267	50.62
372.396	54.62
372.525	44.62
372.655	35.62
372.784	24.62
372.913	18.62
373.042	38.62
373.172	43.62
373.301	5.62
373.43	-15.38
373.559	21.62
373.688	36.62
373.818	28.62
373.947	46.62
374.076	21.62
374.205	22.62
374.334	31.62
374.463	15.62
374.593	19.62
374.722	33.62
374.851	46.62
374.98	26.62
375.109	16.62
375.238	31.62
375.367	22.62
375.496	-3.38
375.625	11.62
375.755	36.62
375.884	44.62
376.013	46.62
376.142	18.62
376.271	14.62
376.4	14.62
376.529	35.62
376.658	25.62
376.787	30.62
376.916	45.62
377.045	13.62
377.174	10.62
377.303	15.62
377.432	33.62
377.561	30.62
377.69	24.62
377.819	36.62
377.948	20.62
378.077	11.62
378.206	-3.38
378.335	2.62
378.464	19.62
378.593	41.62
378.722	1.62
378.851	-6.38
378.98	16.62
379.108	-3.38
379.237	1.62
379.366	20.62
379.495	39.62
379.624	30.62
379.753	24.62
379.882	21.62
380.011	14.62
380.14	26.62
380.268	27.62
380.397	4.62
380.526	41.62
380.655	-4.38
380.784	5.62
380.913	23.62
381.041	13.62
381.17	9.62
381.299	-1.38
381.428	28.62
381.557	20.62
381.685	14.62
381.814	16.62
381.943	11.62
382.072	9.62
382.2	4.62
382.329	14.62
382.458	12.62
382.587	23.62
382.715	19.62
382.844	29.62
382.973	22.62
383.102	-8.38
383.23	13.62
383.359	-15.38
383.488	32.62
383.616	14.62
383.745	-10.38
383.874	8.62
384.003	-3.38
384.131	8.62
384.26	16.62
384.389	28.62
384.517	27.62
384.646	18.62
384.774	21.62
384.903	29.62
385.032	26.62
385.16	23.62
385.289	26.62
385.418	13.62
385.546	17.62
385.675	37.62
385.803	40.62
385.932	34.62
386.06	14.62
386.189	12.62
386.318	39.62
386.446	29.62
386.575	34.62
386.703	36.62
386.832	-0.38
386.96	14.62
387.089	52.62
387.217	9.62
387.346	-5.38
387.474	24.62
387.603	27.62
387.731	24.62
387.86	33.62
387.988	17.62
388.117	22.62
388.245	24.62
388.374	18.62
388.502	42.62
388.631	9.62
388.759	13.62
388.888	17.62
389.016	19.62
389.144	10.62
389.273	21.62
389.401	13.62
389.53	17.62
389.658	27.62
389.786	18.62
389.915	13.62
390.043	27.62
390.172	19.62
390.3	33.62
390.428	27.62
390.557	24.62
390.685	45.62
390.813	44.62
390.942	41.62
391.07	2.62
391.198	8.62
391.327	5.62
391.455	13.62
391.583	38.62
391.712	24.62
391.84	28.62
391.968	17.62
392.096	29.62
392.225	9.62
392.353	20.62
392.481	24.62
392.609	45.62
392.738	30.62
392.866	41.62
392.994	16.62
393.122	35.62
393.251	15.62
393.379	29.62
393.507	-0.38
393.635	30.62
393.764	45.62
393.892	35.62
394.02	15.62
394.148	20.62
394.276	42.62
394.404	47.62
394.533	19.62
394.661	33.62
394.789	14.62
394.917	36.62
395.045	27.62
395.173	21.62
395.302	29.62
395.43	31.62
395.558	42.62
395.686	32.62
395.814	32.62
395.942	22.62
396.07	33.62
396.198	14.62
396.326	33.62
396.454	40.62
396.582	34.62
396.711	18.62
396.839	37.62
396.967	34.62
397.095	21.62
397.223	33.62
397.351	50.62
397.479	43.62
397.607	41.62
397.735	43.62
397.863	48.62
397.991	58.62
398.119	29.62
398.247	43.62
398.375	49.62
398.503	45.62
398.631	56.62
398.759	71.62
398.887	47.62
399.015	59.62
399.143	52.62
399.271	57.62
399.399	64.62
399.526	83.62
399.654	76.62
399.782	58.62
399.91	96.62
400.038	106.62
400.166	82.62
400.294	89.62
400.422	84.62
400.55	102.62
400.678	76.62
400.805	100.62
400.933	98.62
401.061	106.62
401.189	116.62
401.317	138.62
401.445	108.62
401.573	94.62
401.7	54.62
401.828	46.62
401.956	63.62
402.084	57.62
402.212	41.62
402.34	48.62
402.467	35.62
402.595	33.62
402.723	40.62
402.851	63.62
402.978	46.62
403.106	89.62
403.234	98.62
403.362	114.62
403.489	117.62
403.617	146.62
403.745	189.62
403.873	277.62
404	571.62
404.128	1485.62
404.256	3884.62
404.384	5084.62
404.511	5499.62
404.639	7166.62
404.767	11444.62
404.894	14630.62
405.022	4889.62
405.15	1316.62
405.277	428.62
405.405	215.62
405.533	129.62
405.66	114.62
405.788	51.62
405.916	81.62
406.043	60.62
406.171	57.62
406.299	50.62
406.426	52.62
406.554	51.62
406.681	49.62
406.809	45.62
406.937	58.62
407.064	57.62
407.192	124.62
407.319	286.62
407.447	527.62
407.574	560.62
407.702	628.62
407.83	848.62
407.957	1593.62
408.085	945.62
408.212	277.62
408.34	113.62
408.467	57.62
408.595	42.62
408.722	62.62
408.85	38.62
408.977	39.62
409.105	33.62
409.232	45.62
409.36	13.62
409.487	29.62
409.615	19.62
409.742	30.62
409.87	25.62
409.997	45.62
410.125	41.62
410.252	48.62
410.379	29.62
410.507	38.62
410.634	16.62
410.762	16.62
410.889	50.62
411.017	44.62
411.144	38.62
411.271	26.62
411.399	42.62
411.526	34.62
411.653	34.62
411.781	47.62
411.908	16.62
412.036	21.62
412.163	31.62
412.29	39.62
412.418	17.62
412.545	36.62
412.672	30.62
412.8	50.62
412.927	43.62
413.054	46.62
413.182	39.62
413.309	34.62
413.436	20.62
413.564	21.62
413.691	16.62
413.818	36.62
413.945	-1.38
414.073	19.62
414.2	30.62
414.327	25.62
414.454	37.62
414.582	30.62
414.709	20.62
414.836	17.62
414.963	33.62
415.091	22.62
415.218	26.62
415.345	20.62
415.472	24.62
415.6	11.62
415.727	22.62
415.854	34.62
415.981	18.62
416.108	23.62
416.236	33.62
416.363	49.62
416.49	24.62
416.617	32.62
416.744	21.62
416.871	37.62
416.998	23.62
417.126	19.62
417.253	40.62
417.38	51.62
417.507	29.62
417.634	52.62
417.761	28.62
417.888	33.62
418.015	38.62
418.143	41.62
418.27	53.62
418.397	9.62
418.524	22.62
418.651	30.62
418.778	37.62
418.905	47.62
419.032	43.62
419.159	50.62
419.286	59.62
419.413	65.62
419.54	72.62
419.667	48.62
419.794	54.62
419.921	64.62
420.048	44.62
420.175	30.62
420.302	36.62
420.429	47.62
420.556	50.62
420.683	54.62
420.81	43.62
420.937	77.62
421.064	57.62
421.191	66.62
421.318	71.62
421.445	85.62
421.572	74.62
421.699	61.62
421.826	48.62
421.953	28.62
422.08	42.62
422.207	24.62
422.334	8.62
422.461	26.62
422.588	22.62
422.714	19.62
422.841	31.62
422.968	20.62
423.095	5.62
423.222	23.62
423.349	32.62
423.476	38.62
423.603	2.62
423.729	10.62
423.856	30.62
423.983	41.62
424.11	21.62
424.237	26.62
424.364	18.62
424.491	23.62
424.617	14.62
424.744	17.62
424.871	29.62
424.998	12.62
425.125	4.62
425.251	29.62
425.378	9.62
425.505	21.62
425.632	16.62
425.758	-7.38
425.885	13.62
426.012	26.62
426.139	47.62
426.266	40.62
426.392	25.62
426.519	24.62
426.646	2.62
426.772	36.62
426.899	29.62
427.026	27.62
427.153	42.62
427.279	44.62
427.406	17.62
427.533	34.62
427.659	12.62
427.786	6.62
427.913	37.62
428.039	21.62
428.166	27.62
428.293	20.62
428.419	32.62
428.546	37.62
428.673	8.62
428.799	27.62
428.926	15.62
429.053	28.62
429.179	22.62
429.306	28.62
429.433	37.62
429.559	45.62
429.686	25.62
429.812	22.62
429.939	30.62
430.066	19.62
430.192	10.62
430.319	29.62
430.445	20.62
430.572	24.62
430.699	12.62
430.825	16.62
430.952	43.62
431.078	28.62
431.205	38.62
431.331	28.62
431.458	40.62
431.584	42.62
431.711	37.62
431.837	32.62
431.964	24.62
432.09	28.62
432.217	8.62
432.343	31.62
432.47	30.62
432.596	36.62
432.723	17.62
432.849	13.62
432.976	39.62
433.102	32.62
433.229	30.62
433.355	49.62
433.482	107.62
433.608	105.62
433.735	98.62
433.861	117.62
433.987	158.62
434.114	191.62
434.24	168.62
434.367	205.62
434.493	237.62
434.62	273.62
434.746	388.62
434.872	634.62
434.999	828.62
435.125	1748.62
435.252	5517.62
435.378	13381.62
435.504	15183.62
435.631	15393.62
435.757	15683.62
435.883	15683.62
436.01	15683.62
436.136	15683.62
436.262	15683.62
436.389	3464.62
436.515	2000.62
436.641	772.62
436.768	626.62
436.894	405.62
437.02	385.62
437.147	295.62
437.273	276.62
437.399	205.62
437.526	250.62
437.652	187.62
437.778	204.62
437.904	149.62
438.031	153.62
438.157	125.62
438.283	140.62
438.409	112.62
438.536	121.62
438.662	137.62
438.788	128.62
438.914	124.62
439.041	111.62
439.167	101.62
439.293	97.62
439.419	86.62
439.546	105.62
439.672	68.62
439.798	76.62
439.924	74.62
440.05	89.62
440.177	82.62
440.303	77.62
440.429	77.62
440.555	66.62
440.681	53.62
440.807	94.62
440.934	49.62
441.06	67.62
441.186	70.62
441.312	69.62
441.438	55.62
441.564	68.62
441.69	72.62
441.816	80.62
441.943	60.62
442.069	61.62
442.195	51.62
442.321	67.62
442.447	35.62
442.573	44.62
442.699	38.62
442.825	47.62
442.951	49.62
443.077	56.62
443.203	45.62
443.33	46.62
443.456	34.62
443.582	66.62
443.708	29.62
443.834	61.62
443.96	42.62
444.086	43.62
444.212	57.62
444.338	60.62
444.464	46.62
444.59	61.62
444.716	37.62
444.842	42.62
444.968	35.62
445.094	40.62
445.22	33.62
445.346	24.62
445.472	40.62
445.598	39.62
445.724	52.62
445.85	58.62
445.976	32.62
446.102	38.62
446.228	31.62
446.354	33.62
446.48	20.62
446.605	33.62
446.731	54.62
446.857	42.62
446.983	31.62
447.109	37.62
447.235	40.62
447.361	20.62
447.487	36.62
447.613	43.62
447.739	24.62
447.865	30.62
447.99	32.62
448.116	49.62
448.242	26.62
448.368	57.62
448.494	18.62
448.62	35.62
448.746	23.62
448.872	32.62
448.997	35.62
449.123	14.62
449.249	32.62
449.375	46.62
449.501	22.62
449.627	19.62
449.752	49.62
449.878	9.62
450.004	18.62
450.13	24.62
450.256	11.62
450.381	14.62
450.507	33.62
450.633	36.62
450.759	32.62
450.884	22.62
451.01	15.62
451.136	23.62
451.262	34.62
451.388	31.62
451.513	25.62
451.639	36.62
451.765	40.62
451.89	37.62
452.016	37.62
452.142	25.62
452.268	21.62
452.393	21.62
452.519	23.62
452.645	26.62
452.771	23.62
452.896	22.62
453.022	24.62
453.148	39.62
453.273	38.62
453.399	31.62
453.525	12.62
453.65	17.62
453.776	26.62
453.902	32.62
454.027	41.62
454.153	34.62
454.279	25.62
454.404	31.62
454.53	30.62
454.656	33.62
454.781	22.62
454.907	17.62
455.032	40.62
455.158	41.62
455.284	42.62
455.409	28.62
455.535	16.62
455.66	26.62
455.786	35.62
455.912	25.62
456.037	13.62
456.163	24.62
456.288	45.62
456.414	16.62
456.539	23.62
456.665	33.62
456.791	19.62
456.916	20.62
457.042	14.62
457.167	24.62
457.293	47.62
457.418	34.62
457.544	20.62
457.669	30.62
457.795	45.62
457.92	24.62
458.046	20.62
458.171	31.62
458.297	19.62
458.422	20.62
458.548	8.62
458.673	26.62
458.799	24.62
458.924	28.62
459.05	17.62
459.175	5.62
459.301	20.62
459.426	43.62
459.552	27.62
459.677	31.62
459.803	33.62
459.928	41.62
460.053	34.62
460.179	28.62
460.304	34.62
460.43	9.62
460.555	31.62
460.681	33.62
460.806	30.62
460.931	29.62
461.057	38.62
461.182	21.62
461.308	40.62
461.433	43.62
461.558	12.62
461.684	48.62
461.809	21.62
461.934	18.62
462.06	20.62
462.185	20.62
462.311	14.62
462.436	25.62
462.561	31.62
462.687	33.62
462.812	16.62
462.937	25.62
463.063	11.62
463.188	18.62
463.313	22.62
463.439	39.62
463.564	28.62
463.689	41.62
463.814	32.62
463.94	10.62
464.065	45.62
464.19	44.62
464.316	17.62
464.441	14.62
464.566	18.62
464.692	31.62
464.817	21.62
464.942	17.62
465.067	15.62
465.193	13.62
465.318	32.62
465.443	38.62
465.568	39.62
465.694	26.62
465.819	24.62
465.944	30.62
466.069	37.62
466.194	50.62
466.32	25.62
466.445	32.62
466.57	20.62
466.695	8.62
466.82	47.62
466.946	36.62
467.071	31.62
467.196	35.62
467.321	65.62
467.446	32.62
467.572	28.62
467.697	19.62
467.822	46.62
467.947	40.62
468.072	31.62
468.197	29.62
468.323	22.62
468.448	25.62
468.573	29.62
468.698	17.62
468.823	45.62
468.948	43.62
469.073	31.62
469.198	34.62
469.324	43.62
469.449	20.62
469.574	36.62
469.699	48.62
469.824	44.62
469.949	33.62
470.074	20.62
470.199	48.62
470.324	53.62
470.449	63.62
470.574	29.62
470.7	18.62
470.825	52.62
470.95	63.62
471.075	30.62
471.2	46.62
471.325	45.62
471.45	43.62
471.575	17.62
471.7	44.62
471.825	33.62
471.95	6.62
472.075	18.62
472.2	50.62
472.325	44.62
472.45	27.62
472.575	41.62
472.7	27.62
472.825	37.62
472.95	38.62
473.075	46.62
473.2	43.62
473.325	39.62
473.45	44.62
473.575	42.62
473.7	47.62
473.825	32.62
473.95	29.62
474.075	17.62
474.2	11.62
474.325	26.62
474.45	25.62
474.574	12.62
474.699	25.62
474.824	26.62
474.949	18.62
475.074	12.62
475.199	34.62
475.324	23.62
475.449	9.62
475.574	30.62
475.699	20.62
475.824	4.62
475.949	26.62
476.073	13.62
476.198	9.62
476.323	40.62
476.448	30.62
476.573	10.62
476.698	28.62
476.823	32.62
476.947	12.62
477.072	26.62
477.197	-2.38
477.322	-9.38
477.447	5.62
477.572	15.62
477.697	6.62
477.821	13.62
477.946	28.62
478.071	33.62
478.196	42.62
478.321	20.62
478.445	14.62
478.57	8.62
478.695	9.62
478.82	21.62
478.945	32.62
479.069	18.62
479.194	26.62
479.319	20.62
479.444	15.62
479.569	33.62
479.693	25.62
479.818	14.62
479.943	20.62
480.068	29.62
480.192	18.62
480.317	46.62
480.442	24.62
480.567	19.62
480.691	16.62
480.816	8.62
480.941	10.62
481.066	23.62
481.19	25.62
481.315	26.62
481.44	27.62
481.564	0.62
481.689	21.62
481.814	22.62
481.938	25.62
482.063	25.62
482.188	13.62
482.313	17.62
482.437	13.62
482.562	29.62
482.687	43.62
482.811	22.62
482.936	19.62
483.061	19.62
483.185	17.62
483.31	19.62
483.435	25.62
483.559	18.62
483.684	22.62
483.808	43.62
483.933	36.62
484.058	19.62
484.182	23.62
484.307	13.62
484.432	22.62
484.556	21.62
484.681	32.62
484.805	12.62
484.93	20.62
485.055	26.62
485.179	31.62
485.304	11.62
485.428	13.62
485.553	1.62
485.678	14.62
485.802	32.62
485.927	33.62
486.051	48.62
486.176	27.62
486.3	-0.38
486.425	18.62
486.549	27.62
486.674	39.62
486.799	22.62
486.923	6.62
487.048	14.62
487.172	15.62
487.297	24.62
487.421	36.62
487.546	11.62
487.67	38.62
487.795	8.62
487.919	17.62
488.044	22.62
488.168	37.62
488.293	10.62
488.417	21.62
488.542	26.62
488.666	15.62
488.791	29.62
488.915	29.62
489.04	23.62
489.164	30.62
489.289	35.62
489.413	24.62
489.538	28.62
489.662	42.62
489.786	32.62
489.911	22.62
490.035	27.62
490.16	18.62
490.284	13.62
490.409	5.62
490.533	29.62
490.658	40.62
490.782	22.62
490.906	56.62
491.031	113.62
491.155	135.62
491.28	150.62
491.404	175.62
491.528	242.62
491.653	154.62
491.777	68.62
491.902	25.62
492.026	45.62
492.15	29.62
492.275	45.62
492.399	27.62
492.524	14.62
492.648	30.62
492.772	28.62
492.897	32.62
493.021	-0.38
493.145	36.62
493.27	21.62
493.394	12.62
493.518	33.62
493.643	19.62
493.767	31.62
493.891	9.62
494.016	5.62
494.14	2.62
494.264	29.62
494.389	39.62
494.513	10.62
494.637	7.62
494.762	30.62
494.886	42.62
495.01	35.62
495.134	34.62
495.259	26.62
495.383	26.62
495.507	34.62
495.632	43.62
495.756	44.62
495.88	36.62
496.004	24.62
496.129	22.62
496.253	42.62
496.377	33.62
496.501	47.62
496.626	4.62
496.75	29.62
496.874	25.62
496.998	23.62
497.123	35.62
497.247	7.62
497.371	26.62
497.495	5.62
497.62	10.62
497.744	17.62
497.868	11.62
497.992	15.62
498.116	3.62
498.241	26.62
498.365	27.62
498.489	11.62
498.613	27.62
498.737	12.62
498.862	16.62
498.986	9.62
499.11	23.62
499.234	17.62
499.358	14.62
499.482	17.62
499.607	28.62
499.731	38.62
499.855	33.62
499.979	13.62
500.103	17.62
500.227	46.62
500.351	37.62
500.476	18.62
500.6	21.62
500.724	29.62
500.848	22.62
500.972	27.62
501.096	25.62
501.22	44.62
501.344	22.62
501.469	20.62
501.593	33.62
501.717	36.62
501.841	22.62
501.965	17.62
502.089	15.62
502.213	12.62
502.337	25.62
502.461	32.62
502.585	28.62
502.709	17.62
502.834	21.62
502.958	3.62
503.082	8.62
503.206	27.62
503.33	42.62
503.454	28.62
503.578	38.62
503.702	43.62
503.826	17.62
503.95	45.62
504.074	25.62
504.198	30.62
504.322	20.62
504.446	22.62
504.57	33.62
504.694	24.62
504.818	17.62
504.942	47.62
505.066	31.62
505.19	34.62
505.314	24.62
505.438	25.62
505.562	25.62
505.686	10.62
505.81	25.62
505.934	34.62
506.058	18.62
506.182	37.62
506.306	25.62
506.43	19.62
506.554	32.62
506.678	20.62
506.802	21.62
506.926	48.62
507.05	44.62
507.174	47.62
507.298	41.62
507.422	22.62
507.546	21.62
507.67	35.62
507.794	25.62
507.918	11.62
508.042	26.62
508.165	12.62
508.289	2.62
508.413	37.62
508.537	25.62
508.661	34.62
508.785	40.62
508.909	44.62
509.033	26.62
509.157	31.62
509.281	40.62
509.405	41.62
509.528	50.62
509.652	57.62
509.776	30.62
509.9	22.62
510.024	30.62
510.148	39.62
510.272	50.62
510.396	51.62
510.519	11.62
510.643	73.62
510.767	36.62
510.891	36.62
511.015	50.62
511.139	49.62
511.263	50.62
511.386	34.62
511.51	38.62
511.634	34.62
511.758	50.62
511.882	23.62
512.006	63.62
512.129	62.62
512.253	89.62
512.377	77.62
512.501	81.62
512.625	65.62
512.748	86.62
512.872	71.62
512.996	73.62
513.12	53.62
513.244	40.62
513.367	53.62
513.491	75.62
513.615	90.62
513.739	73.62
513.862	81.62
513.986	97.62
514.11	100.62
514.234	88.62
514.358	101.62
514.481	125.62
514.605	108.62
514.729	105.62
514.853	132.62
514.976	105.62
515.1	100.62
515.224	121.62
515.348	98.62
515.471	99.62
515.595	109.62
515.719	141.62
515.842	206.62
515.966	275.62
516.09	331.62
516.214	315.62
516.337	344.62
516.461	230.62
516.585	78.62
516.708	46.62
516.832	18.62
516.956	18.62
517.08	20.62
517.203	17.62
517.327	26.62
517.451	37.62
517.574	31.62
517.698	18.62
517.822	14.62
517.945	25.62
518.069	21.62
518.193	28.62
518.316	26.62
518.44	21.62
518.564	15.62
518.687	10.62
518.811	12.62
518.935	32.62
519.058	17.62
519.182	13.62
519.306	24.62
519.429	11.62
519.553	48.62
519.676	46.62
519.8	14.62
519.924	0.62
520.047	26.62
520.171	31.62
520.294	29.62
520.418	5.62
520.542	16.62
520.665	41.62
520.789	30.62
520.913	14.62
521.036	0.62
521.16	21.62
521.283	15.62
521.407	0.62
521.53	-4.38
521.654	-3.38
521.778	19.62
521.901	4.62
522.025	21.62
522.148	11.62
522.272	18.62
522.395	14.62
522.519	8.62
522.643	-0.38
522.766	20.62
522.89	15.62
523.013	23.62
523.137	7.62
523.26	3.62
523.384	11.62
523.507	11.62
523.631	30.62
523.754	19.62
523.878	22.62
524.002	24.62
524.125	6.62
524.249	24.62
524.372	24.62
524.496	18.62
524.619	28.62
524.743	24.62
524.866	11.62
524.99	16.62
525.113	11.62
525.237	26.62
525.36	29.62
525.484	24.62
525.607	12.62
525.731	-2.38
525.854	20.62
525.978	31.62
526.101	29.62
526.224	14.62
526.348	11.62
526.471	26.62
526.595	28.62
526.718	17.62
526.842	13.62
526.965	29.62
527.089	20.62
527.212	20.62
527.336	-1.38
527.459	17.62
527.582	27.62
527.706	38.62
527.829	18.62
527.953	21.62
528.076	1.62
528.2	0.62
528.323	30.62
528.446	35.62
528.57	26.62
528.693	25.62
528.817	26.62
528.94	23.62
529.064	49.62
529.187	12.62
529.31	13.62
529.434	17.62
529.557	24.62
529.68	4.62
529.804	10.62
529.927	13.62
530.051	11.62
530.174	17.62
530.297	15.62
530.421	26.62
530.544	20.62
530.668	40.62
530.791	15.62
530.914	31.62
531.038	8.62
531.161	15.62
531.284	28.62
531.408	29.62
531.531	16.62
531.654	10.62
531.778	28.62
531.901	11.62
532.024	19.62
532.148	25.62
532.271	24.62
532.394	4.62
532.518	22.62
532.641	15.62
532.764	31.62
532.888	11.62
533.011	-2.38
533.134	-1.38
533.258	34.62
533.381	-2.38
533.504	12.62
533.628	26.62
533.751	35.62
533.874	25.62
533.997	28.62
534.121	6.62
534.244	10.62
534.367	16.62
534.491	37.62
534.614	25.62
534.737	21.62
534.86	17.62
534.984	-0.38
535.107	21.62
535.23	29.62
535.354	23.62
535.477	-3.38
535.6	18.62
535.723	14.62
535.847	20.62
535.97	-2.38
536.093	4.62
536.216	17.62
536.34	24.62
536.463	22.62
536.586	22.62
536.709	40.62
536.833	27.62
536.956	22.62
537.079	16.62
537.202	36.62
537.325	21.62
537.449	-3.38
537.572	29.62
537.695	8.62
537.818	6.62
537.941	17.62
538.065	21.62
538.188	35.62
538.311	32.62
538.434	4.62
538.558	27.62
538.681	42.62
538.804	30.62
538.927	43.62
539.05	16.62
539.173	27.62
539.297	26.62
539.42	37.62
539.543	29.62
539.666	34.62
539.789	18.62
539.913	26.62
540.036	13.62
540.159	24.62
540.282	9.62
540.405	2.62
540.528	24.62
540.651	17.62
540.775	22.62
540.898	18.62
541.021	30.62
541.144	65.62
541.267	29.62
541.39	21.62
541.513	45.62
541.637	24.62
541.76	26.62
541.883	40.62
542.006	55.62
542.129	55.62
542.252	36.62
542.375	46.62
542.498	36.62
542.622	37.62
542.745	36.62
542.868	38.62
542.991	48.62
543.114	56.62
543.237	65.62
543.36	75.62
543.483	77.62
543.606	70.62
543.73	82.62
543.853	78.62
543.976	101.62
544.099	112.62
544.222	104.62
544.345	125.62
544.468	176.62
544.591	208.62
544.714	267.62
544.837	343.62
544.96	451.62
545.083	664.62
545.206	1103.62
545.329	2396.62
545.453	10945.62
545.576	15261.62
545.699	15683.62
545.822	15683.62
545.945	15683.62
546.068	15683.62
546.191	15683.62
546.314	15683.62
546.437	15683.62
546.56	15683.62
546.683	15683.62
546.806	15683.62
546.929	15683.62
547.052	15683.62
547.175	15683.62
547.298	15683.62
547.421	15683.62
547.544	15683.62
547.667	3549.62
547.79	2241.62
547.913	983.62
548.036	869.62
548.159	641.62
548.282	636.62
548.405	509.62
548.528	502.62
548.651	395.62
548.774	417.62
548.897	342.62
549.02	351.62
549.143	326.62
549.266	319.62
549.389	272.62
549.512	250.62
549.635	253.62
549.758	249.62
549.881	224.62
550.004	222.62
550.127	200.62
550.25	192.62
550.373	157.62
550.496	166.62
550.619	161.62
550.742	150.62
550.865	136.62
550.988	158.62
551.111	156.62
551.234	148.62
551.356	117.62
551.479	135.62
551.602	113.62
551.725	125.62
551.848	124.62
551.971	130.62
552.094	113.62
552.217	113.62
552.34	115.62
552.463	102.62
552.586	106.62
552.709	115.62
552.832	115.62
552.955	124.62
553.077	102.62
553.2	105.62
553.323	80.62
553.446	87.62
553.569	102.62
553.692	120.62
553.815	87.62
553.938	109.62
554.061	83.62
554.184	85.62
554.306	96.62
554.429	94.62
554.552	90.62
554.675	68.62
554.798	69.62
554.921	109.62
555.044	77.62
555.167	81.62
555.29	79.62
555.412	70.62
555.535	78.62
555.658	74.62
555.781	85.62
555.904	73.62
556.027	74.62
556.15	54.62
556.272	79.62
556.395	84.62
556.518	74.62
556.641	68.62
556.764	98.62
556.887	81.62
557.01	62.62
557.132	41.62
557.255	83.62
557.378	58.62
557.501	61.62
557.624	76.62
557.747	72.62
557.869	74.62
557.992	74.62
558.115	97.62
558.238	97.62
558.361	94.62
558.483	105.62
558.606	62.62
558.729	56.62
558.852	58.62
558.975	66.62
559.098	83.62
559.22	70.62
559.343	52.62
559.466	50.62
559.589	55.62
559.712	51.62
559.834	53.62
559.957	38.62
560.08	64.62
560.203	65.62
560.325	60.62
560.448	72.62
560.571	47.62
560.694	48.62
560.817	44.62
560.939	59.62
561.062	69.62
561.185	66.62
561.308	56.62
561.43	59.62
561.553	60.62
561.676	56.62
561.799	70.62
561.921	57.62
562.044	69.62
562.167	45.62
562.29	81.62
562.413	74.62
562.535	76.62
562.658	68.62
562.781	57.62
562.903	69.62
563.026	100.62
563.149	148.62
563.272	129.62
563.394	118.62
563.517	106.62
563.64	56.62
563.763	50.62
563.885	52.62
564.008	54.62
564.131	59.62
564.254	33.62
564.376	40.62
564.499	36.62
564.622	44.62
564.744	59.62
564.867	31.62
564.99	31.62
565.113	45.62
565.235	27.62
565.358	47.62
565.481	29.62
565.603	48.62
565.726	41.62
565.849	55.62
565.971	48.62
566.094	25.62
566.217	29.62
566.34	26.62
566.462	54.62
566.585	49.62
566.708	57.62
566.83	37.62
566.953	44.62
567.076	29.62
567.198	35.62
567.321	25.62
567.444	55.62
567.566	30.62
567.689	21.62
567.812	29.62
567.934	36.62
568.057	46.62
568.18	34.62
568.302	28.62
568.425	24.62
568.548	30.62
568.67	22.62
568.793	33.62
568.916	59.62
569.038	21.62
569.161	27.62
569.283	36.62
569.406	28.62
569.529	16.62
569.651	23.62
569.774	17.62
569.897	25.62
570.019	49.62
570.142	23.62
570.265	10.62
570.387	24.62
570.51	48.62
570.632	42.62
570.755	23.62
570.878	35.62
571	27.62
571.123	28.62
571.246	38.62
571.368	39.62
571.491	18.62
571.613	49.62
571.736	16.62
571.859	15.62
571.981	21.62
572.104	23.62
572.226	28.62
572.349	39.62
572.472	41.62
572.594	42.62
572.717	45.62
572.839	31.62
572.962	26.62
573.085	31.62
573.207	29.62
573.33	24.62
573.452	37.62
573.575	54.62
573.697	40.62
573.82	33.62
573.943	32.62
574.065	36.62
574.188	32.62
574.31	50.62
574.433	63.62
574.555	59.62
574.678	39.62
574.801	48.62
574.923	28.62
575.046	48.62
575.168	33.62
575.291	43.62
575.413	33.62
575.536	58.62
575.659	67.62
575.781	44.62
575.904	51.62
576.026	76.62
576.149	82.62
576.271	137.62
576.394	212.62
576.516	526.62
576.639	3636.62
576.761	10145.62
576.884	8784.62
577.007	8765.62
577.129	8009.62
577.252	3711.62
577.374	1281.62
577.497	523.62
577.619	290.62
577.742	195.62
577.864	143.62
577.987	128.62
578.109	122.62
578.232	109.62
578.354	138.62
578.477	181.62
578.599	364.62
578.722	1905.62
578.844	9083.62
578.967	9794.62
579.089	8743.62
579.212	9073.62
579.334	5250.62
579.457	1932.62
579.579	717.62
579.702	348.62
579.824	214.62
579.947	132.62
580.069	106.62
580.192	73.62
580.314	92.62
580.437	79.62
580.559	92.62
580.682	59.62
580.804	42.62
580.927	65.62
581.049	64.62
581.172	64.62
581.294	52.62
581.417	55.62
581.539	34.62
581.662	58.62
581.784	60.62
581.907	43.62
582.029	58.62
582.152	27.62
582.274	42.62
582.396	45.62
582.519	44.62
582.641	25.62
582.764	34.62
582.886	58.62
583.009	44.62
583.131	31.62
583.254	38.62
583.376	46.62
583.499	32.62
583.621	37.62
583.743	56.62
583.866	38.62
583.988	44.62
584.111	41.62
584.233	57.62
584.356	38.62
584.478	31.62
584.601	26.62
584.723	42.62
584.845	55.62
584.968	29.62
585.09	12.62
585.213	25.62
585.335	33.62
585.458	36.62
585.58	30.62
585.702	53.62
585.825	46.62
585.947	33.62
586.07	22.62
586.192	8.62
586.315	31.62
586.437	17.62
586.559	8.62
586.682	18.62
586.804	28.62
586.927	23.62
587.049	21.62
587.171	42.62
587.294	45.62
587.416	44.62
587.539	27.62
587.661	30.62
587.783	26.62
587.906	19.62
588.028	30.62
588.151	33.62
588.273	36.62
588.395	27.62
588.518	14.62
588.64	19.62
588.763	39.62
588.885	35.62
589.007	34.62
589.13	15.62
589.252	20.62
589.375	30.62
589.497	28.62
589.619	38.62
589.742	31.62
589.864	42.62
589.986	5.62
590.109	29.62
590.231	29.62
590.354	31.62
590.476	16.62
590.598	16.62
590.721	31.62
590.843	29.62
590.965	30.62
591.088	13.62
591.21	39.62
591.332	28.62
591.455	6.62
591.577	20.62
591.7	20.62
591.822	24.62
591.944	36.62
592.067	38.62
592.189	22.62
592.311	48.62
592.434	29.62
592.556	46.62
592.678	31.62
592.801	17.62
592.923	25.62
593.045	32.62
593.168	33.62
593.29	18.62
593.412	44.62
593.535	20.62
593.657	21.62
593.779	48.62
593.902	44.62
594.024	26.62
594.146	30.62
594.269	21.62
594.391	21.62
594.513	27.62
594.636	38.62
594.758	31.62
594.88	37.62
595.003	36.62
595.125	30.62
595.247	31.62
595.37	47.62
595.492	29.62
595.614	49.62
595.737	28.62
595.859	31.62
595.981	19.62
596.104	24.62
596.226	8.62
596.348	23.62
596.471	26.62
596.593	52.62
596.715	24.62
596.838	22.62
596.96	23.62
597.082	30.62
597.204	39.62
597.327	20.62
597.449	26.62
597.571	24.62
597.694	41.62
597.816	14.62
597.938	25.62
598.061	8.62
598.183	13.62
598.305	38.62
598.427	30.62
598.55	37.62
598.672	56.62
598.794	24.62
598.917	22.62
599.039	24.62
599.161	36.62
599.283	5.62
599.406	21.62
599.528	44.62
599.65	33.62
599.773	26.62
599.895	37.62
600.017	44.62
600.139	13.62
600.262	15.62
600.384	26.62
600.506	48.62
600.628	34.62
600.751	39.62
600.873	18.62
600.995	20.62
601.118	30.62
601.24	15.62
601.362	49.62
601.484	30.62
601.607	48.62
601.729	24.62
601.851	17.62
601.973	16.62
602.096	40.62
602.218	29.62
602.34	34.62
602.462	40.62
602.585	22.62
602.707	23.62
602.829	38.62
602.951	18.62
603.074	-1.38
603.196	21.62
603.318	25.62
603.44	25.62
603.563	30.62
603.685	13.62
603.807	24.62
603.929	22.62
604.052	37.62
604.174	39.62
604.296	26.62
604.418	30.62
604.541	53.62
604.663	33.62
604.785	34.62
604.907	24.62
605.03	19.62
605.152	42.62
605.274	20.62
605.396	16.62
605.519	20.62
605.641	28.62
605.763	22.62
605.885	12.62
606.008	14.62
606.13	35.62
606.252	39.62
606.374	-2.38
606.496	9.62
606.619	22.62
606.741	8.62
606.863	40.62
606.985	34.62
607.108	34.62
607.23	15.62
607.352	15.62
607.474	16.62
607.596	17.62
607.719	25.62
607.841	39.62
607.963	18.62
608.085	17.62
608.207	51.62
608.33	10.62
608.452	13.62
608.574	13.62
608.696	37.62
608.819	25.62
608.941	20.62
609.063	30.62
609.185	25.62
609.307	35.62
609.43	22.62
609.552	26.62
609.674	-6.38
609.796	24.62
609.918	30.62
610.041	27.62
610.163	33.62
610.285	31.62
610.407	33.62
610.529	0.62
610.652	22.62
610.774	19.62
610.896	12.62
611.018	14.62
611.14	19.62
611.263	27.62
611.385	19.62
611.507	20.62
611.629	4.62
611.751	15.62
611.873	37.62
611.996	29.62
612.118	36.62
612.24	25.62
612.362	32.62
612.484	36.62
612.607	37.62
612.729	36.62
612.851	33.62
612.973	17.62
613.095	16.62
613.218	22.62
613.34	40.62
613.462	25.62
613.584	24.62
613.706	14.62
613.828	48.62
613.951	14.62
614.073	7.62
614.195	9.62
614.317	16.62
614.439	23.62
614.561	29.62
614.684	30.62
614.806	31.62
614.928	45.62
615.05	23.62
615.172	35.62
615.294	34.62
615.417	31.62
615.539	17.62
615.661	25.62
615.783	42.62
615.905	13.62
616.027	8.62
616.15	29.62
616.272	12.62
616.394	10.62
616.516	16.62
616.638	21.62
616.76	20.62
616.883	30.62
617.005	26.62
617.127	9.62
617.249	20.62
617.371	23.62
617.493	25.62
617.615	13.62
617.738	25.62
617.86	28.62
617.982	29.62
618.104	18.62
618.226	14.62
618.348	16.62
618.471	21.62
618.593	34.62
618.715	0.62
618.837	16.62
618.959	14.62
619.081	47.62
619.203	31.62
619.326	33.62
619.448	25.62
619.57	40.62
619.692	32.62
619.814	33.62
619.936	32.62
620.058	34.62
620.181	19.62
620.303	8.62
620.425	14.62
620.547	20.62
620.669	30.62
620.791	20.62
620.913	7.62
621.036	20.62
621.158	32.62
621.28	22.62
621.402	8.62
621.524	16.62
621.646	21.62
621.768	9.62
621.891	9.62
622.013	17.62
622.135	-2.38
622.257	-1.38
622.379	1.62
622.501	22.62
622.623	16.62
622.745	18.62
622.868	16.62
622.99	14.62
623.112	23.62
623.234	21.62
623.356	20.62
623.478	16.62
623.6	18.62
623.722	6.62
623.845	38.62
623.967	25.62
624.089	20.62
624.211	23.62
624.333	20.62
624.455	18.62
624.577	9.62
624.699	36.62
624.822	15.62
624.944	12.62
625.066	15.62
625.188	11.62
625.31	26.62
625.432	50.62
625.554	20.62
625.676	44.62
625.799	22.62
625.921	30.62
626.043	24.62
626.165	10.62
626.287	-3.38
626.409	14.62
626.531	15.62
626.653	24.62
626.775	28.62
626.898	29.62
627.02	32.62
627.142	41.62
627.264	24.62
627.386	15.62
627.508	32.62
627.63	18.62
627.752	28.62
627.874	18.62
627.997	33.62
628.119	36.62
628.241	23.62
628.363	37.62
628.485	13.62
628.607	15.62
628.729	4.62
628.851	9.62
628.973	4.62
629.096	10.62
629.218	16.62
629.34	4.62
629.462	-3.38
629.584	9.62
629.706	6.62
629.828	26.62
629.95	13.62
630.072	11.62
630.195	30.62
630.317	11.62
630.439	14.62
630.561	20.62
630.683	8.62
630.805	22.62
630.927	20.62
631.049	32.62
631.171	18.62
631.293	24.62
631.416	24.62
631.538	29.62
631.66	12.62
631.782	19.62
631.904	21.62
632.026	13.62
632.148	10.62
632.27	3.62
632.392	24.62
632.514	17.62
632.637	27.62
632.759	6.62
632.881	-0.38
633.003	8.62
633.125	1.62
633.247	-1.38
633.369	-3.38
633.491	21.62
633.613	11.62
633.735	4.62
633.858	16.62
633.98	18.62
634.102	4.62
634.224	13.62
634.346	15.62
634.468	22.62
634.59	29.62
634.712	21.62
634.834	12.62
634.956	12.62
635.078	4.62
635.201	0.62
635.323	5.62
635.445	-3.38
635.567	7.62
635.689	2.62
635.811	2.62
635.933	-1.38
636.055	20.62
636.177	28.62
636.299	17.62
636.421	7.62
636.544	15.62
636.666	20.62
636.788	7.62
636.91	5.62
637.032	24.62
637.154	32.62
637.276	25.62
637.398	28.62
637.52	24.62
637.642	10.62
637.764	24.62
637.887	14.62
638.009	5.62
638.131	5.62
638.253	-4.38
638.375	9.62
638.497	23.62
638.619	1.62
638.741	-4.38
638.863	-3.38
638.985	-5.38
639.107	17.62
639.23	5.62
639.352	14.62
639.474	10.62
639.596	16.62
639.718	14.62
639.84	25.62
639.962	26.62
640.084	28.62
640.206	33.62
640.328	13.62
640.45	9.62
640.573	5.62
640.695	18.62
640.817	10.62
640.939	16.62
641.061	6.62
641.183	11.62
641.305	1.62
641.427	16.62
641.549	8.62
641.671	2.62
641.793	7.62
641.915	38.62
642.038	11.62
642.16	1.62
642.282	11.62
642.404	10.62
642.526	16.62
642.648	10.62
642.77	13.62
642.892	8.62
643.014	26.62
643.136	17.62
643.258	9.62
643.381	24.62
643.503	30.62
643.625	18.62
643.747	17.62
643.869	1.62
643.991	26.62
644.113	18.62
644.235	6.62
644.357	12.62
644.479	14.62
644.601	5.62
644.723	36.62
644.846	22.62
644.968	13.62
645.09	13.62
645.212	11.62
645.334	27.62
645.456	21.62
645.578	25.62
645.7	12.62
645.822	32.62
645.944	7.62
646.066	14.62
646.188	16.62
646.311	21.62
646.433	9.62
646.555	22.62
646.677	20.62
646.799	1.62
646.921	19.62
647.043	23.62
647.165	12.62
647.287	1.62
647.409	5.62
647.531	27.62
647.654	18.62
647.776	9.62
647.898	2.62
648.02	0.62
648.142	14.62
648.264	14.62
648.386	5.62
648.508	-2.38
648.63	23.62
648.752	43.62
648.874	16.62
648.997	8.62
649.119	18.62
649.241	20.62
649.363	20.62
649.485	10.62
649.607	21.62
649.729	4.62
649.851	15.62
649.973	14.62
650.095	18.62
650.217	0.62
650.34	12.62
650.462	20.62
650.584	16.62
650.706	22.62
650.828	18.62
650.95	14.62
651.072	23.62
651.194	-2.38
651.316	1.62
651.438	13.62
651.56	5.62
651.683	-9.38
651.805	-3.38
651.927	15.62
652.049	8.62
652.171	21.62
652.293	19.62
652.415	2.62
652.537	8.62
652.659	8.62
652.781	6.62
652.903	22.62
653.026	28.62
653.148	-0.38
653.27	3.62
653.392	12.62
653.514	-7.38
653.636	5.62
653.758	9.62
653.88	-1.38
654.002	-2.38
654.124	7.62
654.247	11.62
654.369	22.62
654.491	14.62
654.613	17.62
654.735	22.62
654.857	14.62
654.979	-1.38
655.101	19.62
655.223	36.62
655.345	21.62
655.468	22.62
655.59	16.62
655.712	14.62
655.834	9.62
655.956	16.62
656.078	20.62
656.2	11.62
656.322	9.62
656.444	-4.38
656.566	22.62
656.689	5.62
656.811	9.62
656.933	19.62
657.055	9.62
657.177	10.62
657.299	12.62
657.421	-1.38
657.543	34.62
657.665	10.62
657.787	24.62
657.91	3.62
658.032	-6.38
658.154	5.62
658.276	7.62
658.398	-8.38
658.52	22.62
658.642	32.62
658.764	18.62
658.886	-7.38
659.009	4.62
659.131	16.62
659.253	18.62
659.375	10.62
659.497	7.62
659.619	27.62
659.741	13.62
659.863	13.62
659.985	-3.38
660.108	10.62
660.23	0.62
660.352	12.62
660.474	20.62
660.596	21.62
660.718	23.62
660.84	16.62
660.962	29.62
661.084	-0.38
661.207	12.62
661.329	19.62
661.451	13.62
661.573	-7.38
661.695	9.62
661.817	21.62
661.939	26.62
662.061	25.62
662.184	-2.38
662.306	-7.38
662.428	5.62
662.55	32.62
662.672	10.62
662.794	21.62
662.916	12.62
663.038	-5.38
663.161	41.62
663.283	8.62
663.405	24.62
663.527	12.62
663.649	20.62
663.771	22.62
663.893	14.62
664.015	32.62
664.138	21.62
664.26	6.62
664.382	15.62
664.504	1.62
664.626	-4.38
664.748	0.62
664.87	-2.38
664.992	25.62
665.115	19.62
665.237	30.62
665.359	7.62
665.481	2.62
665.603	12.62
665.725	-1.38
665.847	-2.38
665.97	12.62
666.092	20.62
666.214	33.62
666.336	27.62
666.458	23.62
666.58	12.62
666.702	-4.38
666.825	7.62
666.947	-4.38
667.069	7.62
667.191	5.62
667.313	13.62
667.435	5.62
667.557	2.62
667.68	3.62
667.802	13.62
667.924	6.62
668.046	6.62
668.168	5.62
668.29	29.62
668.412	30.62
668.535	14.62
668.657	2.62
668.779	0.62
668.901	-3.38
669.023	20.62
669.145	27.62
669.267	24.62
669.39	8.62
669.512	26.62
669.634	13.62
669.756	-5.38
669.878	7.62
670	17.62
670.123	8.62
670.245	30.62
670.367	27.62
670.489	18.62
670.611	5.62
670.733	0.62
670.856	6.62
670.978	25.62
671.1	5.62
671.222	11.62
671.344	2.62
671.466	-2.38
671.589	9.62
671.711	8.62
671.833	-8.38
671.955	13.62
672.077	-3.38
672.199	25.62
672.322	37.62
672.444	22.62
672.566	10.62
672.688	-1.38
672.81	12.62
672.932	20.62
673.055	-5.38
673.177	-2.38
673.299	12.62
673.421	-0.38
673.543	19.62
673.665	18.62
673.788	22.62
673.91	5.62
674.032	14.62
674.154	-2.38
674.276	24.62
674.399	17.62
674.521	20.62
674.643	5.62
674.765	-2.38
674.887	23.62
675.009	-5.38
675.132	1.62
675.254	12.62
675.376	17.62
675.498	6.62
675.62	24.62
675.743	5.62
675.865	28.62
675.987	16.62
676.109	13.62
676.231	15.62
676.354	25.62
676.476	2.62
676.598	-9.38
676.72	15.62
676.842	24.62
676.965	7.62
677.087	9.62
677.209	15.62
677.331	20.62
677.453	1.62
677.576	4.62
677.698	6.62
677.82	13.62
677.942	-2.38
678.064	4.62
678.187	17.62
678.309	28.62
678.431	11.62
678.553	0.62
678.675	15.62
678.798	34.62
678.92	14.62
679.042	17.62
679.164	9.62
679.286	31.62
679.409	19.62
679.531	-5.38
679.653	8.62
679.775	1.62
679.898	8.62
680.02	12.62
680.142	-1.38
680.264	18.62
680.386	-4.38
680.509	22.62
680.631	7.62
680.753	4.62
680.875	15.62
680.998	18.62
681.12	10.62
681.242	13.62
681.364	-9.38
681.486	9.62
681.609	-6.38
681.731	11.62
681.853	-0.38
681.975	8.62
682.098	3.62
682.22	7.62
682.342	-0.38
682.464	29.62
682.587	19.62
682.709	2.62
682.831	10.62
682.953	-3.38
683.076	0.62
683.198	21.62
683.32	14.62
683.442	14.62
683.565	26.62
683.687	12.62
683.809	1.62
683.931	13.62
684.054	17.62
684.176	12.62
684.298	14.62
684.42	3.62
684.543	0.62
684.665	15.62
684.787	12.62
684.909	15.62
685.032	23.62
685.154	-0.38
685.276	8.62
685.398	13.62
685.521	-1.38
685.643	9.62
685.765	23.62
685.887	12.62
686.01	8.62
686.132	18.62
686.254	12.62
686.377	22.62
686.499	21.62
686.621	19.62
686.743	14.62
686.866	5.62
686.988	24.62
687.11	12.62
687.232	-8.38
687.355	4.62
687.477	25.62
687.599	2.62
687.722	1.62
687.844	8.62
687.966	10.62
688.088	20.62
688.211	29.62
688.333	24.62
688.455	20.62
688.578	28.62
688.7	19.62
688.822	15.62
688.944	-4.38
689.067	24.62
689.189	10.62
689.311	10.62
689.434	-7.38
689.556	24.62
689.678	14.62
689.801	20.62
689.923	14.62
690.045	31.62
690.167	29.62
690.29	22.62
690.412	7.62
690.534	6.62
690.657	4.62
690.779	6.62
690.901	24.62
691.024	10.62
691.146	20.62
691.268	5.62
691.391	22.62
691.513	35.62
691.635	37.62
691.758	19.62
691.88	22.62
692.002	13.62
692.125	14.62
692.247	14.62
692.369	13.62
692.492	4.62
692.614	26.62
692.736	4.62
692.859	-4.38
692.981	4.62
693.103	-1.38
693.226	12.62
693.348	21.62
693.47	8.62
693.593	35.62
693.715	35.62
693.837	33.62
693.96	16.62
694.082	11.62
694.204	36.62
694.327	18.62
694.449	8.62
694.571	18.62
694.694	10.62
694.816	12.62
694.938	10.62
695.061	14.62
695.183	20.62
695.305	32.62
695.428	17.62
695.55	5.62
695.672	15.62
695.795	30.62
695.917	26.62
696.04	8.62
696.162	17.62
696.284	23.62
696.407	18.62
696.529	4.62
696.651	25.62
696.774	17.62
696.896	23.62
697.019	24.62
697.141	33.62
697.263	12.62
697.386	-1.38
697.508	5.62
697.63	17.62
697.753	30.62
697.875	5.62
697.998	-6.38
698.12	-1.38
698.242	2.62
698.365	4.62
698.487	7.62
698.61	18.62
698.732	28.62
698.854	13.62
698.977	13.62
699.099	32.62
699.221	14.62
699.344	10.62
699.466	16.62
699.589	17.62
699.711	2.62
699.834	7.62
699.956	20.62
700.078	28.62
700.201	19.62
700.323	29.62
700.446	28.62
700.568	-1.38
700.69	32.62
700.813	7.62
700.935	8.62
701.058	-0.38
701.18	-5.38
701.302	-0.38
701.425	20.62
701.547	20.62
701.67	-3.38
701.792	4.62
701.915	13.62
702.037	23.62
702.159	10.62
702.282	12.62
702.404	17.62
702.527	24.62
702.649	34.62
702.772	27.62
702.894	13.62
703.017	30.62
703.139	21.62
703.261	17.62
703.384	31.62
703.506	-3.38
703.629	-2.38
703.751	14.62
703.874	13.62
703.996	8.62
704.119	16.62
704.241	19.62
704.364	4.62
704.486	31.62
704.608	20.62
704.731	8.62
704.853	18.62
704.976	8.62
705.098	18.62
705.221	-1.38
705.343	18.62
705.466	13.62
705.588	22.62
705.711	25.62
705.833	20.62
705.956	18.62
706.078	6.62
706.201	4.62
706.323	11.62
706.446	-0.38
