Data from LowRes_mercury_15_20_11_07_2024_HR4C61881__76__15-23-39-870.txt Node

Date: Thu Nov 07 15:23:39 EST 2024
User: crc00042
Spectrometer: HR4C6188
Trigger mode: 4
Integration Time (sec): 1.000000E-1
Scans to average: 1
Electric dark correction enabled: true
Nonlinearity correction enabled: false
Boxcar width: 0
XAxis mode: Wavelengths
Number of Pixels in Spectrum: 3648
>>>>>Begin Spectral Data<<<<<
245.66	-74.38
245.797	-74.38
245.934	-74.38
246.071	-74.38
246.208	5.62
246.344	-13.38
246.481	-21.38
246.618	-6.38
246.755	9.62
246.892	-1.38
247.029	-14.38
247.165	-17.38
247.302	2.62
247.439	22.62
247.576	15.62
247.713	-14.38
247.849	47.62
247.986	-9.38
248.123	-4.38
248.26	0.62
248.396	9.62
248.533	-2.38
248.67	-0.38
248.806	6.62
248.943	-5.38
249.08	9.62
249.216	18.62
249.353	4.62
249.49	-6.38
249.626	0.62
249.763	7.62
249.9	-3.38
250.036	-10.38
250.173	6.62
250.309	6.62
250.446	3.62
250.582	-15.38
250.719	-2.38
250.856	7.62
250.992	11.62
251.129	8.62
251.265	4.62
251.402	14.62
251.538	-1.38
251.675	-7.38
251.811	18.62
251.948	28.62
252.084	9.62
252.221	-3.38
252.357	-19.38
252.493	42.62
252.63	-2.38
252.766	23.62
252.903	6.62
253.039	-1.38
253.175	1.62
253.312	15.62
253.448	-0.38
253.585	0.62
253.721	8.62
253.857	-3.38
253.994	18.62
254.13	5.62
254.266	2.62
254.403	3.62
254.539	21.62
254.675	6.62
254.811	-5.38
254.948	-3.38
255.084	18.62
255.22	-12.38
255.356	-1.38
255.493	9.62
255.629	15.62
255.765	22.62
255.901	25.62
256.037	0.62
256.174	16.62
256.31	-12.38
256.446	-5.38
256.582	-3.38
256.718	11.62
256.854	24.62
256.991	10.62
257.127	33.62
257.263	13.62
257.399	0.62
257.535	3.62
257.671	-5.38
257.807	8.62
257.943	-3.38
258.079	-32.38
258.215	0.62
258.351	26.62
258.487	12.62
258.623	19.62
258.759	6.62
258.895	-14.38
259.031	-8.38
259.167	10.62
259.303	22.62
259.439	-2.38
259.575	-7.38
259.711	11.62
259.847	-3.38
259.983	16.62
260.119	2.62
260.255	3.62
260.391	6.62
260.527	10.62
260.663	10.62
260.799	18.62
260.934	9.62
261.07	5.62
261.206	-14.38
261.342	-4.38
261.478	-6.38
261.614	18.62
261.749	16.62
261.885	-0.38
262.021	-3.38
262.157	18.62
262.293	0.62
262.428	3.62
262.564	19.62
262.7	17.62
262.836	7.62
262.971	14.62
263.107	0.62
263.243	18.62
263.378	14.62
263.514	-14.38
263.65	-3.38
263.785	-20.38
263.921	-12.38
264.057	4.62
264.192	10.62
264.328	15.62
264.464	-2.38
264.599	18.62
264.735	17.62
264.871	-9.38
265.006	-9.38
265.142	2.62
265.277	12.62
265.413	4.62
265.548	16.62
265.684	40.62
265.819	17.62
265.955	-3.38
266.091	-10.38
266.226	1.62
266.362	-8.38
266.497	2.62
266.633	-6.38
266.768	2.62
266.903	10.62
267.039	27.62
267.174	-1.38
267.31	-3.38
267.445	-14.38
267.581	3.62
267.716	12.62
267.851	-7.38
267.987	12.62
268.122	26.62
268.258	-3.38
268.393	1.62
268.528	18.62
268.664	-16.38
268.799	-1.38
268.934	-9.38
269.07	-9.38
269.205	2.62
269.34	31.62
269.476	3.62
269.611	4.62
269.746	15.62
269.881	5.62
270.017	18.62
270.152	6.62
270.287	7.62
270.422	18.62
270.558	-16.38
270.693	18.62
270.828	-1.38
270.963	-0.38
271.098	-7.38
271.234	0.62
271.369	9.62
271.504	21.62
271.639	-1.38
271.774	7.62
271.909	26.62
272.045	-13.38
272.18	-2.38
272.315	-0.38
272.45	28.62
272.585	-7.38
272.72	-7.38
272.855	9.62
272.99	39.62
273.125	6.62
273.26	6.62
273.395	-6.38
273.53	-3.38
273.665	-4.38
273.8	-14.38
273.935	1.62
274.07	1.62
274.205	9.62
274.34	-4.38
274.475	13.62
274.61	29.62
274.745	6.62
274.88	10.62
275.015	-10.38
275.15	2.62
275.285	11.62
275.42	11.62
275.555	22.62
275.69	17.62
275.825	-2.38
275.959	9.62
276.094	0.62
276.229	-2.38
276.364	3.62
276.499	-3.38
276.634	14.62
276.768	11.62
276.903	9.62
277.038	16.62
277.173	18.62
277.308	-9.38
277.442	-15.38
277.577	-3.38
277.712	10.62
277.847	6.62
277.981	2.62
278.116	-21.38
278.251	-5.38
278.386	13.62
278.52	12.62
278.655	30.62
278.79	11.62
278.924	12.62
279.059	22.62
279.194	-5.38
279.328	20.62
279.463	11.62
279.598	18.62
279.732	0.62
279.867	-1.38
280.001	15.62
280.136	7.62
280.271	18.62
280.405	19.62
280.54	8.62
280.674	-4.38
280.809	16.62
280.943	10.62
281.078	-6.38
281.213	35.62
281.347	22.62
281.482	13.62
281.616	17.62
281.751	5.62
281.885	-1.38
282.02	14.62
282.154	1.62
282.288	-12.38
282.423	4.62
282.557	-12.38
282.692	2.62
282.826	-8.38
282.961	14.62
283.095	12.62
283.229	-2.38
283.364	-8.38
283.498	6.62
283.633	5.62
283.767	22.62
283.901	5.62
284.036	19.62
284.17	12.62
284.304	3.62
284.439	9.62
284.573	11.62
284.707	19.62
284.842	5.62
284.976	7.62
285.11	2.62
285.244	-7.38
285.379	48.62
285.513	14.62
285.647	9.62
285.781	23.62
285.916	19.62
286.05	10.62
286.184	31.62
286.318	5.62
286.453	-5.38
286.587	-7.38
286.721	-4.38
286.855	20.62
286.989	23.62
287.123	25.62
287.258	-3.38
287.392	11.62
287.526	13.62
287.66	18.62
287.794	7.62
287.928	-3.38
288.062	27.62
288.196	-2.38
288.33	-0.38
288.464	17.62
288.598	15.62
288.733	9.62
288.867	24.62
289.001	-6.38
289.135	2.62
289.269	4.62
289.403	2.62
289.537	-8.38
289.671	0.62
289.805	-10.38
289.939	2.62
290.073	-6.38
290.207	21.62
290.34	-0.38
290.474	34.62
290.608	24.62
290.742	14.62
290.876	-6.38
291.01	-8.38
291.144	32.62
291.278	15.62
291.412	3.62
291.546	3.62
291.679	0.62
291.813	10.62
291.947	6.62
292.081	-7.38
292.215	5.62
292.349	3.62
292.482	3.62
292.616	18.62
292.75	10.62
292.884	0.62
293.018	-22.38
293.151	-25.38
293.285	-15.38
293.419	-12.38
293.553	-8.38
293.686	-15.38
293.82	11.62
293.954	18.62
294.088	24.62
294.221	-2.38
294.355	-0.38
294.489	3.62
294.622	-11.38
294.756	17.62
294.89	-1.38
295.023	12.62
295.157	11.62
295.291	13.62
295.424	16.62
295.558	-4.38
295.691	8.62
295.825	16.62
295.959	-3.38
296.092	13.62
296.226	7.62
296.359	9.62
296.493	6.62
296.627	-2.38
296.76	7.62
296.894	-4.38
297.027	-6.38
297.161	1.62
297.294	-0.38
297.428	2.62
297.561	36.62
297.695	-6.38
297.828	3.62
297.962	-0.38
298.095	2.62
298.229	24.62
298.362	-2.38
298.495	-17.38
298.629	-3.38
298.762	-17.38
298.896	13.62
299.029	-15.38
299.162	-10.38
299.296	13.62
299.429	1.62
299.563	17.62
299.696	21.62
299.829	7.62
299.963	20.62
300.096	8.62
300.229	-3.38
300.363	19.62
300.496	18.62
300.629	-16.38
300.763	7.62
300.896	5.62
301.029	18.62
301.162	-2.38
301.296	-1.38
301.429	14.62
301.562	-28.38
301.695	18.62
301.829	15.62
301.962	18.62
302.095	14.62
302.228	-9.38
302.362	0.62
302.495	-16.38
302.628	14.62
302.761	16.62
302.894	6.62
303.027	15.62
303.161	7.62
303.294	-7.38
303.427	22.62
303.56	11.62
303.693	-3.38
303.826	11.62
303.959	15.62
304.092	-9.38
304.225	6.62
304.359	-5.38
304.492	-21.38
304.625	-13.38
304.758	9.62
304.891	-0.38
305.024	8.62
305.157	4.62
305.29	9.62
305.423	-10.38
305.556	-9.38
305.689	18.62
305.822	9.62
305.955	-10.38
306.088	-2.38
306.221	-4.38
306.354	7.62
306.487	-5.38
306.62	-5.38
306.752	0.62
306.885	13.62
307.018	17.62
307.151	7.62
307.284	18.62
307.417	14.62
307.55	15.62
307.683	6.62
307.816	26.62
307.948	19.62
308.081	15.62
308.214	13.62
308.347	20.62
308.48	-6.38
308.613	-1.38
308.745	20.62
308.878	-2.38
309.011	0.62
309.144	27.62
309.277	6.62
309.409	2.62
309.542	5.62
309.675	24.62
309.808	18.62
309.94	6.62
310.073	-8.38
310.206	-4.38
310.339	13.62
310.471	6.62
310.604	37.62
310.737	10.62
310.869	2.62
311.002	2.62
311.135	4.62
311.267	-10.38
311.4	5.62
311.533	31.62
311.665	-1.38
311.798	14.62
311.93	6.62
312.063	44.62
312.196	32.62
312.328	84.62
312.461	44.62
312.593	30.62
312.726	60.62
312.859	105.62
312.991	169.62
313.124	31.62
313.256	31.62
313.389	30.62
313.521	12.62
313.654	14.62
313.786	-7.38
313.919	-7.38
314.051	-15.38
314.184	10.62
314.316	22.62
314.449	-7.38
314.581	10.62
314.714	2.62
314.846	-4.38
314.978	-16.38
315.111	-18.38
315.243	-1.38
315.376	26.62
315.508	1.62
315.641	10.62
315.773	18.62
315.905	2.62
316.038	-6.38
316.17	-7.38
316.302	25.62
316.435	5.62
316.567	6.62
316.699	10.62
316.832	-2.38
316.964	12.62
317.096	-8.38
317.229	-0.38
317.361	-15.38
317.493	-3.38
317.625	1.62
317.758	21.62
317.89	29.62
318.022	-8.38
318.155	13.62
318.287	11.62
318.419	-8.38
318.551	4.62
318.683	6.62
318.816	2.62
318.948	15.62
319.08	5.62
319.212	10.62
319.344	-10.38
319.477	-2.38
319.609	6.62
319.741	4.62
319.873	-0.38
320.005	-3.38
320.137	-2.38
320.269	-1.38
320.401	16.62
320.534	-17.38
320.666	-12.38
320.798	-1.38
320.93	-6.38
321.062	-11.38
321.194	-18.38
321.326	0.62
321.458	13.62
321.59	11.62
321.722	18.62
321.854	-6.38
321.986	11.62
322.118	-7.38
322.25	-1.38
322.382	-6.38
322.514	8.62
322.646	0.62
322.778	29.62
322.91	2.62
323.042	1.62
323.174	5.62
323.306	-10.38
323.438	-14.38
323.57	-15.38
323.702	-5.38
323.834	9.62
323.966	-17.38
324.097	-1.38
324.229	4.62
324.361	7.62
324.493	19.62
324.625	-2.38
324.757	-3.38
324.889	-4.38
325.021	-3.38
325.152	21.62
325.284	25.62
325.416	4.62
325.548	15.62
325.68	8.62
325.811	21.62
325.943	8.62
326.075	-0.38
326.207	10.62
326.339	22.62
326.47	-3.38
326.602	25.62
326.734	26.62
326.866	14.62
326.997	-19.38
327.129	-0.38
327.261	-8.38
327.392	-14.38
327.524	5.62
327.656	3.62
327.787	5.62
327.919	-12.38
328.051	17.62
328.182	36.62
328.314	12.62
328.446	-5.38
328.577	10.62
328.709	11.62
328.841	-18.38
328.972	-0.38
329.104	-5.38
329.235	7.62
329.367	-5.38
329.499	15.62
329.63	2.62
329.762	-0.38
329.893	27.62
330.025	16.62
330.156	-17.38
330.288	7.62
330.419	6.62
330.551	20.62
330.683	-9.38
330.814	1.62
330.946	34.62
331.077	2.62
331.208	9.62
331.34	8.62
331.471	-16.38
331.603	-17.38
331.734	-12.38
331.866	23.62
331.997	19.62
332.129	12.62
332.26	3.62
332.392	36.62
332.523	11.62
332.654	-15.38
332.786	-2.38
332.917	1.62
333.048	31.62
333.18	26.62
333.311	3.62
333.443	9.62
333.574	9.62
333.705	29.62
333.837	41.62
333.968	119.62
334.099	230.62
334.231	197.62
334.362	49.62
334.493	23.62
334.624	11.62
334.756	36.62
334.887	6.62
335.018	10.62
335.15	21.62
335.281	22.62
335.412	11.62
335.543	21.62
335.675	10.62
335.806	-1.38
335.937	13.62
336.068	16.62
336.199	29.62
336.331	13.62
336.462	-0.38
336.593	14.62
336.724	19.62
336.855	33.62
336.986	13.62
337.118	32.62
337.249	9.62
337.38	15.62
337.511	13.62
337.642	10.62
337.773	7.62
337.904	24.62
338.035	16.62
338.166	24.62
338.298	19.62
338.429	1.62
338.56	31.62
338.691	22.62
338.822	6.62
338.953	33.62
339.084	21.62
339.215	16.62
339.346	9.62
339.477	-2.38
339.608	7.62
339.739	-9.38
339.87	11.62
340.001	17.62
340.132	34.62
340.263	2.62
340.394	25.62
340.525	-6.38
340.656	15.62
340.787	-0.38
340.918	15.62
341.049	23.62
341.179	22.62
341.31	21.62
341.441	16.62
341.572	9.62
341.703	27.62
341.834	17.62
341.965	15.62
342.096	26.62
342.227	4.62
342.357	-7.38
342.488	21.62
342.619	36.62
342.75	14.62
342.881	18.62
343.012	17.62
343.142	31.62
343.273	19.62
343.404	24.62
343.535	69.62
343.666	38.62
343.796	35.62
343.927	29.62
344.058	28.62
344.189	29.62
344.319	37.62
344.45	30.62
344.581	21.62
344.712	8.62
344.842	30.62
344.973	26.62
345.104	39.62
345.234	11.62
345.365	13.62
345.496	12.62
345.626	39.62
345.757	33.62
345.888	20.62
346.018	34.62
346.149	20.62
346.28	42.62
346.41	39.62
346.541	27.62
346.672	21.62
346.802	28.62
346.933	41.62
347.063	32.62
347.194	27.62
347.325	26.62
347.455	33.62
347.586	11.62
347.716	15.62
347.847	34.62
347.977	33.62
348.108	33.62
348.238	33.62
348.369	29.62
348.499	55.62
348.63	56.62
348.76	51.62
348.891	51.62
349.021	58.62
349.152	67.62
349.282	67.62
349.413	37.62
349.543	58.62
349.674	29.62
349.804	31.62
349.935	25.62
350.065	24.62
350.196	13.62
350.326	33.62
350.456	38.62
350.587	35.62
350.717	27.62
350.848	29.62
350.978	24.62
351.108	10.62
351.239	42.62
351.369	7.62
351.499	13.62
351.63	19.62
351.76	9.62
351.89	39.62
352.021	36.62
352.151	26.62
352.281	34.62
352.412	28.62
352.542	25.62
352.672	35.62
352.803	41.62
352.933	30.62
353.063	27.62
353.193	25.62
353.324	37.62
353.454	33.62
353.584	42.62
353.714	30.62
353.845	28.62
353.975	13.62
354.105	19.62
354.235	32.62
354.365	15.62
354.496	30.62
354.626	46.62
354.756	28.62
354.886	27.62
355.016	13.62
355.146	28.62
355.277	17.62
355.407	27.62
355.537	13.62
355.667	6.62
355.797	31.62
355.927	27.62
356.057	25.62
356.187	-4.38
356.318	22.62
356.448	25.62
356.578	11.62
356.708	32.62
356.838	31.62
356.968	12.62
357.098	36.62
357.228	19.62
357.358	18.62
357.488	25.62
357.618	58.62
357.748	37.62
357.878	40.62
358.008	15.62
358.138	29.62
358.268	16.62
358.398	46.62
358.528	24.62
358.658	45.62
358.788	26.62
358.918	36.62
359.048	24.62
359.178	25.62
359.308	33.62
359.438	64.62
359.568	29.62
359.698	26.62
359.827	29.62
359.957	42.62
360.087	31.62
360.217	38.62
360.347	50.62
360.477	51.62
360.607	6.62
360.737	46.62
360.866	32.62
360.996	21.62
361.126	13.62
361.256	49.62
361.386	33.62
361.516	47.62
361.645	21.62
361.775	36.62
361.905	15.62
362.035	34.62
362.165	40.62
362.294	35.62
362.424	50.62
362.554	45.62
362.684	41.62
362.813	45.62
362.943	57.62
363.073	50.62
363.203	63.62
363.332	76.62
363.462	86.62
363.592	110.62
363.721	122.62
363.851	169.62
363.981	206.62
364.111	242.62
364.24	314.62
364.37	499.62
364.5	867.62
364.629	1811.62
364.759	3879.62
364.888	6285.62
365.018	9429.62
365.148	14823.62
365.277	13011.62
365.407	4756.62
365.537	3121.62
365.666	4004.62
365.796	1862.62
365.925	812.62
366.055	749.62
366.184	1034.62
366.314	1403.62
366.444	2471.62
366.573	2105.62
366.703	661.62
366.832	209.62
366.962	110.62
367.091	91.62
367.221	82.62
367.35	57.62
367.48	81.62
367.609	65.62
367.739	62.62
367.868	24.62
367.998	38.62
368.127	34.62
368.257	45.62
368.386	55.62
368.516	73.62
368.645	45.62
368.775	37.62
368.904	23.62
369.033	32.62
369.163	17.62
369.292	42.62
369.422	41.62
369.551	43.62
369.68	37.62
369.81	43.62
369.939	35.62
370.069	40.62
370.198	23.62
370.327	13.62
370.457	27.62
370.586	59.62
370.715	30.62
370.845	32.62
370.974	39.62
371.103	63.62
371.233	43.62
371.362	62.62
371.491	53.62
371.621	50.62
371.75	43.62
371.879	47.62
372.008	63.62
372.138	49.62
372.267	38.62
372.396	50.62
372.525	37.62
372.655	30.62
372.784	36.62
372.913	42.62
373.042	53.62
373.172	46.62
373.301	8.62
373.43	13.62
373.559	13.62
373.688	26.62
373.818	47.62
373.947	21.62
374.076	26.62
374.205	34.62
374.334	38.62
374.463	14.62
374.593	21.62
374.722	29.62
374.851	48.62
374.98	5.62
375.109	26.62
375.238	21.62
375.367	31.62
375.496	22.62
375.625	8.62
375.755	27.62
375.884	57.62
376.013	47.62
376.142	6.62
376.271	9.62
376.4	43.62
376.529	41.62
376.658	33.62
376.787	22.62
376.916	7.62
377.045	25.62
377.174	20.62
377.303	26.62
377.432	54.62
377.561	44.62
377.69	30.62
377.819	55.62
377.948	13.62
378.077	22.62
378.206	13.62
378.335	9.62
378.464	19.62
378.593	29.62
378.722	19.62
378.851	5.62
378.98	14.62
379.108	9.62
379.237	8.62
379.366	28.62
379.495	30.62
379.624	32.62
379.753	21.62
379.882	25.62
380.011	5.62
380.14	1.62
380.268	10.62
380.397	19.62
380.526	41.62
380.655	0.62
380.784	-11.38
380.913	2.62
381.041	28.62
381.17	4.62
381.299	11.62
381.428	30.62
381.557	16.62
381.685	11.62
381.814	9.62
381.943	30.62
382.072	3.62
382.2	-14.38
382.329	12.62
382.458	14.62
382.587	47.62
382.715	23.62
382.844	6.62
382.973	14.62
383.102	14.62
383.23	20.62
383.359	16.62
383.488	19.62
383.616	16.62
383.745	23.62
383.874	16.62
384.003	19.62
384.131	6.62
384.26	0.62
384.389	35.62
384.517	1.62
384.646	5.62
384.774	27.62
384.903	35.62
385.032	32.62
385.16	18.62
385.289	40.62
385.418	20.62
385.546	25.62
385.675	32.62
385.803	17.62
385.932	29.62
386.06	18.62
386.189	16.62
386.318	35.62
386.446	28.62
386.575	33.62
386.703	25.62
386.832	25.62
386.96	6.62
387.089	30.62
387.217	17.62
387.346	18.62
387.474	19.62
387.603	28.62
387.731	29.62
387.86	33.62
387.988	41.62
388.117	31.62
388.245	24.62
388.374	22.62
388.502	30.62
388.631	14.62
388.759	25.62
388.888	18.62
389.016	5.62
389.144	1.62
389.273	10.62
389.401	7.62
389.53	15.62
389.658	30.62
389.786	20.62
389.915	32.62
390.043	38.62
390.172	36.62
390.3	55.62
390.428	45.62
390.557	36.62
390.685	46.62
390.813	57.62
390.942	53.62
391.07	16.62
391.198	29.62
391.327	22.62
391.455	14.62
391.583	47.62
391.712	33.62
391.84	36.62
391.968	24.62
392.096	16.62
392.225	15.62
392.353	29.62
392.481	35.62
392.609	49.62
392.738	31.62
392.866	43.62
392.994	25.62
393.122	39.62
393.251	48.62
393.379	21.62
393.507	2.62
393.635	20.62
393.764	34.62
393.892	34.62
394.02	15.62
394.148	22.62
394.276	21.62
394.404	61.62
394.533	27.62
394.661	26.62
394.789	38.62
394.917	37.62
395.045	20.62
395.173	18.62
395.302	23.62
395.43	14.62
395.558	18.62
395.686	33.62
395.814	37.62
395.942	12.62
396.07	26.62
396.198	43.62
396.326	31.62
396.454	54.62
396.582	25.62
396.711	37.62
396.839	37.62
396.967	41.62
397.095	26.62
397.223	42.62
397.351	50.62
397.479	61.62
397.607	27.62
397.735	47.62
397.863	65.62
397.991	50.62
398.119	38.62
398.247	43.62
398.375	65.62
398.503	56.62
398.631	61.62
398.759	83.62
398.887	45.62
399.015	44.62
399.143	46.62
399.271	63.62
399.399	71.62
399.526	65.62
399.654	86.62
399.782	64.62
399.91	95.62
400.038	88.62
400.166	80.62
400.294	89.62
400.422	90.62
400.55	98.62
400.678	110.62
400.805	110.62
400.933	97.62
401.061	124.62
401.189	106.62
401.317	133.62
401.445	99.62
401.573	87.62
401.7	51.62
401.828	44.62
401.956	51.62
402.084	48.62
402.212	44.62
402.34	36.62
402.467	34.62
402.595	46.62
402.723	46.62
402.851	62.62
402.978	57.62
403.106	75.62
403.234	78.62
403.362	111.62
403.489	124.62
403.617	152.62
403.745	201.62
403.873	291.62
404	558.62
404.128	1442.62
404.256	3907.62
404.384	5119.62
404.511	5507.62
404.639	7137.62
404.767	11491.62
404.894	14626.62
405.022	4919.62
405.15	1305.62
405.277	426.62
405.405	239.62
405.533	134.62
405.66	126.62
405.788	57.62
405.916	67.62
406.043	52.62
406.171	62.62
406.299	61.62
406.426	78.62
406.554	69.62
406.681	74.62
406.809	48.62
406.937	64.62
407.064	75.62
407.192	124.62
407.319	311.62
407.447	512.62
407.574	532.62
407.702	610.62
407.83	847.62
407.957	1582.62
408.085	935.62
408.212	291.62
408.34	98.62
408.467	59.62
408.595	44.62
408.722	46.62
408.85	59.62
408.977	31.62
409.105	35.62
409.232	11.62
409.36	30.62
409.487	34.62
409.615	42.62
409.742	34.62
409.87	41.62
409.997	39.62
410.125	32.62
410.252	31.62
410.379	24.62
410.507	35.62
410.634	29.62
410.762	37.62
410.889	27.62
411.017	33.62
411.144	29.62
411.271	30.62
411.399	26.62
411.526	37.62
411.653	33.62
411.781	51.62
411.908	45.62
412.036	9.62
412.163	41.62
412.29	19.62
412.418	23.62
412.545	51.62
412.672	40.62
412.8	51.62
412.927	32.62
413.054	44.62
413.182	28.62
413.309	43.62
413.436	34.62
413.564	34.62
413.691	44.62
413.818	51.62
413.945	19.62
414.073	41.62
414.2	27.62
414.327	25.62
414.454	52.62
414.582	33.62
414.709	6.62
414.836	38.62
414.963	51.62
415.091	28.62
415.218	37.62
415.345	43.62
415.472	40.62
415.6	13.62
415.727	48.62
415.854	40.62
415.981	7.62
416.108	37.62
416.236	27.62
416.363	32.62
416.49	22.62
416.617	27.62
416.744	45.62
416.871	35.62
416.998	17.62
417.126	22.62
417.253	1.62
417.38	20.62
417.507	35.62
417.634	48.62
417.761	45.62
417.888	41.62
418.015	38.62
418.143	51.62
418.27	48.62
418.397	35.62
418.524	28.62
418.651	20.62
418.778	49.62
418.905	41.62
419.032	41.62
419.159	52.62
419.286	46.62
419.413	61.62
419.54	51.62
419.667	16.62
419.794	24.62
419.921	40.62
420.048	53.62
420.175	59.62
420.302	31.62
420.429	42.62
420.556	65.62
420.683	43.62
420.81	54.62
420.937	73.62
421.064	76.62
421.191	65.62
421.318	78.62
421.445	78.62
421.572	51.62
421.699	72.62
421.826	54.62
421.953	25.62
422.08	22.62
422.207	9.62
422.334	10.62
422.461	46.62
422.588	21.62
422.714	28.62
422.841	36.62
422.968	39.62
423.095	12.62
423.222	9.62
423.349	19.62
423.476	39.62
423.603	12.62
423.729	35.62
423.856	24.62
423.983	39.62
424.11	-0.38
424.237	15.62
424.364	30.62
424.491	17.62
424.617	-10.38
424.744	-0.38
424.871	17.62
424.998	13.62
425.125	14.62
425.251	27.62
425.378	19.62
425.505	24.62
425.632	23.62
425.758	19.62
425.885	15.62
426.012	36.62
426.139	39.62
426.266	14.62
426.392	21.62
426.519	39.62
426.646	21.62
426.772	30.62
426.899	19.62
427.026	30.62
427.153	29.62
427.279	37.62
427.406	19.62
427.533	10.62
427.659	18.62
427.786	23.62
427.913	44.62
428.039	12.62
428.166	6.62
428.293	21.62
428.419	38.62
428.546	18.62
428.673	14.62
428.799	-4.38
428.926	24.62
429.053	55.62
429.179	41.62
429.306	21.62
429.433	41.62
429.559	43.62
429.686	14.62
429.812	32.62
429.939	22.62
430.066	32.62
430.192	8.62
430.319	34.62
430.445	24.62
430.572	16.62
430.699	22.62
430.825	31.62
430.952	33.62
431.078	37.62
431.205	47.62
431.331	37.62
431.458	39.62
431.584	25.62
431.711	25.62
431.837	15.62
431.964	18.62
432.09	13.62
432.217	-1.38
432.343	31.62
432.47	55.62
432.596	28.62
432.723	11.62
432.849	10.62
432.976	42.62
433.102	29.62
433.229	30.62
433.355	65.62
433.482	86.62
433.608	118.62
433.735	115.62
433.861	118.62
433.987	150.62
434.114	182.62
434.24	174.62
434.367	216.62
434.493	214.62
434.62	297.62
434.746	398.62
434.872	618.62
434.999	805.62
435.125	1718.62
435.252	5540.62
435.378	13411.62
435.504	15210.62
435.631	15432.62
435.757	15684.62
435.883	15684.62
436.01	15684.62
436.136	15684.62
436.262	15684.62
436.389	3443.62
436.515	2110.62
436.641	796.62
436.768	637.62
436.894	391.62
437.02	394.62
437.147	286.62
437.273	284.62
437.399	220.62
437.526	241.62
437.652	169.62
437.778	204.62
437.904	157.62
438.031	189.62
438.157	130.62
438.283	160.62
438.409	108.62
438.536	130.62
438.662	122.62
438.788	119.62
438.914	105.62
439.041	119.62
439.167	120.62
439.293	118.62
439.419	89.62
439.546	94.62
439.672	86.62
439.798	91.62
439.924	76.62
440.05	112.62
440.177	79.62
440.303	82.62
440.429	64.62
440.555	87.62
440.681	79.62
440.807	76.62
440.934	84.62
441.06	56.62
441.186	59.62
441.312	75.62
441.438	42.62
441.564	85.62
441.69	85.62
441.816	78.62
441.943	54.62
442.069	66.62
442.195	58.62
442.321	67.62
442.447	55.62
442.573	35.62
442.699	39.62
442.825	57.62
442.951	50.62
443.077	69.62
443.203	48.62
443.33	52.62
443.456	28.62
443.582	50.62
443.708	41.62
443.834	44.62
443.96	57.62
444.086	52.62
444.212	44.62
444.338	48.62
444.464	47.62
444.59	49.62
444.716	36.62
444.842	70.62
444.968	46.62
445.094	36.62
445.22	30.62
445.346	34.62
445.472	33.62
445.598	35.62
445.724	22.62
445.85	37.62
445.976	35.62
446.102	54.62
446.228	51.62
446.354	59.62
446.48	31.62
446.605	38.62
446.731	36.62
446.857	45.62
446.983	32.62
447.109	34.62
447.235	30.62
447.361	32.62
447.487	21.62
447.613	29.62
447.739	22.62
447.865	33.62
447.99	29.62
448.116	36.62
448.242	29.62
448.368	35.62
448.494	11.62
448.62	44.62
448.746	32.62
448.872	42.62
448.997	16.62
449.123	18.62
449.249	51.62
449.375	26.62
449.501	10.62
449.627	31.62
449.752	47.62
449.878	36.62
450.004	25.62
450.13	42.62
450.256	22.62
450.381	35.62
450.507	27.62
450.633	7.62
450.759	38.62
450.884	31.62
451.01	53.62
451.136	34.62
451.262	42.62
451.388	31.62
451.513	20.62
451.639	48.62
451.765	33.62
451.89	33.62
452.016	16.62
452.142	27.62
452.268	16.62
452.393	31.62
452.519	23.62
452.645	34.62
452.771	40.62
452.896	30.62
453.022	19.62
453.148	47.62
453.273	20.62
453.399	33.62
453.525	1.62
453.65	18.62
453.776	24.62
453.902	41.62
454.027	28.62
454.153	31.62
454.279	23.62
454.404	25.62
454.53	32.62
454.656	50.62
454.781	25.62
454.907	20.62
455.032	26.62
455.158	51.62
455.284	43.62
455.409	38.62
455.535	23.62
455.66	42.62
455.786	26.62
455.912	33.62
456.037	34.62
456.163	31.62
456.288	42.62
456.414	7.62
456.539	14.62
456.665	50.62
456.791	37.62
456.916	41.62
457.042	47.62
457.167	21.62
457.293	44.62
457.418	29.62
457.544	1.62
457.669	27.62
457.795	30.62
457.92	17.62
458.046	43.62
458.171	48.62
458.297	30.62
458.422	30.62
458.548	19.62
458.673	32.62
458.799	33.62
458.924	6.62
459.05	32.62
459.175	32.62
459.301	12.62
459.426	46.62
459.552	30.62
459.677	44.62
459.803	29.62
459.928	31.62
460.053	28.62
460.179	17.62
460.304	50.62
460.43	23.62
460.555	9.62
460.681	18.62
460.806	36.62
460.931	39.62
461.057	23.62
461.182	45.62
461.308	23.62
461.433	28.62
461.558	18.62
461.684	32.62
461.809	14.62
461.934	27.62
462.06	26.62
462.185	15.62
462.311	20.62
462.436	42.62
462.561	15.62
462.687	22.62
462.812	34.62
462.937	25.62
463.063	9.62
463.188	16.62
463.313	19.62
463.439	10.62
463.564	27.62
463.689	19.62
463.814	49.62
463.94	46.62
464.065	22.62
464.19	35.62
464.316	16.62
464.441	-0.38
464.566	18.62
464.692	23.62
464.817	23.62
464.942	39.62
465.067	31.62
465.193	14.62
465.318	15.62
465.443	16.62
465.568	26.62
465.694	23.62
465.819	49.62
465.944	29.62
466.069	21.62
466.194	35.62
466.32	37.62
466.445	24.62
466.57	27.62
466.695	22.62
466.82	38.62
466.946	39.62
467.071	22.62
467.196	26.62
467.321	54.62
467.446	43.62
467.572	31.62
467.697	35.62
467.822	50.62
467.947	40.62
468.072	19.62
468.197	25.62
468.323	25.62
468.448	27.62
468.573	33.62
468.698	17.62
468.823	32.62
468.948	39.62
469.073	39.62
469.198	45.62
469.324	43.62
469.449	31.62
469.574	47.62
469.699	36.62
469.824	34.62
469.949	17.62
470.074	28.62
470.199	64.62
470.324	38.62
470.449	43.62
470.574	33.62
470.7	11.62
470.825	37.62
470.95	60.62
471.075	38.62
471.2	42.62
471.325	67.62
471.45	44.62
471.575	19.62
471.7	44.62
471.825	23.62
471.95	27.62
472.075	19.62
472.2	26.62
472.325	16.62
472.45	19.62
472.575	36.62
472.7	31.62
472.825	32.62
472.95	42.62
473.075	42.62
473.2	18.62
473.325	44.62
473.45	36.62
473.575	32.62
473.7	50.62
473.825	33.62
473.95	35.62
474.075	16.62
474.2	5.62
474.325	11.62
474.45	47.62
474.574	36.62
474.699	29.62
474.824	34.62
474.949	3.62
475.074	9.62
475.199	31.62
475.324	31.62
475.449	14.62
475.574	33.62
475.699	14.62
475.824	-1.38
475.949	18.62
476.073	12.62
476.198	13.62
476.323	30.62
476.448	27.62
476.573	29.62
476.698	39.62
476.823	36.62
476.947	39.62
477.072	16.62
477.197	11.62
477.322	19.62
477.447	17.62
477.572	30.62
477.697	36.62
477.821	3.62
477.946	20.62
478.071	31.62
478.196	20.62
478.321	33.62
478.445	31.62
478.57	20.62
478.695	8.62
478.82	37.62
478.945	37.62
479.069	22.62
479.194	31.62
479.319	28.62
479.444	42.62
479.569	10.62
479.693	29.62
479.818	26.62
479.943	29.62
480.068	21.62
480.192	25.62
480.317	25.62
480.442	11.62
480.567	3.62
480.691	31.62
480.816	20.62
480.941	1.62
481.066	22.62
481.19	24.62
481.315	36.62
481.44	8.62
481.564	7.62
481.689	25.62
481.814	37.62
481.938	27.62
482.063	7.62
482.188	15.62
482.313	25.62
482.437	7.62
482.562	20.62
482.687	17.62
482.811	14.62
482.936	19.62
483.061	26.62
483.185	25.62
483.31	7.62
483.435	-3.38
483.559	24.62
483.684	11.62
483.808	50.62
483.933	17.62
484.058	27.62
484.182	38.62
484.307	30.62
484.432	26.62
484.556	8.62
484.681	29.62
484.805	29.62
484.93	38.62
485.055	29.62
485.179	40.62
485.304	30.62
485.428	24.62
485.553	25.62
485.678	15.62
485.802	21.62
485.927	48.62
486.051	40.62
486.176	15.62
486.3	17.62
486.425	15.62
486.549	24.62
486.674	13.62
486.799	24.62
486.923	8.62
487.048	6.62
487.172	7.62
487.297	27.62
487.421	33.62
487.546	16.62
487.67	43.62
487.795	11.62
487.919	20.62
488.044	22.62
488.168	38.62
488.293	0.62
488.417	11.62
488.542	40.62
488.666	22.62
488.791	16.62
488.915	11.62
489.04	25.62
489.164	24.62
489.289	41.62
489.413	20.62
489.538	29.62
489.662	30.62
489.786	18.62
489.911	19.62
490.035	16.62
490.16	28.62
490.284	33.62
490.409	10.62
490.533	16.62
490.658	29.62
490.782	47.62
490.906	42.62
491.031	110.62
491.155	135.62
491.28	133.62
491.404	186.62
491.528	237.62
491.653	174.62
491.777	62.62
491.902	35.62
492.026	31.62
492.15	33.62
492.275	56.62
492.399	29.62
492.524	20.62
492.648	39.62
492.772	20.62
492.897	44.62
493.021	5.62
493.145	26.62
493.27	18.62
493.394	17.62
493.518	12.62
493.643	10.62
493.767	41.62
493.891	17.62
494.016	35.62
494.14	38.62
494.264	9.62
494.389	27.62
494.513	18.62
494.637	17.62
494.762	26.62
494.886	44.62
495.01	38.62
495.134	43.62
495.259	24.62
495.383	17.62
495.507	31.62
495.632	46.62
495.756	62.62
495.88	26.62
496.004	32.62
496.129	13.62
496.253	29.62
496.377	20.62
496.501	35.62
496.626	28.62
496.75	11.62
496.874	22.62
496.998	9.62
497.123	29.62
497.247	25.62
497.371	17.62
497.495	17.62
497.62	9.62
497.744	11.62
497.868	19.62
497.992	18.62
498.116	11.62
498.241	13.62
498.365	22.62
498.489	12.62
498.613	47.62
498.737	17.62
498.862	33.62
498.986	8.62
499.11	26.62
499.234	22.62
499.358	12.62
499.482	27.62
499.607	21.62
499.731	22.62
499.855	23.62
499.979	28.62
500.103	28.62
500.227	9.62
500.351	13.62
500.476	22.62
500.6	9.62
500.724	29.62
500.848	25.62
500.972	26.62
501.096	42.62
501.22	43.62
501.344	21.62
501.469	11.62
501.593	16.62
501.717	21.62
501.841	25.62
501.965	28.62
502.089	21.62
502.213	35.62
502.337	25.62
502.461	17.62
502.585	20.62
502.709	25.62
502.834	2.62
502.958	13.62
503.082	16.62
503.206	22.62
503.33	42.62
503.454	27.62
503.578	30.62
503.702	32.62
503.826	22.62
503.95	44.62
504.074	39.62
504.198	2.62
504.322	18.62
504.446	3.62
504.57	26.62
504.694	21.62
504.818	21.62
504.942	40.62
505.066	25.62
505.19	23.62
505.314	27.62
505.438	33.62
505.562	6.62
505.686	11.62
505.81	7.62
505.934	26.62
506.058	4.62
506.182	18.62
506.306	8.62
506.43	31.62
506.554	36.62
506.678	10.62
506.802	21.62
506.926	21.62
507.05	46.62
507.174	28.62
507.298	22.62
507.422	19.62
507.546	36.62
507.67	51.62
507.794	14.62
507.918	26.62
508.042	21.62
508.165	27.62
508.289	26.62
508.413	28.62
508.537	15.62
508.661	24.62
508.785	23.62
508.909	26.62
509.033	22.62
509.157	9.62
509.281	25.62
509.405	33.62
509.528	53.62
509.652	42.62
509.776	33.62
509.9	36.62
510.024	14.62
510.148	41.62
510.272	52.62
510.396	50.62
510.519	32.62
510.643	39.62
510.767	47.62
510.891	49.62
511.015	36.62
511.139	46.62
511.263	49.62
511.386	38.62
511.51	33.62
511.634	43.62
511.758	40.62
511.882	46.62
512.006	49.62
512.129	51.62
512.253	94.62
512.377	73.62
512.501	91.62
512.625	85.62
512.748	96.62
512.872	89.62
512.996	69.62
513.12	59.62
513.244	50.62
513.367	70.62
513.491	71.62
513.615	90.62
513.739	72.62
513.862	85.62
513.986	86.62
514.11	96.62
514.234	94.62
514.358	126.62
514.481	103.62
514.605	109.62
514.729	107.62
514.853	119.62
514.976	100.62
515.1	98.62
515.224	94.62
515.348	81.62
515.471	86.62
515.595	91.62
515.719	133.62
515.842	227.62
515.966	287.62
516.09	283.62
516.214	309.62
516.337	344.62
516.461	237.62
516.585	88.62
516.708	46.62
516.832	51.62
516.956	32.62
517.08	31.62
517.203	0.62
517.327	23.62
517.451	38.62
517.574	28.62
517.698	17.62
517.822	2.62
517.945	12.62
518.069	21.62
518.193	45.62
518.316	36.62
518.44	31.62
518.564	29.62
518.687	20.62
518.811	7.62
518.935	53.62
519.058	14.62
519.182	23.62
519.306	11.62
519.429	24.62
519.553	48.62
519.676	24.62
519.8	30.62
519.924	17.62
520.047	32.62
520.171	26.62
520.294	30.62
520.418	30.62
520.542	7.62
520.665	28.62
520.789	7.62
520.913	11.62
521.036	8.62
521.16	1.62
521.283	33.62
521.407	12.62
521.53	-0.38
521.654	6.62
521.778	47.62
521.901	32.62
522.025	25.62
522.148	4.62
522.272	29.62
522.395	33.62
522.519	50.62
522.643	21.62
522.766	12.62
522.89	15.62
523.013	17.62
523.137	-7.38
523.26	10.62
523.384	19.62
523.507	33.62
523.631	31.62
523.754	6.62
523.878	15.62
524.002	20.62
524.125	14.62
524.249	6.62
524.372	10.62
524.496	17.62
524.619	18.62
524.743	20.62
524.866	21.62
524.99	24.62
525.113	-2.38
525.237	21.62
525.36	24.62
525.484	15.62
525.607	1.62
525.731	1.62
525.854	18.62
525.978	24.62
526.101	17.62
526.224	24.62
526.348	30.62
526.471	21.62
526.595	21.62
526.718	13.62
526.842	-12.38
526.965	22.62
527.089	12.62
527.212	19.62
527.336	18.62
527.459	36.62
527.582	19.62
527.706	20.62
527.829	8.62
527.953	18.62
528.076	6.62
528.2	5.62
528.323	24.62
528.446	32.62
528.57	14.62
528.693	37.62
528.817	26.62
528.94	27.62
529.064	36.62
529.187	16.62
529.31	17.62
529.434	1.62
529.557	5.62
529.68	30.62
529.804	26.62
529.927	34.62
530.051	27.62
530.174	18.62
530.297	30.62
530.421	21.62
530.544	24.62
530.668	43.62
530.791	26.62
530.914	27.62
531.038	12.62
531.161	19.62
531.284	19.62
531.408	28.62
531.531	7.62
531.654	11.62
531.778	30.62
531.901	5.62
532.024	18.62
532.148	19.62
532.271	26.62
532.394	18.62
532.518	16.62
532.641	33.62
532.764	45.62
532.888	34.62
533.011	-2.38
533.134	19.62
533.258	42.62
533.381	13.62
533.504	29.62
533.628	8.62
533.751	19.62
533.874	15.62
533.997	31.62
534.121	2.62
534.244	10.62
534.367	19.62
534.491	19.62
534.614	5.62
534.737	23.62
534.86	29.62
534.984	13.62
535.107	18.62
535.23	26.62
535.354	13.62
535.477	-3.38
535.6	11.62
535.723	29.62
535.847	15.62
535.97	2.62
536.093	29.62
536.216	26.62
536.34	34.62
536.463	9.62
536.586	20.62
536.709	11.62
536.833	28.62
536.956	18.62
537.079	14.62
537.202	20.62
537.325	6.62
537.449	10.62
537.572	24.62
537.695	19.62
537.818	13.62
537.941	23.62
538.065	10.62
538.188	13.62
538.311	25.62
538.434	21.62
538.558	18.62
538.681	25.62
538.804	22.62
538.927	24.62
539.05	28.62
539.173	18.62
539.297	24.62
539.42	28.62
539.543	8.62
539.666	37.62
539.789	37.62
539.913	33.62
540.036	42.62
540.159	26.62
540.282	17.62
540.405	14.62
540.528	25.62
540.651	20.62
540.775	25.62
540.898	37.62
541.021	31.62
541.144	40.62
541.267	44.62
541.39	38.62
541.513	35.62
541.637	27.62
541.76	43.62
541.883	36.62
542.006	37.62
542.129	50.62
542.252	29.62
542.375	51.62
542.498	43.62
542.622	36.62
542.745	46.62
542.868	51.62
542.991	48.62
543.114	53.62
543.237	46.62
543.36	58.62
543.483	77.62
543.606	79.62
543.73	82.62
543.853	84.62
543.976	76.62
544.099	124.62
544.222	120.62
544.345	117.62
544.468	163.62
544.591	198.62
544.714	277.62
544.837	343.62
544.96	448.62
545.083	659.62
545.206	1080.62
545.329	2424.62
545.453	11038.62
545.576	15270.62
545.699	15684.62
545.822	15684.62
545.945	15684.62
546.068	15684.62
546.191	15684.62
546.314	15684.62
546.437	15684.62
546.56	15684.62
546.683	15684.62
546.806	15684.62
546.929	15684.62
547.052	15684.62
547.175	15684.62
547.298	15684.62
547.421	15684.62
547.544	15684.62
547.667	3547.62
547.79	2631.62
547.913	1066.62
548.036	890.62
548.159	650.62
548.282	617.62
548.405	471.62
548.528	501.62
548.651	408.62
548.774	403.62
548.897	332.62
549.02	348.62
549.143	309.62
549.266	299.62
549.389	253.62
549.512	277.62
549.635	271.62
549.758	269.62
549.881	216.62
550.004	216.62
550.127	185.62
550.25	183.62
550.373	171.62
550.496	186.62
550.619	160.62
550.742	160.62
550.865	142.62
550.988	154.62
551.111	153.62
551.234	147.62
551.356	128.62
551.479	127.62
551.602	117.62
551.725	140.62
551.848	125.62
551.971	133.62
552.094	112.62
552.217	127.62
552.34	125.62
552.463	112.62
552.586	131.62
552.709	106.62
552.832	96.62
552.955	114.62
553.077	112.62
553.2	96.62
553.323	97.62
553.446	110.62
553.569	91.62
553.692	115.62
553.815	101.62
553.938	121.62
554.061	102.62
554.184	100.62
554.306	110.62
554.429	89.62
554.552	82.62
554.675	82.62
554.798	80.62
554.921	89.62
555.044	73.62
555.167	75.62
555.29	72.62
555.412	62.62
555.535	69.62
555.658	81.62
555.781	79.62
555.904	64.62
556.027	73.62
556.15	84.62
556.272	70.62
556.395	86.62
556.518	67.62
556.641	66.62
556.764	70.62
556.887	55.62
557.01	65.62
557.132	59.62
557.255	56.62
557.378	62.62
557.501	71.62
557.624	71.62
557.747	67.62
557.869	74.62
557.992	94.62
558.115	107.62
558.238	82.62
558.361	110.62
558.483	102.62
558.606	89.62
558.729	57.62
558.852	75.62
558.975	70.62
559.098	75.62
559.22	48.62
559.343	58.62
559.466	66.62
559.589	51.62
559.712	64.62
559.834	53.62
559.957	54.62
560.08	62.62
560.203	64.62
560.325	62.62
560.448	61.62
560.571	60.62
560.694	41.62
560.817	50.62
560.939	59.62
561.062	57.62
561.185	65.62
561.308	66.62
561.43	70.62
561.553	50.62
561.676	73.62
561.799	63.62
561.921	58.62
562.044	69.62
562.167	71.62
562.29	81.62
562.413	52.62
562.535	63.62
562.658	67.62
562.781	62.62
562.903	66.62
563.026	87.62
563.149	138.62
563.272	106.62
563.394	111.62
563.517	113.62
563.64	64.62
563.763	37.62
563.885	62.62
564.008	63.62
564.131	59.62
564.254	31.62
564.376	43.62
564.499	35.62
564.622	16.62
564.744	46.62
564.867	34.62
564.99	30.62
565.113	38.62
565.235	39.62
565.358	47.62
565.481	26.62
565.603	31.62
565.726	50.62
565.849	50.62
565.971	33.62
566.094	33.62
566.217	36.62
566.34	40.62
566.462	38.62
566.585	43.62
566.708	51.62
566.83	43.62
566.953	59.62
567.076	62.62
567.198	31.62
567.321	19.62
567.444	50.62
567.566	43.62
567.689	31.62
567.812	27.62
567.934	39.62
568.057	42.62
568.18	39.62
568.302	31.62
568.425	42.62
568.548	33.62
568.67	37.62
568.793	37.62
568.916	53.62
569.038	44.62
569.161	46.62
569.283	43.62
569.406	37.62
569.529	10.62
569.651	25.62
569.774	32.62
569.897	36.62
570.019	52.62
570.142	47.62
570.265	39.62
570.387	30.62
570.51	49.62
570.632	64.62
570.755	39.62
570.878	41.62
571	47.62
571.123	36.62
571.246	30.62
571.368	23.62
571.491	38.62
571.613	28.62
571.736	1.62
571.859	38.62
571.981	29.62
572.104	29.62
572.226	18.62
572.349	26.62
572.472	39.62
572.594	36.62
572.717	45.62
572.839	28.62
572.962	37.62
573.085	28.62
573.207	24.62
573.33	23.62
573.452	37.62
573.575	45.62
573.697	24.62
573.82	33.62
573.943	33.62
574.065	38.62
574.188	41.62
574.31	52.62
574.433	53.62
574.555	52.62
574.678	23.62
574.801	43.62
574.923	15.62
575.046	43.62
575.168	38.62
575.291	39.62
575.413	43.62
575.536	41.62
575.659	58.62
575.781	42.62
575.904	64.62
576.026	63.62
576.149	84.62
576.271	129.62
576.394	203.62
576.516	539.62
576.639	3663.62
576.761	10158.62
576.884	8848.62
577.007	8732.62
577.129	8037.62
577.252	3729.62
577.374	1312.62
577.497	495.62
577.619	282.62
577.742	185.62
577.864	168.62
577.987	129.62
578.109	141.62
578.232	122.62
578.354	155.62
578.477	193.62
578.599	403.62
578.722	1906.62
578.844	9098.62
578.967	9833.62
579.089	8737.62
579.212	9100.62
579.334	5224.62
579.457	1935.62
579.579	729.62
579.702	347.62
579.824	230.62
579.947	129.62
580.069	102.62
580.192	86.62
580.314	87.62
580.437	67.62
580.559	92.62
580.682	75.62
580.804	60.62
580.927	71.62
581.049	47.62
581.172	72.62
581.294	59.62
581.417	60.62
581.539	50.62
581.662	45.62
581.784	53.62
581.907	46.62
582.029	34.62
582.152	35.62
582.274	53.62
582.396	42.62
582.519	41.62
582.641	39.62
582.764	36.62
582.886	44.62
583.009	26.62
583.131	32.62
583.254	45.62
583.376	60.62
583.499	38.62
583.621	29.62
583.743	46.62
583.866	42.62
583.988	32.62
584.111	42.62
584.233	49.62
584.356	25.62
584.478	33.62
584.601	14.62
584.723	32.62
584.845	56.62
584.968	31.62
585.09	24.62
585.213	43.62
585.335	21.62
585.458	43.62
585.58	24.62
585.702	50.62
585.825	48.62
585.947	36.62
586.07	28.62
586.192	24.62
586.315	45.62
586.437	28.62
586.559	28.62
586.682	11.62
586.804	28.62
586.927	35.62
587.049	33.62
587.171	44.62
587.294	35.62
587.416	39.62
587.539	23.62
587.661	29.62
587.783	22.62
587.906	32.62
588.028	40.62
588.151	34.62
588.273	39.62
588.395	30.62
588.518	32.62
588.64	35.62
588.763	53.62
588.885	39.62
589.007	41.62
589.13	21.62
589.252	17.62
589.375	37.62
589.497	35.62
589.619	44.62
589.742	42.62
589.864	45.62
589.986	21.62
590.109	33.62
590.231	13.62
590.354	40.62
590.476	14.62
590.598	23.62
590.721	7.62
590.843	31.62
590.965	28.62
591.088	41.62
591.21	32.62
591.332	35.62
591.455	20.62
591.577	27.62
591.7	32.62
591.822	33.62
591.944	18.62
592.067	24.62
592.189	29.62
592.311	47.62
592.434	26.62
592.556	50.62
592.678	30.62
592.801	14.62
592.923	34.62
593.045	19.62
593.168	15.62
593.29	37.62
593.412	53.62
593.535	42.62
593.657	18.62
593.779	40.62
593.902	34.62
594.024	23.62
594.146	38.62
594.269	31.62
594.391	10.62
594.513	47.62
594.636	24.62
594.758	23.62
594.88	53.62
595.003	36.62
595.125	40.62
595.247	39.62
595.37	35.62
595.492	19.62
595.614	49.62
595.737	31.62
595.859	21.62
595.981	19.62
596.104	36.62
596.226	28.62
596.348	28.62
596.471	13.62
596.593	34.62
596.715	27.62
596.838	29.62
596.96	14.62
597.082	30.62
597.204	23.62
597.327	29.62
597.449	18.62
597.571	19.62
597.694	44.62
597.816	48.62
597.938	26.62
598.061	25.62
598.183	23.62
598.305	38.62
598.427	39.62
598.55	37.62
598.672	32.62
598.794	31.62
598.917	16.62
599.039	27.62
599.161	19.62
599.283	32.62
599.406	18.62
599.528	31.62
599.65	51.62
599.773	38.62
599.895	63.62
600.017	34.62
600.139	31.62
600.262	14.62
600.384	18.62
600.506	27.62
600.628	27.62
600.751	47.62
600.873	34.62
600.995	15.62
601.118	46.62
601.24	15.62
601.362	29.62
601.484	31.62
601.607	38.62
601.729	38.62
601.851	17.62
601.973	24.62
602.096	31.62
602.218	24.62
602.34	19.62
602.462	19.62
602.585	11.62
602.707	22.62
602.829	31.62
602.951	27.62
603.074	3.62
603.196	32.62
603.318	13.62
603.44	28.62
603.563	13.62
603.685	15.62
603.807	28.62
603.929	25.62
604.052	33.62
604.174	38.62
604.296	36.62
604.418	45.62
604.541	45.62
604.663	15.62
604.785	26.62
604.907	15.62
605.03	5.62
605.152	40.62
605.274	17.62
605.396	7.62
605.519	19.62
605.641	21.62
605.763	46.62
605.885	41.62
606.008	34.62
606.13	19.62
606.252	39.62
606.374	26.62
606.496	-4.38
606.619	10.62
606.741	17.62
606.863	38.62
606.985	31.62
607.108	39.62
607.23	29.62
607.352	6.62
607.474	22.62
607.596	35.62
607.719	15.62
607.841	26.62
607.963	36.62
608.085	22.62
608.207	38.62
608.33	26.62
608.452	19.62
608.574	21.62
608.696	40.62
608.819	9.62
608.941	21.62
609.063	30.62
609.185	24.62
609.307	25.62
609.43	37.62
609.552	19.62
609.674	21.62
609.796	25.62
609.918	36.62
610.041	20.62
610.163	11.62
610.285	21.62
610.407	37.62
610.529	7.62
610.652	21.62
610.774	32.62
610.896	23.62
611.018	17.62
611.14	34.62
611.263	10.62
611.385	31.62
611.507	39.62
611.629	16.62
611.751	23.62
611.873	51.62
611.996	25.62
612.118	35.62
612.24	22.62
612.362	38.62
612.484	45.62
612.607	28.62
612.729	41.62
612.851	32.62
612.973	25.62
613.095	18.62
613.218	21.62
613.34	19.62
613.462	22.62
613.584	17.62
613.706	18.62
613.828	20.62
613.951	11.62
614.073	16.62
614.195	14.62
614.317	46.62
614.439	29.62
614.561	21.62
614.684	12.62
614.806	29.62
614.928	31.62
615.05	41.62
615.172	32.62
615.294	26.62
615.417	10.62
615.539	17.62
615.661	25.62
615.783	24.62
615.905	11.62
616.027	17.62
616.15	34.62
616.272	21.62
616.394	17.62
616.516	19.62
616.638	17.62
616.76	31.62
616.883	32.62
617.005	19.62
617.127	23.62
617.249	27.62
617.371	16.62
617.493	28.62
617.615	30.62
617.738	13.62
617.86	24.62
617.982	24.62
618.104	-2.38
618.226	14.62
618.348	18.62
618.471	23.62
618.593	20.62
618.715	13.62
618.837	7.62
618.959	22.62
619.081	50.62
619.203	12.62
619.326	33.62
619.448	29.62
619.57	23.62
619.692	22.62
619.814	34.62
619.936	21.62
620.058	31.62
620.181	26.62
620.303	-6.38
620.425	15.62
620.547	17.62
620.669	10.62
620.791	25.62
620.913	10.62
621.036	8.62
621.158	25.62
621.28	10.62
621.402	0.62
621.524	16.62
621.646	7.62
621.768	5.62
621.891	7.62
622.013	14.62
622.135	23.62
622.257	13.62
622.379	13.62
622.501	36.62
622.623	5.62
622.745	28.62
622.868	23.62
622.99	18.62
623.112	15.62
623.234	16.62
623.356	18.62
623.478	28.62
623.6	23.62
623.722	17.62
623.845	24.62
623.967	14.62
624.089	37.62
624.211	18.62
624.333	13.62
624.455	18.62
624.577	22.62
624.699	21.62
624.822	19.62
624.944	2.62
625.066	11.62
625.188	0.62
625.31	25.62
625.432	24.62
625.554	22.62
625.676	35.62
625.799	22.62
625.921	27.62
626.043	23.62
626.165	33.62
626.287	11.62
626.409	12.62
626.531	8.62
626.653	9.62
626.775	21.62
626.898	23.62
627.02	48.62
627.142	47.62
627.264	26.62
627.386	9.62
627.508	11.62
627.63	10.62
627.752	12.62
627.874	-4.38
627.997	10.62
628.119	2.62
628.241	12.62
628.363	20.62
628.485	3.62
628.607	3.62
628.729	1.62
628.851	-3.38
628.973	17.62
629.096	11.62
629.218	18.62
629.34	25.62
629.462	13.62
629.584	6.62
629.706	25.62
629.828	19.62
629.95	35.62
630.072	21.62
630.195	9.62
630.317	25.62
630.439	10.62
630.561	22.62
630.683	6.62
630.805	30.62
630.927	21.62
631.049	19.62
631.171	13.62
631.293	29.62
631.416	23.62
631.538	15.62
631.66	18.62
631.782	33.62
631.904	24.62
632.026	9.62
632.148	18.62
632.27	1.62
632.392	21.62
632.514	11.62
632.637	22.62
632.759	29.62
632.881	-4.38
633.003	23.62
633.125	19.62
633.247	9.62
633.369	-0.38
633.491	17.62
633.613	29.62
633.735	11.62
633.858	15.62
633.98	10.62
634.102	-9.38
634.224	7.62
634.346	5.62
634.468	15.62
634.59	11.62
634.712	8.62
634.834	14.62
634.956	5.62
635.078	9.62
635.201	-2.38
635.323	14.62
635.445	5.62
635.567	3.62
635.689	15.62
635.811	14.62
635.933	-5.38
636.055	15.62
636.177	21.62
636.299	26.62
636.421	21.62
636.544	-5.38
636.666	13.62
636.788	25.62
636.91	23.62
637.032	15.62
637.154	5.62
637.276	41.62
637.398	33.62
637.52	28.62
637.642	39.62
637.764	9.62
637.887	14.62
638.009	5.62
638.131	14.62
638.253	8.62
638.375	16.62
638.497	25.62
638.619	16.62
638.741	24.62
638.863	-0.38
638.985	9.62
639.107	12.62
639.23	7.62
639.352	43.62
639.474	15.62
639.596	5.62
639.718	15.62
639.84	16.62
639.962	15.62
640.084	27.62
640.206	26.62
640.328	16.62
640.45	22.62
640.573	6.62
640.695	16.62
640.817	3.62
640.939	28.62
641.061	5.62
641.183	9.62
641.305	15.62
641.427	15.62
641.549	-2.38
641.671	22.62
641.793	17.62
641.915	23.62
642.038	17.62
642.16	15.62
642.282	26.62
642.404	7.62
642.526	4.62
642.648	9.62
642.77	2.62
642.892	22.62
643.014	16.62
643.136	3.62
643.258	18.62
643.381	33.62
643.503	38.62
643.625	9.62
643.747	17.62
643.869	-4.38
643.991	24.62
644.113	10.62
644.235	18.62
644.357	16.62
644.479	30.62
644.601	1.62
644.723	13.62
644.846	34.62
644.968	10.62
645.09	7.62
645.212	7.62
645.334	34.62
645.456	30.62
645.578	23.62
645.7	12.62
645.822	29.62
645.944	24.62
646.066	20.62
646.188	16.62
646.311	20.62
646.433	12.62
646.555	23.62
646.677	25.62
646.799	39.62
646.921	13.62
647.043	23.62
647.165	-9.38
647.287	7.62
647.409	13.62
647.531	42.62
647.654	11.62
647.776	28.62
647.898	28.62
648.02	-11.38
648.142	6.62
648.264	11.62
648.386	-1.38
648.508	13.62
648.63	13.62
648.752	20.62
648.874	10.62
648.997	9.62
649.119	21.62
649.241	16.62
649.363	35.62
649.485	27.62
649.607	-5.38
649.729	4.62
649.851	14.62
649.973	11.62
650.095	14.62
650.217	1.62
650.34	11.62
650.462	21.62
650.584	17.62
650.706	19.62
650.828	14.62
650.95	6.62
651.072	18.62
651.194	13.62
651.316	17.62
651.438	24.62
651.56	8.62
651.683	13.62
651.805	4.62
651.927	-1.38
652.049	9.62
652.171	1.62
652.293	21.62
652.415	3.62
652.537	-5.38
652.659	9.62
652.781	18.62
652.903	34.62
653.026	30.62
653.148	21.62
653.27	21.62
653.392	11.62
653.514	0.62
653.636	9.62
653.758	15.62
653.88	15.62
654.002	11.62
654.124	0.62
654.247	0.62
654.369	12.62
654.491	15.62
654.613	16.62
654.735	-8.38
654.857	20.62
654.979	-1.38
655.101	6.62
655.223	37.62
655.345	8.62
655.468	13.62
655.59	21.62
655.712	31.62
655.834	2.62
655.956	17.62
656.078	17.62
656.2	-2.38
656.322	9.62
656.444	-0.38
656.566	22.62
656.689	17.62
656.811	2.62
656.933	20.62
657.055	-7.38
657.177	13.62
657.299	13.62
657.421	31.62
657.543	27.62
657.665	-2.38
657.787	-1.38
657.91	16.62
658.032	25.62
658.154	17.62
658.276	18.62
658.398	-4.38
658.52	19.62
658.642	15.62
658.764	-8.38
658.886	-0.38
659.009	2.62
659.131	21.62
659.253	27.62
659.375	14.62
659.497	3.62
659.619	3.62
659.741	7.62
659.863	10.62
659.985	1.62
660.108	7.62
660.23	6.62
660.352	9.62
660.474	23.62
660.596	19.62
660.718	18.62
660.84	26.62
660.962	48.62
661.084	1.62
661.207	-2.38
661.329	13.62
661.451	9.62
661.573	15.62
661.695	34.62
661.817	29.62
661.939	26.62
662.061	32.62
662.184	7.62
662.306	16.62
662.428	16.62
662.55	29.62
662.672	7.62
662.794	11.62
662.916	7.62
663.038	8.62
663.161	26.62
663.283	18.62
663.405	27.62
663.527	7.62
663.649	8.62
663.771	14.62
663.893	13.62
664.015	9.62
664.138	12.62
664.26	8.62
664.382	11.62
664.504	6.62
664.626	2.62
664.748	7.62
664.87	9.62
664.992	24.62
665.115	15.62
665.237	-4.38
665.359	5.62
665.481	17.62
665.603	11.62
665.725	22.62
665.847	-7.38
665.97	5.62
666.092	16.62
666.214	23.62
666.336	14.62
666.458	19.62
666.58	-2.38
666.702	-10.38
666.825	6.62
666.947	8.62
667.069	18.62
667.191	7.62
667.313	18.62
667.435	-9.38
667.557	-14.38
667.68	18.62
667.802	-6.38
667.924	4.62
668.046	21.62
668.168	17.62
668.29	24.62
668.412	14.62
668.535	8.62
668.657	6.62
668.779	-5.38
668.901	17.62
669.023	39.62
669.145	14.62
669.267	23.62
669.39	38.62
669.512	10.62
669.634	15.62
669.756	13.62
669.878	3.62
670	12.62
670.123	6.62
670.245	58.62
670.367	49.62
670.489	23.62
670.611	9.62
670.733	7.62
670.856	-6.38
670.978	13.62
671.1	22.62
671.222	26.62
671.344	6.62
671.466	8.62
671.589	-1.38
671.711	12.62
671.833	7.62
671.955	13.62
672.077	-4.38
672.199	20.62
672.322	40.62
672.444	1.62
672.566	16.62
672.688	7.62
672.81	31.62
672.932	12.62
673.055	12.62
673.177	10.62
673.299	9.62
673.421	-0.38
673.543	10.62
673.665	16.62
673.788	5.62
673.91	11.62
674.032	7.62
674.154	13.62
674.276	19.62
674.399	9.62
674.521	23.62
674.643	30.62
674.765	14.62
674.887	27.62
675.009	8.62
675.132	0.62
675.254	-1.38
675.376	13.62
675.498	-1.38
675.62	23.62
675.743	10.62
675.865	15.62
675.987	6.62
676.109	15.62
676.231	13.62
676.354	32.62
676.476	5.62
676.598	17.62
676.72	6.62
676.842	10.62
676.965	9.62
677.087	19.62
677.209	11.62
677.331	27.62
677.453	25.62
677.576	9.62
677.698	19.62
677.82	1.62
677.942	-15.38
678.064	13.62
678.187	9.62
678.309	10.62
678.431	6.62
678.553	13.62
678.675	22.62
678.798	23.62
678.92	18.62
679.042	11.62
679.164	4.62
679.286	24.62
679.409	14.62
679.531	17.62
679.653	3.62
679.775	10.62
679.898	22.62
680.02	8.62
680.142	-1.38
680.264	11.62
680.386	4.62
680.509	17.62
680.631	25.62
680.753	14.62
680.875	-5.38
680.998	24.62
681.12	18.62
681.242	19.62
681.364	-7.38
681.486	9.62
681.609	-2.38
681.731	-7.38
681.853	18.62
681.975	9.62
682.098	9.62
682.22	29.62
682.342	9.62
682.464	27.62
682.587	18.62
682.709	14.62
682.831	4.62
682.953	9.62
683.076	20.62
683.198	23.62
683.32	13.62
683.442	14.62
683.565	35.62
683.687	13.62
683.809	16.62
683.931	-6.38
684.054	21.62
684.176	13.62
684.298	35.62
684.42	22.62
684.543	17.62
684.665	13.62
684.787	13.62
684.909	5.62
685.032	10.62
685.154	0.62
685.276	35.62
685.398	9.62
685.521	7.62
685.643	7.62
685.765	12.62
685.887	28.62
686.01	-3.38
686.132	10.62
686.254	30.62
686.377	18.62
686.499	19.62
686.621	27.62
686.743	26.62
686.866	15.62
686.988	30.62
687.11	26.62
687.232	15.62
687.355	-5.38
687.477	3.62
687.599	8.62
687.722	-3.38
687.844	7.62
687.966	17.62
688.088	24.62
688.211	27.62
688.333	26.62
688.455	19.62
688.578	21.62
688.7	13.62
688.822	27.62
688.944	5.62
689.067	50.62
689.189	35.62
689.311	-0.38
689.434	2.62
689.556	11.62
689.678	29.62
689.801	-0.38
689.923	34.62
690.045	34.62
690.167	29.62
690.29	23.62
690.412	19.62
690.534	18.62
690.657	19.62
690.779	14.62
690.901	14.62
691.024	9.62
691.146	6.62
691.268	-2.38
691.391	32.62
691.513	32.62
691.635	30.62
691.758	14.62
691.88	19.62
692.002	-2.38
692.125	3.62
692.247	8.62
692.369	11.62
692.492	5.62
692.614	9.62
692.736	13.62
692.859	14.62
692.981	5.62
693.103	17.62
693.226	29.62
693.348	24.62
693.47	28.62
693.593	27.62
693.715	13.62
693.837	27.62
693.96	1.62
694.082	12.62
694.204	27.62
694.327	17.62
694.449	12.62
694.571	18.62
694.694	6.62
694.816	14.62
694.938	-0.38
695.061	4.62
695.183	18.62
695.305	17.62
695.428	6.62
695.55	0.62
695.672	-0.38
695.795	27.62
695.917	27.62
696.04	7.62
696.162	-5.38
696.284	6.62
696.407	14.62
696.529	14.62
696.651	39.62
696.774	6.62
696.896	25.62
697.019	12.62
697.141	3.62
697.263	13.62
697.386	-4.38
697.508	13.62
697.63	9.62
697.753	29.62
697.875	21.62
697.998	2.62
698.12	15.62
698.242	16.62
698.365	1.62
698.487	3.62
698.61	13.62
698.732	24.62
698.854	11.62
698.977	14.62
699.099	24.62
699.221	5.62
699.344	3.62
699.466	9.62
699.589	6.62
699.711	-0.38
699.834	20.62
699.956	26.62
700.078	17.62
700.201	2.62
700.323	19.62
700.446	25.62
700.568	12.62
700.69	23.62
700.813	18.62
700.935	14.62
701.058	19.62
701.18	21.62
701.302	10.62
701.425	8.62
701.547	10.62
701.67	1.62
701.792	19.62
701.915	13.62
702.037	13.62
702.159	7.62
702.282	17.62
702.404	-0.38
702.527	15.62
702.649	22.62
702.772	3.62
702.894	20.62
703.017	17.62
703.139	13.62
703.261	26.62
703.384	32.62
703.506	-2.38
703.629	1.62
703.751	17.62
703.874	10.62
703.996	3.62
704.119	15.62
704.241	11.62
704.364	2.62
704.486	13.62
704.608	8.62
704.731	9.62
704.853	16.62
704.976	-2.38
705.098	9.62
705.221	5.62
705.343	30.62
705.466	24.62
705.588	16.62
705.711	14.62
705.833	27.62
705.956	17.62
706.078	23.62
706.201	17.62
706.323	17.62
706.446	-4.38
