Data from LowRes_mercury_15_20_11_07_2024_HR4C61881__94__15-23-41-670.txt Node

Date: Thu Nov 07 15:23:41 EST 2024
User: crc00042
Spectrometer: HR4C6188
Trigger mode: 4
Integration Time (sec): 1.000000E-1
Scans to average: 1
Electric dark correction enabled: true
Nonlinearity correction enabled: false
Boxcar width: 0
XAxis mode: Wavelengths
Number of Pixels in Spectrum: 3648
>>>>>Begin Spectral Data<<<<<
245.66	-64.69
245.797	-64.69
245.934	-64.69
246.071	-56.69
246.208	18.31
246.344	1.31
246.481	-11.69
246.618	-0.69
246.755	16.31
246.892	2.31
247.029	-6.69
247.165	-19.69
247.302	12.31
247.439	-10.69
247.576	6.31
247.713	-4.69
247.849	26.31
247.986	-10.69
248.123	24.31
248.26	0.31
248.396	10.31
248.533	0.31
248.67	-0.69
248.806	10.31
248.943	-15.69
249.08	-12.69
249.216	-4.69
249.353	-16.69
249.49	-7.69
249.626	-6.69
249.763	13.31
249.9	12.31
250.036	0.31
250.173	13.31
250.309	8.31
250.446	4.31
250.582	13.31
250.719	-0.69
250.856	-10.69
250.992	-11.69
251.129	-13.69
251.265	-9.69
251.402	-2.69
251.538	-1.69
251.675	1.31
251.811	0.31
251.948	14.31
252.084	19.31
252.221	-8.69
252.357	-9.69
252.493	36.31
252.63	-3.69
252.766	13.31
252.903	9.31
253.039	-18.69
253.175	-9.69
253.312	12.31
253.448	-13.69
253.585	-5.69
253.721	16.31
253.857	-8.69
253.994	0.31
254.13	-2.69
254.266	12.31
254.403	12.31
254.539	2.31
254.675	18.31
254.811	16.31
254.948	12.31
255.084	-9.69
255.22	8.31
255.356	7.31
255.493	0.31
255.629	10.31
255.765	-5.69
255.901	9.31
256.037	5.31
256.174	10.31
256.31	-11.69
256.446	8.31
256.582	-0.69
256.718	13.31
256.854	23.31
256.991	5.31
257.127	2.31
257.263	-6.69
257.399	0.31
257.535	-6.69
257.671	2.31
257.807	-5.69
257.943	-5.69
258.079	-14.69
258.215	0.31
258.351	25.31
258.487	0.31
258.623	2.31
258.759	-8.69
258.895	2.31
259.031	0.31
259.167	-22.69
259.303	21.31
259.439	-8.69
259.575	-3.69
259.711	4.31
259.847	5.31
259.983	12.31
260.119	5.31
260.255	2.31
260.391	7.31
260.527	-0.69
260.663	15.31
260.799	20.31
260.934	6.31
261.07	1.31
261.206	-2.69
261.342	-14.69
261.478	9.31
261.614	12.31
261.749	20.31
261.885	-2.69
262.021	3.31
262.157	17.31
262.293	5.31
262.428	-16.69
262.564	-10.69
262.7	6.31
262.836	17.31
262.971	14.31
263.107	10.31
263.243	18.31
263.378	3.31
263.514	-10.69
263.65	13.31
263.785	2.31
263.921	-15.69
264.057	-4.69
264.192	27.31
264.328	36.31
264.464	14.31
264.599	17.31
264.735	28.31
264.871	4.31
265.006	20.31
265.142	12.31
265.277	0.31
265.413	-9.69
265.548	1.31
265.684	12.31
265.819	5.31
265.955	-5.69
266.091	-18.69
266.226	-5.69
266.362	-1.69
266.497	-8.69
266.633	-2.69
266.768	1.31
266.903	10.31
267.039	25.31
267.174	13.31
267.31	-3.69
267.445	-16.69
267.581	9.31
267.716	16.31
267.851	11.31
267.987	17.31
268.122	10.31
268.258	-13.69
268.393	-12.69
268.528	9.31
268.664	-15.69
268.799	-7.69
268.934	12.31
269.07	1.31
269.205	15.31
269.34	16.31
269.476	5.31
269.611	-16.69
269.746	26.31
269.881	4.31
270.017	21.31
270.152	3.31
270.287	0.31
270.422	8.31
270.558	3.31
270.693	16.31
270.828	-3.69
270.963	-7.69
271.098	-2.69
271.234	20.31
271.369	30.31
271.504	10.31
271.639	-3.69
271.774	13.31
271.909	12.31
272.045	1.31
272.18	-3.69
272.315	-2.69
272.45	12.31
272.585	-7.69
272.72	17.31
272.855	13.31
272.99	14.31
273.125	-4.69
273.26	2.31
273.395	-13.69
273.53	7.31
273.665	1.31
273.8	2.31
273.935	-4.69
274.07	13.31
274.205	10.31
274.34	10.31
274.475	-6.69
274.61	33.31
274.745	-4.69
274.88	10.31
275.015	-22.69
275.15	-4.69
275.285	-10.69
275.42	-3.69
275.555	-0.69
275.69	9.31
275.825	-6.69
275.959	19.31
276.094	-6.69
276.229	-4.69
276.364	-13.69
276.499	-7.69
276.634	-6.69
276.768	-8.69
276.903	8.31
277.038	6.31
277.173	7.31
277.308	-1.69
277.442	18.31
277.577	-25.69
277.712	-12.69
277.847	0.31
277.981	8.31
278.116	-17.69
278.251	31.31
278.386	26.31
278.52	3.31
278.655	-0.69
278.79	13.31
278.924	-12.69
279.059	-3.69
279.194	-16.69
279.328	26.31
279.463	10.31
279.598	21.31
279.732	23.31
279.867	-9.69
280.001	20.31
280.136	17.31
280.271	1.31
280.405	20.31
280.54	6.31
280.674	18.31
280.809	31.31
280.943	-12.69
281.078	-16.69
281.213	4.31
281.347	29.31
281.482	17.31
281.616	-14.69
281.751	7.31
281.885	0.31
282.02	8.31
282.154	9.31
282.288	-0.69
282.423	-21.69
282.557	-7.69
282.692	9.31
282.826	19.31
282.961	21.31
283.095	-3.69
283.229	-11.69
283.364	-6.69
283.498	-2.69
283.633	9.31
283.767	-3.69
283.901	2.31
284.036	5.31
284.17	-16.69
284.304	0.31
284.439	-2.69
284.573	-4.69
284.707	9.31
284.842	-2.69
284.976	9.31
285.11	-11.69
285.244	6.31
285.379	43.31
285.513	-1.69
285.647	5.31
285.781	8.31
285.916	22.31
286.05	0.31
286.184	14.31
286.318	28.31
286.453	1.31
286.587	-15.69
286.721	4.31
286.855	6.31
286.989	3.31
287.123	5.31
287.258	-3.69
287.392	11.31
287.526	18.31
287.66	1.31
287.794	1.31
287.928	5.31
288.062	8.31
288.196	-9.69
288.33	-2.69
288.464	18.31
288.598	8.31
288.733	18.31
288.867	9.31
289.001	18.31
289.135	11.31
289.269	6.31
289.403	1.31
289.537	10.31
289.671	12.31
289.805	-4.69
289.939	2.31
290.073	-1.69
290.207	14.31
290.34	9.31
290.474	17.31
290.608	0.31
290.742	3.31
290.876	-0.69
291.01	15.31
291.144	24.31
291.278	25.31
291.412	24.31
291.546	5.31
291.679	11.31
291.813	9.31
291.947	2.31
292.081	10.31
292.215	-3.69
292.349	18.31
292.482	32.31
292.616	2.31
292.75	20.31
292.884	5.31
293.018	2.31
293.151	-15.69
293.285	14.31
293.419	-10.69
293.553	-22.69
293.686	-5.69
293.82	15.31
293.954	23.31
294.088	22.31
294.221	9.31
294.355	-2.69
294.489	15.31
294.622	-14.69
294.756	-4.69
294.89	6.31
295.023	8.31
295.157	12.31
295.291	25.31
295.424	17.31
295.558	9.31
295.691	2.31
295.825	7.31
295.959	9.31
296.092	-17.69
296.226	13.31
296.359	-0.69
296.493	-2.69
296.627	-1.69
296.76	10.31
296.894	0.31
297.027	-6.69
297.161	6.31
297.294	-10.69
297.428	7.31
297.561	17.31
297.695	14.31
297.828	5.31
297.962	-8.69
298.095	0.31
298.229	-4.69
298.362	-5.69
298.495	11.31
298.629	6.31
298.762	7.31
298.896	0.31
299.029	1.31
299.162	0.31
299.296	12.31
299.429	-5.69
299.563	-1.69
299.696	18.31
299.829	20.31
299.963	10.31
300.096	12.31
300.229	5.31
300.363	21.31
300.496	23.31
300.629	-21.69
300.763	-14.69
300.896	-17.69
301.029	-7.69
301.162	-10.69
301.296	-16.69
301.429	6.31
301.562	-13.69
301.695	24.31
301.829	21.31
301.962	31.31
302.095	21.31
302.228	3.31
302.362	2.31
302.495	-9.69
302.628	5.31
302.761	11.31
302.894	12.31
303.027	16.31
303.161	-7.69
303.294	1.31
303.427	21.31
303.56	-17.69
303.693	-6.69
303.826	-1.69
303.959	-0.69
304.092	16.31
304.225	-11.69
304.359	1.31
304.492	2.31
304.625	8.31
304.758	2.31
304.891	-0.69
305.024	12.31
305.157	1.31
305.29	5.31
305.423	14.31
305.556	-7.69
305.689	13.31
305.822	2.31
305.955	5.31
306.088	-8.69
306.221	-10.69
306.354	-13.69
306.487	-3.69
306.62	-10.69
306.752	-13.69
306.885	3.31
307.018	28.31
307.151	1.31
307.284	12.31
307.417	-16.69
307.55	26.31
307.683	6.31
307.816	24.31
307.948	15.31
308.081	-5.69
308.214	24.31
308.347	6.31
308.48	-7.69
308.613	-22.69
308.745	2.31
308.878	1.31
309.011	-4.69
309.144	0.31
309.277	5.31
309.409	8.31
309.542	7.31
309.675	15.31
309.808	4.31
309.94	17.31
310.073	2.31
310.206	4.31
310.339	1.31
310.471	-19.69
310.604	17.31
310.737	-4.69
310.869	-2.69
311.002	-3.69
311.135	-4.69
311.267	-38.69
311.4	-9.69
311.533	23.31
311.665	8.31
311.798	4.31
311.93	9.31
312.063	30.31
312.196	18.31
312.328	66.31
312.461	61.31
312.593	16.31
312.726	37.31
312.859	96.31
312.991	163.31
313.124	58.31
313.256	16.31
313.389	17.31
313.521	-10.69
313.654	8.31
313.786	-10.69
313.919	-9.69
314.051	-3.69
314.184	12.31
314.316	10.31
314.449	-21.69
314.581	-6.69
314.714	15.31
314.846	16.31
314.978	-6.69
315.111	-7.69
315.243	-6.69
315.376	4.31
315.508	11.31
315.641	9.31
315.773	26.31
315.905	16.31
316.038	17.31
316.17	-8.69
316.302	14.31
316.435	6.31
316.567	2.31
316.699	14.31
316.832	2.31
316.964	11.31
317.096	-1.69
317.229	-1.69
317.361	-9.69
317.493	3.31
317.625	0.31
317.758	15.31
317.89	25.31
318.022	2.31
318.155	0.31
318.287	11.31
318.419	10.31
318.551	-1.69
318.683	-1.69
318.816	-12.69
318.948	-0.69
319.08	-1.69
319.212	3.31
319.344	14.31
319.477	11.31
319.609	11.31
319.741	17.31
319.873	3.31
320.005	-3.69
320.137	10.31
320.269	8.31
320.401	7.31
320.534	-3.69
320.666	0.31
320.798	-7.69
320.93	-8.69
321.062	-10.69
321.194	-9.69
321.326	12.31
321.458	11.31
321.59	3.31
321.722	5.31
321.854	0.31
321.986	-1.69
322.118	8.31
322.25	-26.69
322.382	7.31
322.514	0.31
322.646	15.31
322.778	27.31
322.91	-13.69
323.042	3.31
323.174	-17.69
323.306	-16.69
323.438	-25.69
323.57	0.31
323.702	2.31
323.834	7.31
323.966	-13.69
324.097	-9.69
324.229	2.31
324.361	5.31
324.493	7.31
324.625	-7.69
324.757	14.31
324.889	5.31
325.021	7.31
325.152	7.31
325.284	14.31
325.416	-1.69
325.548	7.31
325.68	-13.69
325.811	27.31
325.943	12.31
326.075	-3.69
326.207	24.31
326.339	23.31
326.47	15.31
326.602	19.31
326.734	16.31
326.866	30.31
326.997	-11.69
327.129	-3.69
327.261	-20.69
327.392	2.31
327.524	10.31
327.656	6.31
327.787	-6.69
327.919	18.31
328.051	4.31
328.182	15.31
328.314	27.31
328.446	-5.69
328.577	15.31
328.709	0.31
328.841	-6.69
328.972	-3.69
329.104	15.31
329.235	-5.69
329.367	11.31
329.499	-0.69
329.63	21.31
329.762	-13.69
329.893	15.31
330.025	9.31
330.156	-16.69
330.288	-8.69
330.419	11.31
330.551	12.31
330.683	23.31
330.814	-4.69
330.946	23.31
331.077	2.31
331.208	4.31
331.34	1.31
331.471	-9.69
331.603	-9.69
331.734	-17.69
331.866	-0.69
331.997	10.31
332.129	22.31
332.26	2.31
332.392	24.31
332.523	3.31
332.654	-2.69
332.786	6.31
332.917	-5.69
333.048	19.31
333.18	9.31
333.311	-2.69
333.443	5.31
333.574	19.31
333.705	29.31
333.837	48.31
333.968	118.31
334.099	230.31
334.231	223.31
334.362	46.31
334.493	36.31
334.624	27.31
334.756	16.31
334.887	20.31
335.018	23.31
335.15	15.31
335.281	16.31
335.412	14.31
335.543	5.31
335.675	24.31
335.806	-0.69
335.937	21.31
336.068	13.31
336.199	27.31
336.331	15.31
336.462	2.31
336.593	16.31
336.724	-9.69
336.855	17.31
336.986	30.31
337.118	2.31
337.249	10.31
337.38	-2.69
337.511	12.31
337.642	8.31
337.773	9.31
337.904	13.31
338.035	23.31
338.166	7.31
338.298	-1.69
338.429	0.31
338.56	29.31
338.691	18.31
338.822	7.31
338.953	15.31
339.084	36.31
339.215	25.31
339.346	18.31
339.477	11.31
339.608	-6.69
339.739	16.31
339.87	13.31
340.001	13.31
340.132	8.31
340.263	13.31
340.394	8.31
340.525	35.31
340.656	9.31
340.787	5.31
340.918	21.31
341.049	-1.69
341.179	9.31
341.31	16.31
341.441	18.31
341.572	18.31
341.703	15.31
341.834	2.31
341.965	18.31
342.096	22.31
342.227	16.31
342.357	11.31
342.488	7.31
342.619	11.31
342.75	17.31
342.881	6.31
343.012	32.31
343.142	37.31
343.273	-3.69
343.404	10.31
343.535	35.31
343.666	22.31
343.796	28.31
343.927	26.31
344.058	31.31
344.189	24.31
344.319	17.31
344.45	14.31
344.581	36.31
344.712	-5.69
344.842	5.31
344.973	-2.69
345.104	31.31
345.234	23.31
345.365	42.31
345.496	35.31
345.626	21.31
345.757	41.31
345.888	11.31
346.018	20.31
346.149	28.31
346.28	46.31
346.41	21.31
346.541	25.31
346.672	25.31
346.802	36.31
346.933	30.31
347.063	18.31
347.194	22.31
347.325	39.31
347.455	36.31
347.586	29.31
347.716	20.31
347.847	46.31
347.977	35.31
348.108	57.31
348.238	39.31
348.369	46.31
348.499	52.31
348.63	40.31
348.76	34.31
348.891	47.31
349.021	54.31
349.152	45.31
349.282	66.31
349.413	53.31
349.543	42.31
349.674	30.31
349.804	28.31
349.935	37.31
350.065	21.31
350.196	14.31
350.326	17.31
350.456	21.31
350.587	34.31
350.717	22.31
350.848	30.31
350.978	30.31
351.108	20.31
351.239	48.31
351.369	25.31
351.499	10.31
351.63	26.31
351.76	15.31
351.89	27.31
352.021	30.31
352.151	7.31
352.281	16.31
352.412	26.31
352.542	15.31
352.672	20.31
352.803	15.31
352.933	34.31
353.063	18.31
353.193	15.31
353.324	28.31
353.454	52.31
353.584	31.31
353.714	20.31
353.845	29.31
353.975	17.31
354.105	0.31
354.235	18.31
354.365	13.31
354.496	20.31
354.626	31.31
354.756	27.31
354.886	21.31
355.016	40.31
355.146	14.31
355.277	17.31
355.407	23.31
355.537	27.31
355.667	21.31
355.797	25.31
355.927	12.31
356.057	39.31
356.187	29.31
356.318	24.31
356.448	7.31
356.578	44.31
356.708	41.31
356.838	20.31
356.968	23.31
357.098	30.31
357.228	37.31
357.358	20.31
357.488	18.31
357.618	42.31
357.748	51.31
357.878	21.31
358.008	9.31
358.138	9.31
358.268	15.31
358.398	32.31
358.528	6.31
358.658	51.31
358.788	55.31
358.918	32.31
359.048	28.31
359.178	37.31
359.308	26.31
359.438	41.31
359.568	31.31
359.698	30.31
359.827	20.31
359.957	13.31
360.087	20.31
360.217	21.31
360.347	31.31
360.477	39.31
360.607	27.31
360.737	49.31
360.866	34.31
360.996	20.31
361.126	16.31
361.256	42.31
361.386	36.31
361.516	38.31
361.645	21.31
361.775	26.31
361.905	21.31
362.035	25.31
362.165	28.31
362.294	49.31
362.424	49.31
362.554	34.31
362.684	26.31
362.813	49.31
362.943	50.31
363.073	49.31
363.203	67.31
363.332	64.31
363.462	78.31
363.592	95.31
363.721	127.31
363.851	145.31
363.981	191.31
364.111	260.31
364.24	319.31
364.37	491.31
364.5	854.31
364.629	1796.31
364.759	3827.31
364.888	6249.31
365.018	9343.31
365.148	14758.31
365.277	12924.31
365.407	4740.31
365.537	3046.31
365.666	3969.31
365.796	1792.31
365.925	790.31
366.055	750.31
366.184	1016.31
366.314	1375.31
366.444	2476.31
366.573	2110.31
366.703	669.31
366.832	222.31
366.962	127.31
367.091	90.31
367.221	79.31
367.35	50.31
367.48	91.31
367.609	39.31
367.739	37.31
367.868	37.31
367.998	41.31
368.127	80.31
368.257	48.31
368.386	43.31
368.516	50.31
368.645	27.31
368.775	41.31
368.904	38.31
369.033	5.31
369.163	24.31
369.292	23.31
369.422	19.31
369.551	45.31
369.68	42.31
369.81	35.31
369.939	35.31
370.069	39.31
370.198	51.31
370.327	22.31
370.457	25.31
370.586	30.31
370.715	35.31
370.845	26.31
370.974	33.31
371.103	58.31
371.233	65.31
371.362	49.31
371.491	45.31
371.621	46.31
371.75	40.31
371.879	34.31
372.008	42.31
372.138	45.31
372.267	50.31
372.396	30.31
372.525	34.31
372.655	31.31
372.784	30.31
372.913	25.31
373.042	27.31
373.172	54.31
373.301	7.31
373.43	-8.69
373.559	30.31
373.688	38.31
373.818	33.31
373.947	29.31
374.076	31.31
374.205	46.31
374.334	28.31
374.463	21.31
374.593	23.31
374.722	21.31
374.851	30.31
374.98	20.31
375.109	25.31
375.238	30.31
375.367	33.31
375.496	-3.69
375.625	-10.69
375.755	25.31
375.884	37.31
376.013	41.31
376.142	9.31
376.271	18.31
376.4	15.31
376.529	20.31
376.658	17.31
376.787	31.31
376.916	25.31
377.045	30.31
377.174	23.31
377.303	16.31
377.432	41.31
377.561	24.31
377.69	23.31
377.819	29.31
377.948	22.31
378.077	2.31
378.206	13.31
378.335	14.31
378.464	6.31
378.593	26.31
378.722	4.31
378.851	10.31
378.98	25.31
379.108	19.31
379.237	8.31
379.366	9.31
379.495	37.31
379.624	17.31
379.753	6.31
379.882	14.31
380.011	16.31
380.14	16.31
380.268	7.31
380.397	14.31
380.526	42.31
380.655	23.31
380.784	-11.69
380.913	2.31
381.041	9.31
381.17	-12.69
381.299	6.31
381.428	26.31
381.557	31.31
381.685	3.31
381.814	14.31
381.943	28.31
382.072	31.31
382.2	-1.69
382.329	0.31
382.458	-1.69
382.587	6.31
382.715	37.31
382.844	33.31
382.973	20.31
383.102	30.31
383.23	11.31
383.359	1.31
383.488	19.31
383.616	15.31
383.745	17.31
383.874	13.31
384.003	7.31
384.131	9.31
384.26	10.31
384.389	33.31
384.517	29.31
384.646	29.31
384.774	25.31
384.903	37.31
385.032	25.31
385.16	24.31
385.289	5.31
385.418	9.31
385.546	12.31
385.675	29.31
385.803	21.31
385.932	17.31
386.06	7.31
386.189	23.31
386.318	26.31
386.446	28.31
386.575	40.31
386.703	34.31
386.832	24.31
386.96	22.31
387.089	38.31
387.217	16.31
387.346	18.31
387.474	28.31
387.603	21.31
387.731	27.31
387.86	47.31
387.988	33.31
388.117	33.31
388.245	23.31
388.374	10.31
388.502	42.31
388.631	7.31
388.759	12.31
388.888	29.31
389.016	15.31
389.144	19.31
389.273	22.31
389.401	27.31
389.53	11.31
389.658	39.31
389.786	15.31
389.915	-1.69
390.043	4.31
390.172	37.31
390.3	71.31
390.428	41.31
390.557	45.31
390.685	38.31
390.813	55.31
390.942	46.31
391.07	33.31
391.198	21.31
391.327	17.31
391.455	11.31
391.583	35.31
391.712	32.31
391.84	27.31
391.968	29.31
392.096	27.31
392.225	23.31
392.353	23.31
392.481	10.31
392.609	34.31
392.738	32.31
392.866	41.31
392.994	11.31
393.122	37.31
393.251	21.31
393.379	16.31
393.507	17.31
393.635	33.31
393.764	21.31
393.892	25.31
394.02	16.31
394.148	26.31
394.276	35.31
394.404	47.31
394.533	25.31
394.661	37.31
394.789	39.31
394.917	40.31
395.045	28.31
395.173	7.31
395.302	22.31
395.43	26.31
395.558	31.31
395.686	38.31
395.814	31.31
395.942	41.31
396.07	33.31
396.198	38.31
396.326	38.31
396.454	34.31
396.582	14.31
396.711	14.31
396.839	30.31
396.967	44.31
397.095	37.31
397.223	38.31
397.351	47.31
397.479	49.31
397.607	36.31
397.735	45.31
397.863	40.31
397.991	45.31
398.119	29.31
398.247	58.31
398.375	30.31
398.503	39.31
398.631	61.31
398.759	68.31
398.887	52.31
399.015	35.31
399.143	54.31
399.271	63.31
399.399	62.31
399.526	67.31
399.654	86.31
399.782	63.31
399.91	96.31
400.038	95.31
400.166	79.31
400.294	85.31
400.422	81.31
400.55	107.31
400.678	107.31
400.805	106.31
400.933	122.31
401.061	111.31
401.189	99.31
401.317	148.31
401.445	105.31
401.573	82.31
401.7	75.31
401.828	60.31
401.956	45.31
402.084	46.31
402.212	44.31
402.34	28.31
402.467	42.31
402.595	44.31
402.723	48.31
402.851	57.31
402.978	47.31
403.106	69.31
403.234	94.31
403.362	113.31
403.489	118.31
403.617	143.31
403.745	193.31
403.873	301.31
404	585.31
404.128	1438.31
404.256	3805.31
404.384	5038.31
404.511	5415.31
404.639	7196.31
404.767	11471.31
404.894	14603.31
405.022	4898.31
405.15	1311.31
405.277	426.31
405.405	241.31
405.533	144.31
405.66	116.31
405.788	65.31
405.916	72.31
406.043	55.31
406.171	56.31
406.299	73.31
406.426	61.31
406.554	55.31
406.681	72.31
406.809	45.31
406.937	58.31
407.064	65.31
407.192	128.31
407.319	299.31
407.447	521.31
407.574	527.31
407.702	630.31
407.83	843.31
407.957	1591.31
408.085	916.31
408.212	293.31
408.34	99.31
408.467	61.31
408.595	32.31
408.722	65.31
408.85	49.31
408.977	35.31
409.105	42.31
409.232	32.31
409.36	38.31
409.487	23.31
409.615	29.31
409.742	37.31
409.87	26.31
409.997	45.31
410.125	30.31
410.252	49.31
410.379	38.31
410.507	52.31
410.634	21.31
410.762	30.31
410.889	34.31
411.017	16.31
411.144	24.31
411.271	27.31
411.399	28.31
411.526	31.31
411.653	38.31
411.781	63.31
411.908	27.31
412.036	30.31
412.163	43.31
412.29	49.31
412.418	9.31
412.545	27.31
412.672	22.31
412.8	34.31
412.927	28.31
413.054	25.31
413.182	24.31
413.309	13.31
413.436	13.31
413.564	21.31
413.691	32.31
413.818	49.31
413.945	22.31
414.073	17.31
414.2	22.31
414.327	30.31
414.454	37.31
414.582	41.31
414.709	25.31
414.836	8.31
414.963	28.31
415.091	30.31
415.218	25.31
415.345	31.31
415.472	37.31
415.6	24.31
415.727	21.31
415.854	11.31
415.981	17.31
416.108	19.31
416.236	31.31
416.363	36.31
416.49	23.31
416.617	33.31
416.744	28.31
416.871	39.31
416.998	22.31
417.126	24.31
417.253	25.31
417.38	34.31
417.507	28.31
417.634	36.31
417.761	31.31
417.888	29.31
418.015	15.31
418.143	32.31
418.27	58.31
418.397	28.31
418.524	34.31
418.651	27.31
418.778	43.31
418.905	68.31
419.032	53.31
419.159	37.31
419.286	58.31
419.413	62.31
419.54	60.31
419.667	50.31
419.794	38.31
419.921	43.31
420.048	37.31
420.175	35.31
420.302	48.31
420.429	55.31
420.556	40.31
420.683	48.31
420.81	45.31
420.937	69.31
421.064	75.31
421.191	68.31
421.318	81.31
421.445	90.31
421.572	53.31
421.699	57.31
421.826	48.31
421.953	46.31
422.08	34.31
422.207	20.31
422.334	3.31
422.461	17.31
422.588	3.31
422.714	26.31
422.841	42.31
422.968	51.31
423.095	22.31
423.222	9.31
423.349	12.31
423.476	18.31
423.603	16.31
423.729	23.31
423.856	28.31
423.983	32.31
424.11	6.31
424.237	21.31
424.364	24.31
424.491	28.31
424.617	25.31
424.744	16.31
424.871	26.31
424.998	20.31
425.125	18.31
425.251	26.31
425.378	31.31
425.505	27.31
425.632	21.31
425.758	16.31
425.885	30.31
426.012	35.31
426.139	30.31
426.266	16.31
426.392	25.31
426.519	26.31
426.646	8.31
426.772	30.31
426.899	13.31
427.026	25.31
427.153	39.31
427.279	72.31
427.406	49.31
427.533	14.31
427.659	14.31
427.786	14.31
427.913	36.31
428.039	18.31
428.166	23.31
428.293	38.31
428.419	37.31
428.546	20.31
428.673	20.31
428.799	13.31
428.926	41.31
429.053	57.31
429.179	38.31
429.306	30.31
429.433	23.31
429.559	30.31
429.686	21.31
429.812	30.31
429.939	16.31
430.066	19.31
430.192	38.31
430.319	34.31
430.445	33.31
430.572	46.31
430.699	23.31
430.825	23.31
430.952	33.31
431.078	37.31
431.205	23.31
431.331	22.31
431.458	43.31
431.584	36.31
431.711	14.31
431.837	18.31
431.964	39.31
432.09	37.31
432.217	25.31
432.343	16.31
432.47	27.31
432.596	20.31
432.723	4.31
432.849	25.31
432.976	35.31
433.102	46.31
433.229	10.31
433.355	74.31
433.482	95.31
433.608	87.31
433.735	105.31
433.861	96.31
433.987	140.31
434.114	181.31
434.24	179.31
434.367	207.31
434.493	220.31
434.62	303.31
434.746	381.31
434.872	617.31
434.999	811.31
435.125	1725.31
435.252	5417.31
435.378	13374.31
435.504	15191.31
435.631	15414.31
435.757	15683.31
435.883	15683.31
436.01	15683.31
436.136	15683.31
436.262	15683.31
436.389	3448.31
436.515	1972.31
436.641	768.31
436.768	610.31
436.894	369.31
437.02	396.31
437.147	312.31
437.273	300.31
437.399	206.31
437.526	256.31
437.652	165.31
437.778	220.31
437.904	137.31
438.031	164.31
438.157	120.31
438.283	142.31
438.409	111.31
438.536	137.31
438.662	126.31
438.788	125.31
438.914	110.31
439.041	109.31
439.167	124.31
439.293	101.31
439.419	76.31
439.546	75.31
439.672	72.31
439.798	79.31
439.924	74.31
440.05	89.31
440.177	69.31
440.303	42.31
440.429	61.31
440.555	76.31
440.681	66.31
440.807	73.31
440.934	57.31
441.06	52.31
441.186	48.31
441.312	61.31
441.438	36.31
441.564	59.31
441.69	54.31
441.816	66.31
441.943	59.31
442.069	63.31
442.195	50.31
442.321	54.31
442.447	45.31
442.573	69.31
442.699	45.31
442.825	47.31
442.951	49.31
443.077	60.31
443.203	61.31
443.33	54.31
443.456	29.31
443.582	38.31
443.708	38.31
443.834	47.31
443.96	39.31
444.086	54.31
444.212	58.31
444.338	58.31
444.464	45.31
444.59	46.31
444.716	37.31
444.842	21.31
444.968	28.31
445.094	34.31
445.22	18.31
445.346	15.31
445.472	21.31
445.598	37.31
445.724	34.31
445.85	45.31
445.976	46.31
446.102	41.31
446.228	34.31
446.354	43.31
446.48	28.31
446.605	37.31
446.731	29.31
446.857	24.31
446.983	34.31
447.109	33.31
447.235	44.31
447.361	34.31
447.487	52.31
447.613	38.31
447.739	34.31
447.865	18.31
447.99	21.31
448.116	34.31
448.242	25.31
448.368	8.31
448.494	23.31
448.62	37.31
448.746	41.31
448.872	28.31
448.997	21.31
449.123	31.31
449.249	43.31
449.375	44.31
449.501	25.31
449.627	25.31
449.752	61.31
449.878	11.31
450.004	20.31
450.13	32.31
450.256	22.31
450.381	31.31
450.507	25.31
450.633	18.31
450.759	27.31
450.884	32.31
451.01	37.31
451.136	33.31
451.262	16.31
451.388	37.31
451.513	24.31
451.639	14.31
451.765	23.31
451.89	38.31
452.016	34.31
452.142	25.31
452.268	33.31
452.393	41.31
452.519	5.31
452.645	35.31
452.771	15.31
452.896	16.31
453.022	14.31
453.148	60.31
453.273	30.31
453.399	34.31
453.525	10.31
453.65	17.31
453.776	41.31
453.902	39.31
454.027	34.31
454.153	41.31
454.279	37.31
454.404	30.31
454.53	58.31
454.656	58.31
454.781	26.31
454.907	20.31
455.032	26.31
455.158	23.31
455.284	32.31
455.409	24.31
455.535	34.31
455.66	32.31
455.786	37.31
455.912	27.31
456.037	5.31
456.163	41.31
456.288	33.31
456.414	9.31
456.539	16.31
456.665	35.31
456.791	16.31
456.916	27.31
457.042	19.31
457.167	26.31
457.293	22.31
457.418	23.31
457.544	3.31
457.669	23.31
457.795	32.31
457.92	17.31
458.046	42.31
458.171	42.31
458.297	15.31
458.422	13.31
458.548	10.31
458.673	12.31
458.799	24.31
458.924	24.31
459.05	25.31
459.175	43.31
459.301	17.31
459.426	41.31
459.552	22.31
459.677	16.31
459.803	43.31
459.928	22.31
460.053	20.31
460.179	25.31
460.304	33.31
460.43	14.31
460.555	6.31
460.681	22.31
460.806	-0.69
460.931	22.31
461.057	32.31
461.182	24.31
461.308	26.31
461.433	26.31
461.558	18.31
461.684	61.31
461.809	40.31
461.934	24.31
462.06	31.31
462.185	1.31
462.311	18.31
462.436	38.31
462.561	25.31
462.687	21.31
462.812	21.31
462.937	26.31
463.063	13.31
463.188	10.31
463.313	32.31
463.439	16.31
463.564	30.31
463.689	18.31
463.814	34.31
463.94	18.31
464.065	30.31
464.19	44.31
464.316	-1.69
464.441	10.31
464.566	17.31
464.692	12.31
464.817	25.31
464.942	18.31
465.067	30.31
465.193	12.31
465.318	12.31
465.443	22.31
465.568	29.31
465.694	27.31
465.819	52.31
465.944	35.31
466.069	42.31
466.194	23.31
466.32	40.31
466.445	29.31
466.57	27.31
466.695	32.31
466.82	41.31
466.946	31.31
467.071	22.31
467.196	44.31
467.321	29.31
467.446	30.31
467.572	21.31
467.697	18.31
467.822	31.31
467.947	48.31
468.072	24.31
468.197	23.31
468.323	21.31
468.448	26.31
468.573	30.31
468.698	17.31
468.823	40.31
468.948	39.31
469.073	36.31
469.198	48.31
469.324	48.31
469.449	43.31
469.574	58.31
469.699	41.31
469.824	38.31
469.949	37.31
470.074	36.31
470.199	45.31
470.324	31.31
470.449	49.31
470.574	32.31
470.7	22.31
470.825	53.31
470.95	60.31
471.075	13.31
471.2	37.31
471.325	48.31
471.45	47.31
471.575	33.31
471.7	40.31
471.825	18.31
471.95	42.31
472.075	37.31
472.2	39.31
472.325	38.31
472.45	24.31
472.575	15.31
472.7	30.31
472.825	28.31
472.95	50.31
473.075	46.31
473.2	26.31
473.325	49.31
473.45	44.31
473.575	42.31
473.7	46.31
473.825	18.31
473.95	16.31
474.075	35.31
474.2	9.31
474.325	25.31
474.45	41.31
474.574	9.31
474.699	34.31
474.824	18.31
474.949	0.31
475.074	14.31
475.199	37.31
475.324	24.31
475.449	17.31
475.574	17.31
475.699	18.31
475.824	4.31
475.949	14.31
476.073	13.31
476.198	10.31
476.323	30.31
476.448	28.31
476.573	18.31
476.698	38.31
476.823	32.31
476.947	20.31
477.072	12.31
477.197	29.31
477.322	16.31
477.447	10.31
477.572	23.31
477.697	22.31
477.821	26.31
477.946	16.31
478.071	22.31
478.196	37.31
478.321	43.31
478.445	24.31
478.57	12.31
478.695	29.31
478.82	28.31
478.945	22.31
479.069	6.31
479.194	7.31
479.319	11.31
479.444	15.31
479.569	18.31
479.693	26.31
479.818	24.31
479.943	24.31
480.068	24.31
480.192	21.31
480.317	31.31
480.442	25.31
480.567	13.31
480.691	30.31
480.816	24.31
480.941	4.31
481.066	32.31
481.19	30.31
481.315	21.31
481.44	11.31
481.564	-1.69
481.689	36.31
481.814	16.31
481.938	32.31
482.063	12.31
482.188	18.31
482.313	31.31
482.437	20.31
482.562	19.31
482.687	26.31
482.811	14.31
482.936	22.31
483.061	30.31
483.185	3.31
483.31	12.31
483.435	14.31
483.559	16.31
483.684	8.31
483.808	31.31
483.933	39.31
484.058	18.31
484.182	9.31
484.307	-3.69
484.432	6.31
484.556	14.31
484.681	29.31
484.805	21.31
484.93	18.31
485.055	26.31
485.179	35.31
485.304	25.31
485.428	22.31
485.553	21.31
485.678	39.31
485.802	17.31
485.927	41.31
486.051	30.31
486.176	23.31
486.3	9.31
486.425	20.31
486.549	41.31
486.674	26.31
486.799	11.31
486.923	16.31
487.048	22.31
487.172	17.31
487.297	29.31
487.421	13.31
487.546	20.31
487.67	28.31
487.795	7.31
487.919	29.31
488.044	37.31
488.168	25.31
488.293	24.31
488.417	15.31
488.542	25.31
488.666	10.31
488.791	34.31
488.915	24.31
489.04	15.31
489.164	27.31
489.289	35.31
489.413	4.31
489.538	29.31
489.662	35.31
489.786	24.31
489.911	18.31
490.035	34.31
490.16	-0.69
490.284	7.31
490.409	-14.69
490.533	12.31
490.658	36.31
490.782	33.31
490.906	61.31
491.031	113.31
491.155	135.31
491.28	130.31
491.404	148.31
491.528	261.31
491.653	177.31
491.777	70.31
491.902	25.31
492.026	31.31
492.15	39.31
492.275	44.31
492.399	32.31
492.524	13.31
492.648	49.31
492.772	31.31
492.897	40.31
493.021	10.31
493.145	31.31
493.27	20.31
493.394	28.31
493.518	-2.69
493.643	5.31
493.767	29.31
493.891	20.31
494.016	19.31
494.14	24.31
494.264	29.31
494.389	42.31
494.513	4.31
494.637	4.31
494.762	31.31
494.886	29.31
495.01	30.31
495.134	33.31
495.259	25.31
495.383	29.31
495.507	13.31
495.632	31.31
495.756	44.31
495.88	21.31
496.004	22.31
496.129	4.31
496.253	22.31
496.377	26.31
496.501	25.31
496.626	22.31
496.75	16.31
496.874	13.31
496.998	8.31
497.123	20.31
497.247	18.31
497.371	17.31
497.495	35.31
497.62	15.31
497.744	18.31
497.868	14.31
497.992	12.31
498.116	9.31
498.241	14.31
498.365	6.31
498.489	37.31
498.613	30.31
498.737	13.31
498.862	14.31
498.986	11.31
499.11	12.31
499.234	18.31
499.358	6.31
499.482	24.31
499.607	16.31
499.731	40.31
499.855	25.31
499.979	19.31
500.103	17.31
500.227	21.31
500.351	24.31
500.476	18.31
500.6	20.31
500.724	22.31
500.848	30.31
500.972	39.31
501.096	21.31
501.22	37.31
501.344	21.31
501.469	4.31
501.593	15.31
501.717	14.31
501.841	23.31
501.965	21.31
502.089	14.31
502.213	36.31
502.337	31.31
502.461	24.31
502.585	10.31
502.709	26.31
502.834	8.31
502.958	11.31
503.082	20.31
503.206	37.31
503.33	41.31
503.454	2.31
503.578	19.31
503.702	33.31
503.826	9.31
503.95	34.31
504.074	28.31
504.198	27.31
504.322	13.31
504.446	21.31
504.57	14.31
504.694	20.31
504.818	11.31
504.942	44.31
505.066	18.31
505.19	4.31
505.314	33.31
505.438	20.31
505.562	24.31
505.686	36.31
505.81	7.31
505.934	27.31
506.058	24.31
506.182	35.31
506.306	19.31
506.43	30.31
506.554	23.31
506.678	21.31
506.802	39.31
506.926	22.31
507.05	17.31
507.174	34.31
507.298	40.31
507.422	25.31
507.546	16.31
507.67	42.31
507.794	22.31
507.918	15.31
508.042	35.31
508.165	20.31
508.289	8.31
508.413	22.31
508.537	15.31
508.661	30.31
508.785	12.31
508.909	37.31
509.033	27.31
509.157	29.31
509.281	33.31
509.405	46.31
509.528	42.31
509.652	34.31
509.776	33.31
509.9	40.31
510.024	25.31
510.148	28.31
510.272	30.31
510.396	27.31
510.519	34.31
510.643	49.31
510.767	45.31
510.891	47.31
511.015	48.31
511.139	41.31
511.263	65.31
511.386	41.31
511.51	42.31
511.634	45.31
511.758	44.31
511.882	27.31
512.006	36.31
512.129	59.31
512.253	84.31
512.377	92.31
512.501	97.31
512.625	96.31
512.748	89.31
512.872	72.31
512.996	49.31
513.12	68.31
513.244	78.31
513.367	78.31
513.491	72.31
513.615	76.31
513.739	72.31
513.862	84.31
513.986	70.31
514.11	98.31
514.234	87.31
514.358	102.31
514.481	107.31
514.605	108.31
514.729	122.31
514.853	126.31
514.976	98.31
515.1	111.31
515.224	110.31
515.348	81.31
515.471	79.31
515.595	89.31
515.719	128.31
515.842	216.31
515.966	298.31
516.09	304.31
516.214	302.31
516.337	341.31
516.461	240.31
516.585	104.31
516.708	29.31
516.832	30.31
516.956	27.31
517.08	26.31
517.203	15.31
517.327	42.31
517.451	46.31
517.574	48.31
517.698	5.31
517.822	11.31
517.945	9.31
518.069	22.31
518.193	40.31
518.316	6.31
518.44	-5.69
518.564	-6.69
518.687	16.31
518.811	31.31
518.935	51.31
519.058	21.31
519.182	19.31
519.306	31.31
519.429	22.31
519.553	50.31
519.676	32.31
519.8	29.31
519.924	21.31
520.047	19.31
520.171	-3.69
520.294	14.31
520.418	33.31
520.542	16.31
520.665	32.31
520.789	25.31
520.913	-1.69
521.036	-7.69
521.16	-2.69
521.283	15.31
521.407	25.31
521.53	4.31
521.654	-0.69
521.778	42.31
521.901	18.31
522.025	22.31
522.148	9.31
522.272	27.31
522.395	25.31
522.519	21.31
522.643	11.31
522.766	11.31
522.89	28.31
523.013	27.31
523.137	-2.69
523.26	7.31
523.384	23.31
523.507	18.31
523.631	3.31
523.754	7.31
523.878	28.31
524.002	6.31
524.125	22.31
524.249	11.31
524.372	28.31
524.496	14.31
524.619	15.31
524.743	9.31
524.866	-0.69
524.99	5.31
525.113	6.31
525.237	32.31
525.36	17.31
525.484	26.31
525.607	5.31
525.731	9.31
525.854	21.31
525.978	40.31
526.101	10.31
526.224	0.31
526.348	41.31
526.471	23.31
526.595	17.31
526.718	10.31
526.842	6.31
526.965	30.31
527.089	20.31
527.212	9.31
527.336	17.31
527.459	31.31
527.582	21.31
527.706	29.31
527.829	29.31
527.953	31.31
528.076	8.31
528.2	10.31
528.323	20.31
528.446	40.31
528.57	19.31
528.693	41.31
528.817	10.31
528.94	14.31
529.064	49.31
529.187	15.31
529.31	12.31
529.434	26.31
529.557	21.31
529.68	6.31
529.804	5.31
529.927	20.31
530.051	20.31
530.174	0.31
530.297	16.31
530.421	22.31
530.544	20.31
530.668	31.31
530.791	14.31
530.914	23.31
531.038	12.31
531.161	16.31
531.284	31.31
531.408	32.31
531.531	14.31
531.654	3.31
531.778	14.31
531.901	19.31
532.024	36.31
532.148	34.31
532.271	20.31
532.394	17.31
532.518	15.31
532.641	19.31
532.764	14.31
532.888	27.31
533.011	-1.69
533.134	25.31
533.258	19.31
533.381	-0.69
533.504	4.31
533.628	13.31
533.751	22.31
533.874	37.31
533.997	27.31
534.121	9.31
534.244	12.31
534.367	4.31
534.491	14.31
534.614	15.31
534.737	16.31
534.86	17.31
534.984	17.31
535.107	18.31
535.23	5.31
535.354	17.31
535.477	4.31
535.6	13.31
535.723	22.31
535.847	31.31
535.97	19.31
536.093	14.31
536.216	20.31
536.34	17.31
536.463	9.31
536.586	51.31
536.709	22.31
536.833	28.31
536.956	27.31
537.079	14.31
537.202	24.31
537.325	13.31
537.449	14.31
537.572	29.31
537.695	20.31
537.818	6.31
537.941	4.31
538.065	19.31
538.188	24.31
538.311	32.31
538.434	45.31
538.558	25.31
538.681	36.31
538.804	25.31
538.927	44.31
539.05	22.31
539.173	24.31
539.297	25.31
539.42	18.31
539.543	21.31
539.666	35.31
539.789	35.31
539.913	34.31
540.036	18.31
540.159	23.31
540.282	10.31
540.405	10.31
540.528	22.31
540.651	37.31
540.775	12.31
540.898	22.31
541.021	33.31
541.144	31.31
541.267	22.31
541.39	22.31
541.513	41.31
541.637	31.31
541.76	27.31
541.883	33.31
542.006	52.31
542.129	68.31
542.252	35.31
542.375	40.31
542.498	40.31
542.622	54.31
542.745	33.31
542.868	45.31
542.991	56.31
543.114	50.31
543.237	44.31
543.36	50.31
543.483	63.31
543.606	96.31
543.73	92.31
543.853	79.31
543.976	88.31
544.099	103.31
544.222	121.31
544.345	132.31
544.468	177.31
544.591	204.31
544.714	250.31
544.837	357.31
544.96	433.31
545.083	651.31
545.206	1064.31
545.329	2424.31
545.453	10818.31
545.576	15234.31
545.699	15683.31
545.822	15683.31
545.945	15683.31
546.068	15683.31
546.191	15683.31
546.314	15683.31
546.437	15683.31
546.56	15683.31
546.683	15683.31
546.806	15683.31
546.929	15683.31
547.052	15683.31
547.175	15683.31
547.298	15683.31
547.421	15683.31
547.544	15683.31
547.667	3500.31
547.79	2180.31
547.913	986.31
548.036	846.31
548.159	616.31
548.282	624.31
548.405	465.31
548.528	498.31
548.651	413.31
548.774	414.31
548.897	326.31
549.02	358.31
549.143	328.31
549.266	316.31
549.389	263.31
549.512	253.31
549.635	237.31
549.758	234.31
549.881	214.31
550.004	222.31
550.127	184.31
550.25	186.31
550.373	166.31
550.496	198.31
550.619	165.31
550.742	174.31
550.865	151.31
550.988	170.31
551.111	159.31
551.234	148.31
551.356	126.31
551.479	113.31
551.602	113.31
551.725	141.31
551.848	136.31
551.971	158.31
552.094	123.31
552.217	133.31
552.34	117.31
552.463	108.31
552.586	113.31
552.709	95.31
552.832	108.31
552.955	109.31
553.077	107.31
553.2	101.31
553.323	90.31
553.446	107.31
553.569	105.31
553.692	104.31
553.815	96.31
553.938	102.31
554.061	99.31
554.184	90.31
554.306	70.31
554.429	81.31
554.552	81.31
554.675	63.31
554.798	82.31
554.921	72.31
555.044	73.31
555.167	85.31
555.29	63.31
555.412	75.31
555.535	70.31
555.658	67.31
555.781	68.31
555.904	82.31
556.027	69.31
556.15	82.31
556.272	79.31
556.395	76.31
556.518	61.31
556.641	70.31
556.764	92.31
556.887	84.31
557.01	70.31
557.132	59.31
557.255	66.31
557.378	81.31
557.501	79.31
557.624	59.31
557.747	68.31
557.869	96.31
557.992	77.31
558.115	117.31
558.238	91.31
558.361	98.31
558.483	108.31
558.606	93.31
558.729	56.31
558.852	77.31
558.975	66.31
559.098	69.31
559.22	60.31
559.343	59.31
559.466	63.31
559.589	49.31
559.712	37.31
559.834	55.31
559.957	38.31
560.08	51.31
560.203	45.31
560.325	61.31
560.448	78.31
560.571	52.31
560.694	53.31
560.817	80.31
560.939	49.31
561.062	49.31
561.185	58.31
561.308	61.31
561.43	49.31
561.553	68.31
561.676	60.31
561.799	77.31
561.921	68.31
562.044	61.31
562.167	60.31
562.29	69.31
562.413	80.31
562.535	71.31
562.658	43.31
562.781	60.31
562.903	70.31
563.026	90.31
563.149	153.31
563.272	122.31
563.394	109.31
563.517	121.31
563.64	68.31
563.763	50.31
563.885	47.31
564.008	64.31
564.131	51.31
564.254	24.31
564.376	42.31
564.499	26.31
564.622	33.31
564.744	65.31
564.867	70.31
564.99	40.31
565.113	39.31
565.235	38.31
565.358	26.31
565.481	22.31
565.603	28.31
565.726	30.31
565.849	38.31
565.971	41.31
566.094	25.31
566.217	23.31
566.34	10.31
566.462	43.31
566.585	51.31
566.708	56.31
566.83	35.31
566.953	66.31
567.076	44.31
567.198	40.31
567.321	38.31
567.444	44.31
567.566	30.31
567.689	16.31
567.812	26.31
567.934	42.31
568.057	28.31
568.18	27.31
568.302	24.31
568.425	22.31
568.548	18.31
568.67	37.31
568.793	34.31
568.916	32.31
569.038	22.31
569.161	32.31
569.283	46.31
569.406	46.31
569.529	23.31
569.651	17.31
569.774	30.31
569.897	34.31
570.019	45.31
570.142	46.31
570.265	34.31
570.387	21.31
570.51	45.31
570.632	36.31
570.755	24.31
570.878	26.31
571	43.31
571.123	30.31
571.246	46.31
571.368	36.31
571.491	25.31
571.613	20.31
571.736	16.31
571.859	46.31
571.981	31.31
572.104	24.31
572.226	31.31
572.349	23.31
572.472	34.31
572.594	41.31
572.717	37.31
572.839	40.31
572.962	20.31
573.085	22.31
573.207	28.31
573.33	22.31
573.452	47.31
573.575	39.31
573.697	29.31
573.82	30.31
573.943	17.31
574.065	26.31
574.188	43.31
574.31	65.31
574.433	46.31
574.555	41.31
574.678	33.31
574.801	44.31
574.923	25.31
575.046	20.31
575.168	29.31
575.291	33.31
575.413	45.31
575.536	38.31
575.659	74.31
575.781	48.31
575.904	33.31
576.026	75.31
576.149	68.31
576.271	125.31
576.394	193.31
576.516	532.31
576.639	3623.31
576.761	10125.31
576.884	8848.31
577.007	8687.31
577.129	7944.31
577.252	3697.31
577.374	1310.31
577.497	528.31
577.619	281.31
577.742	174.31
577.864	149.31
577.987	123.31
578.109	129.31
578.232	148.31
578.354	151.31
578.477	184.31
578.599	386.31
578.722	1946.31
578.844	9060.31
578.967	9686.31
579.089	8733.31
579.212	9042.31
579.334	5225.31
579.457	1892.31
579.579	701.31
579.702	316.31
579.824	188.31
579.947	121.31
580.069	97.31
580.192	86.31
580.314	106.31
580.437	67.31
580.559	97.31
580.682	71.31
580.804	62.31
580.927	52.31
581.049	65.31
581.172	62.31
581.294	60.31
581.417	53.31
581.539	35.31
581.662	51.31
581.784	41.31
581.907	62.31
582.029	32.31
582.152	31.31
582.274	40.31
582.396	39.31
582.519	46.31
582.641	21.31
582.764	41.31
582.886	65.31
583.009	39.31
583.131	49.31
583.254	16.31
583.376	41.31
583.499	34.31
583.621	32.31
583.743	38.31
583.866	33.31
583.988	42.31
584.111	43.31
584.233	44.31
584.356	40.31
584.478	28.31
584.601	30.31
584.723	33.31
584.845	54.31
584.968	30.31
585.09	23.31
585.213	49.31
585.335	15.31
585.458	20.31
585.58	21.31
585.702	44.31
585.825	38.31
585.947	35.31
586.07	18.31
586.192	32.31
586.315	36.31
586.437	8.31
586.559	33.31
586.682	12.31
586.804	36.31
586.927	34.31
587.049	26.31
587.171	34.31
587.294	28.31
587.416	45.31
587.539	26.31
587.661	28.31
587.783	24.31
587.906	26.31
588.028	28.31
588.151	40.31
588.273	49.31
588.395	28.31
588.518	14.31
588.64	40.31
588.763	46.31
588.885	41.31
589.007	35.31
589.13	15.31
589.252	11.31
589.375	28.31
589.497	28.31
589.619	38.31
589.742	25.31
589.864	46.31
589.986	29.31
590.109	18.31
590.231	27.31
590.354	36.31
590.476	29.31
590.598	24.31
590.721	25.31
590.843	25.31
590.965	18.31
591.088	31.31
591.21	30.31
591.332	31.31
591.455	-2.69
591.577	10.31
591.7	22.31
591.822	23.31
591.944	16.31
592.067	22.31
592.189	34.31
592.311	42.31
592.434	28.31
592.556	47.31
592.678	40.31
592.801	46.31
592.923	39.31
593.045	25.31
593.168	16.31
593.29	20.31
593.412	30.31
593.535	11.31
593.657	17.31
593.779	27.31
593.902	35.31
594.024	25.31
594.146	37.31
594.269	31.31
594.391	18.31
594.513	40.31
594.636	31.31
594.758	23.31
594.88	36.31
595.003	32.31
595.125	4.31
595.247	25.31
595.37	34.31
595.492	11.31
595.614	41.31
595.737	29.31
595.859	16.31
595.981	32.31
596.104	36.31
596.226	32.31
596.348	14.31
596.471	11.31
596.593	35.31
596.715	17.31
596.838	8.31
596.96	28.31
597.082	30.31
597.204	16.31
597.327	21.31
597.449	24.31
597.571	30.31
597.694	37.31
597.816	34.31
597.938	25.31
598.061	25.31
598.183	29.31
598.305	21.31
598.427	37.31
598.55	26.31
598.672	26.31
598.794	33.31
598.917	23.31
599.039	33.31
599.161	30.31
599.283	20.31
599.406	42.31
599.528	26.31
599.65	53.31
599.773	45.31
599.895	34.31
600.017	38.31
600.139	20.31
600.262	11.31
600.384	25.31
600.506	7.31
600.628	25.31
600.751	28.31
600.873	37.31
600.995	16.31
601.118	31.31
601.24	25.31
601.362	62.31
601.484	34.31
601.607	21.31
601.729	9.31
601.851	17.31
601.973	18.31
602.096	20.31
602.218	30.31
602.34	20.31
602.462	14.31
602.585	27.31
602.707	12.31
602.829	21.31
602.951	14.31
603.074	10.31
603.196	27.31
603.318	-0.69
603.44	15.31
603.563	24.31
603.685	26.31
603.807	40.31
603.929	21.31
604.052	29.31
604.174	18.31
604.296	9.31
604.418	20.31
604.541	28.31
604.663	12.31
604.785	11.31
604.907	35.31
605.03	8.31
605.152	48.31
605.274	28.31
605.396	26.31
605.519	8.31
605.641	22.31
605.763	6.31
605.885	15.31
606.008	15.31
606.13	29.31
606.252	18.31
606.374	6.31
606.496	18.31
606.619	33.31
606.741	28.31
606.863	30.31
606.985	36.31
607.108	22.31
607.23	25.31
607.352	8.31
607.474	32.31
607.596	21.31
607.719	14.31
607.841	40.31
607.963	29.31
608.085	13.31
608.207	39.31
608.33	16.31
608.452	20.31
608.574	9.31
608.696	42.31
608.819	41.31
608.941	24.31
609.063	4.31
609.185	9.31
609.307	22.31
609.43	43.31
609.552	26.31
609.674	6.31
609.796	13.31
609.918	33.31
610.041	30.31
610.163	23.31
610.285	26.31
610.407	32.31
610.529	13.31
610.652	15.31
610.774	32.31
610.896	31.31
611.018	12.31
611.14	14.31
611.263	6.31
611.385	9.31
611.507	30.31
611.629	11.31
611.751	35.31
611.873	49.31
611.996	32.31
612.118	18.31
612.24	28.31
612.362	20.31
612.484	37.31
612.607	38.31
612.729	52.31
612.851	40.31
612.973	32.31
613.095	22.31
613.218	37.31
613.34	30.31
613.462	30.31
613.584	26.31
613.706	30.31
613.828	34.31
613.951	34.31
614.073	21.31
614.195	0.31
614.317	43.31
614.439	24.31
614.561	32.31
614.684	38.31
614.806	37.31
614.928	18.31
615.05	15.31
615.172	41.31
615.294	19.31
615.417	20.31
615.539	12.31
615.661	24.31
615.783	23.31
615.905	12.31
616.027	24.31
616.15	24.31
616.272	16.31
616.394	37.31
616.516	15.31
616.638	20.31
616.76	24.31
616.883	34.31
617.005	22.31
617.127	14.31
617.249	23.31
617.371	40.31
617.493	24.31
617.615	34.31
617.738	14.31
617.86	18.31
617.982	26.31
618.104	22.31
618.226	2.31
618.348	7.31
618.471	32.31
618.593	28.31
618.715	5.31
618.837	26.31
618.959	29.31
619.081	32.31
619.203	31.31
619.326	32.31
619.448	22.31
619.57	28.31
619.692	31.31
619.814	35.31
619.936	27.31
620.058	11.31
620.181	21.31
620.303	19.31
620.425	22.31
620.547	-1.69
620.669	-1.69
620.791	19.31
620.913	12.31
621.036	11.31
621.158	12.31
621.28	12.31
621.402	-0.69
621.524	7.31
621.646	20.31
621.768	6.31
621.891	-2.69
622.013	26.31
622.135	20.31
622.257	21.31
622.379	11.31
622.501	22.31
622.623	14.31
622.745	6.31
622.868	19.31
622.99	9.31
623.112	23.31
623.234	24.31
623.356	17.31
623.478	4.31
623.6	20.31
623.722	15.31
623.845	25.31
623.967	25.31
624.089	34.31
624.211	1.31
624.333	17.31
624.455	23.31
624.577	11.31
624.699	20.31
624.822	22.31
624.944	22.31
625.066	35.31
625.188	21.31
625.31	22.31
625.432	27.31
625.554	20.31
625.676	50.31
625.799	14.31
625.921	26.31
626.043	29.31
626.165	24.31
626.287	24.31
626.409	33.31
626.531	22.31
626.653	20.31
626.775	13.31
626.898	27.31
627.02	25.31
627.142	43.31
627.264	32.31
627.386	4.31
627.508	10.31
627.63	9.31
627.752	27.31
627.874	16.31
627.997	16.31
628.119	25.31
628.241	17.31
628.363	28.31
628.485	12.31
628.607	20.31
628.729	4.31
628.851	9.31
628.973	5.31
629.096	10.31
629.218	17.31
629.34	22.31
629.462	10.31
629.584	22.31
629.706	12.31
629.828	27.31
629.95	29.31
630.072	3.31
630.195	-1.69
630.317	30.31
630.439	16.31
630.561	26.31
630.683	16.31
630.805	40.31
630.927	24.31
631.049	15.31
631.171	4.31
631.293	10.31
631.416	23.31
631.538	10.31
631.66	10.31
631.782	24.31
631.904	29.31
632.026	13.31
632.148	31.31
632.27	-9.69
632.392	4.31
632.514	11.31
632.637	21.31
632.759	4.31
632.881	15.31
633.003	14.31
633.125	16.31
633.247	29.31
633.369	16.31
633.491	19.31
633.613	39.31
633.735	15.31
633.858	7.31
633.98	16.31
634.102	-7.69
634.224	16.31
634.346	14.31
634.468	18.31
634.59	18.31
634.712	19.31
634.834	20.31
634.956	23.31
635.078	14.31
635.201	1.31
635.323	22.31
635.445	10.31
635.567	-3.69
635.689	13.31
635.811	16.31
635.933	10.31
636.055	17.31
636.177	30.31
636.299	18.31
636.421	15.31
636.544	13.31
636.666	14.31
636.788	38.31
636.91	18.31
637.032	-3.69
637.154	40.31
637.276	35.31
637.398	30.31
637.52	15.31
637.642	10.31
637.764	30.31
637.887	20.31
638.009	29.31
638.131	21.31
638.253	20.31
638.375	26.31
638.497	22.31
638.619	8.31
638.741	28.31
638.863	7.31
638.985	11.31
639.107	15.31
639.23	13.31
639.352	32.31
639.474	12.31
639.596	9.31
639.718	-2.69
639.84	23.31
639.962	12.31
640.084	36.31
640.206	29.31
640.328	20.31
640.45	33.31
640.573	12.31
640.695	18.31
640.817	13.31
640.939	24.31
641.061	10.31
641.183	19.31
641.305	15.31
641.427	19.31
641.549	18.31
641.671	-2.69
641.793	-11.69
641.915	21.31
642.038	20.31
642.16	11.31
642.282	10.31
642.404	28.31
642.526	22.31
642.648	17.31
642.77	26.31
642.892	21.31
643.014	34.31
643.136	12.31
643.258	7.31
643.381	23.31
643.503	35.31
643.625	10.31
643.747	6.31
643.869	10.31
643.991	21.31
644.113	14.31
644.235	1.31
644.357	20.31
644.479	42.31
644.601	7.31
644.723	15.31
644.846	11.31
644.968	19.31
645.09	6.31
645.212	-11.69
645.334	15.31
645.456	12.31
645.578	36.31
645.7	2.31
645.822	4.31
645.944	27.31
646.066	16.31
646.188	-1.69
646.311	17.31
646.433	29.31
646.555	43.31
646.677	30.31
646.799	20.31
646.921	7.31
647.043	34.31
647.165	11.31
647.287	6.31
647.409	8.31
647.531	20.31
647.654	-1.69
647.776	10.31
647.898	22.31
648.02	10.31
648.142	4.31
648.264	9.31
648.386	-1.69
648.508	12.31
648.63	6.31
648.752	26.31
648.874	22.31
648.997	6.31
649.119	28.31
649.241	17.31
649.363	27.31
649.485	28.31
649.607	6.31
649.729	8.31
649.851	10.31
649.973	4.31
650.095	20.31
650.217	6.31
650.34	8.31
650.462	22.31
650.584	23.31
650.706	30.31
650.828	24.31
650.95	0.31
651.072	9.31
651.194	24.31
651.316	14.31
651.438	13.31
651.56	6.31
651.683	16.31
651.805	10.31
651.927	10.31
652.049	-0.69
652.171	18.31
652.293	13.31
652.415	-5.69
652.537	-12.69
652.659	-2.69
652.781	27.31
652.903	17.31
653.026	37.31
653.148	13.31
653.27	5.31
653.392	13.31
653.514	4.31
653.636	15.31
653.758	17.31
653.88	11.31
654.002	5.31
654.124	-4.69
654.247	8.31
654.369	20.31
654.491	-5.69
654.613	25.31
654.735	1.31
654.857	20.31
654.979	21.31
655.101	9.31
655.223	32.31
655.345	10.31
655.468	22.31
655.59	7.31
655.712	17.31
655.834	6.31
655.956	24.31
656.078	11.31
656.2	13.31
656.322	2.31
656.444	14.31
656.566	-3.69
656.689	12.31
656.811	14.31
656.933	11.31
657.055	-15.69
657.177	9.31
657.299	0.31
657.421	2.31
657.543	16.31
657.665	-0.69
657.787	-2.69
657.91	19.31
658.032	-9.69
658.154	8.31
658.276	21.31
658.398	0.31
658.52	20.31
658.642	-0.69
658.764	16.31
658.886	-4.69
659.009	11.31
659.131	20.31
659.253	15.31
659.375	13.31
659.497	-3.69
659.619	22.31
659.741	24.31
659.863	-7.69
659.985	-11.69
660.108	25.31
660.23	5.31
660.352	19.31
660.474	19.31
660.596	15.31
660.718	7.31
660.84	1.31
660.962	7.31
661.084	-5.69
661.207	5.31
661.329	9.31
661.451	0.31
661.573	8.31
661.695	36.31
661.817	17.31
661.939	21.31
662.061	30.31
662.184	14.31
662.306	1.31
662.428	12.31
662.55	33.31
662.672	8.31
662.794	5.31
662.916	-4.69
663.038	10.31
663.161	32.31
663.283	28.31
663.405	30.31
663.527	-4.69
663.649	29.31
663.771	15.31
663.893	11.31
664.015	22.31
664.138	3.31
664.26	2.31
664.382	7.31
664.504	0.31
664.626	-11.69
664.748	10.31
664.87	4.31
664.992	36.31
665.115	21.31
665.237	12.31
665.359	9.31
665.481	2.31
665.603	12.31
665.725	-0.69
665.847	0.31
665.97	16.31
666.092	16.31
666.214	13.31
666.336	13.31
666.458	11.31
666.58	10.31
666.702	10.31
666.825	9.31
666.947	-7.69
667.069	13.31
667.191	15.31
667.313	18.31
667.435	2.31
667.557	-4.69
667.68	9.31
667.802	10.31
667.924	20.31
668.046	30.31
668.168	12.31
668.29	17.31
668.412	12.31
668.535	8.31
668.657	6.31
668.779	15.31
668.901	21.31
669.023	12.31
669.145	10.31
669.267	18.31
669.39	14.31
669.512	15.31
669.634	14.31
669.756	11.31
669.878	10.31
670	14.31
670.123	4.31
670.245	25.31
670.367	8.31
670.489	10.31
670.611	-0.69
670.733	9.31
670.856	7.31
670.978	23.31
671.1	8.31
671.222	20.31
671.344	14.31
671.466	9.31
671.589	-2.69
671.711	-6.69
671.833	2.31
671.955	30.31
672.077	14.31
672.199	29.31
672.322	16.31
672.444	14.31
672.566	20.31
672.688	10.31
672.81	22.31
672.932	-6.69
673.055	-1.69
673.177	-3.69
673.299	1.31
673.421	-1.69
673.543	13.31
673.665	19.31
673.788	28.31
673.91	0.31
674.032	6.31
674.154	10.31
674.276	10.31
674.399	-0.69
674.521	4.31
674.643	10.31
674.765	13.31
674.887	14.31
675.009	17.31
675.132	-3.69
675.254	15.31
675.376	1.31
675.498	18.31
675.62	23.31
675.743	3.31
675.865	10.31
675.987	-3.69
676.109	12.31
676.231	20.31
676.354	8.31
676.476	6.31
676.598	10.31
676.72	26.31
676.842	30.31
676.965	13.31
677.087	9.31
677.209	17.31
677.331	10.31
677.453	29.31
677.576	22.31
677.698	23.31
677.82	-3.69
677.942	13.31
678.064	12.31
678.187	6.31
678.309	3.31
678.431	1.31
678.553	12.31
678.675	36.31
678.798	20.31
678.92	18.31
679.042	11.31
679.164	8.31
679.286	14.31
679.409	16.31
679.531	5.31
679.653	21.31
679.775	11.31
679.898	-1.69
680.02	0.31
680.142	7.31
680.264	4.31
680.386	6.31
680.509	37.31
680.631	19.31
680.753	5.31
680.875	-2.69
680.998	22.31
681.12	23.31
681.242	5.31
681.364	4.31
681.486	18.31
681.609	8.31
681.731	2.31
681.853	-8.69
681.975	2.31
682.098	15.31
682.22	28.31
682.342	18.31
682.464	16.31
682.587	21.31
682.709	25.31
682.831	16.31
682.953	-2.69
683.076	14.31
683.198	13.31
683.32	5.31
683.442	8.31
683.565	23.31
683.687	9.31
683.809	9.31
683.931	2.31
684.054	24.31
684.176	17.31
684.298	25.31
684.42	-1.69
684.543	5.31
684.665	6.31
684.787	6.31
684.909	1.31
685.032	15.31
685.154	-3.69
685.276	16.31
685.398	14.31
685.521	12.31
685.643	8.31
685.765	25.31
685.887	10.31
686.01	9.31
686.132	2.31
686.254	8.31
686.377	20.31
686.499	24.31
686.621	14.31
686.743	39.31
686.866	25.31
686.988	36.31
687.11	58.31
687.232	9.31
687.355	10.31
687.477	-1.69
687.599	16.31
687.722	0.31
687.844	22.31
687.966	5.31
688.088	16.31
688.211	30.31
688.333	16.31
688.455	6.31
688.578	34.31
688.7	31.31
688.822	-1.69
688.944	-2.69
689.067	43.31
689.189	25.31
689.311	-6.69
689.434	6.31
689.556	5.31
689.678	16.31
689.801	7.31
689.923	25.31
690.045	20.31
690.167	21.31
690.29	31.31
690.412	11.31
690.534	23.31
690.657	6.31
690.779	-3.69
690.901	18.31
691.024	16.31
691.146	10.31
691.268	13.31
691.391	33.31
691.513	26.31
691.635	27.31
691.758	21.31
691.88	17.31
692.002	2.31
692.125	7.31
692.247	5.31
692.369	4.31
692.492	-4.69
692.614	4.31
692.736	6.31
692.859	21.31
692.981	18.31
693.103	13.31
693.226	4.31
693.348	36.31
693.47	15.31
693.593	34.31
693.715	43.31
693.837	16.31
693.96	12.31
694.082	7.31
694.204	6.31
694.327	20.31
694.449	-8.69
694.571	13.31
694.694	12.31
694.816	16.31
694.938	-5.69
695.061	9.31
695.183	17.31
695.305	2.31
695.428	12.31
695.55	2.31
695.672	5.31
695.795	20.31
695.917	18.31
696.04	3.31
696.162	0.31
696.284	-0.69
696.407	-0.69
696.529	8.31
696.651	26.31
696.774	19.31
696.896	28.31
697.019	19.31
697.141	17.31
697.263	-0.69
697.386	1.31
697.508	15.31
697.63	13.31
697.753	16.31
697.875	8.31
697.998	8.31
698.12	22.31
698.242	29.31
698.365	5.31
698.487	18.31
698.61	20.31
698.732	6.31
698.854	32.31
698.977	-9.69
699.099	29.31
699.221	12.31
699.344	10.31
699.466	0.31
699.589	14.31
699.711	18.31
699.834	-3.69
699.956	15.31
700.078	13.31
700.201	22.31
700.323	34.31
700.446	13.31
700.568	8.31
700.69	7.31
700.813	26.31
700.935	-3.69
701.058	-8.69
701.18	5.31
701.302	10.31
701.425	21.31
701.547	16.31
701.67	9.31
701.792	6.31
701.915	0.31
702.037	10.31
702.159	10.31
702.282	23.31
702.404	13.31
702.527	8.31
702.649	29.31
702.772	8.31
702.894	-7.69
703.017	14.31
703.139	20.31
703.261	21.31
703.384	23.31
703.506	10.31
703.629	-0.69
703.751	20.31
703.874	-1.69
703.996	-2.69
704.119	-8.69
704.241	15.31
704.364	-3.69
704.486	20.31
704.608	24.31
704.731	8.31
704.853	9.31
704.976	5.31
705.098	16.31
705.221	16.31
705.343	15.31
705.466	23.31
705.588	10.31
705.711	8.31
705.833	10.31
705.956	21.31
706.078	32.31
706.201	27.31
706.323	18.31
706.446	5.31
