Data from LowRes_mercury_15_20_11_07_2024_HR4C61881__29__15-23-35-171.txt Node

Date: Thu Nov 07 15:23:35 EST 2024
User: crc00042
Spectrometer: HR4C6188
Trigger mode: 4
Integration Time (sec): 1.000000E-1
Scans to average: 1
Electric dark correction enabled: true
Nonlinearity correction enabled: false
Boxcar width: 0
XAxis mode: Wavelengths
Number of Pixels in Spectrum: 3648
>>>>>Begin Spectral Data<<<<<
245.66	-51.69
245.797	-51.69
245.934	-51.69
246.071	-71.69
246.208	9.31
246.344	18.31
246.481	-17.69
246.618	-8.69
246.755	12.31
246.892	-5.69
247.029	-2.69
247.165	-12.69
247.302	1.31
247.439	8.31
247.576	7.31
247.713	-13.69
247.849	23.31
247.986	-9.69
248.123	4.31
248.26	-16.69
248.396	-0.69
248.533	1.31
248.67	-4.69
248.806	-12.69
248.943	-17.69
249.08	-5.69
249.216	-4.69
249.353	-5.69
249.49	-1.69
249.626	9.31
249.763	-10.69
249.9	-7.69
250.036	-13.69
250.173	-9.69
250.309	-1.69
250.446	4.31
250.582	17.31
250.719	-2.69
250.856	-18.69
250.992	-13.69
251.129	-17.69
251.265	-14.69
251.402	15.31
251.538	1.31
251.675	3.31
251.811	13.31
251.948	21.31
252.084	11.31
252.221	-0.69
252.357	-6.69
252.493	22.31
252.63	5.31
252.766	33.31
252.903	16.31
253.039	-11.69
253.175	-14.69
253.312	12.31
253.448	-10.69
253.585	-8.69
253.721	4.31
253.857	-1.69
253.994	4.31
254.13	4.31
254.266	3.31
254.403	-6.69
254.539	-1.69
254.675	1.31
254.811	6.31
254.948	8.31
255.084	-13.69
255.22	-17.69
255.356	-9.69
255.493	7.31
255.629	15.31
255.765	12.31
255.901	17.31
256.037	20.31
256.174	-1.69
256.31	1.31
256.446	7.31
256.582	0.31
256.718	15.31
256.854	7.31
256.991	9.31
257.127	12.31
257.263	-0.69
257.399	-11.69
257.535	2.31
257.671	12.31
257.807	-2.69
257.943	-15.69
258.079	-20.69
258.215	-4.69
258.351	18.31
258.487	1.31
258.623	17.31
258.759	15.31
258.895	14.31
259.031	-11.69
259.167	5.31
259.303	9.31
259.439	-1.69
259.575	7.31
259.711	2.31
259.847	8.31
259.983	17.31
260.119	0.31
260.255	-0.69
260.391	8.31
260.527	0.31
260.663	16.31
260.799	-1.69
260.934	5.31
261.07	-11.69
261.206	-16.69
261.342	-26.69
261.478	18.31
261.614	12.31
261.749	24.31
261.885	5.31
262.021	-1.69
262.157	26.31
262.293	13.31
262.428	-1.69
262.564	-27.69
262.7	-0.69
262.836	-12.69
262.971	12.31
263.107	9.31
263.243	21.31
263.378	10.31
263.514	-1.69
263.65	-0.69
263.785	-24.69
263.921	-1.69
264.057	17.31
264.192	6.31
264.328	15.31
264.464	-13.69
264.599	1.31
264.735	23.31
264.871	1.31
265.006	-8.69
265.142	5.31
265.277	12.31
265.413	30.31
265.548	29.31
265.684	35.31
265.819	-11.69
265.955	0.31
266.091	2.31
266.226	-8.69
266.362	6.31
266.497	18.31
266.633	19.31
266.768	11.31
266.903	13.31
267.039	8.31
267.174	16.31
267.31	-2.69
267.445	-9.69
267.581	-4.69
267.716	16.31
267.851	1.31
267.987	23.31
268.122	5.31
268.258	-1.69
268.393	-1.69
268.528	5.31
268.664	-6.69
268.799	-13.69
268.934	0.31
269.07	0.31
269.205	8.31
269.34	14.31
269.476	2.31
269.611	6.31
269.746	7.31
269.881	6.31
270.017	17.31
270.152	1.31
270.287	4.31
270.422	2.31
270.558	-11.69
270.693	-5.69
270.828	-15.69
270.963	4.31
271.098	-7.69
271.234	-15.69
271.369	18.31
271.504	-3.69
271.639	-1.69
271.774	-3.69
271.909	9.31
272.045	-19.69
272.18	6.31
272.315	-6.69
272.45	14.31
272.585	-14.69
272.72	3.31
272.855	11.31
272.99	0.31
273.125	-7.69
273.26	-0.69
273.395	-11.69
273.53	-6.69
273.665	14.31
273.8	-2.69
273.935	30.31
274.07	23.31
274.205	11.31
274.34	-0.69
274.475	0.31
274.61	10.31
274.745	-12.69
274.88	24.31
275.015	3.31
275.15	20.31
275.285	12.31
275.42	13.31
275.555	15.31
275.69	9.31
275.825	8.31
275.959	18.31
276.094	6.31
276.229	-2.69
276.364	3.31
276.499	12.31
276.634	24.31
276.768	-18.69
276.903	-12.69
277.038	5.31
277.173	0.31
277.308	10.31
277.442	-0.69
277.577	-18.69
277.712	-0.69
277.847	5.31
277.981	31.31
278.116	-4.69
278.251	-9.69
278.386	8.31
278.52	-2.69
278.655	8.31
278.79	12.31
278.924	13.31
279.059	11.31
279.194	-4.69
279.328	18.31
279.463	9.31
279.598	11.31
279.732	1.31
279.867	20.31
280.001	3.31
280.136	1.31
280.271	25.31
280.405	7.31
280.54	9.31
280.674	-4.69
280.809	20.31
280.943	-2.69
281.078	-4.69
281.213	13.31
281.347	8.31
281.482	-0.69
281.616	4.31
281.751	0.31
281.885	-20.69
282.02	-0.69
282.154	9.31
282.288	-7.69
282.423	4.31
282.557	-3.69
282.692	2.31
282.826	-7.69
282.961	8.31
283.095	-3.69
283.229	2.31
283.364	-12.69
283.498	-5.69
283.633	7.31
283.767	8.31
283.901	-0.69
284.036	-6.69
284.17	2.31
284.304	5.31
284.439	-5.69
284.573	1.31
284.707	12.31
284.842	-10.69
284.976	-14.69
285.11	-9.69
285.244	2.31
285.379	34.31
285.513	-5.69
285.647	-12.69
285.781	8.31
285.916	20.31
286.05	6.31
286.184	28.31
286.318	7.31
286.453	9.31
286.587	-8.69
286.721	-15.69
286.855	-0.69
286.989	9.31
287.123	-5.69
287.258	-3.69
287.392	11.31
287.526	11.31
287.66	-0.69
287.794	6.31
287.928	11.31
288.062	26.31
288.196	-5.69
288.33	0.31
288.464	11.31
288.598	0.31
288.733	10.31
288.867	18.31
289.001	-1.69
289.135	-2.69
289.269	-17.69
289.403	-20.69
289.537	-9.69
289.671	5.31
289.805	-12.69
289.939	5.31
290.073	-2.69
290.207	9.31
290.34	-7.69
290.474	18.31
290.608	4.31
290.742	-0.69
290.876	-6.69
291.01	-2.69
291.144	22.31
291.278	12.31
291.412	-0.69
291.546	11.31
291.679	-1.69
291.813	-8.69
291.947	-3.69
292.081	-10.69
292.215	-14.69
292.349	5.31
292.482	17.31
292.616	13.31
292.75	2.31
292.884	8.31
293.018	4.31
293.151	-10.69
293.285	2.31
293.419	-11.69
293.553	-9.69
293.686	-11.69
293.82	12.31
293.954	15.31
294.088	26.31
294.221	-5.69
294.355	-15.69
294.489	4.31
294.622	-1.69
294.756	-0.69
294.89	7.31
295.023	5.31
295.157	0.31
295.291	26.31
295.424	7.31
295.558	0.31
295.691	-6.69
295.825	0.31
295.959	1.31
296.092	-14.69
296.226	4.31
296.359	8.31
296.493	10.31
296.627	9.31
296.76	-10.69
296.894	-20.69
297.027	-7.69
297.161	-14.69
297.294	-11.69
297.428	-3.69
297.561	23.31
297.695	-17.69
297.828	-16.69
297.962	-8.69
298.095	-12.69
298.229	-4.69
298.362	-6.69
298.495	-7.69
298.629	-16.69
298.762	-7.69
298.896	0.31
299.029	-15.69
299.162	5.31
299.296	-17.69
299.429	-8.69
299.563	-5.69
299.696	10.31
299.829	6.31
299.963	19.31
300.096	8.31
300.229	4.31
300.363	11.31
300.496	10.31
300.629	-26.69
300.763	4.31
300.896	-0.69
301.029	14.31
301.162	-5.69
301.296	-10.69
301.429	8.31
301.562	-11.69
301.695	7.31
301.829	-23.69
301.962	0.31
302.095	7.31
302.228	-2.69
302.362	7.31
302.495	-30.69
302.628	3.31
302.761	10.31
302.894	9.31
303.027	13.31
303.161	13.31
303.294	1.31
303.427	19.31
303.56	6.31
303.693	-12.69
303.826	4.31
303.959	-5.69
304.092	3.31
304.225	-1.69
304.359	9.31
304.492	14.31
304.625	4.31
304.758	4.31
304.891	-17.69
305.024	-6.69
305.157	-2.69
305.29	-9.69
305.423	-9.69
305.556	7.31
305.689	21.31
305.822	-5.69
305.955	1.31
306.088	1.31
306.221	2.31
306.354	-6.69
306.487	-9.69
306.62	0.31
306.752	-8.69
306.885	7.31
307.018	16.31
307.151	24.31
307.284	-1.69
307.417	-9.69
307.55	-1.69
307.683	-1.69
307.816	13.31
307.948	4.31
308.081	6.31
308.214	11.31
308.347	18.31
308.48	-1.69
308.613	-15.69
308.745	-3.69
308.878	-11.69
309.011	-1.69
309.144	15.31
309.277	9.31
309.409	6.31
309.542	5.31
309.675	8.31
309.808	7.31
309.94	42.31
310.073	13.31
310.206	5.31
310.339	6.31
310.471	-0.69
310.604	16.31
310.737	-1.69
310.869	8.31
311.002	6.31
311.135	-6.69
311.267	-21.69
311.4	-18.69
311.533	17.31
311.665	8.31
311.798	-4.69
311.93	2.31
312.063	46.31
312.196	48.31
312.328	78.31
312.461	59.31
312.593	36.31
312.726	54.31
312.859	97.31
312.991	150.31
313.124	37.31
313.256	32.31
313.389	8.31
313.521	0.31
313.654	5.31
313.786	-18.69
313.919	-3.69
314.051	5.31
314.184	20.31
314.316	18.31
314.449	-8.69
314.581	-13.69
314.714	-6.69
314.846	-1.69
314.978	-1.69
315.111	4.31
315.243	16.31
315.376	10.31
315.508	10.31
315.641	-8.69
315.773	19.31
315.905	19.31
316.038	0.31
316.17	3.31
316.302	-6.69
316.435	-7.69
316.567	5.31
316.699	21.31
316.832	0.31
316.964	3.31
317.096	-12.69
317.229	-11.69
317.361	-7.69
317.493	-5.69
317.625	2.31
317.758	7.31
317.89	9.31
318.022	3.31
318.155	-14.69
318.287	-0.69
318.419	-5.69
318.551	9.31
318.683	15.31
318.816	-5.69
318.948	-5.69
319.08	4.31
319.212	11.31
319.344	5.31
319.477	-6.69
319.609	-5.69
319.741	27.31
319.873	3.31
320.005	14.31
320.137	10.31
320.269	5.31
320.401	9.31
320.534	6.31
320.666	-6.69
320.798	-5.69
320.93	-11.69
321.062	0.31
321.194	2.31
321.326	7.31
321.458	4.31
321.59	8.31
321.722	2.31
321.854	-1.69
321.986	29.31
322.118	-13.69
322.25	-6.69
322.382	7.31
322.514	-10.69
322.646	-9.69
322.778	8.31
322.91	0.31
323.042	3.31
323.174	6.31
323.306	-14.69
323.438	2.31
323.57	5.31
323.702	4.31
323.834	11.31
323.966	-21.69
324.097	7.31
324.229	29.31
324.361	24.31
324.493	14.31
324.625	7.31
324.757	8.31
324.889	4.31
325.021	6.31
325.152	29.31
325.284	31.31
325.416	-9.69
325.548	14.31
325.68	-0.69
325.811	4.31
325.943	6.31
326.075	-6.69
326.207	7.31
326.339	-7.69
326.47	5.31
326.602	13.31
326.734	14.31
326.866	27.31
326.997	-11.69
327.129	-3.69
327.261	-0.69
327.392	6.31
327.524	10.31
327.656	3.31
327.787	13.31
327.919	13.31
328.051	13.31
328.182	22.31
328.314	24.31
328.446	3.31
328.577	11.31
328.709	21.31
328.841	-8.69
328.972	-18.69
329.104	-4.69
329.235	5.31
329.367	15.31
329.499	17.31
329.63	29.31
329.762	10.31
329.893	19.31
330.025	14.31
330.156	-30.69
330.288	-2.69
330.419	4.31
330.551	13.31
330.683	-2.69
330.814	-3.69
330.946	18.31
331.077	-11.69
331.208	-19.69
331.34	9.31
331.471	-13.69
331.603	3.31
331.734	-11.69
331.866	5.31
331.997	8.31
332.129	27.31
332.26	-9.69
332.392	9.31
332.523	11.31
332.654	9.31
332.786	-5.69
332.917	4.31
333.048	16.31
333.18	13.31
333.311	0.31
333.443	10.31
333.574	8.31
333.705	38.31
333.837	28.31
333.968	120.31
334.099	220.31
334.231	208.31
334.362	61.31
334.493	24.31
334.624	18.31
334.756	14.31
334.887	8.31
335.018	17.31
335.15	34.31
335.281	4.31
335.412	14.31
335.543	7.31
335.675	4.31
335.806	19.31
335.937	8.31
336.068	7.31
336.199	30.31
336.331	7.31
336.462	8.31
336.593	13.31
336.724	11.31
336.855	-4.69
336.986	6.31
337.118	2.31
337.249	13.31
337.38	10.31
337.511	25.31
337.642	17.31
337.773	-2.69
337.904	10.31
338.035	3.31
338.166	21.31
338.298	1.31
338.429	3.31
338.56	27.31
338.691	5.31
338.822	5.31
338.953	8.31
339.084	25.31
339.215	24.31
339.346	1.31
339.477	2.31
339.608	16.31
339.739	13.31
339.87	3.31
340.001	-3.69
340.132	7.31
340.263	-6.69
340.394	17.31
340.525	4.31
340.656	-2.69
340.787	-17.69
340.918	20.31
341.049	7.31
341.179	9.31
341.31	19.31
341.441	3.31
341.572	24.31
341.703	23.31
341.834	-12.69
341.965	12.31
342.096	-5.69
342.227	30.31
342.357	19.31
342.488	8.31
342.619	15.31
342.75	4.31
342.881	9.31
343.012	22.31
343.142	36.31
343.273	4.31
343.404	23.31
343.535	40.31
343.666	26.31
343.796	19.31
343.927	39.31
344.058	40.31
344.189	25.31
344.319	26.31
344.45	33.31
344.581	20.31
344.712	-3.69
344.842	37.31
344.973	13.31
345.104	43.31
345.234	13.31
345.365	21.31
345.496	15.31
345.626	21.31
345.757	22.31
345.888	29.31
346.018	29.31
346.149	33.31
346.28	19.31
346.41	13.31
346.541	36.31
346.672	28.31
346.802	29.31
346.933	29.31
347.063	29.31
347.194	21.31
347.325	29.31
347.455	38.31
347.586	24.31
347.716	29.31
347.847	33.31
347.977	31.31
348.108	51.31
348.238	50.31
348.369	33.31
348.499	25.31
348.63	49.31
348.76	35.31
348.891	44.31
349.021	40.31
349.152	52.31
349.282	59.31
349.413	46.31
349.543	58.31
349.674	45.31
349.804	36.31
349.935	23.31
350.065	21.31
350.196	10.31
350.326	18.31
350.456	29.31
350.587	45.31
350.717	21.31
350.848	38.31
350.978	26.31
351.108	17.31
351.239	30.31
351.369	10.31
351.499	33.31
351.63	27.31
351.76	23.31
351.89	19.31
352.021	33.31
352.151	26.31
352.281	30.31
352.412	29.31
352.542	40.31
352.672	27.31
352.803	13.31
352.933	15.31
353.063	4.31
353.193	1.31
353.324	16.31
353.454	21.31
353.584	22.31
353.714	17.31
353.845	5.31
353.975	8.31
354.105	27.31
354.235	34.31
354.365	27.31
354.496	26.31
354.626	36.31
354.756	18.31
354.886	15.31
355.016	32.31
355.146	36.31
355.277	25.31
355.407	7.31
355.537	21.31
355.667	37.31
355.797	28.31
355.927	16.31
356.057	24.31
356.187	14.31
356.318	11.31
356.448	24.31
356.578	34.31
356.708	36.31
356.838	28.31
356.968	40.31
357.098	40.31
357.228	25.31
357.358	17.31
357.488	33.31
357.618	58.31
357.748	37.31
357.878	22.31
358.008	19.31
358.138	13.31
358.268	26.31
358.398	54.31
358.528	31.31
358.658	21.31
358.788	1.31
358.918	37.31
359.048	30.31
359.178	26.31
359.308	22.31
359.438	50.31
359.568	32.31
359.698	41.31
359.827	22.31
359.957	26.31
360.087	19.31
360.217	8.31
360.347	28.31
360.477	19.31
360.607	7.31
360.737	47.31
360.866	34.31
360.996	35.31
361.126	33.31
361.256	52.31
361.386	38.31
361.516	46.31
361.645	27.31
361.775	40.31
361.905	9.31
362.035	42.31
362.165	14.31
362.294	27.31
362.424	42.31
362.554	49.31
362.684	32.31
362.813	49.31
362.943	47.31
363.073	39.31
363.203	63.31
363.332	61.31
363.462	47.31
363.592	107.31
363.721	111.31
363.851	160.31
363.981	215.31
364.111	254.31
364.24	318.31
364.37	485.31
364.5	840.31
364.629	1830.31
364.759	3896.31
364.888	6321.31
365.018	9543.31
365.148	14863.31
365.277	13101.31
365.407	4826.31
365.537	3138.31
365.666	4100.31
365.796	1846.31
365.925	793.31
366.055	769.31
366.184	1030.31
366.314	1418.31
366.444	2460.31
366.573	2134.31
366.703	651.31
366.832	198.31
366.962	120.31
367.091	107.31
367.221	76.31
367.35	56.31
367.48	78.31
367.609	59.31
367.739	58.31
367.868	37.31
367.998	40.31
368.127	56.31
368.257	65.31
368.386	51.31
368.516	43.31
368.645	34.31
368.775	52.31
368.904	27.31
369.033	33.31
369.163	37.31
369.292	43.31
369.422	33.31
369.551	50.31
369.68	44.31
369.81	36.31
369.939	33.31
370.069	68.31
370.198	39.31
370.327	18.31
370.457	18.31
370.586	11.31
370.715	18.31
370.845	20.31
370.974	34.31
371.103	61.31
371.233	55.31
371.362	60.31
371.491	37.31
371.621	54.31
371.75	34.31
371.879	53.31
372.008	51.31
372.138	54.31
372.267	50.31
372.396	38.31
372.525	40.31
372.655	37.31
372.784	4.31
372.913	40.31
373.042	33.31
373.172	38.31
373.301	7.31
373.43	24.31
373.559	25.31
373.688	23.31
373.818	20.31
373.947	15.31
374.076	10.31
374.205	17.31
374.334	16.31
374.463	5.31
374.593	26.31
374.722	37.31
374.851	32.31
374.98	18.31
375.109	31.31
375.238	28.31
375.367	49.31
375.496	27.31
375.625	18.31
375.755	28.31
375.884	33.31
376.013	24.31
376.142	1.31
376.271	15.31
376.4	37.31
376.529	34.31
376.658	29.31
376.787	29.31
376.916	18.31
377.045	10.31
377.174	20.31
377.303	8.31
377.432	29.31
377.561	32.31
377.69	23.31
377.819	36.31
377.948	18.31
378.077	14.31
378.206	17.31
378.335	15.31
378.464	8.31
378.593	23.31
378.722	2.31
378.851	15.31
378.98	48.31
379.108	29.31
379.237	8.31
379.366	15.31
379.495	33.31
379.624	0.31
379.753	16.31
379.882	18.31
380.011	-7.69
380.14	-8.69
380.268	20.31
380.397	11.31
380.526	28.31
380.655	9.31
380.784	-4.69
380.913	-0.69
381.041	9.31
381.17	7.31
381.299	-0.69
381.428	21.31
381.557	13.31
381.685	19.31
381.814	30.31
381.943	19.31
382.072	-5.69
382.2	7.31
382.329	25.31
382.458	28.31
382.587	25.31
382.715	43.31
382.844	15.31
382.973	9.31
383.102	5.31
383.23	22.31
383.359	-5.69
383.488	0.31
383.616	0.31
383.745	17.31
383.874	22.31
384.003	12.31
384.131	9.31
384.26	19.31
384.389	28.31
384.517	4.31
384.646	21.31
384.774	-3.69
384.903	18.31
385.032	25.31
385.16	21.31
385.289	13.31
385.418	6.31
385.546	17.31
385.675	19.31
385.803	21.31
385.932	7.31
386.06	-2.69
386.189	20.31
386.318	20.31
386.446	6.31
386.575	31.31
386.703	41.31
386.832	16.31
386.96	-4.69
387.089	25.31
387.217	20.31
387.346	9.31
387.474	14.31
387.603	29.31
387.731	20.31
387.86	29.31
387.988	23.31
388.117	28.31
388.245	18.31
388.374	17.31
388.502	32.31
388.631	2.31
388.759	20.31
388.888	21.31
389.016	5.31
389.144	24.31
389.273	25.31
389.401	14.31
389.53	7.31
389.658	34.31
389.786	18.31
389.915	11.31
390.043	33.31
390.172	50.31
390.3	53.31
390.428	55.31
390.557	37.31
390.685	33.31
390.813	55.31
390.942	33.31
391.07	12.31
391.198	30.31
391.327	6.31
391.455	7.31
391.583	49.31
391.712	15.31
391.84	16.31
391.968	-5.69
392.096	29.31
392.225	22.31
392.353	23.31
392.481	12.31
392.609	37.31
392.738	23.31
392.866	37.31
392.994	20.31
393.122	29.31
393.251	14.31
393.379	9.31
393.507	-5.69
393.635	6.31
393.764	33.31
393.892	26.31
394.02	18.31
394.148	12.31
394.276	19.31
394.404	50.31
394.533	15.31
394.661	27.31
394.789	50.31
394.917	18.31
395.045	7.31
395.173	21.31
395.302	18.31
395.43	29.31
395.558	51.31
395.686	32.31
395.814	50.31
395.942	24.31
396.07	43.31
396.198	31.31
396.326	29.31
396.454	39.31
396.582	42.31
396.711	32.31
396.839	30.31
396.967	27.31
397.095	22.31
397.223	39.31
397.351	44.31
397.479	47.31
397.607	43.31
397.735	51.31
397.863	72.31
397.991	52.31
398.119	28.31
398.247	65.31
398.375	54.31
398.503	53.31
398.631	49.31
398.759	51.31
398.887	44.31
399.015	48.31
399.143	59.31
399.271	52.31
399.399	63.31
399.526	65.31
399.654	94.31
399.782	64.31
399.91	101.31
400.038	102.31
400.166	84.31
400.294	74.31
400.422	79.31
400.55	89.31
400.678	97.31
400.805	116.31
400.933	105.31
401.061	114.31
401.189	101.31
401.317	142.31
401.445	99.31
401.573	70.31
401.7	46.31
401.828	41.31
401.956	41.31
402.084	37.31
402.212	31.31
402.34	29.31
402.467	36.31
402.595	46.31
402.723	33.31
402.851	69.31
402.978	46.31
403.106	76.31
403.234	81.31
403.362	112.31
403.489	125.31
403.617	158.31
403.745	187.31
403.873	271.31
404	576.31
404.128	1495.31
404.256	3983.31
404.384	5202.31
404.511	5558.31
404.639	7236.31
404.767	11542.31
404.894	14712.31
405.022	4981.31
405.15	1300.31
405.277	411.31
405.405	236.31
405.533	118.31
405.66	112.31
405.788	78.31
405.916	75.31
406.043	48.31
406.171	58.31
406.299	53.31
406.426	68.31
406.554	51.31
406.681	65.31
406.809	39.31
406.937	60.31
407.064	63.31
407.192	163.31
407.319	287.31
407.447	528.31
407.574	550.31
407.702	622.31
407.83	870.31
407.957	1598.31
408.085	955.31
408.212	280.31
408.34	97.31
408.467	57.31
408.595	40.31
408.722	59.31
408.85	23.31
408.977	23.31
409.105	25.31
409.232	42.31
409.36	40.31
409.487	40.31
409.615	38.31
409.742	45.31
409.87	44.31
409.997	47.31
410.125	55.31
410.252	45.31
410.379	24.31
410.507	17.31
410.634	29.31
410.762	20.31
410.889	34.31
411.017	33.31
411.144	49.31
411.271	5.31
411.399	23.31
411.526	26.31
411.653	28.31
411.781	39.31
411.908	47.31
412.036	43.31
412.163	48.31
412.29	34.31
412.418	30.31
412.545	41.31
412.672	21.31
412.8	50.31
412.927	33.31
413.054	37.31
413.182	18.31
413.309	29.31
413.436	19.31
413.564	25.31
413.691	24.31
413.818	45.31
413.945	3.31
414.073	24.31
414.2	26.31
414.327	37.31
414.454	34.31
414.582	34.31
414.709	12.31
414.836	22.31
414.963	21.31
415.091	34.31
415.218	10.31
415.345	21.31
415.472	31.31
415.6	2.31
415.727	35.31
415.854	23.31
415.981	26.31
416.108	29.31
416.236	26.31
416.363	22.31
416.49	26.31
416.617	22.31
416.744	49.31
416.871	40.31
416.998	34.31
417.126	40.31
417.253	16.31
417.38	39.31
417.507	38.31
417.634	45.31
417.761	37.31
417.888	39.31
418.015	34.31
418.143	22.31
418.27	33.31
418.397	24.31
418.524	12.31
418.651	28.31
418.778	54.31
418.905	70.31
419.032	34.31
419.159	32.31
419.286	57.31
419.413	40.31
419.54	33.31
419.667	10.31
419.794	27.31
419.921	37.31
420.048	27.31
420.175	47.31
420.302	25.31
420.429	57.31
420.556	50.31
420.683	36.31
420.81	37.31
420.937	61.31
421.064	70.31
421.191	53.31
421.318	69.31
421.445	77.31
421.572	50.31
421.699	56.31
421.826	38.31
421.953	34.31
422.08	15.31
422.207	15.31
422.334	8.31
422.461	32.31
422.588	12.31
422.714	26.31
422.841	33.31
422.968	37.31
423.095	21.31
423.222	27.31
423.349	15.31
423.476	31.31
423.603	13.31
423.729	9.31
423.856	6.31
423.983	33.31
424.11	14.31
424.237	20.31
424.364	24.31
424.491	27.31
424.617	6.31
424.744	11.31
424.871	19.31
424.998	17.31
425.125	16.31
425.251	10.31
425.378	4.31
425.505	17.31
425.632	20.31
425.758	8.31
425.885	30.31
426.012	37.31
426.139	25.31
426.266	14.31
426.392	26.31
426.519	7.31
426.646	14.31
426.772	29.31
426.899	36.31
427.026	39.31
427.153	9.31
427.279	42.31
427.406	44.31
427.533	14.31
427.659	16.31
427.786	25.31
427.913	34.31
428.039	26.31
428.166	16.31
428.293	28.31
428.419	41.31
428.546	20.31
428.673	4.31
428.799	17.31
428.926	31.31
429.053	51.31
429.179	24.31
429.306	38.31
429.433	39.31
429.559	44.31
429.686	3.31
429.812	9.31
429.939	6.31
430.066	20.31
430.192	19.31
430.319	16.31
430.445	47.31
430.572	40.31
430.699	6.31
430.825	11.31
430.952	20.31
431.078	9.31
431.205	41.31
431.331	39.31
431.458	34.31
431.584	26.31
431.711	17.31
431.837	40.31
431.964	40.31
432.09	42.31
432.217	-2.69
432.343	25.31
432.47	39.31
432.596	36.31
432.723	33.31
432.849	20.31
432.976	33.31
433.102	43.31
433.229	47.31
433.355	59.31
433.482	78.31
433.608	93.31
433.735	109.31
433.861	124.31
433.987	161.31
434.114	202.31
434.24	158.31
434.367	214.31
434.493	227.31
434.62	282.31
434.746	381.31
434.872	641.31
434.999	848.31
435.125	1731.31
435.252	5599.31
435.378	13462.31
435.504	15230.31
435.631	15452.31
435.757	15682.31
435.883	15682.31
436.01	15682.31
436.136	15682.31
436.262	15682.31
436.389	3509.31
436.515	2551.31
436.641	877.31
436.768	667.31
436.894	405.31
437.02	422.31
437.147	290.31
437.273	304.31
437.399	223.31
437.526	247.31
437.652	179.31
437.778	203.31
437.904	148.31
438.031	159.31
438.157	144.31
438.283	174.31
438.409	135.31
438.536	125.31
438.662	122.31
438.788	109.31
438.914	115.31
439.041	133.31
439.167	110.31
439.293	108.31
439.419	103.31
439.546	116.31
439.672	80.31
439.798	71.31
439.924	83.31
440.05	96.31
440.177	89.31
440.303	65.31
440.429	59.31
440.555	60.31
440.681	61.31
440.807	89.31
440.934	67.31
441.06	68.31
441.186	64.31
441.312	43.31
441.438	67.31
441.564	66.31
441.69	71.31
441.816	70.31
441.943	71.31
442.069	55.31
442.195	41.31
442.321	65.31
442.447	30.31
442.573	41.31
442.699	30.31
442.825	55.31
442.951	57.31
443.077	41.31
443.203	37.31
443.33	49.31
443.456	34.31
443.582	54.31
443.708	29.31
443.834	53.31
443.96	51.31
444.086	56.31
444.212	53.31
444.338	57.31
444.464	57.31
444.59	53.31
444.716	32.31
444.842	51.31
444.968	24.31
445.094	42.31
445.22	30.31
445.346	21.31
445.472	43.31
445.598	32.31
445.724	19.31
445.85	48.31
445.976	37.31
446.102	54.31
446.228	46.31
446.354	42.31
446.48	30.31
446.605	44.31
446.731	25.31
446.857	22.31
446.983	28.31
447.109	39.31
447.235	49.31
447.361	42.31
447.487	46.31
447.613	44.31
447.739	17.31
447.865	22.31
447.99	23.31
448.116	42.31
448.242	36.31
448.368	38.31
448.494	30.31
448.62	33.31
448.746	29.31
448.872	35.31
448.997	7.31
449.123	23.31
449.249	42.31
449.375	40.31
449.501	18.31
449.627	23.31
449.752	49.31
449.878	19.31
450.004	27.31
450.13	13.31
450.256	15.31
450.381	21.31
450.507	33.31
450.633	19.31
450.759	35.31
450.884	21.31
451.01	34.31
451.136	39.31
451.262	48.31
451.388	52.31
451.513	26.31
451.639	26.31
451.765	20.31
451.89	38.31
452.016	12.31
452.142	22.31
452.268	31.31
452.393	33.31
452.519	31.31
452.645	31.31
452.771	25.31
452.896	23.31
453.022	4.31
453.148	39.31
453.273	23.31
453.399	11.31
453.525	20.31
453.65	11.31
453.776	19.31
453.902	29.31
454.027	22.31
454.153	55.31
454.279	33.31
454.404	21.31
454.53	48.31
454.656	45.31
454.781	23.31
454.907	15.31
455.032	11.31
455.158	36.31
455.284	39.31
455.409	10.31
455.535	19.31
455.66	33.31
455.786	20.31
455.912	24.31
456.037	5.31
456.163	35.31
456.288	31.31
456.414	23.31
456.539	-0.69
456.665	35.31
456.791	27.31
456.916	20.31
457.042	23.31
457.167	18.31
457.293	8.31
457.418	34.31
457.544	19.31
457.669	11.31
457.795	40.31
457.92	38.31
458.046	20.31
458.171	27.31
458.297	32.31
458.422	23.31
458.548	25.31
458.673	29.31
458.799	28.31
458.924	21.31
459.05	16.31
459.175	23.31
459.301	22.31
459.426	36.31
459.552	34.31
459.677	16.31
459.803	29.31
459.928	39.31
460.053	13.31
460.179	31.31
460.304	37.31
460.43	16.31
460.555	22.31
460.681	33.31
460.806	21.31
460.931	15.31
461.057	33.31
461.182	15.31
461.308	51.31
461.433	33.31
461.558	9.31
461.684	40.31
461.809	33.31
461.934	19.31
462.06	43.31
462.185	14.31
462.311	29.31
462.436	32.31
462.561	21.31
462.687	23.31
462.812	21.31
462.937	15.31
463.063	21.31
463.188	12.31
463.313	21.31
463.439	22.31
463.564	35.31
463.689	23.31
463.814	28.31
463.94	14.31
464.065	24.31
464.19	46.31
464.316	20.31
464.441	13.31
464.566	17.31
464.692	17.31
464.817	8.31
464.942	21.31
465.067	15.31
465.193	11.31
465.318	1.31
465.443	19.31
465.568	28.31
465.694	26.31
465.819	58.31
465.944	28.31
466.069	38.31
466.194	29.31
466.32	28.31
466.445	37.31
466.57	38.31
466.695	25.31
466.82	35.31
466.946	45.31
467.071	44.31
467.196	11.31
467.321	28.31
467.446	20.31
467.572	35.31
467.697	25.31
467.822	35.31
467.947	39.31
468.072	9.31
468.197	25.31
468.323	13.31
468.448	32.31
468.573	22.31
468.698	27.31
468.823	11.31
468.948	26.31
469.073	22.31
469.198	51.31
469.324	53.31
469.449	43.31
469.574	49.31
469.699	53.31
469.824	51.31
469.949	28.31
470.074	41.31
470.199	47.31
470.324	37.31
470.449	40.31
470.574	37.31
470.7	42.31
470.825	34.31
470.95	34.31
471.075	21.31
471.2	44.31
471.325	66.31
471.45	34.31
471.575	33.31
471.7	33.31
471.825	12.31
471.95	19.31
472.075	19.31
472.2	25.31
472.325	40.31
472.45	36.31
472.575	16.31
472.7	31.31
472.825	47.31
472.95	50.31
473.075	38.31
473.2	34.31
473.325	39.31
473.45	42.31
473.575	38.31
473.7	48.31
473.825	19.31
473.95	8.31
474.075	32.31
474.2	20.31
474.325	-2.69
474.45	17.31
474.574	32.31
474.699	22.31
474.824	21.31
474.949	13.31
475.074	22.31
475.199	4.31
475.324	10.31
475.449	1.31
475.574	12.31
475.699	23.31
475.824	7.31
475.949	16.31
476.073	1.31
476.198	17.31
476.323	31.31
476.448	38.31
476.573	12.31
476.698	33.31
476.823	9.31
476.947	36.31
477.072	27.31
477.197	5.31
477.322	15.31
477.447	-3.69
477.572	28.31
477.697	17.31
477.821	14.31
477.946	20.31
478.071	34.31
478.196	42.31
478.321	37.31
478.445	27.31
478.57	12.31
478.695	27.31
478.82	29.31
478.945	24.31
479.069	16.31
479.194	13.31
479.319	40.31
479.444	12.31
479.569	7.31
479.693	31.31
479.818	35.31
479.943	34.31
480.068	18.31
480.192	30.31
480.317	25.31
480.442	19.31
480.567	1.31
480.691	15.31
480.816	16.31
480.941	-5.69
481.066	15.31
481.19	19.31
481.315	13.31
481.44	27.31
481.564	-0.69
481.689	35.31
481.814	23.31
481.938	26.31
482.063	9.31
482.188	13.31
482.313	17.31
482.437	5.31
482.562	11.31
482.687	16.31
482.811	19.31
482.936	18.31
483.061	13.31
483.185	29.31
483.31	20.31
483.435	11.31
483.559	13.31
483.684	30.31
483.808	29.31
483.933	23.31
484.058	13.31
484.182	34.31
484.307	30.31
484.432	19.31
484.556	18.31
484.681	9.31
484.805	25.31
484.93	30.31
485.055	19.31
485.179	25.31
485.304	19.31
485.428	31.31
485.553	15.31
485.678	11.31
485.802	26.31
485.927	48.31
486.051	36.31
486.176	22.31
486.3	19.31
486.425	24.31
486.549	20.31
486.674	23.31
486.799	13.31
486.923	17.31
487.048	10.31
487.172	20.31
487.297	15.31
487.421	33.31
487.546	18.31
487.67	30.31
487.795	3.31
487.919	18.31
488.044	26.31
488.168	20.31
488.293	27.31
488.417	18.31
488.542	34.31
488.666	34.31
488.791	23.31
488.915	33.31
489.04	35.31
489.164	33.31
489.289	33.31
489.413	14.31
489.538	20.31
489.662	26.31
489.786	11.31
489.911	20.31
490.035	7.31
490.16	13.31
490.284	15.31
490.409	17.31
490.533	6.31
490.658	20.31
490.782	28.31
490.906	43.31
491.031	127.31
491.155	157.31
491.28	160.31
491.404	144.31
491.528	234.31
491.653	151.31
491.777	72.31
491.902	20.31
492.026	40.31
492.15	26.31
492.275	45.31
492.399	30.31
492.524	-4.69
492.648	45.31
492.772	33.31
492.897	35.31
493.021	19.31
493.145	37.31
493.27	19.31
493.394	3.31
493.518	1.31
493.643	-2.69
493.767	16.31
493.891	11.31
494.016	26.31
494.14	7.31
494.264	24.31
494.389	48.31
494.513	24.31
494.637	25.31
494.762	27.31
494.886	25.31
495.01	14.31
495.134	23.31
495.259	29.31
495.383	24.31
495.507	13.31
495.632	15.31
495.756	48.31
495.88	25.31
496.004	22.31
496.129	23.31
496.253	32.31
496.377	20.31
496.501	25.31
496.626	9.31
496.75	19.31
496.874	16.31
496.998	11.31
497.123	21.31
497.247	20.31
497.371	6.31
497.495	12.31
497.62	20.31
497.744	8.31
497.868	10.31
497.992	22.31
498.116	26.31
498.241	24.31
498.365	4.31
498.489	3.31
498.613	37.31
498.737	9.31
498.862	23.31
498.986	15.31
499.11	18.31
499.234	26.31
499.358	21.31
499.482	28.31
499.607	26.31
499.731	16.31
499.855	28.31
499.979	13.31
500.103	13.31
500.227	44.31
500.351	24.31
500.476	21.31
500.6	15.31
500.724	31.31
500.848	29.31
500.972	19.31
501.096	23.31
501.22	37.31
501.344	1.31
501.469	8.31
501.593	11.31
501.717	6.31
501.841	14.31
501.965	16.31
502.089	16.31
502.213	13.31
502.337	12.31
502.461	15.31
502.585	15.31
502.709	33.31
502.834	4.31
502.958	30.31
503.082	27.31
503.206	38.31
503.33	37.31
503.454	35.31
503.578	38.31
503.702	30.31
503.826	31.31
503.95	20.31
504.074	20.31
504.198	11.31
504.322	9.31
504.446	18.31
504.57	24.31
504.694	19.31
504.818	31.31
504.942	40.31
505.066	43.31
505.19	37.31
505.314	31.31
505.438	17.31
505.562	6.31
505.686	25.31
505.81	30.31
505.934	28.31
506.058	12.31
506.182	35.31
506.306	14.31
506.43	8.31
506.554	11.31
506.678	26.31
506.802	23.31
506.926	19.31
507.05	26.31
507.174	23.31
507.298	22.31
507.422	34.31
507.546	25.31
507.67	13.31
507.794	4.31
507.918	19.31
508.042	16.31
508.165	0.31
508.289	16.31
508.413	27.31
508.537	25.31
508.661	18.31
508.785	21.31
508.909	29.31
509.033	20.31
509.157	37.31
509.281	32.31
509.405	31.31
509.528	44.31
509.652	26.31
509.776	34.31
509.9	34.31
510.024	29.31
510.148	21.31
510.272	26.31
510.396	44.31
510.519	28.31
510.643	39.31
510.767	27.31
510.891	33.31
511.015	49.31
511.139	46.31
511.263	63.31
511.386	32.31
511.51	36.31
511.634	31.31
511.758	30.31
511.882	54.31
512.006	45.31
512.129	47.31
512.253	101.31
512.377	76.31
512.501	81.31
512.625	83.31
512.748	76.31
512.872	68.31
512.996	43.31
513.12	52.31
513.244	42.31
513.367	64.31
513.491	67.31
513.615	55.31
513.739	59.31
513.862	77.31
513.986	89.31
514.11	78.31
514.234	105.31
514.358	99.31
514.481	102.31
514.605	107.31
514.729	100.31
514.853	110.31
514.976	116.31
515.1	89.31
515.224	117.31
515.348	92.31
515.471	79.31
515.595	109.31
515.719	126.31
515.842	209.31
515.966	277.31
516.09	307.31
516.214	311.31
516.337	322.31
516.461	221.31
516.585	81.31
516.708	43.31
516.832	33.31
516.956	21.31
517.08	28.31
517.203	6.31
517.327	32.31
517.451	18.31
517.574	35.31
517.698	10.31
517.822	23.31
517.945	29.31
518.069	25.31
518.193	38.31
518.316	26.31
518.44	19.31
518.564	18.31
518.687	12.31
518.811	7.31
518.935	49.31
519.058	23.31
519.182	0.31
519.306	20.31
519.429	26.31
519.553	47.31
519.676	28.31
519.8	23.31
519.924	18.31
520.047	41.31
520.171	3.31
520.294	9.31
520.418	9.31
520.542	24.31
520.665	27.31
520.789	28.31
520.913	-0.69
521.036	-1.69
521.16	15.31
521.283	16.31
521.407	13.31
521.53	17.31
521.654	1.31
521.778	10.31
521.901	8.31
522.025	33.31
522.148	31.31
522.272	23.31
522.395	12.31
522.519	26.31
522.643	16.31
522.766	13.31
522.89	20.31
523.013	17.31
523.137	9.31
523.26	6.31
523.384	23.31
523.507	34.31
523.631	26.31
523.754	16.31
523.878	19.31
524.002	30.31
524.125	9.31
524.249	-11.69
524.372	15.31
524.496	3.31
524.619	13.31
524.743	8.31
524.866	11.31
524.99	13.31
525.113	-0.69
525.237	34.31
525.36	36.31
525.484	23.31
525.607	4.31
525.731	12.31
525.854	26.31
525.978	40.31
526.101	5.31
526.224	8.31
526.348	19.31
526.471	23.31
526.595	8.31
526.718	20.31
526.842	6.31
526.965	26.31
527.089	29.31
527.212	5.31
527.336	13.31
527.459	25.31
527.582	22.31
527.706	11.31
527.829	22.31
527.953	21.31
528.076	-3.69
528.2	16.31
528.323	20.31
528.446	32.31
528.57	14.31
528.693	12.31
528.817	-2.69
528.94	30.31
529.064	49.31
529.187	11.31
529.31	28.31
529.434	16.31
529.557	14.31
529.68	8.31
529.804	11.31
529.927	4.31
530.051	30.31
530.174	-5.69
530.297	10.31
530.421	34.31
530.544	15.31
530.668	11.31
530.791	3.31
530.914	11.31
531.038	21.31
531.161	15.31
531.284	16.31
531.408	19.31
531.531	11.31
531.654	9.31
531.778	19.31
531.901	5.31
532.024	32.31
532.148	4.31
532.271	14.31
532.394	-0.69
532.518	23.31
532.641	31.31
532.764	19.31
532.888	9.31
533.011	1.31
533.134	9.31
533.258	20.31
533.381	10.31
533.504	15.31
533.628	25.31
533.751	16.31
533.874	9.31
533.997	8.31
534.121	3.31
534.244	7.31
534.367	19.31
534.491	24.31
534.614	14.31
534.737	22.31
534.86	14.31
534.984	-1.69
535.107	3.31
535.23	-4.69
535.354	10.31
535.477	4.31
535.6	12.31
535.723	15.31
535.847	19.31
535.97	7.31
536.093	23.31
536.216	3.31
536.34	7.31
536.463	5.31
536.586	23.31
536.709	17.31
536.833	23.31
536.956	14.31
537.079	12.31
537.202	25.31
537.325	11.31
537.449	-3.69
537.572	16.31
537.695	8.31
537.818	15.31
537.941	14.31
538.065	9.31
538.188	9.31
538.311	24.31
538.434	19.31
538.558	22.31
538.681	8.31
538.804	19.31
538.927	23.31
539.05	37.31
539.173	20.31
539.297	3.31
539.42	20.31
539.543	11.31
539.666	35.31
539.789	20.31
539.913	16.31
540.036	38.31
540.159	46.31
540.282	3.31
540.405	9.31
540.528	8.31
540.651	30.31
540.775	31.31
540.898	19.31
541.021	30.31
541.144	33.31
541.267	36.31
541.39	24.31
541.513	28.31
541.637	34.31
541.76	24.31
541.883	27.31
542.006	45.31
542.129	40.31
542.252	28.31
542.375	39.31
542.498	33.31
542.622	43.31
542.745	54.31
542.868	49.31
542.991	56.31
543.114	48.31
543.237	75.31
543.36	73.31
543.483	42.31
543.606	69.31
543.73	87.31
543.853	83.31
543.976	78.31
544.099	104.31
544.222	122.31
544.345	134.31
544.468	145.31
544.591	214.31
544.714	274.31
544.837	331.31
544.96	453.31
545.083	674.31
545.206	1065.31
545.329	2472.31
545.453	11001.31
545.576	15267.31
545.699	15682.31
545.822	15682.31
545.945	15682.31
546.068	15682.31
546.191	15682.31
546.314	15682.31
546.437	15682.31
546.56	15682.31
546.683	15682.31
546.806	15682.31
546.929	15682.31
547.052	15682.31
547.175	15682.31
547.298	15682.31
547.421	15682.31
547.544	15682.31
547.667	3749.31
547.79	3655.31
547.913	1236.31
548.036	958.31
548.159	667.31
548.282	615.31
548.405	501.31
548.528	504.31
548.651	404.31
548.774	406.31
548.897	349.31
549.02	356.31
549.143	300.31
549.266	287.31
549.389	283.31
549.512	267.31
549.635	263.31
549.758	265.31
549.881	227.31
550.004	227.31
550.127	197.31
550.25	195.31
550.373	159.31
550.496	184.31
550.619	167.31
550.742	158.31
550.865	140.31
550.988	159.31
551.111	164.31
551.234	145.31
551.356	140.31
551.479	119.31
551.602	110.31
551.725	137.31
551.848	131.31
551.971	149.31
552.094	125.31
552.217	124.31
552.34	117.31
552.463	113.31
552.586	115.31
552.709	104.31
552.832	91.31
552.955	102.31
553.077	101.31
553.2	109.31
553.323	96.31
553.446	102.31
553.569	97.31
553.692	98.31
553.815	97.31
553.938	99.31
554.061	97.31
554.184	86.31
554.306	83.31
554.429	73.31
554.552	80.31
554.675	56.31
554.798	65.31
554.921	96.31
555.044	83.31
555.167	80.31
555.29	68.31
555.412	87.31
555.535	81.31
555.658	80.31
555.781	84.31
555.904	61.31
556.027	79.31
556.15	83.31
556.272	61.31
556.395	77.31
556.518	70.31
556.641	76.31
556.764	85.31
556.887	91.31
557.01	54.31
557.132	49.31
557.255	65.31
557.378	83.31
557.501	59.31
557.624	76.31
557.747	78.31
557.869	71.31
557.992	77.31
558.115	101.31
558.238	85.31
558.361	95.31
558.483	124.31
558.606	57.31
558.729	53.31
558.852	72.31
558.975	72.31
559.098	82.31
559.22	47.31
559.343	45.31
559.466	65.31
559.589	68.31
559.712	44.31
559.834	52.31
559.957	48.31
560.08	52.31
560.203	65.31
560.325	70.31
560.448	84.31
560.571	49.31
560.694	34.31
560.817	70.31
560.939	43.31
561.062	48.31
561.185	67.31
561.308	64.31
561.43	46.31
561.553	43.31
561.676	51.31
561.799	89.31
561.921	55.31
562.044	58.31
562.167	58.31
562.29	67.31
562.413	69.31
562.535	64.31
562.658	40.31
562.781	41.31
562.903	58.31
563.026	89.31
563.149	131.31
563.272	109.31
563.394	107.31
563.517	110.31
563.64	70.31
563.763	43.31
563.885	51.31
564.008	47.31
564.131	39.31
564.254	37.31
564.376	44.31
564.499	31.31
564.622	38.31
564.744	56.31
564.867	43.31
564.99	34.31
565.113	39.31
565.235	47.31
565.358	39.31
565.481	18.31
565.603	38.31
565.726	31.31
565.849	40.31
565.971	40.31
566.094	29.31
566.217	29.31
566.34	25.31
566.462	44.31
566.585	31.31
566.708	40.31
566.83	38.31
566.953	41.31
567.076	51.31
567.198	28.31
567.321	31.31
567.444	49.31
567.566	42.31
567.689	31.31
567.812	45.31
567.934	45.31
568.057	48.31
568.18	42.31
568.302	21.31
568.425	38.31
568.548	21.31
568.67	32.31
568.793	35.31
568.916	33.31
569.038	20.31
569.161	24.31
569.283	13.31
569.406	21.31
569.529	15.31
569.651	30.31
569.774	20.31
569.897	32.31
570.019	53.31
570.142	45.31
570.265	40.31
570.387	23.31
570.51	28.31
570.632	29.31
570.755	15.31
570.878	23.31
571	28.31
571.123	14.31
571.246	36.31
571.368	43.31
571.491	12.31
571.613	16.31
571.736	12.31
571.859	21.31
571.981	13.31
572.104	13.31
572.226	43.31
572.349	16.31
572.472	44.31
572.594	45.31
572.717	32.31
572.839	35.31
572.962	20.31
573.085	28.31
573.207	37.31
573.33	32.31
573.452	44.31
573.575	41.31
573.697	39.31
573.82	19.31
573.943	28.31
574.065	51.31
574.188	36.31
574.31	31.31
574.433	45.31
574.555	34.31
574.678	28.31
574.801	53.31
574.923	46.31
575.046	41.31
575.168	29.31
575.291	31.31
575.413	50.31
575.536	28.31
575.659	42.31
575.781	53.31
575.904	61.31
576.026	77.31
576.149	79.31
576.271	134.31
576.394	210.31
576.516	509.31
576.639	3702.31
576.761	10268.31
576.884	8975.31
577.007	8764.31
577.129	8079.31
577.252	3747.31
577.374	1319.31
577.497	536.31
577.619	293.31
577.742	174.31
577.864	152.31
577.987	128.31
578.109	132.31
578.232	139.31
578.354	152.31
578.477	191.31
578.599	409.31
578.722	1977.31
578.844	9200.31
578.967	9983.31
579.089	8815.31
579.212	9164.31
579.334	5334.31
579.457	1980.31
579.579	736.31
579.702	334.31
579.824	216.31
579.947	118.31
580.069	87.31
580.192	77.31
580.314	85.31
580.437	64.31
580.559	97.31
580.682	73.31
580.804	59.31
580.927	63.31
581.049	70.31
581.172	52.31
581.294	53.31
581.417	48.31
581.539	41.31
581.662	57.31
581.784	48.31
581.907	47.31
582.029	49.31
582.152	31.31
582.274	33.31
582.396	38.31
582.519	42.31
582.641	19.31
582.764	7.31
582.886	49.31
583.009	21.31
583.131	22.31
583.254	30.31
583.376	41.31
583.499	24.31
583.621	21.31
583.743	37.31
583.866	44.31
583.988	37.31
584.111	45.31
584.233	23.31
584.356	40.31
584.478	25.31
584.601	11.31
584.723	31.31
584.845	35.31
584.968	21.31
585.09	16.31
585.213	27.31
585.335	29.31
585.458	15.31
585.58	19.31
585.702	49.31
585.825	46.31
585.947	33.31
586.07	27.31
586.192	37.31
586.315	49.31
586.437	9.31
586.559	21.31
586.682	23.31
586.804	35.31
586.927	18.31
587.049	33.31
587.171	30.31
587.294	31.31
587.416	37.31
587.539	28.31
587.661	21.31
587.783	36.31
587.906	20.31
588.028	31.31
588.151	31.31
588.273	24.31
588.395	25.31
588.518	31.31
588.64	24.31
588.763	40.31
588.885	30.31
589.007	35.31
589.13	15.31
589.252	15.31
589.375	46.31
589.497	30.31
589.619	45.31
589.742	22.31
589.864	37.31
589.986	47.31
590.109	23.31
590.231	28.31
590.354	33.31
590.476	11.31
590.598	20.31
590.721	8.31
590.843	37.31
590.965	33.31
591.088	27.31
591.21	28.31
591.332	35.31
591.455	13.31
591.577	20.31
591.7	22.31
591.822	27.31
591.944	37.31
592.067	27.31
592.189	25.31
592.311	27.31
592.434	31.31
592.556	25.31
592.678	27.31
592.801	20.31
592.923	41.31
593.045	25.31
593.168	20.31
593.29	18.31
593.412	27.31
593.535	20.31
593.657	15.31
593.779	15.31
593.902	25.31
594.024	16.31
594.146	47.31
594.269	40.31
594.391	23.31
594.513	14.31
594.636	16.31
594.758	27.31
594.88	26.31
595.003	32.31
595.125	39.31
595.247	17.31
595.37	24.31
595.492	17.31
595.614	43.31
595.737	41.31
595.859	16.31
595.981	20.31
596.104	29.31
596.226	20.31
596.348	15.31
596.471	21.31
596.593	29.31
596.715	20.31
596.838	2.31
596.96	16.31
597.082	17.31
597.204	41.31
597.327	23.31
597.449	20.31
597.571	24.31
597.694	25.31
597.816	19.31
597.938	41.31
598.061	11.31
598.183	16.31
598.305	28.31
598.427	27.31
598.55	20.31
598.672	36.31
598.794	27.31
598.917	17.31
599.039	17.31
599.161	37.31
599.283	31.31
599.406	33.31
599.528	31.31
599.65	35.31
599.773	35.31
599.895	43.31
600.017	30.31
600.139	27.31
600.262	3.31
600.384	31.31
600.506	23.31
600.628	38.31
600.751	51.31
600.873	19.31
600.995	34.31
601.118	39.31
601.24	25.31
601.362	23.31
601.484	29.31
601.607	41.31
601.729	13.31
601.851	26.31
601.973	19.31
602.096	17.31
602.218	13.31
602.34	30.31
602.462	29.31
602.585	31.31
602.707	13.31
602.829	39.31
602.951	29.31
603.074	11.31
603.196	14.31
603.318	12.31
603.44	33.31
603.563	23.31
603.685	8.31
603.807	29.31
603.929	20.31
604.052	15.31
604.174	27.31
604.296	42.31
604.418	26.31
604.541	51.31
604.663	6.31
604.785	27.31
604.907	30.31
605.03	29.31
605.152	49.31
605.274	16.31
605.396	23.31
605.519	19.31
605.641	17.31
605.763	19.31
605.885	11.31
606.008	17.31
606.13	29.31
606.252	26.31
606.374	15.31
606.496	21.31
606.619	24.31
606.741	18.31
606.863	28.31
606.985	30.31
607.108	25.31
607.23	29.31
607.352	1.31
607.474	19.31
607.596	27.31
607.719	22.31
607.841	26.31
607.963	24.31
608.085	17.31
608.207	40.31
608.33	25.31
608.452	23.31
608.574	17.31
608.696	37.31
608.819	17.31
608.941	27.31
609.063	16.31
609.185	21.31
609.307	20.31
609.43	27.31
609.552	5.31
609.674	-3.69
609.796	24.31
609.918	30.31
610.041	6.31
610.163	41.31
610.285	21.31
610.407	20.31
610.529	4.31
610.652	15.31
610.774	27.31
610.896	19.31
611.018	23.31
611.14	29.31
611.263	10.31
611.385	19.31
611.507	25.31
611.629	11.31
611.751	28.31
611.873	45.31
611.996	24.31
612.118	24.31
612.24	24.31
612.362	29.31
612.484	41.31
612.607	53.31
612.729	53.31
612.851	39.31
612.973	12.31
613.095	12.31
613.218	11.31
613.34	12.31
613.462	27.31
613.584	15.31
613.706	21.31
613.828	34.31
613.951	11.31
614.073	16.31
614.195	11.31
614.317	29.31
614.439	27.31
614.561	11.31
614.684	32.31
614.806	23.31
614.928	38.31
615.05	19.31
615.172	32.31
615.294	39.31
615.417	16.31
615.539	11.31
615.661	-7.69
615.783	24.31
615.905	19.31
616.027	17.31
616.15	41.31
616.272	11.31
616.394	-3.69
616.516	13.31
616.638	19.31
616.76	19.31
616.883	30.31
617.005	21.31
617.127	17.31
617.249	26.31
617.371	9.31
617.493	14.31
617.615	32.31
617.738	28.31
617.86	30.31
617.982	4.31
618.104	8.31
618.226	19.31
618.348	8.31
618.471	21.31
618.593	26.31
618.715	9.31
618.837	15.31
618.959	19.31
619.081	24.31
619.203	23.31
619.326	29.31
619.448	30.31
619.57	36.31
619.692	27.31
619.814	16.31
619.936	11.31
620.058	36.31
620.181	15.31
620.303	7.31
620.425	12.31
620.547	14.31
620.669	8.31
620.791	4.31
620.913	12.31
621.036	-1.69
621.158	12.31
621.28	39.31
621.402	28.31
621.524	15.31
621.646	13.31
621.768	-3.69
621.891	-3.69
622.013	16.31
622.135	23.31
622.257	13.31
622.379	4.31
622.501	17.31
622.623	16.31
622.745	23.31
622.868	23.31
622.99	17.31
623.112	-3.69
623.234	13.31
623.356	21.31
623.478	20.31
623.6	35.31
623.722	13.31
623.845	36.31
623.967	25.31
624.089	32.31
624.211	18.31
624.333	9.31
624.455	26.31
624.577	26.31
624.699	29.31
624.822	22.31
624.944	-4.69
625.066	13.31
625.188	3.31
625.31	14.31
625.432	44.31
625.554	17.31
625.676	31.31
625.799	30.31
625.921	21.31
626.043	23.31
626.165	14.31
626.287	-7.69
626.409	23.31
626.531	23.31
626.653	5.31
626.775	21.31
626.898	29.31
627.02	25.31
627.142	44.31
627.264	32.31
627.386	8.31
627.508	22.31
627.63	13.31
627.752	36.31
627.874	5.31
627.997	19.31
628.119	21.31
628.241	24.31
628.363	21.31
628.485	26.31
628.607	13.31
628.729	14.31
628.851	1.31
628.973	11.31
629.096	7.31
629.218	29.31
629.34	17.31
629.462	1.31
629.584	15.31
629.706	14.31
629.828	36.31
629.95	25.31
630.072	15.31
630.195	29.31
630.317	20.31
630.439	12.31
630.561	23.31
630.683	18.31
630.805	9.31
630.927	33.31
631.049	31.31
631.171	4.31
631.293	13.31
631.416	11.31
631.538	14.31
631.66	4.31
631.782	14.31
631.904	24.31
632.026	3.31
632.148	23.31
632.27	-2.69
632.392	13.31
632.514	13.31
632.637	7.31
632.759	6.31
632.881	6.31
633.003	8.31
633.125	8.31
633.247	18.31
633.369	5.31
633.491	22.31
633.613	23.31
633.735	-2.69
633.858	26.31
633.98	19.31
634.102	14.31
634.224	6.31
634.346	14.31
634.468	27.31
634.59	13.31
634.712	4.31
634.834	9.31
634.956	-10.69
635.078	4.31
635.201	8.31
635.323	-2.69
635.445	10.31
635.567	0.31
635.689	22.31
635.811	29.31
635.933	-0.69
636.055	19.31
636.177	-3.69
636.299	11.31
636.421	4.31
636.544	3.31
636.666	7.31
636.788	5.31
636.91	16.31
637.032	4.31
637.154	22.31
637.276	34.31
637.398	17.31
637.52	21.31
637.642	8.31
637.764	16.31
637.887	5.31
638.009	-3.69
638.131	11.31
638.253	6.31
638.375	19.31
638.497	35.31
638.619	13.31
638.741	5.31
638.863	10.31
638.985	4.31
639.107	0.31
639.23	-5.69
639.352	13.31
639.474	15.31
639.596	21.31
639.718	4.31
639.84	13.31
639.962	18.31
640.084	25.31
640.206	24.31
640.328	13.31
640.45	7.31
640.573	10.31
640.695	15.31
640.817	21.31
640.939	33.31
641.061	-11.69
641.183	5.31
641.305	-1.69
641.427	9.31
641.549	14.31
641.671	5.31
641.793	-6.69
641.915	27.31
642.038	3.31
642.16	-0.69
642.282	5.31
642.404	3.31
642.526	11.31
642.648	5.31
642.77	5.31
642.892	15.31
643.014	39.31
643.136	12.31
643.258	3.31
643.381	15.31
643.503	33.31
643.625	-8.69
643.747	6.31
643.869	3.31
643.991	11.31
644.113	13.31
644.235	0.31
644.357	13.31
644.479	11.31
644.601	23.31
644.723	13.31
644.846	8.31
644.968	14.31
645.09	26.31
645.212	4.31
645.334	13.31
645.456	7.31
645.578	13.31
645.7	1.31
645.822	15.31
645.944	22.31
646.066	10.31
646.188	-9.69
646.311	26.31
646.433	17.31
646.555	36.31
646.677	26.31
646.799	10.31
646.921	7.31
647.043	26.31
647.165	9.31
647.287	21.31
647.409	12.31
647.531	29.31
647.654	-8.69
647.776	51.31
647.898	14.31
648.02	3.31
648.142	-1.69
648.264	-1.69
648.386	7.31
648.508	-4.69
648.63	20.31
648.752	17.31
648.874	8.31
648.997	19.31
649.119	29.31
649.241	13.31
649.363	17.31
649.485	29.31
649.607	7.31
649.729	-3.69
649.851	20.31
649.973	0.31
650.095	27.31
650.217	14.31
650.34	21.31
650.462	22.31
650.584	-1.69
650.706	17.31
650.828	25.31
650.95	-0.69
651.072	30.31
651.194	1.31
651.316	-3.69
651.438	19.31
651.56	7.31
651.683	11.31
651.805	1.31
651.927	13.31
652.049	19.31
652.171	10.31
652.293	17.31
652.415	-0.69
652.537	-7.69
652.659	6.31
652.781	14.31
652.903	13.31
653.026	29.31
653.148	33.31
653.27	6.31
653.392	-8.69
653.514	13.31
653.636	3.31
653.758	18.31
653.88	-1.69
654.002	10.31
654.124	9.31
654.247	-8.69
654.369	15.31
654.491	-0.69
654.613	-3.69
654.735	3.31
654.857	26.31
654.979	3.31
655.101	13.31
655.223	19.31
655.345	21.31
655.468	17.31
655.59	9.31
655.712	23.31
655.834	12.31
655.956	21.31
656.078	7.31
656.2	-8.69
656.322	20.31
656.444	7.31
656.566	23.31
656.689	4.31
656.811	4.31
656.933	26.31
657.055	-4.69
657.177	5.31
657.299	5.31
657.421	-2.69
657.543	20.31
657.665	-7.69
657.787	3.31
657.91	-5.69
658.032	-1.69
658.154	9.31
658.276	20.31
658.398	6.31
658.52	14.31
658.642	28.31
658.764	15.31
658.886	-11.69
659.009	20.31
659.131	15.31
659.253	22.31
659.375	36.31
659.497	16.31
659.619	16.31
659.741	2.31
659.863	11.31
659.985	17.31
660.108	27.31
660.23	-0.69
660.352	12.31
660.474	15.31
660.596	30.31
660.718	13.31
660.84	0.31
660.962	20.31
661.084	-8.69
661.207	5.31
661.329	19.31
661.451	9.31
661.573	7.31
661.695	22.31
661.817	25.31
661.939	31.31
662.061	23.31
662.184	10.31
662.306	12.31
662.428	24.31
662.55	23.31
662.672	8.31
662.794	-4.69
662.916	-7.69
663.038	-0.69
663.161	22.31
663.283	23.31
663.405	25.31
663.527	17.31
663.649	22.31
663.771	4.31
663.893	15.31
664.015	16.31
664.138	5.31
664.26	13.31
664.382	0.31
664.504	11.31
664.626	3.31
664.748	4.31
664.87	-1.69
664.992	5.31
665.115	13.31
665.237	17.31
665.359	8.31
665.481	4.31
665.603	15.31
665.725	-8.69
665.847	-11.69
665.97	-8.69
666.092	19.31
666.214	11.31
666.336	-10.69
666.458	7.31
666.58	3.31
666.702	-4.69
666.825	1.31
666.947	-4.69
667.069	26.31
667.191	15.31
667.313	20.31
667.435	2.31
667.557	-8.69
667.68	-3.69
667.802	16.31
667.924	-3.69
668.046	15.31
668.168	18.31
668.29	27.31
668.412	7.31
668.535	16.31
668.657	20.31
668.779	-8.69
668.901	8.31
669.023	7.31
669.145	5.31
669.267	5.31
669.39	2.31
669.512	12.31
669.634	17.31
669.756	7.31
669.878	4.31
670	22.31
670.123	6.31
670.245	32.31
670.367	21.31
670.489	14.31
670.611	4.31
670.733	-3.69
670.856	-1.69
670.978	19.31
671.1	27.31
671.222	32.31
671.344	9.31
671.466	-4.69
671.589	-6.69
671.711	6.31
671.833	3.31
671.955	-1.69
672.077	3.31
672.199	17.31
672.322	20.31
672.444	16.31
672.566	3.31
672.688	15.31
672.81	18.31
672.932	24.31
673.055	15.31
673.177	20.31
673.299	37.31
673.421	-2.69
673.543	-5.69
673.665	55.31
673.788	26.31
673.91	6.31
674.032	-14.69
674.154	-0.69
674.276	1.31
674.399	15.31
674.521	6.31
674.643	5.31
674.765	5.31
674.887	15.31
675.009	6.31
675.132	-12.69
675.254	8.31
675.376	14.31
675.498	5.31
675.62	21.31
675.743	14.31
675.865	16.31
675.987	2.31
676.109	13.31
676.231	7.31
676.354	31.31
676.476	-3.69
676.598	1.31
676.72	8.31
676.842	36.31
676.965	9.31
677.087	13.31
677.209	21.31
677.331	41.31
677.453	18.31
677.576	-1.69
677.698	28.31
677.82	11.31
677.942	-10.69
678.064	9.31
678.187	6.31
678.309	7.31
678.431	12.31
678.553	11.31
678.675	25.31
678.798	25.31
678.92	16.31
679.042	12.31
679.164	16.31
679.286	23.31
679.409	7.31
679.531	-2.69
679.653	7.31
679.775	8.31
679.898	-4.69
680.02	14.31
680.142	13.31
680.264	21.31
680.386	-8.69
680.509	1.31
680.631	13.31
680.753	2.31
680.875	16.31
680.998	9.31
681.12	12.31
681.242	20.31
681.364	-6.69
681.486	13.31
681.609	4.31
681.731	4.31
681.853	-7.69
681.975	-0.69
682.098	30.31
682.22	27.31
682.342	12.31
682.464	12.31
682.587	13.31
682.709	13.31
682.831	3.31
682.953	8.31
683.076	6.31
683.198	14.31
683.32	12.31
683.442	1.31
683.565	27.31
683.687	15.31
683.809	12.31
683.931	-6.69
684.054	23.31
684.176	-1.69
684.298	13.31
684.42	4.31
684.543	4.31
684.665	12.31
684.787	17.31
684.909	-3.69
685.032	24.31
685.154	-8.69
685.276	20.31
685.398	-14.69
685.521	-11.69
685.643	5.31
685.765	15.31
685.887	18.31
686.01	27.31
686.132	12.31
686.254	21.31
686.377	24.31
686.499	6.31
686.621	19.31
686.743	10.31
686.866	11.31
686.988	11.31
687.11	7.31
687.232	5.31
687.355	-0.69
687.477	0.31
687.599	13.31
687.722	23.31
687.844	24.31
687.966	7.31
688.088	31.31
688.211	20.31
688.333	11.31
688.455	15.31
688.578	33.31
688.7	35.31
688.822	20.31
688.944	-11.69
689.067	46.31
689.189	7.31
689.311	9.31
689.434	5.31
689.556	24.31
689.678	20.31
689.801	10.31
689.923	9.31
690.045	26.31
690.167	14.31
690.29	24.31
690.412	7.31
690.534	20.31
690.657	11.31
690.779	2.31
690.901	11.31
691.024	16.31
691.146	21.31
691.268	7.31
691.391	18.31
691.513	20.31
691.635	21.31
691.758	22.31
691.88	25.31
692.002	5.31
692.125	5.31
692.247	12.31
692.369	0.31
692.492	5.31
692.614	-2.69
692.736	-1.69
692.859	8.31
692.981	3.31
693.103	17.31
693.226	9.31
693.348	24.31
693.47	14.31
693.593	33.31
693.715	31.31
693.837	11.31
693.96	17.31
694.082	0.31
694.204	15.31
694.327	1.31
694.449	-6.69
694.571	7.31
694.694	22.31
694.816	19.31
694.938	13.31
695.061	33.31
695.183	4.31
695.305	15.31
695.428	15.31
695.55	7.31
695.672	19.31
695.795	23.31
695.917	8.31
696.04	-7.69
696.162	-0.69
696.284	7.31
696.407	24.31
696.529	25.31
696.651	31.31
696.774	13.31
696.896	14.31
697.019	3.31
697.141	1.31
697.263	-4.69
697.386	-7.69
697.508	15.31
697.63	22.31
697.753	11.31
697.875	14.31
697.998	11.31
698.12	30.31
698.242	8.31
698.365	13.31
698.487	10.31
698.61	-2.69
698.732	17.31
698.854	21.31
698.977	6.31
699.099	16.31
699.221	4.31
699.344	9.31
699.466	22.31
699.589	17.31
699.711	-4.69
699.834	9.31
699.956	10.31
700.078	22.31
700.201	5.31
700.323	15.31
700.446	0.31
700.568	-3.69
700.69	4.31
700.813	20.31
700.935	4.31
701.058	0.31
701.18	19.31
701.302	2.31
701.425	12.31
701.547	16.31
701.67	4.31
701.792	9.31
701.915	7.31
702.037	8.31
702.159	16.31
702.282	23.31
702.404	14.31
702.527	3.31
702.649	28.31
702.772	15.31
702.894	13.31
703.017	12.31
703.139	3.31
703.261	8.31
703.384	16.31
703.506	-4.69
703.629	-0.69
703.751	25.31
703.874	11.31
703.996	11.31
704.119	20.31
704.241	21.31
704.364	10.31
704.486	12.31
704.608	23.31
704.731	6.31
704.853	21.31
704.976	8.31
705.098	14.31
705.221	13.31
705.343	4.31
705.466	13.31
705.588	18.31
705.711	5.31
705.833	12.31
705.956	19.31
706.078	19.31
706.201	5.31
706.323	3.31
706.446	-0.69
