Data from LowRes_mercury_15_20_11_07_2024_HR4C61881__7__15-23-32-970.txt Node

Date: Thu Nov 07 15:23:32 EST 2024
User: crc00042
Spectrometer: HR4C6188
Trigger mode: 4
Integration Time (sec): 1.000000E-1
Scans to average: 1
Electric dark correction enabled: true
Nonlinearity correction enabled: false
Boxcar width: 0
XAxis mode: Wavelengths
Number of Pixels in Spectrum: 3648
>>>>>Begin Spectral Data<<<<<
245.66	-88.54
245.797	-88.54
245.934	-88.54
246.071	-69.54
246.208	1.46
246.344	2.46
246.481	1.46
246.618	6.46
246.755	31.46
246.892	0.46
247.029	-7.54
247.165	-31.54
247.302	11.46
247.439	-8.54
247.576	-3.54
247.713	-24.54
247.849	28.46
247.986	-6.54
248.123	18.46
248.26	-8.54
248.396	-9.54
248.533	13.46
248.67	1.46
248.806	4.46
248.943	3.46
249.08	-17.54
249.216	10.46
249.353	-12.54
249.49	8.46
249.626	12.46
249.763	-11.54
249.9	-8.54
250.036	8.46
250.173	-8.54
250.309	-1.54
250.446	-0.54
250.582	-0.54
250.719	-6.54
250.856	-3.54
250.992	-16.54
251.129	-10.54
251.265	-19.54
251.402	20.46
251.538	-5.54
251.675	0.46
251.811	0.46
251.948	5.46
252.084	4.46
252.221	-12.54
252.357	-26.54
252.493	19.46
252.63	-15.54
252.766	7.46
252.903	-5.54
253.039	-22.54
253.175	-12.54
253.312	-3.54
253.448	-16.54
253.585	-26.54
253.721	29.46
253.857	0.46
253.994	2.46
254.13	-18.54
254.266	-16.54
254.403	-0.54
254.539	-3.54
254.675	-8.54
254.811	11.46
254.948	-4.54
255.084	-7.54
255.22	-6.54
255.356	-18.54
255.493	5.46
255.629	7.46
255.765	12.46
255.901	-1.54
256.037	-3.54
256.174	1.46
256.31	3.46
256.446	-8.54
256.582	-32.54
256.718	-13.54
256.854	2.46
256.991	-7.54
257.127	24.46
257.263	-7.54
257.399	-4.54
257.535	-19.54
257.671	-21.54
257.807	-22.54
257.943	0.46
258.079	-11.54
258.215	-6.54
258.351	-9.54
258.487	-0.54
258.623	17.46
258.759	-3.54
258.895	-8.54
259.031	-3.54
259.167	-3.54
259.303	22.46
259.439	5.46
259.575	-1.54
259.711	4.46
259.847	5.46
259.983	-1.54
260.119	-21.54
260.255	-4.54
260.391	2.46
260.527	2.46
260.663	-10.54
260.799	-5.54
260.934	-2.54
261.07	-0.54
261.206	-13.54
261.342	-21.54
261.478	18.46
261.614	15.46
261.749	-5.54
261.885	10.46
262.021	-0.54
262.157	15.46
262.293	-4.54
262.428	-3.54
262.564	-5.54
262.7	1.46
262.836	-1.54
262.971	5.46
263.107	-14.54
263.243	20.46
263.378	-4.54
263.514	-2.54
263.65	-7.54
263.785	-25.54
263.921	-1.54
264.057	-3.54
264.192	11.46
264.328	10.46
264.464	-6.54
264.599	2.46
264.735	10.46
264.871	-15.54
265.006	-5.54
265.142	10.46
265.277	15.46
265.413	23.46
265.548	28.46
265.684	-0.54
265.819	-6.54
265.955	-13.54
266.091	-13.54
266.226	-5.54
266.362	11.46
266.497	10.46
266.633	12.46
266.768	-6.54
266.903	12.46
267.039	12.46
267.174	-0.54
267.31	-10.54
267.445	-1.54
267.581	-4.54
267.716	13.46
267.851	9.46
267.987	-4.54
268.122	-13.54
268.258	-8.54
268.393	-14.54
268.528	11.46
268.664	3.46
268.799	-8.54
268.934	2.46
269.07	-7.54
269.205	22.46
269.34	12.46
269.476	10.46
269.611	-12.54
269.746	5.46
269.881	15.46
270.017	8.46
270.152	5.46
270.287	-4.54
270.422	30.46
270.558	5.46
270.693	10.46
270.828	-14.54
270.963	-1.54
271.098	-11.54
271.234	-12.54
271.369	2.46
271.504	-13.54
271.639	-14.54
271.774	-3.54
271.909	-0.54
272.045	-25.54
272.18	3.46
272.315	7.46
272.45	13.46
272.585	-1.54
272.72	-2.54
272.855	9.46
272.99	30.46
273.125	3.46
273.26	-4.54
273.395	5.46
273.53	24.46
273.665	28.46
273.8	-4.54
273.935	17.46
274.07	14.46
274.205	7.46
274.34	-8.54
274.475	-13.54
274.61	12.46
274.745	-21.54
274.88	21.46
275.015	-19.54
275.15	-0.54
275.285	25.46
275.42	-2.54
275.555	2.46
275.69	-8.54
275.825	-18.54
275.959	5.46
276.094	-11.54
276.229	-10.54
276.364	-9.54
276.499	-10.54
276.634	2.46
276.768	-6.54
276.903	5.46
277.038	10.46
277.173	-7.54
277.308	5.46
277.442	6.46
277.577	0.46
277.712	10.46
277.847	0.46
277.981	12.46
278.116	-32.54
278.251	-2.54
278.386	1.46
278.52	3.46
278.655	-6.54
278.79	5.46
278.924	6.46
279.059	6.46
279.194	-8.54
279.328	41.46
279.463	4.46
279.598	5.46
279.732	18.46
279.867	2.46
280.001	8.46
280.136	-12.54
280.271	16.46
280.405	2.46
280.54	-8.54
280.674	-3.54
280.809	14.46
280.943	-3.54
281.078	-4.54
281.213	17.46
281.347	24.46
281.482	21.46
281.616	2.46
281.751	-1.54
281.885	-11.54
282.02	-19.54
282.154	11.46
282.288	-12.54
282.423	5.46
282.557	-17.54
282.692	21.46
282.826	0.46
282.961	16.46
283.095	1.46
283.229	-9.54
283.364	-25.54
283.498	-7.54
283.633	3.46
283.767	10.46
283.901	-3.54
284.036	-1.54
284.17	-6.54
284.304	-8.54
284.439	23.46
284.573	-18.54
284.707	3.46
284.842	12.46
284.976	-1.54
285.11	0.46
285.244	-4.54
285.379	21.46
285.513	-19.54
285.647	5.46
285.781	0.46
285.916	9.46
286.05	-0.54
286.184	20.46
286.318	3.46
286.453	1.46
286.587	-18.54
286.721	-25.54
286.855	-16.54
286.989	13.46
287.123	-0.54
287.258	-12.54
287.392	-13.54
287.526	5.46
287.66	13.46
287.794	9.46
287.928	0.46
288.062	25.46
288.196	-2.54
288.33	6.46
288.464	29.46
288.598	19.46
288.733	22.46
288.867	7.46
289.001	-12.54
289.135	6.46
289.269	-10.54
289.403	-2.54
289.537	10.46
289.671	16.46
289.805	-13.54
289.939	2.46
290.073	4.46
290.207	15.46
290.34	-9.54
290.474	22.46
290.608	8.46
290.742	-10.54
290.876	-7.54
291.01	-6.54
291.144	25.46
291.278	18.46
291.412	9.46
291.546	9.46
291.679	-15.54
291.813	16.46
291.947	14.46
292.081	-20.54
292.215	-3.54
292.349	5.46
292.482	14.46
292.616	5.46
292.75	-4.54
292.884	20.46
293.018	-13.54
293.151	-20.54
293.285	4.46
293.419	-16.54
293.553	5.46
293.686	8.46
293.82	12.46
293.954	12.46
294.088	25.46
294.221	5.46
294.355	11.46
294.489	15.46
294.622	-10.54
294.756	-5.54
294.89	-16.54
295.023	13.46
295.157	13.46
295.291	0.46
295.424	28.46
295.558	-11.54
295.691	-4.54
295.825	-9.54
295.959	2.46
296.092	16.46
296.226	-0.54
296.359	-12.54
296.493	20.46
296.627	-2.54
296.76	-4.54
296.894	-9.54
297.027	-6.54
297.161	-3.54
297.294	-14.54
297.428	3.46
297.561	16.46
297.695	-4.54
297.828	-6.54
297.962	23.46
298.095	-3.54
298.229	-12.54
298.362	-12.54
298.495	-11.54
298.629	-8.54
298.762	11.46
298.896	-11.54
299.029	-23.54
299.162	-5.54
299.296	-10.54
299.429	-5.54
299.563	-7.54
299.696	-1.54
299.829	2.46
299.963	9.46
300.096	13.46
300.229	14.46
300.363	-11.54
300.496	-0.54
300.629	-16.54
300.763	6.46
300.896	-3.54
301.029	2.46
301.162	-4.54
301.296	-7.54
301.429	12.46
301.562	-5.54
301.695	5.46
301.829	4.46
301.962	11.46
302.095	-17.54
302.228	-30.54
302.362	0.46
302.495	-1.54
302.628	6.46
302.761	12.46
302.894	-9.54
303.027	21.46
303.161	10.46
303.294	-21.54
303.427	9.46
303.56	-5.54
303.693	-18.54
303.826	-20.54
303.959	-0.54
304.092	-8.54
304.225	-14.54
304.359	8.46
304.492	23.46
304.625	-2.54
304.758	5.46
304.891	-18.54
305.024	3.46
305.157	-8.54
305.29	-12.54
305.423	6.46
305.556	15.46
305.689	26.46
305.822	3.46
305.955	6.46
306.088	3.46
306.221	7.46
306.354	8.46
306.487	-34.54
306.62	-18.54
306.752	-18.54
306.885	4.46
307.018	-4.54
307.151	12.46
307.284	7.46
307.417	-6.54
307.55	12.46
307.683	21.46
307.816	3.46
307.948	-9.54
308.081	2.46
308.214	-3.54
308.347	24.46
308.48	-16.54
308.613	-18.54
308.745	-1.54
308.878	-3.54
309.011	-7.54
309.144	3.46
309.277	-9.54
309.409	3.46
309.542	-11.54
309.675	26.46
309.808	12.46
309.94	41.46
310.073	-1.54
310.206	-0.54
310.339	-2.54
310.471	-19.54
310.604	-2.54
310.737	-9.54
310.869	-13.54
311.002	5.46
311.135	7.46
311.267	-19.54
311.4	-11.54
311.533	11.46
311.665	6.46
311.798	13.46
311.93	7.46
312.063	31.46
312.196	57.46
312.328	63.46
312.461	43.46
312.593	21.46
312.726	67.46
312.859	88.46
312.991	162.46
313.124	50.46
313.256	23.46
313.389	3.46
313.521	-22.54
313.654	3.46
313.786	-20.54
313.919	11.46
314.051	-11.54
314.184	16.46
314.316	12.46
314.449	-22.54
314.581	0.46
314.714	-9.54
314.846	15.46
314.978	-1.54
315.111	-4.54
315.243	11.46
315.376	10.46
315.508	27.46
315.641	-2.54
315.773	4.46
315.905	-0.54
316.038	-1.54
316.17	7.46
316.302	-0.54
316.435	2.46
316.567	-12.54
316.699	30.46
316.832	2.46
316.964	1.46
317.096	-4.54
317.229	-0.54
317.361	-26.54
317.493	-4.54
317.625	-5.54
317.758	0.46
317.89	11.46
318.022	-11.54
318.155	-13.54
318.287	-5.54
318.419	-13.54
318.551	2.46
318.683	-4.54
318.816	-9.54
318.948	-8.54
319.08	-6.54
319.212	19.46
319.344	6.46
319.477	-16.54
319.609	8.46
319.741	17.46
319.873	-7.54
320.005	-9.54
320.137	15.46
320.269	-3.54
320.401	-12.54
320.534	0.46
320.666	-11.54
320.798	-8.54
320.93	2.46
321.062	-7.54
321.194	4.46
321.326	12.46
321.458	12.46
321.59	2.46
321.722	3.46
321.854	-4.54
321.986	-1.54
322.118	12.46
322.25	-17.54
322.382	-2.54
322.514	-10.54
322.646	-11.54
322.778	8.46
322.91	-18.54
323.042	-3.54
323.174	9.46
323.306	-4.54
323.438	-17.54
323.57	-12.54
323.702	-2.54
323.834	1.46
323.966	-20.54
324.097	-5.54
324.229	8.46
324.361	3.46
324.493	5.46
324.625	-7.54
324.757	3.46
324.889	1.46
325.021	8.46
325.152	6.46
325.284	9.46
325.416	-1.54
325.548	22.46
325.68	1.46
325.811	18.46
325.943	19.46
326.075	-9.54
326.207	11.46
326.339	1.46
326.47	-13.54
326.602	29.46
326.734	14.46
326.866	4.46
326.997	-25.54
327.129	2.46
327.261	-3.54
327.392	-8.54
327.524	-0.54
327.656	-0.54
327.787	2.46
327.919	2.46
328.051	4.46
328.182	16.46
328.314	16.46
328.446	-6.54
328.577	2.46
328.709	28.46
328.841	-23.54
328.972	-8.54
329.104	-12.54
329.235	3.46
329.367	-3.54
329.499	12.46
329.63	5.46
329.762	12.46
329.893	5.46
330.025	-11.54
330.156	-22.54
330.288	9.46
330.419	12.46
330.551	26.46
330.683	9.46
330.814	-6.54
330.946	13.46
331.077	-9.54
331.208	-15.54
331.34	-12.54
331.471	-22.54
331.603	-13.54
331.734	-23.54
331.866	1.46
331.997	8.46
332.129	7.46
332.26	-5.54
332.392	8.46
332.523	-1.54
332.654	-25.54
332.786	-19.54
332.917	-18.54
333.048	10.46
333.18	12.46
333.311	7.46
333.443	7.46
333.574	5.46
333.705	28.46
333.837	34.46
333.968	127.46
334.099	229.46
334.231	206.46
334.362	52.46
334.493	22.46
334.624	20.46
334.756	13.46
334.887	24.46
335.018	14.46
335.15	17.46
335.281	24.46
335.412	30.46
335.543	15.46
335.675	-9.54
335.806	5.46
335.937	4.46
336.068	11.46
336.199	45.46
336.331	-4.54
336.462	4.46
336.593	10.46
336.724	2.46
336.855	-0.54
336.986	11.46
337.118	21.46
337.249	22.46
337.38	18.46
337.511	-3.54
337.642	8.46
337.773	10.46
337.904	18.46
338.035	25.46
338.166	-5.54
338.298	8.46
338.429	5.46
338.56	29.46
338.691	25.46
338.822	9.46
338.953	14.46
339.084	20.46
339.215	19.46
339.346	3.46
339.477	-0.54
339.608	12.46
339.739	-9.54
339.87	-4.54
340.001	-6.54
340.132	18.46
340.263	-10.54
340.394	5.46
340.525	21.46
340.656	0.46
340.787	-5.54
340.918	24.46
341.049	11.46
341.179	17.46
341.31	-12.54
341.441	11.46
341.572	30.46
341.703	7.46
341.834	9.46
341.965	21.46
342.096	-0.54
342.227	10.46
342.357	1.46
342.488	2.46
342.619	12.46
342.75	14.46
342.881	-0.54
343.012	26.46
343.142	27.46
343.273	-7.54
343.404	7.46
343.535	19.46
343.666	18.46
343.796	18.46
343.927	18.46
344.058	42.46
344.189	29.46
344.319	25.46
344.45	20.46
344.581	13.46
344.712	0.46
344.842	20.46
344.973	4.46
345.104	34.46
345.234	14.46
345.365	1.46
345.496	22.46
345.626	30.46
345.757	23.46
345.888	-16.54
346.018	12.46
346.149	23.46
346.28	44.46
346.41	25.46
346.541	33.46
346.672	14.46
346.802	57.46
346.933	26.46
347.063	48.46
347.194	27.46
347.325	48.46
347.455	22.46
347.586	17.46
347.716	-9.54
347.847	33.46
347.977	27.46
348.108	37.46
348.238	46.46
348.369	20.46
348.499	50.46
348.63	59.46
348.76	54.46
348.891	46.46
349.021	38.46
349.152	63.46
349.282	55.46
349.413	46.46
349.543	53.46
349.674	44.46
349.804	58.46
349.935	20.46
350.065	25.46
350.196	17.46
350.326	30.46
350.456	4.46
350.587	38.46
350.717	20.46
350.848	13.46
350.978	14.46
351.108	15.46
351.239	30.46
351.369	17.46
351.499	20.46
351.63	17.46
351.76	16.46
351.89	-6.54
352.021	21.46
352.151	11.46
352.281	22.46
352.412	18.46
352.542	22.46
352.672	11.46
352.803	28.46
352.933	30.46
353.063	35.46
353.193	29.46
353.324	21.46
353.454	27.46
353.584	21.46
353.714	-3.54
353.845	27.46
353.975	-10.54
354.105	9.46
354.235	19.46
354.365	12.46
354.496	18.46
354.626	24.46
354.756	9.46
354.886	14.46
355.016	14.46
355.146	20.46
355.277	20.46
355.407	23.46
355.537	18.46
355.667	25.46
355.797	4.46
355.927	27.46
356.057	8.46
356.187	12.46
356.318	5.46
356.448	7.46
356.578	24.46
356.708	28.46
356.838	28.46
356.968	12.46
357.098	28.46
357.228	39.46
357.358	19.46
357.488	17.46
357.618	60.46
357.748	23.46
357.878	38.46
358.008	32.46
358.138	14.46
358.268	16.46
358.398	29.46
358.528	-0.54
358.658	22.46
358.788	13.46
358.918	35.46
359.048	5.46
359.178	30.46
359.308	29.46
359.438	44.46
359.568	42.46
359.698	33.46
359.827	23.46
359.957	37.46
360.087	34.46
360.217	39.46
360.347	38.46
360.477	36.46
360.607	10.46
360.737	26.46
360.866	30.46
360.996	12.46
361.126	22.46
361.256	38.46
361.386	33.46
361.516	26.46
361.645	5.46
361.775	21.46
361.905	19.46
362.035	29.46
362.165	52.46
362.294	40.46
362.424	35.46
362.554	36.46
362.684	31.46
362.813	33.46
362.943	54.46
363.073	55.46
363.203	73.46
363.332	63.46
363.462	71.46
363.592	105.46
363.721	122.46
363.851	184.46
363.981	201.46
364.111	249.46
364.24	325.46
364.37	494.46
364.5	857.46
364.629	1844.46
364.759	3951.46
364.888	6405.46
365.018	9610.46
365.148	14885.46
365.277	13132.46
365.407	4853.46
365.537	3176.46
365.666	4139.46
365.796	1894.46
365.925	806.46
366.055	777.46
366.184	1019.46
366.314	1407.46
366.444	2521.46
366.573	2163.46
366.703	677.46
366.832	218.46
366.962	126.46
367.091	86.46
367.221	92.46
367.35	72.46
367.48	89.46
367.609	43.46
367.739	42.46
367.868	15.46
367.998	40.46
368.127	59.46
368.257	41.46
368.386	30.46
368.516	49.46
368.645	31.46
368.775	58.46
368.904	50.46
369.033	25.46
369.163	34.46
369.292	50.46
369.422	19.46
369.551	46.46
369.68	36.46
369.81	28.46
369.939	33.46
370.069	42.46
370.198	43.46
370.327	23.46
370.457	24.46
370.586	31.46
370.715	34.46
370.845	33.46
370.974	43.46
371.103	44.46
371.233	30.46
371.362	53.46
371.491	30.46
371.621	52.46
371.75	52.46
371.879	38.46
372.008	59.46
372.138	45.46
372.267	44.46
372.396	52.46
372.525	28.46
372.655	23.46
372.784	23.46
372.913	33.46
373.042	25.46
373.172	32.46
373.301	20.46
373.43	16.46
373.559	10.46
373.688	24.46
373.818	30.46
373.947	15.46
374.076	18.46
374.205	23.46
374.334	25.46
374.463	3.46
374.593	5.46
374.722	12.46
374.851	51.46
374.98	2.46
375.109	25.46
375.238	29.46
375.367	38.46
375.496	-8.54
375.625	11.46
375.755	24.46
375.884	27.46
376.013	15.46
376.142	5.46
376.271	24.46
376.4	23.46
376.529	31.46
376.658	26.46
376.787	25.46
376.916	13.46
377.045	17.46
377.174	16.46
377.303	14.46
377.432	34.46
377.561	40.46
377.69	4.46
377.819	22.46
377.948	7.46
378.077	3.46
378.206	4.46
378.335	5.46
378.464	4.46
378.593	16.46
378.722	0.46
378.851	13.46
378.98	18.46
379.108	9.46
379.237	10.46
379.366	19.46
379.495	13.46
379.624	-2.54
379.753	6.46
379.882	17.46
380.011	-4.54
380.14	-20.54
380.268	13.46
380.397	14.46
380.526	48.46
380.655	12.46
380.784	-10.54
380.913	-6.54
381.041	3.46
381.17	-3.54
381.299	-7.54
381.428	9.46
381.557	-6.54
381.685	14.46
381.814	19.46
381.943	13.46
382.072	3.46
382.2	-7.54
382.329	18.46
382.458	6.46
382.587	27.46
382.715	23.46
382.844	15.46
382.973	21.46
383.102	14.46
383.23	17.46
383.359	13.46
383.488	17.46
383.616	-8.54
383.745	-3.54
383.874	12.46
384.003	7.46
384.131	2.46
384.26	11.46
384.389	20.46
384.517	14.46
384.646	8.46
384.774	17.46
384.903	26.46
385.032	21.46
385.16	15.46
385.289	-4.54
385.418	-5.54
385.546	24.46
385.675	22.46
385.803	14.46
385.932	25.46
386.06	6.46
386.189	15.46
386.318	20.46
386.446	24.46
386.575	28.46
386.703	17.46
386.832	15.46
386.96	0.46
387.089	26.46
387.217	19.46
387.346	12.46
387.474	13.46
387.603	4.46
387.731	22.46
387.86	39.46
387.988	16.46
388.117	29.46
388.245	27.46
388.374	19.46
388.502	39.46
388.631	-1.54
388.759	16.46
388.888	26.46
389.016	-2.54
389.144	7.46
389.273	22.46
389.401	11.46
389.53	-1.54
389.658	40.46
389.786	11.46
389.915	25.46
390.043	-3.54
390.172	25.46
390.3	46.46
390.428	43.46
390.557	3.46
390.685	24.46
390.813	47.46
390.942	45.46
391.07	20.46
391.198	14.46
391.327	-8.54
391.455	17.46
391.583	24.46
391.712	31.46
391.84	28.46
391.968	35.46
392.096	15.46
392.225	21.46
392.353	27.46
392.481	25.46
392.609	38.46
392.738	27.46
392.866	31.46
392.994	25.46
393.122	35.46
393.251	13.46
393.379	6.46
393.507	2.46
393.635	33.46
393.764	31.46
393.892	23.46
394.02	17.46
394.148	19.46
394.276	38.46
394.404	32.46
394.533	22.46
394.661	21.46
394.789	50.46
394.917	33.46
395.045	13.46
395.173	23.46
395.302	12.46
395.43	29.46
395.558	42.46
395.686	34.46
395.814	26.46
395.942	19.46
396.07	44.46
396.198	36.46
396.326	37.46
396.454	49.46
396.582	45.46
396.711	18.46
396.839	32.46
396.967	41.46
397.095	27.46
397.223	32.46
397.351	50.46
397.479	34.46
397.607	36.46
397.735	35.46
397.863	34.46
397.991	23.46
398.119	31.46
398.247	58.46
398.375	62.46
398.503	52.46
398.631	37.46
398.759	43.46
398.887	72.46
399.015	51.46
399.143	40.46
399.271	40.46
399.399	70.46
399.526	72.46
399.654	75.46
399.782	63.46
399.91	91.46
400.038	91.46
400.166	89.46
400.294	86.46
400.422	65.46
400.55	102.46
400.678	98.46
400.805	106.46
400.933	106.46
401.061	119.46
401.189	125.46
401.317	141.46
401.445	95.46
401.573	84.46
401.7	48.46
401.828	44.46
401.956	41.46
402.084	40.46
402.212	35.46
402.34	19.46
402.467	44.46
402.595	50.46
402.723	43.46
402.851	59.46
402.978	51.46
403.106	78.46
403.234	84.46
403.362	108.46
403.489	152.46
403.617	179.46
403.745	171.46
403.873	287.46
404	572.46
404.128	1498.46
404.256	4013.46
404.384	5249.46
404.511	5548.46
404.639	7257.46
404.767	11570.46
404.894	14702.46
405.022	4976.46
405.15	1313.46
405.277	435.46
405.405	234.46
405.533	118.46
405.66	113.46
405.788	60.46
405.916	50.46
406.043	39.46
406.171	79.46
406.299	48.46
406.426	52.46
406.554	48.46
406.681	80.46
406.809	48.46
406.937	62.46
407.064	58.46
407.192	112.46
407.319	302.46
407.447	529.46
407.574	547.46
407.702	628.46
407.83	860.46
407.957	1644.46
408.085	939.46
408.212	294.46
408.34	112.46
408.467	59.46
408.595	43.46
408.722	55.46
408.85	39.46
408.977	30.46
409.105	24.46
409.232	42.46
409.36	35.46
409.487	38.46
409.615	48.46
409.742	47.46
409.87	28.46
409.997	28.46
410.125	33.46
410.252	45.46
410.379	17.46
410.507	47.46
410.634	49.46
410.762	25.46
410.889	33.46
411.017	22.46
411.144	46.46
411.271	9.46
411.399	24.46
411.526	44.46
411.653	32.46
411.781	18.46
411.908	52.46
412.036	22.46
412.163	35.46
412.29	22.46
412.418	9.46
412.545	19.46
412.672	33.46
412.8	44.46
412.927	33.46
413.054	36.46
413.182	29.46
413.309	29.46
413.436	18.46
413.564	23.46
413.691	35.46
413.818	61.46
413.945	2.46
414.073	11.46
414.2	21.46
414.327	31.46
414.454	23.46
414.582	13.46
414.709	20.46
414.836	26.46
414.963	16.46
415.091	16.46
415.218	35.46
415.345	30.46
415.472	19.46
415.6	6.46
415.727	33.46
415.854	34.46
415.981	16.46
416.108	20.46
416.236	24.46
416.363	29.46
416.49	30.46
416.617	20.46
416.744	31.46
416.871	29.46
416.998	22.46
417.126	29.46
417.253	18.46
417.38	19.46
417.507	23.46
417.634	34.46
417.761	36.46
417.888	43.46
418.015	25.46
418.143	20.46
418.27	43.46
418.397	18.46
418.524	-0.54
418.651	16.46
418.778	34.46
418.905	46.46
419.032	23.46
419.159	35.46
419.286	61.46
419.413	54.46
419.54	44.46
419.667	26.46
419.794	21.46
419.921	59.46
420.048	59.46
420.175	53.46
420.302	45.46
420.429	55.46
420.556	66.46
420.683	51.46
420.81	58.46
420.937	75.46
421.064	70.46
421.191	73.46
421.318	62.46
421.445	74.46
421.572	45.46
421.699	53.46
421.826	35.46
421.953	28.46
422.08	36.46
422.207	1.46
422.334	-7.54
422.461	21.46
422.588	8.46
422.714	34.46
422.841	24.46
422.968	38.46
423.095	27.46
423.222	15.46
423.349	14.46
423.476	9.46
423.603	17.46
423.729	9.46
423.856	26.46
423.983	35.46
424.11	16.46
424.237	25.46
424.364	13.46
424.491	14.46
424.617	1.46
424.744	3.46
424.871	10.46
424.998	7.46
425.125	12.46
425.251	19.46
425.378	-2.54
425.505	6.46
425.632	23.46
425.758	13.46
425.885	0.46
426.012	28.46
426.139	40.46
426.266	29.46
426.392	37.46
426.519	30.46
426.646	15.46
426.772	37.46
426.899	19.46
427.026	27.46
427.153	-1.54
427.279	28.46
427.406	29.46
427.533	29.46
427.659	22.46
427.786	25.46
427.913	25.46
428.039	17.46
428.166	12.46
428.293	-2.54
428.419	38.46
428.546	27.46
428.673	20.46
428.799	16.46
428.926	23.46
429.053	36.46
429.179	27.46
429.306	53.46
429.433	37.46
429.559	30.46
429.686	-9.54
429.812	6.46
429.939	13.46
430.066	21.46
430.192	10.46
430.319	24.46
430.445	18.46
430.572	27.46
430.699	2.46
430.825	19.46
430.952	13.46
431.078	20.46
431.205	34.46
431.331	35.46
431.458	23.46
431.584	20.46
431.711	11.46
431.837	23.46
431.964	17.46
432.09	26.46
432.217	7.46
432.343	14.46
432.47	35.46
432.596	47.46
432.723	25.46
432.849	15.46
432.976	28.46
433.102	30.46
433.229	40.46
433.355	55.46
433.482	95.46
433.608	103.46
433.735	106.46
433.861	108.46
433.987	149.46
434.114	186.46
434.24	158.46
434.367	233.46
434.493	220.46
434.62	303.46
434.746	364.46
434.872	614.46
434.999	853.46
435.125	1724.46
435.252	5533.46
435.378	13449.46
435.504	15222.46
435.631	15470.46
435.757	15680.46
435.883	15680.46
436.01	15680.46
436.136	15680.46
436.262	15680.46
436.389	3534.46
436.515	2493.46
436.641	852.46
436.768	645.46
436.894	400.46
437.02	398.46
437.147	286.46
437.273	277.46
437.399	209.46
437.526	235.46
437.652	155.46
437.778	191.46
437.904	123.46
438.031	169.46
438.157	161.46
438.283	156.46
438.409	111.46
438.536	94.46
438.662	130.46
438.788	131.46
438.914	112.46
439.041	109.46
439.167	116.46
439.293	99.46
439.419	92.46
439.546	94.46
439.672	71.46
439.798	83.46
439.924	70.46
440.05	88.46
440.177	82.46
440.303	89.46
440.429	60.46
440.555	69.46
440.681	62.46
440.807	66.46
440.934	38.46
441.06	56.46
441.186	52.46
441.312	44.46
441.438	67.46
441.564	78.46
441.69	66.46
441.816	60.46
441.943	45.46
442.069	56.46
442.195	44.46
442.321	49.46
442.447	36.46
442.573	38.46
442.699	37.46
442.825	33.46
442.951	44.46
443.077	66.46
443.203	48.46
443.33	50.46
443.456	38.46
443.582	28.46
443.708	32.46
443.834	66.46
443.96	44.46
444.086	33.46
444.212	58.46
444.338	44.46
444.464	64.46
444.59	55.46
444.716	40.46
444.842	51.46
444.968	33.46
445.094	25.46
445.22	29.46
445.346	25.46
445.472	34.46
445.598	36.46
445.724	24.46
445.85	44.46
445.976	20.46
446.102	26.46
446.228	46.46
446.354	27.46
446.48	29.46
446.605	27.46
446.731	29.46
446.857	17.46
446.983	24.46
447.109	23.46
447.235	22.46
447.361	15.46
447.487	30.46
447.613	34.46
447.739	17.46
447.865	37.46
447.99	37.46
448.116	42.46
448.242	30.46
448.368	22.46
448.494	4.46
448.62	39.46
448.746	35.46
448.872	32.46
448.997	11.46
449.123	7.46
449.249	29.46
449.375	19.46
449.501	19.46
449.627	5.46
449.752	35.46
449.878	19.46
450.004	19.46
450.13	23.46
450.256	31.46
450.381	6.46
450.507	17.46
450.633	18.46
450.759	31.46
450.884	35.46
451.01	15.46
451.136	23.46
451.262	37.46
451.388	42.46
451.513	14.46
451.639	22.46
451.765	8.46
451.89	14.46
452.016	13.46
452.142	32.46
452.268	25.46
452.393	20.46
452.519	2.46
452.645	16.46
452.771	29.46
452.896	16.46
453.022	20.46
453.148	43.46
453.273	29.46
453.399	17.46
453.525	10.46
453.65	11.46
453.776	10.46
453.902	23.46
454.027	29.46
454.153	15.46
454.279	22.46
454.404	13.46
454.53	29.46
454.656	41.46
454.781	15.46
454.907	38.46
455.032	6.46
455.158	25.46
455.284	39.46
455.409	32.46
455.535	29.46
455.66	26.46
455.786	30.46
455.912	23.46
456.037	9.46
456.163	21.46
456.288	31.46
456.414	17.46
456.539	19.46
456.665	34.46
456.791	18.46
456.916	-0.54
457.042	24.46
457.167	7.46
457.293	23.46
457.418	20.46
457.544	9.46
457.669	13.46
457.795	4.46
457.92	31.46
458.046	19.46
458.171	43.46
458.297	11.46
458.422	16.46
458.548	12.46
458.673	28.46
458.799	0.46
458.924	14.46
459.05	24.46
459.175	10.46
459.301	16.46
459.426	26.46
459.552	27.46
459.677	34.46
459.803	30.46
459.928	20.46
460.053	24.46
460.179	30.46
460.304	38.46
460.43	-2.54
460.555	11.46
460.681	14.46
460.806	20.46
460.931	44.46
461.057	21.46
461.182	22.46
461.308	22.46
461.433	44.46
461.558	3.46
461.684	35.46
461.809	31.46
461.934	20.46
462.06	46.46
462.185	23.46
462.311	15.46
462.436	42.46
462.561	37.46
462.687	23.46
462.812	14.46
462.937	26.46
463.063	18.46
463.188	14.46
463.313	13.46
463.439	19.46
463.564	14.46
463.689	26.46
463.814	3.46
463.94	22.46
464.065	22.46
464.19	14.46
464.316	6.46
464.441	4.46
464.566	-8.54
464.692	22.46
464.817	15.46
464.942	16.46
465.067	14.46
465.193	3.46
465.318	3.46
465.443	17.46
465.568	21.46
465.694	19.46
465.819	33.46
465.944	30.46
466.069	17.46
466.194	31.46
466.32	43.46
466.445	25.46
466.57	21.46
466.695	17.46
466.82	10.46
466.946	24.46
467.071	27.46
467.196	21.46
467.321	32.46
467.446	31.46
467.572	28.46
467.697	26.46
467.822	27.46
467.947	54.46
468.072	17.46
468.197	-1.54
468.323	6.46
468.448	15.46
468.573	19.46
468.698	7.46
468.823	21.46
468.948	22.46
469.073	22.46
469.198	37.46
469.324	47.46
469.449	29.46
469.574	40.46
469.699	30.46
469.824	27.46
469.949	32.46
470.074	12.46
470.199	44.46
470.324	56.46
470.449	54.46
470.574	25.46
470.7	17.46
470.825	43.46
470.95	52.46
471.075	17.46
471.2	37.46
471.325	39.46
471.45	31.46
471.575	24.46
471.7	32.46
471.825	10.46
471.95	26.46
472.075	19.46
472.2	28.46
472.325	19.46
472.45	15.46
472.575	21.46
472.7	31.46
472.825	50.46
472.95	37.46
473.075	30.46
473.2	29.46
473.325	40.46
473.45	38.46
473.575	49.46
473.7	51.46
473.825	18.46
473.95	30.46
474.075	27.46
474.2	13.46
474.325	2.46
474.45	36.46
474.574	29.46
474.699	22.46
474.824	27.46
474.949	0.46
475.074	22.46
475.199	45.46
475.324	26.46
475.449	12.46
475.574	11.46
475.699	-5.54
475.824	0.46
475.949	13.46
476.073	13.46
476.198	15.46
476.323	21.46
476.448	13.46
476.573	14.46
476.698	28.46
476.823	13.46
476.947	3.46
477.072	-2.54
477.197	8.46
477.322	10.46
477.447	7.46
477.572	14.46
477.697	18.46
477.821	32.46
477.946	38.46
478.071	22.46
478.196	17.46
478.321	23.46
478.445	6.46
478.57	8.46
478.695	19.46
478.82	26.46
478.945	37.46
479.069	12.46
479.194	11.46
479.319	27.46
479.444	33.46
479.569	11.46
479.693	21.46
479.818	1.46
479.943	15.46
480.068	39.46
480.192	28.46
480.317	22.46
480.442	23.46
480.567	8.46
480.691	17.46
480.816	18.46
480.941	0.46
481.066	12.46
481.19	33.46
481.315	37.46
481.44	10.46
481.564	6.46
481.689	16.46
481.814	27.46
481.938	12.46
482.063	-12.54
482.188	9.46
482.313	25.46
482.437	11.46
482.562	19.46
482.687	22.46
482.811	15.46
482.936	21.46
483.061	26.46
483.185	7.46
483.31	10.46
483.435	18.46
483.559	24.46
483.684	22.46
483.808	38.46
483.933	11.46
484.058	17.46
484.182	27.46
484.307	22.46
484.432	13.46
484.556	22.46
484.681	18.46
484.805	18.46
484.93	18.46
485.055	31.46
485.179	50.46
485.304	23.46
485.428	17.46
485.553	-2.54
485.678	13.46
485.802	16.46
485.927	37.46
486.051	26.46
486.176	10.46
486.3	20.46
486.425	23.46
486.549	15.46
486.674	14.46
486.799	27.46
486.923	22.46
487.048	-1.54
487.172	3.46
487.297	13.46
487.421	28.46
487.546	1.46
487.67	22.46
487.795	24.46
487.919	11.46
488.044	37.46
488.168	17.46
488.293	24.46
488.417	21.46
488.542	20.46
488.666	28.46
488.791	21.46
488.915	21.46
489.04	22.46
489.164	31.46
489.289	33.46
489.413	32.46
489.538	23.46
489.662	44.46
489.786	17.46
489.911	2.46
490.035	7.46
490.16	14.46
490.284	8.46
490.409	9.46
490.533	11.46
490.658	41.46
490.782	-5.54
490.906	46.46
491.031	106.46
491.155	133.46
491.28	154.46
491.404	155.46
491.528	247.46
491.653	155.46
491.777	74.46
491.902	35.46
492.026	27.46
492.15	28.46
492.275	26.46
492.399	7.46
492.524	8.46
492.648	28.46
492.772	32.46
492.897	38.46
493.021	17.46
493.145	33.46
493.27	27.46
493.394	32.46
493.518	18.46
493.643	-0.54
493.767	24.46
493.891	4.46
494.016	12.46
494.14	5.46
494.264	23.46
494.389	19.46
494.513	13.46
494.637	9.46
494.762	9.46
494.886	20.46
495.01	20.46
495.134	10.46
495.259	37.46
495.383	20.46
495.507	7.46
495.632	18.46
495.756	58.46
495.88	23.46
496.004	25.46
496.129	-10.54
496.253	6.46
496.377	34.46
496.501	41.46
496.626	-14.54
496.75	9.46
496.874	25.46
496.998	19.46
497.123	33.46
497.247	17.46
497.371	9.46
497.495	19.46
497.62	8.46
497.744	5.46
497.868	-1.54
497.992	14.46
498.116	17.46
498.241	8.46
498.365	0.46
498.489	22.46
498.613	27.46
498.737	10.46
498.862	8.46
498.986	3.46
499.11	15.46
499.234	11.46
499.358	4.46
499.482	5.46
499.607	23.46
499.731	15.46
499.855	46.46
499.979	19.46
500.103	28.46
500.227	23.46
500.351	21.46
500.476	5.46
500.6	1.46
500.724	7.46
500.848	17.46
500.972	19.46
501.096	12.46
501.22	42.46
501.344	2.46
501.469	11.46
501.593	15.46
501.717	42.46
501.841	38.46
501.965	20.46
502.089	11.46
502.213	26.46
502.337	7.46
502.461	2.46
502.585	19.46
502.709	12.46
502.834	14.46
502.958	18.46
503.082	29.46
503.206	31.46
503.33	34.46
503.454	24.46
503.578	31.46
503.702	15.46
503.826	17.46
503.95	28.46
504.074	14.46
504.198	5.46
504.322	6.46
504.446	15.46
504.57	15.46
504.694	30.46
504.818	19.46
504.942	15.46
505.066	18.46
505.19	11.46
505.314	17.46
505.438	26.46
505.562	13.46
505.686	19.46
505.81	35.46
505.934	16.46
506.058	12.46
506.182	24.46
506.306	19.46
506.43	-2.54
506.554	8.46
506.678	11.46
506.802	15.46
506.926	33.46
507.05	30.46
507.174	22.46
507.298	28.46
507.422	26.46
507.546	17.46
507.67	39.46
507.794	6.46
507.918	15.46
508.042	8.46
508.165	7.46
508.289	1.46
508.413	19.46
508.537	20.46
508.661	15.46
508.785	27.46
508.909	32.46
509.033	16.46
509.157	11.46
509.281	3.46
509.405	21.46
509.528	43.46
509.652	34.46
509.776	18.46
509.9	41.46
510.024	24.46
510.148	22.46
510.272	33.46
510.396	37.46
510.519	12.46
510.643	40.46
510.767	22.46
510.891	30.46
511.015	29.46
511.139	44.46
511.263	62.46
511.386	29.46
511.51	21.46
511.634	43.46
511.758	40.46
511.882	25.46
512.006	29.46
512.129	63.46
512.253	85.46
512.377	83.46
512.501	96.46
512.625	101.46
512.748	83.46
512.872	75.46
512.996	45.46
513.12	53.46
513.244	43.46
513.367	50.46
513.491	63.46
513.615	71.46
513.739	80.46
513.862	77.46
513.986	76.46
514.11	107.46
514.234	105.46
514.358	99.46
514.481	99.46
514.605	89.46
514.729	109.46
514.853	124.46
514.976	97.46
515.1	104.46
515.224	103.46
515.348	86.46
515.471	77.46
515.595	98.46
515.719	119.46
515.842	202.46
515.966	254.46
516.09	289.46
516.214	284.46
516.337	325.46
516.461	219.46
516.585	84.46
516.708	39.46
516.832	19.46
516.956	25.46
517.08	31.46
517.203	-6.54
517.327	6.46
517.451	22.46
517.574	24.46
517.698	7.46
517.822	9.46
517.945	23.46
518.069	18.46
518.193	40.46
518.316	19.46
518.44	21.46
518.564	18.46
518.687	0.46
518.811	2.46
518.935	39.46
519.058	11.46
519.182	8.46
519.306	4.46
519.429	17.46
519.553	40.46
519.676	24.46
519.8	15.46
519.924	7.46
520.047	23.46
520.171	11.46
520.294	21.46
520.418	34.46
520.542	7.46
520.665	27.46
520.789	25.46
520.913	5.46
521.036	2.46
521.16	1.46
521.283	6.46
521.407	-6.54
521.53	-12.54
521.654	7.46
521.778	25.46
521.901	32.46
522.025	20.46
522.148	1.46
522.272	22.46
522.395	13.46
522.519	18.46
522.643	6.46
522.766	20.46
522.89	15.46
523.013	11.46
523.137	-1.54
523.26	-3.54
523.384	19.46
523.507	12.46
523.631	2.46
523.754	15.46
523.878	19.46
524.002	20.46
524.125	11.46
524.249	6.46
524.372	11.46
524.496	3.46
524.619	28.46
524.743	10.46
524.866	4.46
524.99	-0.54
525.113	10.46
525.237	26.46
525.36	8.46
525.484	35.46
525.607	5.46
525.731	-3.54
525.854	29.46
525.978	30.46
526.101	5.46
526.224	8.46
526.348	-1.54
526.471	-2.54
526.595	19.46
526.718	15.46
526.842	11.46
526.965	31.46
527.089	7.46
527.212	18.46
527.336	21.46
527.459	11.46
527.582	11.46
527.706	19.46
527.829	14.46
527.953	13.46
528.076	-12.54
528.2	8.46
528.323	30.46
528.446	23.46
528.57	1.46
528.693	9.46
528.817	4.46
528.94	22.46
529.064	42.46
529.187	10.46
529.31	-2.54
529.434	4.46
529.557	1.46
529.68	-4.54
529.804	3.46
529.927	-10.54
530.051	8.46
530.174	-3.54
530.297	5.46
530.421	2.46
530.544	14.46
530.668	26.46
530.791	14.46
530.914	42.46
531.038	9.46
531.161	8.46
531.284	25.46
531.408	28.46
531.531	18.46
531.654	18.46
531.778	14.46
531.901	8.46
532.024	12.46
532.148	19.46
532.271	4.46
532.394	27.46
532.518	15.46
532.641	11.46
532.764	17.46
532.888	19.46
533.011	18.46
533.134	6.46
533.258	20.46
533.381	-5.54
533.504	9.46
533.628	5.46
533.751	14.46
533.874	13.46
533.997	8.46
534.121	-12.54
534.244	13.46
534.367	3.46
534.491	7.46
534.614	15.46
534.737	14.46
534.86	3.46
534.984	3.46
535.107	9.46
535.23	15.46
535.354	21.46
535.477	7.46
535.6	17.46
535.723	14.46
535.847	-5.54
535.97	9.46
536.093	18.46
536.216	7.46
536.34	8.46
536.463	-14.54
536.586	11.46
536.709	24.46
536.833	29.46
536.956	17.46
537.079	-3.54
537.202	29.46
537.325	21.46
537.449	2.46
537.572	32.46
537.695	19.46
537.818	15.46
537.941	14.46
538.065	9.46
538.188	-3.54
538.311	23.46
538.434	21.46
538.558	14.46
538.681	23.46
538.804	9.46
538.927	20.46
539.05	26.46
539.173	19.46
539.297	6.46
539.42	4.46
539.543	6.46
539.666	48.46
539.789	23.46
539.913	28.46
540.036	8.46
540.159	19.46
540.282	8.46
540.405	13.46
540.528	6.46
540.651	29.46
540.775	5.46
540.898	22.46
541.021	12.46
541.144	22.46
541.267	39.46
541.39	36.46
541.513	39.46
541.637	5.46
541.76	-1.54
541.883	17.46
542.006	40.46
542.129	37.46
542.252	30.46
542.375	40.46
542.498	27.46
542.622	50.46
542.745	45.46
542.868	42.46
542.991	60.46
543.114	56.46
543.237	63.46
543.36	70.46
543.483	63.46
543.606	75.46
543.73	100.46
543.853	79.46
543.976	85.46
544.099	102.46
544.222	133.46
544.345	155.46
544.468	156.46
544.591	220.46
544.714	266.46
544.837	339.46
544.96	453.46
545.083	661.46
545.206	1129.46
545.329	2462.46
545.453	11115.46
545.576	15276.46
545.699	15680.46
545.822	15680.46
545.945	15680.46
546.068	15680.46
546.191	15680.46
546.314	15680.46
546.437	15680.46
546.56	15680.46
546.683	15680.46
546.806	15680.46
546.929	15680.46
547.052	15680.46
547.175	15680.46
547.298	15680.46
547.421	15680.46
547.544	15680.46
547.667	4033.46
547.79	4657.46
547.913	1409.46
548.036	981.46
548.159	700.46
548.282	663.46
548.405	507.46
548.528	494.46
548.651	390.46
548.774	419.46
548.897	359.46
549.02	368.46
549.143	315.46
549.266	281.46
549.389	266.46
549.512	260.46
549.635	258.46
549.758	266.46
549.881	223.46
550.004	220.46
550.127	208.46
550.25	184.46
550.373	157.46
550.496	198.46
550.619	171.46
550.742	154.46
550.865	141.46
550.988	143.46
551.111	145.46
551.234	143.46
551.356	125.46
551.479	114.46
551.602	119.46
551.725	132.46
551.848	136.46
551.971	129.46
552.094	117.46
552.217	114.46
552.34	124.46
552.463	101.46
552.586	125.46
552.709	98.46
552.832	96.46
552.955	117.46
553.077	103.46
553.2	108.46
553.323	81.46
553.446	99.46
553.569	99.46
553.692	94.46
553.815	87.46
553.938	109.46
554.061	99.46
554.184	81.46
554.306	82.46
554.429	82.46
554.552	81.46
554.675	67.46
554.798	68.46
554.921	76.46
555.044	81.46
555.167	71.46
555.29	72.46
555.412	65.46
555.535	71.46
555.658	55.46
555.781	67.46
555.904	83.46
556.027	76.46
556.15	63.46
556.272	76.46
556.395	75.46
556.518	30.46
556.641	49.46
556.764	75.46
556.887	82.46
557.01	54.46
557.132	48.46
557.255	78.46
557.378	69.46
557.501	62.46
557.624	58.46
557.747	51.46
557.869	67.46
557.992	94.46
558.115	111.46
558.238	70.46
558.361	83.46
558.483	93.46
558.606	70.46
558.729	42.46
558.852	65.46
558.975	53.46
559.098	58.46
559.22	51.46
559.343	44.46
559.466	51.46
559.589	35.46
559.712	50.46
559.834	39.46
559.957	37.46
560.08	49.46
560.203	38.46
560.325	66.46
560.448	62.46
560.571	53.46
560.694	43.46
560.817	54.46
560.939	54.46
561.062	43.46
561.185	70.46
561.308	45.46
561.43	31.46
561.553	45.46
561.676	62.46
561.799	50.46
561.921	65.46
562.044	46.46
562.167	26.46
562.29	64.46
562.413	71.46
562.535	78.46
562.658	43.46
562.781	38.46
562.903	57.46
563.026	85.46
563.149	95.46
563.272	105.46
563.394	102.46
563.517	107.46
563.64	66.46
563.763	39.46
563.885	56.46
564.008	60.46
564.131	45.46
564.254	35.46
564.376	26.46
564.499	25.46
564.622	16.46
564.744	54.46
564.867	43.46
564.99	37.46
565.113	35.46
565.235	30.46
565.358	37.46
565.481	11.46
565.603	21.46
565.726	22.46
565.849	38.46
565.971	43.46
566.094	17.46
566.217	33.46
566.34	43.46
566.462	29.46
566.585	15.46
566.708	42.46
566.83	30.46
566.953	40.46
567.076	22.46
567.198	21.46
567.321	1.46
567.444	31.46
567.566	41.46
567.689	32.46
567.812	27.46
567.934	38.46
568.057	21.46
568.18	28.46
568.302	43.46
568.425	21.46
568.548	19.46
568.67	41.46
568.793	19.46
568.916	31.46
569.038	29.46
569.161	19.46
569.283	19.46
569.406	18.46
569.529	22.46
569.651	12.46
569.774	33.46
569.897	34.46
570.019	46.46
570.142	37.46
570.265	32.46
570.387	26.46
570.51	28.46
570.632	30.46
570.755	23.46
570.878	27.46
571	35.46
571.123	18.46
571.246	32.46
571.368	15.46
571.491	15.46
571.613	18.46
571.736	3.46
571.859	19.46
571.981	15.46
572.104	16.46
572.226	9.46
572.349	9.46
572.472	28.46
572.594	25.46
572.717	15.46
572.839	19.46
572.962	34.46
573.085	31.46
573.207	38.46
573.33	25.46
573.452	46.46
573.575	65.46
573.697	28.46
573.82	25.46
573.943	27.46
574.065	41.46
574.188	37.46
574.31	48.46
574.433	33.46
574.555	53.46
574.678	37.46
574.801	28.46
574.923	30.46
575.046	27.46
575.168	39.46
575.291	30.46
575.413	44.46
575.536	38.46
575.659	43.46
575.781	41.46
575.904	63.46
576.026	70.46
576.149	80.46
576.271	130.46
576.394	187.46
576.516	550.46
576.639	3751.46
576.761	10392.46
576.884	8982.46
577.007	8871.46
577.129	8098.46
577.252	3781.46
577.374	1307.46
577.497	515.46
577.619	274.46
577.742	167.46
577.864	165.46
577.987	137.46
578.109	130.46
578.232	121.46
578.354	140.46
578.477	193.46
578.599	394.46
578.722	2012.46
578.844	9224.46
578.967	9986.46
579.089	8869.46
579.212	9170.46
579.334	5344.46
579.457	1950.46
579.579	731.46
579.702	325.46
579.824	194.46
579.947	118.46
580.069	111.46
580.192	83.46
580.314	84.46
580.437	79.46
580.559	90.46
580.682	53.46
580.804	47.46
580.927	63.46
581.049	71.46
581.172	36.46
581.294	47.46
581.417	41.46
581.539	42.46
581.662	58.46
581.784	51.46
581.907	34.46
582.029	48.46
582.152	13.46
582.274	30.46
582.396	30.46
582.519	41.46
582.641	17.46
582.764	22.46
582.886	36.46
583.009	30.46
583.131	-0.54
583.254	26.46
583.376	60.46
583.499	34.46
583.621	32.46
583.743	47.46
583.866	30.46
583.988	27.46
584.111	49.46
584.233	38.46
584.356	50.46
584.478	44.46
584.601	17.46
584.723	17.46
584.845	43.46
584.968	23.46
585.09	14.46
585.213	35.46
585.335	2.46
585.458	11.46
585.58	13.46
585.702	38.46
585.825	34.46
585.947	34.46
586.07	19.46
586.192	23.46
586.315	36.46
586.437	17.46
586.559	23.46
586.682	21.46
586.804	18.46
586.927	26.46
587.049	21.46
587.171	32.46
587.294	34.46
587.416	34.46
587.539	16.46
587.661	13.46
587.783	15.46
587.906	15.46
588.028	32.46
588.151	32.46
588.273	32.46
588.395	11.46
588.518	21.46
588.64	26.46
588.763	27.46
588.885	19.46
589.007	32.46
589.13	-10.54
589.252	-5.54
589.375	25.46
589.497	21.46
589.619	29.46
589.742	29.46
589.864	41.46
589.986	21.46
590.109	14.46
590.231	7.46
590.354	13.46
590.476	1.46
590.598	2.46
590.721	26.46
590.843	30.46
590.965	16.46
591.088	23.46
591.21	34.46
591.332	29.46
591.455	-6.54
591.577	-5.54
591.7	25.46
591.822	28.46
591.944	34.46
592.067	14.46
592.189	11.46
592.311	30.46
592.434	27.46
592.556	43.46
592.678	24.46
592.801	10.46
592.923	8.46
593.045	3.46
593.168	12.46
593.29	6.46
593.412	23.46
593.535	15.46
593.657	24.46
593.779	14.46
593.902	25.46
594.024	37.46
594.146	12.46
594.269	26.46
594.391	4.46
594.513	20.46
594.636	13.46
594.758	13.46
594.88	21.46
595.003	39.46
595.125	22.46
595.247	26.46
595.37	30.46
595.492	12.46
595.614	38.46
595.737	26.46
595.859	23.46
595.981	26.46
596.104	26.46
596.226	16.46
596.348	37.46
596.471	25.46
596.593	22.46
596.715	13.46
596.838	12.46
596.96	16.46
597.082	32.46
597.204	11.46
597.327	17.46
597.449	20.46
597.571	14.46
597.694	17.46
597.816	13.46
597.938	27.46
598.061	17.46
598.183	4.46
598.305	26.46
598.427	19.46
598.55	18.46
598.672	34.46
598.794	26.46
598.917	16.46
599.039	9.46
599.161	27.46
599.283	14.46
599.406	29.46
599.528	32.46
599.65	26.46
599.773	39.46
599.895	40.46
600.017	35.46
600.139	24.46
600.262	22.46
600.384	12.46
600.506	17.46
600.628	27.46
600.751	32.46
600.873	9.46
600.995	13.46
601.118	29.46
601.24	18.46
601.362	29.46
601.484	10.46
601.607	22.46
601.729	27.46
601.851	14.46
601.973	27.46
602.096	30.46
602.218	36.46
602.34	29.46
602.462	22.46
602.585	22.46
602.707	9.46
602.829	36.46
602.951	15.46
603.074	-1.54
603.196	25.46
603.318	21.46
603.44	44.46
603.563	10.46
603.685	12.46
603.807	20.46
603.929	27.46
604.052	29.46
604.174	44.46
604.296	25.46
604.418	13.46
604.541	23.46
604.663	1.46
604.785	10.46
604.907	19.46
605.03	-4.54
605.152	35.46
605.274	3.46
605.396	20.46
605.519	18.46
605.641	17.46
605.763	17.46
605.885	23.46
606.008	25.46
606.13	34.46
606.252	37.46
606.374	5.46
606.496	7.46
606.619	4.46
606.741	1.46
606.863	42.46
606.985	31.46
607.108	17.46
607.23	36.46
607.352	-0.54
607.474	11.46
607.596	8.46
607.719	22.46
607.841	41.46
607.963	11.46
608.085	25.46
608.207	48.46
608.33	13.46
608.452	13.46
608.574	3.46
608.696	12.46
608.819	17.46
608.941	9.46
609.063	22.46
609.185	14.46
609.307	14.46
609.43	19.46
609.552	15.46
609.674	-5.54
609.796	27.46
609.918	19.46
610.041	19.46
610.163	13.46
610.285	2.46
610.407	14.46
610.529	3.46
610.652	20.46
610.774	22.46
610.896	18.46
611.018	10.46
611.14	5.46
611.263	13.46
611.385	26.46
611.507	23.46
611.629	5.46
611.751	31.46
611.873	46.46
611.996	21.46
612.118	32.46
612.24	17.46
612.362	22.46
612.484	26.46
612.607	31.46
612.729	37.46
612.851	32.46
612.973	20.46
613.095	14.46
613.218	32.46
613.34	36.46
613.462	30.46
613.584	28.46
613.706	14.46
613.828	41.46
613.951	19.46
614.073	11.46
614.195	3.46
614.317	37.46
614.439	34.46
614.561	19.46
614.684	18.46
614.806	33.46
614.928	20.46
615.05	4.46
615.172	27.46
615.294	38.46
615.417	13.46
615.539	11.46
615.661	6.46
615.783	20.46
615.905	16.46
616.027	10.46
616.15	21.46
616.272	32.46
616.394	6.46
616.516	14.46
616.638	6.46
616.76	19.46
616.883	19.46
617.005	14.46
617.127	4.46
617.249	14.46
617.371	11.46
617.493	13.46
617.615	18.46
617.738	27.46
617.86	4.46
617.982	19.46
618.104	5.46
618.226	20.46
618.348	11.46
618.471	24.46
618.593	15.46
618.715	7.46
618.837	29.46
618.959	24.46
619.081	34.46
619.203	24.46
619.326	18.46
619.448	9.46
619.57	31.46
619.692	37.46
619.814	23.46
619.936	30.46
620.058	18.46
620.181	17.46
620.303	6.46
620.425	21.46
620.547	10.46
620.669	-0.54
620.791	20.46
620.913	14.46
621.036	13.46
621.158	27.46
621.28	25.46
621.402	22.46
621.524	1.46
621.646	23.46
621.768	8.46
621.891	-2.54
622.013	11.46
622.135	10.46
622.257	-1.54
622.379	22.46
622.501	20.46
622.623	11.46
622.745	2.46
622.868	10.46
622.99	-9.54
623.112	-16.54
623.234	-3.54
623.356	25.46
623.478	11.46
623.6	23.46
623.722	-1.54
623.845	20.46
623.967	15.46
624.089	19.46
624.211	21.46
624.333	24.46
624.455	17.46
624.577	10.46
624.699	26.46
624.822	17.46
624.944	14.46
625.066	11.46
625.188	15.46
625.31	1.46
625.432	17.46
625.554	17.46
625.676	34.46
625.799	19.46
625.921	24.46
626.043	19.46
626.165	8.46
626.287	-11.54
626.409	23.46
626.531	4.46
626.653	17.46
626.775	23.46
626.898	35.46
627.02	37.46
627.142	43.46
627.264	26.46
627.386	21.46
627.508	26.46
627.63	15.46
627.752	13.46
627.874	-2.54
627.997	4.46
628.119	15.46
628.241	17.46
628.363	12.46
628.485	15.46
628.607	9.46
628.729	10.46
628.851	20.46
628.973	16.46
629.096	-2.54
629.218	18.46
629.34	27.46
629.462	14.46
629.584	14.46
629.706	-2.54
629.828	20.46
629.95	2.46
630.072	9.46
630.195	-3.54
630.317	3.46
630.439	8.46
630.561	19.46
630.683	13.46
630.805	24.46
630.927	26.46
631.049	18.46
631.171	2.46
631.293	5.46
631.416	20.46
631.538	-4.54
631.66	7.46
631.782	25.46
631.904	23.46
632.026	10.46
632.148	26.46
632.27	19.46
632.392	22.46
632.514	5.46
632.637	13.46
632.759	6.46
632.881	6.46
633.003	-2.54
633.125	-10.54
633.247	13.46
633.369	21.46
633.491	7.46
633.613	17.46
633.735	4.46
633.858	15.46
633.98	6.46
634.102	-1.54
634.224	-2.54
634.346	12.46
634.468	13.46
634.59	13.46
634.712	1.46
634.834	6.46
634.956	10.46
635.078	13.46
635.201	5.46
635.323	11.46
635.445	14.46
635.567	-7.54
635.689	32.46
635.811	12.46
635.933	22.46
636.055	13.46
636.177	6.46
636.299	18.46
636.421	-6.54
636.544	7.46
636.666	22.46
636.788	5.46
636.91	23.46
637.032	7.46
637.154	-1.54
637.276	47.46
637.398	12.46
637.52	9.46
637.642	7.46
637.764	17.46
637.887	-0.54
638.009	4.46
638.131	24.46
638.253	3.46
638.375	19.46
638.497	15.46
638.619	7.46
638.741	9.46
638.863	-14.54
638.985	10.46
639.107	9.46
639.23	-0.54
639.352	15.46
639.474	13.46
639.596	1.46
639.718	3.46
639.84	14.46
639.962	11.46
640.084	23.46
640.206	30.46
640.328	13.46
640.45	24.46
640.573	9.46
640.695	9.46
640.817	9.46
640.939	5.46
641.061	1.46
641.183	17.46
641.305	6.46
641.427	-4.54
641.549	-4.54
641.671	5.46
641.793	-1.54
641.915	26.46
642.038	2.46
642.16	17.46
642.282	15.46
642.404	14.46
642.526	3.46
642.648	-2.54
642.77	-4.54
642.892	-0.54
643.014	17.46
643.136	14.46
643.258	1.46
643.381	25.46
643.503	35.46
643.625	9.46
643.747	12.46
643.869	-6.54
643.991	5.46
644.113	24.46
644.235	8.46
644.357	13.46
644.479	34.46
644.601	9.46
644.723	14.46
644.846	18.46
644.968	7.46
645.09	12.46
645.212	2.46
645.334	18.46
645.456	19.46
645.578	3.46
645.7	7.46
645.822	18.46
645.944	6.46
646.066	17.46
646.188	-3.54
646.311	15.46
646.433	-2.54
646.555	9.46
646.677	10.46
646.799	2.46
646.921	-3.54
647.043	41.46
647.165	-10.54
647.287	18.46
647.409	4.46
647.531	17.46
647.654	-13.54
647.776	17.46
647.898	24.46
648.02	2.46
648.142	5.46
648.264	8.46
648.386	17.46
648.508	-1.54
648.63	3.46
648.752	-1.54
648.874	-17.54
648.997	-4.54
649.119	20.46
649.241	23.46
649.363	25.46
649.485	14.46
649.607	-10.54
649.729	-4.54
649.851	1.46
649.973	-0.54
650.095	20.46
650.217	-17.54
650.34	-22.54
650.462	5.46
650.584	6.46
650.706	16.46
650.828	27.46
650.95	-8.54
651.072	13.46
651.194	-0.54
651.316	5.46
651.438	17.46
651.56	-0.54
651.683	9.46
651.805	5.46
651.927	8.46
652.049	-5.54
652.171	-4.54
652.293	5.46
652.415	7.46
652.537	-1.54
652.659	1.46
652.781	9.46
652.903	10.46
653.026	32.46
653.148	1.46
653.27	6.46
653.392	-3.54
653.514	-8.54
653.636	-3.54
653.758	-3.54
653.88	7.46
654.002	-4.54
654.124	-4.54
654.247	4.46
654.369	27.46
654.491	2.46
654.613	-1.54
654.735	2.46
654.857	28.46
654.979	1.46
655.101	7.46
655.223	23.46
655.345	8.46
655.468	22.46
655.59	17.46
655.712	13.46
655.834	10.46
655.956	15.46
656.078	8.46
656.2	12.46
656.322	-4.54
656.444	-23.54
656.566	12.46
656.689	2.46
656.811	14.46
656.933	29.46
657.055	11.46
657.177	7.46
657.299	1.46
657.421	3.46
657.543	15.46
657.665	2.46
657.787	1.46
657.91	-6.54
658.032	-4.54
658.154	-9.54
658.276	3.46
658.398	-10.54
658.52	6.46
658.642	-10.54
658.764	7.46
658.886	-12.54
659.009	-1.54
659.131	17.46
659.253	13.46
659.375	1.46
659.497	-3.54
659.619	7.46
659.741	2.46
659.863	4.46
659.985	1.46
660.108	14.46
660.23	0.46
660.352	4.46
660.474	18.46
660.596	12.46
660.718	7.46
660.84	3.46
660.962	3.46
661.084	6.46
661.207	11.46
661.329	10.46
661.451	-16.54
661.573	-2.54
661.695	19.46
661.817	27.46
661.939	23.46
662.061	45.46
662.184	1.46
662.306	-10.54
662.428	12.46
662.55	17.46
662.672	4.46
662.794	7.46
662.916	1.46
663.038	13.46
663.161	23.46
663.283	14.46
663.405	15.46
663.527	11.46
663.649	8.46
663.771	-3.54
663.893	9.46
664.015	-7.54
664.138	-6.54
664.26	23.46
664.382	-0.54
664.504	2.46
664.626	-13.54
664.748	-7.54
664.87	-3.54
664.992	20.46
665.115	12.46
665.237	3.46
665.359	1.46
665.481	12.46
665.603	17.46
665.725	5.46
665.847	-12.54
665.97	13.46
666.092	18.46
666.214	8.46
666.336	5.46
666.458	11.46
666.58	-2.54
666.702	-8.54
666.825	3.46
666.947	-7.54
667.069	-5.54
667.191	-8.54
667.313	17.46
667.435	5.46
667.557	1.46
667.68	12.46
667.802	-2.54
667.924	-14.54
668.046	11.46
668.168	1.46
668.29	20.46
668.412	5.46
668.535	23.46
668.657	11.46
668.779	10.46
668.901	17.46
669.023	17.46
669.145	9.46
669.267	21.46
669.39	5.46
669.512	-7.54
669.634	3.46
669.756	3.46
669.878	17.46
670	21.46
670.123	11.46
670.245	34.46
670.367	12.46
670.489	18.46
670.611	-6.54
670.733	3.46
670.856	-5.54
670.978	5.46
671.1	1.46
671.222	15.46
671.344	1.46
671.466	1.46
671.589	3.46
671.711	-0.54
671.833	-6.54
671.955	-2.54
672.077	-3.54
672.199	11.46
672.322	10.46
672.444	19.46
672.566	28.46
672.688	1.46
672.81	15.46
672.932	10.46
673.055	-4.54
673.177	-2.54
673.299	2.46
673.421	5.46
673.543	19.46
673.665	27.46
673.788	14.46
673.91	-1.54
674.032	-5.54
674.154	-1.54
674.276	15.46
674.399	-0.54
674.521	5.46
674.643	-2.54
674.765	-3.54
674.887	9.46
675.009	12.46
675.132	2.46
675.254	-1.54
675.376	2.46
675.498	15.46
675.62	2.46
675.743	5.46
675.865	8.46
675.987	-11.54
676.109	-8.54
676.231	15.46
676.354	26.46
676.476	8.46
676.598	13.46
676.72	-1.54
676.842	24.46
676.965	7.46
677.087	2.46
677.209	13.46
677.331	12.46
677.453	1.46
677.576	-13.54
677.698	10.46
677.82	17.46
677.942	10.46
678.064	-1.54
678.187	3.46
678.309	-2.54
678.431	14.46
678.553	14.46
678.675	22.46
678.798	24.46
678.92	1.46
679.042	-16.54
679.164	19.46
679.286	14.46
679.409	12.46
679.531	-2.54
679.653	11.46
679.775	-5.54
679.898	-6.54
680.02	12.46
680.142	11.46
680.264	13.46
680.386	-4.54
680.509	25.46
680.631	3.46
680.753	22.46
680.875	7.46
680.998	13.46
681.12	17.46
681.242	10.46
681.364	-10.54
681.486	-1.54
681.609	1.46
681.731	-7.54
681.853	-10.54
681.975	-6.54
682.098	15.46
682.22	30.46
682.342	-10.54
682.464	6.46
682.587	10.46
682.709	7.46
682.831	-9.54
682.953	-4.54
683.076	-4.54
683.198	4.46
683.32	6.46
683.442	10.46
683.565	-0.54
683.687	14.46
683.809	15.46
683.931	-24.54
684.054	6.46
684.176	13.46
684.298	1.46
684.42	1.46
684.543	9.46
684.665	5.46
684.787	0.46
684.909	1.46
685.032	-2.54
685.154	-13.54
685.276	6.46
685.398	4.46
685.521	-10.54
685.643	0.46
685.765	7.46
685.887	22.46
686.01	9.46
686.132	23.46
686.254	8.46
686.377	22.46
686.499	2.46
686.621	20.46
686.743	19.46
686.866	5.46
686.988	19.46
687.11	1.46
687.232	-10.54
687.355	-22.54
687.477	13.46
687.599	29.46
687.722	19.46
687.844	9.46
687.966	5.46
688.088	-5.54
688.211	30.46
688.333	32.46
688.455	7.46
688.578	19.46
688.7	27.46
688.822	13.46
688.944	-4.54
689.067	29.46
689.189	-6.54
689.311	-2.54
689.434	1.46
689.556	1.46
689.678	16.46
689.801	5.46
689.923	2.46
690.045	10.46
690.167	30.46
690.29	11.46
690.412	19.46
690.534	21.46
690.657	11.46
690.779	16.46
690.901	20.46
691.024	15.46
691.146	6.46
691.268	-6.54
691.391	17.46
691.513	6.46
691.635	14.46
691.758	16.46
691.88	20.46
692.002	10.46
692.125	3.46
692.247	0.46
692.369	3.46
692.492	-16.54
692.614	-5.54
692.736	-3.54
692.859	7.46
692.981	10.46
693.103	1.46
693.226	11.46
693.348	26.46
693.47	14.46
693.593	32.46
693.715	37.46
693.837	31.46
693.96	9.46
694.082	17.46
694.204	5.46
694.327	16.46
694.449	-12.54
694.571	4.46
694.694	12.46
694.816	16.46
694.938	10.46
695.061	6.46
695.183	9.46
695.305	10.46
695.428	-1.54
695.55	-10.54
695.672	-11.54
695.795	26.46
695.917	18.46
696.04	2.46
696.162	-6.54
696.284	4.46
696.407	6.46
696.529	1.46
696.651	27.46
696.774	8.46
696.896	30.46
697.019	5.46
697.141	13.46
697.263	10.46
697.386	9.46
697.508	-1.54
697.63	12.46
697.753	5.46
697.875	-3.54
697.998	4.46
698.12	15.46
698.242	-0.54
698.365	8.46
698.487	4.46
698.61	20.46
698.732	15.46
698.854	29.46
698.977	7.46
699.099	12.46
699.221	4.46
699.344	-5.54
699.466	6.46
699.589	1.46
699.711	6.46
699.834	1.46
699.956	16.46
700.078	-7.54
700.201	-14.54
700.323	15.46
700.446	14.46
700.568	7.46
700.69	14.46
700.813	12.46
700.935	2.46
701.058	11.46
701.18	6.46
701.302	-1.54
701.425	3.46
701.547	1.46
701.67	7.46
701.792	7.46
701.915	2.46
702.037	-2.54
702.159	6.46
702.282	17.46
702.404	0.46
702.527	10.46
702.649	17.46
702.772	18.46
702.894	28.46
703.017	23.46
703.139	26.46
703.261	23.46
703.384	6.46
703.506	-8.54
703.629	2.46
703.751	7.46
703.874	14.46
703.996	7.46
704.119	-3.54
704.241	5.46
704.364	-6.54
704.486	17.46
704.608	12.46
704.731	20.46
704.853	11.46
704.976	-0.54
705.098	2.46
705.221	-9.54
705.343	-2.54
705.466	5.46
705.588	29.46
705.711	22.46
705.833	23.46
705.956	6.46
706.078	4.46
706.201	18.46
706.323	4.46
706.446	-12.54
