Data from LowRes_mercury_15_20_11_07_2024_HR4C61881__15__15-23-33-771.txt Node

Date: Thu Nov 07 15:23:33 EST 2024
User: crc00042
Spectrometer: HR4C6188
Trigger mode: 4
Integration Time (sec): 1.000000E-1
Scans to average: 1
Electric dark correction enabled: true
Nonlinearity correction enabled: false
Boxcar width: 0
XAxis mode: Wavelengths
Number of Pixels in Spectrum: 3648
>>>>>Begin Spectral Data<<<<<
245.66	-72.23
245.797	-72.23
245.934	-72.23
246.071	-59.23
246.208	-13.23
246.344	-8.23
246.481	-16.23
246.618	-2.23
246.755	12.77
246.892	-7.23
247.029	-5.23
247.165	-8.23
247.302	2.77
247.439	4.77
247.576	7.77
247.713	-9.23
247.849	27.77
247.986	0.77
248.123	-22.23
248.26	-24.23
248.396	19.77
248.533	11.77
248.67	-14.23
248.806	9.77
248.943	-10.23
249.08	4.77
249.216	-1.23
249.353	-12.23
249.49	1.77
249.626	-4.23
249.763	12.77
249.9	-18.23
250.036	5.77
250.173	13.77
250.309	2.77
250.446	20.77
250.582	-3.23
250.719	-16.23
250.856	-10.23
250.992	-10.23
251.129	-14.23
251.265	-4.23
251.402	3.77
251.538	-0.23
251.675	-9.23
251.811	8.77
251.948	10.77
252.084	18.77
252.221	2.77
252.357	-12.23
252.493	17.77
252.63	8.77
252.766	13.77
252.903	12.77
253.039	6.77
253.175	-8.23
253.312	7.77
253.448	11.77
253.585	-7.23
253.721	15.77
253.857	8.77
253.994	21.77
254.13	-2.23
254.266	-1.23
254.403	11.77
254.539	6.77
254.675	-3.23
254.811	0.77
254.948	2.77
255.084	25.77
255.22	-5.23
255.356	-5.23
255.493	17.77
255.629	-1.23
255.765	-3.23
255.901	18.77
256.037	14.77
256.174	13.77
256.31	-12.23
256.446	-6.23
256.582	-9.23
256.718	5.77
256.854	37.77
256.991	6.77
257.127	5.77
257.263	0.77
257.399	-8.23
257.535	-14.23
257.671	6.77
257.807	-6.23
257.943	-4.23
258.079	-12.23
258.215	6.77
258.351	17.77
258.487	-2.23
258.623	31.77
258.759	-0.23
258.895	8.77
259.031	-17.23
259.167	-13.23
259.303	16.77
259.439	0.77
259.575	-4.23
259.711	-3.23
259.847	-8.23
259.983	-7.23
260.119	-3.23
260.255	-8.23
260.391	-6.23
260.527	6.77
260.663	23.77
260.799	1.77
260.934	-2.23
261.07	-4.23
261.206	-19.23
261.342	-13.23
261.478	18.77
261.614	16.77
261.749	0.77
261.885	-3.23
262.021	-10.23
262.157	28.77
262.293	-3.23
262.428	17.77
262.564	-13.23
262.7	6.77
262.836	0.77
262.971	5.77
263.107	7.77
263.243	13.77
263.378	-1.23
263.514	-7.23
263.65	-8.23
263.785	0.77
263.921	6.77
264.057	3.77
264.192	0.77
264.328	10.77
264.464	-8.23
264.599	21.77
264.735	15.77
264.871	6.77
265.006	1.77
265.142	-12.23
265.277	-7.23
265.413	11.77
265.548	14.77
265.684	8.77
265.819	-4.23
265.955	-30.23
266.091	-5.23
266.226	-6.23
266.362	8.77
266.497	11.77
266.633	-2.23
266.768	-16.23
266.903	11.77
267.039	8.77
267.174	12.77
267.31	-2.23
267.445	7.77
267.581	-5.23
267.716	-3.23
267.851	18.77
267.987	12.77
268.122	16.77
268.258	-4.23
268.393	5.77
268.528	27.77
268.664	-7.23
268.799	-9.23
268.934	-10.23
269.07	-2.23
269.205	-3.23
269.34	16.77
269.476	-1.23
269.611	-4.23
269.746	18.77
269.881	1.77
270.017	10.77
270.152	10.77
270.287	15.77
270.422	11.77
270.558	-4.23
270.693	23.77
270.828	-18.23
270.963	-16.23
271.098	-13.23
271.234	-4.23
271.369	18.77
271.504	4.77
271.639	3.77
271.774	3.77
271.909	6.77
272.045	-6.23
272.18	14.77
272.315	13.77
272.45	-2.23
272.585	-20.23
272.72	4.77
272.855	0.77
272.99	21.77
273.125	-17.23
273.26	-19.23
273.395	7.77
273.53	-17.23
273.665	-9.23
273.8	20.77
273.935	20.77
274.07	-2.23
274.205	5.77
274.34	5.77
274.475	-3.23
274.61	25.77
274.745	3.77
274.88	11.77
275.015	-4.23
275.15	-8.23
275.285	9.77
275.42	-9.23
275.555	7.77
275.69	-13.23
275.825	-5.23
275.959	21.77
276.094	0.77
276.229	-6.23
276.364	1.77
276.499	-11.23
276.634	13.77
276.768	-2.23
276.903	2.77
277.038	10.77
277.173	11.77
277.308	4.77
277.442	-8.23
277.577	0.77
277.712	3.77
277.847	-21.23
277.981	13.77
278.116	-23.23
278.251	3.77
278.386	7.77
278.52	10.77
278.655	12.77
278.79	18.77
278.924	0.77
279.059	6.77
279.194	-16.23
279.328	26.77
279.463	2.77
279.598	15.77
279.732	9.77
279.867	8.77
280.001	26.77
280.136	-13.23
280.271	3.77
280.405	15.77
280.54	0.77
280.674	-2.23
280.809	22.77
280.943	-0.23
281.078	5.77
281.213	2.77
281.347	22.77
281.482	3.77
281.616	-19.23
281.751	-3.23
281.885	-7.23
282.02	-14.23
282.154	-4.23
282.288	-14.23
282.423	-7.23
282.557	-6.23
282.692	-8.23
282.826	0.77
282.961	-1.23
283.095	9.77
283.229	-3.23
283.364	-20.23
283.498	-8.23
283.633	1.77
283.767	4.77
283.901	5.77
284.036	-1.23
284.17	-8.23
284.304	-10.23
284.439	12.77
284.573	8.77
284.707	10.77
284.842	5.77
284.976	5.77
285.11	-28.23
285.244	13.77
285.379	24.77
285.513	-10.23
285.647	10.77
285.781	4.77
285.916	-3.23
286.05	0.77
286.184	23.77
286.318	-1.23
286.453	-19.23
286.587	-17.23
286.721	-11.23
286.855	11.77
286.989	10.77
287.123	4.77
287.258	-15.23
287.392	-16.23
287.526	7.77
287.66	5.77
287.794	5.77
287.928	-17.23
288.062	-11.23
288.196	-1.23
288.33	-0.23
288.464	19.77
288.598	17.77
288.733	0.77
288.867	0.77
289.001	6.77
289.135	10.77
289.269	-19.23
289.403	-7.23
289.537	15.77
289.671	18.77
289.805	-22.23
289.939	-1.23
290.073	-7.23
290.207	-2.23
290.34	17.77
290.474	15.77
290.608	24.77
290.742	19.77
290.876	-3.23
291.01	-4.23
291.144	16.77
291.278	9.77
291.412	16.77
291.546	0.77
291.679	1.77
291.813	-11.23
291.947	9.77
292.081	1.77
292.215	11.77
292.349	11.77
292.482	1.77
292.616	9.77
292.75	14.77
292.884	-3.23
293.018	-4.23
293.151	-17.23
293.285	9.77
293.419	-29.23
293.553	-3.23
293.686	-9.23
293.82	4.77
293.954	24.77
294.088	22.77
294.221	4.77
294.355	-4.23
294.489	6.77
294.622	-8.23
294.756	-21.23
294.89	-2.23
295.023	6.77
295.157	14.77
295.291	17.77
295.424	11.77
295.558	-7.23
295.691	-1.23
295.825	-4.23
295.959	8.77
296.092	2.77
296.226	-15.23
296.359	7.77
296.493	28.77
296.627	5.77
296.76	13.77
296.894	-10.23
297.027	14.77
297.161	10.77
297.294	-1.23
297.428	7.77
297.561	13.77
297.695	7.77
297.828	5.77
297.962	4.77
298.095	-0.23
298.229	12.77
298.362	-20.23
298.495	-26.23
298.629	-3.23
298.762	-6.23
298.896	5.77
299.029	-15.23
299.162	4.77
299.296	26.77
299.429	0.77
299.563	8.77
299.696	4.77
299.829	11.77
299.963	16.77
300.096	15.77
300.229	7.77
300.363	14.77
300.496	7.77
300.629	-9.23
300.763	1.77
300.896	13.77
301.029	13.77
301.162	-10.23
301.296	-4.23
301.429	14.77
301.562	-14.23
301.695	5.77
301.829	16.77
301.962	12.77
302.095	3.77
302.228	-4.23
302.362	-2.23
302.495	-16.23
302.628	9.77
302.761	10.77
302.894	-5.23
303.027	-4.23
303.161	0.77
303.294	10.77
303.427	14.77
303.56	6.77
303.693	-19.23
303.826	9.77
303.959	-3.23
304.092	-4.23
304.225	-11.23
304.359	8.77
304.492	9.77
304.625	7.77
304.758	-1.23
304.891	-32.23
305.024	-5.23
305.157	10.77
305.29	-5.23
305.423	-7.23
305.556	7.77
305.689	22.77
305.822	-12.23
305.955	-16.23
306.088	0.77
306.221	9.77
306.354	3.77
306.487	-21.23
306.62	-27.23
306.752	-13.23
306.885	-4.23
307.018	10.77
307.151	13.77
307.284	9.77
307.417	-22.23
307.55	-1.23
307.683	-7.23
307.816	5.77
307.948	19.77
308.081	17.77
308.214	16.77
308.347	15.77
308.48	-26.23
308.613	-14.23
308.745	3.77
308.878	0.77
309.011	6.77
309.144	5.77
309.277	-9.23
309.409	11.77
309.542	-13.23
309.675	24.77
309.808	5.77
309.94	27.77
310.073	-15.23
310.206	3.77
310.339	6.77
310.471	-5.23
310.604	12.77
310.737	-14.23
310.869	8.77
311.002	-3.23
311.135	-1.23
311.267	-8.23
311.4	14.77
311.533	26.77
311.665	0.77
311.798	-1.23
311.93	13.77
312.063	34.77
312.196	55.77
312.328	74.77
312.461	47.77
312.593	14.77
312.726	63.77
312.859	95.77
312.991	165.77
313.124	42.77
313.256	4.77
313.389	13.77
313.521	-17.23
313.654	15.77
313.786	1.77
313.919	-18.23
314.051	5.77
314.184	11.77
314.316	10.77
314.449	-6.23
314.581	-17.23
314.714	2.77
314.846	12.77
314.978	-1.23
315.111	2.77
315.243	7.77
315.376	5.77
315.508	-11.23
315.641	-2.23
315.773	3.77
315.905	8.77
316.038	-1.23
316.17	-0.23
316.302	4.77
316.435	-3.23
316.567	-11.23
316.699	20.77
316.832	-10.23
316.964	4.77
317.096	-5.23
317.229	-2.23
317.361	-22.23
317.493	-19.23
317.625	1.77
317.758	11.77
317.89	2.77
318.022	9.77
318.155	-3.23
318.287	4.77
318.419	-6.23
318.551	1.77
318.683	-7.23
318.816	-16.23
318.948	-18.23
319.08	-10.23
319.212	7.77
319.344	13.77
319.477	0.77
319.609	-12.23
319.741	14.77
319.873	-9.23
320.005	14.77
320.137	17.77
320.269	14.77
320.401	16.77
320.534	1.77
320.666	-26.23
320.798	-22.23
320.93	3.77
321.062	-10.23
321.194	-3.23
321.326	17.77
321.458	3.77
321.59	19.77
321.722	-3.23
321.854	8.77
321.986	2.77
322.118	6.77
322.25	0.77
322.382	2.77
322.514	-4.23
322.646	-4.23
322.778	14.77
322.91	-10.23
323.042	15.77
323.174	11.77
323.306	2.77
323.438	-23.23
323.57	21.77
323.702	22.77
323.834	-2.23
323.966	-4.23
324.097	-0.23
324.229	-0.23
324.361	-0.23
324.493	-4.23
324.625	-11.23
324.757	-10.23
324.889	-18.23
325.021	14.77
325.152	-3.23
325.284	12.77
325.416	-8.23
325.548	-1.23
325.68	-11.23
325.811	7.77
325.943	5.77
326.075	1.77
326.207	19.77
326.339	35.77
326.47	3.77
326.602	4.77
326.734	19.77
326.866	26.77
326.997	-19.23
327.129	-1.23
327.261	3.77
327.392	-13.23
327.524	3.77
327.656	5.77
327.787	-0.23
327.919	18.77
328.051	2.77
328.182	19.77
328.314	11.77
328.446	3.77
328.577	12.77
328.709	-10.23
328.841	-16.23
328.972	-8.23
329.104	-26.23
329.235	-11.23
329.367	-13.23
329.499	-1.23
329.63	21.77
329.762	14.77
329.893	9.77
330.025	35.77
330.156	-4.23
330.288	13.77
330.419	23.77
330.551	13.77
330.683	7.77
330.814	-2.23
330.946	8.77
331.077	-1.23
331.208	4.77
331.34	2.77
331.471	-6.23
331.603	-1.23
331.734	-18.23
331.866	7.77
331.997	-17.23
332.129	-7.23
332.26	-6.23
332.392	8.77
332.523	2.77
332.654	-13.23
332.786	10.77
332.917	7.77
333.048	3.77
333.18	21.77
333.311	-6.23
333.443	26.77
333.574	6.77
333.705	22.77
333.837	45.77
333.968	112.77
334.099	223.77
334.231	224.77
334.362	65.77
334.493	37.77
334.624	28.77
334.756	5.77
334.887	2.77
335.018	26.77
335.15	18.77
335.281	-3.23
335.412	24.77
335.543	25.77
335.675	6.77
335.806	-6.23
335.937	1.77
336.068	15.77
336.199	24.77
336.331	1.77
336.462	11.77
336.593	34.77
336.724	-3.23
336.855	18.77
336.986	8.77
337.118	2.77
337.249	6.77
337.38	6.77
337.511	-4.23
337.642	12.77
337.773	5.77
337.904	16.77
338.035	8.77
338.166	-9.23
338.298	29.77
338.429	-2.23
338.56	11.77
338.691	18.77
338.822	8.77
338.953	10.77
339.084	22.77
339.215	25.77
339.346	11.77
339.477	-1.23
339.608	0.77
339.739	18.77
339.87	-5.23
340.001	6.77
340.132	28.77
340.263	3.77
340.394	16.77
340.525	19.77
340.656	2.77
340.787	-23.23
340.918	24.77
341.049	28.77
341.179	6.77
341.31	12.77
341.441	21.77
341.572	29.77
341.703	12.77
341.834	12.77
341.965	27.77
342.096	20.77
342.227	21.77
342.357	11.77
342.488	19.77
342.619	25.77
342.75	18.77
342.881	2.77
343.012	41.77
343.142	25.77
343.273	8.77
343.404	16.77
343.535	53.77
343.666	45.77
343.796	37.77
343.927	46.77
344.058	29.77
344.189	19.77
344.319	24.77
344.45	11.77
344.581	20.77
344.712	5.77
344.842	23.77
344.973	33.77
345.104	24.77
345.234	-0.23
345.365	6.77
345.496	40.77
345.626	50.77
345.757	27.77
345.888	18.77
346.018	44.77
346.149	27.77
346.28	40.77
346.41	19.77
346.541	11.77
346.672	13.77
346.802	46.77
346.933	32.77
347.063	30.77
347.194	22.77
347.325	34.77
347.455	35.77
347.586	42.77
347.716	8.77
347.847	15.77
347.977	33.77
348.108	51.77
348.238	39.77
348.369	30.77
348.499	32.77
348.63	39.77
348.76	51.77
348.891	60.77
349.021	49.77
349.152	51.77
349.282	42.77
349.413	34.77
349.543	54.77
349.674	36.77
349.804	38.77
349.935	18.77
350.065	24.77
350.196	17.77
350.326	30.77
350.456	22.77
350.587	31.77
350.717	14.77
350.848	26.77
350.978	23.77
351.108	-1.23
351.239	26.77
351.369	7.77
351.499	31.77
351.63	24.77
351.76	21.77
351.89	11.77
352.021	32.77
352.151	4.77
352.281	33.77
352.412	17.77
352.542	18.77
352.672	-0.23
352.803	24.77
352.933	28.77
353.063	28.77
353.193	18.77
353.324	15.77
353.454	16.77
353.584	23.77
353.714	6.77
353.845	19.77
353.975	13.77
354.105	12.77
354.235	37.77
354.365	16.77
354.496	15.77
354.626	22.77
354.756	34.77
354.886	19.77
355.016	51.77
355.146	41.77
355.277	25.77
355.407	8.77
355.537	20.77
355.667	19.77
355.797	24.77
355.927	24.77
356.057	23.77
356.187	16.77
356.318	22.77
356.448	30.77
356.578	23.77
356.708	26.77
356.838	29.77
356.968	28.77
357.098	12.77
357.228	18.77
357.358	26.77
357.488	21.77
357.618	46.77
357.748	44.77
357.878	31.77
358.008	8.77
358.138	19.77
358.268	13.77
358.398	33.77
358.528	6.77
358.658	25.77
358.788	15.77
358.918	27.77
359.048	32.77
359.178	22.77
359.308	30.77
359.438	36.77
359.568	42.77
359.698	38.77
359.827	25.77
359.957	26.77
360.087	20.77
360.217	13.77
360.347	30.77
360.477	38.77
360.607	12.77
360.737	25.77
360.866	27.77
360.996	12.77
361.126	14.77
361.256	34.77
361.386	31.77
361.516	46.77
361.645	12.77
361.775	19.77
361.905	15.77
362.035	23.77
362.165	26.77
362.294	26.77
362.424	44.77
362.554	35.77
362.684	27.77
362.813	40.77
362.943	45.77
363.073	59.77
363.203	60.77
363.332	75.77
363.462	76.77
363.592	72.77
363.721	110.77
363.851	150.77
363.981	229.77
364.111	253.77
364.24	318.77
364.37	511.77
364.5	889.77
364.629	1842.77
364.759	3922.77
364.888	6430.77
365.018	9565.77
365.148	14873.77
365.277	13151.77
365.407	4865.77
365.537	3152.77
365.666	4085.77
365.796	1888.77
365.925	808.77
366.055	752.77
366.184	1031.77
366.314	1417.77
366.444	2496.77
366.573	2176.77
366.703	676.77
366.832	231.77
366.962	129.77
367.091	86.77
367.221	79.77
367.35	37.77
367.48	89.77
367.609	51.77
367.739	49.77
367.868	26.77
367.998	41.77
368.127	50.77
368.257	43.77
368.386	61.77
368.516	44.77
368.645	45.77
368.775	57.77
368.904	27.77
369.033	36.77
369.163	19.77
369.292	46.77
369.422	21.77
369.551	31.77
369.68	38.77
369.81	32.77
369.939	20.77
370.069	60.77
370.198	48.77
370.327	25.77
370.457	21.77
370.586	32.77
370.715	52.77
370.845	28.77
370.974	31.77
371.103	56.77
371.233	58.77
371.362	57.77
371.491	31.77
371.621	62.77
371.75	51.77
371.879	32.77
372.008	38.77
372.138	46.77
372.267	38.77
372.396	56.77
372.525	40.77
372.655	23.77
372.784	35.77
372.913	37.77
373.042	41.77
373.172	34.77
373.301	6.77
373.43	-6.23
373.559	-0.23
373.688	17.77
373.818	36.77
373.947	29.77
374.076	25.77
374.205	18.77
374.334	2.77
374.463	20.77
374.593	25.77
374.722	12.77
374.851	26.77
374.98	7.77
375.109	19.77
375.238	11.77
375.367	27.77
375.496	7.77
375.625	10.77
375.755	32.77
375.884	32.77
376.013	17.77
376.142	14.77
376.271	6.77
376.4	19.77
376.529	29.77
376.658	36.77
376.787	37.77
376.916	20.77
377.045	19.77
377.174	41.77
377.303	14.77
377.432	35.77
377.561	46.77
377.69	22.77
377.819	36.77
377.948	20.77
378.077	13.77
378.206	16.77
378.335	9.77
378.464	14.77
378.593	48.77
378.722	34.77
378.851	10.77
378.98	20.77
379.108	-5.23
379.237	-1.23
379.366	14.77
379.495	26.77
379.624	24.77
379.753	15.77
379.882	16.77
380.011	10.77
380.14	12.77
380.268	18.77
380.397	12.77
380.526	25.77
380.655	6.77
380.784	-6.23
380.913	-1.23
381.041	9.77
381.17	3.77
381.299	18.77
381.428	4.77
381.557	19.77
381.685	10.77
381.814	-1.23
381.943	7.77
382.072	7.77
382.2	-0.23
382.329	11.77
382.458	8.77
382.587	26.77
382.715	25.77
382.844	28.77
382.973	18.77
383.102	16.77
383.23	8.77
383.359	-5.23
383.488	19.77
383.616	8.77
383.745	0.77
383.874	24.77
384.003	8.77
384.131	22.77
384.26	19.77
384.389	14.77
384.517	3.77
384.646	-4.23
384.774	9.77
384.903	20.77
385.032	30.77
385.16	24.77
385.289	18.77
385.418	19.77
385.546	24.77
385.675	29.77
385.803	7.77
385.932	19.77
386.06	11.77
386.189	24.77
386.318	17.77
386.446	11.77
386.575	6.77
386.703	9.77
386.832	-0.23
386.96	14.77
387.089	36.77
387.217	27.77
387.346	11.77
387.474	33.77
387.603	22.77
387.731	5.77
387.86	27.77
387.988	14.77
388.117	20.77
388.245	3.77
388.374	13.77
388.502	30.77
388.631	13.77
388.759	11.77
388.888	-2.23
389.016	17.77
389.144	4.77
389.273	10.77
389.401	20.77
389.53	-1.23
389.658	31.77
389.786	12.77
389.915	-1.23
390.043	3.77
390.172	35.77
390.3	38.77
390.428	19.77
390.557	15.77
390.685	45.77
390.813	45.77
390.942	41.77
391.07	32.77
391.198	10.77
391.327	15.77
391.455	10.77
391.583	37.77
391.712	27.77
391.84	25.77
391.968	7.77
392.096	25.77
392.225	23.77
392.353	24.77
392.481	41.77
392.609	24.77
392.738	28.77
392.866	24.77
392.994	14.77
393.122	15.77
393.251	19.77
393.379	19.77
393.507	10.77
393.635	26.77
393.764	30.77
393.892	28.77
394.02	12.77
394.148	16.77
394.276	34.77
394.404	40.77
394.533	14.77
394.661	29.77
394.789	42.77
394.917	46.77
395.045	22.77
395.173	18.77
395.302	8.77
395.43	38.77
395.558	48.77
395.686	28.77
395.814	32.77
395.942	24.77
396.07	22.77
396.198	27.77
396.326	13.77
396.454	40.77
396.582	20.77
396.711	20.77
396.839	23.77
396.967	33.77
397.095	8.77
397.223	20.77
397.351	49.77
397.479	65.77
397.607	25.77
397.735	57.77
397.863	63.77
397.991	55.77
398.119	29.77
398.247	48.77
398.375	53.77
398.503	34.77
398.631	61.77
398.759	61.77
398.887	52.77
399.015	55.77
399.143	70.77
399.271	62.77
399.399	55.77
399.526	82.77
399.654	79.77
399.782	56.77
399.91	117.77
400.038	102.77
400.166	76.77
400.294	68.77
400.422	73.77
400.55	92.77
400.678	101.77
400.805	111.77
400.933	111.77
401.061	122.77
401.189	124.77
401.317	165.77
401.445	105.77
401.573	77.77
401.7	54.77
401.828	35.77
401.956	60.77
402.084	48.77
402.212	32.77
402.34	41.77
402.467	34.77
402.595	51.77
402.723	42.77
402.851	51.77
402.978	63.77
403.106	75.77
403.234	88.77
403.362	116.77
403.489	125.77
403.617	151.77
403.745	191.77
403.873	265.77
404	549.77
404.128	1483.77
404.256	3981.77
404.384	5179.77
404.511	5553.77
404.639	7354.77
404.767	11528.77
404.894	14714.77
405.022	5035.77
405.15	1324.77
405.277	441.77
405.405	244.77
405.533	135.77
405.66	107.77
405.788	46.77
405.916	47.77
406.043	44.77
406.171	49.77
406.299	53.77
406.426	56.77
406.554	33.77
406.681	69.77
406.809	53.77
406.937	62.77
407.064	83.77
407.192	131.77
407.319	295.77
407.447	527.77
407.574	540.77
407.702	624.77
407.83	844.77
407.957	1592.77
408.085	929.77
408.212	277.77
408.34	96.77
408.467	58.77
408.595	49.77
408.722	42.77
408.85	48.77
408.977	23.77
409.105	35.77
409.232	40.77
409.36	6.77
409.487	31.77
409.615	31.77
409.742	36.77
409.87	26.77
409.997	39.77
410.125	37.77
410.252	31.77
410.379	33.77
410.507	44.77
410.634	22.77
410.762	31.77
410.889	35.77
411.017	33.77
411.144	34.77
411.271	20.77
411.399	19.77
411.526	17.77
411.653	14.77
411.781	40.77
411.908	22.77
412.036	15.77
412.163	19.77
412.29	31.77
412.418	19.77
412.545	34.77
412.672	7.77
412.8	38.77
412.927	31.77
413.054	50.77
413.182	43.77
413.309	28.77
413.436	18.77
413.564	27.77
413.691	26.77
413.818	46.77
413.945	43.77
414.073	36.77
414.2	15.77
414.327	31.77
414.454	33.77
414.582	25.77
414.709	20.77
414.836	16.77
414.963	33.77
415.091	30.77
415.218	29.77
415.345	22.77
415.472	18.77
415.6	27.77
415.727	29.77
415.854	47.77
415.981	21.77
416.108	41.77
416.236	31.77
416.363	39.77
416.49	21.77
416.617	28.77
416.744	43.77
416.871	22.77
416.998	29.77
417.126	20.77
417.253	19.77
417.38	31.77
417.507	35.77
417.634	27.77
417.761	24.77
417.888	26.77
418.015	32.77
418.143	19.77
418.27	58.77
418.397	16.77
418.524	28.77
418.651	15.77
418.778	45.77
418.905	72.77
419.032	66.77
419.159	29.77
419.286	60.77
419.413	56.77
419.54	65.77
419.667	36.77
419.794	40.77
419.921	34.77
420.048	36.77
420.175	28.77
420.302	56.77
420.429	51.77
420.556	29.77
420.683	39.77
420.81	52.77
420.937	55.77
421.064	67.77
421.191	58.77
421.318	75.77
421.445	88.77
421.572	54.77
421.699	59.77
421.826	56.77
421.953	44.77
422.08	39.77
422.207	10.77
422.334	22.77
422.461	37.77
422.588	9.77
422.714	40.77
422.841	33.77
422.968	38.77
423.095	19.77
423.222	15.77
423.349	15.77
423.476	22.77
423.603	17.77
423.729	9.77
423.856	28.77
423.983	11.77
424.11	14.77
424.237	22.77
424.364	23.77
424.491	23.77
424.617	-2.23
424.744	-8.23
424.871	22.77
424.998	19.77
425.125	3.77
425.251	22.77
425.378	14.77
425.505	16.77
425.632	15.77
425.758	7.77
425.885	34.77
426.012	12.77
426.139	39.77
426.266	19.77
426.392	22.77
426.519	15.77
426.646	-4.23
426.772	17.77
426.899	27.77
427.026	17.77
427.153	4.77
427.279	41.77
427.406	36.77
427.533	9.77
427.659	23.77
427.786	23.77
427.913	42.77
428.039	12.77
428.166	20.77
428.293	24.77
428.419	29.77
428.546	29.77
428.673	22.77
428.799	26.77
428.926	16.77
429.053	26.77
429.179	29.77
429.306	47.77
429.433	41.77
429.559	41.77
429.686	27.77
429.812	32.77
429.939	33.77
430.066	32.77
430.192	29.77
430.319	28.77
430.445	26.77
430.572	27.77
430.699	23.77
430.825	3.77
430.952	20.77
431.078	28.77
431.205	39.77
431.331	28.77
431.458	33.77
431.584	35.77
431.711	22.77
431.837	14.77
431.964	20.77
432.09	17.77
432.217	0.77
432.343	13.77
432.47	56.77
432.596	15.77
432.723	16.77
432.849	28.77
432.976	38.77
433.102	32.77
433.229	32.77
433.355	76.77
433.482	69.77
433.608	93.77
433.735	97.77
433.861	105.77
433.987	159.77
434.114	199.77
434.24	185.77
434.367	219.77
434.493	234.77
434.62	270.77
434.746	369.77
434.872	644.77
434.999	844.77
435.125	1767.77
435.252	5545.77
435.378	13500.77
435.504	15258.77
435.631	15484.77
435.757	15681.77
435.883	15681.77
436.01	15681.77
436.136	15681.77
436.262	15681.77
436.389	3516.77
436.515	2668.77
436.641	888.77
436.768	668.77
436.894	400.77
437.02	397.77
437.147	297.77
437.273	297.77
437.399	212.77
437.526	231.77
437.652	162.77
437.778	189.77
437.904	123.77
438.031	159.77
438.157	138.77
438.283	160.77
438.409	115.77
438.536	132.77
438.662	115.77
438.788	124.77
438.914	105.77
439.041	130.77
439.167	128.77
439.293	95.77
439.419	100.77
439.546	110.77
439.672	91.77
439.798	104.77
439.924	99.77
440.05	91.77
440.177	84.77
440.303	80.77
440.429	68.77
440.555	73.77
440.681	53.77
440.807	89.77
440.934	43.77
441.06	54.77
441.186	55.77
441.312	47.77
441.438	70.77
441.564	72.77
441.69	58.77
441.816	64.77
441.943	37.77
442.069	58.77
442.195	58.77
442.321	64.77
442.447	48.77
442.573	38.77
442.699	37.77
442.825	38.77
442.951	41.77
443.077	69.77
443.203	55.77
443.33	49.77
443.456	22.77
443.582	26.77
443.708	27.77
443.834	69.77
443.96	49.77
444.086	55.77
444.212	42.77
444.338	42.77
444.464	50.77
444.59	56.77
444.716	49.77
444.842	38.77
444.968	30.77
445.094	28.77
445.22	44.77
445.346	40.77
445.472	22.77
445.598	29.77
445.724	26.77
445.85	36.77
445.976	33.77
446.102	28.77
446.228	52.77
446.354	51.77
446.48	29.77
446.605	21.77
446.731	38.77
446.857	12.77
446.983	40.77
447.109	43.77
447.235	46.77
447.361	27.77
447.487	35.77
447.613	55.77
447.739	29.77
447.865	27.77
447.99	23.77
448.116	35.77
448.242	31.77
448.368	20.77
448.494	18.77
448.62	32.77
448.746	32.77
448.872	26.77
448.997	7.77
449.123	13.77
449.249	31.77
449.375	45.77
449.501	39.77
449.627	10.77
449.752	41.77
449.878	21.77
450.004	15.77
450.13	27.77
450.256	37.77
450.381	26.77
450.507	38.77
450.633	24.77
450.759	48.77
450.884	27.77
451.01	16.77
451.136	29.77
451.262	26.77
451.388	40.77
451.513	11.77
451.639	28.77
451.765	35.77
451.89	28.77
452.016	14.77
452.142	8.77
452.268	38.77
452.393	36.77
452.519	13.77
452.645	15.77
452.771	15.77
452.896	12.77
453.022	12.77
453.148	30.77
453.273	29.77
453.399	35.77
453.525	16.77
453.65	23.77
453.776	31.77
453.902	26.77
454.027	37.77
454.153	22.77
454.279	33.77
454.404	10.77
454.53	32.77
454.656	32.77
454.781	28.77
454.907	21.77
455.032	30.77
455.158	40.77
455.284	42.77
455.409	29.77
455.535	32.77
455.66	38.77
455.786	46.77
455.912	36.77
456.037	16.77
456.163	22.77
456.288	36.77
456.414	20.77
456.539	13.77
456.665	32.77
456.791	30.77
456.916	9.77
457.042	28.77
457.167	-5.23
457.293	38.77
457.418	17.77
457.544	6.77
457.669	19.77
457.795	20.77
457.92	24.77
458.046	21.77
458.171	34.77
458.297	14.77
458.422	15.77
458.548	3.77
458.673	10.77
458.799	28.77
458.924	25.77
459.05	11.77
459.175	20.77
459.301	6.77
459.426	35.77
459.552	26.77
459.677	32.77
459.803	33.77
459.928	27.77
460.053	15.77
460.179	21.77
460.304	16.77
460.43	14.77
460.555	17.77
460.681	15.77
460.806	29.77
460.931	22.77
461.057	18.77
461.182	21.77
461.308	42.77
461.433	31.77
461.558	4.77
461.684	21.77
461.809	22.77
461.934	29.77
462.06	32.77
462.185	18.77
462.311	20.77
462.436	20.77
462.561	23.77
462.687	20.77
462.812	27.77
462.937	21.77
463.063	20.77
463.188	-11.23
463.313	40.77
463.439	28.77
463.564	9.77
463.689	40.77
463.814	36.77
463.94	26.77
464.065	46.77
464.19	45.77
464.316	10.77
464.441	8.77
464.566	20.77
464.692	19.77
464.817	18.77
464.942	14.77
465.067	19.77
465.193	7.77
465.318	16.77
465.443	22.77
465.568	15.77
465.694	27.77
465.819	26.77
465.944	36.77
466.069	30.77
466.194	32.77
466.32	23.77
466.445	32.77
466.57	19.77
466.695	30.77
466.82	26.77
466.946	44.77
467.071	25.77
467.196	26.77
467.321	40.77
467.446	25.77
467.572	34.77
467.697	5.77
467.822	42.77
467.947	39.77
468.072	21.77
468.197	23.77
468.323	25.77
468.448	31.77
468.573	38.77
468.698	35.77
468.823	28.77
468.948	34.77
469.073	40.77
469.198	56.77
469.324	47.77
469.449	27.77
469.574	65.77
469.699	47.77
469.824	35.77
469.949	39.77
470.074	38.77
470.199	50.77
470.324	35.77
470.449	49.77
470.574	47.77
470.7	32.77
470.825	42.77
470.95	48.77
471.075	40.77
471.2	43.77
471.325	67.77
471.45	38.77
471.575	23.77
471.7	27.77
471.825	22.77
471.95	6.77
472.075	17.77
472.2	14.77
472.325	24.77
472.45	40.77
472.575	28.77
472.7	22.77
472.825	35.77
472.95	42.77
473.075	37.77
473.2	37.77
473.325	56.77
473.45	53.77
473.575	38.77
473.7	55.77
473.825	20.77
473.95	20.77
474.075	30.77
474.2	14.77
474.325	19.77
474.45	27.77
474.574	0.77
474.699	34.77
474.824	33.77
474.949	12.77
475.074	31.77
475.199	25.77
475.324	7.77
475.449	11.77
475.574	29.77
475.699	32.77
475.824	18.77
475.949	13.77
476.073	18.77
476.198	6.77
476.323	22.77
476.448	16.77
476.573	6.77
476.698	12.77
476.823	17.77
476.947	18.77
477.072	21.77
477.197	19.77
477.322	8.77
477.447	-5.23
477.572	13.77
477.697	4.77
477.821	8.77
477.946	21.77
478.071	19.77
478.196	42.77
478.321	19.77
478.445	27.77
478.57	29.77
478.695	13.77
478.82	37.77
478.945	24.77
479.069	32.77
479.194	15.77
479.319	13.77
479.444	13.77
479.569	21.77
479.693	30.77
479.818	8.77
479.943	21.77
480.068	20.77
480.192	30.77
480.317	21.77
480.442	26.77
480.567	23.77
480.691	33.77
480.816	12.77
480.941	11.77
481.066	27.77
481.19	38.77
481.315	33.77
481.44	24.77
481.564	17.77
481.689	27.77
481.814	28.77
481.938	18.77
482.063	15.77
482.188	8.77
482.313	36.77
482.437	14.77
482.562	30.77
482.687	26.77
482.811	-1.23
482.936	-1.23
483.061	15.77
483.185	10.77
483.31	7.77
483.435	13.77
483.559	12.77
483.684	12.77
483.808	36.77
483.933	22.77
484.058	7.77
484.182	0.77
484.307	10.77
484.432	22.77
484.556	17.77
484.681	21.77
484.805	17.77
484.93	10.77
485.055	18.77
485.179	30.77
485.304	25.77
485.428	32.77
485.553	8.77
485.678	20.77
485.802	14.77
485.927	30.77
486.051	22.77
486.176	18.77
486.3	-2.23
486.425	18.77
486.549	31.77
486.674	52.77
486.799	27.77
486.923	7.77
487.048	14.77
487.172	10.77
487.297	25.77
487.421	33.77
487.546	13.77
487.67	9.77
487.795	3.77
487.919	-2.23
488.044	21.77
488.168	30.77
488.293	10.77
488.417	4.77
488.542	16.77
488.666	20.77
488.791	10.77
488.915	11.77
489.04	18.77
489.164	28.77
489.289	37.77
489.413	3.77
489.538	13.77
489.662	37.77
489.786	3.77
489.911	24.77
490.035	23.77
490.16	10.77
490.284	10.77
490.409	5.77
490.533	18.77
490.658	45.77
490.782	36.77
490.906	50.77
491.031	107.77
491.155	146.77
491.28	151.77
491.404	176.77
491.528	249.77
491.653	141.77
491.777	73.77
491.902	19.77
492.026	36.77
492.15	44.77
492.275	52.77
492.399	42.77
492.524	25.77
492.648	27.77
492.772	28.77
492.897	30.77
493.021	-4.23
493.145	39.77
493.27	26.77
493.394	16.77
493.518	17.77
493.643	8.77
493.767	34.77
493.891	11.77
494.016	17.77
494.14	19.77
494.264	26.77
494.389	28.77
494.513	12.77
494.637	9.77
494.762	21.77
494.886	21.77
495.01	26.77
495.134	22.77
495.259	37.77
495.383	14.77
495.507	8.77
495.632	24.77
495.756	43.77
495.88	19.77
496.004	14.77
496.129	-8.23
496.253	7.77
496.377	13.77
496.501	51.77
496.626	11.77
496.75	22.77
496.874	19.77
496.998	17.77
497.123	33.77
497.247	22.77
497.371	26.77
497.495	19.77
497.62	2.77
497.744	2.77
497.868	12.77
497.992	19.77
498.116	30.77
498.241	38.77
498.365	12.77
498.489	21.77
498.613	28.77
498.737	23.77
498.862	19.77
498.986	-1.23
499.11	14.77
499.234	20.77
499.358	8.77
499.482	-5.23
499.607	25.77
499.731	15.77
499.855	43.77
499.979	22.77
500.103	30.77
500.227	11.77
500.351	7.77
500.476	9.77
500.6	19.77
500.724	13.77
500.848	25.77
500.972	21.77
501.096	9.77
501.22	40.77
501.344	16.77
501.469	11.77
501.593	15.77
501.717	27.77
501.841	15.77
501.965	27.77
502.089	18.77
502.213	21.77
502.337	6.77
502.461	10.77
502.585	30.77
502.709	28.77
502.834	22.77
502.958	27.77
503.082	6.77
503.206	29.77
503.33	31.77
503.454	31.77
503.578	12.77
503.702	32.77
503.826	15.77
503.95	41.77
504.074	24.77
504.198	12.77
504.322	-2.23
504.446	10.77
504.57	9.77
504.694	20.77
504.818	12.77
504.942	30.77
505.066	18.77
505.19	20.77
505.314	8.77
505.438	35.77
505.562	7.77
505.686	29.77
505.81	15.77
505.934	24.77
506.058	13.77
506.182	33.77
506.306	7.77
506.43	4.77
506.554	18.77
506.678	18.77
506.802	21.77
506.926	17.77
507.05	20.77
507.174	39.77
507.298	40.77
507.422	27.77
507.546	18.77
507.67	28.77
507.794	7.77
507.918	19.77
508.042	30.77
508.165	18.77
508.289	16.77
508.413	13.77
508.537	19.77
508.661	7.77
508.785	22.77
508.909	29.77
509.033	22.77
509.157	15.77
509.281	32.77
509.405	24.77
509.528	44.77
509.652	44.77
509.776	19.77
509.9	48.77
510.024	31.77
510.148	11.77
510.272	31.77
510.396	39.77
510.519	33.77
510.643	43.77
510.767	50.77
510.891	54.77
511.015	38.77
511.139	46.77
511.263	46.77
511.386	35.77
511.51	44.77
511.634	27.77
511.758	40.77
511.882	42.77
512.006	40.77
512.129	39.77
512.253	85.77
512.377	81.77
512.501	84.77
512.625	79.77
512.748	66.77
512.872	75.77
512.996	56.77
513.12	45.77
513.244	39.77
513.367	72.77
513.491	63.77
513.615	75.77
513.739	62.77
513.862	73.77
513.986	73.77
514.11	102.77
514.234	98.77
514.358	103.77
514.481	106.77
514.605	102.77
514.729	132.77
514.853	120.77
514.976	76.77
515.1	104.77
515.224	113.77
515.348	78.77
515.471	80.77
515.595	77.77
515.719	113.77
515.842	233.77
515.966	275.77
516.09	289.77
516.214	279.77
516.337	323.77
516.461	241.77
516.585	72.77
516.708	34.77
516.832	29.77
516.956	26.77
517.08	21.77
517.203	-2.23
517.327	17.77
517.451	24.77
517.574	27.77
517.698	19.77
517.822	22.77
517.945	23.77
518.069	21.77
518.193	43.77
518.316	20.77
518.44	30.77
518.564	-5.23
518.687	4.77
518.811	16.77
518.935	30.77
519.058	12.77
519.182	17.77
519.306	20.77
519.429	18.77
519.553	60.77
519.676	32.77
519.8	10.77
519.924	-8.23
520.047	17.77
520.171	11.77
520.294	4.77
520.418	8.77
520.542	10.77
520.665	24.77
520.789	23.77
520.913	18.77
521.036	3.77
521.16	6.77
521.283	16.77
521.407	18.77
521.53	3.77
521.654	-1.23
521.778	39.77
521.901	12.77
522.025	16.77
522.148	6.77
522.272	8.77
522.395	23.77
522.519	24.77
522.643	9.77
522.766	11.77
522.89	20.77
523.013	38.77
523.137	6.77
523.26	-7.23
523.384	11.77
523.507	1.77
523.631	12.77
523.754	7.77
523.878	12.77
524.002	15.77
524.125	-6.23
524.249	-2.23
524.372	23.77
524.496	30.77
524.619	6.77
524.743	14.77
524.866	16.77
524.99	25.77
525.113	4.77
525.237	11.77
525.36	10.77
525.484	26.77
525.607	-3.23
525.731	0.77
525.854	14.77
525.978	38.77
526.101	16.77
526.224	10.77
526.348	14.77
526.471	18.77
526.595	7.77
526.718	7.77
526.842	-2.23
526.965	13.77
527.089	10.77
527.212	16.77
527.336	9.77
527.459	18.77
527.582	19.77
527.706	21.77
527.829	9.77
527.953	10.77
528.076	8.77
528.2	1.77
528.323	10.77
528.446	38.77
528.57	18.77
528.693	37.77
528.817	18.77
528.94	31.77
529.064	39.77
529.187	-0.23
529.31	-4.23
529.434	17.77
529.557	6.77
529.68	8.77
529.804	14.77
529.927	23.77
530.051	10.77
530.174	-2.23
530.297	0.77
530.421	18.77
530.544	38.77
530.668	20.77
530.791	19.77
530.914	31.77
531.038	20.77
531.161	16.77
531.284	15.77
531.408	8.77
531.531	-3.23
531.654	2.77
531.778	9.77
531.901	4.77
532.024	18.77
532.148	19.77
532.271	24.77
532.394	10.77
532.518	16.77
532.641	11.77
532.764	25.77
532.888	12.77
533.011	-9.23
533.134	7.77
533.258	33.77
533.381	27.77
533.504	13.77
533.628	13.77
533.751	18.77
533.874	12.77
533.997	15.77
534.121	-12.23
534.244	-9.23
534.367	3.77
534.491	6.77
534.614	10.77
534.737	32.77
534.86	25.77
534.984	18.77
535.107	21.77
535.23	18.77
535.354	17.77
535.477	6.77
535.6	24.77
535.723	14.77
535.847	13.77
535.97	6.77
536.093	28.77
536.216	20.77
536.34	35.77
536.463	8.77
536.586	8.77
536.709	7.77
536.833	12.77
536.956	12.77
537.079	9.77
537.202	24.77
537.325	14.77
537.449	13.77
537.572	19.77
537.695	3.77
537.818	7.77
537.941	5.77
538.065	17.77
538.188	14.77
538.311	26.77
538.434	32.77
538.558	22.77
538.681	27.77
538.804	15.77
538.927	14.77
539.05	28.77
539.173	19.77
539.297	19.77
539.42	-2.23
539.543	18.77
539.666	17.77
539.789	25.77
539.913	19.77
540.036	16.77
540.159	13.77
540.282	5.77
540.405	4.77
540.528	21.77
540.651	19.77
540.775	14.77
540.898	13.77
541.021	8.77
541.144	40.77
541.267	41.77
541.39	24.77
541.513	54.77
541.637	21.77
541.76	19.77
541.883	41.77
542.006	48.77
542.129	51.77
542.252	41.77
542.375	44.77
542.498	46.77
542.622	48.77
542.745	39.77
542.868	31.77
542.991	52.77
543.114	51.77
543.237	58.77
543.36	68.77
543.483	54.77
543.606	76.77
543.73	74.77
543.853	77.77
543.976	88.77
544.099	122.77
544.222	117.77
544.345	135.77
544.468	174.77
544.591	224.77
544.714	266.77
544.837	366.77
544.96	452.77
545.083	649.77
545.206	1091.77
545.329	2453.77
545.453	11071.77
545.576	15274.77
545.699	15681.77
545.822	15681.77
545.945	15681.77
546.068	15681.77
546.191	15681.77
546.314	15681.77
546.437	15681.77
546.56	15681.77
546.683	15681.77
546.806	15681.77
546.929	15681.77
547.052	15681.77
547.175	15681.77
547.298	15681.77
547.421	15681.77
547.544	15681.77
547.667	3966.77
547.79	4596.77
547.913	1395.77
548.036	999.77
548.159	674.77
548.282	666.77
548.405	501.77
548.528	516.77
548.651	406.77
548.774	403.77
548.897	343.77
549.02	370.77
549.143	303.77
549.266	286.77
549.389	267.77
549.512	250.77
549.635	250.77
549.758	273.77
549.881	216.77
550.004	228.77
550.127	209.77
550.25	175.77
550.373	163.77
550.496	200.77
550.619	159.77
550.742	141.77
550.865	141.77
550.988	155.77
551.111	145.77
551.234	152.77
551.356	126.77
551.479	140.77
551.602	139.77
551.725	147.77
551.848	128.77
551.971	138.77
552.094	106.77
552.217	120.77
552.34	97.77
552.463	104.77
552.586	103.77
552.709	113.77
552.832	114.77
552.955	127.77
553.077	87.77
553.2	99.77
553.323	74.77
553.446	88.77
553.569	69.77
553.692	85.77
553.815	100.77
553.938	101.77
554.061	106.77
554.184	85.77
554.306	97.77
554.429	99.77
554.552	64.77
554.675	70.77
554.798	79.77
554.921	86.77
555.044	68.77
555.167	62.77
555.29	54.77
555.412	82.77
555.535	83.77
555.658	87.77
555.781	69.77
555.904	82.77
556.027	82.77
556.15	76.77
556.272	71.77
556.395	77.77
556.518	68.77
556.641	64.77
556.764	61.77
556.887	84.77
557.01	65.77
557.132	62.77
557.255	73.77
557.378	69.77
557.501	72.77
557.624	79.77
557.747	80.77
557.869	67.77
557.992	71.77
558.115	93.77
558.238	93.77
558.361	105.77
558.483	119.77
558.606	86.77
558.729	41.77
558.852	75.77
558.975	63.77
559.098	61.77
559.22	56.77
559.343	61.77
559.466	39.77
559.589	53.77
559.712	60.77
559.834	49.77
559.957	42.77
560.08	50.77
560.203	59.77
560.325	59.77
560.448	71.77
560.571	52.77
560.694	48.77
560.817	69.77
560.939	57.77
561.062	66.77
561.185	68.77
561.308	56.77
561.43	45.77
561.553	60.77
561.676	45.77
561.799	61.77
561.921	72.77
562.044	51.77
562.167	43.77
562.29	73.77
562.413	70.77
562.535	61.77
562.658	51.77
562.781	60.77
562.903	72.77
563.026	88.77
563.149	114.77
563.272	126.77
563.394	112.77
563.517	89.77
563.64	69.77
563.763	37.77
563.885	62.77
564.008	73.77
564.131	34.77
564.254	14.77
564.376	51.77
564.499	20.77
564.622	42.77
564.744	47.77
564.867	40.77
564.99	52.77
565.113	38.77
565.235	37.77
565.358	47.77
565.481	26.77
565.603	31.77
565.726	28.77
565.849	39.77
565.971	38.77
566.094	8.77
566.217	35.77
566.34	40.77
566.462	44.77
566.585	37.77
566.708	47.77
566.83	30.77
566.953	47.77
567.076	31.77
567.198	31.77
567.321	21.77
567.444	48.77
567.566	47.77
567.689	24.77
567.812	31.77
567.934	43.77
568.057	32.77
568.18	36.77
568.302	37.77
568.425	27.77
568.548	31.77
568.67	39.77
568.793	39.77
568.916	52.77
569.038	19.77
569.161	34.77
569.283	26.77
569.406	35.77
569.529	20.77
569.651	15.77
569.774	33.77
569.897	22.77
570.019	38.77
570.142	44.77
570.265	47.77
570.387	29.77
570.51	36.77
570.632	53.77
570.755	18.77
570.878	23.77
571	44.77
571.123	37.77
571.246	47.77
571.368	26.77
571.491	22.77
571.613	16.77
571.736	17.77
571.859	31.77
571.981	31.77
572.104	24.77
572.226	45.77
572.349	25.77
572.472	54.77
572.594	43.77
572.717	31.77
572.839	26.77
572.962	41.77
573.085	54.77
573.207	46.77
573.33	27.77
573.452	38.77
573.575	48.77
573.697	40.77
573.82	31.77
573.943	35.77
574.065	39.77
574.188	47.77
574.31	48.77
574.433	48.77
574.555	67.77
574.678	52.77
574.801	37.77
574.923	26.77
575.046	30.77
575.168	35.77
575.291	29.77
575.413	39.77
575.536	41.77
575.659	42.77
575.781	44.77
575.904	50.77
576.026	65.77
576.149	96.77
576.271	122.77
576.394	208.77
576.516	543.77
576.639	3691.77
576.761	10231.77
576.884	8981.77
577.007	8938.77
577.129	8166.77
577.252	3803.77
577.374	1344.77
577.497	532.77
577.619	279.77
577.742	170.77
577.864	133.77
577.987	126.77
578.109	123.77
578.232	127.77
578.354	130.77
578.477	186.77
578.599	400.77
578.722	1979.77
578.844	9254.77
578.967	9918.77
579.089	8897.77
579.212	9211.77
579.334	5375.77
579.457	1931.77
579.579	727.77
579.702	317.77
579.824	191.77
579.947	123.77
580.069	94.77
580.192	76.77
580.314	89.77
580.437	66.77
580.559	90.77
580.682	73.77
580.804	63.77
580.927	79.77
581.049	68.77
581.172	46.77
581.294	47.77
581.417	58.77
581.539	34.77
581.662	37.77
581.784	43.77
581.907	53.77
582.029	46.77
582.152	21.77
582.274	34.77
582.396	37.77
582.519	40.77
582.641	25.77
582.764	36.77
582.886	40.77
583.009	35.77
583.131	41.77
583.254	39.77
583.376	53.77
583.499	46.77
583.621	34.77
583.743	43.77
583.866	38.77
583.988	26.77
584.111	22.77
584.233	43.77
584.356	37.77
584.478	43.77
584.601	16.77
584.723	19.77
584.845	43.77
584.968	29.77
585.09	19.77
585.213	25.77
585.335	20.77
585.458	27.77
585.58	36.77
585.702	41.77
585.825	48.77
585.947	37.77
586.07	23.77
586.192	34.77
586.315	42.77
586.437	22.77
586.559	35.77
586.682	33.77
586.804	39.77
586.927	22.77
587.049	21.77
587.171	35.77
587.294	51.77
587.416	26.77
587.539	18.77
587.661	24.77
587.783	30.77
587.906	25.77
588.028	34.77
588.151	38.77
588.273	24.77
588.395	23.77
588.518	18.77
588.64	27.77
588.763	48.77
588.885	28.77
589.007	34.77
589.13	0.77
589.252	4.77
589.375	15.77
589.497	20.77
589.619	33.77
589.742	35.77
589.864	43.77
589.986	29.77
590.109	17.77
590.231	4.77
590.354	21.77
590.476	16.77
590.598	24.77
590.721	0.77
590.843	39.77
590.965	33.77
591.088	22.77
591.21	28.77
591.332	26.77
591.455	-2.23
591.577	3.77
591.7	27.77
591.822	38.77
591.944	31.77
592.067	17.77
592.189	31.77
592.311	34.77
592.434	27.77
592.556	30.77
592.678	36.77
592.801	21.77
592.923	17.77
593.045	19.77
593.168	20.77
593.29	35.77
593.412	25.77
593.535	2.77
593.657	18.77
593.779	21.77
593.902	19.77
594.024	24.77
594.146	31.77
594.269	35.77
594.391	18.77
594.513	35.77
594.636	33.77
594.758	4.77
594.88	27.77
595.003	38.77
595.125	29.77
595.247	19.77
595.37	29.77
595.492	23.77
595.614	38.77
595.737	23.77
595.859	22.77
595.981	24.77
596.104	17.77
596.226	15.77
596.348	34.77
596.471	11.77
596.593	24.77
596.715	8.77
596.838	27.77
596.96	21.77
597.082	19.77
597.204	31.77
597.327	29.77
597.449	18.77
597.571	24.77
597.694	52.77
597.816	21.77
597.938	14.77
598.061	18.77
598.183	24.77
598.305	43.77
598.427	32.77
598.55	14.77
598.672	18.77
598.794	33.77
598.917	11.77
599.039	23.77
599.161	26.77
599.283	24.77
599.406	16.77
599.528	30.77
599.65	42.77
599.773	25.77
599.895	52.77
600.017	35.77
600.139	28.77
600.262	3.77
600.384	32.77
600.506	15.77
600.628	20.77
600.751	35.77
600.873	4.77
600.995	15.77
601.118	22.77
601.24	16.77
601.362	21.77
601.484	31.77
601.607	12.77
601.729	6.77
601.851	35.77
601.973	10.77
602.096	22.77
602.218	22.77
602.34	14.77
602.462	28.77
602.585	3.77
602.707	24.77
602.829	25.77
602.951	27.77
603.074	-0.23
603.196	12.77
603.318	0.77
603.44	30.77
603.563	23.77
603.685	11.77
603.807	31.77
603.929	24.77
604.052	22.77
604.174	29.77
604.296	27.77
604.418	25.77
604.541	32.77
604.663	12.77
604.785	12.77
604.907	14.77
605.03	13.77
605.152	46.77
605.274	14.77
605.396	16.77
605.519	-0.23
605.641	10.77
605.763	14.77
605.885	18.77
606.008	19.77
606.13	21.77
606.252	36.77
606.374	3.77
606.496	10.77
606.619	24.77
606.741	-5.23
606.863	31.77
606.985	32.77
607.108	24.77
607.23	8.77
607.352	3.77
607.474	0.77
607.596	29.77
607.719	23.77
607.841	36.77
607.963	19.77
608.085	9.77
608.207	33.77
608.33	8.77
608.452	18.77
608.574	10.77
608.696	26.77
608.819	12.77
608.941	22.77
609.063	22.77
609.185	20.77
609.307	35.77
609.43	13.77
609.552	35.77
609.674	0.77
609.796	17.77
609.918	28.77
610.041	16.77
610.163	25.77
610.285	14.77
610.407	28.77
610.529	6.77
610.652	7.77
610.774	23.77
610.896	2.77
611.018	8.77
611.14	26.77
611.263	13.77
611.385	16.77
611.507	30.77
611.629	22.77
611.751	19.77
611.873	44.77
611.996	20.77
612.118	25.77
612.24	24.77
612.362	33.77
612.484	28.77
612.607	44.77
612.729	68.77
612.851	12.77
612.973	11.77
613.095	24.77
613.218	18.77
613.34	8.77
613.462	19.77
613.584	10.77
613.706	12.77
613.828	33.77
613.951	24.77
614.073	16.77
614.195	6.77
614.317	32.77
614.439	38.77
614.561	6.77
614.684	18.77
614.806	20.77
614.928	19.77
615.05	37.77
615.172	26.77
615.294	31.77
615.417	21.77
615.539	11.77
615.661	19.77
615.783	35.77
615.905	16.77
616.027	16.77
616.15	28.77
616.272	24.77
616.394	16.77
616.516	15.77
616.638	23.77
616.76	16.77
616.883	28.77
617.005	3.77
617.127	18.77
617.249	31.77
617.371	14.77
617.493	3.77
617.615	29.77
617.738	39.77
617.86	33.77
617.982	15.77
618.104	14.77
618.226	18.77
618.348	8.77
618.471	31.77
618.593	11.77
618.715	2.77
618.837	9.77
618.959	11.77
619.081	26.77
619.203	27.77
619.326	13.77
619.448	38.77
619.57	40.77
619.692	28.77
619.814	24.77
619.936	16.77
620.058	26.77
620.181	18.77
620.303	21.77
620.425	16.77
620.547	3.77
620.669	15.77
620.791	2.77
620.913	15.77
621.036	26.77
621.158	30.77
621.28	11.77
621.402	-2.23
621.524	13.77
621.646	15.77
621.768	2.77
621.891	-3.23
622.013	2.77
622.135	10.77
622.257	12.77
622.379	14.77
622.501	17.77
622.623	11.77
622.745	27.77
622.868	22.77
622.99	11.77
623.112	23.77
623.234	18.77
623.356	17.77
623.478	7.77
623.6	24.77
623.722	20.77
623.845	23.77
623.967	28.77
624.089	18.77
624.211	20.77
624.333	16.77
624.455	15.77
624.577	15.77
624.699	14.77
624.822	10.77
624.944	18.77
625.066	24.77
625.188	3.77
625.31	11.77
625.432	23.77
625.554	2.77
625.676	44.77
625.799	26.77
625.921	39.77
626.043	29.77
626.165	22.77
626.287	-5.23
626.409	30.77
626.531	27.77
626.653	15.77
626.775	19.77
626.898	26.77
627.02	28.77
627.142	52.77
627.264	13.77
627.386	12.77
627.508	11.77
627.63	-2.23
627.752	11.77
627.874	11.77
627.997	13.77
628.119	23.77
628.241	13.77
628.363	20.77
628.485	23.77
628.607	18.77
628.729	6.77
628.851	-13.23
628.973	0.77
629.096	-5.23
629.218	3.77
629.34	34.77
629.462	19.77
629.584	10.77
629.706	27.77
629.828	18.77
629.95	8.77
630.072	0.77
630.195	5.77
630.317	14.77
630.439	7.77
630.561	27.77
630.683	-0.23
630.805	24.77
630.927	23.77
631.049	-0.23
631.171	-1.23
631.293	16.77
631.416	10.77
631.538	2.77
631.66	22.77
631.782	2.77
631.904	26.77
632.026	19.77
632.148	34.77
632.27	3.77
632.392	20.77
632.514	19.77
632.637	6.77
632.759	6.77
632.881	-5.23
633.003	-1.23
633.125	12.77
633.247	3.77
633.369	14.77
633.491	8.77
633.613	29.77
633.735	6.77
633.858	10.77
633.98	6.77
634.102	13.77
634.224	-14.23
634.346	14.77
634.468	9.77
634.59	18.77
634.712	25.77
634.834	37.77
634.956	11.77
635.078	11.77
635.201	8.77
635.323	3.77
635.445	12.77
635.567	-3.23
635.689	12.77
635.811	17.77
635.933	6.77
636.055	13.77
636.177	17.77
636.299	25.77
636.421	15.77
636.544	-9.23
636.666	8.77
636.788	4.77
636.91	20.77
637.032	21.77
637.154	17.77
637.276	34.77
637.398	18.77
637.52	23.77
637.642	15.77
637.764	12.77
637.887	7.77
638.009	10.77
638.131	8.77
638.253	-1.23
638.375	23.77
638.497	8.77
638.619	0.77
638.741	7.77
638.863	-13.23
638.985	-0.23
639.107	24.77
639.23	2.77
639.352	26.77
639.474	12.77
639.596	5.77
639.718	4.77
639.84	4.77
639.962	14.77
640.084	7.77
640.206	32.77
640.328	3.77
640.45	6.77
640.573	-0.23
640.695	9.77
640.817	14.77
640.939	26.77
641.061	12.77
641.183	13.77
641.305	6.77
641.427	9.77
641.549	27.77
641.671	28.77
641.793	9.77
641.915	25.77
642.038	8.77
642.16	2.77
642.282	11.77
642.404	18.77
642.526	25.77
642.648	4.77
642.77	5.77
642.892	27.77
643.014	20.77
643.136	22.77
643.258	11.77
643.381	25.77
643.503	31.77
643.625	18.77
643.747	-1.23
643.869	2.77
643.991	15.77
644.113	20.77
644.235	26.77
644.357	20.77
644.479	24.77
644.601	3.77
644.723	-3.23
644.846	3.77
644.968	11.77
645.09	-0.23
645.212	7.77
645.334	18.77
645.456	5.77
645.578	4.77
645.7	22.77
645.822	18.77
645.944	12.77
646.066	18.77
646.188	10.77
646.311	25.77
646.433	5.77
646.555	24.77
646.677	4.77
646.799	19.77
646.921	28.77
647.043	25.77
647.165	10.77
647.287	7.77
647.409	-0.23
647.531	11.77
647.654	-17.23
647.776	13.77
647.898	14.77
648.02	4.77
648.142	-1.23
648.264	6.77
648.386	-7.23
648.508	7.77
648.63	8.77
648.752	10.77
648.874	0.77
648.997	14.77
649.119	10.77
649.241	8.77
649.363	23.77
649.485	40.77
649.607	11.77
649.729	-7.23
649.851	0.77
649.973	0.77
650.095	13.77
650.217	15.77
650.34	-19.23
650.462	20.77
650.584	3.77
650.706	18.77
650.828	12.77
650.95	3.77
651.072	16.77
651.194	2.77
651.316	18.77
651.438	0.77
651.56	-11.23
651.683	-7.23
651.805	5.77
651.927	-1.23
652.049	3.77
652.171	0.77
652.293	18.77
652.415	9.77
652.537	2.77
652.659	-0.23
652.781	-5.23
652.903	15.77
653.026	10.77
653.148	-2.23
653.27	8.77
653.392	9.77
653.514	7.77
653.636	-9.23
653.758	-8.23
653.88	-8.23
654.002	2.77
654.124	8.77
654.247	9.77
654.369	14.77
654.491	10.77
654.613	15.77
654.735	-0.23
654.857	30.77
654.979	27.77
655.101	26.77
655.223	22.77
655.345	14.77
655.468	18.77
655.59	15.77
655.712	8.77
655.834	11.77
655.956	28.77
656.078	4.77
656.2	-0.23
656.322	7.77
656.444	-2.23
656.566	-1.23
656.689	-3.23
656.811	27.77
656.933	28.77
657.055	9.77
657.177	23.77
657.299	-5.23
657.421	6.77
657.543	8.77
657.665	-1.23
657.787	11.77
657.91	7.77
658.032	2.77
658.154	0.77
658.276	13.77
658.398	-9.23
658.52	-0.23
658.642	-7.23
658.764	20.77
658.886	-8.23
659.009	6.77
659.131	15.77
659.253	8.77
659.375	9.77
659.497	12.77
659.619	8.77
659.741	3.77
659.863	7.77
659.985	-6.23
660.108	5.77
660.23	-3.23
660.352	20.77
660.474	15.77
660.596	9.77
660.718	12.77
660.84	-7.23
660.962	10.77
661.084	-5.23
661.207	13.77
661.329	3.77
661.451	12.77
661.573	13.77
661.695	26.77
661.817	22.77
661.939	21.77
662.061	27.77
662.184	-0.23
662.306	-4.23
662.428	11.77
662.55	18.77
662.672	2.77
662.794	13.77
662.916	9.77
663.038	-5.23
663.161	18.77
663.283	18.77
663.405	24.77
663.527	14.77
663.649	28.77
663.771	16.77
663.893	6.77
664.015	12.77
664.138	3.77
664.26	10.77
664.382	20.77
664.504	8.77
664.626	-17.23
664.748	-8.23
664.87	7.77
664.992	23.77
665.115	26.77
665.237	20.77
665.359	12.77
665.481	0.77
665.603	10.77
665.725	-5.23
665.847	-22.23
665.97	15.77
666.092	7.77
666.214	22.77
666.336	4.77
666.458	23.77
666.58	17.77
666.702	4.77
666.825	12.77
666.947	-8.23
667.069	-1.23
667.191	7.77
667.313	9.77
667.435	-0.23
667.557	-6.23
667.68	10.77
667.802	-1.23
667.924	2.77
668.046	22.77
668.168	12.77
668.29	28.77
668.412	-11.23
668.535	19.77
668.657	6.77
668.779	-0.23
668.901	28.77
669.023	17.77
669.145	5.77
669.267	23.77
669.39	11.77
669.512	7.77
669.634	24.77
669.756	2.77
669.878	16.77
670	14.77
670.123	7.77
670.245	33.77
670.367	23.77
670.489	29.77
670.611	13.77
670.733	12.77
670.856	3.77
670.978	3.77
671.1	-7.23
671.222	14.77
671.344	-1.23
671.466	3.77
671.589	-4.23
671.711	-7.23
671.833	0.77
671.955	17.77
672.077	4.77
672.199	21.77
672.322	18.77
672.444	2.77
672.566	12.77
672.688	22.77
672.81	19.77
672.932	12.77
673.055	2.77
673.177	-0.23
673.299	7.77
673.421	2.77
673.543	23.77
673.665	30.77
673.788	31.77
673.91	-4.23
674.032	-11.23
674.154	2.77
674.276	2.77
674.399	-4.23
674.521	-8.23
674.643	0.77
674.765	7.77
674.887	19.77
675.009	6.77
675.132	-1.23
675.254	15.77
675.376	6.77
675.498	13.77
675.62	26.77
675.743	18.77
675.865	-0.23
675.987	4.77
676.109	-8.23
676.231	10.77
676.354	26.77
676.476	5.77
676.598	18.77
676.72	9.77
676.842	20.77
676.965	0.77
677.087	11.77
677.209	24.77
677.331	2.77
677.453	11.77
677.576	7.77
677.698	2.77
677.82	2.77
677.942	-0.23
678.064	-1.23
678.187	2.77
678.309	12.77
678.431	14.77
678.553	-3.23
678.675	28.77
678.798	20.77
678.92	5.77
679.042	8.77
679.164	3.77
679.286	9.77
679.409	20.77
679.531	3.77
679.653	0.77
679.775	8.77
679.898	0.77
680.02	5.77
680.142	10.77
680.264	12.77
680.386	7.77
680.509	18.77
680.631	15.77
680.753	13.77
680.875	-4.23
680.998	10.77
681.12	-3.23
681.242	6.77
681.364	4.77
681.486	10.77
681.609	-6.23
681.731	-7.23
681.853	-4.23
681.975	-1.23
682.098	13.77
682.22	23.77
682.342	13.77
682.464	9.77
682.587	11.77
682.709	12.77
682.831	-0.23
682.953	9.77
683.076	13.77
683.198	25.77
683.32	10.77
683.442	-5.23
683.565	21.77
683.687	10.77
683.809	10.77
683.931	-7.23
684.054	2.77
684.176	12.77
684.298	20.77
684.42	8.77
684.543	21.77
684.665	-3.23
684.787	-5.23
684.909	-6.23
685.032	4.77
685.154	-5.23
685.276	21.77
685.398	5.77
685.521	-9.23
685.643	2.77
685.765	11.77
685.887	28.77
686.01	15.77
686.132	10.77
686.254	3.77
686.377	11.77
686.499	8.77
686.621	14.77
686.743	31.77
686.866	-1.23
686.988	24.77
687.11	14.77
687.232	6.77
687.355	6.77
687.477	19.77
687.599	10.77
687.722	15.77
687.844	-5.23
687.966	16.77
688.088	26.77
688.211	43.77
688.333	26.77
688.455	3.77
688.578	24.77
688.7	28.77
688.822	20.77
688.944	12.77
689.067	39.77
689.189	8.77
689.311	4.77
689.434	4.77
689.556	3.77
689.678	23.77
689.801	16.77
689.923	12.77
690.045	26.77
690.167	28.77
690.29	17.77
690.412	23.77
690.534	20.77
690.657	-2.23
690.779	11.77
690.901	4.77
691.024	0.77
691.146	3.77
691.268	-3.23
691.391	16.77
691.513	21.77
691.635	19.77
691.758	22.77
691.88	24.77
692.002	-3.23
692.125	6.77
692.247	5.77
692.369	9.77
692.492	-21.23
692.614	-0.23
692.736	11.77
692.859	23.77
692.981	11.77
693.103	3.77
693.226	11.77
693.348	32.77
693.47	14.77
693.593	40.77
693.715	37.77
693.837	36.77
693.96	7.77
694.082	-1.23
694.204	8.77
694.327	2.77
694.449	4.77
694.571	7.77
694.694	12.77
694.816	11.77
694.938	15.77
695.061	19.77
695.183	11.77
695.305	8.77
695.428	-2.23
695.55	2.77
695.672	6.77
695.795	45.77
695.917	11.77
696.04	12.77
696.162	9.77
696.284	11.77
696.407	-4.23
696.529	-0.23
696.651	23.77
696.774	4.77
696.896	10.77
697.019	22.77
697.141	28.77
697.263	14.77
697.386	0.77
697.508	6.77
697.63	2.77
697.753	14.77
697.875	3.77
697.998	-7.23
698.12	22.77
698.242	3.77
698.365	9.77
698.487	-5.23
698.61	15.77
698.732	15.77
698.854	21.77
698.977	11.77
699.099	11.77
699.221	8.77
699.344	0.77
699.466	21.77
699.589	4.77
699.711	2.77
699.834	8.77
699.956	6.77
700.078	16.77
700.201	13.77
700.323	12.77
700.446	18.77
700.568	7.77
700.69	10.77
700.813	23.77
700.935	7.77
701.058	20.77
701.18	12.77
701.302	3.77
701.425	10.77
701.547	5.77
701.67	2.77
701.792	-0.23
701.915	-1.23
702.037	-8.23
702.159	8.77
702.282	14.77
702.404	10.77
702.527	-1.23
702.649	23.77
702.772	7.77
702.894	19.77
703.017	19.77
703.139	14.77
703.261	18.77
703.384	22.77
703.506	-1.23
703.629	0.77
703.751	14.77
703.874	9.77
703.996	-3.23
704.119	2.77
704.241	10.77
704.364	-3.23
704.486	14.77
704.608	2.77
704.731	15.77
704.853	22.77
704.976	-2.23
705.098	9.77
705.221	0.77
705.343	12.77
705.466	20.77
705.588	32.77
705.711	17.77
705.833	30.77
705.956	21.77
706.078	24.77
706.201	6.77
706.323	16.77
706.446	-11.23
