Data from LowRes_mercury_15_20_11_07_2024_HR4C61881__69__15-23-39-170.txt Node

Date: Thu Nov 07 15:23:39 EST 2024
User: crc00042
Spectrometer: HR4C6188
Trigger mode: 4
Integration Time (sec): 1.000000E-1
Scans to average: 1
Electric dark correction enabled: true
Nonlinearity correction enabled: false
Boxcar width: 0
XAxis mode: Wavelengths
Number of Pixels in Spectrum: 3648
>>>>>Begin Spectral Data<<<<<
245.66	-82.77
245.797	-82.77
245.934	-82.77
246.071	-72.77
246.208	13.23
246.344	6.23
246.481	-8.77
246.618	-10.77
246.755	12.23
246.892	-17.77
247.029	-14.77
247.165	-5.77
247.302	8.23
247.439	1.23
247.576	14.23
247.713	1.23
247.849	18.23
247.986	-3.77
248.123	-0.77
248.26	7.23
248.396	13.23
248.533	-9.77
248.67	-10.77
248.806	11.23
248.943	-14.77
249.08	4.23
249.216	6.23
249.353	-26.77
249.49	-15.77
249.626	8.23
249.763	-8.77
249.9	-13.77
250.036	-15.77
250.173	4.23
250.309	-11.77
250.446	4.23
250.582	-22.77
250.719	-4.77
250.856	-12.77
250.992	1.23
251.129	-1.77
251.265	-8.77
251.402	-7.77
251.538	-17.77
251.675	-8.77
251.811	7.23
251.948	16.23
252.084	7.23
252.221	-5.77
252.357	-11.77
252.493	17.23
252.63	-10.77
252.766	-4.77
252.903	-6.77
253.039	-8.77
253.175	9.23
253.312	3.23
253.448	-7.77
253.585	-13.77
253.721	-1.77
253.857	3.23
253.994	5.23
254.13	-7.77
254.266	-13.77
254.403	1.23
254.539	-2.77
254.675	5.23
254.811	-2.77
254.948	1.23
255.084	-25.77
255.22	-11.77
255.356	7.23
255.493	1.23
255.629	3.23
255.765	-7.77
255.901	11.23
256.037	1.23
256.174	4.23
256.31	-19.77
256.446	-14.77
256.582	-2.77
256.718	19.23
256.854	28.23
256.991	15.23
257.127	41.23
257.263	-3.77
257.399	-0.77
257.535	-6.77
257.671	14.23
257.807	-10.77
257.943	5.23
258.079	-18.77
258.215	-0.77
258.351	10.23
258.487	7.23
258.623	19.23
258.759	0.23
258.895	-11.77
259.031	4.23
259.167	-0.77
259.303	11.23
259.439	4.23
259.575	-10.77
259.711	-4.77
259.847	-1.77
259.983	0.23
260.119	7.23
260.255	-19.77
260.391	-17.77
260.527	-1.77
260.663	17.23
260.799	7.23
260.934	-2.77
261.07	-4.77
261.206	-13.77
261.342	-4.77
261.478	10.23
261.614	4.23
261.749	-8.77
261.885	-20.77
262.021	-11.77
262.157	12.23
262.293	-15.77
262.428	-4.77
262.564	-16.77
262.7	-26.77
262.836	-22.77
262.971	11.23
263.107	6.23
263.243	13.23
263.378	0.23
263.514	-15.77
263.65	3.23
263.785	-19.77
263.921	-21.77
264.057	-12.77
264.192	9.23
264.328	7.23
264.464	-2.77
264.599	10.23
264.735	18.23
264.871	-15.77
265.006	-7.77
265.142	1.23
265.277	-9.77
265.413	13.23
265.548	4.23
265.684	11.23
265.819	-3.77
265.955	-24.77
266.091	-14.77
266.226	-3.77
266.362	19.23
266.497	10.23
266.633	-2.77
266.768	-10.77
266.903	9.23
267.039	-7.77
267.174	7.23
267.31	-2.77
267.445	4.23
267.581	-11.77
267.716	27.23
267.851	15.23
267.987	20.23
268.122	10.23
268.258	-10.77
268.393	-9.77
268.528	10.23
268.664	-13.77
268.799	-4.77
268.934	-20.77
269.07	10.23
269.205	18.23
269.34	17.23
269.476	8.23
269.611	-20.77
269.746	17.23
269.881	-5.77
270.017	25.23
270.152	-22.77
270.287	-10.77
270.422	-8.77
270.558	6.23
270.693	19.23
270.828	-12.77
270.963	-16.77
271.098	-11.77
271.234	-5.77
271.369	11.23
271.504	-2.77
271.639	-12.77
271.774	-8.77
271.909	0.23
272.045	-19.77
272.18	-3.77
272.315	3.23
272.45	9.23
272.585	-16.77
272.72	7.23
272.855	-5.77
272.99	25.23
273.125	-11.77
273.26	-15.77
273.395	-7.77
273.53	-13.77
273.665	11.23
273.8	-10.77
273.935	1.23
274.07	-2.77
274.205	11.23
274.34	-2.77
274.475	-9.77
274.61	15.23
274.745	8.23
274.88	19.23
275.015	-6.77
275.15	-0.77
275.285	-11.77
275.42	-3.77
275.555	13.23
275.69	7.23
275.825	-8.77
275.959	-7.77
276.094	-14.77
276.229	-18.77
276.364	-5.77
276.499	-9.77
276.634	3.23
276.768	5.23
276.903	5.23
277.038	2.23
277.173	-20.77
277.308	7.23
277.442	-21.77
277.577	-10.77
277.712	-20.77
277.847	9.23
277.981	7.23
278.116	-6.77
278.251	5.23
278.386	16.23
278.52	3.23
278.655	-3.77
278.79	-3.77
278.924	6.23
279.059	9.23
279.194	-15.77
279.328	21.23
279.463	7.23
279.598	8.23
279.732	7.23
279.867	-4.77
280.001	5.23
280.136	-3.77
280.271	10.23
280.405	-3.77
280.54	-7.77
280.674	-11.77
280.809	15.23
280.943	-5.77
281.078	0.23
281.213	15.23
281.347	-20.77
281.482	19.23
281.616	12.23
281.751	9.23
281.885	3.23
282.02	-2.77
282.154	3.23
282.288	-9.77
282.423	-11.77
282.557	-10.77
282.692	-2.77
282.826	-11.77
282.961	10.23
283.095	-14.77
283.229	-2.77
283.364	-16.77
283.498	-22.77
283.633	6.23
283.767	-1.77
283.901	-20.77
284.036	0.23
284.17	-20.77
284.304	-10.77
284.439	-3.77
284.573	-2.77
284.707	26.23
284.842	9.23
284.976	3.23
285.11	-2.77
285.244	2.23
285.379	22.23
285.513	-6.77
285.647	3.23
285.781	8.23
285.916	1.23
286.05	3.23
286.184	17.23
286.318	13.23
286.453	-5.77
286.587	-26.77
286.721	-11.77
286.855	7.23
286.989	-0.77
287.123	4.23
287.258	-21.77
287.392	-6.77
287.526	7.23
287.66	-1.77
287.794	-4.77
287.928	-4.77
288.062	6.23
288.196	-0.77
288.33	12.23
288.464	5.23
288.598	9.23
288.733	3.23
288.867	2.23
289.001	11.23
289.135	1.23
289.269	-10.77
289.403	0.23
289.537	-12.77
289.671	0.23
289.805	-12.77
289.939	0.23
290.073	-3.77
290.207	9.23
290.34	-4.77
290.474	3.23
290.608	21.23
290.742	0.23
290.876	-6.77
291.01	-8.77
291.144	25.23
291.278	9.23
291.412	14.23
291.546	-17.77
291.679	-6.77
291.813	-19.77
291.947	-2.77
292.081	5.23
292.215	-5.77
292.349	11.23
292.482	-8.77
292.616	-14.77
292.75	5.23
292.884	4.23
293.018	-16.77
293.151	-13.77
293.285	-0.77
293.419	-18.77
293.553	-4.77
293.686	-5.77
293.82	3.23
293.954	30.23
294.088	24.23
294.221	-21.77
294.355	-3.77
294.489	3.23
294.622	-6.77
294.756	-15.77
294.89	2.23
295.023	1.23
295.157	-9.77
295.291	-5.77
295.424	-5.77
295.558	-1.77
295.691	-3.77
295.825	-9.77
295.959	-4.77
296.092	-8.77
296.226	13.23
296.359	6.23
296.493	17.23
296.627	1.23
296.76	8.23
296.894	-9.77
297.027	-9.77
297.161	-5.77
297.294	-13.77
297.428	-4.77
297.561	21.23
297.695	-11.77
297.828	4.23
297.962	-5.77
298.095	-3.77
298.229	-0.77
298.362	-9.77
298.495	-5.77
298.629	-3.77
298.762	-6.77
298.896	-4.77
299.029	-3.77
299.162	-8.77
299.296	-12.77
299.429	12.23
299.563	9.23
299.696	7.23
299.829	-7.77
299.963	-5.77
300.096	16.23
300.229	7.23
300.363	-10.77
300.496	1.23
300.629	-22.77
300.763	-7.77
300.896	5.23
301.029	12.23
301.162	2.23
301.296	0.23
301.429	10.23
301.562	-19.77
301.695	17.23
301.829	19.23
301.962	20.23
302.095	24.23
302.228	-13.77
302.362	2.23
302.495	-2.77
302.628	0.23
302.761	-8.77
302.894	-5.77
303.027	11.23
303.161	-2.77
303.294	-9.77
303.427	27.23
303.56	-5.77
303.693	-3.77
303.826	-1.77
303.959	3.23
304.092	17.23
304.225	-9.77
304.359	4.23
304.492	18.23
304.625	-7.77
304.758	1.23
304.891	-5.77
305.024	3.23
305.157	-5.77
305.29	-27.77
305.423	5.23
305.556	0.23
305.689	16.23
305.822	1.23
305.955	-12.77
306.088	-9.77
306.221	-11.77
306.354	4.23
306.487	-3.77
306.62	8.23
306.752	3.23
306.885	8.23
307.018	3.23
307.151	4.23
307.284	-2.77
307.417	-8.77
307.55	-6.77
307.683	5.23
307.816	18.23
307.948	0.23
308.081	9.23
308.214	3.23
308.347	6.23
308.48	-3.77
308.613	-18.77
308.745	0.23
308.878	7.23
309.011	-6.77
309.144	15.23
309.277	-3.77
309.409	-6.77
309.542	8.23
309.675	20.23
309.808	11.23
309.94	18.23
310.073	-12.77
310.206	-31.77
310.339	8.23
310.471	-13.77
310.604	28.23
310.737	-14.77
310.869	-11.77
311.002	-16.77
311.135	-6.77
311.267	-23.77
311.4	4.23
311.533	26.23
311.665	-11.77
311.798	5.23
311.93	-4.77
312.063	21.23
312.196	49.23
312.328	79.23
312.461	48.23
312.593	15.23
312.726	49.23
312.859	90.23
312.991	149.23
313.124	24.23
313.256	6.23
313.389	24.23
313.521	-2.77
313.654	-6.77
313.786	-20.77
313.919	-16.77
314.051	-7.77
314.184	1.23
314.316	11.23
314.449	-3.77
314.581	7.23
314.714	-2.77
314.846	6.23
314.978	-12.77
315.111	-18.77
315.243	-6.77
315.376	-8.77
315.508	-10.77
315.641	2.23
315.773	10.23
315.905	-1.77
316.038	-16.77
316.17	16.23
316.302	-0.77
316.435	-18.77
316.567	-4.77
316.699	31.23
316.832	1.23
316.964	-1.77
317.096	-2.77
317.229	-14.77
317.361	-36.77
317.493	0.23
317.625	-17.77
317.758	-0.77
317.89	17.23
318.022	12.23
318.155	-12.77
318.287	7.23
318.419	1.23
318.551	-6.77
318.683	-17.77
318.816	-3.77
318.948	-0.77
319.08	-20.77
319.212	-11.77
319.344	11.23
319.477	-4.77
319.609	-5.77
319.741	15.23
319.873	-5.77
320.005	-4.77
320.137	-4.77
320.269	-9.77
320.401	4.23
320.534	-5.77
320.666	-8.77
320.798	-12.77
320.93	-15.77
321.062	-27.77
321.194	0.23
321.326	-0.77
321.458	12.23
321.59	7.23
321.722	-0.77
321.854	6.23
321.986	12.23
322.118	9.23
322.25	6.23
322.382	8.23
322.514	-4.77
322.646	3.23
322.778	23.23
322.91	1.23
323.042	0.23
323.174	6.23
323.306	-7.77
323.438	-16.77
323.57	1.23
323.702	18.23
323.834	-9.77
323.966	-12.77
324.097	-1.77
324.229	4.23
324.361	10.23
324.493	4.23
324.625	-10.77
324.757	3.23
324.889	3.23
325.021	4.23
325.152	7.23
325.284	-2.77
325.416	-9.77
325.548	18.23
325.68	-6.77
325.811	17.23
325.943	-8.77
326.075	-6.77
326.207	-7.77
326.339	9.23
326.47	-15.77
326.602	-0.77
326.734	15.23
326.866	15.23
326.997	-3.77
327.129	-14.77
327.261	-11.77
327.392	-10.77
327.524	-10.77
327.656	-3.77
327.787	8.23
327.919	9.23
328.051	-3.77
328.182	23.23
328.314	-3.77
328.446	2.23
328.577	19.23
328.709	1.23
328.841	-3.77
328.972	9.23
329.104	2.23
329.235	0.23
329.367	-7.77
329.499	-1.77
329.63	12.23
329.762	-7.77
329.893	24.23
330.025	6.23
330.156	1.23
330.288	-11.77
330.419	17.23
330.551	14.23
330.683	12.23
330.814	1.23
330.946	-20.77
331.077	-24.77
331.208	-13.77
331.34	-8.77
331.471	-16.77
331.603	-0.77
331.734	-18.77
331.866	5.23
331.997	-4.77
332.129	-13.77
332.26	12.23
332.392	25.23
332.523	-3.77
332.654	0.23
332.786	5.23
332.917	-21.77
333.048	22.23
333.18	13.23
333.311	-10.77
333.443	-2.77
333.574	5.23
333.705	30.23
333.837	45.23
333.968	116.23
334.099	218.23
334.231	200.23
334.362	47.23
334.493	34.23
334.624	13.23
334.756	12.23
334.887	20.23
335.018	6.23
335.15	15.23
335.281	18.23
335.412	36.23
335.543	5.23
335.675	-3.77
335.806	20.23
335.937	18.23
336.068	31.23
336.199	36.23
336.331	4.23
336.462	4.23
336.593	16.23
336.724	1.23
336.855	0.23
336.986	9.23
337.118	11.23
337.249	21.23
337.38	-3.77
337.511	-0.77
337.642	5.23
337.773	7.23
337.904	-1.77
338.035	18.23
338.166	3.23
338.298	12.23
338.429	-2.77
338.56	-0.77
338.691	25.23
338.822	12.23
338.953	12.23
339.084	27.23
339.215	25.23
339.346	3.23
339.477	-6.77
339.608	2.23
339.739	-8.77
339.87	-5.77
340.001	-3.77
340.132	17.23
340.263	4.23
340.394	10.23
340.525	13.23
340.656	-2.77
340.787	0.23
340.918	24.23
341.049	23.23
341.179	19.23
341.31	-5.77
341.441	31.23
341.572	31.23
341.703	6.23
341.834	5.23
341.965	26.23
342.096	8.23
342.227	21.23
342.357	12.23
342.488	18.23
342.619	14.23
342.75	31.23
342.881	11.23
343.012	16.23
343.142	40.23
343.273	4.23
343.404	21.23
343.535	23.23
343.666	28.23
343.796	24.23
343.927	28.23
344.058	25.23
344.189	41.23
344.319	31.23
344.45	29.23
344.581	7.23
344.712	10.23
344.842	11.23
344.973	24.23
345.104	26.23
345.234	-3.77
345.365	5.23
345.496	24.23
345.626	37.23
345.757	18.23
345.888	22.23
346.018	26.23
346.149	20.23
346.28	40.23
346.41	20.23
346.541	18.23
346.672	18.23
346.802	38.23
346.933	10.23
347.063	20.23
347.194	24.23
347.325	18.23
347.455	37.23
347.586	20.23
347.716	24.23
347.847	39.23
347.977	38.23
348.108	40.23
348.238	30.23
348.369	13.23
348.499	49.23
348.63	46.23
348.76	38.23
348.891	59.23
349.021	51.23
349.152	54.23
349.282	28.23
349.413	44.23
349.543	42.23
349.674	35.23
349.804	28.23
349.935	12.23
350.065	28.23
350.196	13.23
350.326	17.23
350.456	2.23
350.587	34.23
350.717	15.23
350.848	13.23
350.978	21.23
351.108	11.23
351.239	37.23
351.369	2.23
351.499	12.23
351.63	0.23
351.76	16.23
351.89	8.23
352.021	5.23
352.151	18.23
352.281	16.23
352.412	26.23
352.542	19.23
352.672	10.23
352.803	12.23
352.933	15.23
353.063	24.23
353.193	27.23
353.324	13.23
353.454	19.23
353.584	26.23
353.714	11.23
353.845	9.23
353.975	5.23
354.105	9.23
354.235	19.23
354.365	30.23
354.496	32.23
354.626	15.23
354.756	32.23
354.886	4.23
355.016	23.23
355.146	-2.77
355.277	17.23
355.407	8.23
355.537	20.23
355.667	17.23
355.797	12.23
355.927	5.23
356.057	20.23
356.187	9.23
356.318	16.23
356.448	33.23
356.578	36.23
356.708	25.23
356.838	23.23
356.968	11.23
357.098	31.23
357.228	22.23
357.358	17.23
357.488	12.23
357.618	41.23
357.748	33.23
357.878	19.23
358.008	22.23
358.138	27.23
358.268	5.23
358.398	18.23
358.528	-4.77
358.658	25.23
358.788	22.23
358.918	26.23
359.048	27.23
359.178	51.23
359.308	44.23
359.438	52.23
359.568	36.23
359.698	23.23
359.827	28.23
359.957	34.23
360.087	23.23
360.217	20.23
360.347	29.23
360.477	29.23
360.607	14.23
360.737	35.23
360.866	12.23
360.996	9.23
361.126	4.23
361.256	38.23
361.386	63.23
361.516	55.23
361.645	19.23
361.775	38.23
361.905	21.23
362.035	30.23
362.165	31.23
362.294	23.23
362.424	51.23
362.554	41.23
362.684	13.23
362.813	29.23
362.943	44.23
363.073	50.23
363.203	67.23
363.332	73.23
363.462	63.23
363.592	98.23
363.721	94.23
363.851	154.23
363.981	185.23
364.111	236.23
364.24	317.23
364.37	470.23
364.5	859.23
364.629	1805.23
364.759	3854.23
364.888	6248.23
365.018	9360.23
365.148	14780.23
365.277	12877.23
365.407	4739.23
365.537	3122.23
365.666	4002.23
365.796	1827.23
365.925	797.23
366.055	741.23
366.184	1045.23
366.314	1382.23
366.444	2467.23
366.573	2108.23
366.703	652.23
366.832	204.23
366.962	115.23
367.091	72.23
367.221	64.23
367.35	49.23
367.48	63.23
367.609	37.23
367.739	48.23
367.868	12.23
367.998	37.23
368.127	30.23
368.257	43.23
368.386	53.23
368.516	64.23
368.645	41.23
368.775	42.23
368.904	27.23
369.033	24.23
369.163	14.23
369.292	32.23
369.422	38.23
369.551	33.23
369.68	21.23
369.81	33.23
369.939	6.23
370.069	40.23
370.198	32.23
370.327	25.23
370.457	37.23
370.586	21.23
370.715	37.23
370.845	31.23
370.974	32.23
371.103	39.23
371.233	37.23
371.362	56.23
371.491	11.23
371.621	42.23
371.75	41.23
371.879	25.23
372.008	49.23
372.138	48.23
372.267	51.23
372.396	36.23
372.525	37.23
372.655	30.23
372.784	15.23
372.913	41.23
373.042	38.23
373.172	52.23
373.301	-2.77
373.43	1.23
373.559	24.23
373.688	1.23
373.818	21.23
373.947	23.23
374.076	22.23
374.205	8.23
374.334	15.23
374.463	-7.77
374.593	20.23
374.722	12.23
374.851	10.23
374.98	13.23
375.109	22.23
375.238	6.23
375.367	38.23
375.496	-6.77
375.625	2.23
375.755	29.23
375.884	34.23
376.013	33.23
376.142	8.23
376.271	8.23
376.4	28.23
376.529	20.23
376.658	18.23
376.787	29.23
376.916	29.23
377.045	12.23
377.174	14.23
377.303	3.23
377.432	31.23
377.561	45.23
377.69	27.23
377.819	40.23
377.948	11.23
378.077	-2.77
378.206	-14.77
378.335	19.23
378.464	20.23
378.593	25.23
378.722	-2.77
378.851	19.23
378.98	11.23
379.108	0.23
379.237	1.23
379.366	6.23
379.495	5.23
379.624	14.23
379.753	-4.77
379.882	22.23
380.011	18.23
380.14	16.23
380.268	8.23
380.397	11.23
380.526	36.23
380.655	4.23
380.784	-6.77
380.913	4.23
381.041	10.23
381.17	-12.77
381.299	5.23
381.428	23.23
381.557	27.23
381.685	21.23
381.814	18.23
381.943	19.23
382.072	-4.77
382.2	-2.77
382.329	1.23
382.458	16.23
382.587	24.23
382.715	28.23
382.844	16.23
382.973	20.23
383.102	5.23
383.23	4.23
383.359	-4.77
383.488	27.23
383.616	17.23
383.745	-3.77
383.874	4.23
384.003	4.23
384.131	-4.77
384.26	4.23
384.389	34.23
384.517	19.23
384.646	15.23
384.774	9.23
384.903	16.23
385.032	30.23
385.16	3.23
385.289	20.23
385.418	20.23
385.546	42.23
385.675	11.23
385.803	19.23
385.932	19.23
386.06	6.23
386.189	20.23
386.318	22.23
386.446	22.23
386.575	27.23
386.703	22.23
386.832	19.23
386.96	-7.77
387.089	28.23
387.217	21.23
387.346	11.23
387.474	29.23
387.603	18.23
387.731	5.23
387.86	21.23
387.988	21.23
388.117	32.23
388.245	4.23
388.374	9.23
388.502	6.23
388.631	-6.77
388.759	4.23
388.888	24.23
389.016	4.23
389.144	9.23
389.273	-3.77
389.401	4.23
389.53	5.23
389.658	28.23
389.786	4.23
389.915	0.23
390.043	-3.77
390.172	16.23
390.3	39.23
390.428	23.23
390.557	33.23
390.685	48.23
390.813	43.23
390.942	45.23
391.07	18.23
391.198	5.23
391.327	6.23
391.455	14.23
391.583	35.23
391.712	20.23
391.84	12.23
391.968	12.23
392.096	22.23
392.225	18.23
392.353	18.23
392.481	31.23
392.609	19.23
392.738	15.23
392.866	28.23
392.994	13.23
393.122	28.23
393.251	10.23
393.379	9.23
393.507	12.23
393.635	20.23
393.764	11.23
393.892	19.23
394.02	15.23
394.148	19.23
394.276	27.23
394.404	40.23
394.533	11.23
394.661	-1.77
394.789	20.23
394.917	29.23
395.045	4.23
395.173	15.23
395.302	7.23
395.43	38.23
395.558	28.23
395.686	32.23
395.814	48.23
395.942	31.23
396.07	35.23
396.198	16.23
396.326	27.23
396.454	41.23
396.582	12.23
396.711	13.23
396.839	22.23
396.967	36.23
397.095	8.23
397.223	23.23
397.351	35.23
397.479	41.23
397.607	40.23
397.735	37.23
397.863	36.23
397.991	42.23
398.119	33.23
398.247	41.23
398.375	48.23
398.503	39.23
398.631	25.23
398.759	65.23
398.887	36.23
399.015	30.23
399.143	52.23
399.271	64.23
399.399	64.23
399.526	70.23
399.654	63.23
399.782	43.23
399.91	85.23
400.038	92.23
400.166	73.23
400.294	63.23
400.422	73.23
400.55	106.23
400.678	85.23
400.805	102.23
400.933	98.23
401.061	125.23
401.189	117.23
401.317	119.23
401.445	103.23
401.573	58.23
401.7	29.23
401.828	53.23
401.956	39.23
402.084	17.23
402.212	22.23
402.34	23.23
402.467	44.23
402.595	25.23
402.723	32.23
402.851	63.23
402.978	45.23
403.106	71.23
403.234	69.23
403.362	118.23
403.489	125.23
403.617	151.23
403.745	193.23
403.873	288.23
404	568.23
404.128	1450.23
404.256	3881.23
404.384	5087.23
404.511	5432.23
404.639	7153.23
404.767	11447.23
404.894	14631.23
405.022	4914.23
405.15	1310.23
405.277	397.23
405.405	218.23
405.533	139.23
405.66	114.23
405.788	66.23
405.916	28.23
406.043	37.23
406.171	61.23
406.299	54.23
406.426	75.23
406.554	52.23
406.681	59.23
406.809	25.23
406.937	65.23
407.064	84.23
407.192	121.23
407.319	287.23
407.447	533.23
407.574	546.23
407.702	619.23
407.83	843.23
407.957	1597.23
408.085	923.23
408.212	281.23
408.34	103.23
408.467	49.23
408.595	40.23
408.722	44.23
408.85	40.23
408.977	38.23
409.105	24.23
409.232	45.23
409.36	27.23
409.487	33.23
409.615	34.23
409.742	32.23
409.87	25.23
409.997	35.23
410.125	37.23
410.252	44.23
410.379	21.23
410.507	42.23
410.634	26.23
410.762	9.23
410.889	15.23
411.017	28.23
411.144	21.23
411.271	18.23
411.399	24.23
411.526	30.23
411.653	51.23
411.781	27.23
411.908	21.23
412.036	21.23
412.163	22.23
412.29	29.23
412.418	39.23
412.545	33.23
412.672	31.23
412.8	52.23
412.927	22.23
413.054	34.23
413.182	27.23
413.309	25.23
413.436	10.23
413.564	16.23
413.691	16.23
413.818	34.23
413.945	11.23
414.073	16.23
414.2	27.23
414.327	30.23
414.454	32.23
414.582	27.23
414.709	22.23
414.836	4.23
414.963	25.23
415.091	35.23
415.218	19.23
415.345	28.23
415.472	23.23
415.6	1.23
415.727	30.23
415.854	29.23
415.981	1.23
416.108	30.23
416.236	8.23
416.363	15.23
416.49	14.23
416.617	16.23
416.744	33.23
416.871	26.23
416.998	24.23
417.126	33.23
417.253	-2.77
417.38	37.23
417.507	23.23
417.634	41.23
417.761	35.23
417.888	42.23
418.015	43.23
418.143	47.23
418.27	57.23
418.397	32.23
418.524	40.23
418.651	32.23
418.778	33.23
418.905	63.23
419.032	45.23
419.159	33.23
419.286	37.23
419.413	55.23
419.54	48.23
419.667	44.23
419.794	28.23
419.921	41.23
420.048	33.23
420.175	42.23
420.302	37.23
420.429	52.23
420.556	45.23
420.683	47.23
420.81	48.23
420.937	70.23
421.064	53.23
421.191	66.23
421.318	72.23
421.445	79.23
421.572	61.23
421.699	57.23
421.826	34.23
421.953	42.23
422.08	9.23
422.207	12.23
422.334	-3.77
422.461	25.23
422.588	19.23
422.714	23.23
422.841	21.23
422.968	21.23
423.095	24.23
423.222	20.23
423.349	20.23
423.476	12.23
423.603	14.23
423.729	16.23
423.856	4.23
423.983	27.23
424.11	9.23
424.237	16.23
424.364	15.23
424.491	1.23
424.617	-2.77
424.744	7.23
424.871	29.23
424.998	22.23
425.125	11.23
425.251	16.23
425.378	7.23
425.505	25.23
425.632	22.23
425.758	12.23
425.885	25.23
426.012	10.23
426.139	39.23
426.266	7.23
426.392	28.23
426.519	18.23
426.646	23.23
426.772	29.23
426.899	6.23
427.026	8.23
427.153	17.23
427.279	36.23
427.406	18.23
427.533	17.23
427.659	25.23
427.786	12.23
427.913	21.23
428.039	0.23
428.166	-0.77
428.293	12.23
428.419	19.23
428.546	11.23
428.673	7.23
428.799	0.23
428.926	18.23
429.053	37.23
429.179	19.23
429.306	19.23
429.433	43.23
429.559	20.23
429.686	-0.77
429.812	34.23
429.939	2.23
430.066	10.23
430.192	18.23
430.319	25.23
430.445	19.23
430.572	25.23
430.699	11.23
430.825	12.23
430.952	14.23
431.078	29.23
431.205	13.23
431.331	43.23
431.458	23.23
431.584	41.23
431.711	19.23
431.837	16.23
431.964	16.23
432.09	16.23
432.217	-2.77
432.343	8.23
432.47	22.23
432.596	25.23
432.723	3.23
432.849	21.23
432.976	44.23
433.102	32.23
433.229	45.23
433.355	45.23
433.482	73.23
433.608	97.23
433.735	101.23
433.861	110.23
433.987	154.23
434.114	189.23
434.24	163.23
434.367	198.23
434.493	205.23
434.62	266.23
434.746	396.23
434.872	610.23
434.999	831.23
435.125	1743.23
435.252	5525.23
435.378	13411.23
435.504	15190.23
435.631	15407.23
435.757	15678.23
435.883	15678.23
436.01	15678.23
436.136	15678.23
436.262	15678.23
436.389	3463.23
436.515	2068.23
436.641	781.23
436.768	612.23
436.894	384.23
437.02	391.23
437.147	273.23
437.273	281.23
437.399	216.23
437.526	241.23
437.652	166.23
437.778	196.23
437.904	139.23
438.031	157.23
438.157	124.23
438.283	143.23
438.409	118.23
438.536	119.23
438.662	102.23
438.788	122.23
438.914	109.23
439.041	117.23
439.167	118.23
439.293	99.23
439.419	87.23
439.546	115.23
439.672	79.23
439.798	77.23
439.924	71.23
440.05	92.23
440.177	82.23
440.303	83.23
440.429	53.23
440.555	70.23
440.681	74.23
440.807	78.23
440.934	60.23
441.06	42.23
441.186	58.23
441.312	59.23
441.438	58.23
441.564	50.23
441.69	58.23
441.816	63.23
441.943	55.23
442.069	50.23
442.195	46.23
442.321	54.23
442.447	32.23
442.573	40.23
442.699	45.23
442.825	32.23
442.951	47.23
443.077	50.23
443.203	63.23
443.33	41.23
443.456	20.23
443.582	38.23
443.708	21.23
443.834	50.23
443.96	52.23
444.086	31.23
444.212	51.23
444.338	54.23
444.464	59.23
444.59	39.23
444.716	37.23
444.842	31.23
444.968	27.23
445.094	34.23
445.22	19.23
445.346	31.23
445.472	33.23
445.598	36.23
445.724	35.23
445.85	54.23
445.976	32.23
446.102	38.23
446.228	37.23
446.354	32.23
446.48	23.23
446.605	36.23
446.731	27.23
446.857	30.23
446.983	39.23
447.109	43.23
447.235	42.23
447.361	30.23
447.487	38.23
447.613	39.23
447.739	20.23
447.865	23.23
447.99	28.23
448.116	29.23
448.242	16.23
448.368	21.23
448.494	13.23
448.62	23.23
448.746	20.23
448.872	44.23
448.997	3.23
449.123	23.23
449.249	51.23
449.375	55.23
449.501	10.23
449.627	30.23
449.752	49.23
449.878	20.23
450.004	12.23
450.13	20.23
450.256	2.23
450.381	4.23
450.507	15.23
450.633	20.23
450.759	20.23
450.884	24.23
451.01	17.23
451.136	19.23
451.262	19.23
451.388	33.23
451.513	27.23
451.639	18.23
451.765	26.23
451.89	39.23
452.016	39.23
452.142	12.23
452.268	30.23
452.393	20.23
452.519	2.23
452.645	33.23
452.771	26.23
452.896	15.23
453.022	12.23
453.148	44.23
453.273	23.23
453.399	30.23
453.525	-10.77
453.65	30.23
453.776	47.23
453.902	46.23
454.027	37.23
454.153	37.23
454.279	19.23
454.404	10.23
454.53	25.23
454.656	45.23
454.781	7.23
454.907	10.23
455.032	18.23
455.158	33.23
455.284	31.23
455.409	12.23
455.535	31.23
455.66	22.23
455.786	20.23
455.912	25.23
456.037	11.23
456.163	28.23
456.288	46.23
456.414	10.23
456.539	19.23
456.665	32.23
456.791	16.23
456.916	7.23
457.042	24.23
457.167	-2.77
457.293	27.23
457.418	29.23
457.544	11.23
457.669	2.23
457.795	13.23
457.92	26.23
458.046	11.23
458.171	39.23
458.297	15.23
458.422	18.23
458.548	17.23
458.673	26.23
458.799	20.23
458.924	18.23
459.05	18.23
459.175	31.23
459.301	18.23
459.426	33.23
459.552	3.23
459.677	9.23
459.803	22.23
459.928	38.23
460.053	30.23
460.179	32.23
460.304	20.23
460.43	9.23
460.555	28.23
460.681	28.23
460.806	27.23
460.931	20.23
461.057	26.23
461.182	12.23
461.308	15.23
461.433	18.23
461.558	18.23
461.684	39.23
461.809	17.23
461.934	32.23
462.06	50.23
462.185	4.23
462.311	8.23
462.436	24.23
462.561	36.23
462.687	23.23
462.812	26.23
462.937	21.23
463.063	16.23
463.188	3.23
463.313	18.23
463.439	10.23
463.564	10.23
463.689	33.23
463.814	35.23
463.94	16.23
464.065	27.23
464.19	33.23
464.316	12.23
464.441	16.23
464.566	11.23
464.692	34.23
464.817	31.23
464.942	15.23
465.067	26.23
465.193	11.23
465.318	25.23
465.443	13.23
465.568	20.23
465.694	1.23
465.819	40.23
465.944	33.23
466.069	22.23
466.194	20.23
466.32	18.23
466.445	14.23
466.57	29.23
466.695	14.23
466.82	36.23
466.946	33.23
467.071	19.23
467.196	28.23
467.321	33.23
467.446	17.23
467.572	24.23
467.697	13.23
467.822	20.23
467.947	27.23
468.072	14.23
468.197	25.23
468.323	21.23
468.448	20.23
468.573	17.23
468.698	21.23
468.823	36.23
468.948	33.23
469.073	27.23
469.198	30.23
469.324	41.23
469.449	37.23
469.574	45.23
469.699	51.23
469.824	38.23
469.949	34.23
470.074	27.23
470.199	49.23
470.324	40.23
470.449	46.23
470.574	22.23
470.7	20.23
470.825	52.23
470.95	38.23
471.075	36.23
471.2	28.23
471.325	49.23
471.45	28.23
471.575	30.23
471.7	26.23
471.825	15.23
471.95	19.23
472.075	21.23
472.2	32.23
472.325	25.23
472.45	47.23
472.575	21.23
472.7	32.23
472.825	29.23
472.95	31.23
473.075	47.23
473.2	25.23
473.325	47.23
473.45	50.23
473.575	23.23
473.7	49.23
473.825	18.23
473.95	24.23
474.075	22.23
474.2	22.23
474.325	19.23
474.45	21.23
474.574	5.23
474.699	33.23
474.824	33.23
474.949	0.23
475.074	8.23
475.199	21.23
475.324	17.23
475.449	16.23
475.574	37.23
475.699	25.23
475.824	13.23
475.949	9.23
476.073	11.23
476.198	9.23
476.323	15.23
476.448	21.23
476.573	15.23
476.698	29.23
476.823	34.23
476.947	4.23
477.072	11.23
477.197	15.23
477.322	12.23
477.447	16.23
477.572	22.23
477.697	7.23
477.821	25.23
477.946	27.23
478.071	7.23
478.196	19.23
478.321	24.23
478.445	16.23
478.57	10.23
478.695	15.23
478.82	25.23
478.945	23.23
479.069	13.23
479.194	11.23
479.319	9.23
479.444	25.23
479.569	17.23
479.693	6.23
479.818	28.23
479.943	41.23
480.068	30.23
480.192	26.23
480.317	28.23
480.442	9.23
480.567	9.23
480.691	14.23
480.816	16.23
480.941	15.23
481.066	21.23
481.19	40.23
481.315	20.23
481.44	13.23
481.564	0.23
481.689	14.23
481.814	21.23
481.938	13.23
482.063	0.23
482.188	25.23
482.313	26.23
482.437	7.23
482.562	15.23
482.687	17.23
482.811	8.23
482.936	24.23
483.061	21.23
483.185	18.23
483.31	11.23
483.435	22.23
483.559	17.23
483.684	7.23
483.808	35.23
483.933	30.23
484.058	3.23
484.182	14.23
484.307	7.23
484.432	16.23
484.556	26.23
484.681	23.23
484.805	23.23
484.93	5.23
485.055	27.23
485.179	51.23
485.304	32.23
485.428	11.23
485.553	6.23
485.678	21.23
485.802	-0.77
485.927	48.23
486.051	27.23
486.176	18.23
486.3	4.23
486.425	1.23
486.549	19.23
486.674	40.23
486.799	11.23
486.923	1.23
487.048	15.23
487.172	22.23
487.297	20.23
487.421	28.23
487.546	32.23
487.67	20.23
487.795	27.23
487.919	9.23
488.044	17.23
488.168	17.23
488.293	-1.77
488.417	23.23
488.542	39.23
488.666	32.23
488.791	15.23
488.915	18.23
489.04	28.23
489.164	5.23
489.289	27.23
489.413	6.23
489.538	22.23
489.662	19.23
489.786	7.23
489.911	15.23
490.035	13.23
490.16	1.23
490.284	10.23
490.409	-14.77
490.533	7.23
490.658	49.23
490.782	28.23
490.906	44.23
491.031	106.23
491.155	146.23
491.28	139.23
491.404	169.23
491.528	258.23
491.653	175.23
491.777	74.23
491.902	14.23
492.026	20.23
492.15	19.23
492.275	48.23
492.399	31.23
492.524	15.23
492.648	21.23
492.772	22.23
492.897	16.23
493.021	16.23
493.145	31.23
493.27	33.23
493.394	17.23
493.518	4.23
493.643	20.23
493.767	34.23
493.891	12.23
494.016	1.23
494.14	20.23
494.264	4.23
494.389	13.23
494.513	22.23
494.637	11.23
494.762	33.23
494.886	20.23
495.01	34.23
495.134	15.23
495.259	31.23
495.383	11.23
495.507	-2.77
495.632	33.23
495.756	59.23
495.88	35.23
496.004	12.23
496.129	20.23
496.253	11.23
496.377	23.23
496.501	23.23
496.626	4.23
496.75	18.23
496.874	32.23
496.998	6.23
497.123	33.23
497.247	25.23
497.371	16.23
497.495	22.23
497.62	40.23
497.744	9.23
497.868	9.23
497.992	8.23
498.116	12.23
498.241	25.23
498.365	7.23
498.489	2.23
498.613	19.23
498.737	17.23
498.862	19.23
498.986	27.23
499.11	21.23
499.234	11.23
499.358	2.23
499.482	13.23
499.607	7.23
499.731	14.23
499.855	30.23
499.979	6.23
500.103	22.23
500.227	22.23
500.351	21.23
500.476	10.23
500.6	11.23
500.724	22.23
500.848	33.23
500.972	14.23
501.096	21.23
501.22	41.23
501.344	12.23
501.469	12.23
501.593	17.23
501.717	3.23
501.841	13.23
501.965	10.23
502.089	13.23
502.213	38.23
502.337	12.23
502.461	-1.77
502.585	22.23
502.709	26.23
502.834	13.23
502.958	16.23
503.082	30.23
503.206	7.23
503.33	30.23
503.454	19.23
503.578	16.23
503.702	34.23
503.826	9.23
503.95	33.23
504.074	28.23
504.198	5.23
504.322	3.23
504.446	12.23
504.57	7.23
504.694	8.23
504.818	0.23
504.942	27.23
505.066	20.23
505.19	25.23
505.314	23.23
505.438	16.23
505.562	15.23
505.686	41.23
505.81	24.23
505.934	20.23
506.058	15.23
506.182	24.23
506.306	43.23
506.43	-3.77
506.554	9.23
506.678	8.23
506.802	22.23
506.926	30.23
507.05	25.23
507.174	28.23
507.298	28.23
507.422	17.23
507.546	37.23
507.67	34.23
507.794	1.23
507.918	25.23
508.042	22.23
508.165	11.23
508.289	16.23
508.413	16.23
508.537	12.23
508.661	26.23
508.785	21.23
508.909	40.23
509.033	22.23
509.157	2.23
509.281	21.23
509.405	32.23
509.528	47.23
509.652	37.23
509.776	34.23
509.9	36.23
510.024	21.23
510.148	33.23
510.272	29.23
510.396	35.23
510.519	17.23
510.643	23.23
510.767	22.23
510.891	37.23
511.015	50.23
511.139	38.23
511.263	62.23
511.386	48.23
511.51	28.23
511.634	50.23
511.758	52.23
511.882	23.23
512.006	35.23
512.129	53.23
512.253	90.23
512.377	73.23
512.501	54.23
512.625	71.23
512.748	74.23
512.872	74.23
512.996	58.23
513.12	51.23
513.244	52.23
513.367	48.23
513.491	75.23
513.615	66.23
513.739	53.23
513.862	74.23
513.986	78.23
514.11	84.23
514.234	92.23
514.358	106.23
514.481	114.23
514.605	104.23
514.729	110.23
514.853	100.23
514.976	81.23
515.1	99.23
515.224	114.23
515.348	71.23
515.471	76.23
515.595	97.23
515.719	132.23
515.842	214.23
515.966	288.23
516.09	313.23
516.214	289.23
516.337	330.23
516.461	229.23
516.585	84.23
516.708	57.23
516.832	20.23
516.956	30.23
517.08	8.23
517.203	8.23
517.327	-3.77
517.451	37.23
517.574	24.23
517.698	6.23
517.822	-1.77
517.945	21.23
518.069	13.23
518.193	30.23
518.316	6.23
518.44	10.23
518.564	0.23
518.687	17.23
518.811	14.23
518.935	28.23
519.058	8.23
519.182	28.23
519.306	21.23
519.429	5.23
519.553	51.23
519.676	25.23
519.8	2.23
519.924	1.23
520.047	23.23
520.171	3.23
520.294	-0.77
520.418	24.23
520.542	12.23
520.665	34.23
520.789	21.23
520.913	8.23
521.036	0.23
521.16	13.23
521.283	7.23
521.407	3.23
521.53	23.23
521.654	5.23
521.778	12.23
521.901	12.23
522.025	-4.77
522.148	16.23
522.272	18.23
522.395	30.23
522.519	24.23
522.643	7.23
522.766	-1.77
522.89	7.23
523.013	17.23
523.137	1.23
523.26	1.23
523.384	10.23
523.507	16.23
523.631	21.23
523.754	16.23
523.878	7.23
524.002	17.23
524.125	11.23
524.249	9.23
524.372	23.23
524.496	4.23
524.619	23.23
524.743	19.23
524.866	7.23
524.99	-2.77
525.113	-0.77
525.237	21.23
525.36	21.23
525.484	18.23
525.607	16.23
525.731	-3.77
525.854	15.23
525.978	17.23
526.101	4.23
526.224	5.23
526.348	13.23
526.471	15.23
526.595	7.23
526.718	19.23
526.842	5.23
526.965	15.23
527.089	11.23
527.212	3.23
527.336	9.23
527.459	22.23
527.582	17.23
527.706	26.23
527.829	34.23
527.953	32.23
528.076	8.23
528.2	22.23
528.323	11.23
528.446	31.23
528.57	21.23
528.693	21.23
528.817	5.23
528.94	35.23
529.064	28.23
529.187	0.23
529.31	16.23
529.434	19.23
529.557	23.23
529.68	12.23
529.804	27.23
529.927	23.23
530.051	13.23
530.174	11.23
530.297	11.23
530.421	16.23
530.544	14.23
530.668	2.23
530.791	9.23
530.914	19.23
531.038	33.23
531.161	12.23
531.284	18.23
531.408	15.23
531.531	17.23
531.654	-3.77
531.778	9.23
531.901	11.23
532.024	15.23
532.148	4.23
532.271	10.23
532.394	0.23
532.518	26.23
532.641	3.23
532.764	17.23
532.888	10.23
533.011	-6.77
533.134	3.23
533.258	42.23
533.381	12.23
533.504	3.23
533.628	21.23
533.751	27.23
533.874	13.23
533.997	16.23
534.121	7.23
534.244	24.23
534.367	14.23
534.491	11.23
534.614	8.23
534.737	17.23
534.86	20.23
534.984	-3.77
535.107	9.23
535.23	4.23
535.354	13.23
535.477	5.23
535.6	-0.77
535.723	-2.77
535.847	4.23
535.97	-11.77
536.093	14.23
536.216	8.23
536.34	23.23
536.463	7.23
536.586	35.23
536.709	22.23
536.833	34.23
536.956	6.23
537.079	15.23
537.202	29.23
537.325	5.23
537.449	3.23
537.572	15.23
537.695	5.23
537.818	19.23
537.941	14.23
538.065	20.23
538.188	-1.77
538.311	32.23
538.434	23.23
538.558	31.23
538.681	23.23
538.804	18.23
538.927	8.23
539.05	2.23
539.173	1.23
539.297	2.23
539.42	8.23
539.543	7.23
539.666	30.23
539.789	18.23
539.913	24.23
540.036	17.23
540.159	27.23
540.282	11.23
540.405	0.23
540.528	10.23
540.651	18.23
540.775	25.23
540.898	35.23
541.021	19.23
541.144	25.23
541.267	24.23
541.39	13.23
541.513	39.23
541.637	39.23
541.76	31.23
541.883	27.23
542.006	43.23
542.129	39.23
542.252	20.23
542.375	25.23
542.498	11.23
542.622	15.23
542.745	23.23
542.868	37.23
542.991	44.23
543.114	47.23
543.237	51.23
543.36	72.23
543.483	60.23
543.606	64.23
543.73	77.23
543.853	64.23
543.976	68.23
544.099	98.23
544.222	121.23
544.345	129.23
544.468	164.23
544.591	224.23
544.714	269.23
544.837	330.23
544.96	442.23
545.083	634.23
545.206	1102.23
545.329	2429.23
545.453	10913.23
545.576	15249.23
545.699	15678.23
545.822	15678.23
545.945	15678.23
546.068	15678.23
546.191	15678.23
546.314	15678.23
546.437	15678.23
546.56	15678.23
546.683	15678.23
546.806	15678.23
546.929	15678.23
547.052	15678.23
547.175	15678.23
547.298	15678.23
547.421	15678.23
547.544	15678.23
547.667	3556.23
547.79	2375.23
547.913	1019.23
548.036	884.23
548.159	632.23
548.282	603.23
548.405	470.23
548.528	485.23
548.651	391.23
548.774	389.23
548.897	344.23
549.02	367.23
549.143	305.23
549.266	275.23
549.389	263.23
549.512	257.23
549.635	232.23
549.758	245.23
549.881	209.23
550.004	211.23
550.127	181.23
550.25	179.23
550.373	158.23
550.496	180.23
550.619	163.23
550.742	163.23
550.865	147.23
550.988	154.23
551.111	139.23
551.234	142.23
551.356	131.23
551.479	122.23
551.602	117.23
551.725	127.23
551.848	127.23
551.971	124.23
552.094	124.23
552.217	103.23
552.34	103.23
552.463	83.23
552.586	116.23
552.709	105.23
552.832	116.23
552.955	111.23
553.077	105.23
553.2	101.23
553.323	82.23
553.446	88.23
553.569	95.23
553.692	102.23
553.815	97.23
553.938	111.23
554.061	92.23
554.184	81.23
554.306	82.23
554.429	77.23
554.552	82.23
554.675	59.23
554.798	76.23
554.921	86.23
555.044	75.23
555.167	68.23
555.29	79.23
555.412	75.23
555.535	79.23
555.658	52.23
555.781	76.23
555.904	75.23
556.027	81.23
556.15	71.23
556.272	85.23
556.395	88.23
556.518	64.23
556.641	73.23
556.764	80.23
556.887	69.23
557.01	64.23
557.132	48.23
557.255	51.23
557.378	79.23
557.501	54.23
557.624	53.23
557.747	56.23
557.869	70.23
557.992	89.23
558.115	83.23
558.238	81.23
558.361	98.23
558.483	101.23
558.606	45.23
558.729	33.23
558.852	69.23
558.975	47.23
559.098	42.23
559.22	61.23
559.343	49.23
559.466	52.23
559.589	34.23
559.712	54.23
559.834	41.23
559.957	56.23
560.08	49.23
560.203	52.23
560.325	62.23
560.448	61.23
560.571	48.23
560.694	51.23
560.817	64.23
560.939	45.23
561.062	54.23
561.185	71.23
561.308	75.23
561.43	52.23
561.553	62.23
561.676	56.23
561.799	69.23
561.921	57.23
562.044	44.23
562.167	55.23
562.29	56.23
562.413	63.23
562.535	73.23
562.658	59.23
562.781	47.23
562.903	53.23
563.026	76.23
563.149	143.23
563.272	127.23
563.394	85.23
563.517	103.23
563.64	73.23
563.763	63.23
563.885	66.23
564.008	55.23
564.131	54.23
564.254	20.23
564.376	34.23
564.499	37.23
564.622	33.23
564.744	42.23
564.867	15.23
564.99	42.23
565.113	41.23
565.235	24.23
565.358	35.23
565.481	23.23
565.603	32.23
565.726	31.23
565.849	32.23
565.971	47.23
566.094	28.23
566.217	15.23
566.34	21.23
566.462	21.23
566.585	33.23
566.708	49.23
566.83	31.23
566.953	48.23
567.076	19.23
567.198	22.23
567.321	9.23
567.444	30.23
567.566	23.23
567.689	19.23
567.812	28.23
567.934	39.23
568.057	39.23
568.18	53.23
568.302	22.23
568.425	24.23
568.548	13.23
568.67	25.23
568.793	32.23
568.916	29.23
569.038	23.23
569.161	43.23
569.283	19.23
569.406	24.23
569.529	16.23
569.651	24.23
569.774	18.23
569.897	20.23
570.019	32.23
570.142	53.23
570.265	44.23
570.387	28.23
570.51	24.23
570.632	42.23
570.755	38.23
570.878	21.23
571	28.23
571.123	31.23
571.246	40.23
571.368	19.23
571.491	15.23
571.613	24.23
571.736	20.23
571.859	26.23
571.981	17.23
572.104	35.23
572.226	27.23
572.349	17.23
572.472	25.23
572.594	36.23
572.717	44.23
572.839	36.23
572.962	32.23
573.085	31.23
573.207	29.23
573.33	28.23
573.452	24.23
573.575	51.23
573.697	21.23
573.82	24.23
573.943	11.23
574.065	30.23
574.188	23.23
574.31	38.23
574.433	54.23
574.555	56.23
574.678	27.23
574.801	24.23
574.923	11.23
575.046	42.23
575.168	25.23
575.291	25.23
575.413	18.23
575.536	39.23
575.659	47.23
575.781	40.23
575.904	49.23
576.026	63.23
576.149	76.23
576.271	116.23
576.394	204.23
576.516	515.23
576.639	3615.23
576.761	10144.23
576.884	8722.23
577.007	8712.23
577.129	7952.23
577.252	3715.23
577.374	1300.23
577.497	496.23
577.619	268.23
577.742	168.23
577.864	156.23
577.987	128.23
578.109	100.23
578.232	125.23
578.354	143.23
578.477	202.23
578.599	390.23
578.722	1953.23
578.844	9067.23
578.967	9769.23
579.089	8702.23
579.212	9012.23
579.334	5248.23
579.457	1891.23
579.579	720.23
579.702	316.23
579.824	202.23
579.947	127.23
580.069	93.23
580.192	84.23
580.314	79.23
580.437	76.23
580.559	76.23
580.682	63.23
580.804	65.23
580.927	60.23
581.049	64.23
581.172	45.23
581.294	50.23
581.417	59.23
581.539	41.23
581.662	32.23
581.784	44.23
581.907	43.23
582.029	48.23
582.152	27.23
582.274	41.23
582.396	32.23
582.519	40.23
582.641	16.23
582.764	46.23
582.886	37.23
583.009	36.23
583.131	27.23
583.254	33.23
583.376	32.23
583.499	20.23
583.621	31.23
583.743	43.23
583.866	34.23
583.988	30.23
584.111	31.23
584.233	30.23
584.356	50.23
584.478	30.23
584.601	13.23
584.723	20.23
584.845	47.23
584.968	14.23
585.09	25.23
585.213	20.23
585.335	15.23
585.458	21.23
585.58	17.23
585.702	35.23
585.825	58.23
585.947	20.23
586.07	16.23
586.192	9.23
586.315	38.23
586.437	3.23
586.559	31.23
586.682	15.23
586.804	13.23
586.927	20.23
587.049	30.23
587.171	38.23
587.294	37.23
587.416	50.23
587.539	20.23
587.661	25.23
587.783	7.23
587.906	17.23
588.028	21.23
588.151	22.23
588.273	34.23
588.395	27.23
588.518	20.23
588.64	21.23
588.763	35.23
588.885	26.23
589.007	29.23
589.13	18.23
589.252	2.23
589.375	18.23
589.497	24.23
589.619	28.23
589.742	7.23
589.864	41.23
589.986	25.23
590.109	-0.77
590.231	13.23
590.354	18.23
590.476	16.23
590.598	14.23
590.721	5.23
590.843	29.23
590.965	22.23
591.088	35.23
591.21	25.23
591.332	22.23
591.455	15.23
591.577	16.23
591.7	20.23
591.822	13.23
591.944	15.23
592.067	20.23
592.189	36.23
592.311	43.23
592.434	21.23
592.556	29.23
592.678	24.23
592.801	17.23
592.923	18.23
593.045	17.23
593.168	28.23
593.29	28.23
593.412	19.23
593.535	26.23
593.657	5.23
593.779	30.23
593.902	29.23
594.024	20.23
594.146	27.23
594.269	28.23
594.391	1.23
594.513	28.23
594.636	16.23
594.758	32.23
594.88	21.23
595.003	28.23
595.125	30.23
595.247	25.23
595.37	29.23
595.492	15.23
595.614	26.23
595.737	9.23
595.859	19.23
595.981	13.23
596.104	5.23
596.226	6.23
596.348	23.23
596.471	22.23
596.593	39.23
596.715	10.23
596.838	19.23
596.96	23.23
597.082	8.23
597.204	5.23
597.327	13.23
597.449	4.23
597.571	24.23
597.694	24.23
597.816	18.23
597.938	10.23
598.061	20.23
598.183	14.23
598.305	11.23
598.427	22.23
598.55	22.23
598.672	33.23
598.794	26.23
598.917	20.23
599.039	17.23
599.161	23.23
599.283	9.23
599.406	24.23
599.528	25.23
599.65	54.23
599.773	32.23
599.895	52.23
600.017	41.23
600.139	11.23
600.262	9.23
600.384	15.23
600.506	22.23
600.628	29.23
600.751	21.23
600.873	22.23
600.995	21.23
601.118	41.23
601.24	15.23
601.362	31.23
601.484	31.23
601.607	35.23
601.729	29.23
601.851	16.23
601.973	23.23
602.096	39.23
602.218	32.23
602.34	30.23
602.462	32.23
602.585	20.23
602.707	0.23
602.829	15.23
602.951	19.23
603.074	1.23
603.196	15.23
603.318	6.23
603.44	16.23
603.563	6.23
603.685	1.23
603.807	37.23
603.929	10.23
604.052	29.23
604.174	39.23
604.296	38.23
604.418	17.23
604.541	34.23
604.663	11.23
604.785	11.23
604.907	4.23
605.03	3.23
605.152	43.23
605.274	3.23
605.396	19.23
605.519	19.23
605.641	12.23
605.763	33.23
605.885	24.23
606.008	21.23
606.13	33.23
606.252	23.23
606.374	9.23
606.496	26.23
606.619	29.23
606.741	12.23
606.863	32.23
606.985	40.23
607.108	19.23
607.23	19.23
607.352	6.23
607.474	10.23
607.596	12.23
607.719	0.23
607.841	12.23
607.963	25.23
608.085	3.23
608.207	25.23
608.33	5.23
608.452	9.23
608.574	14.23
608.696	35.23
608.819	18.23
608.941	28.23
609.063	4.23
609.185	13.23
609.307	19.23
609.43	45.23
609.552	33.23
609.674	4.23
609.796	17.23
609.918	22.23
610.041	2.23
610.163	39.23
610.285	23.23
610.407	35.23
610.529	16.23
610.652	24.23
610.774	16.23
610.896	9.23
611.018	21.23
611.14	20.23
611.263	16.23
611.385	23.23
611.507	35.23
611.629	0.23
611.751	17.23
611.873	28.23
611.996	30.23
612.118	44.23
612.24	23.23
612.362	17.23
612.484	40.23
612.607	33.23
612.729	46.23
612.851	25.23
612.973	25.23
613.095	11.23
613.218	7.23
613.34	23.23
613.462	20.23
613.584	15.23
613.706	5.23
613.828	22.23
613.951	17.23
614.073	14.23
614.195	12.23
614.317	21.23
614.439	29.23
614.561	6.23
614.684	27.23
614.806	9.23
614.928	12.23
615.05	20.23
615.172	16.23
615.294	19.23
615.417	11.23
615.539	-6.77
615.661	17.23
615.783	22.23
615.905	-3.77
616.027	-0.77
616.15	20.23
616.272	23.23
616.394	10.23
616.516	8.23
616.638	14.23
616.76	10.23
616.883	22.23
617.005	25.23
617.127	11.23
617.249	21.23
617.371	-0.77
617.493	20.23
617.615	25.23
617.738	18.23
617.86	19.23
617.982	4.23
618.104	16.23
618.226	6.23
618.348	2.23
618.471	23.23
618.593	13.23
618.715	10.23
618.837	21.23
618.959	13.23
619.081	17.23
619.203	29.23
619.326	28.23
619.448	27.23
619.57	19.23
619.692	25.23
619.814	14.23
619.936	12.23
620.058	7.23
620.181	7.23
620.303	3.23
620.425	9.23
620.547	6.23
620.669	16.23
620.791	7.23
620.913	11.23
621.036	16.23
621.158	3.23
621.28	24.23
621.402	13.23
621.524	23.23
621.646	15.23
621.768	4.23
621.891	-10.77
622.013	18.23
622.135	-0.77
622.257	6.23
622.379	11.23
622.501	5.23
622.623	8.23
622.745	-4.77
622.868	-6.77
622.99	10.23
623.112	7.23
623.234	9.23
623.356	-2.77
623.478	3.23
623.6	7.23
623.722	15.23
623.845	12.23
623.967	8.23
624.089	19.23
624.211	16.23
624.333	10.23
624.455	20.23
624.577	22.23
624.699	14.23
624.822	12.23
624.944	11.23
625.066	11.23
625.188	1.23
625.31	29.23
625.432	16.23
625.554	5.23
625.676	38.23
625.799	35.23
625.921	23.23
626.043	28.23
626.165	18.23
626.287	-11.77
626.409	15.23
626.531	20.23
626.653	15.23
626.775	15.23
626.898	31.23
627.02	25.23
627.142	33.23
627.264	19.23
627.386	25.23
627.508	21.23
627.63	22.23
627.752	13.23
627.874	3.23
627.997	10.23
628.119	19.23
628.241	8.23
628.363	16.23
628.485	6.23
628.607	13.23
628.729	4.23
628.851	-7.77
628.973	4.23
629.096	-2.77
629.218	0.23
629.34	23.23
629.462	6.23
629.584	5.23
629.706	21.23
629.828	20.23
629.95	5.23
630.072	10.23
630.195	10.23
630.317	21.23
630.439	11.23
630.561	24.23
630.683	1.23
630.805	9.23
630.927	9.23
631.049	7.23
631.171	-13.77
631.293	9.23
631.416	6.23
631.538	4.23
631.66	0.23
631.782	18.23
631.904	43.23
632.026	13.23
632.148	-2.77
632.27	7.23
632.392	15.23
632.514	10.23
632.637	10.23
632.759	21.23
632.881	-0.77
633.003	8.23
633.125	-3.77
633.247	-0.77
633.369	-6.77
633.491	7.23
633.613	15.23
633.735	13.23
633.858	16.23
633.98	20.23
634.102	6.23
634.224	15.23
634.346	13.23
634.468	22.23
634.59	28.23
634.712	4.23
634.834	9.23
634.956	10.23
635.078	-0.77
635.201	1.23
635.323	11.23
635.445	-1.77
635.567	8.23
635.689	17.23
635.811	-7.77
635.933	10.23
636.055	13.23
636.177	11.23
636.299	22.23
636.421	3.23
636.544	-8.77
636.666	19.23
636.788	10.23
636.91	11.23
637.032	11.23
637.154	26.23
637.276	47.23
637.398	30.23
637.52	30.23
637.642	1.23
637.764	6.23
637.887	9.23
638.009	-0.77
638.131	-4.77
638.253	1.23
638.375	17.23
638.497	22.23
638.619	3.23
638.741	9.23
638.863	-0.77
638.985	13.23
639.107	1.23
639.23	13.23
639.352	13.23
639.474	-2.77
639.596	7.23
639.718	-2.77
639.84	9.23
639.962	5.23
640.084	26.23
640.206	13.23
640.328	-0.77
640.45	9.23
640.573	0.23
640.695	15.23
640.817	15.23
640.939	21.23
641.061	-3.77
641.183	13.23
641.305	-0.77
641.427	11.23
641.549	15.23
641.671	12.23
641.793	-2.77
641.915	7.23
642.038	21.23
642.16	8.23
642.282	21.23
642.404	3.23
642.526	16.23
642.648	4.23
642.77	1.23
642.892	-1.77
643.014	17.23
643.136	4.23
643.258	11.23
643.381	27.23
643.503	32.23
643.625	15.23
643.747	-5.77
643.869	4.23
643.991	3.23
644.113	0.23
644.235	11.23
644.357	19.23
644.479	20.23
644.601	6.23
644.723	8.23
644.846	-13.77
644.968	9.23
645.09	8.23
645.212	7.23
645.334	10.23
645.456	5.23
645.578	19.23
645.7	4.23
645.822	20.23
645.944	28.23
646.066	14.23
646.188	-8.77
646.311	21.23
646.433	14.23
646.555	28.23
646.677	16.23
646.799	7.23
646.921	0.23
647.043	18.23
647.165	-2.77
647.287	2.23
647.409	-4.77
647.531	27.23
647.654	0.23
647.776	25.23
647.898	15.23
648.02	17.23
648.142	0.23
648.264	-0.77
648.386	5.23
648.508	5.23
648.63	4.23
648.752	5.23
648.874	20.23
648.997	16.23
649.119	11.23
649.241	13.23
649.363	24.23
649.485	20.23
649.607	16.23
649.729	-21.77
649.851	8.23
649.973	11.23
650.095	22.23
650.217	-5.77
650.34	0.23
650.462	7.23
650.584	17.23
650.706	9.23
650.828	5.23
650.95	-0.77
651.072	32.23
651.194	13.23
651.316	12.23
651.438	10.23
651.56	-5.77
651.683	0.23
651.805	19.23
651.927	-12.77
652.049	4.23
652.171	4.23
652.293	9.23
652.415	1.23
652.537	-14.77
652.659	-13.77
652.781	0.23
652.903	11.23
653.026	19.23
653.148	19.23
653.27	7.23
653.392	4.23
653.514	-2.77
653.636	4.23
653.758	8.23
653.88	-2.77
654.002	15.23
654.124	10.23
654.247	3.23
654.369	16.23
654.491	10.23
654.613	9.23
654.735	3.23
654.857	23.23
654.979	21.23
655.101	9.23
655.223	29.23
655.345	17.23
655.468	20.23
655.59	-1.77
655.712	8.23
655.834	-5.77
655.956	19.23
656.078	8.23
656.2	22.23
656.322	-2.77
656.444	-6.77
656.566	10.23
656.689	3.23
656.811	9.23
656.933	12.23
657.055	1.23
657.177	2.23
657.299	9.23
657.421	7.23
657.543	8.23
657.665	1.23
657.787	-9.77
657.91	-7.77
658.032	-11.77
658.154	-9.77
658.276	13.23
658.398	-4.77
658.52	7.23
658.642	16.23
658.764	9.23
658.886	-6.77
659.009	-7.77
659.131	13.23
659.253	-6.77
659.375	10.23
659.497	-6.77
659.619	1.23
659.741	-4.77
659.863	1.23
659.985	7.23
660.108	16.23
660.23	-8.77
660.352	1.23
660.474	4.23
660.596	10.23
660.718	14.23
660.84	15.23
660.962	19.23
661.084	-1.77
661.207	-3.77
661.329	12.23
661.451	-0.77
661.573	-7.77
661.695	29.23
661.817	22.23
661.939	25.23
662.061	17.23
662.184	-0.77
662.306	-3.77
662.428	2.23
662.55	9.23
662.672	12.23
662.794	-9.77
662.916	12.23
663.038	0.23
663.161	24.23
663.283	22.23
663.405	19.23
663.527	6.23
663.649	13.23
663.771	3.23
663.893	7.23
664.015	15.23
664.138	2.23
664.26	-1.77
664.382	19.23
664.504	-8.77
664.626	-25.77
664.748	8.23
664.87	-3.77
664.992	3.23
665.115	13.23
665.237	3.23
665.359	5.23
665.481	0.23
665.603	10.23
665.725	-6.77
665.847	-2.77
665.97	-0.77
666.092	15.23
666.214	18.23
666.336	8.23
666.458	15.23
666.58	-6.77
666.702	-2.77
666.825	-4.77
666.947	-32.77
667.069	-0.77
667.191	-7.77
667.313	17.23
667.435	-10.77
667.557	-4.77
667.68	-17.77
667.802	13.23
667.924	-12.77
668.046	11.23
668.168	20.23
668.29	17.23
668.412	-5.77
668.535	8.23
668.657	11.23
668.779	13.23
668.901	-4.77
669.023	17.23
669.145	-0.77
669.267	15.23
669.39	9.23
669.512	14.23
669.634	-3.77
669.756	-4.77
669.878	3.23
670	13.23
670.123	-12.77
670.245	28.23
670.367	36.23
670.489	11.23
670.611	-9.77
670.733	16.23
670.856	18.23
670.978	13.23
671.1	13.23
671.222	-2.77
671.344	-3.77
671.466	4.23
671.589	1.23
671.711	13.23
671.833	7.23
671.955	15.23
672.077	12.23
672.199	26.23
672.322	17.23
672.444	0.23
672.566	18.23
672.688	-0.77
672.81	1.23
672.932	8.23
673.055	-8.77
673.177	-4.77
673.299	12.23
673.421	-12.77
673.543	12.23
673.665	21.23
673.788	21.23
673.91	2.23
674.032	-13.77
674.154	0.23
674.276	-2.77
674.399	0.23
674.521	7.23
674.643	11.23
674.765	4.23
674.887	3.23
675.009	0.23
675.132	-7.77
675.254	19.23
675.376	14.23
675.498	-0.77
675.62	26.23
675.743	7.23
675.865	17.23
675.987	-10.77
676.109	4.23
676.231	15.23
676.354	29.23
676.476	-7.77
676.598	6.23
676.72	8.23
676.842	3.23
676.965	-8.77
677.087	3.23
677.209	7.23
677.331	22.23
677.453	12.23
677.576	12.23
677.698	8.23
677.82	23.23
677.942	-2.77
678.064	10.23
678.187	-3.77
678.309	9.23
678.431	2.23
678.553	-12.77
678.675	26.23
678.798	36.23
678.92	9.23
679.042	16.23
679.164	18.23
679.286	16.23
679.409	0.23
679.531	3.23
679.653	-5.77
679.775	-1.77
679.898	7.23
680.02	-5.77
680.142	-6.77
680.264	-3.77
680.386	1.23
680.509	12.23
680.631	5.23
680.753	5.23
680.875	2.23
680.998	14.23
681.12	-5.77
681.242	8.23
681.364	-11.77
681.486	12.23
681.609	5.23
681.731	-10.77
681.853	-1.77
681.975	10.23
682.098	10.23
682.22	39.23
682.342	7.23
682.464	16.23
682.587	3.23
682.709	4.23
682.831	-7.77
682.953	21.23
683.076	4.23
683.198	8.23
683.32	-1.77
683.442	19.23
683.565	4.23
683.687	-0.77
683.809	-4.77
683.931	-16.77
684.054	12.23
684.176	15.23
684.298	19.23
684.42	-0.77
684.543	-2.77
684.665	-0.77
684.787	-25.77
684.909	-18.77
685.032	6.23
685.154	-18.77
685.276	-3.77
685.398	8.23
685.521	-0.77
685.643	-0.77
685.765	17.23
685.887	19.23
686.01	11.23
686.132	22.23
686.254	8.23
686.377	4.23
686.499	34.23
686.621	15.23
686.743	-12.77
686.866	10.23
686.988	33.23
687.11	32.23
687.232	8.23
687.355	0.23
687.477	14.23
687.599	17.23
687.722	9.23
687.844	16.23
687.966	13.23
688.088	7.23
688.211	19.23
688.333	0.23
688.455	21.23
688.578	14.23
688.7	3.23
688.822	16.23
688.944	8.23
689.067	51.23
689.189	25.23
689.311	-26.77
689.434	-10.77
689.556	11.23
689.678	28.23
689.801	-4.77
689.923	13.23
690.045	8.23
690.167	24.23
690.29	7.23
690.412	13.23
690.534	16.23
690.657	13.23
690.779	-2.77
690.901	16.23
691.024	5.23
691.146	4.23
691.268	5.23
691.391	12.23
691.513	3.23
691.635	17.23
691.758	25.23
691.88	20.23
692.002	-3.77
692.125	23.23
692.247	5.23
692.369	13.23
692.492	5.23
692.614	4.23
692.736	-2.77
692.859	-0.77
692.981	12.23
693.103	-1.77
693.226	13.23
693.348	27.23
693.47	15.23
693.593	28.23
693.715	21.23
693.837	16.23
693.96	7.23
694.082	0.23
694.204	7.23
694.327	12.23
694.449	-19.77
694.571	1.23
694.694	0.23
694.816	10.23
694.938	-2.77
695.061	9.23
695.183	14.23
695.305	5.23
695.428	10.23
695.55	-10.77
695.672	-9.77
695.795	17.23
695.917	17.23
696.04	10.23
696.162	1.23
696.284	16.23
696.407	7.23
696.529	12.23
696.651	29.23
696.774	1.23
696.896	23.23
697.019	15.23
697.141	16.23
697.263	8.23
697.386	8.23
697.508	9.23
697.63	9.23
697.753	21.23
697.875	20.23
697.998	-9.77
698.12	5.23
698.242	7.23
698.365	9.23
698.487	3.23
698.61	4.23
698.732	12.23
698.854	11.23
698.977	-3.77
699.099	16.23
699.221	8.23
699.344	0.23
699.466	10.23
699.589	9.23
699.711	-8.77
699.834	2.23
699.956	31.23
700.078	17.23
700.201	4.23
700.323	11.23
700.446	-8.77
700.568	-1.77
700.69	2.23
700.813	4.23
700.935	14.23
701.058	1.23
701.18	16.23
701.302	-3.77
701.425	7.23
701.547	9.23
701.67	-3.77
701.792	11.23
701.915	-16.77
702.037	0.23
702.159	7.23
702.282	3.23
702.404	-2.77
702.527	-1.77
702.649	22.23
702.772	17.23
702.894	21.23
703.017	20.23
703.139	23.23
703.261	23.23
703.384	15.23
703.506	-18.77
703.629	-11.77
703.751	-0.77
703.874	-0.77
703.996	-2.77
704.119	-10.77
704.241	1.23
704.364	-17.77
704.486	-3.77
704.608	11.23
704.731	8.23
704.853	3.23
704.976	12.23
705.098	13.23
705.221	6.23
705.343	7.23
705.466	-7.77
705.588	23.23
705.711	11.23
705.833	9.23
705.956	6.23
706.078	11.23
706.201	2.23
706.323	-11.77
706.446	13.23
