Data from LowRes_mercury_15_20_11_07_2024_HR4C61881__74__15-23-39-670.txt Node

Date: Thu Nov 07 15:23:39 EST 2024
User: crc00042
Spectrometer: HR4C6188
Trigger mode: 4
Integration Time (sec): 1.000000E-1
Scans to average: 1
Electric dark correction enabled: true
Nonlinearity correction enabled: false
Boxcar width: 0
XAxis mode: Wavelengths
Number of Pixels in Spectrum: 3648
>>>>>Begin Spectral Data<<<<<
245.66	-66.85
245.797	-66.85
245.934	-66.85
246.071	-70.85
246.208	3.15
246.344	14.15
246.481	-1.85
246.618	-10.85
246.755	3.15
246.892	6.15
247.029	-25.85
247.165	-30.85
247.302	9.15
247.439	-0.85
247.576	23.15
247.713	-17.85
247.849	26.15
247.986	6.15
248.123	5.15
248.26	-15.85
248.396	16.15
248.533	-8.85
248.67	-2.85
248.806	4.15
248.943	-14.85
249.08	0.15
249.216	18.15
249.353	-9.85
249.49	-2.85
249.626	-1.85
249.763	8.15
249.9	-9.85
250.036	-1.85
250.173	4.15
250.309	-5.85
250.446	9.15
250.582	-1.85
250.719	-26.85
250.856	-10.85
250.992	-0.85
251.129	-10.85
251.265	-21.85
251.402	8.15
251.538	-8.85
251.675	-9.85
251.811	13.15
251.948	21.15
252.084	-4.85
252.221	2.15
252.357	4.15
252.493	6.15
252.63	-8.85
252.766	16.15
252.903	7.15
253.039	-5.85
253.175	-9.85
253.312	4.15
253.448	-5.85
253.585	-15.85
253.721	9.15
253.857	-3.85
253.994	4.15
254.13	1.15
254.266	11.15
254.403	2.15
254.539	3.15
254.675	-15.85
254.811	-15.85
254.948	6.15
255.084	1.15
255.22	-19.85
255.356	-13.85
255.493	-6.85
255.629	-3.85
255.765	1.15
255.901	1.15
256.037	-3.85
256.174	5.15
256.31	-2.85
256.446	-4.85
256.582	-5.85
256.718	9.15
256.854	20.15
256.991	-13.85
257.127	0.15
257.263	0.15
257.399	8.15
257.535	-12.85
257.671	1.15
257.807	-10.85
257.943	-26.85
258.079	-7.85
258.215	0.15
258.351	-7.85
258.487	-4.85
258.623	24.15
258.759	-0.85
258.895	-3.85
259.031	-23.85
259.167	-30.85
259.303	10.15
259.439	11.15
259.575	-3.85
259.711	-18.85
259.847	-1.85
259.983	4.15
260.119	3.15
260.255	-4.85
260.391	7.15
260.527	22.15
260.663	-3.85
260.799	-9.85
260.934	15.15
261.07	-18.85
261.206	-21.85
261.342	-14.85
261.478	10.15
261.614	10.15
261.749	-2.85
261.885	-1.85
262.021	16.15
262.157	25.15
262.293	4.15
262.428	-5.85
262.564	7.15
262.7	8.15
262.836	6.15
262.971	19.15
263.107	3.15
263.243	8.15
263.378	-10.85
263.514	-15.85
263.65	7.15
263.785	-20.85
263.921	-14.85
264.057	4.15
264.192	13.15
264.328	20.15
264.464	-2.85
264.599	2.15
264.735	23.15
264.871	4.15
265.006	-1.85
265.142	5.15
265.277	4.15
265.413	18.15
265.548	11.15
265.684	14.15
265.819	-0.85
265.955	-25.85
266.091	-20.85
266.226	1.15
266.362	6.15
266.497	10.15
266.633	-1.85
266.768	-1.85
266.903	8.15
267.039	7.15
267.174	17.15
267.31	-9.85
267.445	-0.85
267.581	-4.85
267.716	-12.85
267.851	4.15
267.987	-5.85
268.122	27.15
268.258	-4.85
268.393	-12.85
268.528	7.15
268.664	-28.85
268.799	-15.85
268.934	9.15
269.07	-6.85
269.205	-1.85
269.34	6.15
269.476	6.15
269.611	-15.85
269.746	21.15
269.881	4.15
270.017	10.15
270.152	13.15
270.287	10.15
270.422	4.15
270.558	-12.85
270.693	6.15
270.828	-6.85
270.963	-2.85
271.098	0.15
271.234	6.15
271.369	6.15
271.504	-22.85
271.639	-15.85
271.774	3.15
271.909	3.15
272.045	-31.85
272.18	0.15
272.315	7.15
272.45	17.15
272.585	-20.85
272.72	3.15
272.855	5.15
272.99	6.15
273.125	0.15
273.26	-1.85
273.395	-11.85
273.53	-5.85
273.665	13.15
273.8	14.15
273.935	4.15
274.07	5.15
274.205	14.15
274.34	-5.85
274.475	7.15
274.61	21.15
274.745	6.15
274.88	24.15
275.015	-13.85
275.15	-14.85
275.285	19.15
275.42	-3.85
275.555	0.15
275.69	10.15
275.825	-2.85
275.959	10.15
276.094	4.15
276.229	5.15
276.364	14.15
276.499	-1.85
276.634	-4.85
276.768	5.15
276.903	14.15
277.038	25.15
277.173	-5.85
277.308	-3.85
277.442	-8.85
277.577	6.15
277.712	3.15
277.847	4.15
277.981	14.15
278.116	-30.85
278.251	-6.85
278.386	-15.85
278.52	0.15
278.655	-0.85
278.79	1.15
278.924	3.15
279.059	12.15
279.194	-17.85
279.328	35.15
279.463	-0.85
279.598	4.15
279.732	-0.85
279.867	12.15
280.001	19.15
280.136	-7.85
280.271	-9.85
280.405	13.15
280.54	-11.85
280.674	-9.85
280.809	21.15
280.943	4.15
281.078	-1.85
281.213	17.15
281.347	8.15
281.482	18.15
281.616	-17.85
281.751	7.15
281.885	-9.85
282.02	4.15
282.154	6.15
282.288	-5.85
282.423	-2.85
282.557	-20.85
282.692	0.15
282.826	-17.85
282.961	4.15
283.095	4.15
283.229	-7.85
283.364	-12.85
283.498	-2.85
283.633	12.15
283.767	1.15
283.901	-12.85
284.036	4.15
284.17	8.15
284.304	-20.85
284.439	-0.85
284.573	8.15
284.707	18.15
284.842	-7.85
284.976	-3.85
285.11	-6.85
285.244	9.15
285.379	48.15
285.513	-12.85
285.647	15.15
285.781	8.15
285.916	23.15
286.05	-7.85
286.184	25.15
286.318	24.15
286.453	-3.85
286.587	-12.85
286.721	8.15
286.855	-4.85
286.989	8.15
287.123	-0.85
287.258	-5.85
287.392	-8.85
287.526	11.15
287.66	-5.85
287.794	5.15
287.928	-6.85
288.062	-7.85
288.196	-8.85
288.33	10.15
288.464	9.15
288.598	4.15
288.733	8.15
288.867	16.15
289.001	-7.85
289.135	-3.85
289.269	3.15
289.403	-9.85
289.537	6.15
289.671	6.15
289.805	-8.85
289.939	13.15
290.073	20.15
290.207	24.15
290.34	13.15
290.474	27.15
290.608	26.15
290.742	-3.85
290.876	4.15
291.01	19.15
291.144	19.15
291.278	37.15
291.412	8.15
291.546	-9.85
291.679	-14.85
291.813	6.15
291.947	10.15
292.081	-2.85
292.215	-7.85
292.349	26.15
292.482	15.15
292.616	15.15
292.75	5.15
292.884	13.15
293.018	-6.85
293.151	0.15
293.285	0.15
293.419	-7.85
293.553	-5.85
293.686	-5.85
293.82	23.15
293.954	16.15
294.088	22.15
294.221	-17.85
294.355	6.15
294.489	2.15
294.622	-8.85
294.756	-6.85
294.89	3.15
295.023	28.15
295.157	11.15
295.291	-14.85
295.424	30.15
295.558	-6.85
295.691	-1.85
295.825	12.15
295.959	16.15
296.092	-8.85
296.226	-15.85
296.359	4.15
296.493	16.15
296.627	-0.85
296.76	4.15
296.894	-5.85
297.027	6.15
297.161	15.15
297.294	-1.85
297.428	0.15
297.561	26.15
297.695	-7.85
297.828	16.15
297.962	-6.85
298.095	-0.85
298.229	8.15
298.362	-15.85
298.495	-8.85
298.629	-11.85
298.762	-9.85
298.896	8.15
299.029	-13.85
299.162	6.15
299.296	8.15
299.429	-16.85
299.563	-12.85
299.696	14.15
299.829	11.15
299.963	3.15
300.096	13.15
300.229	35.15
300.363	10.15
300.496	13.15
300.629	-7.85
300.763	16.15
300.896	-7.85
301.029	6.15
301.162	13.15
301.296	-6.85
301.429	-6.85
301.562	-16.85
301.695	-1.85
301.829	14.15
301.962	15.15
302.095	14.15
302.228	-8.85
302.362	-8.85
302.495	-13.85
302.628	11.15
302.761	-3.85
302.894	25.15
303.027	10.15
303.161	-13.85
303.294	-4.85
303.427	13.15
303.56	11.15
303.693	3.15
303.826	-4.85
303.959	6.15
304.092	-5.85
304.225	-21.85
304.359	-4.85
304.492	3.15
304.625	-13.85
304.758	2.15
304.891	-13.85
305.024	1.15
305.157	-6.85
305.29	7.15
305.423	6.15
305.556	-3.85
305.689	18.15
305.822	3.15
305.955	19.15
306.088	2.15
306.221	8.15
306.354	10.15
306.487	5.15
306.62	-7.85
306.752	11.15
306.885	9.15
307.018	-5.85
307.151	-4.85
307.284	1.15
307.417	-22.85
307.55	-11.85
307.683	-7.85
307.816	3.15
307.948	10.15
308.081	16.15
308.214	9.15
308.347	15.15
308.48	-5.85
308.613	-2.85
308.745	0.15
308.878	4.15
309.011	-6.85
309.144	-14.85
309.277	-3.85
309.409	23.15
309.542	2.15
309.675	22.15
309.808	4.15
309.94	29.15
310.073	-21.85
310.206	-13.85
310.339	17.15
310.471	-13.85
310.604	8.15
310.737	7.15
310.869	8.15
311.002	-9.85
311.135	0.15
311.267	-11.85
311.4	-25.85
311.533	13.15
311.665	6.15
311.798	-2.85
311.93	0.15
312.063	15.15
312.196	45.15
312.328	74.15
312.461	54.15
312.593	32.15
312.726	69.15
312.859	107.15
312.991	172.15
313.124	40.15
313.256	21.15
313.389	-8.85
313.521	-8.85
313.654	-0.85
313.786	-21.85
313.919	-0.85
314.051	4.15
314.184	11.15
314.316	19.15
314.449	-12.85
314.581	-6.85
314.714	-1.85
314.846	4.15
314.978	-10.85
315.111	-5.85
315.243	15.15
315.376	22.15
315.508	-5.85
315.641	4.15
315.773	4.15
315.905	16.15
316.038	-4.85
316.17	-3.85
316.302	-8.85
316.435	7.15
316.567	13.15
316.699	20.15
316.832	-12.85
316.964	-20.85
317.096	-2.85
317.229	-7.85
317.361	-22.85
317.493	-3.85
317.625	-7.85
317.758	2.15
317.89	10.15
318.022	-6.85
318.155	-3.85
318.287	8.15
318.419	-4.85
318.551	-15.85
318.683	4.15
318.816	-6.85
318.948	9.15
319.08	11.15
319.212	12.15
319.344	-9.85
319.477	12.15
319.609	-11.85
319.741	10.15
319.873	13.15
320.005	6.15
320.137	1.15
320.269	8.15
320.401	1.15
320.534	-1.85
320.666	-25.85
320.798	-5.85
320.93	-2.85
321.062	7.15
321.194	-5.85
321.326	-1.85
321.458	5.15
321.59	1.15
321.722	8.15
321.854	7.15
321.986	-8.85
322.118	16.15
322.25	0.15
322.382	16.15
322.514	14.15
322.646	0.15
322.778	14.15
322.91	-17.85
323.042	9.15
323.174	1.15
323.306	-11.85
323.438	-5.85
323.57	-7.85
323.702	1.15
323.834	0.15
323.966	-19.85
324.097	1.15
324.229	16.15
324.361	33.15
324.493	12.15
324.625	-15.85
324.757	7.15
324.889	15.15
325.021	23.15
325.152	1.15
325.284	22.15
325.416	-15.85
325.548	1.15
325.68	4.15
325.811	20.15
325.943	19.15
326.075	-0.85
326.207	4.15
326.339	2.15
326.47	-3.85
326.602	3.15
326.734	1.15
326.866	2.15
326.997	-13.85
327.129	-6.85
327.261	-5.85
327.392	2.15
327.524	-0.85
327.656	3.15
327.787	-2.85
327.919	3.15
328.051	4.15
328.182	21.15
328.314	22.15
328.446	13.15
328.577	14.15
328.709	-0.85
328.841	7.15
328.972	-13.85
329.104	-4.85
329.235	22.15
329.367	0.15
329.499	2.15
329.63	23.15
329.762	-1.85
329.893	10.15
330.025	9.15
330.156	-1.85
330.288	15.15
330.419	13.15
330.551	11.15
330.683	-1.85
330.814	7.15
330.946	31.15
331.077	-2.85
331.208	-8.85
331.34	1.15
331.471	-17.85
331.603	-0.85
331.734	-5.85
331.866	-15.85
331.997	6.15
332.129	-6.85
332.26	-6.85
332.392	7.15
332.523	10.15
332.654	-4.85
332.786	19.15
332.917	-3.85
333.048	22.15
333.18	30.15
333.311	3.15
333.443	4.15
333.574	6.15
333.705	46.15
333.837	47.15
333.968	127.15
334.099	241.15
334.231	170.15
334.362	34.15
334.493	41.15
334.624	27.15
334.756	6.15
334.887	8.15
335.018	7.15
335.15	29.15
335.281	14.15
335.412	22.15
335.543	9.15
335.675	8.15
335.806	11.15
335.937	0.15
336.068	9.15
336.199	26.15
336.331	12.15
336.462	18.15
336.593	23.15
336.724	3.15
336.855	15.15
336.986	28.15
337.118	5.15
337.249	26.15
337.38	-2.85
337.511	13.15
337.642	15.15
337.773	6.15
337.904	5.15
338.035	14.15
338.166	3.15
338.298	5.15
338.429	8.15
338.56	13.15
338.691	11.15
338.822	5.15
338.953	1.15
339.084	24.15
339.215	32.15
339.346	9.15
339.477	21.15
339.608	13.15
339.739	13.15
339.87	6.15
340.001	3.15
340.132	3.15
340.263	3.15
340.394	22.15
340.525	15.15
340.656	6.15
340.787	-4.85
340.918	23.15
341.049	19.15
341.179	-7.85
341.31	0.15
341.441	8.15
341.572	6.15
341.703	-11.85
341.834	-14.85
341.965	8.15
342.096	-7.85
342.227	29.15
342.357	16.15
342.488	5.15
342.619	20.15
342.75	25.15
342.881	9.15
343.012	20.15
343.142	32.15
343.273	15.15
343.404	6.15
343.535	50.15
343.666	17.15
343.796	38.15
343.927	26.15
344.058	24.15
344.189	22.15
344.319	29.15
344.45	18.15
344.581	15.15
344.712	-1.85
344.842	21.15
344.973	20.15
345.104	30.15
345.234	23.15
345.365	23.15
345.496	18.15
345.626	19.15
345.757	6.15
345.888	8.15
346.018	32.15
346.149	23.15
346.28	42.15
346.41	19.15
346.541	16.15
346.672	-3.85
346.802	13.15
346.933	20.15
347.063	25.15
347.194	24.15
347.325	28.15
347.455	26.15
347.586	33.15
347.716	25.15
347.847	34.15
347.977	30.15
348.108	43.15
348.238	44.15
348.369	53.15
348.499	40.15
348.63	29.15
348.76	53.15
348.891	45.15
349.021	55.15
349.152	47.15
349.282	54.15
349.413	31.15
349.543	49.15
349.674	19.15
349.804	37.15
349.935	15.15
350.065	21.15
350.196	17.15
350.326	31.15
350.456	0.15
350.587	35.15
350.717	16.15
350.848	29.15
350.978	19.15
351.108	23.15
351.239	27.15
351.369	32.15
351.499	30.15
351.63	23.15
351.76	20.15
351.89	23.15
352.021	29.15
352.151	9.15
352.281	24.15
352.412	20.15
352.542	27.15
352.672	38.15
352.803	20.15
352.933	31.15
353.063	24.15
353.193	22.15
353.324	-10.85
353.454	16.15
353.584	27.15
353.714	23.15
353.845	-1.85
353.975	16.15
354.105	3.15
354.235	15.15
354.365	35.15
354.496	33.15
354.626	26.15
354.756	23.15
354.886	10.15
355.016	28.15
355.146	21.15
355.277	22.15
355.407	23.15
355.537	15.15
355.667	24.15
355.797	50.15
355.927	20.15
356.057	44.15
356.187	30.15
356.318	28.15
356.448	26.15
356.578	24.15
356.708	11.15
356.838	22.15
356.968	31.15
357.098	31.15
357.228	25.15
357.358	30.15
357.488	28.15
357.618	53.15
357.748	63.15
357.878	40.15
358.008	27.15
358.138	36.15
358.268	18.15
358.398	40.15
358.528	22.15
358.658	35.15
358.788	32.15
358.918	48.15
359.048	38.15
359.178	30.15
359.308	7.15
359.438	36.15
359.568	33.15
359.698	36.15
359.827	48.15
359.957	41.15
360.087	52.15
360.217	33.15
360.347	26.15
360.477	25.15
360.607	5.15
360.737	29.15
360.866	38.15
360.996	30.15
361.126	10.15
361.256	30.15
361.386	48.15
361.516	48.15
361.645	11.15
361.775	44.15
361.905	25.15
362.035	35.15
362.165	36.15
362.294	45.15
362.424	32.15
362.554	29.15
362.684	38.15
362.813	46.15
362.943	49.15
363.073	51.15
363.203	74.15
363.332	74.15
363.462	85.15
363.592	96.15
363.721	135.15
363.851	162.15
363.981	207.15
364.111	238.15
364.24	318.15
364.37	486.15
364.5	848.15
364.629	1828.15
364.759	3814.15
364.888	6260.15
365.018	9489.15
365.148	14824.15
365.277	12917.15
365.407	4783.15
365.537	3093.15
365.666	4029.15
365.796	1826.15
365.925	800.15
366.055	744.15
366.184	1000.15
366.314	1377.15
366.444	2464.15
366.573	2101.15
366.703	662.15
366.832	212.15
366.962	109.15
367.091	73.15
367.221	70.15
367.35	68.15
367.48	88.15
367.609	58.15
367.739	44.15
367.868	27.15
367.998	32.15
368.127	50.15
368.257	49.15
368.386	39.15
368.516	36.15
368.645	34.15
368.775	30.15
368.904	31.15
369.033	18.15
369.163	17.15
369.292	43.15
369.422	34.15
369.551	45.15
369.68	45.15
369.81	47.15
369.939	39.15
370.069	61.15
370.198	43.15
370.327	36.15
370.457	45.15
370.586	43.15
370.715	31.15
370.845	13.15
370.974	43.15
371.103	47.15
371.233	46.15
371.362	48.15
371.491	44.15
371.621	69.15
371.75	46.15
371.879	60.15
372.008	68.15
372.138	43.15
372.267	67.15
372.396	48.15
372.525	28.15
372.655	20.15
372.784	40.15
372.913	22.15
373.042	23.15
373.172	29.15
373.301	-1.85
373.43	4.15
373.559	9.15
373.688	23.15
373.818	32.15
373.947	37.15
374.076	20.15
374.205	51.15
374.334	29.15
374.463	28.15
374.593	31.15
374.722	19.15
374.851	24.15
374.98	15.15
375.109	23.15
375.238	27.15
375.367	27.15
375.496	15.15
375.625	15.15
375.755	27.15
375.884	32.15
376.013	11.15
376.142	9.15
376.271	16.15
376.4	23.15
376.529	15.15
376.658	20.15
376.787	15.15
376.916	31.15
377.045	35.15
377.174	19.15
377.303	8.15
377.432	38.15
377.561	23.15
377.69	8.15
377.819	29.15
377.948	19.15
378.077	7.15
378.206	17.15
378.335	29.15
378.464	24.15
378.593	30.15
378.722	-0.85
378.851	21.15
378.98	18.15
379.108	-0.85
379.237	9.15
379.366	41.15
379.495	31.15
379.624	15.15
379.753	35.15
379.882	19.15
380.011	-0.85
380.14	7.15
380.268	14.15
380.397	9.15
380.526	11.15
380.655	8.15
380.784	6.15
380.913	-6.85
381.041	-0.85
381.17	-4.85
381.299	11.15
381.428	29.15
381.557	3.15
381.685	-0.85
381.814	29.15
381.943	12.15
382.072	3.15
382.2	16.15
382.329	8.15
382.458	23.15
382.587	31.15
382.715	35.15
382.844	21.15
382.973	19.15
383.102	23.15
383.23	14.15
383.359	2.15
383.488	19.15
383.616	17.15
383.745	-7.85
383.874	10.15
384.003	28.15
384.131	18.15
384.26	20.15
384.389	20.15
384.517	5.15
384.646	9.15
384.774	22.15
384.903	33.15
385.032	27.15
385.16	17.15
385.289	18.15
385.418	10.15
385.546	19.15
385.675	12.15
385.803	9.15
385.932	32.15
386.06	12.15
386.189	25.15
386.318	2.15
386.446	20.15
386.575	29.15
386.703	25.15
386.832	22.15
386.96	4.15
387.089	19.15
387.217	7.15
387.346	22.15
387.474	16.15
387.603	32.15
387.731	21.15
387.86	38.15
387.988	30.15
388.117	28.15
388.245	22.15
388.374	5.15
388.502	34.15
388.631	13.15
388.759	18.15
388.888	23.15
389.016	22.15
389.144	15.15
389.273	36.15
389.401	16.15
389.53	9.15
389.658	37.15
389.786	9.15
389.915	9.15
390.043	3.15
390.172	15.15
390.3	35.15
390.428	25.15
390.557	30.15
390.685	37.15
390.813	43.15
390.942	25.15
391.07	20.15
391.198	9.15
391.327	32.15
391.455	15.15
391.583	36.15
391.712	27.15
391.84	28.15
391.968	5.15
392.096	7.15
392.225	-2.85
392.353	28.15
392.481	29.15
392.609	36.15
392.738	24.15
392.866	31.15
392.994	26.15
393.122	38.15
393.251	14.15
393.379	29.15
393.507	14.15
393.635	12.15
393.764	48.15
393.892	42.15
394.02	20.15
394.148	22.15
394.276	16.15
394.404	53.15
394.533	30.15
394.661	13.15
394.789	24.15
394.917	31.15
395.045	24.15
395.173	11.15
395.302	19.15
395.43	23.15
395.558	44.15
395.686	36.15
395.814	41.15
395.942	10.15
396.07	25.15
396.198	34.15
396.326	32.15
396.454	38.15
396.582	42.15
396.711	29.15
396.839	50.15
396.967	43.15
397.095	19.15
397.223	34.15
397.351	59.15
397.479	46.15
397.607	34.15
397.735	52.15
397.863	32.15
397.991	48.15
398.119	31.15
398.247	41.15
398.375	40.15
398.503	49.15
398.631	43.15
398.759	50.15
398.887	53.15
399.015	35.15
399.143	41.15
399.271	51.15
399.399	62.15
399.526	63.15
399.654	83.15
399.782	55.15
399.91	79.15
400.038	103.15
400.166	78.15
400.294	81.15
400.422	97.15
400.55	106.15
400.678	109.15
400.805	110.15
400.933	107.15
401.061	111.15
401.189	111.15
401.317	136.15
401.445	98.15
401.573	69.15
401.7	45.15
401.828	42.15
401.956	40.15
402.084	49.15
402.212	55.15
402.34	34.15
402.467	38.15
402.595	35.15
402.723	23.15
402.851	56.15
402.978	53.15
403.106	78.15
403.234	84.15
403.362	104.15
403.489	130.15
403.617	167.15
403.745	204.15
403.873	269.15
404	572.15
404.128	1453.15
404.256	3930.15
404.384	5107.15
404.511	5482.15
404.639	7230.15
404.767	11535.15
404.894	14675.15
405.022	4946.15
405.15	1331.15
405.277	443.15
405.405	257.15
405.533	135.15
405.66	128.15
405.788	55.15
405.916	70.15
406.043	49.15
406.171	41.15
406.299	63.15
406.426	64.15
406.554	43.15
406.681	61.15
406.809	37.15
406.937	48.15
407.064	69.15
407.192	137.15
407.319	301.15
407.447	529.15
407.574	517.15
407.702	615.15
407.83	853.15
407.957	1624.15
408.085	938.15
408.212	280.15
408.34	96.15
408.467	52.15
408.595	41.15
408.722	45.15
408.85	45.15
408.977	41.15
409.105	23.15
409.232	40.15
409.36	35.15
409.487	19.15
409.615	32.15
409.742	42.15
409.87	23.15
409.997	36.15
410.125	32.15
410.252	25.15
410.379	26.15
410.507	28.15
410.634	24.15
410.762	33.15
410.889	58.15
411.017	39.15
411.144	21.15
411.271	11.15
411.399	10.15
411.526	11.15
411.653	30.15
411.781	55.15
411.908	50.15
412.036	35.15
412.163	52.15
412.29	39.15
412.418	20.15
412.545	24.15
412.672	18.15
412.8	48.15
412.927	37.15
413.054	52.15
413.182	30.15
413.309	23.15
413.436	15.15
413.564	16.15
413.691	36.15
413.818	31.15
413.945	14.15
414.073	30.15
414.2	43.15
414.327	31.15
414.454	41.15
414.582	42.15
414.709	8.15
414.836	19.15
414.963	31.15
415.091	26.15
415.218	9.15
415.345	29.15
415.472	25.15
415.6	10.15
415.727	31.15
415.854	17.15
415.981	24.15
416.108	24.15
416.236	16.15
416.363	21.15
416.49	14.15
416.617	33.15
416.744	46.15
416.871	38.15
416.998	30.15
417.126	20.15
417.253	14.15
417.38	28.15
417.507	36.15
417.634	35.15
417.761	30.15
417.888	15.15
418.015	40.15
418.143	23.15
418.27	40.15
418.397	27.15
418.524	33.15
418.651	10.15
418.778	39.15
418.905	62.15
419.032	34.15
419.159	23.15
419.286	66.15
419.413	46.15
419.54	44.15
419.667	32.15
419.794	35.15
419.921	27.15
420.048	58.15
420.175	52.15
420.302	59.15
420.429	49.15
420.556	56.15
420.683	27.15
420.81	45.15
420.937	58.15
421.064	62.15
421.191	58.15
421.318	63.15
421.445	90.15
421.572	60.15
421.699	54.15
421.826	39.15
421.953	28.15
422.08	34.15
422.207	-3.85
422.334	11.15
422.461	30.15
422.588	14.15
422.714	28.15
422.841	36.15
422.968	24.15
423.095	23.15
423.222	4.15
423.349	30.15
423.476	32.15
423.603	28.15
423.729	0.15
423.856	4.15
423.983	27.15
424.11	4.15
424.237	18.15
424.364	34.15
424.491	28.15
424.617	22.15
424.744	3.15
424.871	4.15
424.998	13.15
425.125	7.15
425.251	13.15
425.378	27.15
425.505	4.15
425.632	20.15
425.758	13.15
425.885	36.15
426.012	30.15
426.139	29.15
426.266	33.15
426.392	28.15
426.519	18.15
426.646	28.15
426.772	27.15
426.899	38.15
427.026	30.15
427.153	28.15
427.279	31.15
427.406	10.15
427.533	18.15
427.659	7.15
427.786	6.15
427.913	27.15
428.039	21.15
428.166	20.15
428.293	8.15
428.419	30.15
428.546	12.15
428.673	9.15
428.799	11.15
428.926	21.15
429.053	39.15
429.179	8.15
429.306	21.15
429.433	23.15
429.559	35.15
429.686	8.15
429.812	6.15
429.939	19.15
430.066	12.15
430.192	9.15
430.319	35.15
430.445	29.15
430.572	17.15
430.699	12.15
430.825	27.15
430.952	31.15
431.078	42.15
431.205	42.15
431.331	22.15
431.458	42.15
431.584	30.15
431.711	23.15
431.837	25.15
431.964	26.15
432.09	23.15
432.217	-1.85
432.343	37.15
432.47	25.15
432.596	26.15
432.723	16.15
432.849	18.15
432.976	42.15
433.102	26.15
433.229	29.15
433.355	57.15
433.482	96.15
433.608	108.15
433.735	104.15
433.861	109.15
433.987	143.15
434.114	189.15
434.24	181.15
434.367	231.15
434.493	222.15
434.62	275.15
434.746	392.15
434.872	616.15
434.999	815.15
435.125	1737.15
435.252	5510.15
435.378	13390.15
435.504	15196.15
435.631	15425.15
435.757	15681.15
435.883	15681.15
436.01	15681.15
436.136	15681.15
436.262	15681.15
436.389	3500.15
436.515	2151.15
436.641	773.15
436.768	613.15
436.894	392.15
437.02	395.15
437.147	299.15
437.273	275.15
437.399	219.15
437.526	243.15
437.652	188.15
437.778	202.15
437.904	141.15
438.031	157.15
438.157	138.15
438.283	154.15
438.409	115.15
438.536	118.15
438.662	126.15
438.788	131.15
438.914	96.15
439.041	100.15
439.167	107.15
439.293	98.15
439.419	91.15
439.546	93.15
439.672	97.15
439.798	101.15
439.924	83.15
440.05	87.15
440.177	77.15
440.303	88.15
440.429	56.15
440.555	58.15
440.681	54.15
440.807	76.15
440.934	55.15
441.06	68.15
441.186	76.15
441.312	72.15
441.438	79.15
441.564	56.15
441.69	55.15
441.816	67.15
441.943	51.15
442.069	50.15
442.195	57.15
442.321	56.15
442.447	52.15
442.573	25.15
442.699	22.15
442.825	25.15
442.951	30.15
443.077	48.15
443.203	47.15
443.33	48.15
443.456	35.15
443.582	57.15
443.708	33.15
443.834	61.15
443.96	56.15
444.086	41.15
444.212	67.15
444.338	54.15
444.464	46.15
444.59	50.15
444.716	48.15
444.842	46.15
444.968	32.15
445.094	33.15
445.22	35.15
445.346	19.15
445.472	38.15
445.598	41.15
445.724	33.15
445.85	39.15
445.976	31.15
446.102	32.15
446.228	56.15
446.354	38.15
446.48	29.15
446.605	37.15
446.731	47.15
446.857	29.15
446.983	43.15
447.109	39.15
447.235	23.15
447.361	27.15
447.487	26.15
447.613	20.15
447.739	30.15
447.865	27.15
447.99	22.15
448.116	36.15
448.242	26.15
448.368	28.15
448.494	34.15
448.62	32.15
448.746	26.15
448.872	24.15
448.997	14.15
449.123	22.15
449.249	50.15
449.375	45.15
449.501	14.15
449.627	20.15
449.752	44.15
449.878	22.15
450.004	18.15
450.13	36.15
450.256	20.15
450.381	14.15
450.507	24.15
450.633	24.15
450.759	27.15
450.884	22.15
451.01	38.15
451.136	30.15
451.262	45.15
451.388	26.15
451.513	23.15
451.639	46.15
451.765	33.15
451.89	31.15
452.016	36.15
452.142	37.15
452.268	29.15
452.393	25.15
452.519	11.15
452.645	37.15
452.771	24.15
452.896	15.15
453.022	2.15
453.148	27.15
453.273	35.15
453.399	22.15
453.525	16.15
453.65	18.15
453.776	40.15
453.902	33.15
454.027	29.15
454.153	19.15
454.279	34.15
454.404	16.15
454.53	42.15
454.656	43.15
454.781	16.15
454.907	11.15
455.032	32.15
455.158	36.15
455.284	34.15
455.409	23.15
455.535	23.15
455.66	30.15
455.786	23.15
455.912	19.15
456.037	7.15
456.163	8.15
456.288	27.15
456.414	10.15
456.539	13.15
456.665	35.15
456.791	20.15
456.916	31.15
457.042	44.15
457.167	3.15
457.293	26.15
457.418	6.15
457.544	24.15
457.669	23.15
457.795	23.15
457.92	30.15
458.046	19.15
458.171	27.15
458.297	22.15
458.422	32.15
458.548	26.15
458.673	22.15
458.799	33.15
458.924	11.15
459.05	41.15
459.175	21.15
459.301	18.15
459.426	34.15
459.552	27.15
459.677	27.15
459.803	31.15
459.928	21.15
460.053	30.15
460.179	38.15
460.304	46.15
460.43	-2.85
460.555	30.15
460.681	38.15
460.806	34.15
460.931	18.15
461.057	24.15
461.182	15.15
461.308	30.15
461.433	30.15
461.558	8.15
461.684	35.15
461.809	35.15
461.934	17.15
462.06	23.15
462.185	2.15
462.311	19.15
462.436	15.15
462.561	30.15
462.687	26.15
462.812	23.15
462.937	13.15
463.063	22.15
463.188	15.15
463.313	36.15
463.439	28.15
463.564	24.15
463.689	23.15
463.814	36.15
463.94	21.15
464.065	30.15
464.19	26.15
464.316	3.15
464.441	21.15
464.566	5.15
464.692	9.15
464.817	18.15
464.942	26.15
465.067	27.15
465.193	5.15
465.318	11.15
465.443	11.15
465.568	24.15
465.694	27.15
465.819	32.15
465.944	36.15
466.069	24.15
466.194	26.15
466.32	37.15
466.445	35.15
466.57	32.15
466.695	16.15
466.82	31.15
466.946	41.15
467.071	30.15
467.196	39.15
467.321	44.15
467.446	23.15
467.572	33.15
467.697	25.15
467.822	18.15
467.947	49.15
468.072	21.15
468.197	18.15
468.323	20.15
468.448	40.15
468.573	22.15
468.698	22.15
468.823	33.15
468.948	36.15
469.073	15.15
469.198	30.15
469.324	45.15
469.449	34.15
469.574	44.15
469.699	48.15
469.824	56.15
469.949	28.15
470.074	36.15
470.199	63.15
470.324	24.15
470.449	29.15
470.574	20.15
470.7	42.15
470.825	28.15
470.95	52.15
471.075	31.15
471.2	35.15
471.325	55.15
471.45	29.15
471.575	34.15
471.7	31.15
471.825	23.15
471.95	29.15
472.075	25.15
472.2	24.15
472.325	22.15
472.45	25.15
472.575	14.15
472.7	31.15
472.825	37.15
472.95	46.15
473.075	57.15
473.2	40.15
473.325	32.15
473.45	36.15
473.575	47.15
473.7	55.15
473.825	24.15
473.95	23.15
474.075	28.15
474.2	27.15
474.325	18.15
474.45	43.15
474.574	34.15
474.699	31.15
474.824	23.15
474.949	18.15
475.074	21.15
475.199	18.15
475.324	26.15
475.449	12.15
475.574	16.15
475.699	18.15
475.824	25.15
475.949	25.15
476.073	14.15
476.198	10.15
476.323	5.15
476.448	1.15
476.573	11.15
476.698	18.15
476.823	16.15
476.947	26.15
477.072	38.15
477.197	19.15
477.322	15.15
477.447	23.15
477.572	11.15
477.697	23.15
477.821	20.15
477.946	31.15
478.071	12.15
478.196	38.15
478.321	25.15
478.445	14.15
478.57	12.15
478.695	20.15
478.82	35.15
478.945	38.15
479.069	2.15
479.194	14.15
479.319	26.15
479.444	35.15
479.569	22.15
479.693	23.15
479.818	25.15
479.943	37.15
480.068	26.15
480.192	15.15
480.317	14.15
480.442	16.15
480.567	13.15
480.691	25.15
480.816	7.15
480.941	10.15
481.066	20.15
481.19	35.15
481.315	32.15
481.44	15.15
481.564	6.15
481.689	29.15
481.814	15.15
481.938	13.15
482.063	3.15
482.188	12.15
482.313	25.15
482.437	21.15
482.562	25.15
482.687	34.15
482.811	25.15
482.936	8.15
483.061	23.15
483.185	12.15
483.31	20.15
483.435	13.15
483.559	19.15
483.684	32.15
483.808	35.15
483.933	32.15
484.058	25.15
484.182	10.15
484.307	3.15
484.432	20.15
484.556	7.15
484.681	10.15
484.805	10.15
484.93	13.15
485.055	40.15
485.179	51.15
485.304	22.15
485.428	6.15
485.553	21.15
485.678	22.15
485.802	11.15
485.927	51.15
486.051	30.15
486.176	10.15
486.3	19.15
486.425	16.15
486.549	27.15
486.674	27.15
486.799	23.15
486.923	6.15
487.048	19.15
487.172	12.15
487.297	10.15
487.421	26.15
487.546	30.15
487.67	33.15
487.795	20.15
487.919	23.15
488.044	31.15
488.168	42.15
488.293	26.15
488.417	19.15
488.542	32.15
488.666	28.15
488.791	28.15
488.915	40.15
489.04	37.15
489.164	34.15
489.289	32.15
489.413	29.15
489.538	34.15
489.662	31.15
489.786	14.15
489.911	24.15
490.035	32.15
490.16	25.15
490.284	9.15
490.409	11.15
490.533	31.15
490.658	38.15
490.782	28.15
490.906	57.15
491.031	115.15
491.155	133.15
491.28	171.15
491.404	160.15
491.528	268.15
491.653	160.15
491.777	61.15
491.902	15.15
492.026	11.15
492.15	25.15
492.275	40.15
492.399	37.15
492.524	18.15
492.648	40.15
492.772	13.15
492.897	38.15
493.021	20.15
493.145	30.15
493.27	19.15
493.394	1.15
493.518	6.15
493.643	7.15
493.767	37.15
493.891	-3.85
494.016	32.15
494.14	31.15
494.264	15.15
494.389	19.15
494.513	18.15
494.637	15.15
494.762	28.15
494.886	24.15
495.01	24.15
495.134	22.15
495.259	43.15
495.383	27.15
495.507	26.15
495.632	35.15
495.756	24.15
495.88	22.15
496.004	31.15
496.129	6.15
496.253	21.15
496.377	22.15
496.501	20.15
496.626	5.15
496.75	32.15
496.874	11.15
496.998	20.15
497.123	34.15
497.247	15.15
497.371	20.15
497.495	14.15
497.62	20.15
497.744	27.15
497.868	11.15
497.992	20.15
498.116	12.15
498.241	26.15
498.365	19.15
498.489	19.15
498.613	36.15
498.737	12.15
498.862	25.15
498.986	25.15
499.11	19.15
499.234	14.15
499.358	14.15
499.482	12.15
499.607	19.15
499.731	32.15
499.855	43.15
499.979	20.15
500.103	23.15
500.227	27.15
500.351	20.15
500.476	12.15
500.6	26.15
500.724	22.15
500.848	18.15
500.972	28.15
501.096	22.15
501.22	40.15
501.344	26.15
501.469	23.15
501.593	28.15
501.717	36.15
501.841	38.15
501.965	20.15
502.089	13.15
502.213	28.15
502.337	21.15
502.461	17.15
502.585	13.15
502.709	24.15
502.834	22.15
502.958	21.15
503.082	34.15
503.206	24.15
503.33	31.15
503.454	25.15
503.578	32.15
503.702	48.15
503.826	24.15
503.95	46.15
504.074	15.15
504.198	26.15
504.322	20.15
504.446	21.15
504.57	25.15
504.694	28.15
504.818	14.15
504.942	24.15
505.066	16.15
505.19	24.15
505.314	19.15
505.438	13.15
505.562	11.15
505.686	24.15
505.81	24.15
505.934	33.15
506.058	23.15
506.182	26.15
506.306	8.15
506.43	14.15
506.554	13.15
506.678	14.15
506.802	13.15
506.926	32.15
507.05	16.15
507.174	39.15
507.298	26.15
507.422	13.15
507.546	19.15
507.67	19.15
507.794	-3.85
507.918	17.15
508.042	18.15
508.165	18.15
508.289	17.15
508.413	15.15
508.537	19.15
508.661	36.15
508.785	31.15
508.909	37.15
509.033	29.15
509.157	28.15
509.281	33.15
509.405	27.15
509.528	60.15
509.652	39.15
509.776	19.15
509.9	40.15
510.024	35.15
510.148	34.15
510.272	30.15
510.396	46.15
510.519	16.15
510.643	50.15
510.767	44.15
510.891	55.15
511.015	49.15
511.139	40.15
511.263	56.15
511.386	43.15
511.51	28.15
511.634	34.15
511.758	37.15
511.882	32.15
512.006	45.15
512.129	68.15
512.253	99.15
512.377	93.15
512.501	90.15
512.625	80.15
512.748	90.15
512.872	73.15
512.996	48.15
513.12	77.15
513.244	54.15
513.367	75.15
513.491	74.15
513.615	80.15
513.739	73.15
513.862	73.15
513.986	73.15
514.11	80.15
514.234	96.15
514.358	108.15
514.481	109.15
514.605	115.15
514.729	123.15
514.853	140.15
514.976	104.15
515.1	127.15
515.224	111.15
515.348	98.15
515.471	84.15
515.595	116.15
515.719	130.15
515.842	229.15
515.966	294.15
516.09	323.15
516.214	303.15
516.337	354.15
516.461	220.15
516.585	87.15
516.708	44.15
516.832	11.15
516.956	10.15
517.08	22.15
517.203	6.15
517.327	25.15
517.451	35.15
517.574	28.15
517.698	14.15
517.822	20.15
517.945	29.15
518.069	26.15
518.193	22.15
518.316	15.15
518.44	32.15
518.564	11.15
518.687	-1.85
518.811	27.15
518.935	42.15
519.058	4.15
519.182	10.15
519.306	25.15
519.429	14.15
519.553	55.15
519.676	22.15
519.8	25.15
519.924	20.15
520.047	27.15
520.171	20.15
520.294	7.15
520.418	7.15
520.542	3.15
520.665	38.15
520.789	16.15
520.913	21.15
521.036	10.15
521.16	6.15
521.283	10.15
521.407	10.15
521.53	19.15
521.654	-4.85
521.778	28.15
521.901	23.15
522.025	29.15
522.148	2.15
522.272	10.15
522.395	20.15
522.519	16.15
522.643	6.15
522.766	-0.85
522.89	22.15
523.013	34.15
523.137	8.15
523.26	11.15
523.384	15.15
523.507	22.15
523.631	23.15
523.754	19.15
523.878	2.15
524.002	11.15
524.125	15.15
524.249	4.15
524.372	28.15
524.496	18.15
524.619	2.15
524.743	16.15
524.866	4.15
524.99	26.15
525.113	7.15
525.237	27.15
525.36	27.15
525.484	33.15
525.607	10.15
525.731	5.15
525.854	25.15
525.978	36.15
526.101	13.15
526.224	30.15
526.348	12.15
526.471	23.15
526.595	22.15
526.718	26.15
526.842	-0.85
526.965	18.15
527.089	2.15
527.212	12.15
527.336	13.15
527.459	6.15
527.582	0.15
527.706	29.15
527.829	28.15
527.953	3.15
528.076	-0.85
528.2	10.15
528.323	27.15
528.446	40.15
528.57	36.15
528.693	28.15
528.817	18.15
528.94	28.15
529.064	55.15
529.187	13.15
529.31	16.15
529.434	21.15
529.557	12.15
529.68	6.15
529.804	14.15
529.927	34.15
530.051	17.15
530.174	31.15
530.297	28.15
530.421	26.15
530.544	18.15
530.668	7.15
530.791	15.15
530.914	38.15
531.038	14.15
531.161	13.15
531.284	11.15
531.408	15.15
531.531	14.15
531.654	7.15
531.778	3.15
531.901	5.15
532.024	27.15
532.148	5.15
532.271	8.15
532.394	15.15
532.518	22.15
532.641	26.15
532.764	22.15
532.888	32.15
533.011	-1.85
533.134	21.15
533.258	37.15
533.381	12.15
533.504	-17.85
533.628	-2.85
533.751	7.15
533.874	23.15
533.997	17.15
534.121	8.15
534.244	15.15
534.367	9.15
534.491	18.15
534.614	6.15
534.737	37.15
534.86	22.15
534.984	10.15
535.107	10.15
535.23	34.15
535.354	12.15
535.477	-11.85
535.6	9.15
535.723	19.15
535.847	27.15
535.97	10.15
536.093	26.15
536.216	13.15
536.34	24.15
536.463	-0.85
536.586	24.15
536.709	22.15
536.833	34.15
536.956	17.15
537.079	24.15
537.202	35.15
537.325	12.15
537.449	14.15
537.572	39.15
537.695	24.15
537.818	8.15
537.941	16.15
538.065	13.15
538.188	8.15
538.311	22.15
538.434	17.15
538.558	16.15
538.681	27.15
538.804	20.15
538.927	10.15
539.05	27.15
539.173	10.15
539.297	15.15
539.42	26.15
539.543	22.15
539.666	34.15
539.789	20.15
539.913	20.15
540.036	35.15
540.159	37.15
540.282	11.15
540.405	16.15
540.528	21.15
540.651	38.15
540.775	11.15
540.898	25.15
541.021	30.15
541.144	23.15
541.267	35.15
541.39	26.15
541.513	38.15
541.637	27.15
541.76	8.15
541.883	22.15
542.006	57.15
542.129	49.15
542.252	51.15
542.375	36.15
542.498	32.15
542.622	40.15
542.745	61.15
542.868	57.15
542.991	57.15
543.114	48.15
543.237	60.15
543.36	77.15
543.483	52.15
543.606	52.15
543.73	68.15
543.853	76.15
543.976	82.15
544.099	95.15
544.222	134.15
544.345	153.15
544.468	180.15
544.591	239.15
544.714	295.15
544.837	363.15
544.96	433.15
545.083	656.15
545.206	1058.15
545.329	2417.15
545.453	10967.15
545.576	15260.15
545.699	15681.15
545.822	15681.15
545.945	15681.15
546.068	15681.15
546.191	15681.15
546.314	15681.15
546.437	15681.15
546.56	15681.15
546.683	15681.15
546.806	15681.15
546.929	15681.15
547.052	15681.15
547.175	15681.15
547.298	15681.15
547.421	15681.15
547.544	15681.15
547.667	3592.15
547.79	2841.15
547.913	1100.15
548.036	918.15
548.159	638.15
548.282	628.15
548.405	478.15
548.528	512.15
548.651	391.15
548.774	389.15
548.897	342.15
549.02	379.15
549.143	306.15
549.266	278.15
549.389	273.15
549.512	258.15
549.635	238.15
549.758	237.15
549.881	223.15
550.004	221.15
550.127	203.15
550.25	188.15
550.373	159.15
550.496	204.15
550.619	174.15
550.742	169.15
550.865	155.15
550.988	157.15
551.111	151.15
551.234	137.15
551.356	112.15
551.479	131.15
551.602	120.15
551.725	126.15
551.848	139.15
551.971	127.15
552.094	126.15
552.217	109.15
552.34	111.15
552.463	93.15
552.586	104.15
552.709	92.15
552.832	102.15
552.955	108.15
553.077	105.15
553.2	80.15
553.323	93.15
553.446	100.15
553.569	85.15
553.692	97.15
553.815	96.15
553.938	123.15
554.061	96.15
554.184	90.15
554.306	73.15
554.429	95.15
554.552	90.15
554.675	86.15
554.798	82.15
554.921	86.15
555.044	78.15
555.167	54.15
555.29	72.15
555.412	90.15
555.535	73.15
555.658	53.15
555.781	77.15
555.904	81.15
556.027	78.15
556.15	63.15
556.272	67.15
556.395	79.15
556.518	76.15
556.641	78.15
556.764	61.15
556.887	74.15
557.01	65.15
557.132	56.15
557.255	56.15
557.378	56.15
557.501	77.15
557.624	70.15
557.747	69.15
557.869	68.15
557.992	76.15
558.115	94.15
558.238	72.15
558.361	93.15
558.483	96.15
558.606	74.15
558.729	44.15
558.852	64.15
558.975	81.15
559.098	67.15
559.22	50.15
559.343	47.15
559.466	35.15
559.589	28.15
559.712	39.15
559.834	54.15
559.957	29.15
560.08	52.15
560.203	67.15
560.325	63.15
560.448	63.15
560.571	48.15
560.694	47.15
560.817	82.15
560.939	67.15
561.062	50.15
561.185	64.15
561.308	68.15
561.43	44.15
561.553	50.15
561.676	61.15
561.799	65.15
561.921	66.15
562.044	51.15
562.167	48.15
562.29	74.15
562.413	78.15
562.535	77.15
562.658	43.15
562.781	55.15
562.903	76.15
563.026	81.15
563.149	125.15
563.272	131.15
563.394	117.15
563.517	104.15
563.64	54.15
563.763	57.15
563.885	58.15
564.008	44.15
564.131	31.15
564.254	38.15
564.376	40.15
564.499	30.15
564.622	43.15
564.744	41.15
564.867	34.15
564.99	22.15
565.113	44.15
565.235	39.15
565.358	42.15
565.481	14.15
565.603	28.15
565.726	51.15
565.849	51.15
565.971	43.15
566.094	33.15
566.217	49.15
566.34	38.15
566.462	22.15
566.585	36.15
566.708	68.15
566.83	36.15
566.953	46.15
567.076	28.15
567.198	34.15
567.321	16.15
567.444	30.15
567.566	33.15
567.689	25.15
567.812	41.15
567.934	40.15
568.057	43.15
568.18	32.15
568.302	20.15
568.425	12.15
568.548	35.15
568.67	38.15
568.793	38.15
568.916	27.15
569.038	15.15
569.161	30.15
569.283	35.15
569.406	32.15
569.529	15.15
569.651	34.15
569.774	14.15
569.897	21.15
570.019	53.15
570.142	26.15
570.265	16.15
570.387	21.15
570.51	31.15
570.632	29.15
570.755	27.15
570.878	22.15
571	42.15
571.123	31.15
571.246	44.15
571.368	34.15
571.491	28.15
571.613	23.15
571.736	15.15
571.859	27.15
571.981	21.15
572.104	14.15
572.226	29.15
572.349	31.15
572.472	24.15
572.594	36.15
572.717	26.15
572.839	4.15
572.962	8.15
573.085	25.15
573.207	28.15
573.33	38.15
573.452	40.15
573.575	38.15
573.697	35.15
573.82	34.15
573.943	21.15
574.065	35.15
574.188	31.15
574.31	46.15
574.433	37.15
574.555	46.15
574.678	16.15
574.801	35.15
574.923	22.15
575.046	36.15
575.168	30.15
575.291	40.15
575.413	35.15
575.536	23.15
575.659	54.15
575.781	42.15
575.904	46.15
576.026	64.15
576.149	77.15
576.271	134.15
576.394	204.15
576.516	543.15
576.639	3671.15
576.761	10177.15
576.884	8799.15
577.007	8762.15
577.129	8022.15
577.252	3710.15
577.374	1284.15
577.497	526.15
577.619	277.15
577.742	164.15
577.864	154.15
577.987	125.15
578.109	134.15
578.232	115.15
578.354	153.15
578.477	195.15
578.599	376.15
578.722	1963.15
578.844	9096.15
578.967	9840.15
579.089	8742.15
579.212	9138.15
579.334	5260.15
579.457	1895.15
579.579	731.15
579.702	336.15
579.824	197.15
579.947	121.15
580.069	114.15
580.192	82.15
580.314	94.15
580.437	73.15
580.559	86.15
580.682	60.15
580.804	52.15
580.927	51.15
581.049	71.15
581.172	50.15
581.294	62.15
581.417	55.15
581.539	52.15
581.662	54.15
581.784	60.15
581.907	43.15
582.029	30.15
582.152	24.15
582.274	39.15
582.396	29.15
582.519	36.15
582.641	25.15
582.764	29.15
582.886	44.15
583.009	42.15
583.131	7.15
583.254	34.15
583.376	50.15
583.499	32.15
583.621	40.15
583.743	55.15
583.866	23.15
583.988	36.15
584.111	38.15
584.233	40.15
584.356	36.15
584.478	19.15
584.601	9.15
584.723	31.15
584.845	29.15
584.968	12.15
585.09	8.15
585.213	28.15
585.335	36.15
585.458	15.15
585.58	27.15
585.702	56.15
585.825	35.15
585.947	23.15
586.07	13.15
586.192	8.15
586.315	29.15
586.437	22.15
586.559	15.15
586.682	22.15
586.804	38.15
586.927	17.15
587.049	20.15
587.171	29.15
587.294	39.15
587.416	36.15
587.539	12.15
587.661	22.15
587.783	28.15
587.906	20.15
588.028	43.15
588.151	43.15
588.273	42.15
588.395	20.15
588.518	32.15
588.64	18.15
588.763	60.15
588.885	41.15
589.007	28.15
589.13	8.15
589.252	12.15
589.375	44.15
589.497	40.15
589.619	31.15
589.742	20.15
589.864	42.15
589.986	21.15
590.109	4.15
590.231	16.15
590.354	40.15
590.476	21.15
590.598	21.15
590.721	17.15
590.843	30.15
590.965	13.15
591.088	22.15
591.21	19.15
591.332	39.15
591.455	17.15
591.577	1.15
591.7	21.15
591.822	16.15
591.944	31.15
592.067	20.15
592.189	27.15
592.311	27.15
592.434	22.15
592.556	22.15
592.678	23.15
592.801	37.15
592.923	32.15
593.045	21.15
593.168	24.15
593.29	28.15
593.412	40.15
593.535	30.15
593.657	50.15
593.779	36.15
593.902	37.15
594.024	35.15
594.146	42.15
594.269	25.15
594.391	4.15
594.513	23.15
594.636	22.15
594.758	6.15
594.88	27.15
595.003	26.15
595.125	15.15
595.247	30.15
595.37	43.15
595.492	5.15
595.614	42.15
595.737	32.15
595.859	25.15
595.981	18.15
596.104	38.15
596.226	18.15
596.348	8.15
596.471	8.15
596.593	26.15
596.715	25.15
596.838	25.15
596.96	18.15
597.082	19.15
597.204	8.15
597.327	22.15
597.449	31.15
597.571	23.15
597.694	38.15
597.816	15.15
597.938	24.15
598.061	18.15
598.183	9.15
598.305	36.15
598.427	26.15
598.55	10.15
598.672	30.15
598.794	33.15
598.917	7.15
599.039	19.15
599.161	36.15
599.283	16.15
599.406	29.15
599.528	35.15
599.65	50.15
599.773	29.15
599.895	34.15
600.017	29.15
600.139	22.15
600.262	7.15
600.384	10.15
600.506	28.15
600.628	33.15
600.751	31.15
600.873	12.15
600.995	23.15
601.118	42.15
601.24	23.15
601.362	23.15
601.484	35.15
601.607	32.15
601.729	23.15
601.851	22.15
601.973	19.15
602.096	20.15
602.218	22.15
602.34	22.15
602.462	31.15
602.585	29.15
602.707	19.15
602.829	38.15
602.951	28.15
603.074	8.15
603.196	33.15
603.318	13.15
603.44	37.15
603.563	14.15
603.685	25.15
603.807	24.15
603.929	18.15
604.052	20.15
604.174	30.15
604.296	12.15
604.418	24.15
604.541	46.15
604.663	6.15
604.785	10.15
604.907	22.15
605.03	15.15
605.152	44.15
605.274	27.15
605.396	20.15
605.519	1.15
605.641	7.15
605.763	18.15
605.885	14.15
606.008	11.15
606.13	42.15
606.252	29.15
606.374	17.15
606.496	-1.85
606.619	29.15
606.741	6.15
606.863	38.15
606.985	25.15
607.108	27.15
607.23	20.15
607.352	24.15
607.474	26.15
607.596	35.15
607.719	22.15
607.841	20.15
607.963	8.15
608.085	12.15
608.207	32.15
608.33	16.15
608.452	11.15
608.574	19.15
608.696	17.15
608.819	17.15
608.941	26.15
609.063	8.15
609.185	24.15
609.307	43.15
609.43	30.15
609.552	28.15
609.674	3.15
609.796	18.15
609.918	28.15
610.041	0.15
610.163	28.15
610.285	33.15
610.407	22.15
610.529	14.15
610.652	30.15
610.774	44.15
610.896	22.15
611.018	26.15
611.14	30.15
611.263	16.15
611.385	14.15
611.507	29.15
611.629	7.15
611.751	23.15
611.873	41.15
611.996	15.15
612.118	27.15
612.24	24.15
612.362	48.15
612.484	49.15
612.607	41.15
612.729	45.15
612.851	43.15
612.973	18.15
613.095	3.15
613.218	29.15
613.34	27.15
613.462	20.15
613.584	16.15
613.706	18.15
613.828	37.15
613.951	20.15
614.073	16.15
614.195	5.15
614.317	54.15
614.439	24.15
614.561	25.15
614.684	31.15
614.806	3.15
614.928	21.15
615.05	25.15
615.172	34.15
615.294	10.15
615.417	27.15
615.539	7.15
615.661	17.15
615.783	28.15
615.905	26.15
616.027	20.15
616.15	39.15
616.272	23.15
616.394	19.15
616.516	16.15
616.638	36.15
616.76	28.15
616.883	15.15
617.005	15.15
617.127	12.15
617.249	23.15
617.371	28.15
617.493	21.15
617.615	16.15
617.738	20.15
617.86	18.15
617.982	24.15
618.104	4.15
618.226	-0.85
618.348	4.15
618.471	25.15
618.593	21.15
618.715	18.15
618.837	30.15
618.959	35.15
619.081	24.15
619.203	33.15
619.326	23.15
619.448	36.15
619.57	26.15
619.692	25.15
619.814	40.15
619.936	30.15
620.058	29.15
620.181	14.15
620.303	21.15
620.425	22.15
620.547	24.15
620.669	6.15
620.791	15.15
620.913	11.15
621.036	15.15
621.158	20.15
621.28	20.15
621.402	-2.85
621.524	-1.85
621.646	23.15
621.768	7.15
621.891	-5.85
622.013	17.15
622.135	10.15
622.257	4.15
622.379	36.15
622.501	22.15
622.623	16.15
622.745	10.15
622.868	10.15
622.99	15.15
623.112	2.15
623.234	14.15
623.356	11.15
623.478	7.15
623.6	27.15
623.722	10.15
623.845	19.15
623.967	22.15
624.089	26.15
624.211	27.15
624.333	19.15
624.455	19.15
624.577	21.15
624.699	30.15
624.822	0.15
624.944	0.15
625.066	0.15
625.188	4.15
625.31	23.15
625.432	31.15
625.554	14.15
625.676	34.15
625.799	15.15
625.921	19.15
626.043	18.15
626.165	29.15
626.287	-13.85
626.409	38.15
626.531	23.15
626.653	-5.85
626.775	11.15
626.898	23.15
627.02	30.15
627.142	44.15
627.264	31.15
627.386	26.15
627.508	12.15
627.63	13.15
627.752	23.15
627.874	3.15
627.997	31.15
628.119	29.15
628.241	28.15
628.363	32.15
628.485	28.15
628.607	21.15
628.729	2.15
628.851	2.15
628.973	12.15
629.096	10.15
629.218	9.15
629.34	12.15
629.462	15.15
629.584	19.15
629.706	16.15
629.828	27.15
629.95	20.15
630.072	14.15
630.195	-1.85
630.317	27.15
630.439	-1.85
630.561	30.15
630.683	3.15
630.805	21.15
630.927	20.15
631.049	-2.85
631.171	13.15
631.293	14.15
631.416	16.15
631.538	19.15
631.66	15.15
631.782	13.15
631.904	34.15
632.026	10.15
632.148	24.15
632.27	5.15
632.392	19.15
632.514	19.15
632.637	23.15
632.759	13.15
632.881	3.15
633.003	17.15
633.125	-1.85
633.247	22.15
633.369	10.15
633.491	10.15
633.613	26.15
633.735	-7.85
633.858	15.15
633.98	14.15
634.102	4.15
634.224	6.15
634.346	11.15
634.468	8.15
634.59	10.15
634.712	17.15
634.834	11.15
634.956	11.15
635.078	7.15
635.201	14.15
635.323	11.15
635.445	11.15
635.567	2.15
635.689	18.15
635.811	15.15
635.933	13.15
636.055	32.15
636.177	13.15
636.299	28.15
636.421	4.15
636.544	-4.85
636.666	10.15
636.788	13.15
636.91	18.15
637.032	17.15
637.154	8.15
637.276	38.15
637.398	26.15
637.52	22.15
637.642	13.15
637.764	15.15
637.887	6.15
638.009	19.15
638.131	20.15
638.253	8.15
638.375	11.15
638.497	13.15
638.619	9.15
638.741	15.15
638.863	6.15
638.985	-2.85
639.107	10.15
639.23	13.15
639.352	14.15
639.474	16.15
639.596	35.15
639.718	0.15
639.84	8.15
639.962	5.15
640.084	32.15
640.206	27.15
640.328	3.15
640.45	19.15
640.573	16.15
640.695	3.15
640.817	6.15
640.939	20.15
641.061	15.15
641.183	11.15
641.305	-6.85
641.427	11.15
641.549	9.15
641.671	12.15
641.793	18.15
641.915	23.15
642.038	20.15
642.16	20.15
642.282	0.15
642.404	-1.85
642.526	13.15
642.648	19.15
642.77	20.15
642.892	9.15
643.014	43.15
643.136	20.15
643.258	18.15
643.381	15.15
643.503	37.15
643.625	15.15
643.747	-0.85
643.869	10.15
643.991	22.15
644.113	25.15
644.235	20.15
644.357	7.15
644.479	16.15
644.601	16.15
644.723	3.15
644.846	28.15
644.968	11.15
645.09	10.15
645.212	-5.85
645.334	21.15
645.456	7.15
645.578	22.15
645.7	13.15
645.822	26.15
645.944	14.15
646.066	10.15
646.188	19.15
646.311	12.15
646.433	0.15
646.555	39.15
646.677	35.15
646.799	12.15
646.921	6.15
647.043	33.15
647.165	26.15
647.287	12.15
647.409	7.15
647.531	31.15
647.654	13.15
647.776	7.15
647.898	15.15
648.02	15.15
648.142	0.15
648.264	14.15
648.386	6.15
648.508	7.15
648.63	-1.85
648.752	6.15
648.874	11.15
648.997	18.15
649.119	6.15
649.241	20.15
649.363	43.15
649.485	34.15
649.607	-11.85
649.729	-8.85
649.851	-0.85
649.973	2.15
650.095	24.15
650.217	2.15
650.34	14.15
650.462	37.15
650.584	9.15
650.706	20.15
650.828	12.15
650.95	-8.85
651.072	12.15
651.194	14.15
651.316	12.15
651.438	-0.85
651.56	19.15
651.683	-0.85
651.805	-1.85
651.927	19.15
652.049	10.15
652.171	6.15
652.293	-2.85
652.415	16.15
652.537	4.15
652.659	4.15
652.781	11.15
652.903	7.15
653.026	12.15
653.148	20.15
653.27	19.15
653.392	14.15
653.514	-0.85
653.636	-0.85
653.758	7.15
653.88	2.15
654.002	-12.85
654.124	2.15
654.247	8.15
654.369	14.15
654.491	-3.85
654.613	4.15
654.735	6.15
654.857	21.15
654.979	4.15
655.101	6.15
655.223	27.15
655.345	-3.85
655.468	4.15
655.59	9.15
655.712	26.15
655.834	11.15
655.956	6.15
656.078	11.15
656.2	19.15
656.322	0.15
656.444	-7.85
656.566	6.15
656.689	-15.85
656.811	5.15
656.933	22.15
657.055	-5.85
657.177	2.15
657.299	6.15
657.421	11.15
657.543	16.15
657.665	14.15
657.787	15.15
657.91	6.15
658.032	7.15
658.154	-3.85
658.276	-3.85
658.398	7.15
658.52	2.15
658.642	1.15
658.764	-7.85
658.886	-5.85
659.009	15.15
659.131	28.15
659.253	2.15
659.375	13.15
659.497	11.15
659.619	22.15
659.741	12.15
659.863	9.15
659.985	10.15
660.108	10.15
660.23	0.15
660.352	19.15
660.474	13.15
660.596	6.15
660.718	33.15
660.84	-2.85
660.962	16.15
661.084	-4.85
661.207	4.15
661.329	23.15
661.451	-0.85
661.573	9.15
661.695	28.15
661.817	18.15
661.939	26.15
662.061	15.15
662.184	15.15
662.306	3.15
662.428	3.15
662.55	40.15
662.672	13.15
662.794	2.15
662.916	13.15
663.038	14.15
663.161	20.15
663.283	18.15
663.405	14.15
663.527	0.15
663.649	16.15
663.771	15.15
663.893	11.15
664.015	20.15
664.138	10.15
664.26	17.15
664.382	24.15
664.504	-1.85
664.626	-12.85
664.748	-16.85
664.87	-9.85
664.992	18.15
665.115	30.15
665.237	5.15
665.359	-5.85
665.481	11.15
665.603	8.15
665.725	2.15
665.847	-8.85
665.97	5.15
666.092	18.15
666.214	22.15
666.336	4.15
666.458	30.15
666.58	18.15
666.702	6.15
666.825	-4.85
666.947	-3.85
667.069	5.15
667.191	7.15
667.313	16.15
667.435	0.15
667.557	-4.85
667.68	4.15
667.802	9.15
667.924	3.15
668.046	25.15
668.168	10.15
668.29	26.15
668.412	-9.85
668.535	16.15
668.657	6.15
668.779	7.15
668.901	14.15
669.023	24.15
669.145	12.15
669.267	23.15
669.39	6.15
669.512	2.15
669.634	6.15
669.756	2.15
669.878	7.15
670	19.15
670.123	3.15
670.245	32.15
670.367	10.15
670.489	18.15
670.611	7.15
670.733	2.15
670.856	3.15
670.978	18.15
671.1	16.15
671.222	0.15
671.344	8.15
671.466	8.15
671.589	1.15
671.711	-11.85
671.833	-16.85
671.955	10.15
672.077	-1.85
672.199	13.15
672.322	30.15
672.444	15.15
672.566	23.15
672.688	8.15
672.81	26.15
672.932	23.15
673.055	14.15
673.177	5.15
673.299	27.15
673.421	8.15
673.543	6.15
673.665	17.15
673.788	13.15
673.91	15.15
674.032	-7.85
674.154	-3.85
674.276	16.15
674.399	3.15
674.521	6.15
674.643	-0.85
674.765	6.15
674.887	10.15
675.009	-5.85
675.132	-6.85
675.254	5.15
675.376	11.15
675.498	9.15
675.62	20.15
675.743	8.15
675.865	9.15
675.987	4.15
676.109	5.15
676.231	6.15
676.354	21.15
676.476	9.15
676.598	19.15
676.72	17.15
676.842	30.15
676.965	6.15
677.087	-2.85
677.209	26.15
677.331	21.15
677.453	24.15
677.576	10.15
677.698	12.15
677.82	12.15
677.942	6.15
678.064	18.15
678.187	21.15
678.309	11.15
678.431	13.15
678.553	8.15
678.675	27.15
678.798	18.15
678.92	6.15
679.042	-6.85
679.164	-3.85
679.286	18.15
679.409	18.15
679.531	3.15
679.653	-5.85
679.775	6.15
679.898	1.15
680.02	3.15
680.142	8.15
680.264	24.15
680.386	-1.85
680.509	24.15
680.631	23.15
680.753	4.15
680.875	-8.85
680.998	6.15
681.12	19.15
681.242	12.15
681.364	13.15
681.486	12.15
681.609	-13.85
681.731	-3.85
681.853	-3.85
681.975	2.15
682.098	18.15
682.22	24.15
682.342	3.15
682.464	25.15
682.587	2.15
682.709	-1.85
682.831	6.15
682.953	0.15
683.076	2.15
683.198	-0.85
683.32	5.15
683.442	-1.85
683.565	12.15
683.687	-0.85
683.809	10.15
683.931	-27.85
684.054	27.15
684.176	18.15
684.298	18.15
684.42	4.15
684.543	5.15
684.665	5.15
684.787	2.15
684.909	0.15
685.032	22.15
685.154	-8.85
685.276	14.15
685.398	-18.85
685.521	13.15
685.643	-1.85
685.765	13.15
685.887	11.15
686.01	-4.85
686.132	8.15
686.254	11.15
686.377	14.15
686.499	8.15
686.621	16.15
686.743	21.15
686.866	10.15
686.988	36.15
687.11	22.15
687.232	6.15
687.355	-8.85
687.477	-8.85
687.599	2.15
687.722	3.15
687.844	9.15
687.966	17.15
688.088	19.15
688.211	36.15
688.333	22.15
688.455	9.15
688.578	14.15
688.7	25.15
688.822	14.15
688.944	4.15
689.067	48.15
689.189	-3.85
689.311	3.15
689.434	17.15
689.556	7.15
689.678	32.15
689.801	16.15
689.923	16.15
690.045	15.15
690.167	23.15
690.29	18.15
690.412	4.15
690.534	18.15
690.657	5.15
690.779	11.15
690.901	-1.85
691.024	0.15
691.146	4.15
691.268	3.15
691.391	26.15
691.513	20.15
691.635	8.15
691.758	41.15
691.88	20.15
692.002	-5.85
692.125	14.15
692.247	2.15
692.369	19.15
692.492	4.15
692.614	2.15
692.736	4.15
692.859	1.15
692.981	5.15
693.103	12.15
693.226	14.15
693.348	23.15
693.47	15.15
693.593	25.15
693.715	27.15
693.837	29.15
693.96	0.15
694.082	2.15
694.204	23.15
694.327	26.15
694.449	0.15
694.571	2.15
694.694	-3.85
694.816	8.15
694.938	2.15
695.061	20.15
695.183	34.15
695.305	-0.85
695.428	5.15
695.55	-3.85
695.672	8.15
695.795	27.15
695.917	14.15
696.04	10.15
696.162	0.15
696.284	-10.85
696.407	4.15
696.529	6.15
696.651	13.15
696.774	6.15
696.896	22.15
697.019	15.15
697.141	22.15
697.263	6.15
697.386	2.15
697.508	1.15
697.63	12.15
697.753	15.15
697.875	2.15
697.998	12.15
698.12	25.15
698.242	16.15
698.365	17.15
698.487	24.15
698.61	15.15
698.732	9.15
698.854	14.15
698.977	-0.85
699.099	9.15
699.221	0.15
699.344	1.15
699.466	21.15
699.589	6.15
699.711	3.15
699.834	6.15
699.956	12.15
700.078	7.15
700.201	-7.85
700.323	19.15
700.446	0.15
700.568	0.15
700.69	18.15
700.813	27.15
700.935	4.15
701.058	2.15
701.18	12.15
701.302	-3.85
701.425	-1.85
701.547	20.15
701.67	33.15
701.792	10.15
701.915	14.15
702.037	3.15
702.159	3.15
702.282	3.15
702.404	-2.85
702.527	10.15
702.649	14.15
702.772	23.15
702.894	23.15
703.017	18.15
703.139	23.15
703.261	29.15
703.384	10.15
703.506	0.15
703.629	21.15
703.751	6.15
703.874	13.15
703.996	-19.85
704.119	-1.85
704.241	8.15
704.364	-10.85
704.486	8.15
704.608	9.15
704.731	10.15
704.853	1.15
704.976	15.15
705.098	26.15
705.221	18.15
705.343	18.15
705.466	18.15
705.588	25.15
705.711	13.15
705.833	29.15
705.956	21.15
706.078	14.15
706.201	6.15
706.323	-5.85
706.446	16.15
