Data from LowRes_mercury_15_20_11_07_2024_HR4C61881__53__15-23-37-571.txt Node

Date: Thu Nov 07 15:23:37 EST 2024
User: crc00042
Spectrometer: HR4C6188
Trigger mode: 4
Integration Time (sec): 1.000000E-1
Scans to average: 1
Electric dark correction enabled: true
Nonlinearity correction enabled: false
Boxcar width: 0
XAxis mode: Wavelengths
Number of Pixels in Spectrum: 3648
>>>>>Begin Spectral Data<<<<<
245.66	-81.77
245.797	-81.77
245.934	-81.77
246.071	-82.77
246.208	12.23
246.344	-10.77
246.481	-13.77
246.618	12.23
246.755	21.23
246.892	-9.77
247.029	0.23
247.165	-16.77
247.302	3.23
247.439	6.23
247.576	15.23
247.713	-15.77
247.849	14.23
247.986	-5.77
248.123	-0.77
248.26	6.23
248.396	3.23
248.533	6.23
248.67	5.23
248.806	7.23
248.943	-9.77
249.08	2.23
249.216	9.23
249.353	-8.77
249.49	-12.77
249.626	4.23
249.763	-1.77
249.9	-10.77
250.036	4.23
250.173	17.23
250.309	2.23
250.446	-13.77
250.582	-7.77
250.719	-17.77
250.856	3.23
250.992	-2.77
251.129	7.23
251.265	-12.77
251.402	-4.77
251.538	-7.77
251.675	-6.77
251.811	12.23
251.948	27.23
252.084	-0.77
252.221	19.23
252.357	-9.77
252.493	22.23
252.63	1.23
252.766	2.23
252.903	-22.77
253.039	-13.77
253.175	2.23
253.312	8.23
253.448	-7.77
253.585	-10.77
253.721	11.23
253.857	-15.77
253.994	0.23
254.13	-18.77
254.266	11.23
254.403	-7.77
254.539	24.23
254.675	6.23
254.811	3.23
254.948	3.23
255.084	3.23
255.22	-1.77
255.356	-0.77
255.493	10.23
255.629	-2.77
255.765	2.23
255.901	18.23
256.037	5.23
256.174	5.23
256.31	-2.77
256.446	-17.77
256.582	-15.77
256.718	4.23
256.854	17.23
256.991	0.23
257.127	0.23
257.263	-8.77
257.399	1.23
257.535	-14.77
257.671	-15.77
257.807	-10.77
257.943	-17.77
258.079	-4.77
258.215	9.23
258.351	26.23
258.487	9.23
258.623	25.23
258.759	-18.77
258.895	8.23
259.031	-0.77
259.167	-11.77
259.303	-1.77
259.439	-4.77
259.575	-6.77
259.711	-6.77
259.847	-12.77
259.983	-11.77
260.119	-12.77
260.255	-0.77
260.391	11.23
260.527	-0.77
260.663	13.23
260.799	-1.77
260.934	2.23
261.07	-6.77
261.206	4.23
261.342	-20.77
261.478	7.23
261.614	19.23
261.749	6.23
261.885	9.23
262.021	-19.77
262.157	6.23
262.293	-20.77
262.428	2.23
262.564	11.23
262.7	13.23
262.836	-9.77
262.971	-2.77
263.107	-0.77
263.243	-7.77
263.378	-5.77
263.514	-13.77
263.65	-15.77
263.785	-23.77
263.921	-20.77
264.057	-3.77
264.192	2.23
264.328	16.23
264.464	-0.77
264.599	-10.77
264.735	14.23
264.871	7.23
265.006	2.23
265.142	-16.77
265.277	1.23
265.413	17.23
265.548	22.23
265.684	27.23
265.819	9.23
265.955	-12.77
266.091	-15.77
266.226	-7.77
266.362	-5.77
266.497	5.23
266.633	-14.77
266.768	-6.77
266.903	9.23
267.039	3.23
267.174	9.23
267.31	-1.77
267.445	-15.77
267.581	-5.77
267.716	24.23
267.851	-3.77
267.987	4.23
268.122	20.23
268.258	6.23
268.393	-20.77
268.528	18.23
268.664	-12.77
268.799	-12.77
268.934	-2.77
269.07	-16.77
269.205	6.23
269.34	21.23
269.476	-1.77
269.611	-17.77
269.746	16.23
269.881	10.23
270.017	18.23
270.152	6.23
270.287	5.23
270.422	23.23
270.558	-7.77
270.693	11.23
270.828	5.23
270.963	8.23
271.098	-19.77
271.234	-2.77
271.369	13.23
271.504	11.23
271.639	-9.77
271.774	-8.77
271.909	1.23
272.045	-12.77
272.18	9.23
272.315	-5.77
272.45	3.23
272.585	-3.77
272.72	-2.77
272.855	-3.77
272.99	3.23
273.125	-27.77
273.26	-16.77
273.395	-5.77
273.53	4.23
273.665	0.23
273.8	-0.77
273.935	10.23
274.07	-8.77
274.205	7.23
274.34	-4.77
274.475	4.23
274.61	19.23
274.745	-2.77
274.88	14.23
275.015	-19.77
275.15	22.23
275.285	3.23
275.42	-0.77
275.555	20.23
275.69	20.23
275.825	12.23
275.959	21.23
276.094	13.23
276.229	18.23
276.364	-13.77
276.499	11.23
276.634	12.23
276.768	6.23
276.903	-1.77
277.038	12.23
277.173	19.23
277.308	2.23
277.442	-17.77
277.577	-21.77
277.712	-8.77
277.847	-0.77
277.981	-5.77
278.116	-13.77
278.251	-5.77
278.386	5.23
278.52	26.23
278.655	14.23
278.79	-1.77
278.924	-11.77
279.059	13.23
279.194	-21.77
279.328	49.23
279.463	19.23
279.598	21.23
279.732	16.23
279.867	18.23
280.001	19.23
280.136	7.23
280.271	16.23
280.405	0.23
280.54	11.23
280.674	-7.77
280.809	26.23
280.943	11.23
281.078	3.23
281.213	30.23
281.347	20.23
281.482	12.23
281.616	12.23
281.751	12.23
281.885	-13.77
282.02	-12.77
282.154	8.23
282.288	-14.77
282.423	0.23
282.557	-7.77
282.692	-7.77
282.826	-3.77
282.961	3.23
283.095	-8.77
283.229	-8.77
283.364	-18.77
283.498	-5.77
283.633	-1.77
283.767	-2.77
283.901	-5.77
284.036	0.23
284.17	-1.77
284.304	-0.77
284.439	-2.77
284.573	7.23
284.707	7.23
284.842	0.23
284.976	-22.77
285.11	18.23
285.244	0.23
285.379	42.23
285.513	-16.77
285.647	5.23
285.781	4.23
285.916	12.23
286.05	1.23
286.184	16.23
286.318	4.23
286.453	-11.77
286.587	-14.77
286.721	-13.77
286.855	-7.77
286.989	13.23
287.123	-2.77
287.258	-2.77
287.392	-8.77
287.526	7.23
287.66	0.23
287.794	-7.77
287.928	1.23
288.062	1.23
288.196	3.23
288.33	16.23
288.464	15.23
288.598	3.23
288.733	7.23
288.867	9.23
289.001	-7.77
289.135	5.23
289.269	-4.77
289.403	11.23
289.537	-8.77
289.671	7.23
289.805	-1.77
289.939	-10.77
290.073	-0.77
290.207	11.23
290.34	14.23
290.474	25.23
290.608	-10.77
290.742	-6.77
290.876	-15.77
291.01	-1.77
291.144	-3.77
291.278	-0.77
291.412	7.23
291.546	-5.77
291.679	-15.77
291.813	-2.77
291.947	-0.77
292.081	12.23
292.215	-7.77
292.349	8.23
292.482	6.23
292.616	-18.77
292.75	-4.77
292.884	5.23
293.018	1.23
293.151	-23.77
293.285	15.23
293.419	-15.77
293.553	-11.77
293.686	-12.77
293.82	9.23
293.954	15.23
294.088	29.23
294.221	-2.77
294.355	-17.77
294.489	8.23
294.622	-16.77
294.756	0.23
294.89	21.23
295.023	1.23
295.157	0.23
295.291	-1.77
295.424	4.23
295.558	10.23
295.691	6.23
295.825	23.23
295.959	8.23
296.092	-17.77
296.226	3.23
296.359	3.23
296.493	12.23
296.627	5.23
296.76	6.23
296.894	-11.77
297.027	7.23
297.161	-3.77
297.294	2.23
297.428	19.23
297.561	12.23
297.695	-6.77
297.828	2.23
297.962	-13.77
298.095	-1.77
298.229	7.23
298.362	-19.77
298.495	-29.77
298.629	-7.77
298.762	5.23
298.896	-1.77
299.029	-18.77
299.162	-12.77
299.296	-6.77
299.429	-0.77
299.563	2.23
299.696	0.23
299.829	-16.77
299.963	9.23
300.096	4.23
300.229	8.23
300.363	3.23
300.496	15.23
300.629	-11.77
300.763	-2.77
300.896	-7.77
301.029	4.23
301.162	11.23
301.296	-19.77
301.429	-8.77
301.562	-33.77
301.695	0.23
301.829	25.23
301.962	27.23
302.095	9.23
302.228	-18.77
302.362	9.23
302.495	-22.77
302.628	-2.77
302.761	-2.77
302.894	-2.77
303.027	17.23
303.161	-4.77
303.294	-12.77
303.427	9.23
303.56	0.23
303.693	8.23
303.826	3.23
303.959	-8.77
304.092	12.23
304.225	-3.77
304.359	2.23
304.492	29.23
304.625	3.23
304.758	7.23
304.891	0.23
305.024	-6.77
305.157	-8.77
305.29	2.23
305.423	-3.77
305.556	13.23
305.689	26.23
305.822	-4.77
305.955	-4.77
306.088	-1.77
306.221	1.23
306.354	-0.77
306.487	-6.77
306.62	-10.77
306.752	-5.77
306.885	-8.77
307.018	3.23
307.151	30.23
307.284	15.23
307.417	-11.77
307.55	5.23
307.683	4.23
307.816	16.23
307.948	15.23
308.081	25.23
308.214	9.23
308.347	12.23
308.48	-17.77
308.613	0.23
308.745	6.23
308.878	-13.77
309.011	-14.77
309.144	-2.77
309.277	3.23
309.409	15.23
309.542	3.23
309.675	20.23
309.808	11.23
309.94	33.23
310.073	-7.77
310.206	5.23
310.339	14.23
310.471	-14.77
310.604	11.23
310.737	-23.77
310.869	-0.77
311.002	-6.77
311.135	2.23
311.267	-13.77
311.4	-6.77
311.533	19.23
311.665	-1.77
311.798	-11.77
311.93	3.23
312.063	39.23
312.196	28.23
312.328	62.23
312.461	60.23
312.593	35.23
312.726	46.23
312.859	92.23
312.991	170.23
313.124	56.23
313.256	13.23
313.389	1.23
313.521	-8.77
313.654	0.23
313.786	3.23
313.919	0.23
314.051	-4.77
314.184	14.23
314.316	7.23
314.449	-13.77
314.581	-10.77
314.714	-9.77
314.846	2.23
314.978	-16.77
315.111	-15.77
315.243	3.23
315.376	-0.77
315.508	13.23
315.641	-2.77
315.773	16.23
315.905	1.23
316.038	-7.77
316.17	0.23
316.302	13.23
316.435	3.23
316.567	15.23
316.699	29.23
316.832	-7.77
316.964	-3.77
317.096	1.23
317.229	-4.77
317.361	-21.77
317.493	0.23
317.625	-16.77
317.758	-16.77
317.89	25.23
318.022	-1.77
318.155	1.23
318.287	-8.77
318.419	13.23
318.551	5.23
318.683	7.23
318.816	-12.77
318.948	-0.77
319.08	-18.77
319.212	21.23
319.344	10.23
319.477	9.23
319.609	19.23
319.741	7.23
319.873	-21.77
320.005	-9.77
320.137	-6.77
320.269	-8.77
320.401	3.23
320.534	5.23
320.666	-20.77
320.798	-17.77
320.93	-1.77
321.062	-9.77
321.194	-20.77
321.326	-5.77
321.458	8.23
321.59	7.23
321.722	-0.77
321.854	-6.77
321.986	13.23
322.118	11.23
322.25	-7.77
322.382	-6.77
322.514	3.23
322.646	-9.77
322.778	26.23
322.91	8.23
323.042	4.23
323.174	-1.77
323.306	1.23
323.438	-7.77
323.57	-0.77
323.702	10.23
323.834	-1.77
323.966	-18.77
324.097	-4.77
324.229	16.23
324.361	22.23
324.493	15.23
324.625	1.23
324.757	19.23
324.889	-10.77
325.021	21.23
325.152	11.23
325.284	30.23
325.416	-10.77
325.548	2.23
325.68	-2.77
325.811	31.23
325.943	15.23
326.075	-12.77
326.207	16.23
326.339	13.23
326.47	-4.77
326.602	2.23
326.734	7.23
326.866	4.23
326.997	-11.77
327.129	-2.77
327.261	-3.77
327.392	-5.77
327.524	4.23
327.656	5.23
327.787	11.23
327.919	-5.77
328.051	17.23
328.182	14.23
328.314	28.23
328.446	6.23
328.577	18.23
328.709	9.23
328.841	-8.77
328.972	-3.77
329.104	-10.77
329.235	-7.77
329.367	9.23
329.499	-6.77
329.63	7.23
329.762	7.23
329.893	23.23
330.025	-4.77
330.156	-0.77
330.288	10.23
330.419	11.23
330.551	8.23
330.683	20.23
330.814	-10.77
330.946	32.23
331.077	3.23
331.208	-12.77
331.34	-18.77
331.471	-10.77
331.603	8.23
331.734	6.23
331.866	8.23
331.997	6.23
332.129	3.23
332.26	-2.77
332.392	15.23
332.523	-5.77
332.654	-7.77
332.786	-7.77
332.917	-11.77
333.048	20.23
333.18	25.23
333.311	-15.77
333.443	-1.77
333.574	12.23
333.705	39.23
333.837	42.23
333.968	114.23
334.099	222.23
334.231	189.23
334.362	43.23
334.493	20.23
334.624	31.23
334.756	15.23
334.887	19.23
335.018	17.23
335.15	24.23
335.281	11.23
335.412	10.23
335.543	23.23
335.675	10.23
335.806	-6.77
335.937	8.23
336.068	15.23
336.199	45.23
336.331	7.23
336.462	7.23
336.593	27.23
336.724	18.23
336.855	12.23
336.986	22.23
337.118	21.23
337.249	22.23
337.38	28.23
337.511	22.23
337.642	23.23
337.773	18.23
337.904	7.23
338.035	19.23
338.166	12.23
338.298	30.23
338.429	5.23
338.56	17.23
338.691	4.23
338.822	4.23
338.953	11.23
339.084	20.23
339.215	15.23
339.346	15.23
339.477	15.23
339.608	15.23
339.739	21.23
339.87	9.23
340.001	-0.77
340.132	39.23
340.263	10.23
340.394	37.23
340.525	14.23
340.656	11.23
340.787	-5.77
340.918	16.23
341.049	20.23
341.179	8.23
341.31	30.23
341.441	17.23
341.572	28.23
341.703	9.23
341.834	-11.77
341.965	7.23
342.096	18.23
342.227	4.23
342.357	16.23
342.488	20.23
342.619	13.23
342.75	-3.77
342.881	-5.77
343.012	38.23
343.142	25.23
343.273	16.23
343.404	3.23
343.535	56.23
343.666	30.23
343.796	53.23
343.927	45.23
344.058	34.23
344.189	35.23
344.319	30.23
344.45	18.23
344.581	26.23
344.712	-3.77
344.842	18.23
344.973	30.23
345.104	44.23
345.234	15.23
345.365	11.23
345.496	27.23
345.626	31.23
345.757	32.23
345.888	8.23
346.018	27.23
346.149	36.23
346.28	47.23
346.41	21.23
346.541	39.23
346.672	21.23
346.802	16.23
346.933	19.23
347.063	8.23
347.194	33.23
347.325	40.23
347.455	57.23
347.586	36.23
347.716	19.23
347.847	41.23
347.977	37.23
348.108	42.23
348.238	53.23
348.369	36.23
348.499	35.23
348.63	32.23
348.76	40.23
348.891	54.23
349.021	57.23
349.152	51.23
349.282	51.23
349.413	36.23
349.543	44.23
349.674	21.23
349.804	39.23
349.935	27.23
350.065	24.23
350.196	19.23
350.326	23.23
350.456	10.23
350.587	34.23
350.717	23.23
350.848	36.23
350.978	19.23
351.108	15.23
351.239	27.23
351.369	12.23
351.499	21.23
351.63	43.23
351.76	17.23
351.89	10.23
352.021	26.23
352.151	22.23
352.281	29.23
352.412	54.23
352.542	35.23
352.672	21.23
352.803	35.23
352.933	35.23
353.063	25.23
353.193	18.23
353.324	27.23
353.454	23.23
353.584	19.23
353.714	7.23
353.845	18.23
353.975	14.23
354.105	9.23
354.235	27.23
354.365	34.23
354.496	20.23
354.626	32.23
354.756	35.23
354.886	18.23
355.016	14.23
355.146	13.23
355.277	22.23
355.407	19.23
355.537	23.23
355.667	29.23
355.797	6.23
355.927	-2.77
356.057	17.23
356.187	24.23
356.318	22.23
356.448	15.23
356.578	18.23
356.708	40.23
356.838	6.23
356.968	25.23
357.098	28.23
357.228	42.23
357.358	35.23
357.488	35.23
357.618	47.23
357.748	43.23
357.878	27.23
358.008	16.23
358.138	12.23
358.268	19.23
358.398	40.23
358.528	22.23
358.658	25.23
358.788	23.23
358.918	11.23
359.048	6.23
359.178	46.23
359.308	21.23
359.438	29.23
359.568	26.23
359.698	45.23
359.827	29.23
359.957	38.23
360.087	23.23
360.217	17.23
360.347	43.23
360.477	20.23
360.607	1.23
360.737	19.23
360.866	10.23
360.996	20.23
361.126	16.23
361.256	47.23
361.386	40.23
361.516	29.23
361.645	7.23
361.775	45.23
361.905	13.23
362.035	35.23
362.165	36.23
362.294	51.23
362.424	56.23
362.554	52.23
362.684	38.23
362.813	25.23
362.943	62.23
363.073	52.23
363.203	63.23
363.332	63.23
363.462	70.23
363.592	82.23
363.721	119.23
363.851	160.23
363.981	198.23
364.111	240.23
364.24	320.23
364.37	501.23
364.5	860.23
364.629	1811.23
364.759	3880.23
364.888	6256.23
365.018	9365.23
365.148	14798.23
365.277	12952.23
365.407	4739.23
365.537	3095.23
365.666	3977.23
365.796	1827.23
365.925	804.23
366.055	748.23
366.184	1020.23
366.314	1369.23
366.444	2409.23
366.573	2070.23
366.703	643.23
366.832	205.23
366.962	117.23
367.091	90.23
367.221	87.23
367.35	65.23
367.48	82.23
367.609	41.23
367.739	47.23
367.868	35.23
367.998	47.23
368.127	43.23
368.257	66.23
368.386	65.23
368.516	48.23
368.645	30.23
368.775	33.23
368.904	52.23
369.033	15.23
369.163	39.23
369.292	46.23
369.422	45.23
369.551	49.23
369.68	33.23
369.81	48.23
369.939	28.23
370.069	54.23
370.198	40.23
370.327	40.23
370.457	32.23
370.586	47.23
370.715	28.23
370.845	5.23
370.974	24.23
371.103	38.23
371.233	40.23
371.362	51.23
371.491	43.23
371.621	60.23
371.75	57.23
371.879	43.23
372.008	41.23
372.138	35.23
372.267	68.23
372.396	43.23
372.525	28.23
372.655	20.23
372.784	23.23
372.913	24.23
373.042	21.23
373.172	47.23
373.301	7.23
373.43	7.23
373.559	24.23
373.688	11.23
373.818	23.23
373.947	25.23
374.076	10.23
374.205	28.23
374.334	18.23
374.463	-2.77
374.593	16.23
374.722	15.23
374.851	20.23
374.98	9.23
375.109	11.23
375.238	11.23
375.367	54.23
375.496	5.23
375.625	-5.77
375.755	33.23
375.884	14.23
376.013	32.23
376.142	18.23
376.271	13.23
376.4	32.23
376.529	13.23
376.658	20.23
376.787	28.23
376.916	31.23
377.045	20.23
377.174	23.23
377.303	19.23
377.432	37.23
377.561	41.23
377.69	5.23
377.819	40.23
377.948	14.23
378.077	5.23
378.206	16.23
378.335	32.23
378.464	14.23
378.593	32.23
378.722	-1.77
378.851	10.23
378.98	0.23
379.108	7.23
379.237	6.23
379.366	15.23
379.495	21.23
379.624	5.23
379.753	-1.77
379.882	25.23
380.011	18.23
380.14	-1.77
380.268	16.23
380.397	-9.77
380.526	30.23
380.655	18.23
380.784	12.23
380.913	0.23
381.041	7.23
381.17	2.23
381.299	14.23
381.428	23.23
381.557	27.23
381.685	13.23
381.814	8.23
381.943	11.23
382.072	14.23
382.2	4.23
382.329	24.23
382.458	18.23
382.587	28.23
382.715	40.23
382.844	10.23
382.973	10.23
383.102	24.23
383.23	19.23
383.359	0.23
383.488	29.23
383.616	22.23
383.745	-4.77
383.874	-2.77
384.003	6.23
384.131	4.23
384.26	9.23
384.389	15.23
384.517	8.23
384.646	5.23
384.774	21.23
384.903	39.23
385.032	33.23
385.16	33.23
385.289	11.23
385.418	11.23
385.546	19.23
385.675	21.23
385.803	17.23
385.932	28.23
386.06	9.23
386.189	8.23
386.318	24.23
386.446	24.23
386.575	36.23
386.703	23.23
386.832	24.23
386.96	15.23
387.089	15.23
387.217	20.23
387.346	8.23
387.474	19.23
387.603	21.23
387.731	22.23
387.86	28.23
387.988	22.23
388.117	28.23
388.245	17.23
388.374	7.23
388.502	26.23
388.631	7.23
388.759	10.23
388.888	15.23
389.016	10.23
389.144	6.23
389.273	24.23
389.401	16.23
389.53	8.23
389.658	19.23
389.786	8.23
389.915	15.23
390.043	9.23
390.172	20.23
390.3	25.23
390.428	33.23
390.557	24.23
390.685	39.23
390.813	42.23
390.942	42.23
391.07	26.23
391.198	24.23
391.327	23.23
391.455	12.23
391.583	41.23
391.712	29.23
391.84	32.23
391.968	21.23
392.096	15.23
392.225	7.23
392.353	34.23
392.481	29.23
392.609	33.23
392.738	30.23
392.866	40.23
392.994	6.23
393.122	34.23
393.251	23.23
393.379	11.23
393.507	2.23
393.635	10.23
393.764	26.23
393.892	32.23
394.02	22.23
394.148	16.23
394.276	26.23
394.404	34.23
394.533	9.23
394.661	24.23
394.789	38.23
394.917	34.23
395.045	10.23
395.173	15.23
395.302	7.23
395.43	24.23
395.558	31.23
395.686	35.23
395.814	37.23
395.942	25.23
396.07	32.23
396.198	42.23
396.326	23.23
396.454	28.23
396.582	44.23
396.711	16.23
396.839	35.23
396.967	32.23
397.095	16.23
397.223	31.23
397.351	61.23
397.479	39.23
397.607	18.23
397.735	49.23
397.863	61.23
397.991	48.23
398.119	51.23
398.247	61.23
398.375	51.23
398.503	46.23
398.631	36.23
398.759	65.23
398.887	54.23
399.015	36.23
399.143	45.23
399.271	72.23
399.399	81.23
399.526	64.23
399.654	84.23
399.782	58.23
399.91	90.23
400.038	95.23
400.166	67.23
400.294	86.23
400.422	95.23
400.55	108.23
400.678	111.23
400.805	109.23
400.933	94.23
401.061	117.23
401.189	105.23
401.317	143.23
401.445	126.23
401.573	83.23
401.7	53.23
401.828	48.23
401.956	47.23
402.084	47.23
402.212	33.23
402.34	23.23
402.467	37.23
402.595	47.23
402.723	45.23
402.851	48.23
402.978	53.23
403.106	74.23
403.234	93.23
403.362	105.23
403.489	115.23
403.617	143.23
403.745	195.23
403.873	275.23
404	522.23
404.128	1433.23
404.256	3871.23
404.384	5046.23
404.511	5401.23
404.639	7118.23
404.767	11340.23
404.894	14590.23
405.022	4901.23
405.15	1293.23
405.277	409.23
405.405	239.23
405.533	135.23
405.66	109.23
405.788	55.23
405.916	56.23
406.043	55.23
406.171	69.23
406.299	64.23
406.426	53.23
406.554	60.23
406.681	72.23
406.809	64.23
406.937	75.23
407.064	80.23
407.192	150.23
407.319	300.23
407.447	510.23
407.574	523.23
407.702	619.23
407.83	863.23
407.957	1613.23
408.085	924.23
408.212	293.23
408.34	115.23
408.467	53.23
408.595	39.23
408.722	53.23
408.85	55.23
408.977	22.23
409.105	30.23
409.232	44.23
409.36	46.23
409.487	32.23
409.615	37.23
409.742	45.23
409.87	34.23
409.997	17.23
410.125	30.23
410.252	41.23
410.379	16.23
410.507	44.23
410.634	30.23
410.762	26.23
410.889	47.23
411.017	39.23
411.144	41.23
411.271	30.23
411.399	39.23
411.526	18.23
411.653	31.23
411.781	39.23
411.908	27.23
412.036	10.23
412.163	47.23
412.29	48.23
412.418	-0.77
412.545	35.23
412.672	10.23
412.8	46.23
412.927	40.23
413.054	44.23
413.182	25.23
413.309	30.23
413.436	5.23
413.564	13.23
413.691	20.23
413.818	37.23
413.945	19.23
414.073	21.23
414.2	49.23
414.327	32.23
414.454	30.23
414.582	24.23
414.709	20.23
414.836	21.23
414.963	17.23
415.091	30.23
415.218	23.23
415.345	25.23
415.472	26.23
415.6	44.23
415.727	46.23
415.854	29.23
415.981	10.23
416.108	28.23
416.236	22.23
416.363	36.23
416.49	25.23
416.617	12.23
416.744	36.23
416.871	39.23
416.998	7.23
417.126	22.23
417.253	9.23
417.38	30.23
417.507	37.23
417.634	31.23
417.761	40.23
417.888	42.23
418.015	30.23
418.143	39.23
418.27	56.23
418.397	28.23
418.524	42.23
418.651	44.23
418.778	31.23
418.905	63.23
419.032	53.23
419.159	49.23
419.286	63.23
419.413	55.23
419.54	54.23
419.667	32.23
419.794	13.23
419.921	31.23
420.048	34.23
420.175	47.23
420.302	34.23
420.429	44.23
420.556	43.23
420.683	42.23
420.81	64.23
420.937	61.23
421.064	87.23
421.191	57.23
421.318	60.23
421.445	79.23
421.572	56.23
421.699	54.23
421.826	51.23
421.953	35.23
422.08	25.23
422.207	13.23
422.334	4.23
422.461	39.23
422.588	34.23
422.714	35.23
422.841	42.23
422.968	40.23
423.095	22.23
423.222	-3.77
423.349	0.23
423.476	11.23
423.603	15.23
423.729	9.23
423.856	5.23
423.983	26.23
424.11	27.23
424.237	28.23
424.364	32.23
424.491	21.23
424.617	2.23
424.744	27.23
424.871	22.23
424.998	27.23
425.125	31.23
425.251	19.23
425.378	7.23
425.505	4.23
425.632	19.23
425.758	11.23
425.885	15.23
426.012	31.23
426.139	53.23
426.266	35.23
426.392	30.23
426.519	34.23
426.646	25.23
426.772	42.23
426.899	31.23
427.026	29.23
427.153	16.23
427.279	26.23
427.406	26.23
427.533	6.23
427.659	18.23
427.786	15.23
427.913	34.23
428.039	16.23
428.166	26.23
428.293	35.23
428.419	34.23
428.546	6.23
428.673	-3.77
428.799	5.23
428.926	15.23
429.053	46.23
429.179	22.23
429.306	25.23
429.433	29.23
429.559	41.23
429.686	2.23
429.812	18.23
429.939	15.23
430.066	30.23
430.192	-4.77
430.319	20.23
430.445	34.23
430.572	15.23
430.699	9.23
430.825	21.23
430.952	40.23
431.078	22.23
431.205	32.23
431.331	18.23
431.458	24.23
431.584	37.23
431.711	11.23
431.837	20.23
431.964	21.23
432.09	18.23
432.217	-13.77
432.343	3.23
432.47	18.23
432.596	16.23
432.723	13.23
432.849	26.23
432.976	36.23
433.102	48.23
433.229	31.23
433.355	68.23
433.482	84.23
433.608	91.23
433.735	90.23
433.861	124.23
433.987	171.23
434.114	203.23
434.24	178.23
434.367	204.23
434.493	201.23
434.62	285.23
434.746	382.23
434.872	620.23
434.999	833.23
435.125	1748.23
435.252	5478.23
435.378	13334.23
435.504	15158.23
435.631	15392.23
435.757	15681.23
435.883	15681.23
436.01	15681.23
436.136	15681.23
436.262	15681.23
436.389	3423.23
436.515	1983.23
436.641	771.23
436.768	620.23
436.894	386.23
437.02	417.23
437.147	309.23
437.273	296.23
437.399	227.23
437.526	234.23
437.652	164.23
437.778	183.23
437.904	131.23
438.031	145.23
438.157	135.23
438.283	162.23
438.409	109.23
438.536	128.23
438.662	137.23
438.788	134.23
438.914	112.23
439.041	115.23
439.167	112.23
439.293	100.23
439.419	86.23
439.546	104.23
439.672	82.23
439.798	107.23
439.924	94.23
440.05	86.23
440.177	88.23
440.303	78.23
440.429	48.23
440.555	82.23
440.681	62.23
440.807	61.23
440.934	46.23
441.06	59.23
441.186	68.23
441.312	56.23
441.438	63.23
441.564	63.23
441.69	70.23
441.816	63.23
441.943	41.23
442.069	54.23
442.195	47.23
442.321	54.23
442.447	20.23
442.573	46.23
442.699	23.23
442.825	23.23
442.951	46.23
443.077	50.23
443.203	55.23
443.33	43.23
443.456	39.23
443.582	45.23
443.708	47.23
443.834	50.23
443.96	40.23
444.086	43.23
444.212	49.23
444.338	52.23
444.464	67.23
444.59	40.23
444.716	41.23
444.842	43.23
444.968	9.23
445.094	48.23
445.22	18.23
445.346	22.23
445.472	30.23
445.598	27.23
445.724	48.23
445.85	50.23
445.976	34.23
446.102	46.23
446.228	51.23
446.354	45.23
446.48	30.23
446.605	16.23
446.731	33.23
446.857	30.23
446.983	28.23
447.109	38.23
447.235	32.23
447.361	29.23
447.487	48.23
447.613	38.23
447.739	36.23
447.865	19.23
447.99	12.23
448.116	38.23
448.242	36.23
448.368	29.23
448.494	13.23
448.62	22.23
448.746	30.23
448.872	30.23
448.997	20.23
449.123	17.23
449.249	32.23
449.375	50.23
449.501	15.23
449.627	24.23
449.752	35.23
449.878	12.23
450.004	3.23
450.13	8.23
450.256	11.23
450.381	18.23
450.507	49.23
450.633	20.23
450.759	44.23
450.884	26.23
451.01	42.23
451.136	27.23
451.262	27.23
451.388	38.23
451.513	14.23
451.639	31.23
451.765	31.23
451.89	45.23
452.016	22.23
452.142	28.23
452.268	29.23
452.393	12.23
452.519	11.23
452.645	19.23
452.771	35.23
452.896	16.23
453.022	11.23
453.148	50.23
453.273	27.23
453.399	22.23
453.525	7.23
453.65	1.23
453.776	27.23
453.902	31.23
454.027	39.23
454.153	32.23
454.279	44.23
454.404	3.23
454.53	48.23
454.656	41.23
454.781	26.23
454.907	11.23
455.032	37.23
455.158	51.23
455.284	42.23
455.409	14.23
455.535	11.23
455.66	27.23
455.786	23.23
455.912	23.23
456.037	7.23
456.163	26.23
456.288	33.23
456.414	21.23
456.539	10.23
456.665	38.23
456.791	12.23
456.916	9.23
457.042	7.23
457.167	10.23
457.293	15.23
457.418	22.23
457.544	23.23
457.669	37.23
457.795	13.23
457.92	10.23
458.046	21.23
458.171	37.23
458.297	30.23
458.422	15.23
458.548	2.23
458.673	43.23
458.799	13.23
458.924	11.23
459.05	22.23
459.175	18.23
459.301	26.23
459.426	36.23
459.552	39.23
459.677	21.23
459.803	39.23
459.928	41.23
460.053	33.23
460.179	29.23
460.304	32.23
460.43	19.23
460.555	19.23
460.681	7.23
460.806	24.23
460.931	11.23
461.057	30.23
461.182	23.23
461.308	40.23
461.433	26.23
461.558	10.23
461.684	29.23
461.809	31.23
461.934	46.23
462.06	43.23
462.185	7.23
462.311	16.23
462.436	19.23
462.561	31.23
462.687	1.23
462.812	25.23
462.937	15.23
463.063	23.23
463.188	14.23
463.313	19.23
463.439	7.23
463.564	11.23
463.689	20.23
463.814	32.23
463.94	26.23
464.065	21.23
464.19	29.23
464.316	22.23
464.441	14.23
464.566	3.23
464.692	9.23
464.817	10.23
464.942	18.23
465.067	19.23
465.193	2.23
465.318	30.23
465.443	38.23
465.568	20.23
465.694	5.23
465.819	34.23
465.944	32.23
466.069	18.23
466.194	24.23
466.32	23.23
466.445	41.23
466.57	41.23
466.695	32.23
466.82	21.23
466.946	40.23
467.071	39.23
467.196	35.23
467.321	46.23
467.446	27.23
467.572	23.23
467.697	20.23
467.822	33.23
467.947	21.23
468.072	11.23
468.197	19.23
468.323	33.23
468.448	41.23
468.573	19.23
468.698	48.23
468.823	20.23
468.948	32.23
469.073	23.23
469.198	38.23
469.324	35.23
469.449	33.23
469.574	38.23
469.699	38.23
469.824	40.23
469.949	8.23
470.074	30.23
470.199	27.23
470.324	48.23
470.449	60.23
470.574	29.23
470.7	43.23
470.825	35.23
470.95	27.23
471.075	26.23
471.2	49.23
471.325	47.23
471.45	43.23
471.575	25.23
471.7	28.23
471.825	24.23
471.95	45.23
472.075	16.23
472.2	30.23
472.325	15.23
472.45	20.23
472.575	33.23
472.7	26.23
472.825	38.23
472.95	25.23
473.075	24.23
473.2	22.23
473.325	35.23
473.45	38.23
473.575	28.23
473.7	24.23
473.825	24.23
473.95	33.23
474.075	35.23
474.2	19.23
474.325	22.23
474.45	29.23
474.574	25.23
474.699	29.23
474.824	28.23
474.949	13.23
475.074	7.23
475.199	20.23
475.324	18.23
475.449	10.23
475.574	22.23
475.699	20.23
475.824	6.23
475.949	16.23
476.073	2.23
476.198	9.23
476.323	23.23
476.448	25.23
476.573	10.23
476.698	31.23
476.823	18.23
476.947	19.23
477.072	19.23
477.197	10.23
477.322	10.23
477.447	0.23
477.572	18.23
477.697	8.23
477.821	2.23
477.946	34.23
478.071	11.23
478.196	28.23
478.321	20.23
478.445	9.23
478.57	-2.77
478.695	4.23
478.82	35.23
478.945	27.23
479.069	31.23
479.194	21.23
479.319	14.23
479.444	26.23
479.569	16.23
479.693	30.23
479.818	15.23
479.943	24.23
480.068	24.23
480.192	29.23
480.317	27.23
480.442	23.23
480.567	26.23
480.691	20.23
480.816	22.23
480.941	16.23
481.066	14.23
481.19	14.23
481.315	13.23
481.44	12.23
481.564	17.23
481.689	26.23
481.814	24.23
481.938	28.23
482.063	3.23
482.188	-2.77
482.313	34.23
482.437	12.23
482.562	22.23
482.687	31.23
482.811	11.23
482.936	15.23
483.061	15.23
483.185	11.23
483.31	27.23
483.435	13.23
483.559	22.23
483.684	14.23
483.808	45.23
483.933	19.23
484.058	26.23
484.182	20.23
484.307	22.23
484.432	30.23
484.556	17.23
484.681	29.23
484.805	29.23
484.93	13.23
485.055	-0.77
485.179	61.23
485.304	32.23
485.428	34.23
485.553	15.23
485.678	7.23
485.802	13.23
485.927	45.23
486.051	36.23
486.176	30.23
486.3	4.23
486.425	11.23
486.549	21.23
486.674	47.23
486.799	30.23
486.923	10.23
487.048	14.23
487.172	1.23
487.297	20.23
487.421	27.23
487.546	18.23
487.67	39.23
487.795	11.23
487.919	24.23
488.044	32.23
488.168	20.23
488.293	32.23
488.417	11.23
488.542	43.23
488.666	47.23
488.791	28.23
488.915	19.23
489.04	34.23
489.164	33.23
489.289	29.23
489.413	14.23
489.538	13.23
489.662	26.23
489.786	7.23
489.911	6.23
490.035	11.23
490.16	14.23
490.284	20.23
490.409	6.23
490.533	23.23
490.658	37.23
490.782	30.23
490.906	46.23
491.031	100.23
491.155	125.23
491.28	150.23
491.404	175.23
491.528	253.23
491.653	159.23
491.777	76.23
491.902	27.23
492.026	38.23
492.15	22.23
492.275	40.23
492.399	26.23
492.524	18.23
492.648	34.23
492.772	31.23
492.897	21.23
493.021	14.23
493.145	37.23
493.27	27.23
493.394	26.23
493.518	13.23
493.643	2.23
493.767	10.23
493.891	19.23
494.016	16.23
494.14	12.23
494.264	24.23
494.389	36.23
494.513	14.23
494.637	7.23
494.762	25.23
494.886	31.23
495.01	1.23
495.134	29.23
495.259	23.23
495.383	19.23
495.507	16.23
495.632	36.23
495.756	32.23
495.88	29.23
496.004	20.23
496.129	10.23
496.253	9.23
496.377	11.23
496.501	26.23
496.626	15.23
496.75	23.23
496.874	12.23
496.998	13.23
497.123	25.23
497.247	33.23
497.371	7.23
497.495	8.23
497.62	29.23
497.744	15.23
497.868	-0.77
497.992	13.23
498.116	14.23
498.241	11.23
498.365	15.23
498.489	-3.77
498.613	33.23
498.737	20.23
498.862	7.23
498.986	-6.77
499.11	-4.77
499.234	20.23
499.358	17.23
499.482	19.23
499.607	27.23
499.731	31.23
499.855	36.23
499.979	18.23
500.103	-4.77
500.227	23.23
500.351	22.23
500.476	19.23
500.6	16.23
500.724	22.23
500.848	20.23
500.972	32.23
501.096	12.23
501.22	31.23
501.344	15.23
501.469	6.23
501.593	17.23
501.717	40.23
501.841	20.23
501.965	25.23
502.089	14.23
502.213	26.23
502.337	23.23
502.461	8.23
502.585	24.23
502.709	31.23
502.834	22.23
502.958	22.23
503.082	15.23
503.206	13.23
503.33	23.23
503.454	30.23
503.578	21.23
503.702	33.23
503.826	20.23
503.95	14.23
504.074	18.23
504.198	8.23
504.322	0.23
504.446	12.23
504.57	20.23
504.694	20.23
504.818	13.23
504.942	36.23
505.066	19.23
505.19	38.23
505.314	28.23
505.438	27.23
505.562	17.23
505.686	20.23
505.81	15.23
505.934	22.23
506.058	24.23
506.182	37.23
506.306	23.23
506.43	2.23
506.554	27.23
506.678	15.23
506.802	14.23
506.926	20.23
507.05	40.23
507.174	37.23
507.298	44.23
507.422	28.23
507.546	30.23
507.67	35.23
507.794	-0.77
507.918	7.23
508.042	31.23
508.165	-0.77
508.289	15.23
508.413	36.23
508.537	9.23
508.661	28.23
508.785	31.23
508.909	31.23
509.033	27.23
509.157	22.23
509.281	31.23
509.405	33.23
509.528	46.23
509.652	42.23
509.776	24.23
509.9	53.23
510.024	28.23
510.148	35.23
510.272	57.23
510.396	36.23
510.519	29.23
510.643	51.23
510.767	52.23
510.891	32.23
511.015	50.23
511.139	55.23
511.263	53.23
511.386	38.23
511.51	25.23
511.634	41.23
511.758	36.23
511.882	36.23
512.006	35.23
512.129	57.23
512.253	67.23
512.377	72.23
512.501	86.23
512.625	72.23
512.748	92.23
512.872	62.23
512.996	45.23
513.12	55.23
513.244	41.23
513.367	69.23
513.491	58.23
513.615	60.23
513.739	74.23
513.862	78.23
513.986	80.23
514.11	102.23
514.234	79.23
514.358	89.23
514.481	102.23
514.605	101.23
514.729	110.23
514.853	126.23
514.976	89.23
515.1	83.23
515.224	113.23
515.348	84.23
515.471	78.23
515.595	110.23
515.719	132.23
515.842	229.23
515.966	285.23
516.09	298.23
516.214	323.23
516.337	328.23
516.461	237.23
516.585	91.23
516.708	26.23
516.832	23.23
516.956	15.23
517.08	14.23
517.203	0.23
517.327	22.23
517.451	39.23
517.574	34.23
517.698	11.23
517.822	17.23
517.945	24.23
518.069	32.23
518.193	46.23
518.316	34.23
518.44	28.23
518.564	6.23
518.687	13.23
518.811	20.23
518.935	29.23
519.058	8.23
519.182	11.23
519.306	20.23
519.429	10.23
519.553	41.23
519.676	26.23
519.8	12.23
519.924	7.23
520.047	22.23
520.171	19.23
520.294	14.23
520.418	26.23
520.542	32.23
520.665	36.23
520.789	12.23
520.913	3.23
521.036	14.23
521.16	16.23
521.283	12.23
521.407	24.23
521.53	6.23
521.654	-18.77
521.778	38.23
521.901	8.23
522.025	7.23
522.148	16.23
522.272	34.23
522.395	18.23
522.519	22.23
522.643	0.23
522.766	15.23
522.89	5.23
523.013	30.23
523.137	-9.77
523.26	13.23
523.384	22.23
523.507	10.23
523.631	11.23
523.754	-4.77
523.878	27.23
524.002	15.23
524.125	6.23
524.249	11.23
524.372	18.23
524.496	10.23
524.619	18.23
524.743	19.23
524.866	2.23
524.99	13.23
525.113	13.23
525.237	14.23
525.36	3.23
525.484	25.23
525.607	10.23
525.731	4.23
525.854	14.23
525.978	30.23
526.101	10.23
526.224	5.23
526.348	3.23
526.471	9.23
526.595	16.23
526.718	-0.77
526.842	23.23
526.965	18.23
527.089	8.23
527.212	15.23
527.336	15.23
527.459	16.23
527.582	8.23
527.706	30.23
527.829	16.23
527.953	7.23
528.076	9.23
528.2	13.23
528.323	11.23
528.446	31.23
528.57	7.23
528.693	18.23
528.817	17.23
528.94	19.23
529.064	41.23
529.187	20.23
529.31	16.23
529.434	12.23
529.557	14.23
529.68	8.23
529.804	10.23
529.927	22.23
530.051	14.23
530.174	4.23
530.297	22.23
530.421	28.23
530.544	42.23
530.668	29.23
530.791	3.23
530.914	20.23
531.038	18.23
531.161	20.23
531.284	16.23
531.408	31.23
531.531	10.23
531.654	25.23
531.778	27.23
531.901	8.23
532.024	16.23
532.148	10.23
532.271	15.23
532.394	6.23
532.518	12.23
532.641	17.23
532.764	26.23
532.888	17.23
533.011	5.23
533.134	12.23
533.258	36.23
533.381	6.23
533.504	7.23
533.628	12.23
533.751	40.23
533.874	14.23
533.997	17.23
534.121	18.23
534.244	12.23
534.367	10.23
534.491	27.23
534.614	22.23
534.737	29.23
534.86	19.23
534.984	15.23
535.107	38.23
535.23	29.23
535.354	6.23
535.477	7.23
535.6	10.23
535.723	21.23
535.847	22.23
535.97	16.23
536.093	32.23
536.216	-0.77
536.34	35.23
536.463	23.23
536.586	28.23
536.709	37.23
536.833	10.23
536.956	11.23
537.079	-0.77
537.202	22.23
537.325	2.23
537.449	18.23
537.572	31.23
537.695	7.23
537.818	29.23
537.941	4.23
538.065	14.23
538.188	26.23
538.311	36.23
538.434	21.23
538.558	11.23
538.681	24.23
538.804	26.23
538.927	29.23
539.05	15.23
539.173	21.23
539.297	5.23
539.42	11.23
539.543	18.23
539.666	44.23
539.789	1.23
539.913	19.23
540.036	4.23
540.159	16.23
540.282	9.23
540.405	4.23
540.528	23.23
540.651	19.23
540.775	13.23
540.898	37.23
541.021	25.23
541.144	34.23
541.267	38.23
541.39	24.23
541.513	29.23
541.637	25.23
541.76	12.23
541.883	14.23
542.006	20.23
542.129	69.23
542.252	39.23
542.375	39.23
542.498	47.23
542.622	43.23
542.745	51.23
542.868	64.23
542.991	41.23
543.114	54.23
543.237	63.23
543.36	75.23
543.483	44.23
543.606	54.23
543.73	71.23
543.853	66.23
543.976	91.23
544.099	114.23
544.222	134.23
544.345	119.23
544.468	156.23
544.591	220.23
544.714	277.23
544.837	331.23
544.96	435.23
545.083	631.23
545.206	1078.23
545.329	2375.23
545.453	10894.23
545.576	15250.23
545.699	15681.23
545.822	15681.23
545.945	15681.23
546.068	15681.23
546.191	15681.23
546.314	15681.23
546.437	15681.23
546.56	15681.23
546.683	15681.23
546.806	15681.23
546.929	15681.23
547.052	15681.23
547.175	15681.23
547.298	15681.23
547.421	15681.23
547.544	15681.23
547.667	3476.23
547.79	2191.23
547.913	969.23
548.036	871.23
548.159	643.23
548.282	617.23
548.405	474.23
548.528	450.23
548.651	392.23
548.774	396.23
548.897	350.23
549.02	353.23
549.143	298.23
549.266	296.23
549.389	269.23
549.512	268.23
549.635	231.23
549.758	248.23
549.881	197.23
550.004	202.23
550.127	205.23
550.25	196.23
550.373	170.23
550.496	186.23
550.619	158.23
550.742	139.23
550.865	120.23
550.988	150.23
551.111	149.23
551.234	157.23
551.356	125.23
551.479	119.23
551.602	118.23
551.725	123.23
551.848	120.23
551.971	140.23
552.094	120.23
552.217	116.23
552.34	106.23
552.463	95.23
552.586	123.23
552.709	100.23
552.832	99.23
552.955	104.23
553.077	117.23
553.2	105.23
553.323	78.23
553.446	104.23
553.569	86.23
553.692	109.23
553.815	107.23
553.938	110.23
554.061	92.23
554.184	88.23
554.306	71.23
554.429	87.23
554.552	74.23
554.675	82.23
554.798	88.23
554.921	86.23
555.044	82.23
555.167	68.23
555.29	59.23
555.412	59.23
555.535	88.23
555.658	75.23
555.781	73.23
555.904	67.23
556.027	72.23
556.15	85.23
556.272	86.23
556.395	69.23
556.518	59.23
556.641	82.23
556.764	73.23
556.887	70.23
557.01	68.23
557.132	52.23
557.255	66.23
557.378	70.23
557.501	58.23
557.624	58.23
557.747	72.23
557.869	78.23
557.992	84.23
558.115	93.23
558.238	65.23
558.361	71.23
558.483	82.23
558.606	70.23
558.729	44.23
558.852	69.23
558.975	57.23
559.098	69.23
559.22	61.23
559.343	45.23
559.466	53.23
559.589	44.23
559.712	44.23
559.834	54.23
559.957	42.23
560.08	44.23
560.203	45.23
560.325	74.23
560.448	70.23
560.571	51.23
560.694	50.23
560.817	65.23
560.939	48.23
561.062	50.23
561.185	64.23
561.308	51.23
561.43	46.23
561.553	53.23
561.676	53.23
561.799	68.23
561.921	55.23
562.044	53.23
562.167	42.23
562.29	78.23
562.413	67.23
562.535	64.23
562.658	43.23
562.781	54.23
562.903	56.23
563.026	103.23
563.149	133.23
563.272	115.23
563.394	120.23
563.517	110.23
563.64	78.23
563.763	48.23
563.885	45.23
564.008	45.23
564.131	37.23
564.254	38.23
564.376	34.23
564.499	28.23
564.622	51.23
564.744	46.23
564.867	28.23
564.99	28.23
565.113	38.23
565.235	42.23
565.358	24.23
565.481	21.23
565.603	31.23
565.726	17.23
565.849	29.23
565.971	36.23
566.094	32.23
566.217	32.23
566.34	13.23
566.462	47.23
566.585	44.23
566.708	68.23
566.83	50.23
566.953	49.23
567.076	47.23
567.198	37.23
567.321	30.23
567.444	45.23
567.566	32.23
567.689	37.23
567.812	15.23
567.934	38.23
568.057	43.23
568.18	37.23
568.302	34.23
568.425	18.23
568.548	48.23
568.67	39.23
568.793	43.23
568.916	26.23
569.038	32.23
569.161	29.23
569.283	37.23
569.406	35.23
569.529	22.23
569.651	30.23
569.774	12.23
569.897	19.23
570.019	54.23
570.142	53.23
570.265	37.23
570.387	34.23
570.51	31.23
570.632	52.23
570.755	7.23
570.878	23.23
571	31.23
571.123	22.23
571.246	40.23
571.368	15.23
571.491	32.23
571.613	27.23
571.736	8.23
571.859	30.23
571.981	18.23
572.104	10.23
572.226	21.23
572.349	6.23
572.472	26.23
572.594	28.23
572.717	47.23
572.839	30.23
572.962	39.23
573.085	24.23
573.207	32.23
573.33	34.23
573.452	39.23
573.575	38.23
573.697	36.23
573.82	24.23
573.943	19.23
574.065	35.23
574.188	34.23
574.31	60.23
574.433	46.23
574.555	60.23
574.678	23.23
574.801	33.23
574.923	40.23
575.046	40.23
575.168	23.23
575.291	24.23
575.413	35.23
575.536	37.23
575.659	45.23
575.781	51.23
575.904	43.23
576.026	62.23
576.149	72.23
576.271	120.23
576.394	201.23
576.516	524.23
576.639	3613.23
576.761	10212.23
576.884	8746.23
577.007	8668.23
577.129	7897.23
577.252	3684.23
577.374	1285.23
577.497	515.23
577.619	263.23
577.742	157.23
577.864	147.23
577.987	124.23
578.109	124.23
578.232	123.23
578.354	150.23
578.477	174.23
578.599	367.23
578.722	1939.23
578.844	9064.23
578.967	9738.23
579.089	8640.23
579.212	8989.23
579.334	5193.23
579.457	1872.23
579.579	704.23
579.702	326.23
579.824	200.23
579.947	124.23
580.069	100.23
580.192	77.23
580.314	88.23
580.437	78.23
580.559	82.23
580.682	50.23
580.804	47.23
580.927	35.23
581.049	61.23
581.172	60.23
581.294	81.23
581.417	48.23
581.539	55.23
581.662	46.23
581.784	52.23
581.907	53.23
582.029	64.23
582.152	37.23
582.274	53.23
582.396	59.23
582.519	59.23
582.641	41.23
582.764	40.23
582.886	33.23
583.009	36.23
583.131	30.23
583.254	23.23
583.376	55.23
583.499	46.23
583.621	35.23
583.743	61.23
583.866	43.23
583.988	36.23
584.111	44.23
584.233	45.23
584.356	34.23
584.478	37.23
584.601	13.23
584.723	34.23
584.845	37.23
584.968	10.23
585.09	18.23
585.213	34.23
585.335	13.23
585.458	11.23
585.58	-0.77
585.702	36.23
585.825	42.23
585.947	23.23
586.07	8.23
586.192	26.23
586.315	36.23
586.437	11.23
586.559	26.23
586.682	10.23
586.804	26.23
586.927	28.23
587.049	16.23
587.171	26.23
587.294	32.23
587.416	39.23
587.539	41.23
587.661	23.23
587.783	7.23
587.906	14.23
588.028	19.23
588.151	13.23
588.273	19.23
588.395	16.23
588.518	16.23
588.64	26.23
588.763	38.23
588.885	38.23
589.007	33.23
589.13	13.23
589.252	-6.77
589.375	37.23
589.497	22.23
589.619	21.23
589.742	23.23
589.864	35.23
589.986	27.23
590.109	23.23
590.231	31.23
590.354	32.23
590.476	28.23
590.598	21.23
590.721	15.23
590.843	31.23
590.965	27.23
591.088	30.23
591.21	32.23
591.332	37.23
591.455	19.23
591.577	-6.77
591.7	17.23
591.822	29.23
591.944	24.23
592.067	32.23
592.189	22.23
592.311	25.23
592.434	11.23
592.556	38.23
592.678	27.23
592.801	6.23
592.923	20.23
593.045	25.23
593.168	29.23
593.29	35.23
593.412	41.23
593.535	5.23
593.657	9.23
593.779	19.23
593.902	24.23
594.024	15.23
594.146	31.23
594.269	23.23
594.391	8.23
594.513	20.23
594.636	4.23
594.758	7.23
594.88	27.23
595.003	34.23
595.125	15.23
595.247	20.23
595.37	35.23
595.492	26.23
595.614	29.23
595.737	4.23
595.859	21.23
595.981	33.23
596.104	26.23
596.226	19.23
596.348	25.23
596.471	6.23
596.593	14.23
596.715	18.23
596.838	32.23
596.96	-10.77
597.082	26.23
597.204	19.23
597.327	16.23
597.449	15.23
597.571	18.23
597.694	31.23
597.816	32.23
597.938	15.23
598.061	13.23
598.183	26.23
598.305	19.23
598.427	31.23
598.55	32.23
598.672	27.23
598.794	16.23
598.917	22.23
599.039	26.23
599.161	35.23
599.283	24.23
599.406	35.23
599.528	28.23
599.65	45.23
599.773	35.23
599.895	39.23
600.017	29.23
600.139	18.23
600.262	12.23
600.384	18.23
600.506	26.23
600.628	21.23
600.751	20.23
600.873	18.23
600.995	29.23
601.118	36.23
601.24	6.23
601.362	31.23
601.484	22.23
601.607	26.23
601.729	21.23
601.851	15.23
601.973	16.23
602.096	23.23
602.218	6.23
602.34	24.23
602.462	27.23
602.585	20.23
602.707	6.23
602.829	19.23
602.951	19.23
603.074	4.23
603.196	13.23
603.318	2.23
603.44	38.23
603.563	15.23
603.685	4.23
603.807	20.23
603.929	18.23
604.052	7.23
604.174	42.23
604.296	26.23
604.418	24.23
604.541	35.23
604.663	26.23
604.785	41.23
604.907	36.23
605.03	12.23
605.152	45.23
605.274	38.23
605.396	13.23
605.519	3.23
605.641	28.23
605.763	19.23
605.885	28.23
606.008	30.23
606.13	25.23
606.252	30.23
606.374	21.23
606.496	20.23
606.619	26.23
606.741	10.23
606.863	25.23
606.985	29.23
607.108	18.23
607.23	11.23
607.352	20.23
607.474	38.23
607.596	14.23
607.719	21.23
607.841	24.23
607.963	29.23
608.085	15.23
608.207	42.23
608.33	18.23
608.452	28.23
608.574	11.23
608.696	19.23
608.819	16.23
608.941	19.23
609.063	5.23
609.185	14.23
609.307	22.23
609.43	30.23
609.552	22.23
609.674	14.23
609.796	26.23
609.918	20.23
610.041	15.23
610.163	24.23
610.285	9.23
610.407	33.23
610.529	16.23
610.652	23.23
610.774	14.23
610.896	25.23
611.018	30.23
611.14	20.23
611.263	21.23
611.385	24.23
611.507	39.23
611.629	35.23
611.751	29.23
611.873	40.23
611.996	28.23
612.118	46.23
612.24	12.23
612.362	40.23
612.484	36.23
612.607	27.23
612.729	39.23
612.851	25.23
612.973	24.23
613.095	27.23
613.218	32.23
613.34	26.23
613.462	40.23
613.584	29.23
613.706	17.23
613.828	37.23
613.951	13.23
614.073	21.23
614.195	10.23
614.317	28.23
614.439	28.23
614.561	25.23
614.684	29.23
614.806	19.23
614.928	20.23
615.05	24.23
615.172	35.23
615.294	29.23
615.417	27.23
615.539	24.23
615.661	12.23
615.783	26.23
615.905	11.23
616.027	16.23
616.15	47.23
616.272	15.23
616.394	10.23
616.516	16.23
616.638	8.23
616.76	17.23
616.883	33.23
617.005	20.23
617.127	25.23
617.249	19.23
617.371	27.23
617.493	5.23
617.615	18.23
617.738	28.23
617.86	32.23
617.982	14.23
618.104	2.23
618.226	12.23
618.348	-6.77
618.471	-0.77
618.593	27.23
618.715	11.23
618.837	6.23
618.959	10.23
619.081	39.23
619.203	12.23
619.326	5.23
619.448	31.23
619.57	24.23
619.692	31.23
619.814	20.23
619.936	36.23
620.058	45.23
620.181	10.23
620.303	12.23
620.425	38.23
620.547	18.23
620.669	14.23
620.791	35.23
620.913	15.23
621.036	3.23
621.158	11.23
621.28	35.23
621.402	14.23
621.524	28.23
621.646	9.23
621.768	2.23
621.891	-16.77
622.013	15.23
622.135	7.23
622.257	1.23
622.379	12.23
622.501	23.23
622.623	13.23
622.745	16.23
622.868	16.23
622.99	15.23
623.112	2.23
623.234	-0.77
623.356	27.23
623.478	7.23
623.6	12.23
623.722	3.23
623.845	35.23
623.967	26.23
624.089	26.23
624.211	23.23
624.333	33.23
624.455	19.23
624.577	16.23
624.699	26.23
624.822	12.23
624.944	11.23
625.066	16.23
625.188	2.23
625.31	26.23
625.432	37.23
625.554	19.23
625.676	43.23
625.799	34.23
625.921	30.23
626.043	30.23
626.165	26.23
626.287	10.23
626.409	32.23
626.531	25.23
626.653	11.23
626.775	19.23
626.898	36.23
627.02	25.23
627.142	33.23
627.264	22.23
627.386	18.23
627.508	18.23
627.63	18.23
627.752	31.23
627.874	12.23
627.997	38.23
628.119	39.23
628.241	35.23
628.363	38.23
628.485	14.23
628.607	46.23
628.729	21.23
628.851	4.23
628.973	3.23
629.096	1.23
629.218	7.23
629.34	14.23
629.462	15.23
629.584	15.23
629.706	15.23
629.828	20.23
629.95	7.23
630.072	10.23
630.195	12.23
630.317	26.23
630.439	10.23
630.561	35.23
630.683	8.23
630.805	29.23
630.927	26.23
631.049	10.23
631.171	5.23
631.293	6.23
631.416	23.23
631.538	12.23
631.66	9.23
631.782	27.23
631.904	18.23
632.026	11.23
632.148	13.23
632.27	-4.77
632.392	30.23
632.514	20.23
632.637	10.23
632.759	12.23
632.881	2.23
633.003	-1.77
633.125	11.23
633.247	14.23
633.369	0.23
633.491	-2.77
633.613	16.23
633.735	16.23
633.858	26.23
633.98	8.23
634.102	-9.77
634.224	8.23
634.346	6.23
634.468	27.23
634.59	22.23
634.712	16.23
634.834	23.23
634.956	13.23
635.078	2.23
635.201	-0.77
635.323	18.23
635.445	10.23
635.567	14.23
635.689	18.23
635.811	16.23
635.933	18.23
636.055	15.23
636.177	13.23
636.299	20.23
636.421	-11.77
636.544	0.23
636.666	15.23
636.788	24.23
636.91	19.23
637.032	8.23
637.154	18.23
637.276	42.23
637.398	19.23
637.52	22.23
637.642	-0.77
637.764	-8.77
637.887	12.23
638.009	22.23
638.131	-4.77
638.253	7.23
638.375	7.23
638.497	3.23
638.619	7.23
638.741	2.23
638.863	-10.77
638.985	5.23
639.107	22.23
639.23	8.23
639.352	7.23
639.474	8.23
639.596	5.23
639.718	23.23
639.84	19.23
639.962	0.23
640.084	13.23
640.206	28.23
640.328	10.23
640.45	22.23
640.573	21.23
640.695	22.23
640.817	7.23
640.939	23.23
641.061	16.23
641.183	-4.77
641.305	-3.77
641.427	-6.77
641.549	11.23
641.671	11.23
641.793	4.23
641.915	3.23
642.038	8.23
642.16	20.23
642.282	4.23
642.404	-0.77
642.526	16.23
642.648	17.23
642.77	22.23
642.892	19.23
643.014	43.23
643.136	33.23
643.258	6.23
643.381	31.23
643.503	21.23
643.625	14.23
643.747	2.23
643.869	22.23
643.991	23.23
644.113	19.23
644.235	9.23
644.357	6.23
644.479	21.23
644.601	11.23
644.723	8.23
644.846	20.23
644.968	12.23
645.09	9.23
645.212	18.23
645.334	3.23
645.456	25.23
645.578	22.23
645.7	23.23
645.822	25.23
645.944	10.23
646.066	21.23
646.188	7.23
646.311	36.23
646.433	15.23
646.555	44.23
646.677	14.23
646.799	28.23
646.921	23.23
647.043	32.23
647.165	18.23
647.287	8.23
647.409	7.23
647.531	30.23
647.654	7.23
647.776	22.23
647.898	26.23
648.02	6.23
648.142	11.23
648.264	-5.77
648.386	-4.77
648.508	6.23
648.63	19.23
648.752	19.23
648.874	17.23
648.997	12.23
649.119	32.23
649.241	12.23
649.363	27.23
649.485	30.23
649.607	7.23
649.729	3.23
649.851	10.23
649.973	5.23
650.095	18.23
650.217	12.23
650.34	-0.77
650.462	22.23
650.584	31.23
650.706	12.23
650.828	14.23
650.95	-1.77
651.072	6.23
651.194	21.23
651.316	9.23
651.438	19.23
651.56	4.23
651.683	4.23
651.805	8.23
651.927	8.23
652.049	2.23
652.171	14.23
652.293	-8.77
652.415	1.23
652.537	-7.77
652.659	3.23
652.781	13.23
652.903	24.23
653.026	18.23
653.148	23.23
653.27	4.23
653.392	25.23
653.514	-5.77
653.636	16.23
653.758	22.23
653.88	7.23
654.002	-0.77
654.124	-1.77
654.247	5.23
654.369	15.23
654.491	18.23
654.613	14.23
654.735	18.23
654.857	25.23
654.979	15.23
655.101	23.23
655.223	21.23
655.345	27.23
655.468	20.23
655.59	2.23
655.712	24.23
655.834	16.23
655.956	26.23
656.078	8.23
656.2	11.23
656.322	19.23
656.444	-1.77
656.566	18.23
656.689	-8.77
656.811	3.23
656.933	19.23
657.055	-10.77
657.177	11.23
657.299	7.23
657.421	8.23
657.543	3.23
657.665	4.23
657.787	8.23
657.91	-1.77
658.032	0.23
658.154	8.23
658.276	19.23
658.398	0.23
658.52	20.23
658.642	9.23
658.764	2.23
658.886	-8.77
659.009	23.23
659.131	15.23
659.253	-1.77
659.375	14.23
659.497	3.23
659.619	18.23
659.741	-0.77
659.863	-0.77
659.985	8.23
660.108	26.23
660.23	1.23
660.352	11.23
660.474	16.23
660.596	16.23
660.718	31.23
660.84	26.23
660.962	21.23
661.084	6.23
661.207	0.23
661.329	14.23
661.451	4.23
661.573	17.23
661.695	34.23
661.817	19.23
661.939	29.23
662.061	22.23
662.184	-7.77
662.306	12.23
662.428	2.23
662.55	37.23
662.672	2.23
662.794	2.23
662.916	-2.77
663.038	18.23
663.161	12.23
663.283	12.23
663.405	23.23
663.527	7.23
663.649	19.23
663.771	13.23
663.893	-3.77
664.015	10.23
664.138	10.23
664.26	12.23
664.382	-6.77
664.504	23.23
664.626	-8.77
664.748	1.23
664.87	6.23
664.992	15.23
665.115	13.23
665.237	5.23
665.359	7.23
665.481	15.23
665.603	14.23
665.725	12.23
665.847	4.23
665.97	6.23
666.092	6.23
666.214	4.23
666.336	16.23
666.458	12.23
666.58	10.23
666.702	-1.77
666.825	-7.77
666.947	-9.77
667.069	15.23
667.191	7.23
667.313	2.23
667.435	-4.77
667.557	-16.77
667.68	-3.77
667.802	-5.77
667.924	13.23
668.046	16.23
668.168	4.23
668.29	3.23
668.412	8.23
668.535	-1.77
668.657	9.23
668.779	4.23
668.901	19.23
669.023	2.23
669.145	6.23
669.267	9.23
669.39	24.23
669.512	6.23
669.634	-5.77
669.756	-1.77
669.878	2.23
670	-1.77
670.123	14.23
670.245	26.23
670.367	17.23
670.489	-2.77
670.611	2.23
670.733	2.23
670.856	-3.77
670.978	11.23
671.1	12.23
671.222	11.23
671.344	0.23
671.466	4.23
671.589	1.23
671.711	-3.77
671.833	6.23
671.955	16.23
672.077	11.23
672.199	19.23
672.322	12.23
672.444	-2.77
672.566	18.23
672.688	12.23
672.81	10.23
672.932	14.23
673.055	10.23
673.177	2.23
673.299	8.23
673.421	-5.77
673.543	-6.77
673.665	25.23
673.788	7.23
673.91	-7.77
674.032	0.23
674.154	16.23
674.276	17.23
674.399	18.23
674.521	21.23
674.643	20.23
674.765	14.23
674.887	8.23
675.009	-3.77
675.132	3.23
675.254	-3.77
675.376	2.23
675.498	11.23
675.62	11.23
675.743	10.23
675.865	11.23
675.987	-7.77
676.109	-1.77
676.231	9.23
676.354	23.23
676.476	5.23
676.598	8.23
676.72	8.23
676.842	22.23
676.965	5.23
677.087	6.23
677.209	3.23
677.331	22.23
677.453	26.23
677.576	10.23
677.698	7.23
677.82	6.23
677.942	16.23
678.064	3.23
678.187	-2.77
678.309	18.23
678.431	16.23
678.553	7.23
678.675	21.23
678.798	37.23
678.92	21.23
679.042	-5.77
679.164	8.23
679.286	23.23
679.409	-0.77
679.531	-12.77
679.653	-2.77
679.775	-1.77
679.898	11.23
680.02	3.23
680.142	-0.77
680.264	21.23
680.386	-2.77
680.509	-2.77
680.631	3.23
680.753	1.23
680.875	2.23
680.998	4.23
681.12	-0.77
681.242	10.23
681.364	-13.77
681.486	3.23
681.609	-20.77
681.731	-10.77
681.853	-10.77
681.975	11.23
682.098	9.23
682.22	25.23
682.342	8.23
682.464	21.23
682.587	20.23
682.709	15.23
682.831	5.23
682.953	8.23
683.076	-1.77
683.198	-4.77
683.32	15.23
683.442	0.23
683.565	3.23
683.687	7.23
683.809	12.23
683.931	-11.77
684.054	25.23
684.176	25.23
684.298	21.23
684.42	2.23
684.543	15.23
684.665	-1.77
684.787	-1.77
684.909	2.23
685.032	28.23
685.154	-5.77
685.276	9.23
685.398	13.23
685.521	-1.77
685.643	16.23
685.765	14.23
685.887	14.23
686.01	20.23
686.132	19.23
686.254	11.23
686.377	12.23
686.499	19.23
686.621	24.23
686.743	-1.77
686.866	8.23
686.988	30.23
687.11	18.23
687.232	3.23
687.355	-3.77
687.477	10.23
687.599	16.23
687.722	10.23
687.844	21.23
687.966	6.23
688.088	2.23
688.211	29.23
688.333	5.23
688.455	16.23
688.578	9.23
688.7	12.23
688.822	4.23
688.944	-11.77
689.067	18.23
689.189	13.23
689.311	-0.77
689.434	15.23
689.556	14.23
689.678	8.23
689.801	-4.77
689.923	-3.77
690.045	21.23
690.167	16.23
690.29	21.23
690.412	5.23
690.534	36.23
690.657	21.23
690.779	2.23
690.901	16.23
691.024	21.23
691.146	3.23
691.268	6.23
691.391	18.23
691.513	31.23
691.635	36.23
691.758	34.23
691.88	16.23
692.002	15.23
692.125	-7.77
692.247	10.23
692.369	9.23
692.492	-3.77
692.614	-6.77
692.736	4.23
692.859	3.23
692.981	6.23
693.103	-0.77
693.226	11.23
693.348	36.23
693.47	22.23
693.593	30.23
693.715	42.23
693.837	28.23
693.96	6.23
694.082	27.23
694.204	18.23
694.327	11.23
694.449	-0.77
694.571	19.23
694.694	18.23
694.816	13.23
694.938	11.23
695.061	11.23
695.183	16.23
695.305	7.23
695.428	17.23
695.55	-5.77
695.672	15.23
695.795	24.23
695.917	19.23
696.04	14.23
696.162	3.23
696.284	15.23
696.407	7.23
696.529	4.23
696.651	16.23
696.774	4.23
696.896	31.23
697.019	18.23
697.141	19.23
697.263	14.23
697.386	2.23
697.508	9.23
697.63	4.23
697.753	-1.77
697.875	-0.77
697.998	-1.77
698.12	28.23
698.242	14.23
698.365	22.23
698.487	7.23
698.61	24.23
698.732	16.23
698.854	25.23
698.977	1.23
699.099	27.23
699.221	-1.77
699.344	9.23
699.466	12.23
699.589	7.23
699.711	-4.77
699.834	3.23
699.956	-1.77
700.078	3.23
700.201	-3.77
700.323	27.23
700.446	8.23
700.568	3.23
700.69	22.23
700.813	3.23
700.935	-0.77
701.058	-20.77
701.18	-0.77
701.302	7.23
701.425	-4.77
701.547	12.23
701.67	4.23
701.792	26.23
701.915	-6.77
702.037	-8.77
702.159	1.23
702.282	13.23
702.404	5.23
702.527	3.23
702.649	34.23
702.772	20.23
702.894	10.23
703.017	9.23
703.139	24.23
703.261	23.23
703.384	29.23
703.506	0.23
703.629	-5.77
703.751	5.23
703.874	5.23
703.996	-13.77
704.119	3.23
704.241	22.23
704.364	-9.77
704.486	3.23
704.608	9.23
704.731	-4.77
704.853	0.23
704.976	3.23
705.098	18.23
705.221	20.23
705.343	13.23
705.466	3.23
705.588	16.23
705.711	6.23
705.833	0.23
705.956	13.23
706.078	23.23
706.201	6.23
706.323	12.23
706.446	20.23
