Data from LowRes_mercury_15_20_11_07_2024_HR4C61881__96__15-23-41-870.txt Node

Date: Thu Nov 07 15:23:41 EST 2024
User: crc00042
Spectrometer: HR4C6188
Trigger mode: 4
Integration Time (sec): 1.000000E-1
Scans to average: 1
Electric dark correction enabled: true
Nonlinearity correction enabled: false
Boxcar width: 0
XAxis mode: Wavelengths
Number of Pixels in Spectrum: 3648
>>>>>Begin Spectral Data<<<<<
245.66	-85.15
245.797	-85.15
245.934	-85.15
246.071	-70.15
246.208	-8.15
246.344	6.85
246.481	-0.15
246.618	-18.15
246.755	2.85
246.892	14.85
247.029	-11.15
247.165	-9.15
247.302	22.85
247.439	-0.15
247.576	8.85
247.713	-13.15
247.849	16.85
247.986	-21.15
248.123	-8.15
248.26	-3.15
248.396	18.85
248.533	-0.15
248.67	-9.15
248.806	1.85
248.943	-18.15
249.08	-18.15
249.216	24.85
249.353	-10.15
249.49	-1.15
249.626	-14.15
249.763	-4.15
249.9	2.85
250.036	9.85
250.173	12.85
250.309	2.85
250.446	8.85
250.582	6.85
250.719	-9.15
250.856	-3.15
250.992	-14.15
251.129	-1.15
251.265	-11.15
251.402	1.85
251.538	-23.15
251.675	4.85
251.811	1.85
251.948	19.85
252.084	0.85
252.221	-2.15
252.357	-2.15
252.493	32.85
252.63	1.85
252.766	14.85
252.903	3.85
253.039	4.85
253.175	-1.15
253.312	12.85
253.448	-1.15
253.585	-8.15
253.721	8.85
253.857	-20.15
253.994	2.85
254.13	-7.15
254.266	-9.15
254.403	-4.15
254.539	12.85
254.675	19.85
254.811	11.85
254.948	7.85
255.084	-3.15
255.22	-5.15
255.356	14.85
255.493	5.85
255.629	9.85
255.765	14.85
255.901	17.85
256.037	0.85
256.174	-9.15
256.31	-5.15
256.446	4.85
256.582	13.85
256.718	-4.15
256.854	4.85
256.991	-0.15
257.127	14.85
257.263	10.85
257.399	16.85
257.535	-15.15
257.671	-1.15
257.807	-0.15
257.943	-13.15
258.079	-13.15
258.215	-4.15
258.351	28.85
258.487	20.85
258.623	20.85
258.759	-22.15
258.895	10.85
259.031	-13.15
259.167	-14.15
259.303	8.85
259.439	7.85
259.575	-1.15
259.711	27.85
259.847	-9.15
259.983	9.85
260.119	-13.15
260.255	-10.15
260.391	7.85
260.527	8.85
260.663	19.85
260.799	6.85
260.934	7.85
261.07	4.85
261.206	-5.15
261.342	-10.15
261.478	7.85
261.614	-2.15
261.749	12.85
261.885	7.85
262.021	-5.15
262.157	21.85
262.293	-5.15
262.428	3.85
262.564	-2.15
262.7	10.85
262.836	2.85
262.971	14.85
263.107	-0.15
263.243	25.85
263.378	6.85
263.514	-17.15
263.65	2.85
263.785	-8.15
263.921	-26.15
264.057	-16.15
264.192	5.85
264.328	12.85
264.464	0.85
264.599	12.85
264.735	10.85
264.871	2.85
265.006	8.85
265.142	14.85
265.277	7.85
265.413	8.85
265.548	16.85
265.684	30.85
265.819	1.85
265.955	0.85
266.091	-10.15
266.226	14.85
266.362	7.85
266.497	9.85
266.633	2.85
266.768	-9.15
266.903	5.85
267.039	22.85
267.174	10.85
267.31	3.85
267.445	-12.15
267.581	7.85
267.716	4.85
267.851	10.85
267.987	27.85
268.122	22.85
268.258	-20.15
268.393	0.85
268.528	20.85
268.664	11.85
268.799	0.85
268.934	13.85
269.07	4.85
269.205	5.85
269.34	23.85
269.476	8.85
269.611	2.85
269.746	21.85
269.881	-5.15
270.017	16.85
270.152	-8.15
270.287	-5.15
270.422	19.85
270.558	-5.15
270.693	21.85
270.828	33.85
270.963	-6.15
271.098	11.85
271.234	9.85
271.369	4.85
271.504	-9.15
271.639	6.85
271.774	1.85
271.909	3.85
272.045	-11.15
272.18	3.85
272.315	-5.15
272.45	18.85
272.585	-7.15
272.72	-6.15
272.855	4.85
272.99	13.85
273.125	-10.15
273.26	3.85
273.395	-2.15
273.53	4.85
273.665	25.85
273.8	1.85
273.935	-20.15
274.07	-3.15
274.205	1.85
274.34	7.85
274.475	-3.15
274.61	31.85
274.745	0.85
274.88	30.85
275.015	-16.15
275.15	-5.15
275.285	-13.15
275.42	-3.15
275.555	10.85
275.69	2.85
275.825	4.85
275.959	26.85
276.094	-2.15
276.229	-3.15
276.364	-4.15
276.499	-5.15
276.634	-12.15
276.768	-21.15
276.903	9.85
277.038	13.85
277.173	2.85
277.308	-10.15
277.442	7.85
277.577	0.85
277.712	-14.15
277.847	-3.15
277.981	22.85
278.116	-2.15
278.251	3.85
278.386	2.85
278.52	5.85
278.655	-6.15
278.79	30.85
278.924	8.85
279.059	7.85
279.194	-7.15
279.328	17.85
279.463	15.85
279.598	22.85
279.732	6.85
279.867	15.85
280.001	14.85
280.136	-11.15
280.271	26.85
280.405	10.85
280.54	1.85
280.674	2.85
280.809	9.85
280.943	-13.15
281.078	-14.15
281.213	21.85
281.347	9.85
281.482	14.85
281.616	10.85
281.751	-1.15
281.885	9.85
282.02	1.85
282.154	7.85
282.288	12.85
282.423	-14.15
282.557	0.85
282.692	6.85
282.826	3.85
282.961	18.85
283.095	0.85
283.229	-1.15
283.364	-6.15
283.498	0.85
283.633	6.85
283.767	17.85
283.901	12.85
284.036	10.85
284.17	6.85
284.304	0.85
284.439	0.85
284.573	-8.15
284.707	8.85
284.842	-7.15
284.976	-0.15
285.11	-9.15
285.244	-2.15
285.379	34.85
285.513	-0.15
285.647	29.85
285.781	15.85
285.916	33.85
286.05	-5.15
286.184	26.85
286.318	12.85
286.453	5.85
286.587	1.85
286.721	-6.15
286.855	25.85
286.989	17.85
287.123	-10.15
287.258	5.85
287.392	-7.15
287.526	12.85
287.66	-1.15
287.794	4.85
287.928	-0.15
288.062	10.85
288.196	13.85
288.33	1.85
288.464	10.85
288.598	4.85
288.733	14.85
288.867	6.85
289.001	11.85
289.135	17.85
289.269	9.85
289.403	3.85
289.537	9.85
289.671	6.85
289.805	-6.15
289.939	16.85
290.073	7.85
290.207	4.85
290.34	4.85
290.474	21.85
290.608	18.85
290.742	1.85
290.876	-6.15
291.01	1.85
291.144	24.85
291.278	20.85
291.412	23.85
291.546	10.85
291.679	-17.15
291.813	-2.15
291.947	1.85
292.081	-17.15
292.215	4.85
292.349	25.85
292.482	24.85
292.616	19.85
292.75	2.85
292.884	9.85
293.018	6.85
293.151	-23.15
293.285	10.85
293.419	-13.15
293.553	-2.15
293.686	-1.15
293.82	5.85
293.954	18.85
294.088	19.85
294.221	1.85
294.355	1.85
294.489	-7.15
294.622	-4.15
294.756	8.85
294.89	13.85
295.023	18.85
295.157	16.85
295.291	-3.15
295.424	11.85
295.558	-5.15
295.691	2.85
295.825	10.85
295.959	-0.15
296.092	-14.15
296.226	-6.15
296.359	0.85
296.493	5.85
296.627	26.85
296.76	5.85
296.894	-2.15
297.027	8.85
297.161	-0.15
297.294	-6.15
297.428	8.85
297.561	24.85
297.695	0.85
297.828	6.85
297.962	1.85
298.095	7.85
298.229	13.85
298.362	3.85
298.495	12.85
298.629	-10.15
298.762	4.85
298.896	6.85
299.029	-6.15
299.162	0.85
299.296	-4.15
299.429	9.85
299.563	24.85
299.696	25.85
299.829	7.85
299.963	16.85
300.096	31.85
300.229	16.85
300.363	9.85
300.496	3.85
300.629	-23.15
300.763	-10.15
300.896	-7.15
301.029	14.85
301.162	5.85
301.296	-9.15
301.429	-5.15
301.562	-19.15
301.695	16.85
301.829	8.85
301.962	26.85
302.095	-3.15
302.228	-5.15
302.362	-0.15
302.495	-14.15
302.628	18.85
302.761	8.85
302.894	7.85
303.027	20.85
303.161	8.85
303.294	-18.15
303.427	4.85
303.56	2.85
303.693	-10.15
303.826	10.85
303.959	15.85
304.092	-30.15
304.225	-10.15
304.359	-8.15
304.492	17.85
304.625	2.85
304.758	14.85
304.891	-9.15
305.024	4.85
305.157	6.85
305.29	8.85
305.423	17.85
305.556	28.85
305.689	14.85
305.822	-11.15
305.955	4.85
306.088	-2.15
306.221	-9.15
306.354	10.85
306.487	-14.15
306.62	-17.15
306.752	-5.15
306.885	6.85
307.018	11.85
307.151	10.85
307.284	26.85
307.417	-10.15
307.55	13.85
307.683	6.85
307.816	27.85
307.948	11.85
308.081	16.85
308.214	37.85
308.347	26.85
308.48	2.85
308.613	0.85
308.745	21.85
308.878	-3.15
309.011	-3.15
309.144	9.85
309.277	-7.15
309.409	8.85
309.542	0.85
309.675	24.85
309.808	-2.15
309.94	7.85
310.073	0.85
310.206	13.85
310.339	32.85
310.471	4.85
310.604	17.85
310.737	-2.15
310.869	-2.15
311.002	0.85
311.135	-2.15
311.267	-3.15
311.4	-8.15
311.533	16.85
311.665	6.85
311.798	23.85
311.93	26.85
312.063	26.85
312.196	43.85
312.328	69.85
312.461	42.85
312.593	26.85
312.726	73.85
312.859	97.85
312.991	164.85
313.124	46.85
313.256	6.85
313.389	8.85
313.521	0.85
313.654	5.85
313.786	3.85
313.919	-7.15
314.051	6.85
314.184	7.85
314.316	-8.15
314.449	-13.15
314.581	1.85
314.714	3.85
314.846	16.85
314.978	2.85
315.111	-10.15
315.243	-4.15
315.376	13.85
315.508	9.85
315.641	4.85
315.773	15.85
315.905	7.85
316.038	-20.15
316.17	11.85
316.302	-5.15
316.435	20.85
316.567	5.85
316.699	22.85
316.832	4.85
316.964	13.85
317.096	-7.15
317.229	-0.15
317.361	-8.15
317.493	4.85
317.625	-6.15
317.758	1.85
317.89	23.85
318.022	-22.15
318.155	-14.15
318.287	16.85
318.419	14.85
318.551	18.85
318.683	-3.15
318.816	11.85
318.948	-7.15
319.08	-9.15
319.212	8.85
319.344	16.85
319.477	18.85
319.609	10.85
319.741	26.85
319.873	10.85
320.005	16.85
320.137	15.85
320.269	-12.15
320.401	-0.15
320.534	-13.15
320.666	-23.15
320.798	7.85
320.93	6.85
321.062	-1.15
321.194	0.85
321.326	25.85
321.458	26.85
321.59	8.85
321.722	-11.15
321.854	9.85
321.986	4.85
322.118	9.85
322.25	-14.15
322.382	5.85
322.514	-14.15
322.646	9.85
322.778	26.85
322.91	-7.15
323.042	2.85
323.174	12.85
323.306	-3.15
323.438	-15.15
323.57	2.85
323.702	1.85
323.834	10.85
323.966	-3.15
324.097	-5.15
324.229	18.85
324.361	14.85
324.493	13.85
324.625	2.85
324.757	25.85
324.889	-5.15
325.021	4.85
325.152	30.85
325.284	30.85
325.416	0.85
325.548	21.85
325.68	15.85
325.811	34.85
325.943	37.85
326.075	-0.15
326.207	5.85
326.339	23.85
326.47	30.85
326.602	12.85
326.734	12.85
326.866	20.85
326.997	-0.15
327.129	-7.15
327.261	-7.15
327.392	7.85
327.524	-9.15
327.656	10.85
327.787	28.85
327.919	15.85
328.051	18.85
328.182	32.85
328.314	17.85
328.446	13.85
328.577	40.85
328.709	16.85
328.841	1.85
328.972	-9.15
329.104	5.85
329.235	-3.15
329.367	-5.15
329.499	17.85
329.63	-1.15
329.762	-3.15
329.893	26.85
330.025	0.85
330.156	-15.15
330.288	10.85
330.419	7.85
330.551	17.85
330.683	11.85
330.814	2.85
330.946	25.85
331.077	-16.15
331.208	4.85
331.34	-14.15
331.471	6.85
331.603	2.85
331.734	-3.15
331.866	-4.15
331.997	14.85
332.129	4.85
332.26	-1.15
332.392	13.85
332.523	-3.15
332.654	-9.15
332.786	-4.15
332.917	-3.15
333.048	16.85
333.18	10.85
333.311	-7.15
333.443	20.85
333.574	7.85
333.705	21.85
333.837	30.85
333.968	114.85
334.099	248.85
334.231	190.85
334.362	47.85
334.493	32.85
334.624	38.85
334.756	17.85
334.887	8.85
335.018	-3.15
335.15	19.85
335.281	7.85
335.412	3.85
335.543	16.85
335.675	8.85
335.806	6.85
335.937	5.85
336.068	16.85
336.199	44.85
336.331	14.85
336.462	12.85
336.593	10.85
336.724	-5.15
336.855	17.85
336.986	38.85
337.118	13.85
337.249	21.85
337.38	-2.15
337.511	10.85
337.642	14.85
337.773	14.85
337.904	24.85
338.035	0.85
338.166	15.85
338.298	8.85
338.429	-1.15
338.56	20.85
338.691	26.85
338.822	20.85
338.953	24.85
339.084	24.85
339.215	19.85
339.346	0.85
339.477	12.85
339.608	21.85
339.739	12.85
339.87	13.85
340.001	5.85
340.132	27.85
340.263	20.85
340.394	25.85
340.525	16.85
340.656	0.85
340.787	10.85
340.918	9.85
341.049	16.85
341.179	8.85
341.31	4.85
341.441	-5.15
341.572	11.85
341.703	22.85
341.834	3.85
341.965	17.85
342.096	10.85
342.227	6.85
342.357	18.85
342.488	17.85
342.619	16.85
342.75	33.85
342.881	5.85
343.012	32.85
343.142	50.85
343.273	20.85
343.404	23.85
343.535	44.85
343.666	32.85
343.796	22.85
343.927	6.85
344.058	32.85
344.189	37.85
344.319	22.85
344.45	27.85
344.581	16.85
344.712	16.85
344.842	13.85
344.973	31.85
345.104	45.85
345.234	33.85
345.365	23.85
345.496	37.85
345.626	46.85
345.757	46.85
345.888	19.85
346.018	25.85
346.149	16.85
346.28	33.85
346.41	27.85
346.541	29.85
346.672	28.85
346.802	45.85
346.933	37.85
347.063	22.85
347.194	13.85
347.325	25.85
347.455	30.85
347.586	43.85
347.716	23.85
347.847	26.85
347.977	26.85
348.108	65.85
348.238	40.85
348.369	49.85
348.499	33.85
348.63	34.85
348.76	65.85
348.891	50.85
349.021	55.85
349.152	76.85
349.282	54.85
349.413	48.85
349.543	40.85
349.674	33.85
349.804	48.85
349.935	27.85
350.065	43.85
350.196	32.85
350.326	29.85
350.456	16.85
350.587	27.85
350.717	21.85
350.848	35.85
350.978	21.85
351.108	1.85
351.239	55.85
351.369	25.85
351.499	8.85
351.63	32.85
351.76	36.85
351.89	25.85
352.021	17.85
352.151	1.85
352.281	31.85
352.412	27.85
352.542	15.85
352.672	19.85
352.803	24.85
352.933	22.85
353.063	40.85
353.193	34.85
353.324	15.85
353.454	27.85
353.584	42.85
353.714	25.85
353.845	23.85
353.975	6.85
354.105	11.85
354.235	16.85
354.365	13.85
354.496	16.85
354.626	17.85
354.756	41.85
354.886	14.85
355.016	23.85
355.146	21.85
355.277	27.85
355.407	4.85
355.537	-2.15
355.667	9.85
355.797	25.85
355.927	16.85
356.057	26.85
356.187	25.85
356.318	12.85
356.448	31.85
356.578	44.85
356.708	55.85
356.838	27.85
356.968	24.85
357.098	31.85
357.228	46.85
357.358	24.85
357.488	16.85
357.618	30.85
357.748	37.85
357.878	34.85
358.008	23.85
358.138	23.85
358.268	0.85
358.398	38.85
358.528	18.85
358.658	27.85
358.788	48.85
358.918	34.85
359.048	31.85
359.178	48.85
359.308	28.85
359.438	33.85
359.568	36.85
359.698	29.85
359.827	25.85
359.957	31.85
360.087	27.85
360.217	18.85
360.347	25.85
360.477	30.85
360.607	27.85
360.737	43.85
360.866	36.85
360.996	26.85
361.126	33.85
361.256	42.85
361.386	48.85
361.516	54.85
361.645	25.85
361.775	40.85
361.905	25.85
362.035	54.85
362.165	41.85
362.294	42.85
362.424	40.85
362.554	41.85
362.684	33.85
362.813	20.85
362.943	39.85
363.073	36.85
363.203	56.85
363.332	58.85
363.462	69.85
363.592	75.85
363.721	135.85
363.851	148.85
363.981	201.85
364.111	241.85
364.24	314.85
364.37	502.85
364.5	831.85
364.629	1783.85
364.759	3836.85
364.888	6293.85
365.018	9309.85
365.148	14789.85
365.277	12885.85
365.407	4732.85
365.537	3134.85
365.666	4056.85
365.796	1802.85
365.925	791.85
366.055	762.85
366.184	1050.85
366.314	1391.85
366.444	2465.85
366.573	2104.85
366.703	631.85
366.832	188.85
366.962	109.85
367.091	102.85
367.221	83.85
367.35	35.85
367.48	96.85
367.609	57.85
367.739	43.85
367.868	25.85
367.998	50.85
368.127	54.85
368.257	58.85
368.386	56.85
368.516	46.85
368.645	44.85
368.775	56.85
368.904	47.85
369.033	29.85
369.163	35.85
369.292	51.85
369.422	53.85
369.551	48.85
369.68	28.85
369.81	41.85
369.939	33.85
370.069	31.85
370.198	29.85
370.327	26.85
370.457	38.85
370.586	51.85
370.715	29.85
370.845	21.85
370.974	44.85
371.103	55.85
371.233	51.85
371.362	52.85
371.491	42.85
371.621	57.85
371.75	39.85
371.879	34.85
372.008	46.85
372.138	56.85
372.267	55.85
372.396	54.85
372.525	24.85
372.655	10.85
372.784	32.85
372.913	26.85
373.042	55.85
373.172	44.85
373.301	21.85
373.43	16.85
373.559	12.85
373.688	32.85
373.818	36.85
373.947	40.85
374.076	14.85
374.205	29.85
374.334	25.85
374.463	13.85
374.593	28.85
374.722	30.85
374.851	45.85
374.98	8.85
375.109	12.85
375.238	20.85
375.367	51.85
375.496	20.85
375.625	20.85
375.755	30.85
375.884	38.85
376.013	36.85
376.142	13.85
376.271	19.85
376.4	30.85
376.529	26.85
376.658	22.85
376.787	20.85
376.916	25.85
377.045	18.85
377.174	18.85
377.303	30.85
377.432	36.85
377.561	31.85
377.69	20.85
377.819	36.85
377.948	13.85
378.077	13.85
378.206	5.85
378.335	26.85
378.464	10.85
378.593	33.85
378.722	13.85
378.851	35.85
378.98	45.85
379.108	23.85
379.237	-19.15
379.366	0.85
379.495	21.85
379.624	31.85
379.753	17.85
379.882	16.85
380.011	10.85
380.14	25.85
380.268	23.85
380.397	5.85
380.526	31.85
380.655	5.85
380.784	-21.15
380.913	8.85
381.041	7.85
381.17	-5.15
381.299	4.85
381.428	9.85
381.557	33.85
381.685	21.85
381.814	27.85
381.943	28.85
382.072	15.85
382.2	8.85
382.329	4.85
382.458	11.85
382.587	12.85
382.715	50.85
382.844	21.85
382.973	13.85
383.102	11.85
383.23	21.85
383.359	6.85
383.488	23.85
383.616	12.85
383.745	-3.15
383.874	5.85
384.003	5.85
384.131	14.85
384.26	-1.15
384.389	27.85
384.517	-0.15
384.646	-11.15
384.774	29.85
384.903	29.85
385.032	37.85
385.16	20.85
385.289	36.85
385.418	38.85
385.546	20.85
385.675	29.85
385.803	39.85
385.932	39.85
386.06	6.85
386.189	24.85
386.318	9.85
386.446	9.85
386.575	26.85
386.703	21.85
386.832	32.85
386.96	-10.15
387.089	30.85
387.217	6.85
387.346	10.85
387.474	26.85
387.603	19.85
387.731	32.85
387.86	28.85
387.988	12.85
388.117	37.85
388.245	29.85
388.374	31.85
388.502	18.85
388.631	6.85
388.759	5.85
388.888	23.85
389.016	9.85
389.144	8.85
389.273	13.85
389.401	12.85
389.53	7.85
389.658	41.85
389.786	24.85
389.915	10.85
390.043	1.85
390.172	26.85
390.3	50.85
390.428	40.85
390.557	22.85
390.685	42.85
390.813	49.85
390.942	42.85
391.07	18.85
391.198	12.85
391.327	9.85
391.455	8.85
391.583	41.85
391.712	34.85
391.84	32.85
391.968	29.85
392.096	8.85
392.225	18.85
392.353	31.85
392.481	31.85
392.609	34.85
392.738	25.85
392.866	30.85
392.994	17.85
393.122	32.85
393.251	10.85
393.379	12.85
393.507	7.85
393.635	13.85
393.764	33.85
393.892	45.85
394.02	39.85
394.148	13.85
394.276	29.85
394.404	28.85
394.533	35.85
394.661	24.85
394.789	45.85
394.917	42.85
395.045	18.85
395.173	0.85
395.302	14.85
395.43	17.85
395.558	43.85
395.686	44.85
395.814	38.85
395.942	10.85
396.07	23.85
396.198	30.85
396.326	39.85
396.454	50.85
396.582	26.85
396.711	40.85
396.839	40.85
396.967	35.85
397.095	17.85
397.223	23.85
397.351	47.85
397.479	35.85
397.607	24.85
397.735	47.85
397.863	39.85
397.991	34.85
398.119	42.85
398.247	44.85
398.375	59.85
398.503	45.85
398.631	55.85
398.759	77.85
398.887	55.85
399.015	52.85
399.143	59.85
399.271	70.85
399.399	77.85
399.526	78.85
399.654	82.85
399.782	62.85
399.91	86.85
400.038	100.85
400.166	72.85
400.294	100.85
400.422	92.85
400.55	107.85
400.678	98.85
400.805	132.85
400.933	111.85
401.061	126.85
401.189	115.85
401.317	149.85
401.445	116.85
401.573	77.85
401.7	41.85
401.828	48.85
401.956	61.85
402.084	53.85
402.212	53.85
402.34	39.85
402.467	42.85
402.595	40.85
402.723	41.85
402.851	72.85
402.978	58.85
403.106	84.85
403.234	70.85
403.362	118.85
403.489	127.85
403.617	146.85
403.745	193.85
403.873	271.85
404	543.85
404.128	1478.85
404.256	3935.85
404.384	5072.85
404.511	5481.85
404.639	7143.85
404.767	11417.85
404.894	14618.85
405.022	4918.85
405.15	1282.85
405.277	429.85
405.405	239.85
405.533	141.85
405.66	97.85
405.788	65.85
405.916	55.85
406.043	51.85
406.171	60.85
406.299	55.85
406.426	78.85
406.554	69.85
406.681	61.85
406.809	30.85
406.937	53.85
407.064	72.85
407.192	113.85
407.319	290.85
407.447	518.85
407.574	543.85
407.702	636.85
407.83	865.85
407.957	1591.85
408.085	917.85
408.212	285.85
408.34	122.85
408.467	53.85
408.595	27.85
408.722	50.85
408.85	44.85
408.977	11.85
409.105	47.85
409.232	33.85
409.36	35.85
409.487	33.85
409.615	36.85
409.742	46.85
409.87	33.85
409.997	42.85
410.125	48.85
410.252	55.85
410.379	25.85
410.507	29.85
410.634	21.85
410.762	35.85
410.889	50.85
411.017	35.85
411.144	37.85
411.271	21.85
411.399	26.85
411.526	28.85
411.653	23.85
411.781	37.85
411.908	17.85
412.036	22.85
412.163	26.85
412.29	37.85
412.418	43.85
412.545	39.85
412.672	13.85
412.8	38.85
412.927	25.85
413.054	37.85
413.182	31.85
413.309	33.85
413.436	18.85
413.564	24.85
413.691	13.85
413.818	41.85
413.945	27.85
414.073	31.85
414.2	40.85
414.327	39.85
414.454	32.85
414.582	38.85
414.709	15.85
414.836	16.85
414.963	25.85
415.091	25.85
415.218	7.85
415.345	23.85
415.472	18.85
415.6	5.85
415.727	36.85
415.854	42.85
415.981	31.85
416.108	18.85
416.236	30.85
416.363	31.85
416.49	13.85
416.617	44.85
416.744	40.85
416.871	29.85
416.998	34.85
417.126	40.85
417.253	28.85
417.38	21.85
417.507	23.85
417.634	44.85
417.761	49.85
417.888	23.85
418.015	23.85
418.143	24.85
418.27	50.85
418.397	36.85
418.524	39.85
418.651	33.85
418.778	46.85
418.905	59.85
419.032	41.85
419.159	21.85
419.286	71.85
419.413	55.85
419.54	53.85
419.667	16.85
419.794	24.85
419.921	53.85
420.048	44.85
420.175	58.85
420.302	50.85
420.429	46.85
420.556	45.85
420.683	49.85
420.81	50.85
420.937	74.85
421.064	81.85
421.191	42.85
421.318	60.85
421.445	84.85
421.572	49.85
421.699	48.85
421.826	41.85
421.953	30.85
422.08	21.85
422.207	26.85
422.334	13.85
422.461	42.85
422.588	12.85
422.714	38.85
422.841	22.85
422.968	14.85
423.095	22.85
423.222	4.85
423.349	31.85
423.476	24.85
423.603	17.85
423.729	3.85
423.856	12.85
423.983	33.85
424.11	12.85
424.237	24.85
424.364	32.85
424.491	24.85
424.617	15.85
424.744	14.85
424.871	29.85
424.998	3.85
425.125	-8.15
425.251	25.85
425.378	9.85
425.505	20.85
425.632	11.85
425.758	5.85
425.885	26.85
426.012	30.85
426.139	19.85
426.266	32.85
426.392	18.85
426.519	32.85
426.646	17.85
426.772	20.85
426.899	4.85
427.026	29.85
427.153	7.85
427.279	47.85
427.406	15.85
427.533	35.85
427.659	24.85
427.786	5.85
427.913	41.85
428.039	25.85
428.166	14.85
428.293	31.85
428.419	30.85
428.546	20.85
428.673	22.85
428.799	-2.15
428.926	13.85
429.053	37.85
429.179	38.85
429.306	29.85
429.433	44.85
429.559	31.85
429.686	13.85
429.812	30.85
429.939	24.85
430.066	47.85
430.192	21.85
430.319	19.85
430.445	27.85
430.572	28.85
430.699	28.85
430.825	22.85
430.952	27.85
431.078	16.85
431.205	44.85
431.331	34.85
431.458	33.85
431.584	35.85
431.711	18.85
431.837	36.85
431.964	38.85
432.09	26.85
432.217	21.85
432.343	34.85
432.47	31.85
432.596	15.85
432.723	11.85
432.849	10.85
432.976	33.85
433.102	42.85
433.229	41.85
433.355	55.85
433.482	91.85
433.608	112.85
433.735	108.85
433.861	120.85
433.987	163.85
434.114	182.85
434.24	185.85
434.367	219.85
434.493	237.85
434.62	301.85
434.746	375.85
434.872	648.85
434.999	834.85
435.125	1730.85
435.252	5513.85
435.378	13416.85
435.504	15198.85
435.631	15398.85
435.757	15683.85
435.883	15683.85
436.01	15683.85
436.136	15683.85
436.262	15683.85
436.389	3445.85
436.515	1962.85
436.641	742.85
436.768	599.85
436.894	391.85
437.02	400.85
437.147	276.85
437.273	295.85
437.399	227.85
437.526	225.85
437.652	175.85
437.778	187.85
437.904	153.85
438.031	171.85
438.157	140.85
438.283	153.85
438.409	110.85
438.536	114.85
438.662	134.85
438.788	134.85
438.914	90.85
439.041	120.85
439.167	110.85
439.293	111.85
439.419	93.85
439.546	100.85
439.672	70.85
439.798	86.85
439.924	83.85
440.05	89.85
440.177	76.85
440.303	46.85
440.429	57.85
440.555	66.85
440.681	49.85
440.807	79.85
440.934	65.85
441.06	60.85
441.186	61.85
441.312	64.85
441.438	66.85
441.564	91.85
441.69	70.85
441.816	56.85
441.943	60.85
442.069	61.85
442.195	66.85
442.321	65.85
442.447	43.85
442.573	33.85
442.699	35.85
442.825	39.85
442.951	43.85
443.077	71.85
443.203	45.85
443.33	31.85
443.456	39.85
443.582	29.85
443.708	31.85
443.834	58.85
443.96	53.85
444.086	68.85
444.212	71.85
444.338	47.85
444.464	48.85
444.59	60.85
444.716	59.85
444.842	35.85
444.968	34.85
445.094	42.85
445.22	24.85
445.346	16.85
445.472	41.85
445.598	45.85
445.724	30.85
445.85	32.85
445.976	32.85
446.102	41.85
446.228	38.85
446.354	41.85
446.48	35.85
446.605	22.85
446.731	42.85
446.857	32.85
446.983	40.85
447.109	39.85
447.235	29.85
447.361	32.85
447.487	38.85
447.613	32.85
447.739	24.85
447.865	24.85
447.99	45.85
448.116	39.85
448.242	35.85
448.368	39.85
448.494	31.85
448.62	43.85
448.746	33.85
448.872	16.85
448.997	16.85
449.123	31.85
449.249	52.85
449.375	33.85
449.501	25.85
449.627	36.85
449.752	59.85
449.878	27.85
450.004	24.85
450.13	34.85
450.256	27.85
450.381	21.85
450.507	31.85
450.633	24.85
450.759	26.85
450.884	13.85
451.01	53.85
451.136	32.85
451.262	25.85
451.388	20.85
451.513	29.85
451.639	35.85
451.765	41.85
451.89	23.85
452.016	21.85
452.142	25.85
452.268	13.85
452.393	46.85
452.519	19.85
452.645	34.85
452.771	14.85
452.896	28.85
453.022	19.85
453.148	42.85
453.273	26.85
453.399	29.85
453.525	26.85
453.65	27.85
453.776	38.85
453.902	44.85
454.027	41.85
454.153	32.85
454.279	41.85
454.404	27.85
454.53	55.85
454.656	57.85
454.781	16.85
454.907	20.85
455.032	24.85
455.158	26.85
455.284	49.85
455.409	36.85
455.535	27.85
455.66	33.85
455.786	23.85
455.912	15.85
456.037	-4.15
456.163	21.85
456.288	27.85
456.414	24.85
456.539	2.85
456.665	52.85
456.791	29.85
456.916	19.85
457.042	27.85
457.167	22.85
457.293	42.85
457.418	22.85
457.544	26.85
457.669	13.85
457.795	10.85
457.92	20.85
458.046	0.85
458.171	24.85
458.297	17.85
458.422	25.85
458.548	31.85
458.673	37.85
458.799	18.85
458.924	15.85
459.05	34.85
459.175	30.85
459.301	26.85
459.426	29.85
459.552	31.85
459.677	36.85
459.803	61.85
459.928	46.85
460.053	24.85
460.179	37.85
460.304	38.85
460.43	23.85
460.555	16.85
460.681	25.85
460.806	18.85
460.931	37.85
461.057	37.85
461.182	52.85
461.308	36.85
461.433	29.85
461.558	13.85
461.684	38.85
461.809	36.85
461.934	45.85
462.06	22.85
462.185	14.85
462.311	20.85
462.436	22.85
462.561	33.85
462.687	25.85
462.812	22.85
462.937	13.85
463.063	14.85
463.188	27.85
463.313	23.85
463.439	24.85
463.564	13.85
463.689	28.85
463.814	32.85
463.94	17.85
464.065	21.85
464.19	38.85
464.316	21.85
464.441	15.85
464.566	5.85
464.692	8.85
464.817	34.85
464.942	7.85
465.067	36.85
465.193	13.85
465.318	12.85
465.443	22.85
465.568	20.85
465.694	31.85
465.819	67.85
465.944	44.85
466.069	23.85
466.194	15.85
466.32	38.85
466.445	28.85
466.57	22.85
466.695	24.85
466.82	40.85
466.946	44.85
467.071	34.85
467.196	37.85
467.321	37.85
467.446	35.85
467.572	33.85
467.697	29.85
467.822	30.85
467.947	37.85
468.072	27.85
468.197	25.85
468.323	18.85
468.448	28.85
468.573	33.85
468.698	14.85
468.823	30.85
468.948	36.85
469.073	47.85
469.198	37.85
469.324	45.85
469.449	37.85
469.574	40.85
469.699	53.85
469.824	50.85
469.949	47.85
470.074	37.85
470.199	53.85
470.324	43.85
470.449	48.85
470.574	33.85
470.7	35.85
470.825	46.85
470.95	47.85
471.075	32.85
471.2	60.85
471.325	66.85
471.45	38.85
471.575	23.85
471.7	40.85
471.825	28.85
471.95	23.85
472.075	22.85
472.2	33.85
472.325	27.85
472.45	11.85
472.575	33.85
472.7	42.85
472.825	42.85
472.95	50.85
473.075	23.85
473.2	37.85
473.325	43.85
473.45	42.85
473.575	27.85
473.7	41.85
473.825	36.85
473.95	32.85
474.075	45.85
474.2	7.85
474.325	17.85
474.45	44.85
474.574	41.85
474.699	36.85
474.824	45.85
474.949	10.85
475.074	10.85
475.199	18.85
475.324	15.85
475.449	14.85
475.574	13.85
475.699	20.85
475.824	-2.15
475.949	14.85
476.073	9.85
476.198	12.85
476.323	23.85
476.448	29.85
476.573	13.85
476.698	40.85
476.823	25.85
476.947	30.85
477.072	24.85
477.197	25.85
477.322	23.85
477.447	12.85
477.572	13.85
477.697	7.85
477.821	17.85
477.946	27.85
478.071	32.85
478.196	37.85
478.321	16.85
478.445	32.85
478.57	7.85
478.695	21.85
478.82	26.85
478.945	32.85
479.069	19.85
479.194	17.85
479.319	30.85
479.444	24.85
479.569	20.85
479.693	35.85
479.818	39.85
479.943	45.85
480.068	31.85
480.192	21.85
480.317	21.85
480.442	11.85
480.567	13.85
480.691	16.85
480.816	19.85
480.941	8.85
481.066	38.85
481.19	29.85
481.315	36.85
481.44	14.85
481.564	-12.15
481.689	9.85
481.814	24.85
481.938	23.85
482.063	5.85
482.188	13.85
482.313	30.85
482.437	1.85
482.562	35.85
482.687	36.85
482.811	6.85
482.936	16.85
483.061	32.85
483.185	18.85
483.31	17.85
483.435	19.85
483.559	25.85
483.684	25.85
483.808	38.85
483.933	30.85
484.058	5.85
484.182	19.85
484.307	19.85
484.432	23.85
484.556	11.85
484.681	2.85
484.805	27.85
484.93	21.85
485.055	30.85
485.179	38.85
485.304	33.85
485.428	15.85
485.553	7.85
485.678	41.85
485.802	41.85
485.927	39.85
486.051	30.85
486.176	18.85
486.3	8.85
486.425	19.85
486.549	43.85
486.674	23.85
486.799	8.85
486.923	2.85
487.048	10.85
487.172	17.85
487.297	25.85
487.421	13.85
487.546	21.85
487.67	27.85
487.795	2.85
487.919	24.85
488.044	39.85
488.168	42.85
488.293	32.85
488.417	10.85
488.542	24.85
488.666	25.85
488.791	32.85
488.915	16.85
489.04	38.85
489.164	30.85
489.289	21.85
489.413	5.85
489.538	33.85
489.662	29.85
489.786	15.85
489.911	18.85
490.035	30.85
490.16	10.85
490.284	28.85
490.409	2.85
490.533	25.85
490.658	33.85
490.782	28.85
490.906	43.85
491.031	112.85
491.155	139.85
491.28	149.85
491.404	174.85
491.528	249.85
491.653	148.85
491.777	73.85
491.902	25.85
492.026	28.85
492.15	12.85
492.275	33.85
492.399	20.85
492.524	15.85
492.648	25.85
492.772	37.85
492.897	24.85
493.021	24.85
493.145	25.85
493.27	26.85
493.394	24.85
493.518	22.85
493.643	29.85
493.767	33.85
493.891	3.85
494.016	17.85
494.14	9.85
494.264	30.85
494.389	22.85
494.513	24.85
494.637	2.85
494.762	28.85
494.886	38.85
495.01	29.85
495.134	24.85
495.259	40.85
495.383	28.85
495.507	31.85
495.632	40.85
495.756	44.85
495.88	29.85
496.004	17.85
496.129	11.85
496.253	28.85
496.377	20.85
496.501	31.85
496.626	8.85
496.75	31.85
496.874	34.85
496.998	24.85
497.123	10.85
497.247	41.85
497.371	10.85
497.495	2.85
497.62	21.85
497.744	14.85
497.868	5.85
497.992	21.85
498.116	13.85
498.241	31.85
498.365	22.85
498.489	28.85
498.613	54.85
498.737	24.85
498.862	22.85
498.986	22.85
499.11	36.85
499.234	26.85
499.358	20.85
499.482	16.85
499.607	40.85
499.731	32.85
499.855	35.85
499.979	10.85
500.103	20.85
500.227	27.85
500.351	29.85
500.476	6.85
500.6	21.85
500.724	40.85
500.848	25.85
500.972	47.85
501.096	7.85
501.22	18.85
501.344	12.85
501.469	19.85
501.593	27.85
501.717	13.85
501.841	13.85
501.965	20.85
502.089	12.85
502.213	23.85
502.337	26.85
502.461	31.85
502.585	33.85
502.709	20.85
502.834	20.85
502.958	22.85
503.082	26.85
503.206	39.85
503.33	29.85
503.454	42.85
503.578	20.85
503.702	31.85
503.826	17.85
503.95	31.85
504.074	23.85
504.198	30.85
504.322	6.85
504.446	-1.15
504.57	6.85
504.694	10.85
504.818	35.85
504.942	28.85
505.066	47.85
505.19	26.85
505.314	29.85
505.438	39.85
505.562	30.85
505.686	34.85
505.81	32.85
505.934	42.85
506.058	29.85
506.182	28.85
506.306	43.85
506.43	1.85
506.554	22.85
506.678	31.85
506.802	12.85
506.926	32.85
507.05	25.85
507.174	26.85
507.298	35.85
507.422	33.85
507.546	21.85
507.67	38.85
507.794	20.85
507.918	30.85
508.042	31.85
508.165	14.85
508.289	15.85
508.413	20.85
508.537	24.85
508.661	31.85
508.785	20.85
508.909	25.85
509.033	39.85
509.157	25.85
509.281	38.85
509.405	34.85
509.528	38.85
509.652	42.85
509.776	16.85
509.9	47.85
510.024	32.85
510.148	27.85
510.272	31.85
510.396	35.85
510.519	32.85
510.643	40.85
510.767	40.85
510.891	46.85
511.015	17.85
511.139	40.85
511.263	62.85
511.386	42.85
511.51	54.85
511.634	26.85
511.758	29.85
511.882	47.85
512.006	43.85
512.129	58.85
512.253	84.85
512.377	88.85
512.501	104.85
512.625	93.85
512.748	84.85
512.872	87.85
512.996	38.85
513.12	62.85
513.244	38.85
513.367	80.85
513.491	77.85
513.615	67.85
513.739	67.85
513.862	77.85
513.986	77.85
514.11	86.85
514.234	79.85
514.358	93.85
514.481	119.85
514.605	115.85
514.729	119.85
514.853	111.85
514.976	76.85
515.1	83.85
515.224	123.85
515.348	74.85
515.471	79.85
515.595	91.85
515.719	129.85
515.842	221.85
515.966	269.85
516.09	303.85
516.214	311.85
516.337	343.85
516.461	220.85
516.585	81.85
516.708	37.85
516.832	21.85
516.956	17.85
517.08	25.85
517.203	17.85
517.327	13.85
517.451	25.85
517.574	17.85
517.698	-9.15
517.822	18.85
517.945	30.85
518.069	20.85
518.193	44.85
518.316	34.85
518.44	24.85
518.564	7.85
518.687	14.85
518.811	24.85
518.935	53.85
519.058	8.85
519.182	1.85
519.306	16.85
519.429	15.85
519.553	50.85
519.676	31.85
519.8	13.85
519.924	13.85
520.047	19.85
520.171	18.85
520.294	22.85
520.418	21.85
520.542	31.85
520.665	34.85
520.789	28.85
520.913	14.85
521.036	-0.15
521.16	10.85
521.283	12.85
521.407	6.85
521.53	-2.15
521.654	-3.15
521.778	36.85
521.901	22.85
522.025	10.85
522.148	4.85
522.272	23.85
522.395	33.85
522.519	47.85
522.643	26.85
522.766	8.85
522.89	24.85
523.013	28.85
523.137	7.85
523.26	6.85
523.384	19.85
523.507	14.85
523.631	24.85
523.754	0.85
523.878	22.85
524.002	27.85
524.125	16.85
524.249	-1.15
524.372	9.85
524.496	29.85
524.619	15.85
524.743	13.85
524.866	32.85
524.99	18.85
525.113	0.85
525.237	22.85
525.36	10.85
525.484	20.85
525.607	3.85
525.731	2.85
525.854	6.85
525.978	22.85
526.101	16.85
526.224	15.85
526.348	13.85
526.471	29.85
526.595	34.85
526.718	21.85
526.842	10.85
526.965	33.85
527.089	23.85
527.212	26.85
527.336	19.85
527.459	31.85
527.582	12.85
527.706	34.85
527.829	12.85
527.953	16.85
528.076	7.85
528.2	8.85
528.323	30.85
528.446	33.85
528.57	11.85
528.693	10.85
528.817	18.85
528.94	31.85
529.064	38.85
529.187	12.85
529.31	29.85
529.434	-1.15
529.557	2.85
529.68	15.85
529.804	26.85
529.927	26.85
530.051	27.85
530.174	16.85
530.297	7.85
530.421	30.85
530.544	32.85
530.668	25.85
530.791	19.85
530.914	42.85
531.038	19.85
531.161	20.85
531.284	18.85
531.408	22.85
531.531	20.85
531.654	14.85
531.778	23.85
531.901	7.85
532.024	43.85
532.148	11.85
532.271	20.85
532.394	8.85
532.518	19.85
532.641	16.85
532.764	20.85
532.888	22.85
533.011	-3.15
533.134	-0.15
533.258	28.85
533.381	16.85
533.504	29.85
533.628	10.85
533.751	36.85
533.874	22.85
533.997	13.85
534.121	21.85
534.244	16.85
534.367	14.85
534.491	14.85
534.614	18.85
534.737	32.85
534.86	31.85
534.984	17.85
535.107	0.85
535.23	8.85
535.354	4.85
535.477	13.85
535.6	2.85
535.723	10.85
535.847	8.85
535.97	-12.15
536.093	20.85
536.216	17.85
536.34	25.85
536.463	6.85
536.586	29.85
536.709	22.85
536.833	16.85
536.956	28.85
537.079	22.85
537.202	32.85
537.325	0.85
537.449	6.85
537.572	33.85
537.695	7.85
537.818	3.85
537.941	4.85
538.065	23.85
538.188	22.85
538.311	30.85
538.434	33.85
538.558	22.85
538.681	25.85
538.804	22.85
538.927	26.85
539.05	25.85
539.173	22.85
539.297	16.85
539.42	17.85
539.543	25.85
539.666	47.85
539.789	24.85
539.913	20.85
540.036	31.85
540.159	44.85
540.282	14.85
540.405	25.85
540.528	15.85
540.651	32.85
540.775	12.85
540.898	17.85
541.021	29.85
541.144	37.85
541.267	43.85
541.39	27.85
541.513	46.85
541.637	42.85
541.76	25.85
541.883	24.85
542.006	41.85
542.129	53.85
542.252	22.85
542.375	58.85
542.498	49.85
542.622	62.85
542.745	41.85
542.868	34.85
542.991	52.85
543.114	62.85
543.237	47.85
543.36	70.85
543.483	50.85
543.606	74.85
543.73	79.85
543.853	69.85
543.976	86.85
544.099	120.85
544.222	120.85
544.345	130.85
544.468	161.85
544.591	219.85
544.714	272.85
544.837	353.85
544.96	453.85
545.083	681.85
545.206	1082.85
545.329	2453.85
545.453	10979.85
545.576	15264.85
545.699	15683.85
545.822	15683.85
545.945	15683.85
546.068	15683.85
546.191	15683.85
546.314	15683.85
546.437	15683.85
546.56	15683.85
546.683	15683.85
546.806	15683.85
546.929	15683.85
547.052	15683.85
547.175	15683.85
547.298	15683.85
547.421	15683.85
547.544	15683.85
547.667	3525.85
547.79	2144.85
547.913	1003.85
548.036	851.85
548.159	622.85
548.282	629.85
548.405	507.85
548.528	500.85
548.651	392.85
548.774	390.85
548.897	348.85
549.02	366.85
549.143	331.85
549.266	306.85
549.389	259.85
549.512	236.85
549.635	238.85
549.758	256.85
549.881	233.85
550.004	222.85
550.127	196.85
550.25	212.85
550.373	171.85
550.496	197.85
550.619	152.85
550.742	141.85
550.865	137.85
550.988	173.85
551.111	149.85
551.234	147.85
551.356	130.85
551.479	136.85
551.602	135.85
551.725	135.85
551.848	149.85
551.971	146.85
552.094	129.85
552.217	105.85
552.34	129.85
552.463	95.85
552.586	118.85
552.709	104.85
552.832	112.85
552.955	117.85
553.077	105.85
553.2	97.85
553.323	81.85
553.446	97.85
553.569	117.85
553.692	110.85
553.815	105.85
553.938	99.85
554.061	103.85
554.184	85.85
554.306	76.85
554.429	85.85
554.552	79.85
554.675	68.85
554.798	80.85
554.921	90.85
555.044	57.85
555.167	70.85
555.29	74.85
555.412	71.85
555.535	78.85
555.658	76.85
555.781	82.85
555.904	65.85
556.027	71.85
556.15	89.85
556.272	74.85
556.395	73.85
556.518	79.85
556.641	58.85
556.764	97.85
556.887	87.85
557.01	66.85
557.132	68.85
557.255	66.85
557.378	78.85
557.501	73.85
557.624	70.85
557.747	73.85
557.869	85.85
557.992	88.85
558.115	93.85
558.238	82.85
558.361	82.85
558.483	80.85
558.606	61.85
558.729	52.85
558.852	72.85
558.975	78.85
559.098	74.85
559.22	55.85
559.343	50.85
559.466	54.85
559.589	56.85
559.712	63.85
559.834	45.85
559.957	40.85
560.08	55.85
560.203	52.85
560.325	74.85
560.448	68.85
560.571	53.85
560.694	55.85
560.817	57.85
560.939	43.85
561.062	63.85
561.185	71.85
561.308	68.85
561.43	47.85
561.553	61.85
561.676	49.85
561.799	68.85
561.921	68.85
562.044	59.85
562.167	55.85
562.29	84.85
562.413	62.85
562.535	63.85
562.658	41.85
562.781	57.85
562.903	73.85
563.026	87.85
563.149	137.85
563.272	137.85
563.394	109.85
563.517	94.85
563.64	69.85
563.763	56.85
563.885	62.85
564.008	57.85
564.131	59.85
564.254	45.85
564.376	38.85
564.499	17.85
564.622	41.85
564.744	59.85
564.867	42.85
564.99	55.85
565.113	30.85
565.235	28.85
565.358	45.85
565.481	30.85
565.603	31.85
565.726	37.85
565.849	47.85
565.971	54.85
566.094	27.85
566.217	17.85
566.34	40.85
566.462	39.85
566.585	24.85
566.708	47.85
566.83	26.85
566.953	54.85
567.076	36.85
567.198	18.85
567.321	23.85
567.444	41.85
567.566	29.85
567.689	41.85
567.812	30.85
567.934	24.85
568.057	33.85
568.18	33.85
568.302	29.85
568.425	33.85
568.548	37.85
568.67	32.85
568.793	29.85
568.916	39.85
569.038	40.85
569.161	33.85
569.283	34.85
569.406	35.85
569.529	26.85
569.651	27.85
569.774	23.85
569.897	38.85
570.019	47.85
570.142	57.85
570.265	44.85
570.387	17.85
570.51	36.85
570.632	53.85
570.755	29.85
570.878	31.85
571	45.85
571.123	29.85
571.246	32.85
571.368	13.85
571.491	34.85
571.613	16.85
571.736	11.85
571.859	32.85
571.981	20.85
572.104	31.85
572.226	42.85
572.349	17.85
572.472	43.85
572.594	49.85
572.717	39.85
572.839	15.85
572.962	31.85
573.085	41.85
573.207	22.85
573.33	25.85
573.452	50.85
573.575	32.85
573.697	35.85
573.82	29.85
573.943	12.85
574.065	43.85
574.188	44.85
574.31	33.85
574.433	31.85
574.555	36.85
574.678	27.85
574.801	27.85
574.923	12.85
575.046	36.85
575.168	45.85
575.291	34.85
575.413	42.85
575.536	50.85
575.659	52.85
575.781	44.85
575.904	55.85
576.026	70.85
576.149	84.85
576.271	125.85
576.394	200.85
576.516	513.85
576.639	3568.85
576.761	10194.85
576.884	8832.85
577.007	8820.85
577.129	8018.85
577.252	3689.85
577.374	1300.85
577.497	522.85
577.619	289.85
577.742	180.85
577.864	153.85
577.987	128.85
578.109	124.85
578.232	130.85
578.354	174.85
578.477	181.85
578.599	378.85
578.722	1943.85
578.844	9105.85
578.967	9805.85
579.089	8755.85
579.212	9076.85
579.334	5247.85
579.457	1904.85
579.579	725.85
579.702	337.85
579.824	198.85
579.947	121.85
580.069	100.85
580.192	92.85
580.314	94.85
580.437	77.85
580.559	84.85
580.682	66.85
580.804	70.85
580.927	84.85
581.049	81.85
581.172	64.85
581.294	58.85
581.417	50.85
581.539	47.85
581.662	42.85
581.784	69.85
581.907	39.85
582.029	56.85
582.152	34.85
582.274	37.85
582.396	52.85
582.519	64.85
582.641	26.85
582.764	42.85
582.886	47.85
583.009	38.85
583.131	37.85
583.254	31.85
583.376	24.85
583.499	38.85
583.621	51.85
583.743	41.85
583.866	52.85
583.988	44.85
584.111	30.85
584.233	40.85
584.356	52.85
584.478	32.85
584.601	18.85
584.723	30.85
584.845	27.85
584.968	20.85
585.09	12.85
585.213	47.85
585.335	32.85
585.458	19.85
585.58	30.85
585.702	39.85
585.825	49.85
585.947	24.85
586.07	35.85
586.192	6.85
586.315	43.85
586.437	33.85
586.559	29.85
586.682	32.85
586.804	28.85
586.927	21.85
587.049	32.85
587.171	21.85
587.294	47.85
587.416	35.85
587.539	38.85
587.661	20.85
587.783	22.85
587.906	20.85
588.028	38.85
588.151	28.85
588.273	48.85
588.395	16.85
588.518	12.85
588.64	17.85
588.763	41.85
588.885	28.85
589.007	43.85
589.13	5.85
589.252	17.85
589.375	24.85
589.497	37.85
589.619	34.85
589.742	30.85
589.864	38.85
589.986	16.85
590.109	29.85
590.231	28.85
590.354	53.85
590.476	23.85
590.598	26.85
590.721	20.85
590.843	41.85
590.965	37.85
591.088	20.85
591.21	23.85
591.332	28.85
591.455	25.85
591.577	30.85
591.7	24.85
591.822	20.85
591.944	26.85
592.067	30.85
592.189	36.85
592.311	31.85
592.434	16.85
592.556	12.85
592.678	26.85
592.801	28.85
592.923	33.85
593.045	37.85
593.168	21.85
593.29	34.85
593.412	36.85
593.535	9.85
593.657	16.85
593.779	13.85
593.902	30.85
594.024	20.85
594.146	34.85
594.269	38.85
594.391	13.85
594.513	28.85
594.636	34.85
594.758	12.85
594.88	41.85
595.003	38.85
595.125	26.85
595.247	43.85
595.37	33.85
595.492	15.85
595.614	40.85
595.737	14.85
595.859	20.85
595.981	27.85
596.104	31.85
596.226	25.85
596.348	14.85
596.471	13.85
596.593	27.85
596.715	22.85
596.838	21.85
596.96	5.85
597.082	28.85
597.204	29.85
597.327	26.85
597.449	21.85
597.571	17.85
597.694	22.85
597.816	28.85
597.938	22.85
598.061	13.85
598.183	12.85
598.305	29.85
598.427	37.85
598.55	25.85
598.672	36.85
598.794	30.85
598.917	19.85
599.039	24.85
599.161	30.85
599.283	7.85
599.406	26.85
599.528	26.85
599.65	48.85
599.773	24.85
599.895	33.85
600.017	34.85
600.139	38.85
600.262	5.85
600.384	15.85
600.506	26.85
600.628	38.85
600.751	34.85
600.873	37.85
600.995	21.85
601.118	23.85
601.24	27.85
601.362	41.85
601.484	26.85
601.607	41.85
601.729	17.85
601.851	9.85
601.973	23.85
602.096	24.85
602.218	26.85
602.34	31.85
602.462	27.85
602.585	22.85
602.707	9.85
602.829	53.85
602.951	28.85
603.074	22.85
603.196	34.85
603.318	24.85
603.44	38.85
603.563	24.85
603.685	26.85
603.807	30.85
603.929	30.85
604.052	32.85
604.174	32.85
604.296	28.85
604.418	35.85
604.541	47.85
604.663	27.85
604.785	12.85
604.907	34.85
605.03	24.85
605.152	47.85
605.274	5.85
605.396	23.85
605.519	22.85
605.641	21.85
605.763	31.85
605.885	24.85
606.008	22.85
606.13	42.85
606.252	51.85
606.374	13.85
606.496	7.85
606.619	23.85
606.741	13.85
606.863	29.85
606.985	43.85
607.108	24.85
607.23	25.85
607.352	18.85
607.474	18.85
607.596	22.85
607.719	30.85
607.841	28.85
607.963	26.85
608.085	31.85
608.207	41.85
608.33	31.85
608.452	14.85
608.574	11.85
608.696	30.85
608.819	15.85
608.941	38.85
609.063	25.85
609.185	23.85
609.307	20.85
609.43	22.85
609.552	21.85
609.674	8.85
609.796	30.85
609.918	36.85
610.041	23.85
610.163	32.85
610.285	20.85
610.407	33.85
610.529	7.85
610.652	29.85
610.774	32.85
610.896	13.85
611.018	36.85
611.14	33.85
611.263	32.85
611.385	20.85
611.507	30.85
611.629	10.85
611.751	8.85
611.873	49.85
611.996	34.85
612.118	29.85
612.24	24.85
612.362	34.85
612.484	47.85
612.607	47.85
612.729	49.85
612.851	32.85
612.973	28.85
613.095	19.85
613.218	28.85
613.34	24.85
613.462	23.85
613.584	13.85
613.706	20.85
613.828	38.85
613.951	23.85
614.073	21.85
614.195	8.85
614.317	35.85
614.439	24.85
614.561	22.85
614.684	18.85
614.806	21.85
614.928	32.85
615.05	26.85
615.172	23.85
615.294	38.85
615.417	24.85
615.539	32.85
615.661	25.85
615.783	34.85
615.905	22.85
616.027	14.85
616.15	39.85
616.272	39.85
616.394	7.85
616.516	5.85
616.638	33.85
616.76	15.85
616.883	34.85
617.005	14.85
617.127	29.85
617.249	18.85
617.371	18.85
617.493	11.85
617.615	41.85
617.738	20.85
617.86	29.85
617.982	16.85
618.104	21.85
618.226	3.85
618.348	9.85
618.471	27.85
618.593	21.85
618.715	14.85
618.837	25.85
618.959	17.85
619.081	19.85
619.203	30.85
619.326	37.85
619.448	23.85
619.57	31.85
619.692	31.85
619.814	25.85
619.936	33.85
620.058	31.85
620.181	31.85
620.303	30.85
620.425	32.85
620.547	10.85
620.669	16.85
620.791	9.85
620.913	6.85
621.036	7.85
621.158	27.85
621.28	20.85
621.402	16.85
621.524	30.85
621.646	4.85
621.768	1.85
621.891	-5.15
622.013	8.85
622.135	21.85
622.257	-0.15
622.379	16.85
622.501	30.85
622.623	26.85
622.745	24.85
622.868	14.85
622.99	20.85
623.112	13.85
623.234	13.85
623.356	38.85
623.478	22.85
623.6	21.85
623.722	26.85
623.845	48.85
623.967	24.85
624.089	20.85
624.211	13.85
624.333	26.85
624.455	9.85
624.577	20.85
624.699	21.85
624.822	8.85
624.944	27.85
625.066	20.85
625.188	8.85
625.31	29.85
625.432	53.85
625.554	26.85
625.676	46.85
625.799	33.85
625.921	36.85
626.043	23.85
626.165	12.85
626.287	0.85
626.409	39.85
626.531	28.85
626.653	0.85
626.775	24.85
626.898	26.85
627.02	26.85
627.142	31.85
627.264	32.85
627.386	23.85
627.508	29.85
627.63	9.85
627.752	23.85
627.874	10.85
627.997	42.85
628.119	36.85
628.241	21.85
628.363	24.85
628.485	10.85
628.607	7.85
628.729	11.85
628.851	22.85
628.973	22.85
629.096	0.85
629.218	-4.15
629.34	10.85
629.462	8.85
629.584	20.85
629.706	4.85
629.828	19.85
629.95	38.85
630.072	29.85
630.195	-2.15
630.317	20.85
630.439	12.85
630.561	25.85
630.683	14.85
630.805	33.85
630.927	22.85
631.049	34.85
631.171	18.85
631.293	15.85
631.416	21.85
631.538	17.85
631.66	7.85
631.782	35.85
631.904	34.85
632.026	11.85
632.148	7.85
632.27	17.85
632.392	13.85
632.514	20.85
632.637	20.85
632.759	25.85
632.881	-8.15
633.003	-9.15
633.125	1.85
633.247	17.85
633.369	10.85
633.491	11.85
633.613	11.85
633.735	14.85
633.858	25.85
633.98	8.85
634.102	-2.15
634.224	-1.15
634.346	26.85
634.468	27.85
634.59	14.85
634.712	12.85
634.834	4.85
634.956	18.85
635.078	13.85
635.201	20.85
635.323	14.85
635.445	-3.15
635.567	-1.15
635.689	-5.15
635.811	15.85
635.933	9.85
636.055	16.85
636.177	11.85
636.299	17.85
636.421	4.85
636.544	-4.15
636.666	25.85
636.788	13.85
636.91	14.85
637.032	16.85
637.154	14.85
637.276	43.85
637.398	42.85
637.52	24.85
637.642	25.85
637.764	20.85
637.887	4.85
638.009	-5.15
638.131	7.85
638.253	10.85
638.375	16.85
638.497	0.85
638.619	-3.15
638.741	20.85
638.863	-9.15
638.985	15.85
639.107	9.85
639.23	-1.15
639.352	15.85
639.474	1.85
639.596	13.85
639.718	16.85
639.84	31.85
639.962	17.85
640.084	20.85
640.206	31.85
640.328	8.85
640.45	20.85
640.573	23.85
640.695	6.85
640.817	7.85
640.939	21.85
641.061	19.85
641.183	12.85
641.305	9.85
641.427	7.85
641.549	6.85
641.671	26.85
641.793	-4.15
641.915	21.85
642.038	14.85
642.16	12.85
642.282	17.85
642.404	4.85
642.526	26.85
642.648	5.85
642.77	-1.15
642.892	1.85
643.014	20.85
643.136	16.85
643.258	16.85
643.381	11.85
643.503	20.85
643.625	0.85
643.747	-8.15
643.869	6.85
643.991	34.85
644.113	8.85
644.235	28.85
644.357	13.85
644.479	12.85
644.601	13.85
644.723	22.85
644.846	26.85
644.968	1.85
645.09	1.85
645.212	-1.15
645.334	28.85
645.456	36.85
645.578	27.85
645.7	24.85
645.822	6.85
645.944	14.85
646.066	8.85
646.188	5.85
646.311	33.85
646.433	7.85
646.555	48.85
646.677	26.85
646.799	11.85
646.921	8.85
647.043	30.85
647.165	-0.15
647.287	12.85
647.409	12.85
647.531	41.85
647.654	11.85
647.776	28.85
647.898	20.85
648.02	10.85
648.142	7.85
648.264	21.85
648.386	6.85
648.508	10.85
648.63	7.85
648.752	22.85
648.874	17.85
648.997	19.85
649.119	19.85
649.241	12.85
649.363	16.85
649.485	20.85
649.607	5.85
649.729	2.85
649.851	16.85
649.973	9.85
650.095	21.85
650.217	5.85
650.34	6.85
650.462	28.85
650.584	12.85
650.706	27.85
650.828	12.85
650.95	10.85
651.072	16.85
651.194	-2.15
651.316	13.85
651.438	15.85
651.56	6.85
651.683	15.85
651.805	22.85
651.927	6.85
652.049	-1.15
652.171	1.85
652.293	19.85
652.415	14.85
652.537	13.85
652.659	-11.15
652.781	23.85
652.903	26.85
653.026	27.85
653.148	16.85
653.27	29.85
653.392	32.85
653.514	8.85
653.636	1.85
653.758	12.85
653.88	0.85
654.002	9.85
654.124	11.85
654.247	10.85
654.369	24.85
654.491	13.85
654.613	9.85
654.735	-5.15
654.857	25.85
654.979	7.85
655.101	-1.15
655.223	38.85
655.345	5.85
655.468	25.85
655.59	6.85
655.712	13.85
655.834	6.85
655.956	23.85
656.078	17.85
656.2	17.85
656.322	8.85
656.444	-4.15
656.566	14.85
656.689	10.85
656.811	12.85
656.933	17.85
657.055	2.85
657.177	9.85
657.299	-0.15
657.421	17.85
657.543	5.85
657.665	1.85
657.787	9.85
657.91	8.85
658.032	17.85
658.154	3.85
658.276	8.85
658.398	-12.15
658.52	7.85
658.642	6.85
658.764	10.85
658.886	-7.15
659.009	2.85
659.131	38.85
659.253	20.85
659.375	1.85
659.497	10.85
659.619	8.85
659.741	-8.15
659.863	4.85
659.985	-0.15
660.108	18.85
660.23	10.85
660.352	-7.15
660.474	33.85
660.596	10.85
660.718	17.85
660.84	8.85
660.962	21.85
661.084	7.85
661.207	-7.15
661.329	8.85
661.451	0.85
661.573	21.85
661.695	45.85
661.817	25.85
661.939	26.85
662.061	28.85
662.184	8.85
662.306	10.85
662.428	12.85
662.55	19.85
662.672	10.85
662.794	18.85
662.916	4.85
663.038	5.85
663.161	30.85
663.283	24.85
663.405	38.85
663.527	18.85
663.649	16.85
663.771	10.85
663.893	-3.15
664.015	8.85
664.138	15.85
664.26	27.85
664.382	12.85
664.504	14.85
664.626	13.85
664.748	18.85
664.87	8.85
664.992	16.85
665.115	11.85
665.237	20.85
665.359	13.85
665.481	6.85
665.603	5.85
665.725	0.85
665.847	10.85
665.97	12.85
666.092	12.85
666.214	32.85
666.336	-5.15
666.458	4.85
666.58	-1.15
666.702	7.85
666.825	11.85
666.947	6.85
667.069	5.85
667.191	8.85
667.313	7.85
667.435	6.85
667.557	-1.15
667.68	-1.15
667.802	4.85
667.924	8.85
668.046	10.85
668.168	37.85
668.29	33.85
668.412	6.85
668.535	8.85
668.657	5.85
668.779	-1.15
668.901	19.85
669.023	20.85
669.145	9.85
669.267	28.85
669.39	10.85
669.512	27.85
669.634	18.85
669.756	12.85
669.878	19.85
670	21.85
670.123	22.85
670.245	47.85
670.367	24.85
670.489	33.85
670.611	12.85
670.733	5.85
670.856	6.85
670.978	24.85
671.1	22.85
671.222	17.85
671.344	4.85
671.466	10.85
671.589	3.85
671.711	19.85
671.833	19.85
671.955	0.85
672.077	12.85
672.199	15.85
672.322	31.85
672.444	10.85
672.566	29.85
672.688	-5.15
672.81	4.85
672.932	6.85
673.055	14.85
673.177	-15.15
673.299	24.85
673.421	1.85
673.543	12.85
673.665	29.85
673.788	25.85
673.91	1.85
674.032	2.85
674.154	0.85
674.276	9.85
674.399	16.85
674.521	15.85
674.643	16.85
674.765	-7.15
674.887	15.85
675.009	-5.15
675.132	-6.15
675.254	-6.15
675.376	-1.15
675.498	11.85
675.62	45.85
675.743	19.85
675.865	16.85
675.987	-2.15
676.109	2.85
676.231	29.85
676.354	23.85
676.476	5.85
676.598	24.85
676.72	3.85
676.842	15.85
676.965	6.85
677.087	17.85
677.209	4.85
677.331	2.85
677.453	-0.15
677.576	5.85
677.698	26.85
677.82	14.85
677.942	5.85
678.064	-2.15
678.187	7.85
678.309	15.85
678.431	9.85
678.553	-4.15
678.675	29.85
678.798	29.85
678.92	13.85
679.042	17.85
679.164	13.85
679.286	20.85
679.409	-1.15
679.531	-0.15
679.653	-11.15
679.775	7.85
679.898	9.85
680.02	-10.15
680.142	10.85
680.264	14.85
680.386	16.85
680.509	14.85
680.631	2.85
680.753	9.85
680.875	14.85
680.998	19.85
681.12	1.85
681.242	14.85
681.364	4.85
681.486	6.85
681.609	2.85
681.731	-9.15
681.853	-1.15
681.975	3.85
682.098	15.85
682.22	22.85
682.342	-2.15
682.464	23.85
682.587	17.85
682.709	9.85
682.831	16.85
682.953	-9.15
683.076	7.85
683.198	18.85
683.32	19.85
683.442	4.85
683.565	15.85
683.687	4.85
683.809	14.85
683.931	15.85
684.054	32.85
684.176	-1.15
684.298	8.85
684.42	24.85
684.543	0.85
684.665	29.85
684.787	13.85
684.909	8.85
685.032	34.85
685.154	2.85
685.276	-0.15
685.398	5.85
685.521	-0.15
685.643	21.85
685.765	18.85
685.887	29.85
686.01	19.85
686.132	24.85
686.254	6.85
686.377	12.85
686.499	9.85
686.621	20.85
686.743	21.85
686.866	16.85
686.988	25.85
687.11	24.85
687.232	20.85
687.355	-6.15
687.477	12.85
687.599	18.85
687.722	15.85
687.844	6.85
687.966	10.85
688.088	9.85
688.211	47.85
688.333	16.85
688.455	14.85
688.578	25.85
688.7	25.85
688.822	12.85
688.944	-2.15
689.067	41.85
689.189	10.85
689.311	-1.15
689.434	2.85
689.556	22.85
689.678	19.85
689.801	10.85
689.923	5.85
690.045	17.85
690.167	30.85
690.29	22.85
690.412	16.85
690.534	17.85
690.657	10.85
690.779	10.85
690.901	18.85
691.024	12.85
691.146	15.85
691.268	-2.15
691.391	4.85
691.513	25.85
691.635	23.85
691.758	25.85
691.88	18.85
692.002	5.85
692.125	-3.15
692.247	17.85
692.369	6.85
692.492	-4.15
692.614	9.85
692.736	4.85
692.859	3.85
692.981	14.85
693.103	14.85
693.226	14.85
693.348	35.85
693.47	14.85
693.593	22.85
693.715	28.85
693.837	28.85
693.96	29.85
694.082	13.85
694.204	14.85
694.327	10.85
694.449	-17.15
694.571	12.85
694.694	14.85
694.816	9.85
694.938	2.85
695.061	1.85
695.183	18.85
695.305	16.85
695.428	30.85
695.55	14.85
695.672	11.85
695.795	14.85
695.917	25.85
696.04	12.85
696.162	17.85
696.284	15.85
696.407	8.85
696.529	-1.15
696.651	20.85
696.774	1.85
696.896	24.85
697.019	13.85
697.141	12.85
697.263	11.85
697.386	-1.15
697.508	21.85
697.63	10.85
697.753	12.85
697.875	6.85
697.998	8.85
698.12	18.85
698.242	20.85
698.365	5.85
698.487	-1.15
698.61	8.85
698.732	20.85
698.854	23.85
698.977	23.85
699.099	11.85
699.221	3.85
699.344	-3.15
699.466	-0.15
699.589	13.85
699.711	10.85
699.834	16.85
699.956	13.85
700.078	24.85
700.201	16.85
700.323	25.85
700.446	-0.15
700.568	0.85
700.69	17.85
700.813	5.85
700.935	5.85
701.058	8.85
701.18	23.85
701.302	16.85
701.425	8.85
701.547	13.85
701.67	5.85
701.792	1.85
701.915	6.85
702.037	7.85
702.159	16.85
702.282	9.85
702.404	6.85
702.527	11.85
702.649	26.85
702.772	12.85
702.894	7.85
703.017	24.85
703.139	21.85
703.261	24.85
703.384	33.85
703.506	-1.15
703.629	11.85
703.751	16.85
703.874	6.85
703.996	14.85
704.119	12.85
704.241	13.85
704.364	-9.15
704.486	20.85
704.608	8.85
704.731	6.85
704.853	23.85
704.976	1.85
705.098	10.85
705.221	18.85
705.343	13.85
705.466	12.85
705.588	10.85
705.711	18.85
705.833	9.85
705.956	15.85
706.078	18.85
706.201	-5.15
706.323	13.85
706.446	14.85
