Data from LowRes_mercury_15_20_11_07_2024_HR4C61881__5__15-23-32-771.txt Node

Date: Thu Nov 07 15:23:32 EST 2024
User: crc00042
Spectrometer: HR4C6188
Trigger mode: 4
Integration Time (sec): 1.000000E-1
Scans to average: 1
Electric dark correction enabled: true
Nonlinearity correction enabled: false
Boxcar width: 0
XAxis mode: Wavelengths
Number of Pixels in Spectrum: 3648
>>>>>Begin Spectral Data<<<<<
245.66	-65.46
245.797	-65.46
245.934	-65.46
246.071	-66.46
246.208	23.54
246.344	-6.46
246.481	-12.46
246.618	-10.46
246.755	5.54
246.892	-20.46
247.029	-16.46
247.165	-4.46
247.302	8.54
247.439	-0.46
247.576	19.54
247.713	9.54
247.849	28.54
247.986	-0.46
248.123	14.54
248.26	-10.46
248.396	5.54
248.533	2.54
248.67	-16.46
248.806	16.54
248.943	16.54
249.08	5.54
249.216	6.54
249.353	-19.46
249.49	5.54
249.626	7.54
249.763	2.54
249.9	-22.46
250.036	-10.46
250.173	2.54
250.309	-4.46
250.446	12.54
250.582	6.54
250.719	-1.46
250.856	-3.46
250.992	-15.46
251.129	-21.46
251.265	10.54
251.402	6.54
251.538	1.54
251.675	-11.46
251.811	9.54
251.948	19.54
252.084	14.54
252.221	-6.46
252.357	-14.46
252.493	18.54
252.63	4.54
252.766	17.54
252.903	2.54
253.039	-7.46
253.175	-7.46
253.312	-6.46
253.448	-0.46
253.585	-25.46
253.721	19.54
253.857	-7.46
253.994	9.54
254.13	15.54
254.266	2.54
254.403	-8.46
254.539	8.54
254.675	6.54
254.811	7.54
254.948	-8.46
255.084	5.54
255.22	-7.46
255.356	0.54
255.493	4.54
255.629	10.54
255.765	6.54
255.901	0.54
256.037	18.54
256.174	5.54
256.31	-8.46
256.446	-21.46
256.582	-13.46
256.718	18.54
256.854	36.54
256.991	18.54
257.127	25.54
257.263	-12.46
257.399	-4.46
257.535	-3.46
257.671	-6.46
257.807	-3.46
257.943	6.54
258.079	-13.46
258.215	-11.46
258.351	5.54
258.487	1.54
258.623	24.54
258.759	-1.46
258.895	-3.46
259.031	14.54
259.167	-23.46
259.303	20.54
259.439	-3.46
259.575	7.54
259.711	-1.46
259.847	5.54
259.983	9.54
260.119	1.54
260.255	-2.46
260.391	15.54
260.527	21.54
260.663	15.54
260.799	9.54
260.934	-5.46
261.07	-1.46
261.206	-12.46
261.342	-3.46
261.478	13.54
261.614	8.54
261.749	-6.46
261.885	-13.46
262.021	7.54
262.157	17.54
262.293	2.54
262.428	-3.46
262.564	-10.46
262.7	21.54
262.836	15.54
262.971	7.54
263.107	14.54
263.243	14.54
263.378	3.54
263.514	-8.46
263.65	22.54
263.785	-10.46
263.921	-9.46
264.057	-0.46
264.192	27.54
264.328	23.54
264.464	-3.46
264.599	1.54
264.735	19.54
264.871	-6.46
265.006	13.54
265.142	16.54
265.277	9.54
265.413	37.54
265.548	29.54
265.684	14.54
265.819	-6.46
265.955	-21.46
266.091	-25.46
266.226	-2.46
266.362	0.54
266.497	8.54
266.633	1.54
266.768	-9.46
266.903	2.54
267.039	25.54
267.174	28.54
267.31	5.54
267.445	-6.46
267.581	-8.46
267.716	7.54
267.851	14.54
267.987	-3.46
268.122	21.54
268.258	-9.46
268.393	-2.46
268.528	9.54
268.664	-13.46
268.799	-8.46
268.934	-4.46
269.07	0.54
269.205	-1.46
269.34	24.54
269.476	21.54
269.611	-20.46
269.746	9.54
269.881	1.54
270.017	11.54
270.152	5.54
270.287	-8.46
270.422	-2.46
270.558	-20.46
270.693	10.54
270.828	4.54
270.963	6.54
271.098	-2.46
271.234	12.54
271.369	19.54
271.504	1.54
271.639	-13.46
271.774	-21.46
271.909	0.54
272.045	-16.46
272.18	0.54
272.315	-0.46
272.45	1.54
272.585	-17.46
272.72	-2.46
272.855	-0.46
272.99	16.54
273.125	-20.46
273.26	-14.46
273.395	-13.46
273.53	-5.46
273.665	7.54
273.8	0.54
273.935	15.54
274.07	1.54
274.205	5.54
274.34	8.54
274.475	-8.46
274.61	10.54
274.745	-2.46
274.88	9.54
275.015	-10.46
275.15	6.54
275.285	27.54
275.42	13.54
275.555	16.54
275.69	9.54
275.825	0.54
275.959	0.54
276.094	-4.46
276.229	-7.46
276.364	-6.46
276.499	0.54
276.634	-12.46
276.768	-12.46
276.903	8.54
277.038	20.54
277.173	12.54
277.308	-2.46
277.442	-0.46
277.577	-11.46
277.712	-3.46
277.847	6.54
277.981	25.54
278.116	-7.46
278.251	-5.46
278.386	-2.46
278.52	0.54
278.655	1.54
278.79	25.54
278.924	24.54
279.059	10.54
279.194	-5.46
279.328	46.54
279.463	14.54
279.598	23.54
279.732	35.54
279.867	22.54
280.001	11.54
280.136	11.54
280.271	7.54
280.405	2.54
280.54	-3.46
280.674	4.54
280.809	28.54
280.943	1.54
281.078	-4.46
281.213	17.54
281.347	11.54
281.482	3.54
281.616	-2.46
281.751	9.54
281.885	-5.46
282.02	-1.46
282.154	5.54
282.288	-17.46
282.423	-9.46
282.557	-23.46
282.692	1.54
282.826	8.54
282.961	24.54
283.095	-6.46
283.229	5.54
283.364	-2.46
283.498	-3.46
283.633	13.54
283.767	19.54
283.901	5.54
284.036	4.54
284.17	-10.46
284.304	-10.46
284.439	5.54
284.573	-1.46
284.707	25.54
284.842	0.54
284.976	-8.46
285.11	-17.46
285.244	5.54
285.379	32.54
285.513	-7.46
285.647	8.54
285.781	9.54
285.916	25.54
286.05	1.54
286.184	14.54
286.318	26.54
286.453	-3.46
286.587	-8.46
286.721	-20.46
286.855	15.54
286.989	14.54
287.123	5.54
287.258	-6.46
287.392	8.54
287.526	6.54
287.66	4.54
287.794	-4.46
287.928	-4.46
288.062	-2.46
288.196	9.54
288.33	20.54
288.464	22.54
288.598	32.54
288.733	6.54
288.867	21.54
289.001	1.54
289.135	14.54
289.269	9.54
289.403	-10.46
289.537	-1.46
289.671	-1.46
289.805	-3.46
289.939	17.54
290.073	5.54
290.207	10.54
290.34	3.54
290.474	17.54
290.608	5.54
290.742	-15.46
290.876	-13.46
291.01	-0.46
291.144	19.54
291.278	15.54
291.412	12.54
291.546	-11.46
291.679	-4.46
291.813	-4.46
291.947	9.54
292.081	-3.46
292.215	-5.46
292.349	-1.46
292.482	11.54
292.616	-7.46
292.75	10.54
292.884	12.54
293.018	-11.46
293.151	-14.46
293.285	11.54
293.419	-7.46
293.553	11.54
293.686	-0.46
293.82	-3.46
293.954	12.54
294.088	32.54
294.221	-8.46
294.355	2.54
294.489	16.54
294.622	-3.46
294.756	2.54
294.89	16.54
295.023	7.54
295.157	15.54
295.291	14.54
295.424	25.54
295.558	2.54
295.691	11.54
295.825	14.54
295.959	4.54
296.092	12.54
296.226	6.54
296.359	2.54
296.493	15.54
296.627	13.54
296.76	1.54
296.894	10.54
297.027	13.54
297.161	-13.46
297.294	-12.46
297.428	2.54
297.561	15.54
297.695	-20.46
297.828	-15.46
297.962	-12.46
298.095	-10.46
298.229	-4.46
298.362	-9.46
298.495	-6.46
298.629	-12.46
298.762	-13.46
298.896	-5.46
299.029	-17.46
299.162	0.54
299.296	7.54
299.429	-7.46
299.563	-0.46
299.696	11.54
299.829	3.54
299.963	17.54
300.096	24.54
300.229	4.54
300.363	9.54
300.496	-11.46
300.629	-10.46
300.763	2.54
300.896	5.54
301.029	-3.46
301.162	25.54
301.296	1.54
301.429	21.54
301.562	-14.46
301.695	4.54
301.829	29.54
301.962	23.54
302.095	5.54
302.228	10.54
302.362	7.54
302.495	-4.46
302.628	4.54
302.761	-24.46
302.894	2.54
303.027	0.54
303.161	-7.46
303.294	-15.46
303.427	32.54
303.56	15.54
303.693	-9.46
303.826	-20.46
303.959	1.54
304.092	-8.46
304.225	-11.46
304.359	0.54
304.492	11.54
304.625	-0.46
304.758	5.54
304.891	-10.46
305.024	2.54
305.157	-16.46
305.29	-2.46
305.423	-4.46
305.556	24.54
305.689	21.54
305.822	4.54
305.955	8.54
306.088	0.54
306.221	-5.46
306.354	-10.46
306.487	-8.46
306.62	-16.46
306.752	14.54
306.885	15.54
307.018	13.54
307.151	14.54
307.284	17.54
307.417	-23.46
307.55	12.54
307.683	9.54
307.816	-1.46
307.948	3.54
308.081	26.54
308.214	21.54
308.347	46.54
308.48	-15.46
308.613	-23.46
308.745	16.54
308.878	0.54
309.011	6.54
309.144	12.54
309.277	5.54
309.409	9.54
309.542	-8.46
309.675	4.54
309.808	4.54
309.94	8.54
310.073	2.54
310.206	2.54
310.339	6.54
310.471	-13.46
310.604	17.54
310.737	-8.46
310.869	-2.46
311.002	10.54
311.135	4.54
311.267	-18.46
311.4	6.54
311.533	24.54
311.665	2.54
311.798	2.54
311.93	19.54
312.063	35.54
312.196	66.54
312.328	110.54
312.461	47.54
312.593	23.54
312.726	32.54
312.859	93.54
312.991	174.54
313.124	28.54
313.256	8.54
313.389	1.54
313.521	-2.46
313.654	20.54
313.786	-7.46
313.919	-3.46
314.051	-8.46
314.184	16.54
314.316	8.54
314.449	-13.46
314.581	-1.46
314.714	-5.46
314.846	8.54
314.978	8.54
315.111	-11.46
315.243	-7.46
315.376	-10.46
315.508	14.54
315.641	12.54
315.773	30.54
315.905	8.54
316.038	17.54
316.17	9.54
316.302	8.54
316.435	-5.46
316.567	-9.46
316.699	1.54
316.832	-4.46
316.964	-15.46
317.096	-7.46
317.229	-16.46
317.361	-0.46
317.493	-16.46
317.625	-4.46
317.758	0.54
317.89	18.54
318.022	6.54
318.155	8.54
318.287	15.54
318.419	9.54
318.551	4.54
318.683	12.54
318.816	-2.46
318.948	-2.46
319.08	-16.46
319.212	27.54
319.344	2.54
319.477	-13.46
319.609	9.54
319.741	20.54
319.873	12.54
320.005	-6.46
320.137	-5.46
320.269	10.54
320.401	17.54
320.534	3.54
320.666	-13.46
320.798	-8.46
320.93	13.54
321.062	-8.46
321.194	-11.46
321.326	-13.46
321.458	-10.46
321.59	-15.46
321.722	-7.46
321.854	-5.46
321.986	3.54
322.118	25.54
322.25	-2.46
322.382	1.54
322.514	0.54
322.646	0.54
322.778	22.54
322.91	7.54
323.042	-8.46
323.174	6.54
323.306	-8.46
323.438	-23.46
323.57	13.54
323.702	-3.46
323.834	-7.46
323.966	-11.46
324.097	-12.46
324.229	9.54
324.361	9.54
324.493	22.54
324.625	-14.46
324.757	14.54
324.889	22.54
325.021	10.54
325.152	7.54
325.284	32.54
325.416	-1.46
325.548	17.54
325.68	1.54
325.811	-1.46
325.943	10.54
326.075	12.54
326.207	20.54
326.339	14.54
326.47	-4.46
326.602	17.54
326.734	15.54
326.866	13.54
326.997	3.54
327.129	8.54
327.261	7.54
327.392	-6.46
327.524	-2.46
327.656	12.54
327.787	-1.46
327.919	-5.46
328.051	11.54
328.182	36.54
328.314	27.54
328.446	-3.46
328.577	17.54
328.709	20.54
328.841	0.54
328.972	-7.46
329.104	-5.46
329.235	-3.46
329.367	4.54
329.499	-4.46
329.63	9.54
329.762	9.54
329.893	6.54
330.025	-12.46
330.156	-14.46
330.288	-0.46
330.419	23.54
330.551	18.54
330.683	0.54
330.814	-23.46
330.946	19.54
331.077	-5.46
331.208	-5.46
331.34	7.54
331.471	-7.46
331.603	21.54
331.734	5.54
331.866	16.54
331.997	-1.46
332.129	12.54
332.26	20.54
332.392	10.54
332.523	1.54
332.654	-22.46
332.786	-9.46
332.917	6.54
333.048	1.54
333.18	26.54
333.311	2.54
333.443	17.54
333.574	18.54
333.705	44.54
333.837	51.54
333.968	112.54
334.099	248.54
334.231	215.54
334.362	50.54
334.493	29.54
334.624	17.54
334.756	5.54
334.887	13.54
335.018	7.54
335.15	-1.46
335.281	11.54
335.412	18.54
335.543	9.54
335.675	3.54
335.806	13.54
335.937	15.54
336.068	-4.46
336.199	36.54
336.331	-10.46
336.462	5.54
336.593	21.54
336.724	6.54
336.855	20.54
336.986	25.54
337.118	21.54
337.249	-2.46
337.38	26.54
337.511	-2.46
337.642	12.54
337.773	1.54
337.904	-0.46
338.035	1.54
338.166	9.54
338.298	15.54
338.429	9.54
338.56	5.54
338.691	26.54
338.822	12.54
338.953	9.54
339.084	5.54
339.215	14.54
339.346	19.54
339.477	19.54
339.608	25.54
339.739	14.54
339.87	16.54
340.001	4.54
340.132	0.54
340.263	10.54
340.394	12.54
340.525	8.54
340.656	6.54
340.787	3.54
340.918	28.54
341.049	10.54
341.179	10.54
341.31	14.54
341.441	14.54
341.572	9.54
341.703	21.54
341.834	13.54
341.965	31.54
342.096	-5.46
342.227	-5.46
342.357	-0.46
342.488	15.54
342.619	8.54
342.75	17.54
342.881	17.54
343.012	23.54
343.142	31.54
343.273	3.54
343.404	21.54
343.535	39.54
343.666	31.54
343.796	13.54
343.927	25.54
344.058	43.54
344.189	39.54
344.319	40.54
344.45	37.54
344.581	32.54
344.712	14.54
344.842	16.54
344.973	15.54
345.104	24.54
345.234	23.54
345.365	-9.46
345.496	13.54
345.626	20.54
345.757	41.54
345.888	8.54
346.018	23.54
346.149	38.54
346.28	49.54
346.41	28.54
346.541	54.54
346.672	15.54
346.802	50.54
346.933	16.54
347.063	30.54
347.194	20.54
347.325	28.54
347.455	44.54
347.586	35.54
347.716	26.54
347.847	27.54
347.977	29.54
348.108	40.54
348.238	58.54
348.369	24.54
348.499	46.54
348.63	48.54
348.76	46.54
348.891	49.54
349.021	70.54
349.152	48.54
349.282	42.54
349.413	37.54
349.543	54.54
349.674	50.54
349.804	28.54
349.935	29.54
350.065	19.54
350.196	30.54
350.326	37.54
350.456	27.54
350.587	57.54
350.717	28.54
350.848	23.54
350.978	23.54
351.108	15.54
351.239	24.54
351.369	21.54
351.499	21.54
351.63	29.54
351.76	1.54
351.89	16.54
352.021	22.54
352.151	16.54
352.281	23.54
352.412	30.54
352.542	15.54
352.672	7.54
352.803	10.54
352.933	30.54
353.063	27.54
353.193	14.54
353.324	32.54
353.454	36.54
353.584	40.54
353.714	37.54
353.845	13.54
353.975	16.54
354.105	6.54
354.235	16.54
354.365	26.54
354.496	12.54
354.626	42.54
354.756	38.54
354.886	14.54
355.016	24.54
355.146	1.54
355.277	17.54
355.407	16.54
355.537	43.54
355.667	25.54
355.797	9.54
355.927	12.54
356.057	11.54
356.187	-4.46
356.318	8.54
356.448	28.54
356.578	41.54
356.708	38.54
356.838	22.54
356.968	37.54
357.098	34.54
357.228	35.54
357.358	18.54
357.488	23.54
357.618	65.54
357.748	35.54
357.878	22.54
358.008	27.54
358.138	27.54
358.268	13.54
358.398	39.54
358.528	20.54
358.658	27.54
358.788	10.54
358.918	42.54
359.048	30.54
359.178	24.54
359.308	35.54
359.438	36.54
359.568	41.54
359.698	33.54
359.827	20.54
359.957	26.54
360.087	21.54
360.217	26.54
360.347	23.54
360.477	37.54
360.607	20.54
360.737	39.54
360.866	25.54
360.996	-0.46
361.126	5.54
361.256	32.54
361.386	42.54
361.516	20.54
361.645	-6.46
361.775	42.54
361.905	24.54
362.035	29.54
362.165	34.54
362.294	47.54
362.424	53.54
362.554	50.54
362.684	44.54
362.813	25.54
362.943	54.54
363.073	48.54
363.203	68.54
363.332	75.54
363.462	78.54
363.592	108.54
363.721	137.54
363.851	178.54
363.981	204.54
364.111	253.54
364.24	312.54
364.37	490.54
364.5	865.54
364.629	1909.54
364.759	3954.54
364.888	6493.54
365.018	9631.54
365.148	14916.54
365.277	13144.54
365.407	4885.54
365.537	3178.54
365.666	4161.54
365.796	1857.54
365.925	822.54
366.055	787.54
366.184	1063.54
366.314	1413.54
366.444	2519.54
366.573	2161.54
366.703	674.54
366.832	221.54
366.962	125.54
367.091	78.54
367.221	89.54
367.35	59.54
367.48	78.54
367.609	46.54
367.739	71.54
367.868	35.54
367.998	46.54
368.127	44.54
368.257	56.54
368.386	62.54
368.516	56.54
368.645	46.54
368.775	50.54
368.904	45.54
369.033	31.54
369.163	22.54
369.292	44.54
369.422	43.54
369.551	57.54
369.68	51.54
369.81	53.54
369.939	30.54
370.069	55.54
370.198	29.54
370.327	23.54
370.457	47.54
370.586	53.54
370.715	19.54
370.845	44.54
370.974	44.54
371.103	39.54
371.233	56.54
371.362	57.54
371.491	45.54
371.621	59.54
371.75	31.54
371.879	39.54
372.008	60.54
372.138	48.54
372.267	52.54
372.396	35.54
372.525	49.54
372.655	39.54
372.784	21.54
372.913	32.54
373.042	35.54
373.172	25.54
373.301	29.54
373.43	1.54
373.559	2.54
373.688	13.54
373.818	34.54
373.947	27.54
374.076	8.54
374.205	27.54
374.334	1.54
374.463	8.54
374.593	13.54
374.722	11.54
374.851	19.54
374.98	3.54
375.109	9.54
375.238	22.54
375.367	40.54
375.496	23.54
375.625	-6.46
375.755	22.54
375.884	35.54
376.013	25.54
376.142	19.54
376.271	-0.46
376.4	20.54
376.529	25.54
376.658	37.54
376.787	22.54
376.916	16.54
377.045	11.54
377.174	-9.46
377.303	23.54
377.432	45.54
377.561	22.54
377.69	20.54
377.819	27.54
377.948	26.54
378.077	29.54
378.206	16.54
378.335	11.54
378.464	14.54
378.593	54.54
378.722	17.54
378.851	13.54
378.98	33.54
379.108	21.54
379.237	23.54
379.366	27.54
379.495	37.54
379.624	13.54
379.753	10.54
379.882	12.54
380.011	-5.46
380.14	-5.46
380.268	17.54
380.397	12.54
380.526	33.54
380.655	17.54
380.784	-13.46
380.913	7.54
381.041	25.54
381.17	-3.46
381.299	6.54
381.428	20.54
381.557	18.54
381.685	21.54
381.814	13.54
381.943	18.54
382.072	15.54
382.2	3.54
382.329	14.54
382.458	12.54
382.587	11.54
382.715	33.54
382.844	27.54
382.973	18.54
383.102	8.54
383.23	-0.46
383.359	6.54
383.488	11.54
383.616	10.54
383.745	0.54
383.874	12.54
384.003	24.54
384.131	-2.46
384.26	16.54
384.389	32.54
384.517	1.54
384.646	6.54
384.774	10.54
384.903	32.54
385.032	25.54
385.16	14.54
385.289	15.54
385.418	20.54
385.546	13.54
385.675	33.54
385.803	15.54
385.932	29.54
386.06	21.54
386.189	12.54
386.318	7.54
386.446	5.54
386.575	12.54
386.703	8.54
386.832	6.54
386.96	-10.46
387.089	20.54
387.217	23.54
387.346	6.54
387.474	29.54
387.603	22.54
387.731	33.54
387.86	39.54
387.988	18.54
388.117	32.54
388.245	26.54
388.374	30.54
388.502	27.54
388.631	-0.46
388.759	0.54
388.888	11.54
389.016	13.54
389.144	22.54
389.273	14.54
389.401	8.54
389.53	5.54
389.658	40.54
389.786	7.54
389.915	-1.46
390.043	8.54
390.172	6.54
390.3	41.54
390.428	17.54
390.557	25.54
390.685	51.54
390.813	51.54
390.942	31.54
391.07	31.54
391.198	32.54
391.327	5.54
391.455	4.54
391.583	29.54
391.712	36.54
391.84	31.54
391.968	10.54
392.096	16.54
392.225	8.54
392.353	16.54
392.481	21.54
392.609	44.54
392.738	39.54
392.866	37.54
392.994	1.54
393.122	32.54
393.251	27.54
393.379	28.54
393.507	-1.46
393.635	23.54
393.764	25.54
393.892	26.54
394.02	13.54
394.148	18.54
394.276	18.54
394.404	57.54
394.533	30.54
394.661	39.54
394.789	28.54
394.917	44.54
395.045	17.54
395.173	20.54
395.302	27.54
395.43	26.54
395.558	27.54
395.686	39.54
395.814	45.54
395.942	33.54
396.07	17.54
396.198	43.54
396.326	19.54
396.454	47.54
396.582	34.54
396.711	30.54
396.839	40.54
396.967	26.54
397.095	27.54
397.223	37.54
397.351	56.54
397.479	57.54
397.607	31.54
397.735	46.54
397.863	53.54
397.991	48.54
398.119	30.54
398.247	61.54
398.375	62.54
398.503	39.54
398.631	50.54
398.759	77.54
398.887	57.54
399.015	50.54
399.143	52.54
399.271	75.54
399.399	63.54
399.526	70.54
399.654	85.54
399.782	67.54
399.91	86.54
400.038	91.54
400.166	87.54
400.294	87.54
400.422	67.54
400.55	97.54
400.678	95.54
400.805	117.54
400.933	109.54
401.061	116.54
401.189	124.54
401.317	142.54
401.445	99.54
401.573	71.54
401.7	62.54
401.828	61.54
401.956	41.54
402.084	46.54
402.212	15.54
402.34	0.54
402.467	26.54
402.595	42.54
402.723	46.54
402.851	49.54
402.978	60.54
403.106	73.54
403.234	94.54
403.362	98.54
403.489	116.54
403.617	161.54
403.745	201.54
403.873	277.54
404	571.54
404.128	1449.54
404.256	3978.54
404.384	5190.54
404.511	5554.54
404.639	7318.54
404.767	11649.54
404.894	14748.54
405.022	4959.54
405.15	1337.54
405.277	430.54
405.405	250.54
405.533	115.54
405.66	114.54
405.788	61.54
405.916	67.54
406.043	34.54
406.171	62.54
406.299	49.54
406.426	84.54
406.554	53.54
406.681	62.54
406.809	43.54
406.937	68.54
407.064	83.54
407.192	151.54
407.319	307.54
407.447	522.54
407.574	566.54
407.702	647.54
407.83	855.54
407.957	1622.54
408.085	958.54
408.212	280.54
408.34	103.54
408.467	59.54
408.595	59.54
408.722	62.54
408.85	57.54
408.977	15.54
409.105	33.54
409.232	40.54
409.36	47.54
409.487	25.54
409.615	19.54
409.742	32.54
409.87	33.54
409.997	58.54
410.125	42.54
410.252	57.54
410.379	28.54
410.507	42.54
410.634	14.54
410.762	20.54
410.889	41.54
411.017	26.54
411.144	45.54
411.271	22.54
411.399	27.54
411.526	34.54
411.653	29.54
411.781	46.54
411.908	29.54
412.036	21.54
412.163	39.54
412.29	25.54
412.418	28.54
412.545	22.54
412.672	26.54
412.8	51.54
412.927	28.54
413.054	22.54
413.182	9.54
413.309	19.54
413.436	12.54
413.564	27.54
413.691	19.54
413.818	40.54
413.945	18.54
414.073	14.54
414.2	24.54
414.327	46.54
414.454	31.54
414.582	34.54
414.709	11.54
414.836	23.54
414.963	32.54
415.091	25.54
415.218	34.54
415.345	36.54
415.472	35.54
415.6	17.54
415.727	25.54
415.854	32.54
415.981	35.54
416.108	-0.46
416.236	32.54
416.363	36.54
416.49	18.54
416.617	26.54
416.744	41.54
416.871	14.54
416.998	8.54
417.126	18.54
417.253	17.54
417.38	28.54
417.507	32.54
417.634	36.54
417.761	42.54
417.888	62.54
418.015	25.54
418.143	29.54
418.27	58.54
418.397	41.54
418.524	45.54
418.651	26.54
418.778	55.54
418.905	66.54
419.032	49.54
419.159	30.54
419.286	63.54
419.413	56.54
419.54	43.54
419.667	32.54
419.794	25.54
419.921	38.54
420.048	50.54
420.175	57.54
420.302	31.54
420.429	43.54
420.556	57.54
420.683	48.54
420.81	68.54
420.937	69.54
421.064	66.54
421.191	55.54
421.318	67.54
421.445	71.54
421.572	59.54
421.699	51.54
421.826	48.54
421.953	33.54
422.08	32.54
422.207	2.54
422.334	11.54
422.461	29.54
422.588	16.54
422.714	14.54
422.841	31.54
422.968	20.54
423.095	25.54
423.222	1.54
423.349	29.54
423.476	21.54
423.603	1.54
423.729	22.54
423.856	14.54
423.983	29.54
424.11	17.54
424.237	17.54
424.364	28.54
424.491	31.54
424.617	8.54
424.744	25.54
424.871	22.54
424.998	12.54
425.125	10.54
425.251	34.54
425.378	2.54
425.505	30.54
425.632	56.54
425.758	35.54
425.885	37.54
426.012	38.54
426.139	61.54
426.266	39.54
426.392	27.54
426.519	27.54
426.646	20.54
426.772	20.54
426.899	10.54
427.026	24.54
427.153	40.54
427.279	35.54
427.406	36.54
427.533	30.54
427.659	32.54
427.786	27.54
427.913	26.54
428.039	12.54
428.166	6.54
428.293	18.54
428.419	31.54
428.546	28.54
428.673	17.54
428.799	15.54
428.926	22.54
429.053	33.54
429.179	17.54
429.306	28.54
429.433	34.54
429.559	36.54
429.686	1.54
429.812	4.54
429.939	7.54
430.066	25.54
430.192	25.54
430.319	28.54
430.445	9.54
430.572	25.54
430.699	18.54
430.825	20.54
430.952	30.54
431.078	27.54
431.205	33.54
431.331	23.54
431.458	22.54
431.584	24.54
431.711	6.54
431.837	21.54
431.964	25.54
432.09	23.54
432.217	6.54
432.343	13.54
432.47	38.54
432.596	42.54
432.723	42.54
432.849	2.54
432.976	29.54
433.102	26.54
433.229	37.54
433.355	59.54
433.482	89.54
433.608	97.54
433.735	112.54
433.861	120.54
433.987	174.54
434.114	197.54
434.24	168.54
434.367	217.54
434.493	228.54
434.62	297.54
434.746	379.54
434.872	613.54
434.999	836.54
435.125	1797.54
435.252	5664.54
435.378	13546.54
435.504	15267.54
435.631	15490.54
435.757	15683.54
435.883	15683.54
436.01	15683.54
436.136	15683.54
436.262	15683.54
436.389	3575.54
436.515	2652.54
436.641	886.54
436.768	640.54
436.894	402.54
437.02	408.54
437.147	322.54
437.273	300.54
437.399	230.54
437.526	250.54
437.652	189.54
437.778	208.54
437.904	136.54
438.031	163.54
438.157	129.54
438.283	153.54
438.409	114.54
438.536	132.54
438.662	133.54
438.788	120.54
438.914	93.54
439.041	129.54
439.167	136.54
439.293	113.54
439.419	94.54
439.546	97.54
439.672	62.54
439.798	88.54
439.924	76.54
440.05	79.54
440.177	90.54
440.303	76.54
440.429	60.54
440.555	58.54
440.681	56.54
440.807	98.54
440.934	59.54
441.06	84.54
441.186	53.54
441.312	65.54
441.438	58.54
441.564	67.54
441.69	76.54
441.816	79.54
441.943	52.54
442.069	49.54
442.195	61.54
442.321	72.54
442.447	42.54
442.573	46.54
442.699	42.54
442.825	23.54
442.951	45.54
443.077	52.54
443.203	58.54
443.33	48.54
443.456	21.54
443.582	37.54
443.708	40.54
443.834	46.54
443.96	53.54
444.086	51.54
444.212	57.54
444.338	65.54
444.464	65.54
444.59	30.54
444.716	44.54
444.842	46.54
444.968	24.54
445.094	43.54
445.22	22.54
445.346	24.54
445.472	25.54
445.598	44.54
445.724	26.54
445.85	27.54
445.976	55.54
446.102	36.54
446.228	40.54
446.354	37.54
446.48	39.54
446.605	28.54
446.731	45.54
446.857	25.54
446.983	28.54
447.109	17.54
447.235	31.54
447.361	46.54
447.487	46.54
447.613	50.54
447.739	38.54
447.865	40.54
447.99	26.54
448.116	27.54
448.242	36.54
448.368	25.54
448.494	39.54
448.62	45.54
448.746	29.54
448.872	16.54
448.997	33.54
449.123	37.54
449.249	42.54
449.375	36.54
449.501	24.54
449.627	22.54
449.752	28.54
449.878	4.54
450.004	13.54
450.13	35.54
450.256	30.54
450.381	11.54
450.507	30.54
450.633	30.54
450.759	48.54
450.884	32.54
451.01	42.54
451.136	25.54
451.262	29.54
451.388	30.54
451.513	19.54
451.639	26.54
451.765	36.54
451.89	30.54
452.016	26.54
452.142	33.54
452.268	40.54
452.393	19.54
452.519	31.54
452.645	25.54
452.771	13.54
452.896	8.54
453.022	18.54
453.148	32.54
453.273	41.54
453.399	27.54
453.525	9.54
453.65	13.54
453.776	45.54
453.902	34.54
454.027	42.54
454.153	28.54
454.279	43.54
454.404	34.54
454.53	43.54
454.656	36.54
454.781	23.54
454.907	20.54
455.032	34.54
455.158	44.54
455.284	42.54
455.409	30.54
455.535	29.54
455.66	21.54
455.786	19.54
455.912	49.54
456.037	10.54
456.163	42.54
456.288	42.54
456.414	20.54
456.539	20.54
456.665	38.54
456.791	24.54
456.916	21.54
457.042	24.54
457.167	13.54
457.293	23.54
457.418	30.54
457.544	27.54
457.669	23.54
457.795	21.54
457.92	26.54
458.046	29.54
458.171	22.54
458.297	15.54
458.422	16.54
458.548	17.54
458.673	36.54
458.799	20.54
458.924	16.54
459.05	34.54
459.175	26.54
459.301	23.54
459.426	44.54
459.552	24.54
459.677	38.54
459.803	38.54
459.928	36.54
460.053	23.54
460.179	14.54
460.304	18.54
460.43	7.54
460.555	28.54
460.681	19.54
460.806	11.54
460.931	22.54
461.057	34.54
461.182	6.54
461.308	34.54
461.433	7.54
461.558	18.54
461.684	31.54
461.809	12.54
461.934	18.54
462.06	36.54
462.185	19.54
462.311	21.54
462.436	28.54
462.561	26.54
462.687	16.54
462.812	10.54
462.937	16.54
463.063	14.54
463.188	8.54
463.313	32.54
463.439	10.54
463.564	20.54
463.689	39.54
463.814	33.54
463.94	24.54
464.065	24.54
464.19	29.54
464.316	22.54
464.441	0.54
464.566	17.54
464.692	16.54
464.817	12.54
464.942	39.54
465.067	23.54
465.193	-3.46
465.318	23.54
465.443	22.54
465.568	29.54
465.694	17.54
465.819	29.54
465.944	35.54
466.069	28.54
466.194	37.54
466.32	26.54
466.445	21.54
466.57	33.54
466.695	23.54
466.82	27.54
466.946	31.54
467.071	22.54
467.196	29.54
467.321	38.54
467.446	25.54
467.572	44.54
467.697	29.54
467.822	22.54
467.947	37.54
468.072	13.54
468.197	22.54
468.323	24.54
468.448	24.54
468.573	9.54
468.698	14.54
468.823	21.54
468.948	49.54
469.073	31.54
469.198	41.54
469.324	51.54
469.449	17.54
469.574	63.54
469.699	43.54
469.824	31.54
469.949	12.54
470.074	30.54
470.199	51.54
470.324	31.54
470.449	29.54
470.574	29.54
470.7	34.54
470.825	32.54
470.95	35.54
471.075	20.54
471.2	37.54
471.325	55.54
471.45	45.54
471.575	20.54
471.7	24.54
471.825	14.54
471.95	4.54
472.075	14.54
472.2	34.54
472.325	42.54
472.45	16.54
472.575	26.54
472.7	12.54
472.825	28.54
472.95	42.54
473.075	29.54
473.2	28.54
473.325	49.54
473.45	42.54
473.575	33.54
473.7	40.54
473.825	24.54
473.95	22.54
474.075	35.54
474.2	19.54
474.325	20.54
474.45	20.54
474.574	22.54
474.699	33.54
474.824	36.54
474.949	11.54
475.074	33.54
475.199	32.54
475.324	24.54
475.449	8.54
475.574	10.54
475.699	15.54
475.824	12.54
475.949	32.54
476.073	25.54
476.198	22.54
476.323	23.54
476.448	12.54
476.573	-1.46
476.698	25.54
476.823	11.54
476.947	22.54
477.072	16.54
477.197	22.54
477.322	18.54
477.447	33.54
477.572	20.54
477.697	-2.46
477.821	15.54
477.946	21.54
478.071	21.54
478.196	31.54
478.321	15.54
478.445	13.54
478.57	15.54
478.695	21.54
478.82	12.54
478.945	12.54
479.069	6.54
479.194	17.54
479.319	24.54
479.444	20.54
479.569	25.54
479.693	14.54
479.818	9.54
479.943	16.54
480.068	7.54
480.192	11.54
480.317	15.54
480.442	6.54
480.567	24.54
480.691	13.54
480.816	1.54
480.941	-2.46
481.066	18.54
481.19	27.54
481.315	20.54
481.44	5.54
481.564	8.54
481.689	21.54
481.814	19.54
481.938	18.54
482.063	8.54
482.188	26.54
482.313	20.54
482.437	-7.46
482.562	18.54
482.687	27.54
482.811	18.54
482.936	24.54
483.061	24.54
483.185	13.54
483.31	14.54
483.435	10.54
483.559	10.54
483.684	28.54
483.808	38.54
483.933	17.54
484.058	25.54
484.182	27.54
484.307	17.54
484.432	34.54
484.556	13.54
484.681	18.54
484.805	52.54
484.93	32.54
485.055	24.54
485.179	34.54
485.304	19.54
485.428	28.54
485.553	8.54
485.678	30.54
485.802	12.54
485.927	55.54
486.051	36.54
486.176	20.54
486.3	2.54
486.425	23.54
486.549	1.54
486.674	28.54
486.799	20.54
486.923	12.54
487.048	10.54
487.172	1.54
487.297	15.54
487.421	15.54
487.546	26.54
487.67	2.54
487.795	25.54
487.919	13.54
488.044	19.54
488.168	28.54
488.293	22.54
488.417	9.54
488.542	6.54
488.666	29.54
488.791	46.54
488.915	28.54
489.04	45.54
489.164	25.54
489.289	16.54
489.413	8.54
489.538	9.54
489.662	26.54
489.786	24.54
489.911	41.54
490.035	23.54
490.16	7.54
490.284	13.54
490.409	16.54
490.533	24.54
490.658	48.54
490.782	35.54
490.906	48.54
491.031	130.54
491.155	157.54
491.28	140.54
491.404	150.54
491.528	276.54
491.653	164.54
491.777	73.54
491.902	29.54
492.026	12.54
492.15	-0.46
492.275	31.54
492.399	19.54
492.524	0.54
492.648	40.54
492.772	31.54
492.897	31.54
493.021	7.54
493.145	32.54
493.27	30.54
493.394	1.54
493.518	4.54
493.643	13.54
493.767	36.54
493.891	16.54
494.016	10.54
494.14	17.54
494.264	25.54
494.389	18.54
494.513	16.54
494.637	8.54
494.762	14.54
494.886	18.54
495.01	10.54
495.134	23.54
495.259	32.54
495.383	-1.46
495.507	12.54
495.632	29.54
495.756	43.54
495.88	35.54
496.004	20.54
496.129	6.54
496.253	23.54
496.377	19.54
496.501	23.54
496.626	15.54
496.75	19.54
496.874	25.54
496.998	11.54
497.123	28.54
497.247	6.54
497.371	16.54
497.495	24.54
497.62	29.54
497.744	14.54
497.868	22.54
497.992	15.54
498.116	18.54
498.241	32.54
498.365	6.54
498.489	9.54
498.613	32.54
498.737	12.54
498.862	24.54
498.986	20.54
499.11	33.54
499.234	21.54
499.358	10.54
499.482	20.54
499.607	40.54
499.731	27.54
499.855	28.54
499.979	21.54
500.103	18.54
500.227	28.54
500.351	22.54
500.476	21.54
500.6	14.54
500.724	26.54
500.848	21.54
500.972	30.54
501.096	13.54
501.22	27.54
501.344	20.54
501.469	4.54
501.593	5.54
501.717	12.54
501.841	16.54
501.965	25.54
502.089	20.54
502.213	35.54
502.337	29.54
502.461	20.54
502.585	24.54
502.709	21.54
502.834	19.54
502.958	15.54
503.082	16.54
503.206	23.54
503.33	30.54
503.454	19.54
503.578	36.54
503.702	20.54
503.826	6.54
503.95	31.54
504.074	10.54
504.198	24.54
504.322	4.54
504.446	0.54
504.57	22.54
504.694	24.54
504.818	24.54
504.942	20.54
505.066	19.54
505.19	25.54
505.314	21.54
505.438	27.54
505.562	20.54
505.686	28.54
505.81	14.54
505.934	38.54
506.058	20.54
506.182	10.54
506.306	20.54
506.43	22.54
506.554	25.54
506.678	1.54
506.802	13.54
506.926	13.54
507.05	18.54
507.174	48.54
507.298	42.54
507.422	19.54
507.546	9.54
507.67	25.54
507.794	-1.46
507.918	14.54
508.042	9.54
508.165	15.54
508.289	13.54
508.413	21.54
508.537	6.54
508.661	34.54
508.785	33.54
508.909	37.54
509.033	32.54
509.157	13.54
509.281	25.54
509.405	35.54
509.528	57.54
509.652	52.54
509.776	22.54
509.9	46.54
510.024	29.54
510.148	39.54
510.272	34.54
510.396	31.54
510.519	16.54
510.643	39.54
510.767	40.54
510.891	23.54
511.015	37.54
511.139	29.54
511.263	50.54
511.386	55.54
511.51	40.54
511.634	49.54
511.758	52.54
511.882	30.54
512.006	56.54
512.129	48.54
512.253	85.54
512.377	69.54
512.501	85.54
512.625	90.54
512.748	80.54
512.872	61.54
512.996	55.54
513.12	30.54
513.244	44.54
513.367	52.54
513.491	54.54
513.615	54.54
513.739	73.54
513.862	76.54
513.986	84.54
514.11	93.54
514.234	82.54
514.358	103.54
514.481	105.54
514.605	105.54
514.729	105.54
514.853	104.54
514.976	84.54
515.1	81.54
515.224	109.54
515.348	70.54
515.471	62.54
515.595	85.54
515.719	121.54
515.842	205.54
515.966	256.54
516.09	298.54
516.214	291.54
516.337	324.54
516.461	220.54
516.585	92.54
516.708	46.54
516.832	27.54
516.956	34.54
517.08	19.54
517.203	7.54
517.327	20.54
517.451	27.54
517.574	31.54
517.698	16.54
517.822	14.54
517.945	17.54
518.069	15.54
518.193	41.54
518.316	20.54
518.44	15.54
518.564	20.54
518.687	12.54
518.811	11.54
518.935	47.54
519.058	44.54
519.182	22.54
519.306	34.54
519.429	26.54
519.553	41.54
519.676	23.54
519.8	3.54
519.924	18.54
520.047	12.54
520.171	3.54
520.294	14.54
520.418	26.54
520.542	1.54
520.665	32.54
520.789	24.54
520.913	16.54
521.036	1.54
521.16	2.54
521.283	18.54
521.407	18.54
521.53	6.54
521.654	-19.46
521.778	18.54
521.901	33.54
522.025	38.54
522.148	3.54
522.272	18.54
522.395	14.54
522.519	12.54
522.643	10.54
522.766	9.54
522.89	2.54
523.013	10.54
523.137	-11.46
523.26	25.54
523.384	18.54
523.507	27.54
523.631	15.54
523.754	24.54
523.878	11.54
524.002	20.54
524.125	22.54
524.249	4.54
524.372	27.54
524.496	16.54
524.619	32.54
524.743	21.54
524.866	-2.46
524.99	21.54
525.113	8.54
525.237	32.54
525.36	12.54
525.484	18.54
525.607	6.54
525.731	0.54
525.854	20.54
525.978	29.54
526.101	16.54
526.224	-2.46
526.348	10.54
526.471	20.54
526.595	8.54
526.718	19.54
526.842	2.54
526.965	15.54
527.089	6.54
527.212	26.54
527.336	-3.46
527.459	31.54
527.582	9.54
527.706	28.54
527.829	15.54
527.953	22.54
528.076	0.54
528.2	0.54
528.323	22.54
528.446	22.54
528.57	17.54
528.693	25.54
528.817	6.54
528.94	8.54
529.064	36.54
529.187	12.54
529.31	9.54
529.434	11.54
529.557	8.54
529.68	-5.46
529.804	9.54
529.927	5.54
530.051	20.54
530.174	18.54
530.297	24.54
530.421	10.54
530.544	25.54
530.668	21.54
530.791	2.54
530.914	30.54
531.038	2.54
531.161	1.54
531.284	-0.46
531.408	22.54
531.531	-3.46
531.654	7.54
531.778	23.54
531.901	9.54
532.024	23.54
532.148	1.54
532.271	9.54
532.394	15.54
532.518	11.54
532.641	24.54
532.764	25.54
532.888	26.54
533.011	9.54
533.134	4.54
533.258	14.54
533.381	4.54
533.504	7.54
533.628	13.54
533.751	17.54
533.874	31.54
533.997	17.54
534.121	5.54
534.244	28.54
534.367	22.54
534.491	21.54
534.614	22.54
534.737	32.54
534.86	45.54
534.984	-1.46
535.107	16.54
535.23	22.54
535.354	13.54
535.477	12.54
535.6	21.54
535.723	33.54
535.847	2.54
535.97	-7.46
536.093	19.54
536.216	-1.46
536.34	8.54
536.463	-8.46
536.586	18.54
536.709	21.54
536.833	24.54
536.956	10.54
537.079	25.54
537.202	12.54
537.325	5.54
537.449	12.54
537.572	14.54
537.695	8.54
537.818	-7.46
537.941	1.54
538.065	-11.46
538.188	5.54
538.311	27.54
538.434	25.54
538.558	24.54
538.681	23.54
538.804	33.54
538.927	31.54
539.05	25.54
539.173	11.54
539.297	20.54
539.42	9.54
539.543	24.54
539.666	31.54
539.789	24.54
539.913	2.54
540.036	16.54
540.159	33.54
540.282	18.54
540.405	9.54
540.528	21.54
540.651	39.54
540.775	31.54
540.898	24.54
541.021	25.54
541.144	38.54
541.267	29.54
541.39	27.54
541.513	47.54
541.637	25.54
541.76	22.54
541.883	48.54
542.006	25.54
542.129	48.54
542.252	26.54
542.375	45.54
542.498	34.54
542.622	39.54
542.745	40.54
542.868	57.54
542.991	54.54
543.114	51.54
543.237	57.54
543.36	63.54
543.483	58.54
543.606	55.54
543.73	77.54
543.853	74.54
543.976	84.54
544.099	131.54
544.222	111.54
544.345	135.54
544.468	166.54
544.591	223.54
544.714	254.54
544.837	338.54
544.96	455.54
545.083	666.54
545.206	1097.54
545.329	2450.54
545.453	11131.54
545.576	15282.54
545.699	15683.54
545.822	15683.54
545.945	15683.54
546.068	15683.54
546.191	15683.54
546.314	15683.54
546.437	15683.54
546.56	15683.54
546.683	15683.54
546.806	15683.54
546.929	15683.54
547.052	15683.54
547.175	15683.54
547.298	15683.54
547.421	15683.54
547.544	15683.54
547.667	4084.54
547.79	4864.54
547.913	1466.54
548.036	975.54
548.159	683.54
548.282	676.54
548.405	504.54
548.528	500.54
548.651	395.54
548.774	409.54
548.897	355.54
549.02	368.54
549.143	298.54
549.266	308.54
549.389	280.54
549.512	276.54
549.635	274.54
549.758	266.54
549.881	230.54
550.004	227.54
550.127	214.54
550.25	208.54
550.373	162.54
550.496	185.54
550.619	163.54
550.742	150.54
550.865	146.54
550.988	173.54
551.111	162.54
551.234	147.54
551.356	126.54
551.479	141.54
551.602	119.54
551.725	134.54
551.848	122.54
551.971	142.54
552.094	122.54
552.217	108.54
552.34	113.54
552.463	107.54
552.586	115.54
552.709	99.54
552.832	116.54
552.955	105.54
553.077	99.54
553.2	105.54
553.323	75.54
553.446	109.54
553.569	90.54
553.692	119.54
553.815	102.54
553.938	111.54
554.061	105.54
554.184	97.54
554.306	84.54
554.429	86.54
554.552	70.54
554.675	76.54
554.798	92.54
554.921	88.54
555.044	65.54
555.167	63.54
555.29	58.54
555.412	68.54
555.535	61.54
555.658	55.54
555.781	72.54
555.904	77.54
556.027	86.54
556.15	71.54
556.272	78.54
556.395	87.54
556.518	77.54
556.641	73.54
556.764	65.54
556.887	87.54
557.01	65.54
557.132	57.54
557.255	78.54
557.378	86.54
557.501	61.54
557.624	84.54
557.747	78.54
557.869	73.54
557.992	83.54
558.115	95.54
558.238	72.54
558.361	92.54
558.483	100.54
558.606	84.54
558.729	61.54
558.852	62.54
558.975	60.54
559.098	59.54
559.22	61.54
559.343	50.54
559.466	41.54
559.589	33.54
559.712	51.54
559.834	48.54
559.957	47.54
560.08	37.54
560.203	60.54
560.325	53.54
560.448	46.54
560.571	53.54
560.694	48.54
560.817	79.54
560.939	63.54
561.062	57.54
561.185	59.54
561.308	63.54
561.43	56.54
561.553	57.54
561.676	65.54
561.799	71.54
561.921	55.54
562.044	69.54
562.167	39.54
562.29	67.54
562.413	75.54
562.535	50.54
562.658	47.54
562.781	58.54
562.903	77.54
563.026	99.54
563.149	144.54
563.272	111.54
563.394	113.54
563.517	118.54
563.64	68.54
563.763	63.54
563.885	53.54
564.008	47.54
564.131	52.54
564.254	26.54
564.376	46.54
564.499	22.54
564.622	39.54
564.744	46.54
564.867	49.54
564.99	32.54
565.113	33.54
565.235	30.54
565.358	34.54
565.481	32.54
565.603	44.54
565.726	22.54
565.849	34.54
565.971	42.54
566.094	26.54
566.217	44.54
566.34	26.54
566.462	41.54
566.585	47.54
566.708	53.54
566.83	41.54
566.953	53.54
567.076	33.54
567.198	20.54
567.321	25.54
567.444	27.54
567.566	46.54
567.689	18.54
567.812	41.54
567.934	31.54
568.057	40.54
568.18	33.54
568.302	11.54
568.425	11.54
568.548	45.54
568.67	35.54
568.793	37.54
568.916	35.54
569.038	30.54
569.161	52.54
569.283	24.54
569.406	16.54
569.529	18.54
569.651	22.54
569.774	28.54
569.897	25.54
570.019	39.54
570.142	37.54
570.265	22.54
570.387	33.54
570.51	30.54
570.632	39.54
570.755	24.54
570.878	36.54
571	40.54
571.123	37.54
571.246	30.54
571.368	15.54
571.491	28.54
571.613	20.54
571.736	23.54
571.859	26.54
571.981	38.54
572.104	32.54
572.226	35.54
572.349	28.54
572.472	41.54
572.594	48.54
572.717	21.54
572.839	26.54
572.962	32.54
573.085	26.54
573.207	21.54
573.33	16.54
573.452	36.54
573.575	40.54
573.697	27.54
573.82	27.54
573.943	27.54
574.065	26.54
574.188	42.54
574.31	35.54
574.433	42.54
574.555	53.54
574.678	30.54
574.801	24.54
574.923	25.54
575.046	34.54
575.168	33.54
575.291	22.54
575.413	35.54
575.536	48.54
575.659	46.54
575.781	50.54
575.904	52.54
576.026	70.54
576.149	73.54
576.271	144.54
576.394	218.54
576.516	545.54
576.639	3719.54
576.761	10370.54
576.884	8950.54
577.007	8864.54
577.129	8128.54
577.252	3777.54
577.374	1378.54
577.497	536.54
577.619	294.54
577.742	186.54
577.864	159.54
577.987	131.54
578.109	122.54
578.232	130.54
578.354	156.54
578.477	193.54
578.599	371.54
578.722	2016.54
578.844	9206.54
578.967	9957.54
579.089	8926.54
579.212	9292.54
579.334	5410.54
579.457	1946.54
579.579	729.54
579.702	342.54
579.824	214.54
579.947	134.54
580.069	111.54
580.192	88.54
580.314	95.54
580.437	65.54
580.559	99.54
580.682	56.54
580.804	63.54
580.927	70.54
581.049	74.54
581.172	49.54
581.294	50.54
581.417	38.54
581.539	47.54
581.662	63.54
581.784	48.54
581.907	52.54
582.029	27.54
582.152	29.54
582.274	49.54
582.396	58.54
582.519	49.54
582.641	21.54
582.764	47.54
582.886	54.54
583.009	30.54
583.131	20.54
583.254	50.54
583.376	55.54
583.499	33.54
583.621	36.54
583.743	65.54
583.866	31.54
583.988	25.54
584.111	48.54
584.233	48.54
584.356	62.54
584.478	34.54
584.601	3.54
584.723	36.54
584.845	35.54
584.968	28.54
585.09	17.54
585.213	22.54
585.335	23.54
585.458	45.54
585.58	29.54
585.702	40.54
585.825	32.54
585.947	29.54
586.07	26.54
586.192	34.54
586.315	27.54
586.437	13.54
586.559	26.54
586.682	25.54
586.804	27.54
586.927	0.54
587.049	27.54
587.171	48.54
587.294	25.54
587.416	37.54
587.539	22.54
587.661	22.54
587.783	17.54
587.906	15.54
588.028	37.54
588.151	33.54
588.273	41.54
588.395	28.54
588.518	18.54
588.64	36.54
588.763	27.54
588.885	28.54
589.007	27.54
589.13	13.54
589.252	14.54
589.375	23.54
589.497	33.54
589.619	33.54
589.742	24.54
589.864	29.54
589.986	33.54
590.109	17.54
590.231	20.54
590.354	25.54
590.476	24.54
590.598	20.54
590.721	15.54
590.843	29.54
590.965	28.54
591.088	27.54
591.21	12.54
591.332	32.54
591.455	8.54
591.577	-0.46
591.7	13.54
591.822	36.54
591.944	31.54
592.067	34.54
592.189	21.54
592.311	24.54
592.434	17.54
592.556	39.54
592.678	29.54
592.801	16.54
592.923	17.54
593.045	8.54
593.168	13.54
593.29	40.54
593.412	35.54
593.535	23.54
593.657	13.54
593.779	10.54
593.902	35.54
594.024	12.54
594.146	29.54
594.269	22.54
594.391	5.54
594.513	34.54
594.636	36.54
594.758	14.54
594.88	49.54
595.003	29.54
595.125	16.54
595.247	37.54
595.37	26.54
595.492	21.54
595.614	46.54
595.737	28.54
595.859	13.54
595.981	12.54
596.104	31.54
596.226	14.54
596.348	20.54
596.471	14.54
596.593	31.54
596.715	14.54
596.838	31.54
596.96	22.54
597.082	26.54
597.204	36.54
597.327	35.54
597.449	21.54
597.571	12.54
597.694	22.54
597.816	17.54
597.938	17.54
598.061	21.54
598.183	27.54
598.305	31.54
598.427	19.54
598.55	12.54
598.672	41.54
598.794	24.54
598.917	10.54
599.039	19.54
599.161	18.54
599.283	10.54
599.406	30.54
599.528	28.54
599.65	46.54
599.773	30.54
599.895	46.54
600.017	51.54
600.139	27.54
600.262	18.54
600.384	24.54
600.506	26.54
600.628	37.54
600.751	38.54
600.873	30.54
600.995	15.54
601.118	29.54
601.24	16.54
601.362	32.54
601.484	30.54
601.607	37.54
601.729	27.54
601.851	26.54
601.973	24.54
602.096	24.54
602.218	11.54
602.34	24.54
602.462	25.54
602.585	30.54
602.707	22.54
602.829	28.54
602.951	13.54
603.074	-9.46
603.196	17.54
603.318	9.54
603.44	23.54
603.563	17.54
603.685	3.54
603.807	29.54
603.929	14.54
604.052	37.54
604.174	40.54
604.296	45.54
604.418	29.54
604.541	41.54
604.663	17.54
604.785	18.54
604.907	20.54
605.03	2.54
605.152	31.54
605.274	20.54
605.396	14.54
605.519	16.54
605.641	25.54
605.763	31.54
605.885	22.54
606.008	17.54
606.13	20.54
606.252	23.54
606.374	0.54
606.496	13.54
606.619	6.54
606.741	2.54
606.863	27.54
606.985	26.54
607.108	30.54
607.23	9.54
607.352	10.54
607.474	15.54
607.596	25.54
607.719	21.54
607.841	36.54
607.963	30.54
608.085	5.54
608.207	33.54
608.33	17.54
608.452	4.54
608.574	9.54
608.696	35.54
608.819	20.54
608.941	28.54
609.063	15.54
609.185	22.54
609.307	21.54
609.43	25.54
609.552	13.54
609.674	12.54
609.796	22.54
609.918	22.54
610.041	16.54
610.163	8.54
610.285	18.54
610.407	14.54
610.529	1.54
610.652	23.54
610.774	40.54
610.896	31.54
611.018	24.54
611.14	20.54
611.263	17.54
611.385	27.54
611.507	24.54
611.629	9.54
611.751	39.54
611.873	41.54
611.996	26.54
612.118	35.54
612.24	33.54
612.362	18.54
612.484	34.54
612.607	21.54
612.729	37.54
612.851	20.54
612.973	20.54
613.095	12.54
613.218	17.54
613.34	30.54
613.462	35.54
613.584	8.54
613.706	8.54
613.828	28.54
613.951	18.54
614.073	-3.46
614.195	-9.46
614.317	43.54
614.439	51.54
614.561	18.54
614.684	17.54
614.806	9.54
614.928	26.54
615.05	13.54
615.172	37.54
615.294	51.54
615.417	25.54
615.539	1.54
615.661	14.54
615.783	49.54
615.905	18.54
616.027	6.54
616.15	33.54
616.272	10.54
616.394	4.54
616.516	30.54
616.638	17.54
616.76	13.54
616.883	2.54
617.005	5.54
617.127	25.54
617.249	17.54
617.371	19.54
617.493	5.54
617.615	20.54
617.738	28.54
617.86	27.54
617.982	17.54
618.104	5.54
618.226	14.54
618.348	-2.46
618.471	13.54
618.593	16.54
618.715	-4.46
618.837	28.54
618.959	15.54
619.081	30.54
619.203	26.54
619.326	29.54
619.448	24.54
619.57	29.54
619.692	29.54
619.814	30.54
619.936	26.54
620.058	16.54
620.181	31.54
620.303	12.54
620.425	4.54
620.547	-2.46
620.669	20.54
620.791	4.54
620.913	16.54
621.036	12.54
621.158	25.54
621.28	24.54
621.402	1.54
621.524	22.54
621.646	11.54
621.768	0.54
621.891	1.54
622.013	9.54
622.135	24.54
622.257	13.54
622.379	13.54
622.501	29.54
622.623	14.54
622.745	11.54
622.868	17.54
622.99	-3.46
623.112	11.54
623.234	17.54
623.356	-1.46
623.478	-2.46
623.6	26.54
623.722	20.54
623.845	25.54
623.967	6.54
624.089	25.54
624.211	21.54
624.333	28.54
624.455	26.54
624.577	20.54
624.699	39.54
624.822	30.54
624.944	0.54
625.066	18.54
625.188	20.54
625.31	-1.46
625.432	18.54
625.554	17.54
625.676	33.54
625.799	33.54
625.921	27.54
626.043	15.54
626.165	4.54
626.287	4.54
626.409	16.54
626.531	11.54
626.653	33.54
626.775	15.54
626.898	23.54
627.02	47.54
627.142	51.54
627.264	43.54
627.386	17.54
627.508	1.54
627.63	17.54
627.752	12.54
627.874	20.54
627.997	16.54
628.119	41.54
628.241	25.54
628.363	25.54
628.485	18.54
628.607	16.54
628.729	17.54
628.851	17.54
628.973	2.54
629.096	7.54
629.218	19.54
629.34	21.54
629.462	10.54
629.584	10.54
629.706	6.54
629.828	39.54
629.95	22.54
630.072	2.54
630.195	-9.46
630.317	29.54
630.439	14.54
630.561	15.54
630.683	13.54
630.805	34.54
630.927	26.54
631.049	8.54
631.171	11.54
631.293	16.54
631.416	16.54
631.538	24.54
631.66	14.54
631.782	13.54
631.904	28.54
632.026	-2.46
632.148	28.54
632.27	20.54
632.392	33.54
632.514	1.54
632.637	4.54
632.759	6.54
632.881	11.54
633.003	11.54
633.125	1.54
633.247	14.54
633.369	-8.46
633.491	27.54
633.613	18.54
633.735	-1.46
633.858	5.54
633.98	14.54
634.102	-11.46
634.224	23.54
634.346	15.54
634.468	6.54
634.59	13.54
634.712	8.54
634.834	9.54
634.956	2.54
635.078	-7.46
635.201	1.54
635.323	8.54
635.445	1.54
635.567	1.54
635.689	41.54
635.811	27.54
635.933	24.54
636.055	22.54
636.177	17.54
636.299	36.54
636.421	26.54
636.544	8.54
636.666	6.54
636.788	17.54
636.91	25.54
637.032	4.54
637.154	8.54
637.276	27.54
637.398	28.54
637.52	20.54
637.642	21.54
637.764	20.54
637.887	15.54
638.009	28.54
638.131	1.54
638.253	-3.46
638.375	10.54
638.497	20.54
638.619	16.54
638.741	11.54
638.863	-7.46
638.985	-6.46
639.107	6.54
639.23	-1.46
639.352	40.54
639.474	4.54
639.596	20.54
639.718	20.54
639.84	18.54
639.962	4.54
640.084	25.54
640.206	25.54
640.328	1.54
640.45	6.54
640.573	14.54
640.695	15.54
640.817	18.54
640.939	27.54
641.061	-0.46
641.183	29.54
641.305	16.54
641.427	17.54
641.549	10.54
641.671	2.54
641.793	4.54
641.915	25.54
642.038	14.54
642.16	19.54
642.282	2.54
642.404	7.54
642.526	18.54
642.648	5.54
642.77	8.54
642.892	-1.46
643.014	13.54
643.136	13.54
643.258	10.54
643.381	26.54
643.503	32.54
643.625	11.54
643.747	12.54
643.869	6.54
643.991	3.54
644.113	8.54
644.235	15.54
644.357	21.54
644.479	26.54
644.601	10.54
644.723	8.54
644.846	20.54
644.968	5.54
645.09	15.54
645.212	-3.46
645.334	10.54
645.456	19.54
645.578	20.54
645.7	14.54
645.822	9.54
645.944	18.54
646.066	23.54
646.188	10.54
646.311	26.54
646.433	12.54
646.555	31.54
646.677	37.54
646.799	20.54
646.921	27.54
647.043	14.54
647.165	5.54
647.287	24.54
647.409	10.54
647.531	40.54
647.654	-19.46
647.776	16.54
647.898	-2.46
648.02	13.54
648.142	-2.46
648.264	8.54
648.386	14.54
648.508	8.54
648.63	12.54
648.752	16.54
648.874	2.54
648.997	10.54
649.119	30.54
649.241	8.54
649.363	28.54
649.485	20.54
649.607	7.54
649.729	0.54
649.851	14.54
649.973	22.54
650.095	5.54
650.217	-1.46
650.34	11.54
650.462	10.54
650.584	2.54
650.706	14.54
650.828	21.54
650.95	6.54
651.072	24.54
651.194	-0.46
651.316	24.54
651.438	21.54
651.56	15.54
651.683	10.54
651.805	8.54
651.927	4.54
652.049	10.54
652.171	12.54
652.293	20.54
652.415	13.54
652.537	9.54
652.659	6.54
652.781	34.54
652.903	21.54
653.026	16.54
653.148	10.54
653.27	-2.46
653.392	-6.46
653.514	0.54
653.636	13.54
653.758	16.54
653.88	6.54
654.002	-19.46
654.124	9.54
654.247	9.54
654.369	21.54
654.491	17.54
654.613	6.54
654.735	1.54
654.857	18.54
654.979	-0.46
655.101	7.54
655.223	37.54
655.345	13.54
655.468	3.54
655.59	11.54
655.712	9.54
655.834	23.54
655.956	30.54
656.078	-1.46
656.2	8.54
656.322	4.54
656.444	-1.46
656.566	6.54
656.689	5.54
656.811	6.54
656.933	27.54
657.055	-8.46
657.177	17.54
657.299	10.54
657.421	13.54
657.543	-1.46
657.665	-10.46
657.787	-15.46
657.91	-3.46
658.032	5.54
658.154	-1.46
658.276	8.54
658.398	2.54
658.52	13.54
658.642	8.54
658.764	-13.46
658.886	-4.46
659.009	0.54
659.131	24.54
659.253	21.54
659.375	7.54
659.497	11.54
659.619	18.54
659.741	15.54
659.863	24.54
659.985	-7.46
660.108	4.54
660.23	-3.46
660.352	-2.46
660.474	16.54
660.596	28.54
660.718	21.54
660.84	-6.46
660.962	10.54
661.084	15.54
661.207	11.54
661.329	11.54
661.451	19.54
661.573	12.54
661.695	29.54
661.817	28.54
661.939	28.54
662.061	32.54
662.184	8.54
662.306	23.54
662.428	4.54
662.55	18.54
662.672	18.54
662.794	-0.46
662.916	6.54
663.038	16.54
663.161	11.54
663.283	9.54
663.405	29.54
663.527	5.54
663.649	24.54
663.771	10.54
663.893	11.54
664.015	4.54
664.138	4.54
664.26	1.54
664.382	12.54
664.504	8.54
664.626	-4.46
664.748	4.54
664.87	-3.46
664.992	28.54
665.115	-1.46
665.237	4.54
665.359	2.54
665.481	32.54
665.603	13.54
665.725	11.54
665.847	-6.46
665.97	7.54
666.092	13.54
666.214	11.54
666.336	6.54
666.458	16.54
666.58	20.54
666.702	-5.46
666.825	0.54
666.947	1.54
667.069	25.54
667.191	20.54
667.313	18.54
667.435	-1.46
667.557	-2.46
667.68	13.54
667.802	-0.46
667.924	-1.46
668.046	22.54
668.168	21.54
668.29	24.54
668.412	10.54
668.535	20.54
668.657	-2.46
668.779	8.54
668.901	12.54
669.023	19.54
669.145	4.54
669.267	22.54
669.39	8.54
669.512	7.54
669.634	20.54
669.756	-1.46
669.878	2.54
670	11.54
670.123	3.54
670.245	21.54
670.367	24.54
670.489	0.54
670.611	2.54
670.733	9.54
670.856	2.54
670.978	6.54
671.1	9.54
671.222	13.54
671.344	5.54
671.466	6.54
671.589	-2.46
671.711	-2.46
671.833	7.54
671.955	4.54
672.077	-0.46
672.199	18.54
672.322	30.54
672.444	24.54
672.566	24.54
672.688	11.54
672.81	21.54
672.932	25.54
673.055	15.54
673.177	-5.46
673.299	10.54
673.421	-3.46
673.543	1.54
673.665	14.54
673.788	8.54
673.91	4.54
674.032	2.54
674.154	0.54
674.276	8.54
674.399	2.54
674.521	0.54
674.643	12.54
674.765	0.54
674.887	21.54
675.009	8.54
675.132	5.54
675.254	10.54
675.376	-11.46
675.498	11.54
675.62	29.54
675.743	11.54
675.865	16.54
675.987	18.54
676.109	12.54
676.231	15.54
676.354	19.54
676.476	18.54
676.598	3.54
676.72	-6.46
676.842	6.54
676.965	4.54
677.087	14.54
677.209	38.54
677.331	27.54
677.453	13.54
677.576	1.54
677.698	1.54
677.82	-0.46
677.942	6.54
678.064	8.54
678.187	17.54
678.309	4.54
678.431	23.54
678.553	10.54
678.675	29.54
678.798	20.54
678.92	10.54
679.042	7.54
679.164	0.54
679.286	29.54
679.409	12.54
679.531	-22.46
679.653	14.54
679.775	4.54
679.898	20.54
680.02	1.54
680.142	-1.46
680.264	8.54
680.386	2.54
680.509	11.54
680.631	21.54
680.753	27.54
680.875	-5.46
680.998	25.54
681.12	12.54
681.242	30.54
681.364	-1.46
681.486	-5.46
681.609	-0.46
681.731	-1.46
681.853	-0.46
681.975	7.54
682.098	15.54
682.22	25.54
682.342	-3.46
682.464	24.54
682.587	15.54
682.709	1.54
682.831	-11.46
682.953	-14.46
683.076	6.54
683.198	1.54
683.32	4.54
683.442	6.54
683.565	8.54
683.687	6.54
683.809	9.54
683.931	2.54
684.054	1.54
684.176	13.54
684.298	22.54
684.42	22.54
684.543	20.54
684.665	1.54
684.787	11.54
684.909	9.54
685.032	10.54
685.154	-2.46
685.276	25.54
685.398	0.54
685.521	-12.46
685.643	5.54
685.765	10.54
685.887	22.54
686.01	14.54
686.132	5.54
686.254	14.54
686.377	16.54
686.499	17.54
686.621	2.54
686.743	24.54
686.866	4.54
686.988	30.54
687.11	18.54
687.232	18.54
687.355	6.54
687.477	4.54
687.599	25.54
687.722	14.54
687.844	4.54
687.966	21.54
688.088	21.54
688.211	23.54
688.333	24.54
688.455	21.54
688.578	22.54
688.7	29.54
688.822	24.54
688.944	-1.46
689.067	36.54
689.189	6.54
689.311	1.54
689.434	-1.46
689.556	0.54
689.678	15.54
689.801	-3.46
689.923	22.54
690.045	29.54
690.167	30.54
690.29	22.54
690.412	-2.46
690.534	29.54
690.657	20.54
690.779	4.54
690.901	-1.46
691.024	-21.46
691.146	-9.46
691.268	-4.46
691.391	16.54
691.513	4.54
691.635	17.54
691.758	13.54
691.88	25.54
692.002	-6.46
692.125	-2.46
692.247	11.54
692.369	0.54
692.492	6.54
692.614	2.54
692.736	17.54
692.859	2.54
692.981	6.54
693.103	4.54
693.226	7.54
693.348	36.54
693.47	32.54
693.593	28.54
693.715	36.54
693.837	21.54
693.96	11.54
694.082	11.54
694.204	14.54
694.327	10.54
694.449	-4.46
694.571	10.54
694.694	18.54
694.816	21.54
694.938	6.54
695.061	7.54
695.183	9.54
695.305	8.54
695.428	10.54
695.55	1.54
695.672	11.54
695.795	21.54
695.917	37.54
696.04	14.54
696.162	0.54
696.284	22.54
696.407	6.54
696.529	23.54
696.651	38.54
696.774	9.54
696.896	23.54
697.019	12.54
697.141	19.54
697.263	12.54
697.386	-6.46
697.508	11.54
697.63	33.54
697.753	15.54
697.875	11.54
697.998	-4.46
698.12	17.54
698.242	10.54
698.365	9.54
698.487	15.54
698.61	25.54
698.732	13.54
698.854	-4.46
698.977	14.54
699.099	16.54
699.221	4.54
699.344	-13.46
699.466	-3.46
699.589	16.54
699.711	17.54
699.834	14.54
699.956	18.54
700.078	14.54
700.201	7.54
700.323	8.54
700.446	1.54
700.568	2.54
700.69	9.54
700.813	6.54
700.935	-2.46
701.058	16.54
701.18	14.54
701.302	8.54
701.425	4.54
701.547	21.54
701.67	-5.46
701.792	4.54
701.915	10.54
702.037	-9.46
702.159	5.54
702.282	15.54
702.404	7.54
702.527	19.54
702.649	33.54
702.772	20.54
702.894	7.54
703.017	20.54
703.139	10.54
703.261	23.54
703.384	17.54
703.506	-12.46
703.629	4.54
703.751	9.54
703.874	-0.46
703.996	-8.46
704.119	5.54
704.241	18.54
704.364	-0.46
704.486	7.54
704.608	7.54
704.731	10.54
704.853	10.54
704.976	-3.46
705.098	18.54
705.221	5.54
705.343	16.54
705.466	9.54
705.588	16.54
705.711	28.54
705.833	29.54
705.956	8.54
706.078	13.54
706.201	13.54
706.323	-9.46
706.446	6.54
