Data from LowRes_mercury_15_20_11_07_2024_HR4C61881__86__15-23-40-870.txt Node

Date: Thu Nov 07 15:23:40 EST 2024
User: crc00042
Spectrometer: HR4C6188
Trigger mode: 4
Integration Time (sec): 1.000000E-1
Scans to average: 1
Electric dark correction enabled: true
Nonlinearity correction enabled: false
Boxcar width: 0
XAxis mode: Wavelengths
Number of Pixels in Spectrum: 3648
>>>>>Begin Spectral Data<<<<<
245.66	-85.54
245.797	-85.54
245.934	-85.54
246.071	-69.54
246.208	13.46
246.344	-4.54
246.481	-14.54
246.618	0.46
246.755	1.46
246.892	-8.54
247.029	-10.54
247.165	-11.54
247.302	14.46
247.439	17.46
247.576	14.46
247.713	-6.54
247.849	19.46
247.986	-11.54
248.123	2.46
248.26	7.46
248.396	8.46
248.533	-9.54
248.67	-1.54
248.806	5.46
248.943	-17.54
249.08	-22.54
249.216	-6.54
249.353	-1.54
249.49	-0.54
249.626	0.46
249.763	-13.54
249.9	-15.54
250.036	-12.54
250.173	17.46
250.309	9.46
250.446	4.46
250.582	14.46
250.719	-1.54
250.856	7.46
250.992	-1.54
251.129	-22.54
251.265	-3.54
251.402	11.46
251.538	23.46
251.675	-16.54
251.811	-6.54
251.948	18.46
252.084	1.46
252.221	18.46
252.357	-3.54
252.493	19.46
252.63	1.46
252.766	21.46
252.903	-2.54
253.039	-1.54
253.175	-9.54
253.312	-2.54
253.448	-5.54
253.585	-30.54
253.721	4.46
253.857	-27.54
253.994	7.46
254.13	-0.54
254.266	-1.54
254.403	-2.54
254.539	3.46
254.675	4.46
254.811	-7.54
254.948	0.46
255.084	9.46
255.22	-9.54
255.356	-0.54
255.493	22.46
255.629	1.46
255.765	6.46
255.901	3.46
256.037	7.46
256.174	-0.54
256.31	0.46
256.446	-9.54
256.582	-1.54
256.718	25.46
256.854	15.46
256.991	-2.54
257.127	5.46
257.263	-6.54
257.399	12.46
257.535	9.46
257.671	8.46
257.807	-15.54
257.943	-8.54
258.079	-1.54
258.215	-6.54
258.351	6.46
258.487	19.46
258.623	17.46
258.759	-5.54
258.895	13.46
259.031	-2.54
259.167	-1.54
259.303	7.46
259.439	-1.54
259.575	-10.54
259.711	-5.54
259.847	-1.54
259.983	-4.54
260.119	-6.54
260.255	-8.54
260.391	4.46
260.527	20.46
260.663	17.46
260.799	13.46
260.934	-4.54
261.07	-22.54
261.206	-7.54
261.342	-8.54
261.478	26.46
261.614	19.46
261.749	4.46
261.885	-4.54
262.021	6.46
262.157	1.46
262.293	5.46
262.428	-17.54
262.564	-15.54
262.7	11.46
262.836	-11.54
262.971	13.46
263.107	4.46
263.243	13.46
263.378	22.46
263.514	-17.54
263.65	0.46
263.785	-13.54
263.921	-0.54
264.057	-0.54
264.192	6.46
264.328	17.46
264.464	-12.54
264.599	9.46
264.735	22.46
264.871	-4.54
265.006	-0.54
265.142	-4.54
265.277	9.46
265.413	11.46
265.548	25.46
265.684	13.46
265.819	3.46
265.955	-3.54
266.091	-10.54
266.226	-5.54
266.362	15.46
266.497	1.46
266.633	3.46
266.768	-4.54
266.903	28.46
267.039	26.46
267.174	15.46
267.31	-6.54
267.445	-14.54
267.581	-12.54
267.716	1.46
267.851	6.46
267.987	-0.54
268.122	5.46
268.258	5.46
268.393	5.46
268.528	8.46
268.664	-11.54
268.799	-25.54
268.934	-10.54
269.07	-6.54
269.205	7.46
269.34	14.46
269.476	6.46
269.611	-9.54
269.746	23.46
269.881	12.46
270.017	17.46
270.152	-2.54
270.287	-9.54
270.422	8.46
270.558	-8.54
270.693	4.46
270.828	-19.54
270.963	3.46
271.098	3.46
271.234	2.46
271.369	12.46
271.504	5.46
271.639	-9.54
271.774	7.46
271.909	13.46
272.045	-14.54
272.18	-17.54
272.315	-3.54
272.45	1.46
272.585	-4.54
272.72	8.46
272.855	-6.54
272.99	3.46
273.125	-2.54
273.26	-12.54
273.395	-15.54
273.53	-14.54
273.665	16.46
273.8	0.46
273.935	-9.54
274.07	2.46
274.205	30.46
274.34	5.46
274.475	-10.54
274.61	18.46
274.745	-11.54
274.88	8.46
275.015	-11.54
275.15	1.46
275.285	-0.54
275.42	10.46
275.555	35.46
275.69	12.46
275.825	-7.54
275.959	3.46
276.094	-19.54
276.229	6.46
276.364	-10.54
276.499	-5.54
276.634	-2.54
276.768	2.46
276.903	22.46
277.038	14.46
277.173	1.46
277.308	8.46
277.442	-9.54
277.577	-1.54
277.712	7.46
277.847	-11.54
277.981	9.46
278.116	-18.54
278.251	3.46
278.386	-3.54
278.52	2.46
278.655	5.46
278.79	22.46
278.924	6.46
279.059	-2.54
279.194	-23.54
279.328	12.46
279.463	-8.54
279.598	16.46
279.732	17.46
279.867	-2.54
280.001	-6.54
280.136	2.46
280.271	2.46
280.405	2.46
280.54	12.46
280.674	-19.54
280.809	7.46
280.943	6.46
281.078	8.46
281.213	20.46
281.347	19.46
281.482	19.46
281.616	-4.54
281.751	-2.54
281.885	-8.54
282.02	-0.54
282.154	7.46
282.288	-18.54
282.423	-5.54
282.557	-7.54
282.692	4.46
282.826	-3.54
282.961	-1.54
283.095	-12.54
283.229	6.46
283.364	-8.54
283.498	1.46
283.633	8.46
283.767	-10.54
283.901	-1.54
284.036	-4.54
284.17	-13.54
284.304	-17.54
284.439	25.46
284.573	5.46
284.707	0.46
284.842	-12.54
284.976	-0.54
285.11	-8.54
285.244	19.46
285.379	47.46
285.513	-3.54
285.647	6.46
285.781	5.46
285.916	31.46
286.05	0.46
286.184	19.46
286.318	17.46
286.453	-7.54
286.587	-12.54
286.721	-4.54
286.855	4.46
286.989	13.46
287.123	0.46
287.258	-17.54
287.392	1.46
287.526	13.46
287.66	-12.54
287.794	1.46
287.928	2.46
288.062	-5.54
288.196	3.46
288.33	6.46
288.464	24.46
288.598	19.46
288.733	6.46
288.867	9.46
289.001	14.46
289.135	7.46
289.269	0.46
289.403	6.46
289.537	5.46
289.671	7.46
289.805	2.46
289.939	3.46
290.073	0.46
290.207	20.46
290.34	5.46
290.474	14.46
290.608	12.46
290.742	0.46
290.876	-4.54
291.01	6.46
291.144	38.46
291.278	36.46
291.412	-4.54
291.546	7.46
291.679	-5.54
291.813	-9.54
291.947	2.46
292.081	5.46
292.215	18.46
292.349	-4.54
292.482	-5.54
292.616	-6.54
292.75	8.46
292.884	7.46
293.018	6.46
293.151	-14.54
293.285	5.46
293.419	-17.54
293.553	-21.54
293.686	-4.54
293.82	3.46
293.954	10.46
294.088	12.46
294.221	-19.54
294.355	-21.54
294.489	-1.54
294.622	-11.54
294.756	4.46
294.89	-2.54
295.023	21.46
295.157	-0.54
295.291	27.46
295.424	15.46
295.558	11.46
295.691	-4.54
295.825	-9.54
295.959	3.46
296.092	-5.54
296.226	-1.54
296.359	-6.54
296.493	12.46
296.627	-3.54
296.76	-6.54
296.894	-2.54
297.027	9.46
297.161	8.46
297.294	-14.54
297.428	-10.54
297.561	25.46
297.695	-8.54
297.828	-8.54
297.962	-8.54
298.095	-11.54
298.229	5.46
298.362	-4.54
298.495	-27.54
298.629	-13.54
298.762	3.46
298.896	6.46
299.029	10.46
299.162	3.46
299.296	3.46
299.429	-8.54
299.563	3.46
299.696	5.46
299.829	1.46
299.963	16.46
300.096	-13.54
300.229	15.46
300.363	-7.54
300.496	-3.54
300.629	-24.54
300.763	-19.54
300.896	10.46
301.029	16.46
301.162	17.46
301.296	-17.54
301.429	11.46
301.562	-12.54
301.695	6.46
301.829	2.46
301.962	27.46
302.095	-1.54
302.228	-3.54
302.362	2.46
302.495	-1.54
302.628	-6.54
302.761	-3.54
302.894	9.46
303.027	14.46
303.161	3.46
303.294	-0.54
303.427	18.46
303.56	-11.54
303.693	4.46
303.826	-4.54
303.959	-5.54
304.092	-2.54
304.225	8.46
304.359	-9.54
304.492	-2.54
304.625	2.46
304.758	1.46
304.891	-26.54
305.024	6.46
305.157	-9.54
305.29	1.46
305.423	-14.54
305.556	10.46
305.689	26.46
305.822	-1.54
305.955	-8.54
306.088	-1.54
306.221	3.46
306.354	-16.54
306.487	-24.54
306.62	-21.54
306.752	0.46
306.885	3.46
307.018	5.46
307.151	6.46
307.284	15.46
307.417	-16.54
307.55	10.46
307.683	-8.54
307.816	8.46
307.948	-2.54
308.081	10.46
308.214	2.46
308.347	8.46
308.48	-1.54
308.613	1.46
308.745	-2.54
308.878	-8.54
309.011	10.46
309.144	19.46
309.277	11.46
309.409	-4.54
309.542	22.46
309.675	4.46
309.808	-1.54
309.94	8.46
310.073	-10.54
310.206	-10.54
310.339	15.46
310.471	-19.54
310.604	9.46
310.737	-8.54
310.869	-10.54
311.002	12.46
311.135	-7.54
311.267	-6.54
311.4	6.46
311.533	6.46
311.665	12.46
311.798	-8.54
311.93	-1.54
312.063	21.46
312.196	49.46
312.328	61.46
312.461	39.46
312.593	38.46
312.726	68.46
312.859	96.46
312.991	172.46
313.124	55.46
313.256	27.46
313.389	1.46
313.521	3.46
313.654	3.46
313.786	-20.54
313.919	-8.54
314.051	5.46
314.184	6.46
314.316	2.46
314.449	-24.54
314.581	-2.54
314.714	-8.54
314.846	-0.54
314.978	-1.54
315.111	-2.54
315.243	15.46
315.376	-1.54
315.508	-10.54
315.641	-3.54
315.773	6.46
315.905	-3.54
316.038	-18.54
316.17	-8.54
316.302	0.46
316.435	-2.54
316.567	-6.54
316.699	5.46
316.832	-2.54
316.964	-6.54
317.096	1.46
317.229	-4.54
317.361	-10.54
317.493	-9.54
317.625	-13.54
317.758	-6.54
317.89	8.46
318.022	-14.54
318.155	7.46
318.287	13.46
318.419	6.46
318.551	-5.54
318.683	2.46
318.816	-3.54
318.948	-4.54
319.08	-16.54
319.212	-10.54
319.344	-16.54
319.477	-11.54
319.609	21.46
319.741	10.46
319.873	-9.54
320.005	-9.54
320.137	0.46
320.269	16.46
320.401	10.46
320.534	5.46
320.666	2.46
320.798	-20.54
320.93	0.46
321.062	-3.54
321.194	-14.54
321.326	-2.54
321.458	-0.54
321.59	11.46
321.722	-7.54
321.854	-5.54
321.986	-11.54
322.118	-7.54
322.25	-16.54
322.382	-11.54
322.514	-0.54
322.646	-19.54
322.778	25.46
322.91	1.46
323.042	18.46
323.174	-3.54
323.306	-24.54
323.438	-3.54
323.57	-7.54
323.702	-4.54
323.834	-12.54
323.966	-23.54
324.097	0.46
324.229	6.46
324.361	13.46
324.493	6.46
324.625	-1.54
324.757	7.46
324.889	11.46
325.021	1.46
325.152	-2.54
325.284	12.46
325.416	6.46
325.548	13.46
325.68	-1.54
325.811	14.46
325.943	23.46
326.075	2.46
326.207	-0.54
326.339	-12.54
326.47	9.46
326.602	15.46
326.734	10.46
326.866	29.46
326.997	-15.54
327.129	-7.54
327.261	-32.54
327.392	-1.54
327.524	3.46
327.656	11.46
327.787	4.46
327.919	14.46
328.051	18.46
328.182	25.46
328.314	29.46
328.446	-9.54
328.577	10.46
328.709	7.46
328.841	-2.54
328.972	-10.54
329.104	-13.54
329.235	8.46
329.367	-13.54
329.499	-15.54
329.63	-1.54
329.762	7.46
329.893	11.46
330.025	5.46
330.156	-17.54
330.288	22.46
330.419	9.46
330.551	2.46
330.683	-0.54
330.814	8.46
330.946	8.46
331.077	-3.54
331.208	-6.54
331.34	-4.54
331.471	4.46
331.603	-0.54
331.734	-8.54
331.866	13.46
331.997	13.46
332.129	-6.54
332.26	-1.54
332.392	1.46
332.523	-0.54
332.654	-5.54
332.786	12.46
332.917	4.46
333.048	5.46
333.18	29.46
333.311	-16.54
333.443	15.46
333.574	9.46
333.705	37.46
333.837	29.46
333.968	118.46
334.099	210.46
334.231	199.46
334.362	57.46
334.493	25.46
334.624	36.46
334.756	3.46
334.887	5.46
335.018	11.46
335.15	23.46
335.281	4.46
335.412	12.46
335.543	24.46
335.675	7.46
335.806	7.46
335.937	-0.54
336.068	2.46
336.199	36.46
336.331	2.46
336.462	13.46
336.593	19.46
336.724	7.46
336.855	17.46
336.986	18.46
337.118	25.46
337.249	19.46
337.38	14.46
337.511	17.46
337.642	10.46
337.773	13.46
337.904	6.46
338.035	13.46
338.166	-0.54
338.298	-1.54
338.429	3.46
338.56	24.46
338.691	20.46
338.822	8.46
338.953	0.46
339.084	9.46
339.215	7.46
339.346	7.46
339.477	6.46
339.608	12.46
339.739	1.46
339.87	21.46
340.001	2.46
340.132	-4.54
340.263	8.46
340.394	10.46
340.525	13.46
340.656	-1.54
340.787	3.46
340.918	27.46
341.049	20.46
341.179	10.46
341.31	11.46
341.441	26.46
341.572	24.46
341.703	17.46
341.834	-9.54
341.965	35.46
342.096	10.46
342.227	7.46
342.357	16.46
342.488	8.46
342.619	6.46
342.75	7.46
342.881	2.46
343.012	12.46
343.142	32.46
343.273	8.46
343.404	19.46
343.535	36.46
343.666	20.46
343.796	7.46
343.927	24.46
344.058	36.46
344.189	31.46
344.319	24.46
344.45	13.46
344.581	23.46
344.712	20.46
344.842	1.46
344.973	10.46
345.104	17.46
345.234	17.46
345.365	17.46
345.496	8.46
345.626	31.46
345.757	34.46
345.888	7.46
346.018	24.46
346.149	16.46
346.28	42.46
346.41	7.46
346.541	47.46
346.672	10.46
346.802	27.46
346.933	15.46
347.063	16.46
347.194	21.46
347.325	29.46
347.455	25.46
347.586	25.46
347.716	21.46
347.847	41.46
347.977	41.46
348.108	39.46
348.238	45.46
348.369	14.46
348.499	31.46
348.63	54.46
348.76	42.46
348.891	38.46
349.021	52.46
349.152	43.46
349.282	57.46
349.413	52.46
349.543	43.46
349.674	15.46
349.804	40.46
349.935	8.46
350.065	21.46
350.196	27.46
350.326	24.46
350.456	29.46
350.587	29.46
350.717	19.46
350.848	24.46
350.978	29.46
351.108	17.46
351.239	37.46
351.369	3.46
351.499	2.46
351.63	6.46
351.76	36.46
351.89	30.46
352.021	23.46
352.151	23.46
352.281	23.46
352.412	30.46
352.542	24.46
352.672	24.46
352.803	16.46
352.933	24.46
353.063	13.46
353.193	21.46
353.324	25.46
353.454	29.46
353.584	18.46
353.714	15.46
353.845	9.46
353.975	18.46
354.105	1.46
354.235	13.46
354.365	7.46
354.496	12.46
354.626	9.46
354.756	22.46
354.886	29.46
355.016	25.46
355.146	15.46
355.277	19.46
355.407	21.46
355.537	39.46
355.667	32.46
355.797	14.46
355.927	15.46
356.057	24.46
356.187	11.46
356.318	-3.54
356.448	35.46
356.578	28.46
356.708	39.46
356.838	57.46
356.968	21.46
357.098	29.46
357.228	29.46
357.358	18.46
357.488	2.46
357.618	66.46
357.748	49.46
357.878	14.46
358.008	27.46
358.138	26.46
358.268	24.46
358.398	51.46
358.528	14.46
358.658	27.46
358.788	27.46
358.918	38.46
359.048	15.46
359.178	38.46
359.308	28.46
359.438	44.46
359.568	30.46
359.698	40.46
359.827	18.46
359.957	31.46
360.087	37.46
360.217	24.46
360.347	35.46
360.477	47.46
360.607	12.46
360.737	15.46
360.866	22.46
360.996	25.46
361.126	32.46
361.256	43.46
361.386	45.46
361.516	31.46
361.645	24.46
361.775	26.46
361.905	6.46
362.035	31.46
362.165	34.46
362.294	40.46
362.424	50.46
362.554	31.46
362.684	25.46
362.813	51.46
362.943	47.46
363.073	57.46
363.203	45.46
363.332	78.46
363.462	61.46
363.592	89.46
363.721	125.46
363.851	174.46
363.981	197.46
364.111	248.46
364.24	301.46
364.37	481.46
364.5	869.46
364.629	1817.46
364.759	3891.46
364.888	6314.46
365.018	9428.46
365.148	14807.46
365.277	12980.46
365.407	4759.46
365.537	3143.46
365.666	4059.46
365.796	1806.46
365.925	803.46
366.055	752.46
366.184	1037.46
366.314	1443.46
366.444	2469.46
366.573	2135.46
366.703	665.46
366.832	228.46
366.962	109.46
367.091	91.46
367.221	73.46
367.35	56.46
367.48	100.46
367.609	54.46
367.739	55.46
367.868	35.46
367.998	50.46
368.127	52.46
368.257	57.46
368.386	43.46
368.516	54.46
368.645	39.46
368.775	37.46
368.904	26.46
369.033	11.46
369.163	22.46
369.292	46.46
369.422	36.46
369.551	44.46
369.68	40.46
369.81	49.46
369.939	15.46
370.069	42.46
370.198	28.46
370.327	28.46
370.457	34.46
370.586	38.46
370.715	28.46
370.845	39.46
370.974	32.46
371.103	54.46
371.233	51.46
371.362	44.46
371.491	33.46
371.621	48.46
371.75	29.46
371.879	36.46
372.008	39.46
372.138	63.46
372.267	55.46
372.396	44.46
372.525	32.46
372.655	37.46
372.784	13.46
372.913	19.46
373.042	36.46
373.172	22.46
373.301	-9.54
373.43	9.46
373.559	3.46
373.688	28.46
373.818	18.46
373.947	8.46
374.076	11.46
374.205	21.46
374.334	3.46
374.463	13.46
374.593	24.46
374.722	35.46
374.851	41.46
374.98	29.46
375.109	39.46
375.238	37.46
375.367	35.46
375.496	28.46
375.625	10.46
375.755	36.46
375.884	46.46
376.013	15.46
376.142	-1.54
376.271	8.46
376.4	13.46
376.529	24.46
376.658	26.46
376.787	11.46
376.916	23.46
377.045	37.46
377.174	19.46
377.303	35.46
377.432	40.46
377.561	28.46
377.69	16.46
377.819	38.46
377.948	20.46
378.077	15.46
378.206	14.46
378.335	13.46
378.464	16.46
378.593	40.46
378.722	13.46
378.851	26.46
378.98	23.46
379.108	16.46
379.237	4.46
379.366	23.46
379.495	24.46
379.624	10.46
379.753	10.46
379.882	36.46
380.011	5.46
380.14	23.46
380.268	19.46
380.397	3.46
380.526	25.46
380.655	-4.54
380.784	-25.54
380.913	8.46
381.041	-1.54
381.17	-8.54
381.299	12.46
381.428	18.46
381.557	32.46
381.685	4.46
381.814	33.46
381.943	25.46
382.072	0.46
382.2	9.46
382.329	11.46
382.458	30.46
382.587	25.46
382.715	31.46
382.844	38.46
382.973	24.46
383.102	-0.54
383.23	17.46
383.359	15.46
383.488	24.46
383.616	5.46
383.745	10.46
383.874	12.46
384.003	16.46
384.131	-4.54
384.26	-4.54
384.389	25.46
384.517	1.46
384.646	21.46
384.774	27.46
384.903	41.46
385.032	27.46
385.16	2.46
385.289	21.46
385.418	15.46
385.546	17.46
385.675	29.46
385.803	26.46
385.932	7.46
386.06	2.46
386.189	9.46
386.318	19.46
386.446	3.46
386.575	36.46
386.703	26.46
386.832	15.46
386.96	25.46
387.089	47.46
387.217	13.46
387.346	4.46
387.474	18.46
387.603	19.46
387.731	25.46
387.86	23.46
387.988	19.46
388.117	25.46
388.245	13.46
388.374	12.46
388.502	38.46
388.631	14.46
388.759	14.46
388.888	19.46
389.016	12.46
389.144	17.46
389.273	18.46
389.401	5.46
389.53	8.46
389.658	42.46
389.786	2.46
389.915	10.46
390.043	20.46
390.172	31.46
390.3	51.46
390.428	41.46
390.557	12.46
390.685	39.46
390.813	48.46
390.942	53.46
391.07	22.46
391.198	28.46
391.327	28.46
391.455	6.46
391.583	31.46
391.712	36.46
391.84	34.46
391.968	39.46
392.096	19.46
392.225	23.46
392.353	24.46
392.481	18.46
392.609	23.46
392.738	29.46
392.866	16.46
392.994	10.46
393.122	48.46
393.251	10.46
393.379	7.46
393.507	-3.54
393.635	7.46
393.764	22.46
393.892	24.46
394.02	-9.54
394.148	17.46
394.276	25.46
394.404	43.46
394.533	26.46
394.661	27.46
394.789	35.46
394.917	30.46
395.045	10.46
395.173	31.46
395.302	8.46
395.43	15.46
395.558	36.46
395.686	15.46
395.814	39.46
395.942	40.46
396.07	34.46
396.198	37.46
396.326	30.46
396.454	38.46
396.582	35.46
396.711	24.46
396.839	36.46
396.967	38.46
397.095	4.46
397.223	27.46
397.351	50.46
397.479	38.46
397.607	24.46
397.735	37.46
397.863	48.46
397.991	53.46
398.119	26.46
398.247	33.46
398.375	50.46
398.503	47.46
398.631	65.46
398.759	48.46
398.887	57.46
399.015	46.46
399.143	67.46
399.271	60.46
399.399	66.46
399.526	72.46
399.654	70.46
399.782	56.46
399.91	91.46
400.038	92.46
400.166	61.46
400.294	69.46
400.422	67.46
400.55	107.46
400.678	112.46
400.805	121.46
400.933	100.46
401.061	114.46
401.189	98.46
401.317	118.46
401.445	83.46
401.573	63.46
401.7	36.46
401.828	32.46
401.956	34.46
402.084	27.46
402.212	50.46
402.34	27.46
402.467	41.46
402.595	47.46
402.723	37.46
402.851	56.46
402.978	58.46
403.106	82.46
403.234	79.46
403.362	110.46
403.489	122.46
403.617	157.46
403.745	208.46
403.873	271.46
404	570.46
404.128	1477.46
404.256	3889.46
404.384	5092.46
404.511	5487.46
404.639	7249.46
404.767	11496.46
404.894	14640.46
405.022	4940.46
405.15	1315.46
405.277	437.46
405.405	239.46
405.533	124.46
405.66	114.46
405.788	75.46
405.916	50.46
406.043	46.46
406.171	69.46
406.299	53.46
406.426	55.46
406.554	45.46
406.681	73.46
406.809	57.46
406.937	60.46
407.064	75.46
407.192	130.46
407.319	284.46
407.447	517.46
407.574	550.46
407.702	629.46
407.83	882.46
407.957	1608.46
408.085	941.46
408.212	282.46
408.34	102.46
408.467	51.46
408.595	26.46
408.722	50.46
408.85	26.46
408.977	30.46
409.105	25.46
409.232	39.46
409.36	32.46
409.487	38.46
409.615	12.46
409.742	39.46
409.87	27.46
409.997	46.46
410.125	39.46
410.252	44.46
410.379	34.46
410.507	44.46
410.634	12.46
410.762	28.46
410.889	30.46
411.017	35.46
411.144	37.46
411.271	6.46
411.399	14.46
411.526	24.46
411.653	20.46
411.781	24.46
411.908	36.46
412.036	15.46
412.163	31.46
412.29	37.46
412.418	19.46
412.545	35.46
412.672	37.46
412.8	59.46
412.927	38.46
413.054	50.46
413.182	25.46
413.309	23.46
413.436	38.46
413.564	19.46
413.691	4.46
413.818	39.46
413.945	18.46
414.073	27.46
414.2	28.46
414.327	31.46
414.454	42.46
414.582	40.46
414.709	23.46
414.836	13.46
414.963	7.46
415.091	28.46
415.218	31.46
415.345	42.46
415.472	30.46
415.6	26.46
415.727	27.46
415.854	30.46
415.981	33.46
416.108	6.46
416.236	27.46
416.363	42.46
416.49	36.46
416.617	35.46
416.744	44.46
416.871	49.46
416.998	33.46
417.126	22.46
417.253	20.46
417.38	22.46
417.507	40.46
417.634	39.46
417.761	25.46
417.888	26.46
418.015	42.46
418.143	35.46
418.27	45.46
418.397	19.46
418.524	25.46
418.651	33.46
418.778	27.46
418.905	50.46
419.032	60.46
419.159	50.46
419.286	40.46
419.413	47.46
419.54	54.46
419.667	16.46
419.794	23.46
419.921	45.46
420.048	46.46
420.175	52.46
420.302	35.46
420.429	40.46
420.556	43.46
420.683	36.46
420.81	49.46
420.937	67.46
421.064	65.46
421.191	41.46
421.318	56.46
421.445	68.46
421.572	60.46
421.699	42.46
421.826	25.46
421.953	21.46
422.08	31.46
422.207	2.46
422.334	6.46
422.461	21.46
422.588	9.46
422.714	17.46
422.841	40.46
422.968	27.46
423.095	9.46
423.222	10.46
423.349	30.46
423.476	30.46
423.603	13.46
423.729	10.46
423.856	25.46
423.983	25.46
424.11	0.46
424.237	16.46
424.364	15.46
424.491	21.46
424.617	11.46
424.744	0.46
424.871	22.46
424.998	15.46
425.125	-0.54
425.251	27.46
425.378	20.46
425.505	29.46
425.632	24.46
425.758	11.46
425.885	19.46
426.012	14.46
426.139	27.46
426.266	15.46
426.392	19.46
426.519	38.46
426.646	18.46
426.772	26.46
426.899	17.46
427.026	9.46
427.153	6.46
427.279	43.46
427.406	15.46
427.533	-0.54
427.659	13.46
427.786	10.46
427.913	22.46
428.039	12.46
428.166	20.46
428.293	12.46
428.419	15.46
428.546	35.46
428.673	17.46
428.799	15.46
428.926	10.46
429.053	41.46
429.179	28.46
429.306	35.46
429.433	29.46
429.559	30.46
429.686	17.46
429.812	15.46
429.939	12.46
430.066	27.46
430.192	9.46
430.319	29.46
430.445	13.46
430.572	32.46
430.699	4.46
430.825	33.46
430.952	14.46
431.078	25.46
431.205	38.46
431.331	24.46
431.458	31.46
431.584	31.46
431.711	39.46
431.837	29.46
431.964	26.46
432.09	23.46
432.217	22.46
432.343	11.46
432.47	46.46
432.596	21.46
432.723	21.46
432.849	27.46
432.976	49.46
433.102	27.46
433.229	19.46
433.355	57.46
433.482	85.46
433.608	113.46
433.735	101.46
433.861	103.46
433.987	142.46
434.114	190.46
434.24	170.46
434.367	202.46
434.493	217.46
434.62	268.46
434.746	371.46
434.872	624.46
434.999	830.46
435.125	1751.46
435.252	5512.46
435.378	13433.46
435.504	15193.46
435.631	15422.46
435.757	15680.46
435.883	15680.46
436.01	15680.46
436.136	15680.46
436.262	15680.46
436.389	3500.46
436.515	2187.46
436.641	807.46
436.768	617.46
436.894	381.46
437.02	366.46
437.147	299.46
437.273	296.46
437.399	217.46
437.526	239.46
437.652	182.46
437.778	212.46
437.904	142.46
438.031	179.46
438.157	137.46
438.283	151.46
438.409	115.46
438.536	134.46
438.662	125.46
438.788	138.46
438.914	114.46
439.041	113.46
439.167	114.46
439.293	107.46
439.419	86.46
439.546	92.46
439.672	83.46
439.798	87.46
439.924	72.46
440.05	84.46
440.177	81.46
440.303	73.46
440.429	66.46
440.555	89.46
440.681	54.46
440.807	74.46
440.934	61.46
441.06	75.46
441.186	51.46
441.312	50.46
441.438	43.46
441.564	57.46
441.69	45.46
441.816	81.46
441.943	43.46
442.069	75.46
442.195	34.46
442.321	64.46
442.447	29.46
442.573	50.46
442.699	48.46
442.825	41.46
442.951	40.46
443.077	52.46
443.203	61.46
443.33	44.46
443.456	12.46
443.582	48.46
443.708	25.46
443.834	66.46
443.96	51.46
444.086	48.46
444.212	46.46
444.338	72.46
444.464	51.46
444.59	59.46
444.716	46.46
444.842	39.46
444.968	17.46
445.094	29.46
445.22	26.46
445.346	44.46
445.472	39.46
445.598	38.46
445.724	37.46
445.85	29.46
445.976	45.46
446.102	40.46
446.228	38.46
446.354	26.46
446.48	22.46
446.605	29.46
446.731	35.46
446.857	43.46
446.983	32.46
447.109	45.46
447.235	31.46
447.361	36.46
447.487	23.46
447.613	41.46
447.739	14.46
447.865	22.46
447.99	32.46
448.116	38.46
448.242	29.46
448.368	42.46
448.494	21.46
448.62	41.46
448.746	34.46
448.872	22.46
448.997	20.46
449.123	19.46
449.249	29.46
449.375	51.46
449.501	29.46
449.627	36.46
449.752	44.46
449.878	25.46
450.004	32.46
450.13	22.46
450.256	16.46
450.381	29.46
450.507	33.46
450.633	22.46
450.759	40.46
450.884	22.46
451.01	31.46
451.136	18.46
451.262	28.46
451.388	35.46
451.513	19.46
451.639	22.46
451.765	34.46
451.89	30.46
452.016	24.46
452.142	21.46
452.268	20.46
452.393	25.46
452.519	13.46
452.645	24.46
452.771	25.46
452.896	21.46
453.022	25.46
453.148	16.46
453.273	14.46
453.399	21.46
453.525	11.46
453.65	8.46
453.776	28.46
453.902	52.46
454.027	60.46
454.153	46.46
454.279	26.46
454.404	15.46
454.53	39.46
454.656	54.46
454.781	36.46
454.907	27.46
455.032	18.46
455.158	41.46
455.284	46.46
455.409	23.46
455.535	12.46
455.66	29.46
455.786	29.46
455.912	30.46
456.037	13.46
456.163	13.46
456.288	36.46
456.414	7.46
456.539	14.46
456.665	37.46
456.791	35.46
456.916	24.46
457.042	33.46
457.167	13.46
457.293	21.46
457.418	6.46
457.544	23.46
457.669	14.46
457.795	13.46
457.92	37.46
458.046	29.46
458.171	28.46
458.297	22.46
458.422	29.46
458.548	14.46
458.673	25.46
458.799	32.46
458.924	5.46
459.05	20.46
459.175	22.46
459.301	32.46
459.426	36.46
459.552	24.46
459.677	9.46
459.803	36.46
459.928	36.46
460.053	15.46
460.179	25.46
460.304	43.46
460.43	20.46
460.555	13.46
460.681	7.46
460.806	18.46
460.931	17.46
461.057	22.46
461.182	29.46
461.308	33.46
461.433	30.46
461.558	19.46
461.684	29.46
461.809	31.46
461.934	29.46
462.06	27.46
462.185	4.46
462.311	17.46
462.436	31.46
462.561	28.46
462.687	17.46
462.812	36.46
462.937	24.46
463.063	11.46
463.188	6.46
463.313	25.46
463.439	25.46
463.564	14.46
463.689	40.46
463.814	35.46
463.94	29.46
464.065	30.46
464.19	34.46
464.316	27.46
464.441	20.46
464.566	19.46
464.692	14.46
464.817	24.46
464.942	27.46
465.067	26.46
465.193	3.46
465.318	14.46
465.443	27.46
465.568	7.46
465.694	11.46
465.819	30.46
465.944	30.46
466.069	34.46
466.194	46.46
466.32	32.46
466.445	31.46
466.57	-5.54
466.695	33.46
466.82	29.46
466.946	36.46
467.071	25.46
467.196	29.46
467.321	39.46
467.446	37.46
467.572	32.46
467.697	21.46
467.822	36.46
467.947	39.46
468.072	18.46
468.197	27.46
468.323	19.46
468.448	15.46
468.573	20.46
468.698	24.46
468.823	33.46
468.948	53.46
469.073	40.46
469.198	38.46
469.324	50.46
469.449	46.46
469.574	42.46
469.699	33.46
469.824	35.46
469.949	27.46
470.074	39.46
470.199	55.46
470.324	35.46
470.449	49.46
470.574	34.46
470.7	38.46
470.825	41.46
470.95	45.46
471.075	18.46
471.2	27.46
471.325	57.46
471.45	35.46
471.575	19.46
471.7	37.46
471.825	37.46
471.95	18.46
472.075	1.46
472.2	22.46
472.325	12.46
472.45	15.46
472.575	15.46
472.7	10.46
472.825	46.46
472.95	35.46
473.075	37.46
473.2	43.46
473.325	32.46
473.45	44.46
473.575	17.46
473.7	32.46
473.825	32.46
473.95	24.46
474.075	37.46
474.2	15.46
474.325	22.46
474.45	47.46
474.574	35.46
474.699	32.46
474.824	35.46
474.949	16.46
475.074	23.46
475.199	21.46
475.324	31.46
475.449	18.46
475.574	38.46
475.699	20.46
475.824	12.46
475.949	32.46
476.073	13.46
476.198	22.46
476.323	29.46
476.448	11.46
476.573	25.46
476.698	41.46
476.823	17.46
476.947	18.46
477.072	28.46
477.197	6.46
477.322	16.46
477.447	5.46
477.572	29.46
477.697	23.46
477.821	12.46
477.946	21.46
478.071	18.46
478.196	31.46
478.321	21.46
478.445	24.46
478.57	11.46
478.695	16.46
478.82	27.46
478.945	21.46
479.069	27.46
479.194	25.46
479.319	47.46
479.444	37.46
479.569	18.46
479.693	34.46
479.818	31.46
479.943	24.46
480.068	39.46
480.192	27.46
480.317	4.46
480.442	9.46
480.567	17.46
480.691	29.46
480.816	22.46
480.941	-2.54
481.066	21.46
481.19	25.46
481.315	29.46
481.44	20.46
481.564	-5.54
481.689	19.46
481.814	13.46
481.938	32.46
482.063	18.46
482.188	10.46
482.313	23.46
482.437	15.46
482.562	18.46
482.687	26.46
482.811	31.46
482.936	16.46
483.061	35.46
483.185	15.46
483.31	31.46
483.435	19.46
483.559	17.46
483.684	21.46
483.808	34.46
483.933	21.46
484.058	28.46
484.182	29.46
484.307	24.46
484.432	18.46
484.556	24.46
484.681	28.46
484.805	15.46
484.93	12.46
485.055	37.46
485.179	49.46
485.304	31.46
485.428	25.46
485.553	8.46
485.678	12.46
485.802	22.46
485.927	30.46
486.051	30.46
486.176	6.46
486.3	9.46
486.425	15.46
486.549	19.46
486.674	27.46
486.799	27.46
486.923	9.46
487.048	2.46
487.172	-3.54
487.297	10.46
487.421	29.46
487.546	16.46
487.67	32.46
487.795	7.46
487.919	12.46
488.044	28.46
488.168	24.46
488.293	21.46
488.417	14.46
488.542	33.46
488.666	20.46
488.791	41.46
488.915	23.46
489.04	22.46
489.164	22.46
489.289	29.46
489.413	10.46
489.538	15.46
489.662	44.46
489.786	20.46
489.911	18.46
490.035	19.46
490.16	5.46
490.284	8.46
490.409	3.46
490.533	14.46
490.658	46.46
490.782	41.46
490.906	37.46
491.031	109.46
491.155	140.46
491.28	140.46
491.404	157.46
491.528	238.46
491.653	156.46
491.777	62.46
491.902	47.46
492.026	39.46
492.15	18.46
492.275	34.46
492.399	25.46
492.524	18.46
492.648	37.46
492.772	23.46
492.897	23.46
493.021	9.46
493.145	30.46
493.27	43.46
493.394	37.46
493.518	19.46
493.643	23.46
493.767	15.46
493.891	9.46
494.016	21.46
494.14	16.46
494.264	11.46
494.389	28.46
494.513	15.46
494.637	4.46
494.762	37.46
494.886	27.46
495.01	38.46
495.134	25.46
495.259	25.46
495.383	18.46
495.507	19.46
495.632	31.46
495.756	36.46
495.88	25.46
496.004	36.46
496.129	13.46
496.253	17.46
496.377	11.46
496.501	39.46
496.626	4.46
496.75	23.46
496.874	24.46
496.998	20.46
497.123	29.46
497.247	24.46
497.371	15.46
497.495	30.46
497.62	8.46
497.744	18.46
497.868	17.46
497.992	15.46
498.116	11.46
498.241	11.46
498.365	29.46
498.489	6.46
498.613	35.46
498.737	14.46
498.862	4.46
498.986	24.46
499.11	10.46
499.234	25.46
499.358	15.46
499.482	25.46
499.607	10.46
499.731	18.46
499.855	52.46
499.979	32.46
500.103	18.46
500.227	25.46
500.351	19.46
500.476	17.46
500.6	15.46
500.724	30.46
500.848	22.46
500.972	27.46
501.096	28.46
501.22	41.46
501.344	17.46
501.469	22.46
501.593	24.46
501.717	21.46
501.841	20.46
501.965	22.46
502.089	4.46
502.213	34.46
502.337	11.46
502.461	18.46
502.585	36.46
502.709	30.46
502.834	15.46
502.958	31.46
503.082	16.46
503.206	19.46
503.33	38.46
503.454	19.46
503.578	25.46
503.702	26.46
503.826	26.46
503.95	41.46
504.074	13.46
504.198	20.46
504.322	1.46
504.446	15.46
504.57	33.46
504.694	36.46
504.818	22.46
504.942	40.46
505.066	20.46
505.19	12.46
505.314	17.46
505.438	19.46
505.562	13.46
505.686	15.46
505.81	18.46
505.934	13.46
506.058	24.46
506.182	30.46
506.306	36.46
506.43	17.46
506.554	10.46
506.678	19.46
506.802	21.46
506.926	29.46
507.05	32.46
507.174	33.46
507.298	37.46
507.422	35.46
507.546	27.46
507.67	38.46
507.794	9.46
507.918	24.46
508.042	14.46
508.165	14.46
508.289	20.46
508.413	24.46
508.537	19.46
508.661	34.46
508.785	1.46
508.909	24.46
509.033	24.46
509.157	20.46
509.281	25.46
509.405	17.46
509.528	34.46
509.652	39.46
509.776	25.46
509.9	33.46
510.024	23.46
510.148	49.46
510.272	27.46
510.396	30.46
510.519	27.46
510.643	47.46
510.767	26.46
510.891	37.46
511.015	38.46
511.139	31.46
511.263	42.46
511.386	35.46
511.51	32.46
511.634	28.46
511.758	38.46
511.882	33.46
512.006	35.46
512.129	60.46
512.253	80.46
512.377	73.46
512.501	88.46
512.625	81.46
512.748	89.46
512.872	75.46
512.996	66.46
513.12	41.46
513.244	62.46
513.367	65.46
513.491	53.46
513.615	84.46
513.739	60.46
513.862	87.46
513.986	108.46
514.11	92.46
514.234	106.46
514.358	112.46
514.481	119.46
514.605	109.46
514.729	117.46
514.853	111.46
514.976	90.46
515.1	95.46
515.224	113.46
515.348	104.46
515.471	89.46
515.595	108.46
515.719	132.46
515.842	225.46
515.966	273.46
516.09	311.46
516.214	318.46
516.337	333.46
516.461	227.46
516.585	91.46
516.708	44.46
516.832	39.46
516.956	28.46
517.08	6.46
517.203	2.46
517.327	18.46
517.451	19.46
517.574	22.46
517.698	13.46
517.822	26.46
517.945	21.46
518.069	25.46
518.193	58.46
518.316	38.46
518.44	38.46
518.564	9.46
518.687	14.46
518.811	7.46
518.935	25.46
519.058	9.46
519.182	25.46
519.306	14.46
519.429	3.46
519.553	40.46
519.676	17.46
519.8	37.46
519.924	13.46
520.047	24.46
520.171	8.46
520.294	2.46
520.418	27.46
520.542	15.46
520.665	19.46
520.789	7.46
520.913	5.46
521.036	17.46
521.16	-4.54
521.283	-3.54
521.407	13.46
521.53	4.46
521.654	7.46
521.778	25.46
521.901	25.46
522.025	14.46
522.148	1.46
522.272	31.46
522.395	24.46
522.519	33.46
522.643	4.46
522.766	23.46
522.89	11.46
523.013	17.46
523.137	-4.54
523.26	14.46
523.384	7.46
523.507	27.46
523.631	19.46
523.754	-1.54
523.878	30.46
524.002	22.46
524.125	-4.54
524.249	-7.54
524.372	13.46
524.496	19.46
524.619	43.46
524.743	15.46
524.866	11.46
524.99	4.46
525.113	1.46
525.237	10.46
525.36	32.46
525.484	31.46
525.607	-5.54
525.731	-16.54
525.854	27.46
525.978	21.46
526.101	4.46
526.224	-10.54
526.348	7.46
526.471	15.46
526.595	19.46
526.718	-7.54
526.842	9.46
526.965	15.46
527.089	8.46
527.212	5.46
527.336	16.46
527.459	19.46
527.582	17.46
527.706	24.46
527.829	13.46
527.953	26.46
528.076	19.46
528.2	-0.54
528.323	13.46
528.446	13.46
528.57	14.46
528.693	41.46
528.817	27.46
528.94	27.46
529.064	46.46
529.187	13.46
529.31	31.46
529.434	5.46
529.557	2.46
529.68	-2.54
529.804	22.46
529.927	22.46
530.051	18.46
530.174	2.46
530.297	21.46
530.421	4.46
530.544	15.46
530.668	22.46
530.791	9.46
530.914	21.46
531.038	34.46
531.161	3.46
531.284	29.46
531.408	16.46
531.531	16.46
531.654	6.46
531.778	23.46
531.901	5.46
532.024	11.46
532.148	7.46
532.271	9.46
532.394	15.46
532.518	15.46
532.641	15.46
532.764	4.46
532.888	15.46
533.011	9.46
533.134	-2.54
533.258	28.46
533.381	4.46
533.504	18.46
533.628	23.46
533.751	21.46
533.874	15.46
533.997	9.46
534.121	-5.54
534.244	19.46
534.367	24.46
534.491	16.46
534.614	15.46
534.737	28.46
534.86	38.46
534.984	18.46
535.107	-1.54
535.23	15.46
535.354	1.46
535.477	-13.54
535.6	14.46
535.723	27.46
535.847	5.46
535.97	-3.54
536.093	22.46
536.216	18.46
536.34	17.46
536.463	1.46
536.586	5.46
536.709	26.46
536.833	30.46
536.956	5.46
537.079	9.46
537.202	18.46
537.325	11.46
537.449	7.46
537.572	26.46
537.695	1.46
537.818	22.46
537.941	10.46
538.065	11.46
538.188	11.46
538.311	31.46
538.434	31.46
538.558	20.46
538.681	43.46
538.804	26.46
538.927	14.46
539.05	13.46
539.173	13.46
539.297	12.46
539.42	4.46
539.543	15.46
539.666	15.46
539.789	18.46
539.913	-3.54
540.036	10.46
540.159	43.46
540.282	21.46
540.405	17.46
540.528	21.46
540.651	9.46
540.775	24.46
540.898	28.46
541.021	34.46
541.144	28.46
541.267	29.46
541.39	10.46
541.513	28.46
541.637	29.46
541.76	10.46
541.883	21.46
542.006	41.46
542.129	44.46
542.252	28.46
542.375	39.46
542.498	39.46
542.622	48.46
542.745	46.46
542.868	29.46
542.991	40.46
543.114	63.46
543.237	59.46
543.36	54.46
543.483	61.46
543.606	67.46
543.73	83.46
543.853	67.46
543.976	83.46
544.099	102.46
544.222	114.46
544.345	135.46
544.468	174.46
544.591	208.46
544.714	258.46
544.837	335.46
544.96	443.46
545.083	634.46
545.206	1094.46
545.329	2433.46
545.453	10994.46
545.576	15262.46
545.699	15680.46
545.822	15680.46
545.945	15680.46
546.068	15680.46
546.191	15680.46
546.314	15680.46
546.437	15680.46
546.56	15680.46
546.683	15680.46
546.806	15680.46
546.929	15680.46
547.052	15680.46
547.175	15680.46
547.298	15680.46
547.421	15680.46
547.544	15680.46
547.667	3639.46
547.79	3025.46
547.913	1155.46
548.036	920.46
548.159	651.46
548.282	635.46
548.405	488.46
548.528	502.46
548.651	400.46
548.774	404.46
548.897	334.46
549.02	355.46
549.143	323.46
549.266	302.46
549.389	277.46
549.512	273.46
549.635	255.46
549.758	258.46
549.881	222.46
550.004	221.46
550.127	221.46
550.25	191.46
550.373	159.46
550.496	162.46
550.619	141.46
550.742	135.46
550.865	143.46
550.988	169.46
551.111	173.46
551.234	159.46
551.356	117.46
551.479	143.46
551.602	137.46
551.725	126.46
551.848	133.46
551.971	130.46
552.094	136.46
552.217	99.46
552.34	106.46
552.463	102.46
552.586	97.46
552.709	90.46
552.832	116.46
552.955	104.46
553.077	107.46
553.2	108.46
553.323	69.46
553.446	111.46
553.569	78.46
553.692	99.46
553.815	93.46
553.938	97.46
554.061	91.46
554.184	86.46
554.306	79.46
554.429	81.46
554.552	75.46
554.675	79.46
554.798	71.46
554.921	97.46
555.044	70.46
555.167	73.46
555.29	55.46
555.412	50.46
555.535	57.46
555.658	71.46
555.781	77.46
555.904	84.46
556.027	89.46
556.15	85.46
556.272	61.46
556.395	82.46
556.518	82.46
556.641	83.46
556.764	78.46
556.887	72.46
557.01	60.46
557.132	57.46
557.255	74.46
557.378	75.46
557.501	60.46
557.624	85.46
557.747	80.46
557.869	80.46
557.992	84.46
558.115	100.46
558.238	78.46
558.361	97.46
558.483	97.46
558.606	70.46
558.729	63.46
558.852	78.46
558.975	68.46
559.098	67.46
559.22	67.46
559.343	62.46
559.466	41.46
559.589	50.46
559.712	52.46
559.834	51.46
559.957	44.46
560.08	48.46
560.203	60.46
560.325	60.46
560.448	72.46
560.571	51.46
560.694	37.46
560.817	70.46
560.939	54.46
561.062	51.46
561.185	45.46
561.308	75.46
561.43	55.46
561.553	71.46
561.676	73.46
561.799	71.46
561.921	65.46
562.044	41.46
562.167	60.46
562.29	68.46
562.413	67.46
562.535	54.46
562.658	41.46
562.781	30.46
562.903	75.46
563.026	95.46
563.149	154.46
563.272	123.46
563.394	114.46
563.517	102.46
563.64	71.46
563.763	47.46
563.885	51.46
564.008	48.46
564.131	51.46
564.254	24.46
564.376	25.46
564.499	11.46
564.622	27.46
564.744	42.46
564.867	26.46
564.99	40.46
565.113	56.46
565.235	25.46
565.358	33.46
565.481	22.46
565.603	29.46
565.726	23.46
565.849	48.46
565.971	52.46
566.094	20.46
566.217	21.46
566.34	22.46
566.462	29.46
566.585	49.46
566.708	53.46
566.83	35.46
566.953	39.46
567.076	25.46
567.198	13.46
567.321	23.46
567.444	47.46
567.566	50.46
567.689	43.46
567.812	46.46
567.934	39.46
568.057	16.46
568.18	28.46
568.302	19.46
568.425	33.46
568.548	24.46
568.67	43.46
568.793	51.46
568.916	40.46
569.038	23.46
569.161	27.46
569.283	18.46
569.406	21.46
569.529	25.46
569.651	16.46
569.774	20.46
569.897	31.46
570.019	45.46
570.142	32.46
570.265	33.46
570.387	28.46
570.51	41.46
570.632	49.46
570.755	17.46
570.878	23.46
571	46.46
571.123	45.46
571.246	40.46
571.368	23.46
571.491	34.46
571.613	28.46
571.736	29.46
571.859	39.46
571.981	-4.54
572.104	11.46
572.226	45.46
572.349	26.46
572.472	34.46
572.594	36.46
572.717	15.46
572.839	32.46
572.962	33.46
573.085	26.46
573.207	29.46
573.33	21.46
573.452	31.46
573.575	39.46
573.697	22.46
573.82	38.46
573.943	13.46
574.065	35.46
574.188	27.46
574.31	60.46
574.433	30.46
574.555	45.46
574.678	20.46
574.801	36.46
574.923	18.46
575.046	45.46
575.168	42.46
575.291	45.46
575.413	41.46
575.536	46.46
575.659	49.46
575.781	47.46
575.904	40.46
576.026	61.46
576.149	70.46
576.271	113.46
576.394	206.46
576.516	536.46
576.639	3627.46
576.761	10152.46
576.884	8854.46
577.007	8764.46
577.129	7961.46
577.252	3720.46
577.374	1306.46
577.497	513.46
577.619	304.46
577.742	180.46
577.864	151.46
577.987	130.46
578.109	128.46
578.232	126.46
578.354	158.46
578.477	207.46
578.599	381.46
578.722	1954.46
578.844	9075.46
578.967	9900.46
579.089	8850.46
579.212	9109.46
579.334	5258.46
579.457	1883.46
579.579	711.46
579.702	311.46
579.824	194.46
579.947	126.46
580.069	100.46
580.192	73.46
580.314	81.46
580.437	65.46
580.559	87.46
580.682	58.46
580.804	68.46
580.927	60.46
581.049	54.46
581.172	57.46
581.294	48.46
581.417	62.46
581.539	48.46
581.662	46.46
581.784	61.46
581.907	57.46
582.029	40.46
582.152	39.46
582.274	63.46
582.396	45.46
582.519	37.46
582.641	28.46
582.764	22.46
582.886	49.46
583.009	30.46
583.131	17.46
583.254	26.46
583.376	43.46
583.499	37.46
583.621	32.46
583.743	54.46
583.866	36.46
583.988	27.46
584.111	13.46
584.233	30.46
584.356	29.46
584.478	30.46
584.601	19.46
584.723	19.46
584.845	34.46
584.968	15.46
585.09	10.46
585.213	35.46
585.335	30.46
585.458	20.46
585.58	17.46
585.702	42.46
585.825	23.46
585.947	30.46
586.07	16.46
586.192	14.46
586.315	31.46
586.437	14.46
586.559	19.46
586.682	19.46
586.804	39.46
586.927	25.46
587.049	27.46
587.171	35.46
587.294	38.46
587.416	35.46
587.539	21.46
587.661	18.46
587.783	35.46
587.906	17.46
588.028	29.46
588.151	29.46
588.273	38.46
588.395	25.46
588.518	12.46
588.64	25.46
588.763	40.46
588.885	44.46
589.007	34.46
589.13	14.46
589.252	18.46
589.375	28.46
589.497	31.46
589.619	39.46
589.742	26.46
589.864	46.46
589.986	26.46
590.109	18.46
590.231	20.46
590.354	32.46
590.476	8.46
590.598	21.46
590.721	21.46
590.843	35.46
590.965	34.46
591.088	14.46
591.21	26.46
591.332	21.46
591.455	12.46
591.577	12.46
591.7	16.46
591.822	25.46
591.944	31.46
592.067	1.46
592.189	13.46
592.311	19.46
592.434	33.46
592.556	36.46
592.678	29.46
592.801	39.46
592.923	26.46
593.045	22.46
593.168	24.46
593.29	22.46
593.412	23.46
593.535	25.46
593.657	32.46
593.779	23.46
593.902	18.46
594.024	9.46
594.146	39.46
594.269	27.46
594.391	28.46
594.513	30.46
594.636	23.46
594.758	5.46
594.88	19.46
595.003	39.46
595.125	13.46
595.247	25.46
595.37	28.46
595.492	16.46
595.614	38.46
595.737	35.46
595.859	21.46
595.981	31.46
596.104	36.46
596.226	9.46
596.348	10.46
596.471	23.46
596.593	31.46
596.715	26.46
596.838	19.46
596.96	11.46
597.082	34.46
597.204	25.46
597.327	11.46
597.449	24.46
597.571	25.46
597.694	25.46
597.816	25.46
597.938	7.46
598.061	3.46
598.183	25.46
598.305	27.46
598.427	24.46
598.55	10.46
598.672	26.46
598.794	32.46
598.917	24.46
599.039	28.46
599.161	43.46
599.283	26.46
599.406	11.46
599.528	41.46
599.65	47.46
599.773	31.46
599.895	47.46
600.017	33.46
600.139	34.46
600.262	7.46
600.384	21.46
600.506	26.46
600.628	39.46
600.751	43.46
600.873	22.46
600.995	22.46
601.118	33.46
601.24	16.46
601.362	32.46
601.484	22.46
601.607	17.46
601.729	28.46
601.851	30.46
601.973	19.46
602.096	36.46
602.218	27.46
602.34	20.46
602.462	37.46
602.585	14.46
602.707	-2.54
602.829	23.46
602.951	5.46
603.074	5.46
603.196	14.46
603.318	-4.54
603.44	28.46
603.563	10.46
603.685	9.46
603.807	27.46
603.929	17.46
604.052	34.46
604.174	32.46
604.296	40.46
604.418	17.46
604.541	34.46
604.663	1.46
604.785	25.46
604.907	26.46
605.03	7.46
605.152	30.46
605.274	18.46
605.396	17.46
605.519	34.46
605.641	24.46
605.763	24.46
605.885	24.46
606.008	22.46
606.13	37.46
606.252	23.46
606.374	11.46
606.496	5.46
606.619	32.46
606.741	23.46
606.863	41.46
606.985	41.46
607.108	33.46
607.23	11.46
607.352	27.46
607.474	7.46
607.596	17.46
607.719	34.46
607.841	28.46
607.963	18.46
608.085	11.46
608.207	38.46
608.33	29.46
608.452	11.46
608.574	18.46
608.696	22.46
608.819	21.46
608.941	15.46
609.063	6.46
609.185	17.46
609.307	25.46
609.43	35.46
609.552	35.46
609.674	-2.54
609.796	19.46
609.918	23.46
610.041	15.46
610.163	27.46
610.285	9.46
610.407	38.46
610.529	13.46
610.652	25.46
610.774	41.46
610.896	22.46
611.018	5.46
611.14	16.46
611.263	25.46
611.385	4.46
611.507	23.46
611.629	0.46
611.751	17.46
611.873	48.46
611.996	32.46
612.118	14.46
612.24	23.46
612.362	23.46
612.484	29.46
612.607	41.46
612.729	48.46
612.851	29.46
612.973	18.46
613.095	20.46
613.218	11.46
613.34	19.46
613.462	24.46
613.584	15.46
613.706	19.46
613.828	20.46
613.951	22.46
614.073	25.46
614.195	1.46
614.317	15.46
614.439	30.46
614.561	33.46
614.684	9.46
614.806	30.46
614.928	28.46
615.05	25.46
615.172	19.46
615.294	27.46
615.417	12.46
615.539	17.46
615.661	14.46
615.783	44.46
615.905	15.46
616.027	15.46
616.15	34.46
616.272	33.46
616.394	-8.54
616.516	17.46
616.638	22.46
616.76	28.46
616.883	47.46
617.005	13.46
617.127	9.46
617.249	26.46
617.371	32.46
617.493	32.46
617.615	33.46
617.738	22.46
617.86	27.46
617.982	22.46
618.104	16.46
618.226	8.46
618.348	17.46
618.471	21.46
618.593	16.46
618.715	5.46
618.837	6.46
618.959	11.46
619.081	29.46
619.203	31.46
619.326	33.46
619.448	31.46
619.57	31.46
619.692	36.46
619.814	35.46
619.936	17.46
620.058	23.46
620.181	29.46
620.303	26.46
620.425	34.46
620.547	10.46
620.669	-0.54
620.791	-0.54
620.913	2.46
621.036	7.46
621.158	20.46
621.28	21.46
621.402	1.46
621.524	20.46
621.646	12.46
621.768	20.46
621.891	6.46
622.013	25.46
622.135	1.46
622.257	9.46
622.379	7.46
622.501	1.46
622.623	12.46
622.745	17.46
622.868	17.46
622.99	14.46
623.112	15.46
623.234	28.46
623.356	11.46
623.478	9.46
623.6	8.46
623.722	24.46
623.845	30.46
623.967	18.46
624.089	20.46
624.211	8.46
624.333	23.46
624.455	14.46
624.577	33.46
624.699	49.46
624.822	24.46
624.944	10.46
625.066	25.46
625.188	3.46
625.31	5.46
625.432	41.46
625.554	27.46
625.676	49.46
625.799	25.46
625.921	18.46
626.043	31.46
626.165	35.46
626.287	-0.54
626.409	16.46
626.531	11.46
626.653	17.46
626.775	9.46
626.898	27.46
627.02	24.46
627.142	38.46
627.264	24.46
627.386	2.46
627.508	3.46
627.63	10.46
627.752	24.46
627.874	12.46
627.997	20.46
628.119	14.46
628.241	29.46
628.363	28.46
628.485	13.46
628.607	10.46
628.729	13.46
628.851	2.46
628.973	26.46
629.096	1.46
629.218	7.46
629.34	12.46
629.462	18.46
629.584	14.46
629.706	-9.54
629.828	33.46
629.95	26.46
630.072	17.46
630.195	11.46
630.317	20.46
630.439	13.46
630.561	18.46
630.683	5.46
630.805	22.46
630.927	26.46
631.049	1.46
631.171	-3.54
631.293	26.46
631.416	31.46
631.538	31.46
631.66	11.46
631.782	34.46
631.904	39.46
632.026	13.46
632.148	5.46
632.27	1.46
632.392	13.46
632.514	15.46
632.637	34.46
632.759	20.46
632.881	-2.54
633.003	-17.54
633.125	8.46
633.247	23.46
633.369	27.46
633.491	10.46
633.613	22.46
633.735	13.46
633.858	13.46
633.98	13.46
634.102	-6.54
634.224	5.46
634.346	12.46
634.468	9.46
634.59	17.46
634.712	18.46
634.834	15.46
634.956	7.46
635.078	8.46
635.201	-0.54
635.323	19.46
635.445	18.46
635.567	9.46
635.689	28.46
635.811	15.46
635.933	9.46
636.055	14.46
636.177	18.46
636.299	27.46
636.421	-1.54
636.544	-11.54
636.666	22.46
636.788	12.46
636.91	14.46
637.032	9.46
637.154	10.46
637.276	31.46
637.398	31.46
637.52	18.46
637.642	10.46
637.764	7.46
637.887	2.46
638.009	-4.54
638.131	25.46
638.253	-3.54
638.375	16.46
638.497	12.46
638.619	2.46
638.741	12.46
638.863	3.46
638.985	11.46
639.107	14.46
639.23	13.46
639.352	26.46
639.474	-1.54
639.596	16.46
639.718	13.46
639.84	7.46
639.962	11.46
640.084	15.46
640.206	17.46
640.328	6.46
640.45	6.46
640.573	4.46
640.695	6.46
640.817	16.46
640.939	15.46
641.061	25.46
641.183	0.46
641.305	12.46
641.427	4.46
641.549	19.46
641.671	19.46
641.793	21.46
641.915	22.46
642.038	13.46
642.16	10.46
642.282	6.46
642.404	2.46
642.526	14.46
642.648	-5.54
642.77	21.46
642.892	3.46
643.014	15.46
643.136	15.46
643.258	14.46
643.381	26.46
643.503	19.46
643.625	18.46
643.747	-1.54
643.869	7.46
643.991	22.46
644.113	10.46
644.235	17.46
644.357	11.46
644.479	13.46
644.601	-1.54
644.723	4.46
644.846	16.46
644.968	20.46
645.09	-10.54
645.212	12.46
645.334	19.46
645.456	20.46
645.578	40.46
645.7	13.46
645.822	20.46
645.944	25.46
646.066	6.46
646.188	3.46
646.311	37.46
646.433	1.46
646.555	33.46
646.677	21.46
646.799	16.46
646.921	6.46
647.043	26.46
647.165	-0.54
647.287	7.46
647.409	17.46
647.531	23.46
647.654	2.46
647.776	28.46
647.898	9.46
648.02	13.46
648.142	14.46
648.264	14.46
648.386	3.46
648.508	-4.54
648.63	-17.54
648.752	12.46
648.874	-1.54
648.997	13.46
649.119	28.46
649.241	-2.54
649.363	34.46
649.485	11.46
649.607	1.46
649.729	-11.54
649.851	-0.54
649.973	12.46
650.095	47.46
650.217	-7.54
650.34	3.46
650.462	14.46
650.584	21.46
650.706	24.46
650.828	17.46
650.95	12.46
651.072	13.46
651.194	-2.54
651.316	20.46
651.438	16.46
651.56	5.46
651.683	4.46
651.805	10.46
651.927	7.46
652.049	-9.54
652.171	0.46
652.293	3.46
652.415	-16.54
652.537	-2.54
652.659	2.46
652.781	7.46
652.903	12.46
653.026	21.46
653.148	24.46
653.27	5.46
653.392	5.46
653.514	4.46
653.636	13.46
653.758	-3.54
653.88	7.46
654.002	-0.54
654.124	7.46
654.247	-0.54
654.369	-3.54
654.491	7.46
654.613	5.46
654.735	10.46
654.857	14.46
654.979	12.46
655.101	13.46
655.223	42.46
655.345	25.46
655.468	21.46
655.59	1.46
655.712	-2.54
655.834	26.46
655.956	14.46
656.078	-0.54
656.2	9.46
656.322	7.46
656.444	1.46
656.566	6.46
656.689	14.46
656.811	11.46
656.933	15.46
657.055	-7.54
657.177	7.46
657.299	-0.54
657.421	5.46
657.543	-14.54
657.665	1.46
657.787	20.46
657.91	6.46
658.032	1.46
658.154	2.46
658.276	6.46
658.398	-13.54
658.52	9.46
658.642	1.46
658.764	18.46
658.886	1.46
659.009	2.46
659.131	23.46
659.253	2.46
659.375	9.46
659.497	4.46
659.619	22.46
659.741	0.46
659.863	-2.54
659.985	-16.54
660.108	3.46
660.23	-2.54
660.352	-4.54
660.474	15.46
660.596	18.46
660.718	22.46
660.84	15.46
660.962	9.46
661.084	11.46
661.207	-2.54
661.329	9.46
661.451	-1.54
661.573	3.46
661.695	27.46
661.817	11.46
661.939	21.46
662.061	17.46
662.184	11.46
662.306	10.46
662.428	-2.54
662.55	13.46
662.672	12.46
662.794	15.46
662.916	1.46
663.038	2.46
663.161	18.46
663.283	21.46
663.405	17.46
663.527	12.46
663.649	11.46
663.771	2.46
663.893	8.46
664.015	11.46
664.138	-1.54
664.26	-6.54
664.382	1.46
664.504	2.46
664.626	-2.54
664.748	13.46
664.87	10.46
664.992	16.46
665.115	30.46
665.237	23.46
665.359	10.46
665.481	14.46
665.603	5.46
665.725	7.46
665.847	-12.54
665.97	2.46
666.092	0.46
666.214	22.46
666.336	3.46
666.458	16.46
666.58	2.46
666.702	1.46
666.825	9.46
666.947	-0.54
667.069	-0.54
667.191	9.46
667.313	14.46
667.435	-7.54
667.557	1.46
667.68	-2.54
667.802	-11.54
667.924	6.46
668.046	19.46
668.168	8.46
668.29	45.46
668.412	11.46
668.535	7.46
668.657	1.46
668.779	5.46
668.901	0.46
669.023	1.46
669.145	5.46
669.267	12.46
669.39	20.46
669.512	0.46
669.634	13.46
669.756	3.46
669.878	16.46
670	12.46
670.123	2.46
670.245	19.46
670.367	31.46
670.489	24.46
670.611	9.46
670.733	2.46
670.856	6.46
670.978	20.46
671.1	19.46
671.222	18.46
671.344	7.46
671.466	3.46
671.589	4.46
671.711	6.46
671.833	-10.54
671.955	-7.54
672.077	-5.54
672.199	15.46
672.322	28.46
672.444	2.46
672.566	23.46
672.688	1.46
672.81	-1.54
672.932	13.46
673.055	4.46
673.177	-0.54
673.299	13.46
673.421	-15.54
673.543	-2.54
673.665	16.46
673.788	18.46
673.91	2.46
674.032	-16.54
674.154	3.46
674.276	21.46
674.399	4.46
674.521	1.46
674.643	13.46
674.765	5.46
674.887	8.46
675.009	-0.54
675.132	-10.54
675.254	3.46
675.376	11.46
675.498	15.46
675.62	27.46
675.743	6.46
675.865	14.46
675.987	1.46
676.109	6.46
676.231	24.46
676.354	25.46
676.476	5.46
676.598	14.46
676.72	7.46
676.842	13.46
676.965	3.46
677.087	-2.54
677.209	1.46
677.331	29.46
677.453	10.46
677.576	-9.54
677.698	3.46
677.82	17.46
677.942	-1.54
678.064	1.46
678.187	26.46
678.309	3.46
678.431	14.46
678.553	10.46
678.675	19.46
678.798	18.46
678.92	11.46
679.042	5.46
679.164	1.46
679.286	13.46
679.409	1.46
679.531	-16.54
679.653	-7.54
679.775	5.46
679.898	7.46
680.02	-3.54
680.142	-9.54
680.264	0.46
680.386	-29.54
680.509	7.46
680.631	9.46
680.753	20.46
680.875	-10.54
680.998	8.46
681.12	-5.54
681.242	9.46
681.364	-12.54
681.486	4.46
681.609	-2.54
681.731	-6.54
681.853	7.46
681.975	1.46
682.098	3.46
682.22	30.46
682.342	-1.54
682.464	17.46
682.587	9.46
682.709	17.46
682.831	1.46
682.953	-0.54
683.076	-16.54
683.198	11.46
683.32	1.46
683.442	5.46
683.565	15.46
683.687	-1.54
683.809	-8.54
683.931	-16.54
684.054	2.46
684.176	13.46
684.298	12.46
684.42	5.46
684.543	-5.54
684.665	5.46
684.787	8.46
684.909	5.46
685.032	18.46
685.154	4.46
685.276	-7.54
685.398	10.46
685.521	-5.54
685.643	22.46
685.765	17.46
685.887	19.46
686.01	23.46
686.132	15.46
686.254	24.46
686.377	22.46
686.499	21.46
686.621	18.46
686.743	5.46
686.866	1.46
686.988	37.46
687.11	15.46
687.232	9.46
687.355	7.46
687.477	10.46
687.599	-4.54
687.722	-12.54
687.844	-2.54
687.966	-1.54
688.088	20.46
688.211	28.46
688.333	13.46
688.455	2.46
688.578	13.46
688.7	6.46
688.822	12.46
688.944	5.46
689.067	39.46
689.189	-0.54
689.311	-18.54
689.434	-1.54
689.556	5.46
689.678	15.46
689.801	-12.54
689.923	-3.54
690.045	19.46
690.167	17.46
690.29	14.46
690.412	2.46
690.534	5.46
690.657	-5.54
690.779	13.46
690.901	29.46
691.024	13.46
691.146	5.46
691.268	7.46
691.391	10.46
691.513	15.46
691.635	25.46
691.758	27.46
691.88	10.46
692.002	15.46
692.125	13.46
692.247	4.46
692.369	2.46
692.492	5.46
692.614	-3.54
692.736	11.46
692.859	18.46
692.981	14.46
693.103	1.46
693.226	9.46
693.348	17.46
693.47	24.46
693.593	22.46
693.715	42.46
693.837	31.46
693.96	9.46
694.082	8.46
694.204	16.46
694.327	9.46
694.449	-6.54
694.571	14.46
694.694	22.46
694.816	37.46
694.938	3.46
695.061	9.46
695.183	8.46
695.305	15.46
695.428	17.46
695.55	-3.54
695.672	0.46
695.795	13.46
695.917	17.46
696.04	11.46
696.162	4.46
696.284	7.46
696.407	24.46
696.529	9.46
696.651	28.46
696.774	1.46
696.896	35.46
697.019	26.46
697.141	8.46
697.263	2.46
697.386	2.46
697.508	7.46
697.63	1.46
697.753	-0.54
697.875	7.46
697.998	10.46
698.12	-0.54
698.242	7.46
698.365	9.46
698.487	9.46
698.61	2.46
698.732	1.46
698.854	22.46
698.977	20.46
699.099	19.46
699.221	7.46
699.344	-5.54
699.466	12.46
699.589	12.46
699.711	-11.54
699.834	11.46
699.956	15.46
700.078	13.46
700.201	7.46
700.323	18.46
700.446	10.46
700.568	0.46
700.69	25.46
700.813	1.46
700.935	9.46
701.058	15.46
701.18	8.46
701.302	11.46
701.425	-7.54
701.547	9.46
701.67	15.46
701.792	7.46
701.915	4.46
702.037	-5.54
702.159	-3.54
702.282	3.46
702.404	6.46
702.527	17.46
702.649	28.46
702.772	11.46
702.894	1.46
703.017	14.46
703.139	8.46
703.261	15.46
703.384	12.46
703.506	5.46
703.629	9.46
703.751	18.46
703.874	10.46
703.996	5.46
704.119	3.46
704.241	5.46
704.364	-5.54
704.486	18.46
704.608	21.46
704.731	-2.54
704.853	23.46
704.976	-2.54
705.098	14.46
705.221	8.46
705.343	10.46
705.466	-2.54
705.588	6.46
705.711	18.46
705.833	20.46
705.956	14.46
706.078	17.46
706.201	9.46
706.323	-0.54
706.446	-2.54
