Data from LowRes_mercury_15_20_11_07_2024_HR4C61881__65__15-23-38-770.txt Node

Date: Thu Nov 07 15:23:38 EST 2024
User: crc00042
Spectrometer: HR4C6188
Trigger mode: 4
Integration Time (sec): 1.000000E-1
Scans to average: 1
Electric dark correction enabled: true
Nonlinearity correction enabled: false
Boxcar width: 0
XAxis mode: Wavelengths
Number of Pixels in Spectrum: 3648
>>>>>Begin Spectral Data<<<<<
245.66	-78.23
245.797	-78.23
245.934	-78.23
246.071	-70.23
246.208	12.77
246.344	0.77
246.481	-11.23
246.618	-31.23
246.755	9.77
246.892	12.77
247.029	1.77
247.165	-9.23
247.302	-8.23
247.439	0.77
247.576	2.77
247.713	-7.23
247.849	24.77
247.986	13.77
248.123	13.77
248.26	22.77
248.396	26.77
248.533	3.77
248.67	14.77
248.806	-1.23
248.943	-7.23
249.08	-3.23
249.216	18.77
249.353	-28.23
249.49	13.77
249.626	-5.23
249.763	-0.23
249.9	-5.23
250.036	4.77
250.173	7.77
250.309	4.77
250.446	18.77
250.582	-4.23
250.719	-13.23
250.856	-0.23
250.992	-7.23
251.129	-8.23
251.265	7.77
251.402	-5.23
251.538	-5.23
251.675	-0.23
251.811	7.77
251.948	13.77
252.084	11.77
252.221	-6.23
252.357	-10.23
252.493	39.77
252.63	2.77
252.766	18.77
252.903	1.77
253.039	8.77
253.175	6.77
253.312	10.77
253.448	-1.23
253.585	-27.23
253.721	29.77
253.857	-14.23
253.994	-1.23
254.13	13.77
254.266	24.77
254.403	10.77
254.539	7.77
254.675	23.77
254.811	5.77
254.948	13.77
255.084	8.77
255.22	-5.23
255.356	-19.23
255.493	8.77
255.629	28.77
255.765	11.77
255.901	1.77
256.037	24.77
256.174	23.77
256.31	6.77
256.446	1.77
256.582	3.77
256.718	16.77
256.854	4.77
256.991	5.77
257.127	8.77
257.263	-6.23
257.399	4.77
257.535	-5.23
257.671	-3.23
257.807	-3.23
257.943	11.77
258.079	-0.23
258.215	12.77
258.351	24.77
258.487	3.77
258.623	13.77
258.759	-4.23
258.895	-0.23
259.031	10.77
259.167	-12.23
259.303	13.77
259.439	14.77
259.575	16.77
259.711	6.77
259.847	-2.23
259.983	13.77
260.119	10.77
260.255	-0.23
260.391	9.77
260.527	1.77
260.663	32.77
260.799	16.77
260.934	0.77
261.07	1.77
261.206	3.77
261.342	-3.23
261.478	20.77
261.614	18.77
261.749	2.77
261.885	5.77
262.021	-11.23
262.157	15.77
262.293	-1.23
262.428	-1.23
262.564	11.77
262.7	3.77
262.836	-16.23
262.971	19.77
263.107	9.77
263.243	33.77
263.378	2.77
263.514	-17.23
263.65	20.77
263.785	-6.23
263.921	1.77
264.057	3.77
264.192	12.77
264.328	11.77
264.464	-12.23
264.599	6.77
264.735	3.77
264.871	3.77
265.006	6.77
265.142	24.77
265.277	8.77
265.413	9.77
265.548	9.77
265.684	8.77
265.819	4.77
265.955	-10.23
266.091	9.77
266.226	-6.23
266.362	16.77
266.497	14.77
266.633	10.77
266.768	-9.23
266.903	9.77
267.039	-5.23
267.174	17.77
267.31	13.77
267.445	3.77
267.581	-12.23
267.716	-1.23
267.851	14.77
267.987	30.77
268.122	33.77
268.258	11.77
268.393	0.77
268.528	20.77
268.664	7.77
268.799	-6.23
268.934	9.77
269.07	13.77
269.205	3.77
269.34	17.77
269.476	7.77
269.611	-1.23
269.746	4.77
269.881	7.77
270.017	8.77
270.152	15.77
270.287	14.77
270.422	25.77
270.558	0.77
270.693	13.77
270.828	-1.23
270.963	-2.23
271.098	12.77
271.234	-1.23
271.369	23.77
271.504	7.77
271.639	-9.23
271.774	-6.23
271.909	3.77
272.045	-17.23
272.18	1.77
272.315	-1.23
272.45	8.77
272.585	-4.23
272.72	14.77
272.855	-3.23
272.99	9.77
273.125	-9.23
273.26	-4.23
273.395	-6.23
273.53	-0.23
273.665	4.77
273.8	5.77
273.935	11.77
274.07	18.77
274.205	19.77
274.34	26.77
274.475	-2.23
274.61	11.77
274.745	10.77
274.88	18.77
275.015	2.77
275.15	17.77
275.285	18.77
275.42	10.77
275.555	18.77
275.69	0.77
275.825	-16.23
275.959	15.77
276.094	0.77
276.229	4.77
276.364	-9.23
276.499	1.77
276.634	2.77
276.768	12.77
276.903	-5.23
277.038	29.77
277.173	3.77
277.308	11.77
277.442	5.77
277.577	-4.23
277.712	8.77
277.847	6.77
277.981	15.77
278.116	-20.23
278.251	1.77
278.386	-6.23
278.52	5.77
278.655	0.77
278.79	3.77
278.924	9.77
279.059	16.77
279.194	-23.23
279.328	19.77
279.463	14.77
279.598	31.77
279.732	13.77
279.867	16.77
280.001	15.77
280.136	11.77
280.271	12.77
280.405	21.77
280.54	12.77
280.674	-1.23
280.809	25.77
280.943	-2.23
281.078	19.77
281.213	32.77
281.347	25.77
281.482	0.77
281.616	15.77
281.751	-0.23
281.885	-6.23
282.02	-1.23
282.154	10.77
282.288	-7.23
282.423	4.77
282.557	-4.23
282.692	17.77
282.826	13.77
282.961	23.77
283.095	-2.23
283.229	3.77
283.364	-17.23
283.498	5.77
283.633	12.77
283.767	4.77
283.901	5.77
284.036	10.77
284.17	13.77
284.304	-13.23
284.439	11.77
284.573	-14.23
284.707	20.77
284.842	-10.23
284.976	-12.23
285.11	-4.23
285.244	14.77
285.379	40.77
285.513	-11.23
285.647	14.77
285.781	5.77
285.916	33.77
286.05	5.77
286.184	16.77
286.318	-0.23
286.453	-12.23
286.587	-1.23
286.721	-4.23
286.855	6.77
286.989	20.77
287.123	1.77
287.258	-5.23
287.392	2.77
287.526	13.77
287.66	5.77
287.794	1.77
287.928	14.77
288.062	13.77
288.196	-7.23
288.33	21.77
288.464	28.77
288.598	16.77
288.733	13.77
288.867	0.77
289.001	3.77
289.135	10.77
289.269	-4.23
289.403	-7.23
289.537	-0.23
289.671	22.77
289.805	18.77
289.939	15.77
290.073	-6.23
290.207	15.77
290.34	5.77
290.474	21.77
290.608	21.77
290.742	-3.23
290.876	-13.23
291.01	1.77
291.144	23.77
291.278	4.77
291.412	-0.23
291.546	1.77
291.679	8.77
291.813	3.77
291.947	-5.23
292.081	3.77
292.215	15.77
292.349	27.77
292.482	30.77
292.616	14.77
292.75	19.77
292.884	10.77
293.018	0.77
293.151	-3.23
293.285	16.77
293.419	1.77
293.553	2.77
293.686	-5.23
293.82	2.77
293.954	19.77
294.088	33.77
294.221	14.77
294.355	-13.23
294.489	-1.23
294.622	5.77
294.756	1.77
294.89	-2.23
295.023	18.77
295.157	21.77
295.291	28.77
295.424	19.77
295.558	13.77
295.691	11.77
295.825	-2.23
295.959	4.77
296.092	-1.23
296.226	-5.23
296.359	18.77
296.493	-1.23
296.627	17.77
296.76	14.77
296.894	0.77
297.027	-17.23
297.161	13.77
297.294	3.77
297.428	14.77
297.561	35.77
297.695	11.77
297.828	12.77
297.962	20.77
298.095	14.77
298.229	-9.23
298.362	-16.23
298.495	4.77
298.629	-17.23
298.762	-5.23
298.896	0.77
299.029	-23.23
299.162	-18.23
299.296	7.77
299.429	3.77
299.563	6.77
299.696	-1.23
299.829	2.77
299.963	19.77
300.096	36.77
300.229	20.77
300.363	3.77
300.496	-9.23
300.629	-1.23
300.763	8.77
300.896	-1.23
301.029	26.77
301.162	9.77
301.296	11.77
301.429	18.77
301.562	-19.23
301.695	10.77
301.829	12.77
301.962	23.77
302.095	21.77
302.228	-5.23
302.362	6.77
302.495	-8.23
302.628	24.77
302.761	-0.23
302.894	2.77
303.027	26.77
303.161	-0.23
303.294	-16.23
303.427	0.77
303.56	4.77
303.693	3.77
303.826	-6.23
303.959	9.77
304.092	8.77
304.225	9.77
304.359	10.77
304.492	15.77
304.625	-7.23
304.758	25.77
304.891	-1.23
305.024	12.77
305.157	29.77
305.29	-17.23
305.423	-10.23
305.556	4.77
305.689	25.77
305.822	-11.23
305.955	7.77
306.088	3.77
306.221	-4.23
306.354	3.77
306.487	1.77
306.62	-5.23
306.752	9.77
306.885	1.77
307.018	-4.23
307.151	-8.23
307.284	10.77
307.417	-6.23
307.55	30.77
307.683	2.77
307.816	9.77
307.948	15.77
308.081	22.77
308.214	13.77
308.347	4.77
308.48	-7.23
308.613	1.77
308.745	9.77
308.878	-2.23
309.011	16.77
309.144	14.77
309.277	3.77
309.409	23.77
309.542	7.77
309.675	0.77
309.808	8.77
309.94	15.77
310.073	-9.23
310.206	-6.23
310.339	8.77
310.471	-15.23
310.604	36.77
310.737	14.77
310.869	8.77
311.002	3.77
311.135	-5.23
311.267	-7.23
311.4	2.77
311.533	20.77
311.665	0.77
311.798	-9.23
311.93	2.77
312.063	18.77
312.196	40.77
312.328	70.77
312.461	51.77
312.593	30.77
312.726	46.77
312.859	99.77
312.991	163.77
313.124	38.77
313.256	16.77
313.389	0.77
313.521	1.77
313.654	-2.23
313.786	0.77
313.919	-3.23
314.051	4.77
314.184	23.77
314.316	8.77
314.449	-5.23
314.581	18.77
314.714	-2.23
314.846	11.77
314.978	-0.23
315.111	-18.23
315.243	6.77
315.376	8.77
315.508	5.77
315.641	23.77
315.773	22.77
315.905	3.77
316.038	-0.23
316.17	12.77
316.302	-17.23
316.435	10.77
316.567	11.77
316.699	34.77
316.832	-0.23
316.964	-4.23
317.096	-6.23
317.229	-8.23
317.361	-9.23
317.493	-11.23
317.625	-17.23
317.758	15.77
317.89	20.77
318.022	10.77
318.155	21.77
318.287	18.77
318.419	18.77
318.551	24.77
318.683	6.77
318.816	1.77
318.948	-14.23
319.08	1.77
319.212	13.77
319.344	28.77
319.477	23.77
319.609	-0.23
319.741	15.77
319.873	-6.23
320.005	4.77
320.137	30.77
320.269	8.77
320.401	7.77
320.534	5.77
320.666	-12.23
320.798	-19.23
320.93	-22.23
321.062	-1.23
321.194	-6.23
321.326	1.77
321.458	2.77
321.59	16.77
321.722	15.77
321.854	6.77
321.986	24.77
322.118	14.77
322.25	3.77
322.382	2.77
322.514	-2.23
322.646	-8.23
322.778	34.77
322.91	-5.23
323.042	7.77
323.174	-3.23
323.306	-13.23
323.438	-8.23
323.57	4.77
323.702	12.77
323.834	4.77
323.966	-10.23
324.097	-3.23
324.229	22.77
324.361	17.77
324.493	12.77
324.625	-5.23
324.757	25.77
324.889	9.77
325.021	20.77
325.152	9.77
325.284	23.77
325.416	15.77
325.548	32.77
325.68	-8.23
325.811	18.77
325.943	17.77
326.075	-13.23
326.207	10.77
326.339	24.77
326.47	20.77
326.602	-1.23
326.734	4.77
326.866	17.77
326.997	-14.23
327.129	-0.23
327.261	-6.23
327.392	14.77
327.524	8.77
327.656	9.77
327.787	17.77
327.919	2.77
328.051	6.77
328.182	34.77
328.314	19.77
328.446	10.77
328.577	24.77
328.709	1.77
328.841	2.77
328.972	-14.23
329.104	2.77
329.235	4.77
329.367	-10.23
329.499	2.77
329.63	15.77
329.762	12.77
329.893	10.77
330.025	16.77
330.156	-2.23
330.288	17.77
330.419	24.77
330.551	15.77
330.683	10.77
330.814	3.77
330.946	3.77
331.077	1.77
331.208	6.77
331.34	10.77
331.471	2.77
331.603	8.77
331.734	3.77
331.866	7.77
331.997	-1.23
332.129	12.77
332.26	15.77
332.392	18.77
332.523	2.77
332.654	-12.23
332.786	-25.23
332.917	-11.23
333.048	2.77
333.18	23.77
333.311	-13.23
333.443	7.77
333.574	3.77
333.705	46.77
333.837	46.77
333.968	118.77
334.099	227.77
334.231	190.77
334.362	51.77
334.493	31.77
334.624	14.77
334.756	24.77
334.887	19.77
335.018	11.77
335.15	11.77
335.281	12.77
335.412	17.77
335.543	16.77
335.675	11.77
335.806	18.77
335.937	15.77
336.068	22.77
336.199	34.77
336.331	-6.23
336.462	6.77
336.593	19.77
336.724	24.77
336.855	13.77
336.986	34.77
337.118	21.77
337.249	5.77
337.38	15.77
337.511	16.77
337.642	5.77
337.773	16.77
337.904	25.77
338.035	26.77
338.166	6.77
338.298	10.77
338.429	-10.23
338.56	18.77
338.691	44.77
338.822	27.77
338.953	20.77
339.084	29.77
339.215	25.77
339.346	21.77
339.477	27.77
339.608	17.77
339.739	20.77
339.87	2.77
340.001	5.77
340.132	32.77
340.263	10.77
340.394	7.77
340.525	11.77
340.656	-16.23
340.787	-2.23
340.918	38.77
341.049	28.77
341.179	19.77
341.31	-0.23
341.441	3.77
341.572	8.77
341.703	5.77
341.834	11.77
341.965	17.77
342.096	19.77
342.227	24.77
342.357	18.77
342.488	14.77
342.619	19.77
342.75	14.77
342.881	12.77
343.012	34.77
343.142	52.77
343.273	14.77
343.404	25.77
343.535	56.77
343.666	34.77
343.796	32.77
343.927	22.77
344.058	20.77
344.189	36.77
344.319	38.77
344.45	26.77
344.581	46.77
344.712	15.77
344.842	36.77
344.973	26.77
345.104	35.77
345.234	18.77
345.365	15.77
345.496	17.77
345.626	30.77
345.757	45.77
345.888	10.77
346.018	22.77
346.149	15.77
346.28	31.77
346.41	14.77
346.541	17.77
346.672	2.77
346.802	28.77
346.933	33.77
347.063	38.77
347.194	23.77
347.325	34.77
347.455	41.77
347.586	50.77
347.716	24.77
347.847	42.77
347.977	47.77
348.108	25.77
348.238	56.77
348.369	44.77
348.499	39.77
348.63	45.77
348.76	56.77
348.891	61.77
349.021	59.77
349.152	61.77
349.282	56.77
349.413	43.77
349.543	64.77
349.674	32.77
349.804	33.77
349.935	18.77
350.065	32.77
350.196	27.77
350.326	21.77
350.456	44.77
350.587	26.77
350.717	31.77
350.848	35.77
350.978	43.77
351.108	16.77
351.239	34.77
351.369	25.77
351.499	21.77
351.63	27.77
351.76	43.77
351.89	22.77
352.021	23.77
352.151	9.77
352.281	19.77
352.412	26.77
352.542	22.77
352.672	35.77
352.803	29.77
352.933	14.77
353.063	40.77
353.193	40.77
353.324	28.77
353.454	16.77
353.584	21.77
353.714	11.77
353.845	24.77
353.975	3.77
354.105	9.77
354.235	22.77
354.365	15.77
354.496	20.77
354.626	18.77
354.756	12.77
354.886	20.77
355.016	24.77
355.146	16.77
355.277	27.77
355.407	8.77
355.537	29.77
355.667	26.77
355.797	20.77
355.927	23.77
356.057	28.77
356.187	26.77
356.318	18.77
356.448	26.77
356.578	29.77
356.708	49.77
356.838	37.77
356.968	45.77
357.098	29.77
357.228	32.77
357.358	24.77
357.488	27.77
357.618	42.77
357.748	49.77
357.878	32.77
358.008	28.77
358.138	24.77
358.268	25.77
358.398	42.77
358.528	24.77
358.658	38.77
358.788	28.77
358.918	20.77
359.048	23.77
359.178	36.77
359.308	26.77
359.438	46.77
359.568	52.77
359.698	33.77
359.827	19.77
359.957	40.77
360.087	23.77
360.217	10.77
360.347	24.77
360.477	42.77
360.607	27.77
360.737	51.77
360.866	27.77
360.996	20.77
361.126	28.77
361.256	42.77
361.386	45.77
361.516	46.77
361.645	11.77
361.775	32.77
361.905	4.77
362.035	43.77
362.165	31.77
362.294	31.77
362.424	48.77
362.554	44.77
362.684	22.77
362.813	44.77
362.943	64.77
363.073	48.77
363.203	57.77
363.332	62.77
363.462	81.77
363.592	127.77
363.721	125.77
363.851	158.77
363.981	188.77
364.111	243.77
364.24	310.77
364.37	510.77
364.5	853.77
364.629	1795.77
364.759	3808.77
364.888	6173.77
365.018	9233.77
365.148	14750.77
365.277	12864.77
365.407	4674.77
365.537	3045.77
365.666	3968.77
365.796	1768.77
365.925	802.77
366.055	754.77
366.184	1035.77
366.314	1369.77
366.444	2417.77
366.573	2079.77
366.703	658.77
366.832	223.77
366.962	112.77
367.091	79.77
367.221	69.77
367.35	60.77
367.48	95.77
367.609	65.77
367.739	62.77
367.868	37.77
367.998	58.77
368.127	58.77
368.257	64.77
368.386	66.77
368.516	39.77
368.645	42.77
368.775	37.77
368.904	32.77
369.033	33.77
369.163	27.77
369.292	45.77
369.422	45.77
369.551	51.77
369.68	42.77
369.81	44.77
369.939	14.77
370.069	36.77
370.198	39.77
370.327	22.77
370.457	42.77
370.586	53.77
370.715	31.77
370.845	33.77
370.974	45.77
371.103	42.77
371.233	60.77
371.362	49.77
371.491	33.77
371.621	59.77
371.75	58.77
371.879	47.77
372.008	61.77
372.138	75.77
372.267	60.77
372.396	54.77
372.525	25.77
372.655	32.77
372.784	28.77
372.913	33.77
373.042	45.77
373.172	48.77
373.301	14.77
373.43	15.77
373.559	2.77
373.688	31.77
373.818	40.77
373.947	20.77
374.076	24.77
374.205	31.77
374.334	0.77
374.463	1.77
374.593	30.77
374.722	32.77
374.851	48.77
374.98	29.77
375.109	17.77
375.238	22.77
375.367	36.77
375.496	9.77
375.625	7.77
375.755	32.77
375.884	26.77
376.013	31.77
376.142	-8.23
376.271	11.77
376.4	25.77
376.529	26.77
376.658	34.77
376.787	26.77
376.916	22.77
377.045	21.77
377.174	24.77
377.303	38.77
377.432	42.77
377.561	46.77
377.69	30.77
377.819	46.77
377.948	19.77
378.077	31.77
378.206	16.77
378.335	4.77
378.464	18.77
378.593	46.77
378.722	23.77
378.851	22.77
378.98	39.77
379.108	22.77
379.237	13.77
379.366	19.77
379.495	44.77
379.624	36.77
379.753	28.77
379.882	33.77
380.011	8.77
380.14	6.77
380.268	11.77
380.397	-10.23
380.526	28.77
380.655	18.77
380.784	10.77
380.913	7.77
381.041	10.77
381.17	9.77
381.299	24.77
381.428	2.77
381.557	16.77
381.685	19.77
381.814	32.77
381.943	18.77
382.072	10.77
382.2	23.77
382.329	19.77
382.458	30.77
382.587	34.77
382.715	52.77
382.844	11.77
382.973	34.77
383.102	15.77
383.23	8.77
383.359	3.77
383.488	16.77
383.616	16.77
383.745	4.77
383.874	30.77
384.003	26.77
384.131	18.77
384.26	16.77
384.389	21.77
384.517	12.77
384.646	2.77
384.774	10.77
384.903	45.77
385.032	32.77
385.16	6.77
385.289	34.77
385.418	27.77
385.546	23.77
385.675	27.77
385.803	20.77
385.932	40.77
386.06	-0.23
386.189	11.77
386.318	28.77
386.446	19.77
386.575	41.77
386.703	36.77
386.832	26.77
386.96	13.77
387.089	42.77
387.217	24.77
387.346	27.77
387.474	23.77
387.603	25.77
387.731	23.77
387.86	32.77
387.988	27.77
388.117	67.77
388.245	18.77
388.374	17.77
388.502	41.77
388.631	27.77
388.759	9.77
388.888	27.77
389.016	11.77
389.144	27.77
389.273	15.77
389.401	29.77
389.53	16.77
389.658	30.77
389.786	9.77
389.915	12.77
390.043	2.77
390.172	30.77
390.3	56.77
390.428	37.77
390.557	33.77
390.685	37.77
390.813	39.77
390.942	32.77
391.07	31.77
391.198	24.77
391.327	19.77
391.455	19.77
391.583	41.77
391.712	47.77
391.84	31.77
391.968	19.77
392.096	22.77
392.225	16.77
392.353	23.77
392.481	17.77
392.609	38.77
392.738	39.77
392.866	35.77
392.994	18.77
393.122	35.77
393.251	43.77
393.379	20.77
393.507	10.77
393.635	30.77
393.764	7.77
393.892	34.77
394.02	16.77
394.148	34.77
394.276	38.77
394.404	51.77
394.533	16.77
394.661	29.77
394.789	40.77
394.917	47.77
395.045	34.77
395.173	20.77
395.302	30.77
395.43	27.77
395.558	26.77
395.686	35.77
395.814	65.77
395.942	21.77
396.07	26.77
396.198	26.77
396.326	23.77
396.454	48.77
396.582	41.77
396.711	37.77
396.839	55.77
396.967	36.77
397.095	43.77
397.223	40.77
397.351	56.77
397.479	57.77
397.607	38.77
397.735	44.77
397.863	39.77
397.991	40.77
398.119	40.77
398.247	36.77
398.375	31.77
398.503	52.77
398.631	48.77
398.759	64.77
398.887	80.77
399.015	68.77
399.143	64.77
399.271	80.77
399.399	59.77
399.526	74.77
399.654	96.77
399.782	64.77
399.91	107.77
400.038	94.77
400.166	98.77
400.294	86.77
400.422	98.77
400.55	103.77
400.678	116.77
400.805	108.77
400.933	107.77
401.061	118.77
401.189	110.77
401.317	152.77
401.445	117.77
401.573	95.77
401.7	56.77
401.828	49.77
401.956	63.77
402.084	54.77
402.212	44.77
402.34	19.77
402.467	32.77
402.595	33.77
402.723	39.77
402.851	60.77
402.978	69.77
403.106	86.77
403.234	85.77
403.362	132.77
403.489	112.77
403.617	155.77
403.745	196.77
403.873	276.77
404	554.77
404.128	1416.77
404.256	3845.77
404.384	4994.77
404.511	5366.77
404.639	7117.77
404.767	11192.77
404.894	14471.77
405.022	4864.77
405.15	1279.77
405.277	435.77
405.405	247.77
405.533	134.77
405.66	95.77
405.788	62.77
405.916	74.77
406.043	48.77
406.171	48.77
406.299	63.77
406.426	71.77
406.554	79.77
406.681	68.77
406.809	55.77
406.937	55.77
407.064	64.77
407.192	139.77
407.319	280.77
407.447	529.77
407.574	528.77
407.702	611.77
407.83	832.77
407.957	1573.77
408.085	899.77
408.212	271.77
408.34	97.77
408.467	55.77
408.595	47.77
408.722	61.77
408.85	47.77
408.977	26.77
409.105	35.77
409.232	33.77
409.36	30.77
409.487	26.77
409.615	37.77
409.742	39.77
409.87	30.77
409.997	34.77
410.125	38.77
410.252	31.77
410.379	31.77
410.507	33.77
410.634	37.77
410.762	16.77
410.889	38.77
411.017	39.77
411.144	49.77
411.271	9.77
411.399	48.77
411.526	32.77
411.653	46.77
411.781	50.77
411.908	34.77
412.036	23.77
412.163	29.77
412.29	32.77
412.418	41.77
412.545	35.77
412.672	38.77
412.8	59.77
412.927	51.77
413.054	42.77
413.182	31.77
413.309	34.77
413.436	7.77
413.564	29.77
413.691	25.77
413.818	49.77
413.945	16.77
414.073	31.77
414.2	45.77
414.327	38.77
414.454	25.77
414.582	29.77
414.709	38.77
414.836	22.77
414.963	19.77
415.091	44.77
415.218	34.77
415.345	19.77
415.472	19.77
415.6	27.77
415.727	33.77
415.854	40.77
415.981	22.77
416.108	30.77
416.236	34.77
416.363	34.77
416.49	29.77
416.617	35.77
416.744	25.77
416.871	34.77
416.998	32.77
417.126	29.77
417.253	31.77
417.38	28.77
417.507	34.77
417.634	39.77
417.761	43.77
417.888	55.77
418.015	41.77
418.143	32.77
418.27	55.77
418.397	36.77
418.524	37.77
418.651	10.77
418.778	36.77
418.905	48.77
419.032	45.77
419.159	32.77
419.286	52.77
419.413	59.77
419.54	45.77
419.667	24.77
419.794	25.77
419.921	73.77
420.048	45.77
420.175	50.77
420.302	53.77
420.429	61.77
420.556	47.77
420.683	53.77
420.81	51.77
420.937	80.77
421.064	58.77
421.191	45.77
421.318	68.77
421.445	67.77
421.572	39.77
421.699	58.77
421.826	46.77
421.953	34.77
422.08	27.77
422.207	7.77
422.334	1.77
422.461	33.77
422.588	29.77
422.714	18.77
422.841	24.77
422.968	18.77
423.095	14.77
423.222	25.77
423.349	44.77
423.476	39.77
423.603	-11.23
423.729	-3.23
423.856	29.77
423.983	29.77
424.11	11.77
424.237	15.77
424.364	38.77
424.491	31.77
424.617	7.77
424.744	31.77
424.871	35.77
424.998	20.77
425.125	11.77
425.251	25.77
425.378	13.77
425.505	-3.23
425.632	10.77
425.758	19.77
425.885	26.77
426.012	43.77
426.139	24.77
426.266	33.77
426.392	22.77
426.519	27.77
426.646	23.77
426.772	35.77
426.899	27.77
427.026	32.77
427.153	22.77
427.279	39.77
427.406	24.77
427.533	12.77
427.659	12.77
427.786	22.77
427.913	36.77
428.039	28.77
428.166	20.77
428.293	22.77
428.419	18.77
428.546	43.77
428.673	19.77
428.799	8.77
428.926	10.77
429.053	33.77
429.179	25.77
429.306	26.77
429.433	32.77
429.559	45.77
429.686	24.77
429.812	16.77
429.939	23.77
430.066	18.77
430.192	31.77
430.319	47.77
430.445	30.77
430.572	26.77
430.699	22.77
430.825	24.77
430.952	44.77
431.078	31.77
431.205	38.77
431.331	37.77
431.458	42.77
431.584	43.77
431.711	25.77
431.837	35.77
431.964	47.77
432.09	25.77
432.217	8.77
432.343	12.77
432.47	36.77
432.596	22.77
432.723	8.77
432.849	39.77
432.976	23.77
433.102	38.77
433.229	34.77
433.355	60.77
433.482	69.77
433.608	91.77
433.735	94.77
433.861	107.77
433.987	140.77
434.114	167.77
434.24	176.77
434.367	202.77
434.493	224.77
434.62	279.77
434.746	412.77
434.872	621.77
434.999	795.77
435.125	1723.77
435.252	5461.77
435.378	13334.77
435.504	15137.77
435.631	15338.77
435.757	15685.77
435.883	15685.77
436.01	15685.77
436.136	15685.77
436.262	15685.77
436.389	3434.77
436.515	1778.77
436.641	721.77
436.768	582.77
436.894	398.77
437.02	383.77
437.147	286.77
437.273	290.77
437.399	209.77
437.526	227.77
437.652	160.77
437.778	185.77
437.904	142.77
438.031	157.77
438.157	136.77
438.283	150.77
438.409	115.77
438.536	119.77
438.662	121.77
438.788	129.77
438.914	112.77
439.041	114.77
439.167	128.77
439.293	96.77
439.419	88.77
439.546	99.77
439.672	71.77
439.798	79.77
439.924	86.77
440.05	75.77
440.177	88.77
440.303	71.77
440.429	54.77
440.555	56.77
440.681	69.77
440.807	76.77
440.934	55.77
441.06	59.77
441.186	58.77
441.312	59.77
441.438	71.77
441.564	81.77
441.69	66.77
441.816	76.77
441.943	42.77
442.069	58.77
442.195	61.77
442.321	42.77
442.447	44.77
442.573	43.77
442.699	48.77
442.825	43.77
442.951	54.77
443.077	40.77
443.203	54.77
443.33	56.77
443.456	38.77
443.582	56.77
443.708	47.77
443.834	67.77
443.96	39.77
444.086	34.77
444.212	46.77
444.338	60.77
444.464	47.77
444.59	70.77
444.716	44.77
444.842	32.77
444.968	18.77
445.094	42.77
445.22	41.77
445.346	31.77
445.472	43.77
445.598	31.77
445.724	21.77
445.85	34.77
445.976	41.77
446.102	54.77
446.228	54.77
446.354	31.77
446.48	41.77
446.605	26.77
446.731	41.77
446.857	64.77
446.983	45.77
447.109	23.77
447.235	36.77
447.361	32.77
447.487	42.77
447.613	32.77
447.739	26.77
447.865	14.77
447.99	27.77
448.116	25.77
448.242	32.77
448.368	20.77
448.494	40.77
448.62	47.77
448.746	36.77
448.872	32.77
448.997	10.77
449.123	24.77
449.249	38.77
449.375	27.77
449.501	34.77
449.627	24.77
449.752	40.77
449.878	23.77
450.004	33.77
450.13	45.77
450.256	28.77
450.381	29.77
450.507	13.77
450.633	23.77
450.759	32.77
450.884	19.77
451.01	31.77
451.136	18.77
451.262	40.77
451.388	54.77
451.513	18.77
451.639	34.77
451.765	28.77
451.89	45.77
452.016	49.77
452.142	40.77
452.268	30.77
452.393	32.77
452.519	2.77
452.645	29.77
452.771	23.77
452.896	34.77
453.022	32.77
453.148	50.77
453.273	27.77
453.399	29.77
453.525	10.77
453.65	27.77
453.776	43.77
453.902	39.77
454.027	47.77
454.153	38.77
454.279	32.77
454.404	36.77
454.53	36.77
454.656	64.77
454.781	23.77
454.907	24.77
455.032	26.77
455.158	43.77
455.284	46.77
455.409	40.77
455.535	38.77
455.66	52.77
455.786	68.77
455.912	33.77
456.037	10.77
456.163	40.77
456.288	34.77
456.414	32.77
456.539	27.77
456.665	38.77
456.791	18.77
456.916	22.77
457.042	34.77
457.167	19.77
457.293	29.77
457.418	39.77
457.544	18.77
457.669	22.77
457.795	23.77
457.92	13.77
458.046	38.77
458.171	50.77
458.297	41.77
458.422	18.77
458.548	11.77
458.673	14.77
458.799	27.77
458.924	18.77
459.05	35.77
459.175	27.77
459.301	29.77
459.426	34.77
459.552	26.77
459.677	38.77
459.803	21.77
459.928	40.77
460.053	31.77
460.179	31.77
460.304	47.77
460.43	22.77
460.555	33.77
460.681	19.77
460.806	30.77
460.931	29.77
461.057	41.77
461.182	17.77
461.308	33.77
461.433	35.77
461.558	28.77
461.684	42.77
461.809	42.77
461.934	21.77
462.06	36.77
462.185	30.77
462.311	11.77
462.436	36.77
462.561	2.77
462.687	24.77
462.812	34.77
462.937	26.77
463.063	9.77
463.188	21.77
463.313	37.77
463.439	40.77
463.564	31.77
463.689	37.77
463.814	32.77
463.94	25.77
464.065	19.77
464.19	42.77
464.316	28.77
464.441	20.77
464.566	26.77
464.692	27.77
464.817	26.77
464.942	24.77
465.067	24.77
465.193	8.77
465.318	28.77
465.443	2.77
465.568	25.77
465.694	29.77
465.819	33.77
465.944	32.77
466.069	18.77
466.194	29.77
466.32	30.77
466.445	27.77
466.57	25.77
466.695	33.77
466.82	26.77
466.946	38.77
467.071	39.77
467.196	25.77
467.321	33.77
467.446	32.77
467.572	32.77
467.697	19.77
467.822	26.77
467.947	48.77
468.072	39.77
468.197	37.77
468.323	27.77
468.448	39.77
468.573	35.77
468.698	27.77
468.823	36.77
468.948	31.77
469.073	34.77
469.198	48.77
469.324	49.77
469.449	39.77
469.574	46.77
469.699	55.77
469.824	51.77
469.949	50.77
470.074	35.77
470.199	49.77
470.324	37.77
470.449	41.77
470.574	23.77
470.7	41.77
470.825	54.77
470.95	65.77
471.075	37.77
471.2	34.77
471.325	51.77
471.45	43.77
471.575	37.77
471.7	41.77
471.825	15.77
471.95	29.77
472.075	38.77
472.2	8.77
472.325	20.77
472.45	23.77
472.575	28.77
472.7	30.77
472.825	34.77
472.95	42.77
473.075	26.77
473.2	17.77
473.325	32.77
473.45	42.77
473.575	33.77
473.7	51.77
473.825	26.77
473.95	18.77
474.075	39.77
474.2	11.77
474.325	20.77
474.45	26.77
474.574	13.77
474.699	30.77
474.824	35.77
474.949	3.77
475.074	11.77
475.199	32.77
475.324	41.77
475.449	12.77
475.574	27.77
475.699	17.77
475.824	10.77
475.949	27.77
476.073	23.77
476.198	8.77
476.323	35.77
476.448	18.77
476.573	10.77
476.698	29.77
476.823	23.77
476.947	30.77
477.072	11.77
477.197	25.77
477.322	19.77
477.447	26.77
477.572	25.77
477.697	28.77
477.821	2.77
477.946	28.77
478.071	37.77
478.196	55.77
478.321	31.77
478.445	23.77
478.57	24.77
478.695	12.77
478.82	34.77
478.945	28.77
479.069	25.77
479.194	18.77
479.319	29.77
479.444	27.77
479.569	24.77
479.693	9.77
479.818	45.77
479.943	26.77
480.068	6.77
480.192	28.77
480.317	6.77
480.442	23.77
480.567	17.77
480.691	26.77
480.816	15.77
480.941	2.77
481.066	17.77
481.19	42.77
481.315	33.77
481.44	7.77
481.564	-1.23
481.689	24.77
481.814	24.77
481.938	30.77
482.063	12.77
482.188	18.77
482.313	24.77
482.437	2.77
482.562	21.77
482.687	24.77
482.811	32.77
482.936	28.77
483.061	45.77
483.185	12.77
483.31	31.77
483.435	23.77
483.559	14.77
483.684	16.77
483.808	44.77
483.933	18.77
484.058	23.77
484.182	8.77
484.307	33.77
484.432	39.77
484.556	34.77
484.681	11.77
484.805	30.77
484.93	20.77
485.055	32.77
485.179	60.77
485.304	36.77
485.428	40.77
485.553	29.77
485.678	11.77
485.802	27.77
485.927	48.77
486.051	27.77
486.176	16.77
486.3	12.77
486.425	10.77
486.549	27.77
486.674	27.77
486.799	22.77
486.923	28.77
487.048	11.77
487.172	20.77
487.297	13.77
487.421	27.77
487.546	27.77
487.67	34.77
487.795	18.77
487.919	26.77
488.044	31.77
488.168	33.77
488.293	16.77
488.417	24.77
488.542	22.77
488.666	38.77
488.791	41.77
488.915	19.77
489.04	32.77
489.164	24.77
489.289	33.77
489.413	23.77
489.538	22.77
489.662	43.77
489.786	11.77
489.911	23.77
490.035	22.77
490.16	19.77
490.284	4.77
490.409	-11.23
490.533	4.77
490.658	39.77
490.782	44.77
490.906	41.77
491.031	126.77
491.155	142.77
491.28	160.77
491.404	166.77
491.528	230.77
491.653	148.77
491.777	90.77
491.902	39.77
492.026	27.77
492.15	44.77
492.275	48.77
492.399	30.77
492.524	34.77
492.648	47.77
492.772	43.77
492.897	30.77
493.021	29.77
493.145	45.77
493.27	37.77
493.394	30.77
493.518	11.77
493.643	9.77
493.767	41.77
493.891	32.77
494.016	16.77
494.14	20.77
494.264	28.77
494.389	34.77
494.513	25.77
494.637	8.77
494.762	23.77
494.886	23.77
495.01	36.77
495.134	36.77
495.259	21.77
495.383	15.77
495.507	10.77
495.632	22.77
495.756	35.77
495.88	35.77
496.004	34.77
496.129	12.77
496.253	17.77
496.377	19.77
496.501	38.77
496.626	25.77
496.75	39.77
496.874	28.77
496.998	10.77
497.123	51.77
497.247	22.77
497.371	16.77
497.495	19.77
497.62	21.77
497.744	22.77
497.868	17.77
497.992	41.77
498.116	26.77
498.241	21.77
498.365	6.77
498.489	14.77
498.613	26.77
498.737	43.77
498.862	22.77
498.986	-3.23
499.11	17.77
499.234	29.77
499.358	11.77
499.482	11.77
499.607	28.77
499.731	38.77
499.855	24.77
499.979	16.77
500.103	27.77
500.227	41.77
500.351	27.77
500.476	10.77
500.6	30.77
500.724	34.77
500.848	18.77
500.972	27.77
501.096	36.77
501.22	35.77
501.344	29.77
501.469	19.77
501.593	11.77
501.717	26.77
501.841	26.77
501.965	32.77
502.089	32.77
502.213	17.77
502.337	30.77
502.461	26.77
502.585	15.77
502.709	27.77
502.834	24.77
502.958	24.77
503.082	12.77
503.206	24.77
503.33	29.77
503.454	21.77
503.578	30.77
503.702	16.77
503.826	35.77
503.95	41.77
504.074	23.77
504.198	10.77
504.322	24.77
504.446	15.77
504.57	38.77
504.694	30.77
504.818	22.77
504.942	39.77
505.066	34.77
505.19	26.77
505.314	11.77
505.438	17.77
505.562	24.77
505.686	36.77
505.81	17.77
505.934	34.77
506.058	27.77
506.182	18.77
506.306	34.77
506.43	13.77
506.554	24.77
506.678	17.77
506.802	9.77
506.926	19.77
507.05	42.77
507.174	28.77
507.298	35.77
507.422	29.77
507.546	43.77
507.67	30.77
507.794	7.77
507.918	12.77
508.042	34.77
508.165	27.77
508.289	25.77
508.413	30.77
508.537	10.77
508.661	27.77
508.785	10.77
508.909	28.77
509.033	37.77
509.157	25.77
509.281	30.77
509.405	25.77
509.528	49.77
509.652	30.77
509.776	32.77
509.9	38.77
510.024	37.77
510.148	41.77
510.272	27.77
510.396	35.77
510.519	23.77
510.643	33.77
510.767	35.77
510.891	33.77
511.015	49.77
511.139	27.77
511.263	51.77
511.386	42.77
511.51	47.77
511.634	35.77
511.758	41.77
511.882	23.77
512.006	46.77
512.129	46.77
512.253	93.77
512.377	76.77
512.501	75.77
512.625	78.77
512.748	85.77
512.872	69.77
512.996	55.77
513.12	64.77
513.244	52.77
513.367	73.77
513.491	84.77
513.615	88.77
513.739	72.77
513.862	82.77
513.986	98.77
514.11	90.77
514.234	94.77
514.358	101.77
514.481	133.77
514.605	97.77
514.729	105.77
514.853	95.77
514.976	85.77
515.1	91.77
515.224	112.77
515.348	91.77
515.471	81.77
515.595	102.77
515.719	117.77
515.842	233.77
515.966	272.77
516.09	306.77
516.214	282.77
516.337	333.77
516.461	214.77
516.585	87.77
516.708	48.77
516.832	45.77
516.956	27.77
517.08	24.77
517.203	7.77
517.327	11.77
517.451	36.77
517.574	49.77
517.698	1.77
517.822	17.77
517.945	38.77
518.069	19.77
518.193	46.77
518.316	29.77
518.44	33.77
518.564	34.77
518.687	18.77
518.811	13.77
518.935	49.77
519.058	18.77
519.182	32.77
519.306	26.77
519.429	7.77
519.553	54.77
519.676	27.77
519.8	24.77
519.924	8.77
520.047	30.77
520.171	7.77
520.294	11.77
520.418	20.77
520.542	15.77
520.665	36.77
520.789	16.77
520.913	-1.23
521.036	11.77
521.16	24.77
521.283	15.77
521.407	14.77
521.53	15.77
521.654	-7.23
521.778	26.77
521.901	14.77
522.025	10.77
522.148	-12.23
522.272	17.77
522.395	15.77
522.519	13.77
522.643	14.77
522.766	20.77
522.89	12.77
523.013	43.77
523.137	-3.23
523.26	12.77
523.384	25.77
523.507	28.77
523.631	20.77
523.754	26.77
523.878	24.77
524.002	19.77
524.125	22.77
524.249	8.77
524.372	19.77
524.496	12.77
524.619	6.77
524.743	17.77
524.866	2.77
524.99	7.77
525.113	4.77
525.237	26.77
525.36	9.77
525.484	26.77
525.607	17.77
525.731	15.77
525.854	15.77
525.978	43.77
526.101	-4.23
526.224	1.77
526.348	19.77
526.471	33.77
526.595	22.77
526.718	4.77
526.842	6.77
526.965	12.77
527.089	8.77
527.212	28.77
527.336	12.77
527.459	30.77
527.582	23.77
527.706	28.77
527.829	44.77
527.953	15.77
528.076	11.77
528.2	10.77
528.323	23.77
528.446	32.77
528.57	22.77
528.693	33.77
528.817	15.77
528.94	26.77
529.064	43.77
529.187	7.77
529.31	20.77
529.434	0.77
529.557	7.77
529.68	22.77
529.804	28.77
529.927	13.77
530.051	8.77
530.174	-4.23
530.297	7.77
530.421	24.77
530.544	26.77
530.668	12.77
530.791	18.77
530.914	26.77
531.038	15.77
531.161	4.77
531.284	38.77
531.408	17.77
531.531	11.77
531.654	8.77
531.778	29.77
531.901	8.77
532.024	30.77
532.148	18.77
532.271	36.77
532.394	18.77
532.518	12.77
532.641	22.77
532.764	25.77
532.888	26.77
533.011	7.77
533.134	9.77
533.258	47.77
533.381	4.77
533.504	9.77
533.628	14.77
533.751	28.77
533.874	33.77
533.997	15.77
534.121	1.77
534.244	24.77
534.367	17.77
534.491	25.77
534.614	21.77
534.737	7.77
534.86	26.77
534.984	6.77
535.107	10.77
535.23	12.77
535.354	20.77
535.477	12.77
535.6	18.77
535.723	11.77
535.847	26.77
535.97	12.77
536.093	19.77
536.216	28.77
536.34	28.77
536.463	7.77
536.586	43.77
536.709	23.77
536.833	29.77
536.956	18.77
537.079	14.77
537.202	32.77
537.325	9.77
537.449	19.77
537.572	34.77
537.695	22.77
537.818	24.77
537.941	20.77
538.065	16.77
538.188	29.77
538.311	36.77
538.434	21.77
538.558	27.77
538.681	29.77
538.804	25.77
538.927	35.77
539.05	35.77
539.173	18.77
539.297	10.77
539.42	35.77
539.543	8.77
539.666	46.77
539.789	24.77
539.913	34.77
540.036	22.77
540.159	37.77
540.282	14.77
540.405	10.77
540.528	5.77
540.651	28.77
540.775	10.77
540.898	28.77
541.021	31.77
541.144	34.77
541.267	36.77
541.39	19.77
541.513	45.77
541.637	24.77
541.76	23.77
541.883	33.77
542.006	36.77
542.129	44.77
542.252	29.77
542.375	48.77
542.498	48.77
542.622	45.77
542.745	46.77
542.868	55.77
542.991	66.77
543.114	56.77
543.237	70.77
543.36	74.77
543.483	45.77
543.606	66.77
543.73	91.77
543.853	72.77
543.976	88.77
544.099	120.77
544.222	119.77
544.345	127.77
544.468	176.77
544.591	228.77
544.714	269.77
544.837	348.77
544.96	430.77
545.083	647.77
545.206	1066.77
545.329	2390.77
545.453	10803.77
545.576	15236.77
545.699	15685.77
545.822	15685.77
545.945	15685.77
546.068	15685.77
546.191	15685.77
546.314	15685.77
546.437	15685.77
546.56	15685.77
546.683	15685.77
546.806	15685.77
546.929	15685.77
547.052	15685.77
547.175	15685.77
547.298	15685.77
547.421	15685.77
547.544	15685.77
547.667	3388.77
547.79	1679.77
547.913	908.77
548.036	812.77
548.159	612.77
548.282	600.77
548.405	465.77
548.528	470.77
548.651	381.77
548.774	385.77
548.897	328.77
549.02	347.77
549.143	309.77
549.266	276.77
549.389	279.77
549.512	262.77
549.635	264.77
549.758	234.77
549.881	192.77
550.004	202.77
550.127	192.77
550.25	195.77
550.373	187.77
550.496	182.77
550.619	165.77
550.742	150.77
550.865	134.77
550.988	142.77
551.111	147.77
551.234	132.77
551.356	129.77
551.479	144.77
551.602	131.77
551.725	133.77
551.848	138.77
551.971	136.77
552.094	127.77
552.217	107.77
552.34	95.77
552.463	101.77
552.586	113.77
552.709	109.77
552.832	93.77
552.955	107.77
553.077	128.77
553.2	122.77
553.323	92.77
553.446	94.77
553.569	101.77
553.692	109.77
553.815	94.77
553.938	126.77
554.061	100.77
554.184	86.77
554.306	105.77
554.429	96.77
554.552	87.77
554.675	83.77
554.798	73.77
554.921	86.77
555.044	68.77
555.167	77.77
555.29	65.77
555.412	76.77
555.535	75.77
555.658	75.77
555.781	78.77
555.904	79.77
556.027	87.77
556.15	82.77
556.272	74.77
556.395	87.77
556.518	65.77
556.641	80.77
556.764	78.77
556.887	77.77
557.01	75.77
557.132	56.77
557.255	74.77
557.378	75.77
557.501	72.77
557.624	77.77
557.747	73.77
557.869	62.77
557.992	78.77
558.115	81.77
558.238	66.77
558.361	99.77
558.483	99.77
558.606	71.77
558.729	46.77
558.852	74.77
558.975	63.77
559.098	86.77
559.22	60.77
559.343	48.77
559.466	60.77
559.589	52.77
559.712	49.77
559.834	45.77
559.957	50.77
560.08	41.77
560.203	56.77
560.325	76.77
560.448	75.77
560.571	63.77
560.694	44.77
560.817	70.77
560.939	39.77
561.062	62.77
561.185	64.77
561.308	78.77
561.43	70.77
561.553	65.77
561.676	70.77
561.799	59.77
561.921	64.77
562.044	67.77
562.167	57.77
562.29	82.77
562.413	73.77
562.535	68.77
562.658	50.77
562.781	61.77
562.903	51.77
563.026	64.77
563.149	133.77
563.272	119.77
563.394	106.77
563.517	99.77
563.64	48.77
563.763	54.77
563.885	62.77
564.008	75.77
564.131	54.77
564.254	37.77
564.376	48.77
564.499	43.77
564.622	38.77
564.744	44.77
564.867	42.77
564.99	43.77
565.113	60.77
565.235	33.77
565.358	36.77
565.481	35.77
565.603	28.77
565.726	13.77
565.849	40.77
565.971	40.77
566.094	24.77
566.217	35.77
566.34	33.77
566.462	35.77
566.585	50.77
566.708	50.77
566.83	35.77
566.953	45.77
567.076	35.77
567.198	33.77
567.321	28.77
567.444	49.77
567.566	45.77
567.689	43.77
567.812	25.77
567.934	50.77
568.057	33.77
568.18	36.77
568.302	38.77
568.425	34.77
568.548	43.77
568.67	32.77
568.793	35.77
568.916	30.77
569.038	33.77
569.161	29.77
569.283	42.77
569.406	28.77
569.529	40.77
569.651	20.77
569.774	24.77
569.897	26.77
570.019	46.77
570.142	36.77
570.265	26.77
570.387	24.77
570.51	45.77
570.632	48.77
570.755	28.77
570.878	39.77
571	38.77
571.123	42.77
571.246	37.77
571.368	25.77
571.491	27.77
571.613	25.77
571.736	13.77
571.859	43.77
571.981	23.77
572.104	20.77
572.226	33.77
572.349	18.77
572.472	30.77
572.594	51.77
572.717	35.77
572.839	31.77
572.962	32.77
573.085	34.77
573.207	37.77
573.33	17.77
573.452	55.77
573.575	44.77
573.697	45.77
573.82	31.77
573.943	34.77
574.065	14.77
574.188	35.77
574.31	51.77
574.433	30.77
574.555	51.77
574.678	38.77
574.801	60.77
574.923	32.77
575.046	23.77
575.168	25.77
575.291	50.77
575.413	53.77
575.536	53.77
575.659	38.77
575.781	53.77
575.904	71.77
576.026	78.77
576.149	63.77
576.271	134.77
576.394	220.77
576.516	514.77
576.639	3588.77
576.761	9984.77
576.884	8644.77
577.007	8614.77
577.129	7890.77
577.252	3688.77
577.374	1250.77
577.497	519.77
577.619	288.77
577.742	153.77
577.864	150.77
577.987	126.77
578.109	128.77
578.232	119.77
578.354	148.77
578.477	189.77
578.599	371.77
578.722	1912.77
578.844	8916.77
578.967	9630.77
579.089	8628.77
579.212	8882.77
579.334	5140.77
579.457	1863.77
579.579	702.77
579.702	321.77
579.824	195.77
579.947	120.77
580.069	111.77
580.192	101.77
580.314	97.77
580.437	88.77
580.559	98.77
580.682	73.77
580.804	58.77
580.927	63.77
581.049	77.77
581.172	50.77
581.294	40.77
581.417	55.77
581.539	53.77
581.662	56.77
581.784	65.77
581.907	45.77
582.029	40.77
582.152	29.77
582.274	45.77
582.396	39.77
582.519	42.77
582.641	27.77
582.764	36.77
582.886	57.77
583.009	36.77
583.131	46.77
583.254	34.77
583.376	50.77
583.499	35.77
583.621	35.77
583.743	45.77
583.866	35.77
583.988	28.77
584.111	57.77
584.233	46.77
584.356	41.77
584.478	46.77
584.601	18.77
584.723	25.77
584.845	40.77
584.968	35.77
585.09	28.77
585.213	33.77
585.335	29.77
585.458	22.77
585.58	28.77
585.702	54.77
585.825	54.77
585.947	29.77
586.07	22.77
586.192	30.77
586.315	43.77
586.437	27.77
586.559	19.77
586.682	6.77
586.804	30.77
586.927	30.77
587.049	27.77
587.171	30.77
587.294	20.77
587.416	54.77
587.539	54.77
587.661	33.77
587.783	22.77
587.906	7.77
588.028	29.77
588.151	10.77
588.273	43.77
588.395	25.77
588.518	11.77
588.64	25.77
588.763	40.77
588.885	39.77
589.007	36.77
589.13	11.77
589.252	11.77
589.375	52.77
589.497	32.77
589.619	36.77
589.742	36.77
589.864	30.77
589.986	34.77
590.109	11.77
590.231	18.77
590.354	33.77
590.476	14.77
590.598	23.77
590.721	19.77
590.843	28.77
590.965	43.77
591.088	22.77
591.21	25.77
591.332	30.77
591.455	29.77
591.577	26.77
591.7	28.77
591.822	14.77
591.944	35.77
592.067	34.77
592.189	30.77
592.311	32.77
592.434	40.77
592.556	46.77
592.678	28.77
592.801	25.77
592.923	11.77
593.045	10.77
593.168	25.77
593.29	25.77
593.412	33.77
593.535	26.77
593.657	26.77
593.779	24.77
593.902	40.77
594.024	23.77
594.146	35.77
594.269	29.77
594.391	19.77
594.513	36.77
594.636	20.77
594.758	25.77
594.88	47.77
595.003	46.77
595.125	24.77
595.247	40.77
595.37	26.77
595.492	11.77
595.614	32.77
595.737	20.77
595.859	14.77
595.981	27.77
596.104	26.77
596.226	14.77
596.348	16.77
596.471	20.77
596.593	32.77
596.715	42.77
596.838	16.77
596.96	16.77
597.082	39.77
597.204	34.77
597.327	33.77
597.449	8.77
597.571	15.77
597.694	45.77
597.816	40.77
597.938	4.77
598.061	5.77
598.183	22.77
598.305	26.77
598.427	39.77
598.55	17.77
598.672	35.77
598.794	31.77
598.917	18.77
599.039	29.77
599.161	32.77
599.283	26.77
599.406	40.77
599.528	43.77
599.65	36.77
599.773	27.77
599.895	49.77
600.017	30.77
600.139	31.77
600.262	23.77
600.384	33.77
600.506	18.77
600.628	35.77
600.751	45.77
600.873	26.77
600.995	15.77
601.118	43.77
601.24	28.77
601.362	24.77
601.484	17.77
601.607	33.77
601.729	30.77
601.851	42.77
601.973	26.77
602.096	31.77
602.218	44.77
602.34	45.77
602.462	32.77
602.585	30.77
602.707	15.77
602.829	12.77
602.951	20.77
603.074	-8.23
603.196	17.77
603.318	16.77
603.44	37.77
603.563	31.77
603.685	14.77
603.807	34.77
603.929	24.77
604.052	28.77
604.174	46.77
604.296	33.77
604.418	30.77
604.541	40.77
604.663	13.77
604.785	30.77
604.907	30.77
605.03	12.77
605.152	54.77
605.274	13.77
605.396	17.77
605.519	11.77
605.641	23.77
605.763	25.77
605.885	37.77
606.008	29.77
606.13	24.77
606.252	46.77
606.374	10.77
606.496	7.77
606.619	26.77
606.741	10.77
606.863	23.77
606.985	34.77
607.108	34.77
607.23	16.77
607.352	20.77
607.474	11.77
607.596	26.77
607.719	20.77
607.841	48.77
607.963	16.77
608.085	35.77
608.207	46.77
608.33	21.77
608.452	23.77
608.574	26.77
608.696	35.77
608.819	8.77
608.941	34.77
609.063	10.77
609.185	14.77
609.307	35.77
609.43	42.77
609.552	18.77
609.674	7.77
609.796	36.77
609.918	55.77
610.041	28.77
610.163	35.77
610.285	32.77
610.407	26.77
610.529	18.77
610.652	12.77
610.774	28.77
610.896	36.77
611.018	34.77
611.14	18.77
611.263	11.77
611.385	13.77
611.507	32.77
611.629	11.77
611.751	28.77
611.873	43.77
611.996	39.77
612.118	37.77
612.24	14.77
612.362	29.77
612.484	35.77
612.607	35.77
612.729	49.77
612.851	38.77
612.973	7.77
613.095	0.77
613.218	19.77
613.34	37.77
613.462	28.77
613.584	22.77
613.706	12.77
613.828	33.77
613.951	13.77
614.073	12.77
614.195	10.77
614.317	47.77
614.439	28.77
614.561	37.77
614.684	33.77
614.806	41.77
614.928	31.77
615.05	28.77
615.172	29.77
615.294	23.77
615.417	22.77
615.539	19.77
615.661	20.77
615.783	35.77
615.905	23.77
616.027	4.77
616.15	30.77
616.272	19.77
616.394	10.77
616.516	15.77
616.638	33.77
616.76	18.77
616.883	26.77
617.005	26.77
617.127	19.77
617.249	25.77
617.371	35.77
617.493	16.77
617.615	43.77
617.738	21.77
617.86	13.77
617.982	27.77
618.104	20.77
618.226	19.77
618.348	11.77
618.471	24.77
618.593	22.77
618.715	22.77
618.837	35.77
618.959	16.77
619.081	34.77
619.203	30.77
619.326	39.77
619.448	25.77
619.57	32.77
619.692	25.77
619.814	36.77
619.936	43.77
620.058	39.77
620.181	23.77
620.303	11.77
620.425	11.77
620.547	12.77
620.669	19.77
620.791	20.77
620.913	12.77
621.036	2.77
621.158	32.77
621.28	22.77
621.402	15.77
621.524	22.77
621.646	9.77
621.768	22.77
621.891	19.77
622.013	11.77
622.135	4.77
622.257	13.77
622.379	30.77
622.501	23.77
622.623	25.77
622.745	16.77
622.868	5.77
622.99	19.77
623.112	12.77
623.234	12.77
623.356	11.77
623.478	14.77
623.6	33.77
623.722	10.77
623.845	21.77
623.967	4.77
624.089	26.77
624.211	32.77
624.333	18.77
624.455	26.77
624.577	14.77
624.699	8.77
624.822	28.77
624.944	-3.23
625.066	5.77
625.188	11.77
625.31	25.77
625.432	35.77
625.554	29.77
625.676	38.77
625.799	24.77
625.921	24.77
626.043	25.77
626.165	6.77
626.287	10.77
626.409	25.77
626.531	14.77
626.653	13.77
626.775	28.77
626.898	0.77
627.02	38.77
627.142	49.77
627.264	29.77
627.386	15.77
627.508	1.77
627.63	24.77
627.752	26.77
627.874	10.77
627.997	12.77
628.119	16.77
628.241	36.77
628.363	24.77
628.485	26.77
628.607	10.77
628.729	18.77
628.851	2.77
628.973	16.77
629.096	19.77
629.218	23.77
629.34	40.77
629.462	28.77
629.584	6.77
629.706	22.77
629.828	17.77
629.95	31.77
630.072	3.77
630.195	0.77
630.317	17.77
630.439	19.77
630.561	16.77
630.683	-7.23
630.805	17.77
630.927	39.77
631.049	7.77
631.171	28.77
631.293	22.77
631.416	23.77
631.538	14.77
631.66	17.77
631.782	31.77
631.904	26.77
632.026	2.77
632.148	17.77
632.27	19.77
632.392	39.77
632.514	23.77
632.637	31.77
632.759	11.77
632.881	0.77
633.003	10.77
633.125	20.77
633.247	30.77
633.369	12.77
633.491	14.77
633.613	11.77
633.735	0.77
633.858	22.77
633.98	3.77
634.102	14.77
634.224	27.77
634.346	12.77
634.468	7.77
634.59	20.77
634.712	21.77
634.834	20.77
634.956	16.77
635.078	21.77
635.201	10.77
635.323	13.77
635.445	-0.23
635.567	4.77
635.689	35.77
635.811	32.77
635.933	13.77
636.055	14.77
636.177	12.77
636.299	22.77
636.421	14.77
636.544	-9.23
636.666	11.77
636.788	27.77
636.91	18.77
637.032	1.77
637.154	29.77
637.276	30.77
637.398	29.77
637.52	29.77
637.642	11.77
637.764	31.77
637.887	4.77
638.009	11.77
638.131	18.77
638.253	-0.23
638.375	20.77
638.497	20.77
638.619	10.77
638.741	10.77
638.863	6.77
638.985	4.77
639.107	10.77
639.23	12.77
639.352	41.77
639.474	22.77
639.596	28.77
639.718	7.77
639.84	17.77
639.962	16.77
640.084	20.77
640.206	13.77
640.328	15.77
640.45	6.77
640.573	22.77
640.695	28.77
640.817	12.77
640.939	20.77
641.061	15.77
641.183	15.77
641.305	14.77
641.427	16.77
641.549	10.77
641.671	25.77
641.793	10.77
641.915	28.77
642.038	20.77
642.16	3.77
642.282	16.77
642.404	20.77
642.526	13.77
642.648	24.77
642.77	6.77
642.892	-3.23
643.014	30.77
643.136	8.77
643.258	21.77
643.381	38.77
643.503	36.77
643.625	6.77
643.747	-4.23
643.869	4.77
643.991	15.77
644.113	22.77
644.235	4.77
644.357	24.77
644.479	38.77
644.601	21.77
644.723	18.77
644.846	22.77
644.968	23.77
645.09	11.77
645.212	20.77
645.334	36.77
645.456	29.77
645.578	18.77
645.7	16.77
645.822	31.77
645.944	26.77
646.066	24.77
646.188	19.77
646.311	42.77
646.433	30.77
646.555	23.77
646.677	17.77
646.799	12.77
646.921	18.77
647.043	21.77
647.165	10.77
647.287	15.77
647.409	20.77
647.531	28.77
647.654	10.77
647.776	17.77
647.898	31.77
648.02	6.77
648.142	1.77
648.264	3.77
648.386	15.77
648.508	-5.23
648.63	6.77
648.752	8.77
648.874	19.77
648.997	22.77
649.119	33.77
649.241	18.77
649.363	25.77
649.485	22.77
649.607	6.77
649.729	-4.23
649.851	11.77
649.973	13.77
650.095	15.77
650.217	2.77
650.34	13.77
650.462	16.77
650.584	22.77
650.706	25.77
650.828	35.77
650.95	1.77
651.072	19.77
651.194	3.77
651.316	12.77
651.438	10.77
651.56	-4.23
651.683	23.77
651.805	39.77
651.927	-4.23
652.049	22.77
652.171	15.77
652.293	11.77
652.415	-3.23
652.537	-7.23
652.659	-3.23
652.781	7.77
652.903	35.77
653.026	31.77
653.148	33.77
653.27	32.77
653.392	22.77
653.514	7.77
653.636	17.77
653.758	22.77
653.88	4.77
654.002	-3.23
654.124	6.77
654.247	-12.23
654.369	23.77
654.491	26.77
654.613	11.77
654.735	15.77
654.857	26.77
654.979	27.77
655.101	30.77
655.223	44.77
655.345	35.77
655.468	21.77
655.59	8.77
655.712	28.77
655.834	14.77
655.956	22.77
656.078	7.77
656.2	15.77
656.322	7.77
656.444	-9.23
656.566	24.77
656.689	6.77
656.811	18.77
656.933	23.77
657.055	12.77
657.177	2.77
657.299	15.77
657.421	13.77
657.543	15.77
657.665	3.77
657.787	12.77
657.91	25.77
658.032	-7.23
658.154	7.77
658.276	11.77
658.398	-5.23
658.52	22.77
658.642	16.77
658.764	16.77
658.886	0.77
659.009	5.77
659.131	17.77
659.253	0.77
659.375	19.77
659.497	-2.23
659.619	21.77
659.741	13.77
659.863	9.77
659.985	3.77
660.108	14.77
660.23	6.77
660.352	17.77
660.474	16.77
660.596	23.77
660.718	25.77
660.84	15.77
660.962	12.77
661.084	-1.23
661.207	-10.23
661.329	16.77
661.451	11.77
661.573	13.77
661.695	17.77
661.817	13.77
661.939	20.77
662.061	28.77
662.184	8.77
662.306	12.77
662.428	9.77
662.55	16.77
662.672	-3.23
662.794	8.77
662.916	1.77
663.038	11.77
663.161	33.77
663.283	29.77
663.405	19.77
663.527	1.77
663.649	24.77
663.771	-4.23
663.893	28.77
664.015	8.77
664.138	16.77
664.26	4.77
664.382	6.77
664.504	17.77
664.626	11.77
664.748	-5.23
664.87	-5.23
664.992	22.77
665.115	38.77
665.237	9.77
665.359	10.77
665.481	15.77
665.603	20.77
665.725	-1.23
665.847	-2.23
665.97	4.77
666.092	26.77
666.214	15.77
666.336	1.77
666.458	19.77
666.58	12.77
666.702	1.77
666.825	11.77
666.947	-4.23
667.069	1.77
667.191	6.77
667.313	9.77
667.435	-4.23
667.557	-5.23
667.68	-19.23
667.802	-2.23
667.924	-8.23
668.046	32.77
668.168	24.77
668.29	28.77
668.412	19.77
668.535	8.77
668.657	11.77
668.779	16.77
668.901	2.77
669.023	11.77
669.145	3.77
669.267	3.77
669.39	1.77
669.512	6.77
669.634	20.77
669.756	-9.23
669.878	15.77
670	26.77
670.123	15.77
670.245	42.77
670.367	22.77
670.489	27.77
670.611	23.77
670.733	6.77
670.856	10.77
670.978	29.77
671.1	17.77
671.222	16.77
671.344	0.77
671.466	19.77
671.589	17.77
671.711	10.77
671.833	1.77
671.955	16.77
672.077	19.77
672.199	38.77
672.322	29.77
672.444	14.77
672.566	16.77
672.688	4.77
672.81	11.77
672.932	18.77
673.055	2.77
673.177	0.77
673.299	15.77
673.421	-0.23
673.543	6.77
673.665	30.77
673.788	10.77
673.91	4.77
674.032	-6.23
674.154	-1.23
674.276	22.77
674.399	-0.23
674.521	7.77
674.643	30.77
674.765	10.77
674.887	15.77
675.009	17.77
675.132	-4.23
675.254	9.77
675.376	8.77
675.498	11.77
675.62	32.77
675.743	14.77
675.865	24.77
675.987	15.77
676.109	15.77
676.231	18.77
676.354	35.77
676.476	6.77
676.598	13.77
676.72	22.77
676.842	1.77
676.965	15.77
677.087	13.77
677.209	33.77
677.331	34.77
677.453	32.77
677.576	17.77
677.698	18.77
677.82	7.77
677.942	2.77
678.064	2.77
678.187	25.77
678.309	18.77
678.431	10.77
678.553	-0.23
678.675	31.77
678.798	21.77
678.92	19.77
679.042	20.77
679.164	7.77
679.286	23.77
679.409	7.77
679.531	-3.23
679.653	6.77
679.775	13.77
679.898	9.77
680.02	12.77
680.142	12.77
680.264	22.77
680.386	6.77
680.509	7.77
680.631	24.77
680.753	7.77
680.875	3.77
680.998	19.77
681.12	16.77
681.242	8.77
681.364	0.77
681.486	4.77
681.609	5.77
681.731	-1.23
681.853	-9.23
681.975	10.77
682.098	22.77
682.22	20.77
682.342	24.77
682.464	29.77
682.587	23.77
682.709	8.77
682.831	-8.23
682.953	18.77
683.076	-15.23
683.198	14.77
683.32	9.77
683.442	21.77
683.565	13.77
683.687	-9.23
683.809	0.77
683.931	-0.23
684.054	13.77
684.176	5.77
684.298	17.77
684.42	0.77
684.543	13.77
684.665	29.77
684.787	6.77
684.909	1.77
685.032	24.77
685.154	3.77
685.276	22.77
685.398	11.77
685.521	10.77
685.643	11.77
685.765	19.77
685.887	17.77
686.01	1.77
686.132	30.77
686.254	41.77
686.377	8.77
686.499	7.77
686.621	19.77
686.743	20.77
686.866	8.77
686.988	34.77
687.11	26.77
687.232	21.77
687.355	11.77
687.477	16.77
687.599	18.77
687.722	10.77
687.844	14.77
687.966	25.77
688.088	18.77
688.211	25.77
688.333	26.77
688.455	9.77
688.578	21.77
688.7	30.77
688.822	17.77
688.944	-4.23
689.067	60.77
689.189	18.77
689.311	2.77
689.434	0.77
689.556	15.77
689.678	15.77
689.801	-0.23
689.923	16.77
690.045	25.77
690.167	39.77
690.29	20.77
690.412	0.77
690.534	30.77
690.657	9.77
690.779	-3.23
690.901	7.77
691.024	6.77
691.146	17.77
691.268	-3.23
691.391	15.77
691.513	18.77
691.635	26.77
691.758	27.77
691.88	25.77
692.002	-2.23
692.125	12.77
692.247	13.77
692.369	3.77
692.492	4.77
692.614	2.77
692.736	16.77
692.859	1.77
692.981	0.77
693.103	6.77
693.226	24.77
693.348	34.77
693.47	39.77
693.593	26.77
693.715	9.77
693.837	17.77
693.96	18.77
694.082	8.77
694.204	18.77
694.327	5.77
694.449	-7.23
694.571	18.77
694.694	26.77
694.816	22.77
694.938	1.77
695.061	29.77
695.183	23.77
695.305	5.77
695.428	25.77
695.55	14.77
695.672	-4.23
695.795	29.77
695.917	26.77
696.04	9.77
696.162	23.77
696.284	17.77
696.407	15.77
696.529	19.77
696.651	30.77
696.774	11.77
696.896	18.77
697.019	13.77
697.141	6.77
697.263	5.77
697.386	-2.23
697.508	22.77
697.63	34.77
697.753	2.77
697.875	12.77
697.998	11.77
698.12	25.77
698.242	13.77
698.365	15.77
698.487	-7.23
698.61	14.77
698.732	20.77
698.854	23.77
698.977	25.77
699.099	34.77
699.221	10.77
699.344	1.77
699.466	31.77
699.589	13.77
699.711	15.77
699.834	9.77
699.956	17.77
700.078	4.77
700.201	4.77
700.323	23.77
700.446	28.77
700.568	-6.23
700.69	14.77
700.813	26.77
700.935	4.77
701.058	6.77
701.18	15.77
701.302	-7.23
701.425	32.77
701.547	27.77
701.67	0.77
701.792	12.77
701.915	15.77
702.037	7.77
702.159	0.77
702.282	15.77
702.404	6.77
702.527	-1.23
702.649	29.77
702.772	22.77
702.894	22.77
703.017	38.77
703.139	20.77
703.261	31.77
703.384	30.77
703.506	2.77
703.629	6.77
703.751	13.77
703.874	18.77
703.996	3.77
704.119	3.77
704.241	10.77
704.364	-2.23
704.486	14.77
704.608	20.77
704.731	20.77
704.853	20.77
704.976	10.77
705.098	15.77
705.221	27.77
705.343	30.77
705.466	21.77
705.588	19.77
705.711	19.77
705.833	26.77
705.956	8.77
706.078	26.77
706.201	11.77
706.323	18.77
706.446	4.77
