Data from LowRes_mercury_15_20_11_07_2024_HR4C61881__41__15-23-36-371.txt Node

Date: Thu Nov 07 15:23:36 EST 2024
User: crc00042
Spectrometer: HR4C6188
Trigger mode: 4
Integration Time (sec): 1.000000E-1
Scans to average: 1
Electric dark correction enabled: true
Nonlinearity correction enabled: false
Boxcar width: 0
XAxis mode: Wavelengths
Number of Pixels in Spectrum: 3648
>>>>>Begin Spectral Data<<<<<
245.66	-48.69
245.797	-48.69
245.934	-48.69
246.071	-60.69
246.208	15.31
246.344	-0.69
246.481	-16.69
246.618	-13.69
246.755	11.31
246.892	0.31
247.029	-21.69
247.165	-13.69
247.302	33.31
247.439	-8.69
247.576	22.31
247.713	-4.69
247.849	10.31
247.986	2.31
248.123	3.31
248.26	5.31
248.396	25.31
248.533	7.31
248.67	4.31
248.806	19.31
248.943	-6.69
249.08	-2.69
249.216	18.31
249.353	-0.69
249.49	20.31
249.626	14.31
249.763	-2.69
249.9	-8.69
250.036	24.31
250.173	7.31
250.309	0.31
250.446	10.31
250.582	9.31
250.719	11.31
250.856	-5.69
250.992	15.31
251.129	1.31
251.265	13.31
251.402	8.31
251.538	-1.69
251.675	7.31
251.811	36.31
251.948	20.31
252.084	8.31
252.221	-3.69
252.357	-6.69
252.493	38.31
252.63	15.31
252.766	20.31
252.903	7.31
253.039	4.31
253.175	2.31
253.312	8.31
253.448	-5.69
253.585	-14.69
253.721	-2.69
253.857	-5.69
253.994	12.31
254.13	-3.69
254.266	10.31
254.403	14.31
254.539	13.31
254.675	24.31
254.811	22.31
254.948	7.31
255.084	2.31
255.22	-7.69
255.356	2.31
255.493	18.31
255.629	4.31
255.765	10.31
255.901	22.31
256.037	18.31
256.174	19.31
256.31	15.31
256.446	14.31
256.582	0.31
256.718	13.31
256.854	44.31
256.991	30.31
257.127	31.31
257.263	5.31
257.399	-0.69
257.535	0.31
257.671	-11.69
257.807	-4.69
257.943	0.31
258.079	-22.69
258.215	0.31
258.351	27.31
258.487	13.31
258.623	34.31
258.759	12.31
258.895	6.31
259.031	8.31
259.167	-9.69
259.303	40.31
259.439	18.31
259.575	5.31
259.711	13.31
259.847	-0.69
259.983	15.31
260.119	-5.69
260.255	-3.69
260.391	0.31
260.527	-5.69
260.663	9.31
260.799	20.31
260.934	12.31
261.07	-3.69
261.206	-3.69
261.342	-11.69
261.478	21.31
261.614	31.31
261.749	30.31
261.885	5.31
262.021	-2.69
262.157	1.31
262.293	-12.69
262.428	0.31
262.564	-3.69
262.7	22.31
262.836	-0.69
262.971	16.31
263.107	-5.69
263.243	29.31
263.378	6.31
263.514	-0.69
263.65	5.31
263.785	4.31
263.921	6.31
264.057	-0.69
264.192	20.31
264.328	18.31
264.464	-0.69
264.599	11.31
264.735	30.31
264.871	11.31
265.006	11.31
265.142	14.31
265.277	7.31
265.413	11.31
265.548	8.31
265.684	17.31
265.819	-4.69
265.955	1.31
266.091	5.31
266.226	6.31
266.362	4.31
266.497	18.31
266.633	11.31
266.768	3.31
266.903	26.31
267.039	22.31
267.174	18.31
267.31	2.31
267.445	-10.69
267.581	-0.69
267.716	20.31
267.851	-1.69
267.987	17.31
268.122	9.31
268.258	-2.69
268.393	6.31
268.528	24.31
268.664	-7.69
268.799	-11.69
268.934	-16.69
269.07	-8.69
269.205	18.31
269.34	13.31
269.476	5.31
269.611	4.31
269.746	23.31
269.881	21.31
270.017	30.31
270.152	-6.69
270.287	8.31
270.422	14.31
270.558	4.31
270.693	10.31
270.828	24.31
270.963	-1.69
271.098	-11.69
271.234	1.31
271.369	16.31
271.504	0.31
271.639	-7.69
271.774	14.31
271.909	1.31
272.045	-22.69
272.18	1.31
272.315	-0.69
272.45	9.31
272.585	2.31
272.72	16.31
272.855	16.31
272.99	31.31
273.125	5.31
273.26	-4.69
273.395	-2.69
273.53	5.31
273.665	21.31
273.8	4.31
273.935	23.31
274.07	10.31
274.205	7.31
274.34	12.31
274.475	12.31
274.61	26.31
274.745	16.31
274.88	17.31
275.015	2.31
275.15	21.31
275.285	16.31
275.42	15.31
275.555	12.31
275.69	19.31
275.825	7.31
275.959	14.31
276.094	0.31
276.229	-5.69
276.364	-12.69
276.499	1.31
276.634	14.31
276.768	-4.69
276.903	16.31
277.038	28.31
277.173	8.31
277.308	18.31
277.442	4.31
277.577	7.31
277.712	0.31
277.847	-6.69
277.981	15.31
278.116	2.31
278.251	2.31
278.386	19.31
278.52	13.31
278.655	0.31
278.79	22.31
278.924	22.31
279.059	19.31
279.194	-1.69
279.328	31.31
279.463	2.31
279.598	19.31
279.732	-0.69
279.867	18.31
280.001	16.31
280.136	3.31
280.271	19.31
280.405	12.31
280.54	1.31
280.674	-12.69
280.809	13.31
280.943	-6.69
281.078	7.31
281.213	29.31
281.347	24.31
281.482	20.31
281.616	-1.69
281.751	5.31
281.885	-6.69
282.02	4.31
282.154	22.31
282.288	0.31
282.423	-14.69
282.557	-13.69
282.692	12.31
282.826	11.31
282.961	30.31
283.095	15.31
283.229	-1.69
283.364	2.31
283.498	-1.69
283.633	-0.69
283.767	14.31
283.901	1.31
284.036	15.31
284.17	12.31
284.304	14.31
284.439	18.31
284.573	6.31
284.707	43.31
284.842	15.31
284.976	-10.69
285.11	-1.69
285.244	10.31
285.379	50.31
285.513	3.31
285.647	19.31
285.781	25.31
285.916	19.31
286.05	-0.69
286.184	14.31
286.318	5.31
286.453	4.31
286.587	5.31
286.721	-3.69
286.855	3.31
286.989	10.31
287.123	-0.69
287.258	3.31
287.392	13.31
287.526	8.31
287.66	20.31
287.794	13.31
287.928	-10.69
288.062	4.31
288.196	6.31
288.33	20.31
288.464	36.31
288.598	12.31
288.733	21.31
288.867	5.31
289.001	30.31
289.135	8.31
289.269	-10.69
289.403	-7.69
289.537	4.31
289.671	19.31
289.805	-8.69
289.939	8.31
290.073	8.31
290.207	17.31
290.34	22.31
290.474	6.31
290.608	19.31
290.742	5.31
290.876	0.31
291.01	-22.69
291.144	32.31
291.278	-3.69
291.412	21.31
291.546	7.31
291.679	12.31
291.813	-9.69
291.947	3.31
292.081	4.31
292.215	-1.69
292.349	27.31
292.482	15.31
292.616	3.31
292.75	0.31
292.884	2.31
293.018	14.31
293.151	-7.69
293.285	10.31
293.419	-7.69
293.553	10.31
293.686	-3.69
293.82	18.31
293.954	27.31
294.088	32.31
294.221	0.31
294.355	14.31
294.489	15.31
294.622	14.31
294.756	21.31
294.89	2.31
295.023	10.31
295.157	20.31
295.291	32.31
295.424	17.31
295.558	15.31
295.691	12.31
295.825	-7.69
295.959	21.31
296.092	16.31
296.226	11.31
296.359	11.31
296.493	7.31
296.627	-0.69
296.76	1.31
296.894	14.31
297.027	-3.69
297.161	-14.69
297.294	-12.69
297.428	-14.69
297.561	23.31
297.695	5.31
297.828	19.31
297.962	6.31
298.095	7.31
298.229	3.31
298.362	-11.69
298.495	-5.69
298.629	-6.69
298.762	5.31
298.896	21.31
299.029	4.31
299.162	16.31
299.296	24.31
299.429	-7.69
299.563	1.31
299.696	4.31
299.829	14.31
299.963	23.31
300.096	13.31
300.229	3.31
300.363	6.31
300.496	20.31
300.629	-0.69
300.763	-10.69
300.896	-7.69
301.029	0.31
301.162	12.31
301.296	-6.69
301.429	3.31
301.562	-15.69
301.695	11.31
301.829	-8.69
301.962	18.31
302.095	3.31
302.228	0.31
302.362	8.31
302.495	5.31
302.628	11.31
302.761	-8.69
302.894	12.31
303.027	20.31
303.161	-12.69
303.294	-6.69
303.427	27.31
303.56	15.31
303.693	12.31
303.826	-7.69
303.959	-3.69
304.092	-6.69
304.225	26.31
304.359	20.31
304.492	16.31
304.625	3.31
304.758	18.31
304.891	3.31
305.024	-0.69
305.157	12.31
305.29	-6.69
305.423	13.31
305.556	9.31
305.689	26.31
305.822	11.31
305.955	-6.69
306.088	-6.69
306.221	0.31
306.354	3.31
306.487	15.31
306.62	1.31
306.752	6.31
306.885	11.31
307.018	14.31
307.151	17.31
307.284	-3.69
307.417	4.31
307.55	25.31
307.683	-11.69
307.816	33.31
307.948	25.31
308.081	28.31
308.214	9.31
308.347	9.31
308.48	-7.69
308.613	5.31
308.745	9.31
308.878	1.31
309.011	12.31
309.144	24.31
309.277	16.31
309.409	6.31
309.542	16.31
309.675	19.31
309.808	0.31
309.94	17.31
310.073	-20.69
310.206	-9.69
310.339	-10.69
310.471	3.31
310.604	12.31
310.737	12.31
310.869	13.31
311.002	14.31
311.135	15.31
311.267	-7.69
311.4	6.31
311.533	32.31
311.665	22.31
311.798	20.31
311.93	16.31
312.063	30.31
312.196	59.31
312.328	94.31
312.461	50.31
312.593	33.31
312.726	48.31
312.859	100.31
312.991	173.31
313.124	56.31
313.256	37.31
313.389	14.31
313.521	5.31
313.654	-2.69
313.786	-7.69
313.919	-2.69
314.051	-0.69
314.184	8.31
314.316	6.31
314.449	-11.69
314.581	10.31
314.714	1.31
314.846	15.31
314.978	-7.69
315.111	-3.69
315.243	2.31
315.376	17.31
315.508	20.31
315.641	20.31
315.773	27.31
315.905	5.31
316.038	11.31
316.17	-8.69
316.302	13.31
316.435	9.31
316.567	8.31
316.699	32.31
316.832	-4.69
316.964	-4.69
317.096	13.31
317.229	21.31
317.361	-0.69
317.493	20.31
317.625	22.31
317.758	10.31
317.89	27.31
318.022	8.31
318.155	-6.69
318.287	5.31
318.419	13.31
318.551	2.31
318.683	23.31
318.816	7.31
318.948	3.31
319.08	-4.69
319.212	5.31
319.344	5.31
319.477	14.31
319.609	36.31
319.741	15.31
319.873	-3.69
320.005	21.31
320.137	-16.69
320.269	1.31
320.401	9.31
320.534	16.31
320.666	3.31
320.798	-7.69
320.93	-6.69
321.062	11.31
321.194	-1.69
321.326	6.31
321.458	21.31
321.59	-7.69
321.722	-5.69
321.854	10.31
321.986	4.31
322.118	18.31
322.25	-5.69
322.382	12.31
322.514	6.31
322.646	-6.69
322.778	14.31
322.91	4.31
323.042	16.31
323.174	23.31
323.306	15.31
323.438	-11.69
323.57	29.31
323.702	17.31
323.834	14.31
323.966	-7.69
324.097	20.31
324.229	23.31
324.361	20.31
324.493	25.31
324.625	6.31
324.757	8.31
324.889	6.31
325.021	13.31
325.152	18.31
325.284	19.31
325.416	-4.69
325.548	28.31
325.68	-1.69
325.811	15.31
325.943	12.31
326.075	-0.69
326.207	6.31
326.339	10.31
326.47	27.31
326.602	32.31
326.734	27.31
326.866	25.31
326.997	-4.69
327.129	-0.69
327.261	3.31
327.392	8.31
327.524	13.31
327.656	5.31
327.787	19.31
327.919	9.31
328.051	0.31
328.182	27.31
328.314	39.31
328.446	12.31
328.577	28.31
328.709	15.31
328.841	-19.69
328.972	7.31
329.104	19.31
329.235	6.31
329.367	16.31
329.499	7.31
329.63	29.31
329.762	17.31
329.893	16.31
330.025	-7.69
330.156	2.31
330.288	22.31
330.419	26.31
330.551	11.31
330.683	15.31
330.814	3.31
330.946	7.31
331.077	-2.69
331.208	7.31
331.34	5.31
331.471	-1.69
331.603	17.31
331.734	4.31
331.866	1.31
331.997	15.31
332.129	-3.69
332.26	1.31
332.392	27.31
332.523	11.31
332.654	18.31
332.786	23.31
332.917	4.31
333.048	27.31
333.18	17.31
333.311	8.31
333.443	11.31
333.574	3.31
333.705	40.31
333.837	33.31
333.968	110.31
334.099	238.31
334.231	225.31
334.362	50.31
334.493	28.31
334.624	41.31
334.756	17.31
334.887	6.31
335.018	29.31
335.15	25.31
335.281	17.31
335.412	25.31
335.543	22.31
335.675	26.31
335.806	24.31
335.937	14.31
336.068	10.31
336.199	47.31
336.331	2.31
336.462	16.31
336.593	22.31
336.724	23.31
336.855	22.31
336.986	40.31
337.118	29.31
337.249	16.31
337.38	15.31
337.511	1.31
337.642	25.31
337.773	29.31
337.904	8.31
338.035	30.31
338.166	4.31
338.298	-5.69
338.429	12.31
338.56	18.31
338.691	27.31
338.822	20.31
338.953	29.31
339.084	26.31
339.215	30.31
339.346	19.31
339.477	14.31
339.608	19.31
339.739	13.31
339.87	13.31
340.001	19.31
340.132	44.31
340.263	6.31
340.394	23.31
340.525	19.31
340.656	10.31
340.787	6.31
340.918	37.31
341.049	34.31
341.179	4.31
341.31	6.31
341.441	43.31
341.572	27.31
341.703	31.31
341.834	10.31
341.965	21.31
342.096	15.31
342.227	23.31
342.357	-11.69
342.488	12.31
342.619	32.31
342.75	29.31
342.881	-0.69
343.012	48.31
343.142	28.31
343.273	26.31
343.404	37.31
343.535	61.31
343.666	33.31
343.796	46.31
343.927	47.31
344.058	36.31
344.189	38.31
344.319	56.31
344.45	36.31
344.581	34.31
344.712	17.31
344.842	24.31
344.973	21.31
345.104	33.31
345.234	26.31
345.365	17.31
345.496	28.31
345.626	38.31
345.757	26.31
345.888	31.31
346.018	35.31
346.149	26.31
346.28	39.31
346.41	16.31
346.541	31.31
346.672	23.31
346.802	36.31
346.933	54.31
347.063	49.31
347.194	26.31
347.325	30.31
347.455	37.31
347.586	32.31
347.716	31.31
347.847	50.31
347.977	59.31
348.108	50.31
348.238	62.31
348.369	39.31
348.499	65.31
348.63	33.31
348.76	51.31
348.891	61.31
349.021	62.31
349.152	64.31
349.282	52.31
349.413	45.31
349.543	54.31
349.674	45.31
349.804	50.31
349.935	26.31
350.065	19.31
350.196	23.31
350.326	32.31
350.456	21.31
350.587	49.31
350.717	26.31
350.848	46.31
350.978	22.31
351.108	15.31
351.239	35.31
351.369	24.31
351.499	34.31
351.63	30.31
351.76	27.31
351.89	11.31
352.021	35.31
352.151	32.31
352.281	29.31
352.412	38.31
352.542	32.31
352.672	22.31
352.803	14.31
352.933	37.31
353.063	28.31
353.193	27.31
353.324	21.31
353.454	47.31
353.584	37.31
353.714	28.31
353.845	27.31
353.975	10.31
354.105	9.31
354.235	19.31
354.365	30.31
354.496	27.31
354.626	37.31
354.756	25.31
354.886	44.31
355.016	31.31
355.146	36.31
355.277	38.31
355.407	28.31
355.537	34.31
355.667	45.31
355.797	33.31
355.927	7.31
356.057	46.31
356.187	27.31
356.318	8.31
356.448	39.31
356.578	32.31
356.708	33.31
356.838	37.31
356.968	40.31
357.098	41.31
357.228	41.31
357.358	24.31
357.488	36.31
357.618	48.31
357.748	48.31
357.878	28.31
358.008	15.31
358.138	19.31
358.268	30.31
358.398	49.31
358.528	11.31
358.658	36.31
358.788	38.31
358.918	46.31
359.048	35.31
359.178	49.31
359.308	38.31
359.438	52.31
359.568	43.31
359.698	45.31
359.827	40.31
359.957	45.31
360.087	33.31
360.217	26.31
360.347	48.31
360.477	44.31
360.607	33.31
360.737	42.31
360.866	31.31
360.996	12.31
361.126	17.31
361.256	47.31
361.386	39.31
361.516	46.31
361.645	8.31
361.775	42.31
361.905	24.31
362.035	55.31
362.165	43.31
362.294	36.31
362.424	46.31
362.554	51.31
362.684	36.31
362.813	51.31
362.943	70.31
363.073	64.31
363.203	53.31
363.332	86.31
363.462	99.31
363.592	105.31
363.721	120.31
363.851	175.31
363.981	209.31
364.111	251.31
364.24	322.31
364.37	504.31
364.5	840.31
364.629	1815.31
364.759	3880.31
364.888	6234.31
365.018	9368.31
365.148	14803.31
365.277	13036.31
365.407	4756.31
365.537	3125.31
365.666	4080.31
365.796	1839.31
365.925	798.31
366.055	780.31
366.184	1036.31
366.314	1374.31
366.444	2490.31
366.573	2098.31
366.703	663.31
366.832	204.31
366.962	112.31
367.091	104.31
367.221	96.31
367.35	55.31
367.48	82.31
367.609	60.31
367.739	59.31
367.868	33.31
367.998	45.31
368.127	66.31
368.257	48.31
368.386	58.31
368.516	53.31
368.645	51.31
368.775	61.31
368.904	44.31
369.033	34.31
369.163	53.31
369.292	56.31
369.422	45.31
369.551	46.31
369.68	50.31
369.81	49.31
369.939	37.31
370.069	63.31
370.198	61.31
370.327	24.31
370.457	43.31
370.586	53.31
370.715	37.31
370.845	41.31
370.974	60.31
371.103	55.31
371.233	55.31
371.362	47.31
371.491	47.31
371.621	52.31
371.75	47.31
371.879	41.31
372.008	44.31
372.138	58.31
372.267	69.31
372.396	70.31
372.525	38.31
372.655	30.31
372.784	30.31
372.913	37.31
373.042	46.31
373.172	55.31
373.301	5.31
373.43	15.31
373.559	24.31
373.688	36.31
373.818	47.31
373.947	37.31
374.076	8.31
374.205	43.31
374.334	30.31
374.463	5.31
374.593	16.31
374.722	36.31
374.851	32.31
374.98	10.31
375.109	26.31
375.238	24.31
375.367	39.31
375.496	19.31
375.625	19.31
375.755	32.31
375.884	42.31
376.013	37.31
376.142	18.31
376.271	20.31
376.4	31.31
376.529	11.31
376.658	31.31
376.787	44.31
376.916	39.31
377.045	35.31
377.174	33.31
377.303	21.31
377.432	38.31
377.561	33.31
377.69	33.31
377.819	37.31
377.948	41.31
378.077	33.31
378.206	22.31
378.335	31.31
378.464	19.31
378.593	46.31
378.722	15.31
378.851	12.31
378.98	28.31
379.108	21.31
379.237	20.31
379.366	16.31
379.495	39.31
379.624	13.31
379.753	8.31
379.882	15.31
380.011	11.31
380.14	7.31
380.268	25.31
380.397	15.31
380.526	45.31
380.655	8.31
380.784	9.31
380.913	30.31
381.041	20.31
381.17	7.31
381.299	20.31
381.428	38.31
381.557	26.31
381.685	10.31
381.814	35.31
381.943	32.31
382.072	14.31
382.2	11.31
382.329	19.31
382.458	13.31
382.587	26.31
382.715	39.31
382.844	20.31
382.973	30.31
383.102	31.31
383.23	17.31
383.359	8.31
383.488	26.31
383.616	3.31
383.745	25.31
383.874	26.31
384.003	31.31
384.131	-6.69
384.26	19.31
384.389	8.31
384.517	13.31
384.646	11.31
384.774	18.31
384.903	34.31
385.032	27.31
385.16	17.31
385.289	26.31
385.418	14.31
385.546	24.31
385.675	29.31
385.803	18.31
385.932	8.31
386.06	9.31
386.189	22.31
386.318	15.31
386.446	26.31
386.575	32.31
386.703	49.31
386.832	20.31
386.96	17.31
387.089	39.31
387.217	14.31
387.346	15.31
387.474	24.31
387.603	12.31
387.731	40.31
387.86	47.31
387.988	37.31
388.117	35.31
388.245	25.31
388.374	17.31
388.502	36.31
388.631	11.31
388.759	15.31
388.888	21.31
389.016	27.31
389.144	17.31
389.273	34.31
389.401	8.31
389.53	-11.69
389.658	41.31
389.786	10.31
389.915	32.31
390.043	8.31
390.172	13.31
390.3	51.31
390.428	54.31
390.557	26.31
390.685	53.31
390.813	47.31
390.942	37.31
391.07	37.31
391.198	35.31
391.327	20.31
391.455	0.31
391.583	36.31
391.712	31.31
391.84	23.31
391.968	20.31
392.096	15.31
392.225	9.31
392.353	39.31
392.481	13.31
392.609	46.31
392.738	34.31
392.866	33.31
392.994	16.31
393.122	46.31
393.251	37.31
393.379	28.31
393.507	5.31
393.635	44.31
393.764	31.31
393.892	32.31
394.02	16.31
394.148	23.31
394.276	38.31
394.404	56.31
394.533	30.31
394.661	25.31
394.789	59.31
394.917	50.31
395.045	25.31
395.173	31.31
395.302	28.31
395.43	38.31
395.558	31.31
395.686	45.31
395.814	43.31
395.942	20.31
396.07	35.31
396.198	42.31
396.326	52.31
396.454	48.31
396.582	41.31
396.711	33.31
396.839	34.31
396.967	52.31
397.095	28.31
397.223	41.31
397.351	53.31
397.479	43.31
397.607	42.31
397.735	50.31
397.863	48.31
397.991	42.31
398.119	41.31
398.247	50.31
398.375	47.31
398.503	49.31
398.631	53.31
398.759	70.31
398.887	61.31
399.015	47.31
399.143	62.31
399.271	82.31
399.399	84.31
399.526	82.31
399.654	94.31
399.782	63.31
399.91	102.31
400.038	102.31
400.166	97.31
400.294	95.31
400.422	90.31
400.55	131.31
400.678	117.31
400.805	121.31
400.933	120.31
401.061	111.31
401.189	127.31
401.317	151.31
401.445	117.31
401.573	84.31
401.7	51.31
401.828	54.31
401.956	57.31
402.084	44.31
402.212	43.31
402.34	42.31
402.467	41.31
402.595	53.31
402.723	59.31
402.851	94.31
402.978	78.31
403.106	95.31
403.234	104.31
403.362	125.31
403.489	141.31
403.617	161.31
403.745	191.31
403.873	294.31
404	567.31
404.128	1441.31
404.256	3898.31
404.384	5138.31
404.511	5424.31
404.639	7134.31
404.767	11437.31
404.894	14619.31
405.022	4923.31
405.15	1297.31
405.277	420.31
405.405	228.31
405.533	124.31
405.66	99.31
405.788	67.31
405.916	86.31
406.043	52.31
406.171	76.31
406.299	56.31
406.426	77.31
406.554	63.31
406.681	73.31
406.809	55.31
406.937	79.31
407.064	59.31
407.192	117.31
407.319	296.31
407.447	514.31
407.574	564.31
407.702	633.31
407.83	837.31
407.957	1590.31
408.085	945.31
408.212	283.31
408.34	115.31
408.467	74.31
408.595	53.31
408.722	41.31
408.85	49.31
408.977	31.31
409.105	36.31
409.232	55.31
409.36	39.31
409.487	41.31
409.615	31.31
409.742	34.31
409.87	33.31
409.997	53.31
410.125	35.31
410.252	38.31
410.379	46.31
410.507	37.31
410.634	30.31
410.762	31.31
410.889	46.31
411.017	36.31
411.144	50.31
411.271	48.31
411.399	35.31
411.526	38.31
411.653	35.31
411.781	42.31
411.908	42.31
412.036	14.31
412.163	54.31
412.29	38.31
412.418	33.31
412.545	27.31
412.672	20.31
412.8	51.31
412.927	36.31
413.054	34.31
413.182	32.31
413.309	30.31
413.436	22.31
413.564	27.31
413.691	35.31
413.818	60.31
413.945	19.31
414.073	34.31
414.2	58.31
414.327	37.31
414.454	36.31
414.582	36.31
414.709	37.31
414.836	32.31
414.963	30.31
415.091	39.31
415.218	35.31
415.345	43.31
415.472	36.31
415.6	34.31
415.727	47.31
415.854	18.31
415.981	36.31
416.108	39.31
416.236	24.31
416.363	19.31
416.49	27.31
416.617	35.31
416.744	56.31
416.871	57.31
416.998	30.31
417.126	34.31
417.253	30.31
417.38	24.31
417.507	17.31
417.634	38.31
417.761	45.31
417.888	31.31
418.015	31.31
418.143	54.31
418.27	64.31
418.397	50.31
418.524	18.31
418.651	27.31
418.778	43.31
418.905	51.31
419.032	56.31
419.159	40.31
419.286	63.31
419.413	58.31
419.54	48.31
419.667	51.31
419.794	33.31
419.921	50.31
420.048	51.31
420.175	47.31
420.302	27.31
420.429	60.31
420.556	56.31
420.683	66.31
420.81	67.31
420.937	77.31
421.064	72.31
421.191	63.31
421.318	79.31
421.445	77.31
421.572	51.31
421.699	64.31
421.826	51.31
421.953	43.31
422.08	30.31
422.207	16.31
422.334	26.31
422.461	33.31
422.588	28.31
422.714	42.31
422.841	36.31
422.968	20.31
423.095	24.31
423.222	10.31
423.349	35.31
423.476	37.31
423.603	19.31
423.729	7.31
423.856	19.31
423.983	29.31
424.11	39.31
424.237	42.31
424.364	44.31
424.491	23.31
424.617	-2.69
424.744	18.31
424.871	22.31
424.998	32.31
425.125	26.31
425.251	27.31
425.378	30.31
425.505	38.31
425.632	41.31
425.758	21.31
425.885	39.31
426.012	31.31
426.139	41.31
426.266	33.31
426.392	20.31
426.519	38.31
426.646	30.31
426.772	38.31
426.899	33.31
427.026	22.31
427.153	29.31
427.279	40.31
427.406	24.31
427.533	18.31
427.659	13.31
427.786	28.31
427.913	31.31
428.039	25.31
428.166	25.31
428.293	32.31
428.419	47.31
428.546	31.31
428.673	18.31
428.799	33.31
428.926	32.31
429.053	56.31
429.179	41.31
429.306	28.31
429.433	44.31
429.559	69.31
429.686	26.31
429.812	17.31
429.939	32.31
430.066	53.31
430.192	19.31
430.319	44.31
430.445	31.31
430.572	20.31
430.699	25.31
430.825	18.31
430.952	27.31
431.078	27.31
431.205	27.31
431.331	42.31
431.458	51.31
431.584	33.31
431.711	17.31
431.837	24.31
431.964	31.31
432.09	45.31
432.217	32.31
432.343	35.31
432.47	52.31
432.596	46.31
432.723	22.31
432.849	25.31
432.976	43.31
433.102	33.31
433.229	27.31
433.355	62.31
433.482	97.31
433.608	96.31
433.735	101.31
433.861	135.31
433.987	165.31
434.114	209.31
434.24	195.31
434.367	232.31
434.493	232.31
434.62	285.31
434.746	416.31
434.872	641.31
434.999	826.31
435.125	1679.31
435.252	5518.31
435.378	13386.31
435.504	15178.31
435.631	15412.31
435.757	15689.31
435.883	15689.31
436.01	15689.31
436.136	15689.31
436.262	15689.31
436.389	3457.31
436.515	2148.31
436.641	799.31
436.768	657.31
436.894	403.31
437.02	406.31
437.147	289.31
437.273	300.31
437.399	199.31
437.526	239.31
437.652	190.31
437.778	209.31
437.904	153.31
438.031	175.31
438.157	143.31
438.283	143.31
438.409	108.31
438.536	135.31
438.662	121.31
438.788	125.31
438.914	129.31
439.041	119.31
439.167	109.31
439.293	97.31
439.419	102.31
439.546	117.31
439.672	96.31
439.798	89.31
439.924	83.31
440.05	90.31
440.177	97.31
440.303	85.31
440.429	78.31
440.555	74.31
440.681	54.31
440.807	93.31
440.934	74.31
441.06	69.31
441.186	57.31
441.312	84.31
441.438	70.31
441.564	56.31
441.69	67.31
441.816	38.31
441.943	51.31
442.069	64.31
442.195	51.31
442.321	49.31
442.447	40.31
442.573	55.31
442.699	38.31
442.825	59.31
442.951	49.31
443.077	63.31
443.203	62.31
443.33	55.31
443.456	44.31
443.582	50.31
443.708	41.31
443.834	55.31
443.96	54.31
444.086	54.31
444.212	65.31
444.338	64.31
444.464	59.31
444.59	64.31
444.716	41.31
444.842	47.31
444.968	30.31
445.094	45.31
445.22	60.31
445.346	32.31
445.472	32.31
445.598	30.31
445.724	34.31
445.85	31.31
445.976	38.31
446.102	53.31
446.228	60.31
446.354	48.31
446.48	21.31
446.605	47.31
446.731	41.31
446.857	36.31
446.983	44.31
447.109	36.31
447.235	36.31
447.361	41.31
447.487	60.31
447.613	53.31
447.739	39.31
447.865	38.31
447.99	44.31
448.116	47.31
448.242	37.31
448.368	39.31
448.494	43.31
448.62	53.31
448.746	31.31
448.872	41.31
448.997	30.31
449.123	34.31
449.249	55.31
449.375	38.31
449.501	32.31
449.627	40.31
449.752	43.31
449.878	29.31
450.004	22.31
450.13	35.31
450.256	16.31
450.381	42.31
450.507	37.31
450.633	39.31
450.759	43.31
450.884	30.31
451.01	44.31
451.136	21.31
451.262	50.31
451.388	33.31
451.513	42.31
451.639	40.31
451.765	46.31
451.89	52.31
452.016	43.31
452.142	31.31
452.268	37.31
452.393	44.31
452.519	21.31
452.645	30.31
452.771	46.31
452.896	27.31
453.022	19.31
453.148	44.31
453.273	46.31
453.399	36.31
453.525	26.31
453.65	23.31
453.776	28.31
453.902	45.31
454.027	46.31
454.153	61.31
454.279	50.31
454.404	18.31
454.53	32.31
454.656	36.31
454.781	20.31
454.907	28.31
455.032	16.31
455.158	46.31
455.284	48.31
455.409	32.31
455.535	49.31
455.66	52.31
455.786	54.31
455.912	26.31
456.037	10.31
456.163	32.31
456.288	29.31
456.414	25.31
456.539	18.31
456.665	41.31
456.791	33.31
456.916	32.31
457.042	19.31
457.167	21.31
457.293	34.31
457.418	30.31
457.544	16.31
457.669	28.31
457.795	28.31
457.92	25.31
458.046	42.31
458.171	41.31
458.297	36.31
458.422	22.31
458.548	34.31
458.673	38.31
458.799	19.31
458.924	-1.69
459.05	36.31
459.175	26.31
459.301	15.31
459.426	26.31
459.552	21.31
459.677	40.31
459.803	47.31
459.928	34.31
460.053	27.31
460.179	45.31
460.304	68.31
460.43	25.31
460.555	40.31
460.681	21.31
460.806	26.31
460.931	28.31
461.057	38.31
461.182	24.31
461.308	21.31
461.433	45.31
461.558	11.31
461.684	32.31
461.809	34.31
461.934	27.31
462.06	45.31
462.185	26.31
462.311	23.31
462.436	24.31
462.561	16.31
462.687	40.31
462.812	34.31
462.937	43.31
463.063	26.31
463.188	29.31
463.313	44.31
463.439	27.31
463.564	23.31
463.689	25.31
463.814	27.31
463.94	29.31
464.065	51.31
464.19	28.31
464.316	34.31
464.441	40.31
464.566	46.31
464.692	24.31
464.817	23.31
464.942	25.31
465.067	26.31
465.193	-2.69
465.318	18.31
465.443	32.31
465.568	38.31
465.694	25.31
465.819	50.31
465.944	16.31
466.069	38.31
466.194	29.31
466.32	31.31
466.445	29.31
466.57	49.31
466.695	22.31
466.82	29.31
466.946	51.31
467.071	42.31
467.196	28.31
467.321	33.31
467.446	42.31
467.572	28.31
467.697	34.31
467.822	52.31
467.947	52.31
468.072	34.31
468.197	25.31
468.323	29.31
468.448	49.31
468.573	26.31
468.698	46.31
468.823	31.31
468.948	46.31
469.073	42.31
469.198	40.31
469.324	58.31
469.449	47.31
469.574	47.31
469.699	58.31
469.824	51.31
469.949	47.31
470.074	37.31
470.199	54.31
470.324	35.31
470.449	36.31
470.574	32.31
470.7	27.31
470.825	47.31
470.95	58.31
471.075	39.31
471.2	40.31
471.325	63.31
471.45	45.31
471.575	31.31
471.7	45.31
471.825	27.31
471.95	30.31
472.075	29.31
472.2	45.31
472.325	34.31
472.45	32.31
472.575	39.31
472.7	26.31
472.825	48.31
472.95	55.31
473.075	69.31
473.2	35.31
473.325	40.31
473.45	37.31
473.575	47.31
473.7	49.31
473.825	40.31
473.95	40.31
474.075	54.31
474.2	39.31
474.325	6.31
474.45	40.31
474.574	28.31
474.699	24.31
474.824	37.31
474.949	15.31
475.074	28.31
475.199	58.31
475.324	48.31
475.449	37.31
475.574	31.31
475.699	36.31
475.824	31.31
475.949	40.31
476.073	27.31
476.198	35.31
476.323	41.31
476.448	28.31
476.573	30.31
476.698	41.31
476.823	37.31
476.947	30.31
477.072	41.31
477.197	19.31
477.322	6.31
477.447	5.31
477.572	34.31
477.697	35.31
477.821	27.31
477.946	35.31
478.071	37.31
478.196	44.31
478.321	16.31
478.445	19.31
478.57	32.31
478.695	23.31
478.82	29.31
478.945	29.31
479.069	17.31
479.194	10.31
479.319	33.31
479.444	41.31
479.569	29.31
479.693	29.31
479.818	23.31
479.943	18.31
480.068	21.31
480.192	25.31
480.317	26.31
480.442	23.31
480.567	10.31
480.691	36.31
480.816	40.31
480.941	28.31
481.066	20.31
481.19	24.31
481.315	33.31
481.44	16.31
481.564	16.31
481.689	32.31
481.814	15.31
481.938	22.31
482.063	16.31
482.188	24.31
482.313	25.31
482.437	8.31
482.562	3.31
482.687	30.31
482.811	40.31
482.936	21.31
483.061	23.31
483.185	14.31
483.31	27.31
483.435	26.31
483.559	22.31
483.684	30.31
483.808	42.31
483.933	15.31
484.058	31.31
484.182	37.31
484.307	32.31
484.432	29.31
484.556	31.31
484.681	41.31
484.805	29.31
484.93	34.31
485.055	25.31
485.179	62.31
485.304	31.31
485.428	23.31
485.553	20.31
485.678	29.31
485.802	30.31
485.927	46.31
486.051	42.31
486.176	19.31
486.3	27.31
486.425	20.31
486.549	35.31
486.674	30.31
486.799	22.31
486.923	19.31
487.048	23.31
487.172	10.31
487.297	22.31
487.421	31.31
487.546	20.31
487.67	35.31
487.795	21.31
487.919	26.31
488.044	40.31
488.168	53.31
488.293	15.31
488.417	14.31
488.542	19.31
488.666	28.31
488.791	37.31
488.915	38.31
489.04	44.31
489.164	29.31
489.289	32.31
489.413	15.31
489.538	29.31
489.662	40.31
489.786	14.31
489.911	35.31
490.035	20.31
490.16	40.31
490.284	8.31
490.409	12.31
490.533	20.31
490.658	59.31
490.782	35.31
490.906	50.31
491.031	119.31
491.155	133.31
491.28	162.31
491.404	173.31
491.528	244.31
491.653	159.31
491.777	88.31
491.902	29.31
492.026	30.31
492.15	27.31
492.275	27.31
492.399	18.31
492.524	7.31
492.648	37.31
492.772	39.31
492.897	45.31
493.021	20.31
493.145	23.31
493.27	29.31
493.394	12.31
493.518	28.31
493.643	14.31
493.767	35.31
493.891	26.31
494.016	24.31
494.14	26.31
494.264	38.31
494.389	41.31
494.513	19.31
494.637	7.31
494.762	35.31
494.886	32.31
495.01	29.31
495.134	28.31
495.259	38.31
495.383	39.31
495.507	24.31
495.632	49.31
495.756	57.31
495.88	33.31
496.004	36.31
496.129	41.31
496.253	43.31
496.377	40.31
496.501	51.31
496.626	10.31
496.75	24.31
496.874	22.31
496.998	5.31
497.123	40.31
497.247	27.31
497.371	26.31
497.495	22.31
497.62	15.31
497.744	34.31
497.868	24.31
497.992	18.31
498.116	19.31
498.241	39.31
498.365	21.31
498.489	10.31
498.613	38.31
498.737	23.31
498.862	45.31
498.986	-3.69
499.11	39.31
499.234	36.31
499.358	20.31
499.482	35.31
499.607	28.31
499.731	39.31
499.855	47.31
499.979	40.31
500.103	27.31
500.227	21.31
500.351	31.31
500.476	11.31
500.6	39.31
500.724	36.31
500.848	43.31
500.972	36.31
501.096	19.31
501.22	46.31
501.344	32.31
501.469	31.31
501.593	30.31
501.717	36.31
501.841	40.31
501.965	22.31
502.089	32.31
502.213	42.31
502.337	22.31
502.461	27.31
502.585	30.31
502.709	31.31
502.834	32.31
502.958	22.31
503.082	24.31
503.206	12.31
503.33	25.31
503.454	12.31
503.578	38.31
503.702	40.31
503.826	31.31
503.95	24.31
504.074	15.31
504.198	21.31
504.322	13.31
504.446	13.31
504.57	43.31
504.694	40.31
504.818	35.31
504.942	32.31
505.066	38.31
505.19	23.31
505.314	40.31
505.438	22.31
505.562	27.31
505.686	28.31
505.81	38.31
505.934	28.31
506.058	17.31
506.182	33.31
506.306	35.31
506.43	36.31
506.554	36.31
506.678	23.31
506.802	27.31
506.926	34.31
507.05	40.31
507.174	44.31
507.298	33.31
507.422	16.31
507.546	33.31
507.67	53.31
507.794	25.31
507.918	28.31
508.042	41.31
508.165	16.31
508.289	20.31
508.413	28.31
508.537	19.31
508.661	34.31
508.785	32.31
508.909	25.31
509.033	39.31
509.157	42.31
509.281	29.31
509.405	48.31
509.528	60.31
509.652	50.31
509.776	27.31
509.9	51.31
510.024	20.31
510.148	42.31
510.272	42.31
510.396	46.31
510.519	35.31
510.643	48.31
510.767	48.31
510.891	42.31
511.015	31.31
511.139	35.31
511.263	62.31
511.386	47.31
511.51	33.31
511.634	30.31
511.758	27.31
511.882	38.31
512.006	42.31
512.129	65.31
512.253	108.31
512.377	92.31
512.501	88.31
512.625	74.31
512.748	75.31
512.872	85.31
512.996	63.31
513.12	74.31
513.244	40.31
513.367	80.31
513.491	69.31
513.615	61.31
513.739	69.31
513.862	93.31
513.986	91.31
514.11	98.31
514.234	99.31
514.358	106.31
514.481	115.31
514.605	103.31
514.729	104.31
514.853	108.31
514.976	102.31
515.1	101.31
515.224	113.31
515.348	96.31
515.471	93.31
515.595	110.31
515.719	132.31
515.842	240.31
515.966	256.31
516.09	297.31
516.214	300.31
516.337	331.31
516.461	232.31
516.585	110.31
516.708	48.31
516.832	55.31
516.956	29.31
517.08	49.31
517.203	0.31
517.327	16.31
517.451	36.31
517.574	50.31
517.698	12.31
517.822	37.31
517.945	36.31
518.069	34.31
518.193	59.31
518.316	37.31
518.44	26.31
518.564	11.31
518.687	33.31
518.811	36.31
518.935	60.31
519.058	35.31
519.182	40.31
519.306	32.31
519.429	26.31
519.553	56.31
519.676	43.31
519.8	30.31
519.924	20.31
520.047	21.31
520.171	24.31
520.294	23.31
520.418	40.31
520.542	31.31
520.665	39.31
520.789	29.31
520.913	25.31
521.036	3.31
521.16	23.31
521.283	20.31
521.407	23.31
521.53	2.31
521.654	7.31
521.778	31.31
521.901	17.31
522.025	10.31
522.148	7.31
522.272	38.31
522.395	8.31
522.519	39.31
522.643	30.31
522.766	18.31
522.89	19.31
523.013	19.31
523.137	20.31
523.26	18.31
523.384	8.31
523.507	28.31
523.631	21.31
523.754	8.31
523.878	26.31
524.002	24.31
524.125	21.31
524.249	-1.69
524.372	23.31
524.496	30.31
524.619	34.31
524.743	24.31
524.866	21.31
524.99	15.31
525.113	16.31
525.237	38.31
525.36	41.31
525.484	32.31
525.607	8.31
525.731	-2.69
525.854	20.31
525.978	37.31
526.101	16.31
526.224	16.31
526.348	20.31
526.471	24.31
526.595	23.31
526.718	25.31
526.842	16.31
526.965	28.31
527.089	28.31
527.212	33.31
527.336	20.31
527.459	33.31
527.582	18.31
527.706	30.31
527.829	17.31
527.953	29.31
528.076	14.31
528.2	29.31
528.323	26.31
528.446	43.31
528.57	15.31
528.693	30.31
528.817	13.31
528.94	48.31
529.064	52.31
529.187	22.31
529.31	12.31
529.434	23.31
529.557	21.31
529.68	23.31
529.804	27.31
529.927	33.31
530.051	11.31
530.174	16.31
530.297	20.31
530.421	35.31
530.544	36.31
530.668	30.31
530.791	18.31
530.914	32.31
531.038	31.31
531.161	8.31
531.284	14.31
531.408	33.31
531.531	23.31
531.654	10.31
531.778	26.31
531.901	29.31
532.024	29.31
532.148	11.31
532.271	34.31
532.394	23.31
532.518	32.31
532.641	42.31
532.764	17.31
532.888	18.31
533.011	5.31
533.134	13.31
533.258	22.31
533.381	16.31
533.504	36.31
533.628	27.31
533.751	25.31
533.874	21.31
533.997	20.31
534.121	46.31
534.244	12.31
534.367	-6.69
534.491	30.31
534.614	20.31
534.737	37.31
534.86	37.31
534.984	24.31
535.107	27.31
535.23	39.31
535.354	26.31
535.477	12.31
535.6	15.31
535.723	14.31
535.847	31.31
535.97	20.31
536.093	18.31
536.216	8.31
536.34	23.31
536.463	19.31
536.586	33.31
536.709	22.31
536.833	26.31
536.956	37.31
537.079	2.31
537.202	32.31
537.325	27.31
537.449	0.31
537.572	24.31
537.695	18.31
537.818	23.31
537.941	34.31
538.065	14.31
538.188	16.31
538.311	46.31
538.434	34.31
538.558	25.31
538.681	34.31
538.804	33.31
538.927	23.31
539.05	16.31
539.173	24.31
539.297	18.31
539.42	14.31
539.543	23.31
539.666	40.31
539.789	18.31
539.913	13.31
540.036	33.31
540.159	42.31
540.282	27.31
540.405	21.31
540.528	28.31
540.651	17.31
540.775	28.31
540.898	50.31
541.021	32.31
541.144	53.31
541.267	42.31
541.39	36.31
541.513	49.31
541.637	36.31
541.76	38.31
541.883	43.31
542.006	43.31
542.129	60.31
542.252	46.31
542.375	47.31
542.498	52.31
542.622	56.31
542.745	56.31
542.868	60.31
542.991	59.31
543.114	60.31
543.237	53.31
543.36	71.31
543.483	62.31
543.606	72.31
543.73	88.31
543.853	91.31
543.976	85.31
544.099	116.31
544.222	147.31
544.345	144.31
544.468	190.31
544.591	229.31
544.714	265.31
544.837	357.31
544.96	443.31
545.083	650.31
545.206	1076.31
545.329	2460.31
545.453	10912.31
545.576	15258.31
545.699	15689.31
545.822	15689.31
545.945	15689.31
546.068	15689.31
546.191	15689.31
546.314	15689.31
546.437	15689.31
546.56	15689.31
546.683	15689.31
546.806	15689.31
546.929	15689.31
547.052	15689.31
547.175	15689.31
547.298	15689.31
547.421	15689.31
547.544	15689.31
547.667	3579.31
547.79	2458.31
547.913	1031.31
548.036	894.31
548.159	629.31
548.282	622.31
548.405	486.31
548.528	504.31
548.651	408.31
548.774	425.31
548.897	365.31
549.02	367.31
549.143	346.31
549.266	295.31
549.389	287.31
549.512	271.31
549.635	270.31
549.758	266.31
549.881	216.31
550.004	242.31
550.127	212.31
550.25	197.31
550.373	170.31
550.496	197.31
550.619	177.31
550.742	161.31
550.865	135.31
550.988	146.31
551.111	145.31
551.234	153.31
551.356	130.31
551.479	142.31
551.602	128.31
551.725	142.31
551.848	149.31
551.971	161.31
552.094	145.31
552.217	114.31
552.34	108.31
552.463	107.31
552.586	102.31
552.709	107.31
552.832	121.31
552.955	100.31
553.077	106.31
553.2	120.31
553.323	103.31
553.446	105.31
553.569	95.31
553.692	113.31
553.815	108.31
553.938	115.31
554.061	92.31
554.184	91.31
554.306	98.31
554.429	107.31
554.552	73.31
554.675	64.31
554.798	94.31
554.921	91.31
555.044	86.31
555.167	65.31
555.29	75.31
555.412	75.31
555.535	92.31
555.658	91.31
555.781	80.31
555.904	89.31
556.027	64.31
556.15	80.31
556.272	80.31
556.395	78.31
556.518	70.31
556.641	75.31
556.764	82.31
556.887	75.31
557.01	85.31
557.132	77.31
557.255	68.31
557.378	75.31
557.501	71.31
557.624	82.31
557.747	75.31
557.869	96.31
557.992	94.31
558.115	111.31
558.238	108.31
558.361	94.31
558.483	107.31
558.606	83.31
558.729	42.31
558.852	86.31
558.975	82.31
559.098	79.31
559.22	57.31
559.343	58.31
559.466	51.31
559.589	51.31
559.712	52.31
559.834	53.31
559.957	60.31
560.08	66.31
560.203	65.31
560.325	57.31
560.448	61.31
560.571	43.31
560.694	52.31
560.817	84.31
560.939	58.31
561.062	76.31
561.185	83.31
561.308	71.31
561.43	63.31
561.553	62.31
561.676	67.31
561.799	74.31
561.921	71.31
562.044	78.31
562.167	67.31
562.29	80.31
562.413	76.31
562.535	67.31
562.658	52.31
562.781	47.31
562.903	71.31
563.026	92.31
563.149	134.31
563.272	125.31
563.394	109.31
563.517	115.31
563.64	66.31
563.763	55.31
563.885	68.31
564.008	60.31
564.131	45.31
564.254	35.31
564.376	58.31
564.499	28.31
564.622	46.31
564.744	45.31
564.867	42.31
564.99	39.31
565.113	60.31
565.235	43.31
565.358	11.31
565.481	28.31
565.603	37.31
565.726	54.31
565.849	48.31
565.971	56.31
566.094	38.31
566.217	48.31
566.34	57.31
566.462	39.31
566.585	27.31
566.708	68.31
566.83	48.31
566.953	52.31
567.076	44.31
567.198	42.31
567.321	44.31
567.444	51.31
567.566	48.31
567.689	24.31
567.812	43.31
567.934	30.31
568.057	37.31
568.18	58.31
568.302	41.31
568.425	30.31
568.548	41.31
568.67	54.31
568.793	35.31
568.916	31.31
569.038	41.31
569.161	41.31
569.283	35.31
569.406	18.31
569.529	34.31
569.651	29.31
569.774	49.31
569.897	49.31
570.019	51.31
570.142	48.31
570.265	48.31
570.387	37.31
570.51	59.31
570.632	48.31
570.755	49.31
570.878	33.31
571	59.31
571.123	36.31
571.246	48.31
571.368	39.31
571.491	31.31
571.613	23.31
571.736	21.31
571.859	25.31
571.981	40.31
572.104	35.31
572.226	28.31
572.349	30.31
572.472	30.31
572.594	42.31
572.717	34.31
572.839	33.31
572.962	47.31
573.085	26.31
573.207	36.31
573.33	36.31
573.452	50.31
573.575	52.31
573.697	30.31
573.82	45.31
573.943	19.31
574.065	50.31
574.188	45.31
574.31	61.31
574.433	44.31
574.555	52.31
574.678	35.31
574.801	48.31
574.923	50.31
575.046	60.31
575.168	29.31
575.291	56.31
575.413	55.31
575.536	46.31
575.659	64.31
575.781	48.31
575.904	58.31
576.026	77.31
576.149	76.31
576.271	122.31
576.394	223.31
576.516	530.31
576.639	3622.31
576.761	10138.31
576.884	8775.31
577.007	8667.31
577.129	7987.31
577.252	3679.31
577.374	1288.31
577.497	529.31
577.619	299.31
577.742	189.31
577.864	169.31
577.987	142.31
578.109	124.31
578.232	125.31
578.354	157.31
578.477	192.31
578.599	387.31
578.722	1975.31
578.844	9086.31
578.967	9724.31
579.089	8733.31
579.212	9063.31
579.334	5275.31
579.457	1961.31
579.579	725.31
579.702	338.31
579.824	202.31
579.947	141.31
580.069	118.31
580.192	66.31
580.314	96.31
580.437	86.31
580.559	93.31
580.682	83.31
580.804	58.31
580.927	64.31
581.049	74.31
581.172	69.31
581.294	68.31
581.417	56.31
581.539	49.31
581.662	62.31
581.784	60.31
581.907	61.31
582.029	56.31
582.152	35.31
582.274	49.31
582.396	52.31
582.519	54.31
582.641	21.31
582.764	44.31
582.886	34.31
583.009	22.31
583.131	42.31
583.254	50.31
583.376	66.31
583.499	58.31
583.621	48.31
583.743	50.31
583.866	52.31
583.988	50.31
584.111	40.31
584.233	58.31
584.356	36.31
584.478	37.31
584.601	11.31
584.723	34.31
584.845	69.31
584.968	22.31
585.09	15.31
585.213	44.31
585.335	40.31
585.458	40.31
585.58	33.31
585.702	34.31
585.825	36.31
585.947	51.31
586.07	25.31
586.192	31.31
586.315	50.31
586.437	33.31
586.559	34.31
586.682	15.31
586.804	31.31
586.927	40.31
587.049	35.31
587.171	51.31
587.294	42.31
587.416	48.31
587.539	60.31
587.661	42.31
587.783	36.31
587.906	11.31
588.028	39.31
588.151	34.31
588.273	60.31
588.395	40.31
588.518	30.31
588.64	28.31
588.763	38.31
588.885	43.31
589.007	42.31
589.13	24.31
589.252	26.31
589.375	30.31
589.497	26.31
589.619	45.31
589.742	39.31
589.864	44.31
589.986	30.31
590.109	36.31
590.231	15.31
590.354	27.31
590.476	21.31
590.598	23.31
590.721	28.31
590.843	27.31
590.965	23.31
591.088	28.31
591.21	35.31
591.332	28.31
591.455	20.31
591.577	18.31
591.7	26.31
591.822	37.31
591.944	31.31
592.067	16.31
592.189	50.31
592.311	36.31
592.434	26.31
592.556	38.31
592.678	41.31
592.801	43.31
592.923	20.31
593.045	31.31
593.168	30.31
593.29	30.31
593.412	52.31
593.535	25.31
593.657	23.31
593.779	30.31
593.902	44.31
594.024	40.31
594.146	39.31
594.269	25.31
594.391	12.31
594.513	39.31
594.636	19.31
594.758	21.31
594.88	37.31
595.003	49.31
595.125	33.31
595.247	35.31
595.37	44.31
595.492	38.31
595.614	41.31
595.737	30.31
595.859	22.31
595.981	36.31
596.104	35.31
596.226	30.31
596.348	27.31
596.471	38.31
596.593	35.31
596.715	28.31
596.838	27.31
596.96	15.31
597.082	20.31
597.204	37.31
597.327	30.31
597.449	16.31
597.571	14.31
597.694	36.31
597.816	29.31
597.938	26.31
598.061	24.31
598.183	33.31
598.305	40.31
598.427	26.31
598.55	23.31
598.672	42.31
598.794	31.31
598.917	27.31
599.039	34.31
599.161	28.31
599.283	33.31
599.406	27.31
599.528	36.31
599.65	44.31
599.773	27.31
599.895	47.31
600.017	56.31
600.139	27.31
600.262	30.31
600.384	31.31
600.506	21.31
600.628	47.31
600.751	38.31
600.873	29.31
600.995	28.31
601.118	29.31
601.24	26.31
601.362	46.31
601.484	44.31
601.607	33.31
601.729	8.31
601.851	28.31
601.973	22.31
602.096	18.31
602.218	31.31
602.34	23.31
602.462	40.31
602.585	21.31
602.707	13.31
602.829	31.31
602.951	34.31
603.074	26.31
603.196	39.31
603.318	24.31
603.44	38.31
603.563	28.31
603.685	26.31
603.807	34.31
603.929	46.31
604.052	30.31
604.174	44.31
604.296	54.31
604.418	39.31
604.541	37.31
604.663	35.31
604.785	19.31
604.907	20.31
605.03	24.31
605.152	58.31
605.274	18.31
605.396	27.31
605.519	24.31
605.641	12.31
605.763	8.31
605.885	16.31
606.008	32.31
606.13	42.31
606.252	31.31
606.374	12.31
606.496	6.31
606.619	28.31
606.741	49.31
606.863	37.31
606.985	43.31
607.108	29.31
607.23	26.31
607.352	23.31
607.474	40.31
607.596	19.31
607.719	19.31
607.841	29.31
607.963	36.31
608.085	24.31
608.207	53.31
608.33	41.31
608.452	19.31
608.574	15.31
608.696	37.31
608.819	34.31
608.941	42.31
609.063	28.31
609.185	13.31
609.307	27.31
609.43	40.31
609.552	33.31
609.674	3.31
609.796	26.31
609.918	28.31
610.041	15.31
610.163	40.31
610.285	41.31
610.407	26.31
610.529	18.31
610.652	29.31
610.774	31.31
610.896	35.31
611.018	26.31
611.14	26.31
611.263	16.31
611.385	27.31
611.507	30.31
611.629	19.31
611.751	42.31
611.873	47.31
611.996	33.31
612.118	26.31
612.24	34.31
612.362	42.31
612.484	33.31
612.607	44.31
612.729	52.31
612.851	45.31
612.973	32.31
613.095	28.31
613.218	26.31
613.34	49.31
613.462	26.31
613.584	39.31
613.706	35.31
613.828	24.31
613.951	35.31
614.073	24.31
614.195	14.31
614.317	24.31
614.439	10.31
614.561	32.31
614.684	30.31
614.806	35.31
614.928	31.31
615.05	20.31
615.172	34.31
615.294	34.31
615.417	37.31
615.539	30.31
615.661	39.31
615.783	43.31
615.905	35.31
616.027	30.31
616.15	35.31
616.272	19.31
616.394	21.31
616.516	20.31
616.638	21.31
616.76	15.31
616.883	26.31
617.005	18.31
617.127	28.31
617.249	35.31
617.371	46.31
617.493	37.31
617.615	45.31
617.738	29.31
617.86	31.31
617.982	31.31
618.104	26.31
618.226	11.31
618.348	13.31
618.471	37.31
618.593	30.31
618.715	18.31
618.837	22.31
618.959	31.31
619.081	34.31
619.203	16.31
619.326	29.31
619.448	28.31
619.57	21.31
619.692	25.31
619.814	35.31
619.936	34.31
620.058	40.31
620.181	26.31
620.303	22.31
620.425	32.31
620.547	20.31
620.669	20.31
620.791	39.31
620.913	14.31
621.036	21.31
621.158	39.31
621.28	37.31
621.402	16.31
621.524	4.31
621.646	27.31
621.768	17.31
621.891	6.31
622.013	35.31
622.135	15.31
622.257	12.31
622.379	12.31
622.501	11.31
622.623	26.31
622.745	26.31
622.868	24.31
622.99	27.31
623.112	15.31
623.234	16.31
623.356	21.31
623.478	19.31
623.6	30.31
623.722	20.31
623.845	27.31
623.967	38.31
624.089	32.31
624.211	26.31
624.333	34.31
624.455	36.31
624.577	26.31
624.699	22.31
624.822	19.31
624.944	17.31
625.066	21.31
625.188	12.31
625.31	18.31
625.432	34.31
625.554	31.31
625.676	39.31
625.799	22.31
625.921	27.31
626.043	36.31
626.165	28.31
626.287	4.31
626.409	32.31
626.531	17.31
626.653	29.31
626.775	24.31
626.898	37.31
627.02	52.31
627.142	43.31
627.264	53.31
627.386	35.31
627.508	24.31
627.63	18.31
627.752	11.31
627.874	23.31
627.997	27.31
628.119	28.31
628.241	23.31
628.363	25.31
628.485	20.31
628.607	27.31
628.729	38.31
628.851	3.31
628.973	22.31
629.096	3.31
629.218	14.31
629.34	23.31
629.462	12.31
629.584	15.31
629.706	21.31
629.828	25.31
629.95	14.31
630.072	-1.69
630.195	9.31
630.317	18.31
630.439	20.31
630.561	42.31
630.683	19.31
630.805	42.31
630.927	22.31
631.049	27.31
631.171	10.31
631.293	28.31
631.416	32.31
631.538	16.31
631.66	18.31
631.782	35.31
631.904	55.31
632.026	28.31
632.148	26.31
632.27	21.31
632.392	27.31
632.514	38.31
632.637	48.31
632.759	13.31
632.881	7.31
633.003	18.31
633.125	6.31
633.247	24.31
633.369	8.31
633.491	26.31
633.613	31.31
633.735	22.31
633.858	27.31
633.98	19.31
634.102	10.31
634.224	19.31
634.346	6.31
634.468	26.31
634.59	26.31
634.712	26.31
634.834	19.31
634.956	-1.69
635.078	4.31
635.201	17.31
635.323	21.31
635.445	6.31
635.567	8.31
635.689	20.31
635.811	11.31
635.933	4.31
636.055	29.31
636.177	12.31
636.299	23.31
636.421	6.31
636.544	15.31
636.666	26.31
636.788	32.31
636.91	38.31
637.032	18.31
637.154	31.31
637.276	43.31
637.398	34.31
637.52	29.31
637.642	36.31
637.764	38.31
637.887	14.31
638.009	22.31
638.131	14.31
638.253	12.31
638.375	33.31
638.497	29.31
638.619	12.31
638.741	18.31
638.863	23.31
638.985	5.31
639.107	10.31
639.23	20.31
639.352	23.31
639.474	26.31
639.596	8.31
639.718	6.31
639.84	34.31
639.962	8.31
640.084	42.31
640.206	30.31
640.328	4.31
640.45	16.31
640.573	10.31
640.695	-1.69
640.817	26.31
640.939	29.31
641.061	23.31
641.183	15.31
641.305	8.31
641.427	2.31
641.549	24.31
641.671	33.31
641.793	29.31
641.915	30.31
642.038	18.31
642.16	31.31
642.282	27.31
642.404	10.31
642.526	10.31
642.648	12.31
642.77	35.31
642.892	21.31
643.014	41.31
643.136	28.31
643.258	19.31
643.381	52.31
643.503	29.31
643.625	32.31
643.747	6.31
643.869	6.31
643.991	29.31
644.113	28.31
644.235	16.31
644.357	30.31
644.479	26.31
644.601	28.31
644.723	11.31
644.846	30.31
644.968	15.31
645.09	22.31
645.212	22.31
645.334	36.31
645.456	30.31
645.578	22.31
645.7	28.31
645.822	40.31
645.944	14.31
646.066	31.31
646.188	11.31
646.311	28.31
646.433	14.31
646.555	36.31
646.677	23.31
646.799	24.31
646.921	7.31
647.043	39.31
647.165	9.31
647.287	26.31
647.409	12.31
647.531	32.31
647.654	5.31
647.776	35.31
647.898	32.31
648.02	7.31
648.142	4.31
648.264	19.31
648.386	15.31
648.508	4.31
648.63	10.31
648.752	30.31
648.874	21.31
648.997	24.31
649.119	44.31
649.241	26.31
649.363	23.31
649.485	22.31
649.607	7.31
649.729	5.31
649.851	22.31
649.973	19.31
650.095	34.31
650.217	20.31
650.34	1.31
650.462	18.31
650.584	17.31
650.706	20.31
650.828	17.31
650.95	-8.69
651.072	30.31
651.194	16.31
651.316	16.31
651.438	17.31
651.56	10.31
651.683	7.31
651.805	23.31
651.927	20.31
652.049	9.31
652.171	18.31
652.293	17.31
652.415	1.31
652.537	20.31
652.659	-6.69
652.781	31.31
652.903	26.31
653.026	33.31
653.148	21.31
653.27	18.31
653.392	32.31
653.514	16.31
653.636	23.31
653.758	11.31
653.88	-0.69
654.002	15.31
654.124	23.31
654.247	11.31
654.369	38.31
654.491	16.31
654.613	20.31
654.735	5.31
654.857	30.31
654.979	33.31
655.101	22.31
655.223	39.31
655.345	18.31
655.468	18.31
655.59	11.31
655.712	17.31
655.834	10.31
655.956	26.31
656.078	14.31
656.2	27.31
656.322	13.31
656.444	-1.69
656.566	24.31
656.689	19.31
656.811	14.31
656.933	43.31
657.055	-7.69
657.177	21.31
657.299	12.31
657.421	18.31
657.543	33.31
657.665	14.31
657.787	14.31
657.91	23.31
658.032	8.31
658.154	6.31
658.276	8.31
658.398	-4.69
658.52	30.31
658.642	18.31
658.764	13.31
658.886	1.31
659.009	18.31
659.131	33.31
659.253	20.31
659.375	14.31
659.497	4.31
659.619	35.31
659.741	8.31
659.863	17.31
659.985	15.31
660.108	18.31
660.23	-5.69
660.352	21.31
660.474	37.31
660.596	36.31
660.718	24.31
660.84	7.31
660.962	13.31
661.084	-0.69
661.207	20.31
661.329	18.31
661.451	0.31
661.573	12.31
661.695	16.31
661.817	17.31
661.939	19.31
662.061	39.31
662.184	16.31
662.306	19.31
662.428	37.31
662.55	38.31
662.672	40.31
662.794	37.31
662.916	30.31
663.038	10.31
663.161	18.31
663.283	21.31
663.405	18.31
663.527	24.31
663.649	24.31
663.771	19.31
663.893	3.31
664.015	27.31
664.138	10.31
664.26	16.31
664.382	13.31
664.504	19.31
664.626	7.31
664.748	20.31
664.87	-5.69
664.992	19.31
665.115	36.31
665.237	20.31
665.359	11.31
665.481	21.31
665.603	25.31
665.725	8.31
665.847	17.31
665.97	17.31
666.092	30.31
666.214	24.31
666.336	17.31
666.458	12.31
666.58	23.31
666.702	10.31
666.825	14.31
666.947	17.31
667.069	15.31
667.191	18.31
667.313	26.31
667.435	-4.69
667.557	-8.69
667.68	7.31
667.802	21.31
667.924	8.31
668.046	13.31
668.168	27.31
668.29	31.31
668.412	18.31
668.535	24.31
668.657	7.31
668.779	20.31
668.901	18.31
669.023	20.31
669.145	15.31
669.267	19.31
669.39	10.31
669.512	16.31
669.634	29.31
669.756	-4.69
669.878	25.31
670	27.31
670.123	36.31
670.245	39.31
670.367	38.31
670.489	32.31
670.611	23.31
670.733	4.31
670.856	10.31
670.978	19.31
671.1	26.31
671.222	16.31
671.344	26.31
671.466	-0.69
671.589	18.31
671.711	24.31
671.833	22.31
671.955	11.31
672.077	23.31
672.199	37.31
672.322	28.31
672.444	8.31
672.566	29.31
672.688	8.31
672.81	14.31
672.932	34.31
673.055	4.31
673.177	0.31
673.299	17.31
673.421	2.31
673.543	14.31
673.665	35.31
673.788	35.31
673.91	0.31
674.032	-3.69
674.154	11.31
674.276	20.31
674.399	10.31
674.521	17.31
674.643	31.31
674.765	14.31
674.887	25.31
675.009	10.31
675.132	1.31
675.254	0.31
675.376	18.31
675.498	21.31
675.62	18.31
675.743	19.31
675.865	26.31
675.987	16.31
676.109	18.31
676.231	43.31
676.354	37.31
676.476	15.31
676.598	8.31
676.72	5.31
676.842	24.31
676.965	10.31
677.087	12.31
677.209	34.31
677.331	18.31
677.453	6.31
677.576	15.31
677.698	16.31
677.82	26.31
677.942	26.31
678.064	10.31
678.187	16.31
678.309	8.31
678.431	24.31
678.553	-0.69
678.675	46.31
678.798	23.31
678.92	15.31
679.042	26.31
679.164	22.31
679.286	31.31
679.409	24.31
679.531	-8.69
679.653	15.31
679.775	9.31
679.898	11.31
680.02	14.31
680.142	16.31
680.264	24.31
680.386	11.31
680.509	11.31
680.631	20.31
680.753	22.31
680.875	14.31
680.998	26.31
681.12	-0.69
681.242	16.31
681.364	3.31
681.486	-0.69
681.609	-7.69
681.731	-8.69
681.853	0.31
681.975	4.31
682.098	27.31
682.22	33.31
682.342	18.31
682.464	26.31
682.587	8.31
682.709	19.31
682.831	8.31
682.953	18.31
683.076	34.31
683.198	20.31
683.32	25.31
683.442	14.31
683.565	17.31
683.687	14.31
683.809	20.31
683.931	6.31
684.054	28.31
684.176	22.31
684.298	27.31
684.42	7.31
684.543	26.31
684.665	15.31
684.787	-1.69
684.909	11.31
685.032	26.31
685.154	7.31
685.276	43.31
685.398	23.31
685.521	-0.69
685.643	12.31
685.765	15.31
685.887	32.31
686.01	21.31
686.132	3.31
686.254	30.31
686.377	16.31
686.499	14.31
686.621	26.31
686.743	11.31
686.866	12.31
686.988	26.31
687.11	27.31
687.232	12.31
687.355	6.31
687.477	24.31
687.599	23.31
687.722	10.31
687.844	14.31
687.966	26.31
688.088	12.31
688.211	25.31
688.333	28.31
688.455	14.31
688.578	23.31
688.7	33.31
688.822	18.31
688.944	16.31
689.067	51.31
689.189	20.31
689.311	4.31
689.434	-4.69
689.556	0.31
689.678	21.31
689.801	0.31
689.923	25.31
690.045	34.31
690.167	33.31
690.29	11.31
690.412	12.31
690.534	36.31
690.657	22.31
690.779	12.31
690.901	38.31
691.024	18.31
691.146	23.31
691.268	-2.69
691.391	18.31
691.513	38.31
691.635	37.31
691.758	42.31
691.88	14.31
692.002	9.31
692.125	22.31
692.247	14.31
692.369	1.31
692.492	3.31
692.614	23.31
692.736	13.31
692.859	7.31
692.981	8.31
693.103	25.31
693.226	28.31
693.348	44.31
693.47	18.31
693.593	36.31
693.715	27.31
693.837	51.31
693.96	37.31
694.082	14.31
694.204	44.31
694.327	20.31
694.449	10.31
694.571	17.31
694.694	23.31
694.816	21.31
694.938	10.31
695.061	11.31
695.183	25.31
695.305	27.31
695.428	12.31
695.55	14.31
695.672	12.31
695.795	24.31
695.917	31.31
696.04	11.31
696.162	26.31
696.284	8.31
696.407	5.31
696.529	20.31
696.651	26.31
696.774	14.31
696.896	35.31
697.019	34.31
697.141	19.31
697.263	14.31
697.386	18.31
697.508	0.31
697.63	20.31
697.753	12.31
697.875	6.31
697.998	5.31
698.12	26.31
698.242	21.31
698.365	14.31
698.487	13.31
698.61	11.31
698.732	24.31
698.854	25.31
698.977	27.31
699.099	25.31
699.221	11.31
699.344	27.31
699.466	27.31
699.589	18.31
699.711	6.31
699.834	20.31
699.956	18.31
700.078	27.31
700.201	17.31
700.323	22.31
700.446	24.31
700.568	10.31
700.69	40.31
700.813	41.31
700.935	7.31
701.058	24.31
701.18	19.31
701.302	11.31
701.425	18.31
701.547	19.31
701.67	33.31
701.792	7.31
701.915	-5.69
702.037	8.31
702.159	23.31
702.282	15.31
702.404	9.31
702.527	17.31
702.649	57.31
702.772	21.31
702.894	11.31
703.017	20.31
703.139	26.31
703.261	23.31
703.384	32.31
703.506	13.31
703.629	15.31
703.751	14.31
703.874	6.31
703.996	14.31
704.119	-8.69
704.241	28.31
704.364	1.31
704.486	15.31
704.608	40.31
704.731	7.31
704.853	11.31
704.976	18.31
705.098	19.31
705.221	19.31
705.343	1.31
705.466	22.31
705.588	21.31
705.711	21.31
705.833	32.31
705.956	24.31
706.078	26.31
706.201	17.31
706.323	10.31
706.446	5.31
