Data from LowRes_mercury_15_20_11_07_2024_HR4C61881__27__15-23-34-971.txt Node

Date: Thu Nov 07 15:23:34 EST 2024
User: crc00042
Spectrometer: HR4C6188
Trigger mode: 4
Integration Time (sec): 1.000000E-1
Scans to average: 1
Electric dark correction enabled: true
Nonlinearity correction enabled: false
Boxcar width: 0
XAxis mode: Wavelengths
Number of Pixels in Spectrum: 3648
>>>>>Begin Spectral Data<<<<<
245.66	-67.85
245.797	-67.85
245.934	-67.85
246.071	-64.85
246.208	26.15
246.344	32.15
246.481	-1.85
246.618	-17.85
246.755	8.15
246.892	6.15
247.029	-3.85
247.165	-7.85
247.302	-2.85
247.439	0.15
247.576	9.15
247.713	-24.85
247.849	15.15
247.986	-11.85
248.123	10.15
248.26	-0.85
248.396	20.15
248.533	0.15
248.67	-10.85
248.806	-10.85
248.943	-26.85
249.08	-10.85
249.216	21.15
249.353	16.15
249.49	3.15
249.626	0.15
249.763	-11.85
249.9	-3.85
250.036	21.15
250.173	17.15
250.309	-2.85
250.446	15.15
250.582	7.15
250.719	3.15
250.856	-4.85
250.992	3.15
251.129	-6.85
251.265	-18.85
251.402	-19.85
251.538	12.15
251.675	-4.85
251.811	0.15
251.948	4.15
252.084	-3.85
252.221	0.15
252.357	4.15
252.493	24.15
252.63	7.15
252.766	22.15
252.903	11.15
253.039	-2.85
253.175	5.15
253.312	13.15
253.448	-7.85
253.585	-12.85
253.721	17.15
253.857	0.15
253.994	16.15
254.13	34.15
254.266	16.15
254.403	15.15
254.539	3.15
254.675	12.15
254.811	7.15
254.948	14.15
255.084	8.15
255.22	-5.85
255.356	-10.85
255.493	3.15
255.629	5.15
255.765	9.15
255.901	25.15
256.037	11.15
256.174	14.15
256.31	-5.85
256.446	8.15
256.582	10.15
256.718	10.15
256.854	24.15
256.991	6.15
257.127	27.15
257.263	13.15
257.399	24.15
257.535	-2.85
257.671	4.15
257.807	9.15
257.943	-23.85
258.079	-14.85
258.215	0.15
258.351	24.15
258.487	11.15
258.623	18.15
258.759	11.15
258.895	24.15
259.031	5.15
259.167	-15.85
259.303	15.15
259.439	-2.85
259.575	13.15
259.711	11.15
259.847	-16.85
259.983	8.15
260.119	6.15
260.255	-15.85
260.391	-7.85
260.527	-11.85
260.663	20.15
260.799	15.15
260.934	9.15
261.07	0.15
261.206	0.15
261.342	-0.85
261.478	15.15
261.614	20.15
261.749	11.15
261.885	6.15
262.021	-1.85
262.157	14.15
262.293	-1.85
262.428	-28.85
262.564	6.15
262.7	27.15
262.836	-9.85
262.971	38.15
263.107	30.15
263.243	32.15
263.378	-1.85
263.514	-0.85
263.65	8.15
263.785	16.15
263.921	8.15
264.057	12.15
264.192	12.15
264.328	25.15
264.464	-5.85
264.599	3.15
264.735	22.15
264.871	-21.85
265.006	0.15
265.142	3.15
265.277	5.15
265.413	7.15
265.548	14.15
265.684	39.15
265.819	12.15
265.955	-4.85
266.091	-11.85
266.226	-12.85
266.362	6.15
266.497	17.15
266.633	-2.85
266.768	-23.85
266.903	24.15
267.039	12.15
267.174	31.15
267.31	-5.85
267.445	-8.85
267.581	6.15
267.716	7.15
267.851	12.15
267.987	-2.85
268.122	10.15
268.258	-9.85
268.393	-0.85
268.528	8.15
268.664	-7.85
268.799	-8.85
268.934	8.15
269.07	7.15
269.205	17.15
269.34	12.15
269.476	4.15
269.611	-14.85
269.746	39.15
269.881	1.15
270.017	22.15
270.152	-2.85
270.287	2.15
270.422	17.15
270.558	-3.85
270.693	17.15
270.828	4.15
270.963	0.15
271.098	-21.85
271.234	-3.85
271.369	20.15
271.504	2.15
271.639	-6.85
271.774	6.15
271.909	4.15
272.045	-9.85
272.18	-5.85
272.315	-11.85
272.45	9.15
272.585	0.15
272.72	3.15
272.855	3.15
272.99	17.15
273.125	-4.85
273.26	-2.85
273.395	-9.85
273.53	7.15
273.665	20.15
273.8	21.15
273.935	18.15
274.07	29.15
274.205	14.15
274.34	11.15
274.475	7.15
274.61	20.15
274.745	-1.85
274.88	5.15
275.015	-6.85
275.15	-3.85
275.285	2.15
275.42	24.15
275.555	11.15
275.69	8.15
275.825	10.15
275.959	8.15
276.094	-7.85
276.229	11.15
276.364	-21.85
276.499	15.15
276.634	2.15
276.768	-2.85
276.903	1.15
277.038	11.15
277.173	-4.85
277.308	-13.85
277.442	-7.85
277.577	-10.85
277.712	-13.85
277.847	-9.85
277.981	10.15
278.116	-21.85
278.251	9.15
278.386	1.15
278.52	9.15
278.655	15.15
278.79	-0.85
278.924	13.15
279.059	9.15
279.194	-1.85
279.328	45.15
279.463	12.15
279.598	4.15
279.732	16.15
279.867	7.15
280.001	19.15
280.136	-5.85
280.271	4.15
280.405	3.15
280.54	16.15
280.674	-13.85
280.809	8.15
280.943	-3.85
281.078	1.15
281.213	19.15
281.347	26.15
281.482	14.15
281.616	1.15
281.751	-16.85
281.885	-17.85
282.02	-1.85
282.154	16.15
282.288	8.15
282.423	-7.85
282.557	-18.85
282.692	-0.85
282.826	-5.85
282.961	15.15
283.095	16.15
283.229	-9.85
283.364	-18.85
283.498	0.15
283.633	-0.85
283.767	6.15
283.901	11.15
284.036	-4.85
284.17	-10.85
284.304	-0.85
284.439	5.15
284.573	6.15
284.707	22.15
284.842	7.15
284.976	4.15
285.11	-8.85
285.244	3.15
285.379	27.15
285.513	-2.85
285.647	21.15
285.781	5.15
285.916	17.15
286.05	4.15
286.184	21.15
286.318	6.15
286.453	-9.85
286.587	-12.85
286.721	-3.85
286.855	16.15
286.989	32.15
287.123	-0.85
287.258	1.15
287.392	-2.85
287.526	4.15
287.66	-7.85
287.794	-9.85
287.928	7.15
288.062	24.15
288.196	10.15
288.33	-3.85
288.464	12.15
288.598	1.15
288.733	17.15
288.867	26.15
289.001	15.15
289.135	7.15
289.269	-22.85
289.403	-13.85
289.537	4.15
289.671	6.15
289.805	-8.85
289.939	8.15
290.073	-8.85
290.207	23.15
290.34	-0.85
290.474	3.15
290.608	18.15
290.742	18.15
290.876	-5.85
291.01	-2.85
291.144	29.15
291.278	24.15
291.412	13.15
291.546	-4.85
291.679	-0.85
291.813	4.15
291.947	-1.85
292.081	-3.85
292.215	6.15
292.349	24.15
292.482	-3.85
292.616	-5.85
292.75	-8.85
292.884	0.15
293.018	-20.85
293.151	6.15
293.285	13.15
293.419	-5.85
293.553	-3.85
293.686	-18.85
293.82	21.15
293.954	27.15
294.088	35.15
294.221	-22.85
294.355	-3.85
294.489	5.15
294.622	-11.85
294.756	9.15
294.89	8.15
295.023	1.15
295.157	15.15
295.291	14.15
295.424	38.15
295.558	6.15
295.691	-1.85
295.825	-6.85
295.959	19.15
296.092	-1.85
296.226	12.15
296.359	20.15
296.493	4.15
296.627	25.15
296.76	27.15
296.894	6.15
297.027	10.15
297.161	13.15
297.294	-17.85
297.428	-0.85
297.561	23.15
297.695	-9.85
297.828	0.15
297.962	-4.85
298.095	6.15
298.229	5.15
298.362	-8.85
298.495	-12.85
298.629	0.15
298.762	-4.85
298.896	3.15
299.029	-8.85
299.162	11.15
299.296	10.15
299.429	12.15
299.563	9.15
299.696	14.15
299.829	10.15
299.963	20.15
300.096	35.15
300.229	20.15
300.363	-12.85
300.496	17.15
300.629	-3.85
300.763	2.15
300.896	10.15
301.029	3.15
301.162	18.15
301.296	-13.85
301.429	-3.85
301.562	-12.85
301.695	18.15
301.829	19.15
301.962	21.15
302.095	10.15
302.228	-5.85
302.362	7.15
302.495	-12.85
302.628	15.15
302.761	-10.85
302.894	17.15
303.027	20.15
303.161	-21.85
303.294	-4.85
303.427	19.15
303.56	14.15
303.693	16.15
303.826	13.15
303.959	18.15
304.092	-11.85
304.225	3.15
304.359	19.15
304.492	11.15
304.625	-1.85
304.758	27.15
304.891	-0.85
305.024	-3.85
305.157	3.15
305.29	-14.85
305.423	9.15
305.556	13.15
305.689	16.15
305.822	-14.85
305.955	2.15
306.088	7.15
306.221	12.15
306.354	7.15
306.487	-11.85
306.62	-31.85
306.752	-0.85
306.885	-2.85
307.018	7.15
307.151	17.15
307.284	2.15
307.417	-2.85
307.55	20.15
307.683	9.15
307.816	15.15
307.948	-0.85
308.081	13.15
308.214	20.15
308.347	22.15
308.48	2.15
308.613	-12.85
308.745	0.15
308.878	6.15
309.011	21.15
309.144	17.15
309.277	8.15
309.409	11.15
309.542	3.15
309.675	19.15
309.808	4.15
309.94	20.15
310.073	-3.85
310.206	-5.85
310.339	0.15
310.471	-16.85
310.604	26.15
310.737	-3.85
310.869	-8.85
311.002	4.15
311.135	0.15
311.267	7.15
311.4	11.15
311.533	36.15
311.665	18.15
311.798	1.15
311.93	18.15
312.063	28.15
312.196	43.15
312.328	79.15
312.461	33.15
312.593	27.15
312.726	58.15
312.859	100.15
312.991	165.15
313.124	52.15
313.256	21.15
313.389	-2.85
313.521	6.15
313.654	9.15
313.786	-21.85
313.919	-11.85
314.051	6.15
314.184	9.15
314.316	10.15
314.449	-7.85
314.581	2.15
314.714	-19.85
314.846	13.15
314.978	-2.85
315.111	-0.85
315.243	16.15
315.376	2.15
315.508	13.15
315.641	19.15
315.773	37.15
315.905	13.15
316.038	-5.85
316.17	8.15
316.302	15.15
316.435	4.15
316.567	3.15
316.699	13.15
316.832	-9.85
316.964	1.15
317.096	3.15
317.229	2.15
317.361	-4.85
317.493	8.15
317.625	13.15
317.758	10.15
317.89	9.15
318.022	3.15
318.155	2.15
318.287	27.15
318.419	17.15
318.551	7.15
318.683	-3.85
318.816	-4.85
318.948	-0.85
319.08	-6.85
319.212	1.15
319.344	10.15
319.477	-23.85
319.609	24.15
319.741	19.15
319.873	15.15
320.005	-3.85
320.137	-7.85
320.269	10.15
320.401	6.15
320.534	4.15
320.666	-0.85
320.798	-20.85
320.93	8.15
321.062	11.15
321.194	-1.85
321.326	25.15
321.458	10.15
321.59	7.15
321.722	-16.85
321.854	8.15
321.986	-11.85
322.118	17.15
322.25	9.15
322.382	12.15
322.514	8.15
322.646	-15.85
322.778	9.15
322.91	17.15
323.042	-1.85
323.174	9.15
323.306	-3.85
323.438	-8.85
323.57	21.15
323.702	29.15
323.834	8.15
323.966	-4.85
324.097	-0.85
324.229	31.15
324.361	32.15
324.493	11.15
324.625	2.15
324.757	14.15
324.889	-1.85
325.021	22.15
325.152	34.15
325.284	14.15
325.416	-3.85
325.548	10.15
325.68	14.15
325.811	29.15
325.943	14.15
326.075	-3.85
326.207	-5.85
326.339	4.15
326.47	6.15
326.602	16.15
326.734	27.15
326.866	31.15
326.997	-1.85
327.129	-12.85
327.261	-19.85
327.392	-15.85
327.524	8.15
327.656	11.15
327.787	23.15
327.919	-6.85
328.051	20.15
328.182	9.15
328.314	23.15
328.446	10.15
328.577	21.15
328.709	13.15
328.841	-5.85
328.972	-10.85
329.104	-4.85
329.235	9.15
329.367	2.15
329.499	-2.85
329.63	19.15
329.762	13.15
329.893	11.15
330.025	-0.85
330.156	-15.85
330.288	23.15
330.419	24.15
330.551	-2.85
330.683	5.15
330.814	-0.85
330.946	25.15
331.077	10.15
331.208	-4.85
331.34	1.15
331.471	-12.85
331.603	2.15
331.734	-7.85
331.866	14.15
331.997	16.15
332.129	25.15
332.26	8.15
332.392	13.15
332.523	4.15
332.654	5.15
332.786	11.15
332.917	19.15
333.048	32.15
333.18	29.15
333.311	-11.85
333.443	13.15
333.574	5.15
333.705	35.15
333.837	35.15
333.968	123.15
334.099	225.15
334.231	210.15
334.362	61.15
334.493	32.15
334.624	21.15
334.756	26.15
334.887	24.15
335.018	17.15
335.15	7.15
335.281	-1.85
335.412	9.15
335.543	13.15
335.675	-6.85
335.806	20.15
335.937	11.15
336.068	11.15
336.199	43.15
336.331	-1.85
336.462	25.15
336.593	4.15
336.724	9.15
336.855	1.15
336.986	36.15
337.118	40.15
337.249	19.15
337.38	9.15
337.511	13.15
337.642	14.15
337.773	0.15
337.904	28.15
338.035	5.15
338.166	16.15
338.298	7.15
338.429	13.15
338.56	10.15
338.691	26.15
338.822	11.15
338.953	26.15
339.084	11.15
339.215	33.15
339.346	31.15
339.477	5.15
339.608	31.15
339.739	14.15
339.87	7.15
340.001	2.15
340.132	20.15
340.263	2.15
340.394	21.15
340.525	28.15
340.656	7.15
340.787	8.15
340.918	29.15
341.049	16.15
341.179	8.15
341.31	23.15
341.441	19.15
341.572	26.15
341.703	5.15
341.834	-3.85
341.965	24.15
342.096	27.15
342.227	31.15
342.357	23.15
342.488	40.15
342.619	33.15
342.75	2.15
342.881	16.15
343.012	35.15
343.142	48.15
343.273	26.15
343.404	21.15
343.535	38.15
343.666	19.15
343.796	21.15
343.927	34.15
344.058	37.15
344.189	23.15
344.319	32.15
344.45	23.15
344.581	14.15
344.712	6.15
344.842	19.15
344.973	25.15
345.104	52.15
345.234	23.15
345.365	31.15
345.496	28.15
345.626	25.15
345.757	33.15
345.888	26.15
346.018	15.15
346.149	29.15
346.28	44.15
346.41	26.15
346.541	55.15
346.672	14.15
346.802	29.15
346.933	32.15
347.063	35.15
347.194	31.15
347.325	33.15
347.455	60.15
347.586	32.15
347.716	16.15
347.847	27.15
347.977	31.15
348.108	30.15
348.238	37.15
348.369	45.15
348.499	31.15
348.63	24.15
348.76	34.15
348.891	49.15
349.021	58.15
349.152	47.15
349.282	43.15
349.413	55.15
349.543	49.15
349.674	23.15
349.804	50.15
349.935	27.15
350.065	19.15
350.196	26.15
350.326	23.15
350.456	1.15
350.587	28.15
350.717	18.15
350.848	38.15
350.978	19.15
351.108	17.15
351.239	33.15
351.369	14.15
351.499	2.15
351.63	38.15
351.76	19.15
351.89	24.15
352.021	11.15
352.151	11.15
352.281	42.15
352.412	31.15
352.542	25.15
352.672	12.15
352.803	30.15
352.933	34.15
353.063	29.15
353.193	32.15
353.324	26.15
353.454	37.15
353.584	36.15
353.714	18.15
353.845	19.15
353.975	14.15
354.105	17.15
354.235	24.15
354.365	33.15
354.496	20.15
354.626	20.15
354.756	30.15
354.886	36.15
355.016	42.15
355.146	22.15
355.277	31.15
355.407	13.15
355.537	29.15
355.667	14.15
355.797	26.15
355.927	15.15
356.057	31.15
356.187	14.15
356.318	25.15
356.448	32.15
356.578	48.15
356.708	42.15
356.838	26.15
356.968	-5.85
357.098	7.15
357.228	35.15
357.358	23.15
357.488	19.15
357.618	52.15
357.748	42.15
357.878	30.15
358.008	15.15
358.138	28.15
358.268	23.15
358.398	40.15
358.528	4.15
358.658	29.15
358.788	27.15
358.918	20.15
359.048	14.15
359.178	48.15
359.308	40.15
359.438	36.15
359.568	36.15
359.698	43.15
359.827	23.15
359.957	36.15
360.087	35.15
360.217	30.15
360.347	55.15
360.477	36.15
360.607	14.15
360.737	49.15
360.866	13.15
360.996	31.15
361.126	13.15
361.256	54.15
361.386	44.15
361.516	50.15
361.645	8.15
361.775	19.15
361.905	19.15
362.035	38.15
362.165	30.15
362.294	24.15
362.424	52.15
362.554	39.15
362.684	34.15
362.813	48.15
362.943	59.15
363.073	60.15
363.203	40.15
363.332	71.15
363.462	71.15
363.592	103.15
363.721	112.15
363.851	167.15
363.981	213.15
364.111	254.15
364.24	336.15
364.37	504.15
364.5	879.15
364.629	1844.15
364.759	3914.15
364.888	6353.15
365.018	9479.15
365.148	14832.15
365.277	13122.15
365.407	4876.15
365.537	3144.15
365.666	4036.15
365.796	1811.15
365.925	814.15
366.055	788.15
366.184	1002.15
366.314	1387.15
366.444	2479.15
366.573	2138.15
366.703	655.15
366.832	220.15
366.962	121.15
367.091	79.15
367.221	76.15
367.35	64.15
367.48	86.15
367.609	59.15
367.739	67.15
367.868	24.15
367.998	54.15
368.127	52.15
368.257	80.15
368.386	48.15
368.516	59.15
368.645	31.15
368.775	35.15
368.904	43.15
369.033	42.15
369.163	20.15
369.292	46.15
369.422	56.15
369.551	45.15
369.68	40.15
369.81	48.15
369.939	19.15
370.069	48.15
370.198	33.15
370.327	29.15
370.457	44.15
370.586	51.15
370.715	43.15
370.845	42.15
370.974	38.15
371.103	57.15
371.233	67.15
371.362	61.15
371.491	47.15
371.621	63.15
371.75	51.15
371.879	25.15
372.008	59.15
372.138	58.15
372.267	55.15
372.396	57.15
372.525	44.15
372.655	36.15
372.784	15.15
372.913	22.15
373.042	40.15
373.172	47.15
373.301	22.15
373.43	17.15
373.559	26.15
373.688	11.15
373.818	30.15
373.947	39.15
374.076	26.15
374.205	38.15
374.334	23.15
374.463	16.15
374.593	33.15
374.722	42.15
374.851	40.15
374.98	1.15
375.109	24.15
375.238	37.15
375.367	40.15
375.496	26.15
375.625	8.15
375.755	41.15
375.884	42.15
376.013	40.15
376.142	22.15
376.271	7.15
376.4	12.15
376.529	35.15
376.658	11.15
376.787	41.15
376.916	20.15
377.045	8.15
377.174	19.15
377.303	18.15
377.432	35.15
377.561	24.15
377.69	16.15
377.819	40.15
377.948	29.15
378.077	14.15
378.206	0.15
378.335	15.15
378.464	16.15
378.593	38.15
378.722	11.15
378.851	12.15
378.98	27.15
379.108	-2.85
379.237	13.15
379.366	40.15
379.495	20.15
379.624	35.15
379.753	29.15
379.882	34.15
380.011	12.15
380.14	14.15
380.268	29.15
380.397	15.15
380.526	43.15
380.655	-1.85
380.784	11.15
380.913	20.15
381.041	16.15
381.17	7.15
381.299	9.15
381.428	16.15
381.557	33.15
381.685	20.15
381.814	24.15
381.943	6.15
382.072	1.15
382.2	17.15
382.329	15.15
382.458	18.15
382.587	29.15
382.715	22.15
382.844	10.15
382.973	25.15
383.102	30.15
383.23	30.15
383.359	12.15
383.488	28.15
383.616	3.15
383.745	19.15
383.874	20.15
384.003	7.15
384.131	11.15
384.26	20.15
384.389	30.15
384.517	10.15
384.646	5.15
384.774	5.15
384.903	22.15
385.032	41.15
385.16	27.15
385.289	27.15
385.418	34.15
385.546	21.15
385.675	31.15
385.803	29.15
385.932	28.15
386.06	9.15
386.189	26.15
386.318	14.15
386.446	27.15
386.575	17.15
386.703	31.15
386.832	12.15
386.96	-7.85
387.089	25.15
387.217	26.15
387.346	26.15
387.474	17.15
387.603	8.15
387.731	25.15
387.86	35.15
387.988	20.15
388.117	34.15
388.245	32.15
388.374	40.15
388.502	25.15
388.631	8.15
388.759	19.15
388.888	13.15
389.016	30.15
389.144	-1.85
389.273	22.15
389.401	24.15
389.53	6.15
389.658	32.15
389.786	31.15
389.915	26.15
390.043	14.15
390.172	24.15
390.3	45.15
390.428	39.15
390.557	31.15
390.685	34.15
390.813	56.15
390.942	63.15
391.07	25.15
391.198	40.15
391.327	20.15
391.455	5.15
391.583	50.15
391.712	19.15
391.84	21.15
391.968	28.15
392.096	19.15
392.225	10.15
392.353	22.15
392.481	34.15
392.609	21.15
392.738	13.15
392.866	19.15
392.994	15.15
393.122	47.15
393.251	24.15
393.379	30.15
393.507	15.15
393.635	15.15
393.764	19.15
393.892	21.15
394.02	11.15
394.148	24.15
394.276	32.15
394.404	55.15
394.533	36.15
394.661	39.15
394.789	26.15
394.917	40.15
395.045	18.15
395.173	10.15
395.302	27.15
395.43	31.15
395.558	19.15
395.686	43.15
395.814	37.15
395.942	31.15
396.07	32.15
396.198	30.15
396.326	39.15
396.454	53.15
396.582	45.15
396.711	30.15
396.839	46.15
396.967	44.15
397.095	24.15
397.223	29.15
397.351	66.15
397.479	52.15
397.607	40.15
397.735	66.15
397.863	52.15
397.991	52.15
398.119	35.15
398.247	42.15
398.375	55.15
398.503	49.15
398.631	63.15
398.759	62.15
398.887	73.15
399.015	44.15
399.143	78.15
399.271	78.15
399.399	75.15
399.526	68.15
399.654	78.15
399.782	68.15
399.91	92.15
400.038	98.15
400.166	91.15
400.294	86.15
400.422	94.15
400.55	117.15
400.678	113.15
400.805	114.15
400.933	107.15
401.061	134.15
401.189	132.15
401.317	160.15
401.445	90.15
401.573	81.15
401.7	47.15
401.828	51.15
401.956	60.15
402.084	68.15
402.212	37.15
402.34	36.15
402.467	29.15
402.595	42.15
402.723	38.15
402.851	72.15
402.978	56.15
403.106	79.15
403.234	110.15
403.362	112.15
403.489	115.15
403.617	155.15
403.745	211.15
403.873	273.15
404	573.15
404.128	1463.15
404.256	4010.15
404.384	5095.15
404.511	5524.15
404.639	7273.15
404.767	11493.15
404.894	14668.15
405.022	4938.15
405.15	1309.15
405.277	421.15
405.405	245.15
405.533	133.15
405.66	116.15
405.788	64.15
405.916	86.15
406.043	57.15
406.171	74.15
406.299	62.15
406.426	71.15
406.554	58.15
406.681	83.15
406.809	55.15
406.937	60.15
407.064	64.15
407.192	133.15
407.319	307.15
407.447	528.15
407.574	539.15
407.702	609.15
407.83	829.15
407.957	1595.15
408.085	962.15
408.212	297.15
408.34	112.15
408.467	65.15
408.595	56.15
408.722	70.15
408.85	60.15
408.977	40.15
409.105	36.15
409.232	40.15
409.36	20.15
409.487	31.15
409.615	29.15
409.742	32.15
409.87	23.15
409.997	44.15
410.125	40.15
410.252	33.15
410.379	30.15
410.507	40.15
410.634	32.15
410.762	46.15
410.889	25.15
411.017	39.15
411.144	43.15
411.271	15.15
411.399	31.15
411.526	32.15
411.653	36.15
411.781	49.15
411.908	29.15
412.036	9.15
412.163	33.15
412.29	49.15
412.418	35.15
412.545	31.15
412.672	23.15
412.8	51.15
412.927	45.15
413.054	58.15
413.182	35.15
413.309	36.15
413.436	10.15
413.564	32.15
413.691	33.15
413.818	38.15
413.945	1.15
414.073	22.15
414.2	30.15
414.327	36.15
414.454	35.15
414.582	44.15
414.709	35.15
414.836	25.15
414.963	30.15
415.091	34.15
415.218	30.15
415.345	39.15
415.472	31.15
415.6	23.15
415.727	43.15
415.854	52.15
415.981	22.15
416.108	38.15
416.236	34.15
416.363	50.15
416.49	26.15
416.617	36.15
416.744	41.15
416.871	16.15
416.998	23.15
417.126	16.15
417.253	21.15
417.38	36.15
417.507	31.15
417.634	40.15
417.761	50.15
417.888	31.15
418.015	40.15
418.143	33.15
418.27	47.15
418.397	30.15
418.524	39.15
418.651	35.15
418.778	62.15
418.905	72.15
419.032	39.15
419.159	23.15
419.286	57.15
419.413	45.15
419.54	63.15
419.667	38.15
419.794	34.15
419.921	81.15
420.048	55.15
420.175	56.15
420.302	34.15
420.429	62.15
420.556	57.15
420.683	46.15
420.81	55.15
420.937	87.15
421.064	74.15
421.191	46.15
421.318	77.15
421.445	90.15
421.572	65.15
421.699	47.15
421.826	46.15
421.953	40.15
422.08	16.15
422.207	11.15
422.334	10.15
422.461	39.15
422.588	23.15
422.714	32.15
422.841	38.15
422.968	43.15
423.095	26.15
423.222	6.15
423.349	28.15
423.476	24.15
423.603	6.15
423.729	19.15
423.856	9.15
423.983	29.15
424.11	2.15
424.237	24.15
424.364	22.15
424.491	30.15
424.617	-5.85
424.744	3.15
424.871	35.15
424.998	31.15
425.125	26.15
425.251	45.15
425.378	10.15
425.505	37.15
425.632	27.15
425.758	20.15
425.885	24.15
426.012	29.15
426.139	17.15
426.266	6.15
426.392	18.15
426.519	38.15
426.646	11.15
426.772	44.15
426.899	13.15
427.026	41.15
427.153	18.15
427.279	37.15
427.406	30.15
427.533	16.15
427.659	22.15
427.786	30.15
427.913	35.15
428.039	29.15
428.166	14.15
428.293	34.15
428.419	35.15
428.546	28.15
428.673	11.15
428.799	7.15
428.926	9.15
429.053	47.15
429.179	29.15
429.306	25.15
429.433	52.15
429.559	37.15
429.686	18.15
429.812	31.15
429.939	24.15
430.066	32.15
430.192	21.15
430.319	33.15
430.445	21.15
430.572	16.15
430.699	0.15
430.825	6.15
430.952	46.15
431.078	33.15
431.205	44.15
431.331	25.15
431.458	31.15
431.584	44.15
431.711	20.15
431.837	39.15
431.964	37.15
432.09	29.15
432.217	-4.85
432.343	21.15
432.47	40.15
432.596	42.15
432.723	24.15
432.849	15.15
432.976	43.15
433.102	51.15
433.229	39.15
433.355	65.15
433.482	86.15
433.608	107.15
433.735	109.15
433.861	115.15
433.987	163.15
434.114	193.15
434.24	167.15
434.367	224.15
434.493	223.15
434.62	271.15
434.746	386.15
434.872	634.15
434.999	844.15
435.125	1723.15
435.252	5567.15
435.378	13426.15
435.504	15232.15
435.631	15450.15
435.757	15685.15
435.883	15685.15
436.01	15685.15
436.136	15685.15
436.262	15685.15
436.389	3501.15
436.515	2340.15
436.641	848.15
436.768	655.15
436.894	398.15
437.02	393.15
437.147	303.15
437.273	300.15
437.399	219.15
437.526	250.15
437.652	185.15
437.778	206.15
437.904	149.15
438.031	157.15
438.157	142.15
438.283	170.15
438.409	106.15
438.536	130.15
438.662	126.15
438.788	129.15
438.914	121.15
439.041	115.15
439.167	106.15
439.293	90.15
439.419	90.15
439.546	105.15
439.672	87.15
439.798	101.15
439.924	92.15
440.05	99.15
440.177	94.15
440.303	75.15
440.429	51.15
440.555	67.15
440.681	55.15
440.807	63.15
440.934	67.15
441.06	45.15
441.186	56.15
441.312	52.15
441.438	63.15
441.564	59.15
441.69	62.15
441.816	52.15
441.943	63.15
442.069	66.15
442.195	55.15
442.321	64.15
442.447	42.15
442.573	59.15
442.699	51.15
442.825	51.15
442.951	52.15
443.077	56.15
443.203	69.15
443.33	50.15
443.456	22.15
443.582	35.15
443.708	55.15
443.834	71.15
443.96	41.15
444.086	37.15
444.212	53.15
444.338	61.15
444.464	62.15
444.59	75.15
444.716	40.15
444.842	42.15
444.968	26.15
445.094	34.15
445.22	26.15
445.346	23.15
445.472	36.15
445.598	42.15
445.724	28.15
445.85	39.15
445.976	36.15
446.102	51.15
446.228	47.15
446.354	41.15
446.48	31.15
446.605	52.15
446.731	30.15
446.857	42.15
446.983	33.15
447.109	37.15
447.235	26.15
447.361	34.15
447.487	52.15
447.613	59.15
447.739	21.15
447.865	32.15
447.99	40.15
448.116	32.15
448.242	12.15
448.368	33.15
448.494	26.15
448.62	41.15
448.746	12.15
448.872	27.15
448.997	16.15
449.123	24.15
449.249	51.15
449.375	47.15
449.501	29.15
449.627	23.15
449.752	46.15
449.878	19.15
450.004	29.15
450.13	27.15
450.256	23.15
450.381	23.15
450.507	17.15
450.633	29.15
450.759	41.15
450.884	23.15
451.01	39.15
451.136	4.15
451.262	36.15
451.388	29.15
451.513	22.15
451.639	45.15
451.765	33.15
451.89	37.15
452.016	43.15
452.142	33.15
452.268	32.15
452.393	34.15
452.519	24.15
452.645	42.15
452.771	12.15
452.896	24.15
453.022	11.15
453.148	47.15
453.273	28.15
453.399	32.15
453.525	27.15
453.65	17.15
453.776	38.15
453.902	39.15
454.027	34.15
454.153	50.15
454.279	36.15
454.404	26.15
454.53	34.15
454.656	54.15
454.781	19.15
454.907	31.15
455.032	26.15
455.158	50.15
455.284	48.15
455.409	22.15
455.535	33.15
455.66	29.15
455.786	12.15
455.912	18.15
456.037	17.15
456.163	25.15
456.288	33.15
456.414	24.15
456.539	17.15
456.665	55.15
456.791	23.15
456.916	11.15
457.042	20.15
457.167	3.15
457.293	18.15
457.418	27.15
457.544	18.15
457.669	10.15
457.795	26.15
457.92	22.15
458.046	20.15
458.171	35.15
458.297	34.15
458.422	26.15
458.548	18.15
458.673	24.15
458.799	34.15
458.924	3.15
459.05	14.15
459.175	31.15
459.301	25.15
459.426	46.15
459.552	28.15
459.677	9.15
459.803	31.15
459.928	37.15
460.053	22.15
460.179	24.15
460.304	26.15
460.43	14.15
460.555	12.15
460.681	14.15
460.806	22.15
460.931	16.15
461.057	30.15
461.182	15.15
461.308	56.15
461.433	49.15
461.558	21.15
461.684	46.15
461.809	35.15
461.934	18.15
462.06	37.15
462.185	17.15
462.311	14.15
462.436	37.15
462.561	40.15
462.687	50.15
462.812	25.15
462.937	19.15
463.063	25.15
463.188	31.15
463.313	49.15
463.439	21.15
463.564	24.15
463.689	15.15
463.814	28.15
463.94	19.15
464.065	35.15
464.19	36.15
464.316	13.15
464.441	29.15
464.566	18.15
464.692	16.15
464.817	40.15
464.942	31.15
465.067	33.15
465.193	16.15
465.318	-6.85
465.443	30.15
465.568	24.15
465.694	23.15
465.819	40.15
465.944	41.15
466.069	28.15
466.194	23.15
466.32	31.15
466.445	41.15
466.57	40.15
466.695	43.15
466.82	45.15
466.946	52.15
467.071	46.15
467.196	44.15
467.321	39.15
467.446	24.15
467.572	23.15
467.697	27.15
467.822	38.15
467.947	47.15
468.072	13.15
468.197	31.15
468.323	19.15
468.448	19.15
468.573	45.15
468.698	22.15
468.823	37.15
468.948	46.15
469.073	41.15
469.198	68.15
469.324	59.15
469.449	35.15
469.574	32.15
469.699	51.15
469.824	44.15
469.949	36.15
470.074	34.15
470.199	73.15
470.324	44.15
470.449	51.15
470.574	23.15
470.7	37.15
470.825	46.15
470.95	38.15
471.075	31.15
471.2	37.15
471.325	51.15
471.45	32.15
471.575	26.15
471.7	31.15
471.825	26.15
471.95	14.15
472.075	18.15
472.2	13.15
472.325	20.15
472.45	19.15
472.575	23.15
472.7	36.15
472.825	41.15
472.95	37.15
473.075	42.15
473.2	35.15
473.325	36.15
473.45	36.15
473.575	32.15
473.7	45.15
473.825	40.15
473.95	34.15
474.075	42.15
474.2	11.15
474.325	10.15
474.45	45.15
474.574	21.15
474.699	22.15
474.824	50.15
474.949	6.15
475.074	21.15
475.199	32.15
475.324	32.15
475.449	24.15
475.574	38.15
475.699	38.15
475.824	20.15
475.949	18.15
476.073	20.15
476.198	34.15
476.323	16.15
476.448	7.15
476.573	30.15
476.698	43.15
476.823	36.15
476.947	33.15
477.072	12.15
477.197	17.15
477.322	25.15
477.447	31.15
477.572	26.15
477.697	27.15
477.821	19.15
477.946	31.15
478.071	35.15
478.196	41.15
478.321	36.15
478.445	26.15
478.57	11.15
478.695	17.15
478.82	31.15
478.945	17.15
479.069	8.15
479.194	20.15
479.319	10.15
479.444	16.15
479.569	29.15
479.693	12.15
479.818	36.15
479.943	35.15
480.068	13.15
480.192	34.15
480.317	6.15
480.442	24.15
480.567	22.15
480.691	29.15
480.816	-1.85
480.941	-5.85
481.066	16.15
481.19	34.15
481.315	10.15
481.44	10.15
481.564	14.15
481.689	31.15
481.814	31.15
481.938	20.15
482.063	18.15
482.188	12.15
482.313	38.15
482.437	32.15
482.562	17.15
482.687	28.15
482.811	27.15
482.936	22.15
483.061	24.15
483.185	30.15
483.31	20.15
483.435	16.15
483.559	26.15
483.684	28.15
483.808	34.15
483.933	18.15
484.058	22.15
484.182	24.15
484.307	24.15
484.432	27.15
484.556	26.15
484.681	31.15
484.805	35.15
484.93	28.15
485.055	41.15
485.179	52.15
485.304	41.15
485.428	40.15
485.553	31.15
485.678	22.15
485.802	12.15
485.927	55.15
486.051	41.15
486.176	24.15
486.3	22.15
486.425	24.15
486.549	38.15
486.674	44.15
486.799	18.15
486.923	10.15
487.048	-1.85
487.172	16.15
487.297	31.15
487.421	23.15
487.546	10.15
487.67	29.15
487.795	10.15
487.919	16.15
488.044	28.15
488.168	24.15
488.293	16.15
488.417	14.15
488.542	31.15
488.666	34.15
488.791	44.15
488.915	18.15
489.04	9.15
489.164	25.15
489.289	24.15
489.413	3.15
489.538	36.15
489.662	18.15
489.786	16.15
489.911	13.15
490.035	12.15
490.16	28.15
490.284	24.15
490.409	0.15
490.533	34.15
490.658	53.15
490.782	41.15
490.906	62.15
491.031	112.15
491.155	128.15
491.28	163.15
491.404	161.15
491.528	265.15
491.653	168.15
491.777	78.15
491.902	32.15
492.026	41.15
492.15	35.15
492.275	33.15
492.399	32.15
492.524	46.15
492.648	20.15
492.772	31.15
492.897	47.15
493.021	20.15
493.145	27.15
493.27	28.15
493.394	14.15
493.518	12.15
493.643	20.15
493.767	38.15
493.891	11.15
494.016	25.15
494.14	14.15
494.264	16.15
494.389	9.15
494.513	4.15
494.637	4.15
494.762	15.15
494.886	29.15
495.01	41.15
495.134	46.15
495.259	28.15
495.383	18.15
495.507	12.15
495.632	34.15
495.756	46.15
495.88	15.15
496.004	31.15
496.129	17.15
496.253	26.15
496.377	11.15
496.501	47.15
496.626	13.15
496.75	31.15
496.874	28.15
496.998	30.15
497.123	25.15
497.247	29.15
497.371	22.15
497.495	18.15
497.62	31.15
497.744	7.15
497.868	10.15
497.992	13.15
498.116	12.15
498.241	15.15
498.365	9.15
498.489	25.15
498.613	58.15
498.737	28.15
498.862	11.15
498.986	18.15
499.11	33.15
499.234	20.15
499.358	14.15
499.482	15.15
499.607	22.15
499.731	27.15
499.855	46.15
499.979	32.15
500.103	24.15
500.227	10.15
500.351	27.15
500.476	14.15
500.6	29.15
500.724	9.15
500.848	22.15
500.972	27.15
501.096	17.15
501.22	30.15
501.344	32.15
501.469	7.15
501.593	11.15
501.717	37.15
501.841	26.15
501.965	26.15
502.089	35.15
502.213	26.15
502.337	34.15
502.461	6.15
502.585	16.15
502.709	24.15
502.834	16.15
502.958	17.15
503.082	19.15
503.206	4.15
503.33	42.15
503.454	24.15
503.578	40.15
503.702	26.15
503.826	31.15
503.95	32.15
504.074	25.15
504.198	31.15
504.322	12.15
504.446	12.15
504.57	22.15
504.694	27.15
504.818	17.15
504.942	43.15
505.066	23.15
505.19	24.15
505.314	35.15
505.438	30.15
505.562	22.15
505.686	41.15
505.81	18.15
505.934	30.15
506.058	26.15
506.182	15.15
506.306	40.15
506.43	18.15
506.554	11.15
506.678	20.15
506.802	31.15
506.926	40.15
507.05	35.15
507.174	35.15
507.298	42.15
507.422	37.15
507.546	24.15
507.67	39.15
507.794	21.15
507.918	26.15
508.042	2.15
508.165	8.15
508.289	15.15
508.413	29.15
508.537	25.15
508.661	30.15
508.785	17.15
508.909	16.15
509.033	22.15
509.157	29.15
509.281	36.15
509.405	31.15
509.528	54.15
509.652	42.15
509.776	36.15
509.9	62.15
510.024	28.15
510.148	25.15
510.272	51.15
510.396	38.15
510.519	22.15
510.643	49.15
510.767	46.15
510.891	49.15
511.015	37.15
511.139	49.15
511.263	49.15
511.386	51.15
511.51	33.15
511.634	51.15
511.758	29.15
511.882	37.15
512.006	35.15
512.129	57.15
512.253	105.15
512.377	84.15
512.501	91.15
512.625	80.15
512.748	84.15
512.872	71.15
512.996	60.15
513.12	58.15
513.244	42.15
513.367	53.15
513.491	69.15
513.615	74.15
513.739	76.15
513.862	79.15
513.986	79.15
514.11	114.15
514.234	82.15
514.358	115.15
514.481	119.15
514.605	107.15
514.729	125.15
514.853	104.15
514.976	84.15
515.1	107.15
515.224	96.15
515.348	81.15
515.471	84.15
515.595	90.15
515.719	126.15
515.842	205.15
515.966	258.15
516.09	312.15
516.214	304.15
516.337	327.15
516.461	207.15
516.585	94.15
516.708	54.15
516.832	32.15
516.956	30.15
517.08	31.15
517.203	16.15
517.327	12.15
517.451	35.15
517.574	46.15
517.698	20.15
517.822	22.15
517.945	48.15
518.069	36.15
518.193	45.15
518.316	33.15
518.44	40.15
518.564	11.15
518.687	18.15
518.811	9.15
518.935	47.15
519.058	4.15
519.182	15.15
519.306	23.15
519.429	18.15
519.553	55.15
519.676	42.15
519.8	15.15
519.924	37.15
520.047	14.15
520.171	17.15
520.294	10.15
520.418	18.15
520.542	30.15
520.665	24.15
520.789	23.15
520.913	-7.85
521.036	8.15
521.16	23.15
521.283	26.15
521.407	25.15
521.53	10.15
521.654	10.15
521.778	26.15
521.901	26.15
522.025	26.15
522.148	15.15
522.272	24.15
522.395	15.15
522.519	40.15
522.643	21.15
522.766	10.15
522.89	25.15
523.013	35.15
523.137	14.15
523.26	14.15
523.384	33.15
523.507	15.15
523.631	13.15
523.754	-5.85
523.878	30.15
524.002	27.15
524.125	19.15
524.249	16.15
524.372	24.15
524.496	15.15
524.619	12.15
524.743	7.15
524.866	24.15
524.99	35.15
525.113	19.15
525.237	17.15
525.36	11.15
525.484	13.15
525.607	7.15
525.731	-12.85
525.854	26.15
525.978	50.15
526.101	13.15
526.224	22.15
526.348	12.15
526.471	26.15
526.595	21.15
526.718	29.15
526.842	18.15
526.965	16.15
527.089	23.15
527.212	9.15
527.336	-2.85
527.459	6.15
527.582	-1.85
527.706	16.15
527.829	11.15
527.953	25.15
528.076	7.15
528.2	19.15
528.323	32.15
528.446	26.15
528.57	14.15
528.693	38.15
528.817	13.15
528.94	10.15
529.064	36.15
529.187	13.15
529.31	26.15
529.434	10.15
529.557	11.15
529.68	-1.85
529.804	8.15
529.927	16.15
530.051	1.15
530.174	-4.85
530.297	13.15
530.421	26.15
530.544	30.15
530.668	19.15
530.791	12.15
530.914	25.15
531.038	24.15
531.161	14.15
531.284	7.15
531.408	32.15
531.531	4.15
531.654	8.15
531.778	16.15
531.901	8.15
532.024	32.15
532.148	16.15
532.271	13.15
532.394	33.15
532.518	33.15
532.641	16.15
532.764	44.15
532.888	11.15
533.011	1.15
533.134	4.15
533.258	24.15
533.381	8.15
533.504	27.15
533.628	14.15
533.751	25.15
533.874	11.15
533.997	27.15
534.121	7.15
534.244	22.15
534.367	11.15
534.491	40.15
534.614	24.15
534.737	27.15
534.86	14.15
534.984	17.15
535.107	14.15
535.23	14.15
535.354	5.15
535.477	12.15
535.6	36.15
535.723	28.15
535.847	34.15
535.97	1.15
536.093	14.15
536.216	2.15
536.34	23.15
536.463	23.15
536.586	44.15
536.709	33.15
536.833	40.15
536.956	24.15
537.079	11.15
537.202	48.15
537.325	25.15
537.449	18.15
537.572	24.15
537.695	22.15
537.818	18.15
537.941	12.15
538.065	22.15
538.188	7.15
538.311	29.15
538.434	45.15
538.558	18.15
538.681	30.15
538.804	33.15
538.927	36.15
539.05	22.15
539.173	22.15
539.297	7.15
539.42	18.15
539.543	38.15
539.666	12.15
539.789	16.15
539.913	23.15
540.036	19.15
540.159	13.15
540.282	18.15
540.405	16.15
540.528	11.15
540.651	36.15
540.775	16.15
540.898	46.15
541.021	24.15
541.144	43.15
541.267	41.15
541.39	36.15
541.513	37.15
541.637	26.15
541.76	22.15
541.883	29.15
542.006	32.15
542.129	51.15
542.252	30.15
542.375	38.15
542.498	64.15
542.622	47.15
542.745	46.15
542.868	39.15
542.991	67.15
543.114	58.15
543.237	77.15
543.36	50.15
543.483	55.15
543.606	67.15
543.73	75.15
543.853	80.15
543.976	92.15
544.099	115.15
544.222	118.15
544.345	132.15
544.468	169.15
544.591	206.15
544.714	267.15
544.837	351.15
544.96	445.15
545.083	690.15
545.206	1084.15
545.329	2473.15
545.453	11014.15
545.576	15266.15
545.699	15685.15
545.822	15685.15
545.945	15685.15
546.068	15685.15
546.191	15685.15
546.314	15685.15
546.437	15685.15
546.56	15685.15
546.683	15685.15
546.806	15685.15
546.929	15685.15
547.052	15685.15
547.175	15685.15
547.298	15685.15
547.421	15685.15
547.544	15685.15
547.667	3674.15
547.79	3181.15
547.913	1176.15
548.036	888.15
548.159	648.15
548.282	640.15
548.405	505.15
548.528	513.15
548.651	419.15
548.774	405.15
548.897	353.15
549.02	382.15
549.143	340.15
549.266	298.15
549.389	276.15
549.512	251.15
549.635	250.15
549.758	256.15
549.881	207.15
550.004	215.15
550.127	203.15
550.25	201.15
550.373	156.15
550.496	176.15
550.619	183.15
550.742	161.15
550.865	135.15
550.988	160.15
551.111	169.15
551.234	156.15
551.356	135.15
551.479	132.15
551.602	111.15
551.725	147.15
551.848	145.15
551.971	136.15
552.094	122.15
552.217	124.15
552.34	114.15
552.463	99.15
552.586	106.15
552.709	103.15
552.832	103.15
552.955	110.15
553.077	112.15
553.2	114.15
553.323	75.15
553.446	93.15
553.569	103.15
553.692	110.15
553.815	106.15
553.938	107.15
554.061	116.15
554.184	98.15
554.306	96.15
554.429	102.15
554.552	89.15
554.675	91.15
554.798	91.15
554.921	91.15
555.044	91.15
555.167	85.15
555.29	82.15
555.412	76.15
555.535	83.15
555.658	62.15
555.781	78.15
555.904	68.15
556.027	87.15
556.15	77.15
556.272	66.15
556.395	93.15
556.518	90.15
556.641	94.15
556.764	80.15
556.887	67.15
557.01	57.15
557.132	58.15
557.255	54.15
557.378	75.15
557.501	81.15
557.624	62.15
557.747	70.15
557.869	81.15
557.992	85.15
558.115	90.15
558.238	90.15
558.361	107.15
558.483	103.15
558.606	76.15
558.729	48.15
558.852	83.15
558.975	75.15
559.098	66.15
559.22	60.15
559.343	46.15
559.466	50.15
559.589	46.15
559.712	54.15
559.834	59.15
559.957	46.15
560.08	51.15
560.203	55.15
560.325	56.15
560.448	71.15
560.571	64.15
560.694	48.15
560.817	83.15
560.939	63.15
561.062	66.15
561.185	68.15
561.308	53.15
561.43	55.15
561.553	54.15
561.676	64.15
561.799	71.15
561.921	63.15
562.044	61.15
562.167	59.15
562.29	75.15
562.413	81.15
562.535	80.15
562.658	39.15
562.781	51.15
562.903	63.15
563.026	95.15
563.149	133.15
563.272	133.15
563.394	135.15
563.517	94.15
563.64	54.15
563.763	41.15
563.885	58.15
564.008	56.15
564.131	62.15
564.254	19.15
564.376	51.15
564.499	23.15
564.622	35.15
564.744	46.15
564.867	45.15
564.99	45.15
565.113	44.15
565.235	47.15
565.358	37.15
565.481	21.15
565.603	52.15
565.726	40.15
565.849	50.15
565.971	39.15
566.094	33.15
566.217	46.15
566.34	46.15
566.462	32.15
566.585	35.15
566.708	71.15
566.83	40.15
566.953	62.15
567.076	47.15
567.198	47.15
567.321	36.15
567.444	19.15
567.566	38.15
567.689	37.15
567.812	34.15
567.934	44.15
568.057	37.15
568.18	47.15
568.302	29.15
568.425	19.15
568.548	21.15
568.67	31.15
568.793	42.15
568.916	39.15
569.038	29.15
569.161	46.15
569.283	33.15
569.406	38.15
569.529	33.15
569.651	39.15
569.774	48.15
569.897	39.15
570.019	44.15
570.142	50.15
570.265	27.15
570.387	12.15
570.51	22.15
570.632	54.15
570.755	19.15
570.878	36.15
571	34.15
571.123	15.15
571.246	54.15
571.368	34.15
571.491	39.15
571.613	29.15
571.736	11.15
571.859	32.15
571.981	10.15
572.104	15.15
572.226	48.15
572.349	18.15
572.472	35.15
572.594	44.15
572.717	39.15
572.839	27.15
572.962	33.15
573.085	25.15
573.207	21.15
573.33	29.15
573.452	56.15
573.575	49.15
573.697	39.15
573.82	47.15
573.943	28.15
574.065	46.15
574.188	39.15
574.31	50.15
574.433	32.15
574.555	38.15
574.678	29.15
574.801	57.15
574.923	39.15
575.046	36.15
575.168	32.15
575.291	27.15
575.413	35.15
575.536	49.15
575.659	43.15
575.781	42.15
575.904	39.15
576.026	73.15
576.149	77.15
576.271	127.15
576.394	216.15
576.516	538.15
576.639	3696.15
576.761	10213.15
576.884	8921.15
577.007	8848.15
577.129	8066.15
577.252	3738.15
577.374	1312.15
577.497	537.15
577.619	295.15
577.742	180.15
577.864	156.15
577.987	128.15
578.109	131.15
578.232	122.15
578.354	143.15
578.477	194.15
578.599	391.15
578.722	1972.15
578.844	9189.15
578.967	9924.15
579.089	8822.15
579.212	9172.15
579.334	5289.15
579.457	1954.15
579.579	728.15
579.702	326.15
579.824	214.15
579.947	133.15
580.069	104.15
580.192	80.15
580.314	94.15
580.437	66.15
580.559	86.15
580.682	59.15
580.804	71.15
580.927	92.15
581.049	73.15
581.172	68.15
581.294	55.15
581.417	51.15
581.539	56.15
581.662	51.15
581.784	50.15
581.907	44.15
582.029	43.15
582.152	26.15
582.274	47.15
582.396	30.15
582.519	50.15
582.641	34.15
582.764	58.15
582.886	36.15
583.009	27.15
583.131	28.15
583.254	49.15
583.376	43.15
583.499	47.15
583.621	48.15
583.743	43.15
583.866	36.15
583.988	39.15
584.111	37.15
584.233	26.15
584.356	38.15
584.478	30.15
584.601	20.15
584.723	28.15
584.845	46.15
584.968	30.15
585.09	18.15
585.213	32.15
585.335	27.15
585.458	31.15
585.58	29.15
585.702	56.15
585.825	46.15
585.947	32.15
586.07	15.15
586.192	22.15
586.315	41.15
586.437	15.15
586.559	26.15
586.682	28.15
586.804	23.15
586.927	17.15
587.049	17.15
587.171	42.15
587.294	43.15
587.416	57.15
587.539	8.15
587.661	11.15
587.783	24.15
587.906	17.15
588.028	36.15
588.151	33.15
588.273	27.15
588.395	30.15
588.518	26.15
588.64	24.15
588.763	41.15
588.885	44.15
589.007	43.15
589.13	2.15
589.252	17.15
589.375	43.15
589.497	22.15
589.619	28.15
589.742	21.15
589.864	47.15
589.986	44.15
590.109	37.15
590.231	34.15
590.354	30.15
590.476	15.15
590.598	31.15
590.721	22.15
590.843	25.15
590.965	24.15
591.088	26.15
591.21	26.15
591.332	30.15
591.455	22.15
591.577	17.15
591.7	34.15
591.822	33.15
591.944	28.15
592.067	29.15
592.189	37.15
592.311	38.15
592.434	31.15
592.556	41.15
592.678	42.15
592.801	34.15
592.923	42.15
593.045	4.15
593.168	32.15
593.29	18.15
593.412	47.15
593.535	15.15
593.657	4.15
593.779	20.15
593.902	36.15
594.024	29.15
594.146	50.15
594.269	42.15
594.391	22.15
594.513	27.15
594.636	4.15
594.758	13.15
594.88	35.15
595.003	11.15
595.125	19.15
595.247	27.15
595.37	34.15
595.492	15.15
595.614	40.15
595.737	26.15
595.859	29.15
595.981	23.15
596.104	32.15
596.226	33.15
596.348	32.15
596.471	12.15
596.593	23.15
596.715	10.15
596.838	22.15
596.96	9.15
597.082	22.15
597.204	35.15
597.327	34.15
597.449	22.15
597.571	14.15
597.694	30.15
597.816	20.15
597.938	26.15
598.061	12.15
598.183	20.15
598.305	32.15
598.427	41.15
598.55	33.15
598.672	39.15
598.794	47.15
598.917	18.15
599.039	30.15
599.161	23.15
599.283	22.15
599.406	30.15
599.528	47.15
599.65	63.15
599.773	26.15
599.895	46.15
600.017	35.15
600.139	19.15
600.262	5.15
600.384	38.15
600.506	35.15
600.628	47.15
600.751	39.15
600.873	22.15
600.995	18.15
601.118	38.15
601.24	19.15
601.362	32.15
601.484	32.15
601.607	16.15
601.729	32.15
601.851	10.15
601.973	24.15
602.096	21.15
602.218	50.15
602.34	36.15
602.462	26.15
602.585	26.15
602.707	8.15
602.829	46.15
602.951	39.15
603.074	1.15
603.196	2.15
603.318	8.15
603.44	34.15
603.563	29.15
603.685	22.15
603.807	34.15
603.929	24.15
604.052	39.15
604.174	40.15
604.296	31.15
604.418	47.15
604.541	34.15
604.663	18.15
604.785	24.15
604.907	38.15
605.03	15.15
605.152	50.15
605.274	22.15
605.396	27.15
605.519	19.15
605.641	15.15
605.763	27.15
605.885	32.15
606.008	16.15
606.13	35.15
606.252	34.15
606.374	23.15
606.496	25.15
606.619	31.15
606.741	19.15
606.863	69.15
606.985	34.15
607.108	31.15
607.23	31.15
607.352	26.15
607.474	9.15
607.596	11.15
607.719	22.15
607.841	34.15
607.963	26.15
608.085	11.15
608.207	53.15
608.33	34.15
608.452	34.15
608.574	27.15
608.696	38.15
608.819	28.15
608.941	10.15
609.063	24.15
609.185	26.15
609.307	30.15
609.43	30.15
609.552	26.15
609.674	9.15
609.796	34.15
609.918	36.15
610.041	10.15
610.163	34.15
610.285	17.15
610.407	21.15
610.529	18.15
610.652	23.15
610.774	22.15
610.896	10.15
611.018	15.15
611.14	17.15
611.263	-3.85
611.385	14.15
611.507	22.15
611.629	31.15
611.751	25.15
611.873	41.15
611.996	24.15
612.118	31.15
612.24	20.15
612.362	29.15
612.484	53.15
612.607	40.15
612.729	52.15
612.851	33.15
612.973	9.15
613.095	3.15
613.218	20.15
613.34	25.15
613.462	17.15
613.584	22.15
613.706	23.15
613.828	50.15
613.951	26.15
614.073	14.15
614.195	6.15
614.317	25.15
614.439	36.15
614.561	33.15
614.684	16.15
614.806	33.15
614.928	23.15
615.05	27.15
615.172	34.15
615.294	40.15
615.417	20.15
615.539	14.15
615.661	25.15
615.783	38.15
615.905	16.15
616.027	22.15
616.15	29.15
616.272	22.15
616.394	16.15
616.516	15.15
616.638	18.15
616.76	33.15
616.883	35.15
617.005	31.15
617.127	20.15
617.249	15.15
617.371	21.15
617.493	27.15
617.615	24.15
617.738	32.15
617.86	22.15
617.982	20.15
618.104	24.15
618.226	14.15
618.348	20.15
618.471	37.15
618.593	25.15
618.715	18.15
618.837	21.15
618.959	25.15
619.081	31.15
619.203	40.15
619.326	27.15
619.448	22.15
619.57	38.15
619.692	29.15
619.814	28.15
619.936	20.15
620.058	36.15
620.181	28.15
620.303	19.15
620.425	34.15
620.547	21.15
620.669	-1.85
620.791	25.15
620.913	18.15
621.036	2.15
621.158	39.15
621.28	21.15
621.402	2.15
621.524	21.15
621.646	24.15
621.768	13.15
621.891	15.15
622.013	40.15
622.135	13.15
622.257	18.15
622.379	26.15
622.501	27.15
622.623	21.15
622.745	42.15
622.868	28.15
622.99	23.15
623.112	8.15
623.234	15.15
623.356	14.15
623.478	-5.85
623.6	20.15
623.722	26.15
623.845	25.15
623.967	29.15
624.089	24.15
624.211	22.15
624.333	33.15
624.455	14.15
624.577	3.15
624.699	19.15
624.822	20.15
624.944	27.15
625.066	19.15
625.188	9.15
625.31	30.15
625.432	33.15
625.554	19.15
625.676	42.15
625.799	25.15
625.921	26.15
626.043	29.15
626.165	28.15
626.287	-4.85
626.409	31.15
626.531	16.15
626.653	0.15
626.775	0.15
626.898	32.15
627.02	26.15
627.142	42.15
627.264	30.15
627.386	27.15
627.508	29.15
627.63	0.15
627.752	19.15
627.874	26.15
627.997	29.15
628.119	25.15
628.241	14.15
628.363	39.15
628.485	24.15
628.607	28.15
628.729	7.15
628.851	9.15
628.973	27.15
629.096	19.15
629.218	15.15
629.34	13.15
629.462	14.15
629.584	4.15
629.706	15.15
629.828	12.15
629.95	17.15
630.072	21.15
630.195	12.15
630.317	17.15
630.439	10.15
630.561	17.15
630.683	13.15
630.805	11.15
630.927	31.15
631.049	12.15
631.171	17.15
631.293	27.15
631.416	31.15
631.538	23.15
631.66	11.15
631.782	22.15
631.904	32.15
632.026	13.15
632.148	6.15
632.27	1.15
632.392	27.15
632.514	18.15
632.637	18.15
632.759	18.15
632.881	22.15
633.003	17.15
633.125	-8.85
633.247	27.15
633.369	23.15
633.491	0.15
633.613	28.15
633.735	19.15
633.858	22.15
633.98	28.15
634.102	10.15
634.224	21.15
634.346	22.15
634.468	14.15
634.59	19.15
634.712	15.15
634.834	8.15
634.956	0.15
635.078	7.15
635.201	3.15
635.323	14.15
635.445	3.15
635.567	4.15
635.689	23.15
635.811	13.15
635.933	8.15
636.055	10.15
636.177	7.15
636.299	20.15
636.421	3.15
636.544	6.15
636.666	43.15
636.788	18.15
636.91	23.15
637.032	7.15
637.154	23.15
637.276	40.15
637.398	31.15
637.52	29.15
637.642	25.15
637.764	11.15
637.887	19.15
638.009	5.15
638.131	14.15
638.253	3.15
638.375	-1.85
638.497	19.15
638.619	-2.85
638.741	31.15
638.863	-9.85
638.985	10.15
639.107	0.15
639.23	16.15
639.352	23.15
639.474	10.15
639.596	19.15
639.718	13.15
639.84	16.15
639.962	19.15
640.084	10.15
640.206	19.15
640.328	-6.85
640.45	11.15
640.573	7.15
640.695	4.15
640.817	27.15
640.939	21.15
641.061	14.15
641.183	9.15
641.305	18.15
641.427	13.15
641.549	19.15
641.671	23.15
641.793	16.15
641.915	32.15
642.038	27.15
642.16	25.15
642.282	10.15
642.404	11.15
642.526	8.15
642.648	31.15
642.77	3.15
642.892	2.15
643.014	32.15
643.136	22.15
643.258	20.15
643.381	29.15
643.503	27.15
643.625	9.15
643.747	-2.85
643.869	6.15
643.991	11.15
644.113	18.15
644.235	16.15
644.357	18.15
644.479	32.15
644.601	16.15
644.723	19.15
644.846	13.15
644.968	16.15
645.09	12.15
645.212	11.15
645.334	23.15
645.456	23.15
645.578	19.15
645.7	11.15
645.822	14.15
645.944	27.15
646.066	23.15
646.188	18.15
646.311	32.15
646.433	8.15
646.555	47.15
646.677	30.15
646.799	17.15
646.921	12.15
647.043	24.15
647.165	3.15
647.287	23.15
647.409	19.15
647.531	18.15
647.654	-1.85
647.776	10.15
647.898	29.15
648.02	-0.85
648.142	7.15
648.264	0.15
648.386	3.15
648.508	6.15
648.63	17.15
648.752	31.15
648.874	30.15
648.997	18.15
649.119	27.15
649.241	14.15
649.363	39.15
649.485	16.15
649.607	-0.85
649.729	-13.85
649.851	18.15
649.973	10.15
650.095	18.15
650.217	19.15
650.34	6.15
650.462	11.15
650.584	27.15
650.706	22.15
650.828	19.15
650.95	-6.85
651.072	26.15
651.194	-1.85
651.316	13.15
651.438	21.15
651.56	-0.85
651.683	-8.85
651.805	7.15
651.927	15.15
652.049	2.15
652.171	0.15
652.293	6.15
652.415	7.15
652.537	-1.85
652.659	6.15
652.781	26.15
652.903	8.15
653.026	35.15
653.148	23.15
653.27	0.15
653.392	25.15
653.514	20.15
653.636	16.15
653.758	15.15
653.88	23.15
654.002	7.15
654.124	15.15
654.247	7.15
654.369	7.15
654.491	-1.85
654.613	10.15
654.735	6.15
654.857	13.15
654.979	13.15
655.101	23.15
655.223	41.15
655.345	16.15
655.468	22.15
655.59	27.15
655.712	4.15
655.834	8.15
655.956	22.15
656.078	4.15
656.2	18.15
656.322	11.15
656.444	-0.85
656.566	37.15
656.689	8.15
656.811	18.15
656.933	3.15
657.055	3.15
657.177	6.15
657.299	12.15
657.421	14.15
657.543	-4.85
657.665	0.15
657.787	7.15
657.91	-3.85
658.032	3.15
658.154	14.15
658.276	18.15
658.398	12.15
658.52	8.15
658.642	7.15
658.764	15.15
658.886	-5.85
659.009	13.15
659.131	28.15
659.253	20.15
659.375	38.15
659.497	12.15
659.619	14.15
659.741	12.15
659.863	4.15
659.985	7.15
660.108	20.15
660.23	18.15
660.352	13.15
660.474	11.15
660.596	18.15
660.718	26.15
660.84	22.15
660.962	22.15
661.084	9.15
661.207	15.15
661.329	16.15
661.451	4.15
661.573	34.15
661.695	30.15
661.817	17.15
661.939	30.15
662.061	45.15
662.184	-0.85
662.306	-13.85
662.428	24.15
662.55	30.15
662.672	14.15
662.794	20.15
662.916	8.15
663.038	3.15
663.161	36.15
663.283	19.15
663.405	19.15
663.527	16.15
663.649	10.15
663.771	4.15
663.893	32.15
664.015	16.15
664.138	23.15
664.26	6.15
664.382	24.15
664.504	15.15
664.626	13.15
664.748	34.15
664.87	-2.85
664.992	11.15
665.115	23.15
665.237	31.15
665.359	0.15
665.481	8.15
665.603	14.15
665.725	10.15
665.847	3.15
665.97	6.15
666.092	-0.85
666.214	33.15
666.336	12.15
666.458	18.15
666.58	9.15
666.702	0.15
666.825	8.15
666.947	-6.85
667.069	9.15
667.191	17.15
667.313	10.15
667.435	7.15
667.557	-4.85
667.68	-5.85
667.802	-4.85
667.924	11.15
668.046	26.15
668.168	27.15
668.29	40.15
668.412	14.15
668.535	8.15
668.657	14.15
668.779	6.15
668.901	26.15
669.023	14.15
669.145	-8.85
669.267	28.15
669.39	-2.85
669.512	23.15
669.634	1.15
669.756	4.15
669.878	12.15
670	10.15
670.123	18.15
670.245	39.15
670.367	24.15
670.489	38.15
670.611	11.15
670.733	10.15
670.856	9.15
670.978	16.15
671.1	9.15
671.222	16.15
671.344	20.15
671.466	11.15
671.589	27.15
671.711	18.15
671.833	-4.85
671.955	6.15
672.077	17.15
672.199	30.15
672.322	37.15
672.444	15.15
672.566	25.15
672.688	13.15
672.81	13.15
672.932	12.15
673.055	4.15
673.177	-3.85
673.299	14.15
673.421	4.15
673.543	11.15
673.665	16.15
673.788	23.15
673.91	8.15
674.032	-18.85
674.154	0.15
674.276	19.15
674.399	9.15
674.521	15.15
674.643	23.15
674.765	9.15
674.887	14.15
675.009	22.15
675.132	20.15
675.254	23.15
675.376	16.15
675.498	9.15
675.62	20.15
675.743	23.15
675.865	12.15
675.987	-2.85
676.109	18.15
676.231	25.15
676.354	29.15
676.476	19.15
676.598	22.15
676.72	14.15
676.842	2.15
676.965	25.15
677.087	19.15
677.209	14.15
677.331	18.15
677.453	32.15
677.576	20.15
677.698	13.15
677.82	35.15
677.942	7.15
678.064	12.15
678.187	16.15
678.309	16.15
678.431	-0.85
678.553	19.15
678.675	19.15
678.798	31.15
678.92	10.15
679.042	10.15
679.164	1.15
679.286	22.15
679.409	9.15
679.531	7.15
679.653	7.15
679.775	24.15
679.898	10.15
680.02	7.15
680.142	-7.85
680.264	17.15
680.386	-6.85
680.509	15.15
680.631	35.15
680.753	17.15
680.875	10.15
680.998	8.15
681.12	11.15
681.242	28.15
681.364	8.15
681.486	8.15
681.609	6.15
681.731	2.15
681.853	17.15
681.975	18.15
682.098	16.15
682.22	23.15
682.342	11.15
682.464	20.15
682.587	10.15
682.709	-2.85
682.831	-0.85
682.953	9.15
683.076	5.15
683.198	14.15
683.32	7.15
683.442	10.15
683.565	22.15
683.687	14.15
683.809	10.15
683.931	-4.85
684.054	17.15
684.176	22.15
684.298	12.15
684.42	1.15
684.543	9.15
684.665	4.15
684.787	-7.85
684.909	8.15
685.032	22.15
685.154	-13.85
685.276	-0.85
685.398	-6.85
685.521	-17.85
685.643	14.15
685.765	24.15
685.887	7.15
686.01	16.15
686.132	25.15
686.254	12.15
686.377	20.15
686.499	17.15
686.621	27.15
686.743	11.15
686.866	19.15
686.988	24.15
687.11	19.15
687.232	11.15
687.355	-0.85
687.477	20.15
687.599	20.15
687.722	11.15
687.844	-1.85
687.966	12.15
688.088	6.15
688.211	34.15
688.333	27.15
688.455	22.15
688.578	27.15
688.7	19.15
688.822	22.15
688.944	0.15
689.067	36.15
689.189	7.15
689.311	14.15
689.434	13.15
689.556	26.15
689.678	22.15
689.801	-6.85
689.923	8.15
690.045	34.15
690.167	30.15
690.29	27.15
690.412	2.15
690.534	27.15
690.657	-0.85
690.779	1.15
690.901	20.15
691.024	3.15
691.146	22.15
691.268	6.15
691.391	34.15
691.513	29.15
691.635	26.15
691.758	22.15
691.88	36.15
692.002	14.15
692.125	16.15
692.247	5.15
692.369	8.15
692.492	8.15
692.614	17.15
692.736	10.15
692.859	10.15
692.981	26.15
693.103	21.15
693.226	15.15
693.348	39.15
693.47	25.15
693.593	32.15
693.715	32.15
693.837	55.15
693.96	13.15
694.082	10.15
694.204	11.15
694.327	10.15
694.449	1.15
694.571	11.15
694.694	14.15
694.816	17.15
694.938	14.15
695.061	-12.85
695.183	17.15
695.305	12.15
695.428	21.15
695.55	4.15
695.672	5.15
695.795	20.15
695.917	36.15
696.04	0.15
696.162	-1.85
696.284	6.15
696.407	26.15
696.529	28.15
696.651	29.15
696.774	9.15
696.896	14.15
697.019	1.15
697.141	25.15
697.263	5.15
697.386	16.15
697.508	14.15
697.63	11.15
697.753	16.15
697.875	14.15
697.998	1.15
698.12	29.15
698.242	15.15
698.365	16.15
698.487	18.15
698.61	19.15
698.732	7.15
698.854	24.15
698.977	12.15
699.099	11.15
699.221	11.15
699.344	-2.85
699.466	17.15
699.589	32.15
699.711	6.15
699.834	11.15
699.956	-0.85
700.078	6.15
700.201	2.15
700.323	29.15
700.446	6.15
700.568	11.15
700.69	17.15
700.813	17.15
700.935	14.15
701.058	11.15
701.18	18.15
701.302	4.15
701.425	11.15
701.547	30.15
701.67	-4.85
701.792	5.15
701.915	15.15
702.037	5.15
702.159	14.15
702.282	7.15
702.404	3.15
702.527	13.15
702.649	36.15
702.772	13.15
702.894	15.15
703.017	29.15
703.139	19.15
703.261	24.15
703.384	11.15
703.506	6.15
703.629	5.15
703.751	14.15
703.874	16.15
703.996	-8.85
704.119	-2.85
704.241	19.15
704.364	1.15
704.486	20.15
704.608	30.15
704.731	34.15
704.853	22.15
704.976	2.15
705.098	26.15
705.221	17.15
705.343	11.15
705.466	11.15
705.588	28.15
705.711	15.15
705.833	16.15
705.956	18.15
706.078	25.15
706.201	6.15
706.323	13.15
706.446	23.15
