Data from LowRes_mercury_15_20_11_07_2024_HR4C61881__70__15-23-39-270.txt Node

Date: Thu Nov 07 15:23:39 EST 2024
User: crc00042
Spectrometer: HR4C6188
Trigger mode: 4
Integration Time (sec): 1.000000E-1
Scans to average: 1
Electric dark correction enabled: true
Nonlinearity correction enabled: false
Boxcar width: 0
XAxis mode: Wavelengths
Number of Pixels in Spectrum: 3648
>>>>>Begin Spectral Data<<<<<
245.66	-91.77
245.797	-91.77
245.934	-91.77
246.071	-63.77
246.208	3.23
246.344	-4.77
246.481	0.23
246.618	-13.77
246.755	26.23
246.892	6.23
247.029	-12.77
247.165	-23.77
247.302	20.23
247.439	1.23
247.576	11.23
247.713	-11.77
247.849	14.23
247.986	-12.77
248.123	13.23
248.26	-14.77
248.396	11.23
248.533	28.23
248.67	15.23
248.806	20.23
248.943	-15.77
249.08	-2.77
249.216	6.23
249.353	-25.77
249.49	-7.77
249.626	-2.77
249.763	1.23
249.9	-0.77
250.036	10.23
250.173	-0.77
250.309	8.23
250.446	6.23
250.582	1.23
250.719	6.23
250.856	2.23
250.992	-24.77
251.129	-1.77
251.265	-1.77
251.402	-2.77
251.538	9.23
251.675	0.23
251.811	13.23
251.948	16.23
252.084	13.23
252.221	16.23
252.357	-9.77
252.493	15.23
252.63	-7.77
252.766	19.23
252.903	9.23
253.039	4.23
253.175	4.23
253.312	16.23
253.448	-11.77
253.585	-18.77
253.721	10.23
253.857	12.23
253.994	20.23
254.13	-11.77
254.266	3.23
254.403	-7.77
254.539	7.23
254.675	30.23
254.811	4.23
254.948	-5.77
255.084	15.23
255.22	6.23
255.356	9.23
255.493	4.23
255.629	3.23
255.765	15.23
255.901	18.23
256.037	15.23
256.174	13.23
256.31	0.23
256.446	4.23
256.582	6.23
256.718	8.23
256.854	25.23
256.991	13.23
257.127	29.23
257.263	26.23
257.399	-5.77
257.535	-18.77
257.671	12.23
257.807	-2.77
257.943	-2.77
258.079	-0.77
258.215	-7.77
258.351	6.23
258.487	2.23
258.623	19.23
258.759	-2.77
258.895	10.23
259.031	9.23
259.167	-6.77
259.303	1.23
259.439	-11.77
259.575	17.23
259.711	13.23
259.847	-12.77
259.983	10.23
260.119	11.23
260.255	-6.77
260.391	2.23
260.527	20.23
260.663	25.23
260.799	19.23
260.934	0.23
261.07	1.23
261.206	-7.77
261.342	-4.77
261.478	19.23
261.614	33.23
261.749	16.23
261.885	10.23
262.021	9.23
262.157	24.23
262.293	19.23
262.428	-2.77
262.564	6.23
262.7	15.23
262.836	-13.77
262.971	25.23
263.107	18.23
263.243	23.23
263.378	-6.77
263.514	-19.77
263.65	-14.77
263.785	-4.77
263.921	-3.77
264.057	10.23
264.192	13.23
264.328	22.23
264.464	-7.77
264.599	11.23
264.735	13.23
264.871	3.23
265.006	23.23
265.142	16.23
265.277	1.23
265.413	17.23
265.548	36.23
265.684	28.23
265.819	-0.77
265.955	-8.77
266.091	4.23
266.226	-0.77
266.362	13.23
266.497	14.23
266.633	12.23
266.768	-6.77
266.903	-1.77
267.039	26.23
267.174	20.23
267.31	-1.77
267.445	-3.77
267.581	9.23
267.716	15.23
267.851	17.23
267.987	5.23
268.122	28.23
268.258	10.23
268.393	-9.77
268.528	6.23
268.664	0.23
268.799	-15.77
268.934	4.23
269.07	-15.77
269.205	18.23
269.34	43.23
269.476	24.23
269.611	-3.77
269.746	9.23
269.881	12.23
270.017	4.23
270.152	-5.77
270.287	2.23
270.422	24.23
270.558	6.23
270.693	-5.77
270.828	-10.77
270.963	8.23
271.098	3.23
271.234	-7.77
271.369	36.23
271.504	4.23
271.639	-3.77
271.774	6.23
271.909	8.23
272.045	-2.77
272.18	19.23
272.315	-4.77
272.45	30.23
272.585	-11.77
272.72	-15.77
272.855	0.23
272.99	23.23
273.125	2.23
273.26	-17.77
273.395	-2.77
273.53	16.23
273.665	22.23
273.8	-10.77
273.935	-0.77
274.07	5.23
274.205	3.23
274.34	-11.77
274.475	0.23
274.61	26.23
274.745	-8.77
274.88	25.23
275.015	-2.77
275.15	6.23
275.285	19.23
275.42	28.23
275.555	33.23
275.69	26.23
275.825	-1.77
275.959	29.23
276.094	-0.77
276.229	-3.77
276.364	3.23
276.499	6.23
276.634	7.23
276.768	4.23
276.903	23.23
277.038	26.23
277.173	5.23
277.308	8.23
277.442	-5.77
277.577	0.23
277.712	9.23
277.847	3.23
277.981	-4.77
278.116	0.23
278.251	6.23
278.386	-4.77
278.52	3.23
278.655	0.23
278.79	14.23
278.924	4.23
279.059	2.23
279.194	12.23
279.328	36.23
279.463	14.23
279.598	18.23
279.732	12.23
279.867	19.23
280.001	32.23
280.136	21.23
280.271	15.23
280.405	6.23
280.54	6.23
280.674	-9.77
280.809	11.23
280.943	9.23
281.078	19.23
281.213	24.23
281.347	11.23
281.482	32.23
281.616	16.23
281.751	4.23
281.885	-3.77
282.02	13.23
282.154	11.23
282.288	-5.77
282.423	-9.77
282.557	-15.77
282.692	22.23
282.826	-0.77
282.961	-3.77
283.095	-2.77
283.229	-13.77
283.364	-9.77
283.498	1.23
283.633	10.23
283.767	-1.77
283.901	16.23
284.036	27.23
284.17	7.23
284.304	2.23
284.439	8.23
284.573	2.23
284.707	25.23
284.842	4.23
284.976	-0.77
285.11	-4.77
285.244	13.23
285.379	51.23
285.513	1.23
285.647	7.23
285.781	13.23
285.916	16.23
286.05	-13.77
286.184	26.23
286.318	7.23
286.453	12.23
286.587	-8.77
286.721	-0.77
286.855	6.23
286.989	15.23
287.123	-5.77
287.258	7.23
287.392	17.23
287.526	7.23
287.66	-4.77
287.794	12.23
287.928	5.23
288.062	7.23
288.196	-18.77
288.33	5.23
288.464	13.23
288.598	25.23
288.733	10.23
288.867	23.23
289.001	19.23
289.135	8.23
289.269	-17.77
289.403	-8.77
289.537	0.23
289.671	21.23
289.805	2.23
289.939	13.23
290.073	16.23
290.207	3.23
290.34	-9.77
290.474	19.23
290.608	10.23
290.742	7.23
290.876	-6.77
291.01	12.23
291.144	32.23
291.278	41.23
291.412	24.23
291.546	14.23
291.679	-2.77
291.813	4.23
291.947	1.23
292.081	-1.77
292.215	10.23
292.349	10.23
292.482	23.23
292.616	-5.77
292.75	12.23
292.884	15.23
293.018	-1.77
293.151	-16.77
293.285	18.23
293.419	19.23
293.553	11.23
293.686	-10.77
293.82	17.23
293.954	30.23
294.088	36.23
294.221	-0.77
294.355	-7.77
294.489	5.23
294.622	0.23
294.756	7.23
294.89	1.23
295.023	0.23
295.157	8.23
295.291	25.23
295.424	16.23
295.558	7.23
295.691	1.23
295.825	5.23
295.959	5.23
296.092	-0.77
296.226	7.23
296.359	19.23
296.493	7.23
296.627	19.23
296.76	-1.77
296.894	7.23
297.027	17.23
297.161	16.23
297.294	-11.77
297.428	-6.77
297.561	42.23
297.695	-14.77
297.828	7.23
297.962	-0.77
298.095	2.23
298.229	9.23
298.362	-4.77
298.495	13.23
298.629	3.23
298.762	3.23
298.896	11.23
299.029	-10.77
299.162	11.23
299.296	16.23
299.429	-20.77
299.563	-1.77
299.696	-8.77
299.829	3.23
299.963	17.23
300.096	13.23
300.229	0.23
300.363	11.23
300.496	10.23
300.629	-4.77
300.763	3.23
300.896	7.23
301.029	19.23
301.162	-9.77
301.296	0.23
301.429	17.23
301.562	-12.77
301.695	10.23
301.829	14.23
301.962	19.23
302.095	0.23
302.228	-13.77
302.362	5.23
302.495	1.23
302.628	2.23
302.761	8.23
302.894	23.23
303.027	18.23
303.161	-0.77
303.294	6.23
303.427	28.23
303.56	15.23
303.693	-7.77
303.826	-7.77
303.959	-13.77
304.092	-3.77
304.225	-9.77
304.359	9.23
304.492	14.23
304.625	0.23
304.758	29.23
304.891	20.23
305.024	3.23
305.157	3.23
305.29	6.23
305.423	2.23
305.556	6.23
305.689	9.23
305.822	4.23
305.955	5.23
306.088	12.23
306.221	4.23
306.354	-2.77
306.487	-6.77
306.62	-13.77
306.752	2.23
306.885	14.23
307.018	0.23
307.151	11.23
307.284	19.23
307.417	9.23
307.55	11.23
307.683	-8.77
307.816	16.23
307.948	16.23
308.081	30.23
308.214	19.23
308.347	30.23
308.48	-5.77
308.613	-5.77
308.745	18.23
308.878	9.23
309.011	10.23
309.144	25.23
309.277	-16.77
309.409	6.23
309.542	7.23
309.675	6.23
309.808	2.23
309.94	19.23
310.073	-4.77
310.206	-7.77
310.339	17.23
310.471	-3.77
310.604	14.23
310.737	2.23
310.869	7.23
311.002	7.23
311.135	8.23
311.267	-12.77
311.4	3.23
311.533	27.23
311.665	11.23
311.798	-11.77
311.93	18.23
312.063	39.23
312.196	64.23
312.328	72.23
312.461	51.23
312.593	37.23
312.726	57.23
312.859	102.23
312.991	159.23
313.124	35.23
313.256	31.23
313.389	22.23
313.521	11.23
313.654	11.23
313.786	-7.77
313.919	12.23
314.051	8.23
314.184	-3.77
314.316	16.23
314.449	-2.77
314.581	-8.77
314.714	-6.77
314.846	5.23
314.978	-6.77
315.111	10.23
315.243	0.23
315.376	17.23
315.508	10.23
315.641	4.23
315.773	23.23
315.905	22.23
316.038	1.23
316.17	9.23
316.302	2.23
316.435	10.23
316.567	-8.77
316.699	21.23
316.832	-0.77
316.964	10.23
317.096	7.23
317.229	-13.77
317.361	-9.77
317.493	13.23
317.625	10.23
317.758	8.23
317.89	13.23
318.022	18.23
318.155	-10.77
318.287	-6.77
318.419	9.23
318.551	10.23
318.683	12.23
318.816	1.23
318.948	-2.77
319.08	8.23
319.212	17.23
319.344	20.23
319.477	1.23
319.609	11.23
319.741	-0.77
319.873	9.23
320.005	-2.77
320.137	14.23
320.269	15.23
320.401	-6.77
320.534	14.23
320.666	-2.77
320.798	-16.77
320.93	-4.77
321.062	-6.77
321.194	2.23
321.326	-13.77
321.458	4.23
321.59	13.23
321.722	-5.77
321.854	-10.77
321.986	11.23
322.118	8.23
322.25	8.23
322.382	0.23
322.514	-4.77
322.646	7.23
322.778	16.23
322.91	-5.77
323.042	2.23
323.174	20.23
323.306	10.23
323.438	-13.77
323.57	9.23
323.702	22.23
323.834	11.23
323.966	-8.77
324.097	-3.77
324.229	27.23
324.361	18.23
324.493	6.23
324.625	-9.77
324.757	11.23
324.889	-11.77
325.021	6.23
325.152	17.23
325.284	31.23
325.416	0.23
325.548	26.23
325.68	10.23
325.811	37.23
325.943	2.23
326.075	-7.77
326.207	9.23
326.339	9.23
326.47	-1.77
326.602	13.23
326.734	7.23
326.866	5.23
326.997	-14.77
327.129	-16.77
327.261	-12.77
327.392	-12.77
327.524	-5.77
327.656	4.23
327.787	21.23
327.919	-9.77
328.051	23.23
328.182	32.23
328.314	38.23
328.446	13.23
328.577	19.23
328.709	7.23
328.841	-12.77
328.972	-2.77
329.104	7.23
329.235	7.23
329.367	-10.77
329.499	6.23
329.63	21.23
329.762	17.23
329.893	23.23
330.025	13.23
330.156	4.23
330.288	-4.77
330.419	4.23
330.551	9.23
330.683	-4.77
330.814	9.23
330.946	19.23
331.077	0.23
331.208	0.23
331.34	12.23
331.471	14.23
331.603	18.23
331.734	-0.77
331.866	-3.77
331.997	14.23
332.129	10.23
332.26	1.23
332.392	3.23
332.523	6.23
332.654	3.23
332.786	10.23
332.917	-10.77
333.048	1.23
333.18	28.23
333.311	-7.77
333.443	7.23
333.574	13.23
333.705	38.23
333.837	34.23
333.968	126.23
334.099	245.23
334.231	227.23
334.362	48.23
334.493	31.23
334.624	31.23
334.756	15.23
334.887	9.23
335.018	2.23
335.15	17.23
335.281	25.23
335.412	26.23
335.543	14.23
335.675	22.23
335.806	3.23
335.937	23.23
336.068	23.23
336.199	49.23
336.331	17.23
336.462	19.23
336.593	34.23
336.724	-12.77
336.855	7.23
336.986	28.23
337.118	9.23
337.249	16.23
337.38	24.23
337.511	20.23
337.642	23.23
337.773	11.23
337.904	16.23
338.035	31.23
338.166	14.23
338.298	18.23
338.429	-1.77
338.56	13.23
338.691	27.23
338.822	25.23
338.953	31.23
339.084	32.23
339.215	29.23
339.346	22.23
339.477	1.23
339.608	16.23
339.739	10.23
339.87	2.23
340.001	8.23
340.132	27.23
340.263	25.23
340.394	0.23
340.525	11.23
340.656	1.23
340.787	5.23
340.918	14.23
341.049	18.23
341.179	11.23
341.31	21.23
341.441	13.23
341.572	26.23
341.703	3.23
341.834	10.23
341.965	16.23
342.096	13.23
342.227	14.23
342.357	9.23
342.488	9.23
342.619	27.23
342.75	8.23
342.881	22.23
343.012	35.23
343.142	56.23
343.273	17.23
343.404	20.23
343.535	49.23
343.666	44.23
343.796	8.23
343.927	17.23
344.058	55.23
344.189	37.23
344.319	43.23
344.45	26.23
344.581	23.23
344.712	10.23
344.842	32.23
344.973	25.23
345.104	30.23
345.234	16.23
345.365	3.23
345.496	32.23
345.626	30.23
345.757	27.23
345.888	24.23
346.018	44.23
346.149	7.23
346.28	46.23
346.41	32.23
346.541	26.23
346.672	24.23
346.802	35.23
346.933	23.23
347.063	17.23
347.194	29.23
347.325	29.23
347.455	55.23
347.586	39.23
347.716	9.23
347.847	19.23
347.977	24.23
348.108	31.23
348.238	36.23
348.369	40.23
348.499	36.23
348.63	40.23
348.76	72.23
348.891	69.23
349.021	67.23
349.152	38.23
349.282	45.23
349.413	55.23
349.543	33.23
349.674	28.23
349.804	50.23
349.935	15.23
350.065	44.23
350.196	16.23
350.326	49.23
350.456	25.23
350.587	29.23
350.717	25.23
350.848	35.23
350.978	45.23
351.108	17.23
351.239	45.23
351.369	19.23
351.499	20.23
351.63	14.23
351.76	14.23
351.89	36.23
352.021	24.23
352.151	17.23
352.281	32.23
352.412	46.23
352.542	23.23
352.672	22.23
352.803	35.23
352.933	34.23
353.063	30.23
353.193	22.23
353.324	22.23
353.454	35.23
353.584	25.23
353.714	9.23
353.845	22.23
353.975	8.23
354.105	28.23
354.235	18.23
354.365	29.23
354.496	14.23
354.626	27.23
354.756	17.23
354.886	27.23
355.016	25.23
355.146	20.23
355.277	35.23
355.407	34.23
355.537	32.23
355.667	15.23
355.797	26.23
355.927	9.23
356.057	28.23
356.187	19.23
356.318	27.23
356.448	31.23
356.578	35.23
356.708	40.23
356.838	43.23
356.968	40.23
357.098	22.23
357.228	27.23
357.358	9.23
357.488	40.23
357.618	58.23
357.748	42.23
357.878	38.23
358.008	18.23
358.138	26.23
358.268	29.23
358.398	36.23
358.528	6.23
358.658	33.23
358.788	28.23
358.918	25.23
359.048	13.23
359.178	38.23
359.308	39.23
359.438	45.23
359.568	41.23
359.698	31.23
359.827	25.23
359.957	21.23
360.087	41.23
360.217	32.23
360.347	44.23
360.477	57.23
360.607	11.23
360.737	53.23
360.866	32.23
360.996	20.23
361.126	22.23
361.256	46.23
361.386	34.23
361.516	49.23
361.645	34.23
361.775	34.23
361.905	20.23
362.035	61.23
362.165	48.23
362.294	45.23
362.424	71.23
362.554	41.23
362.684	39.23
362.813	34.23
362.943	50.23
363.073	51.23
363.203	59.23
363.332	67.23
363.462	83.23
363.592	93.23
363.721	115.23
363.851	161.23
363.981	212.23
364.111	248.23
364.24	331.23
364.37	491.23
364.5	856.23
364.629	1808.23
364.759	3867.23
364.888	6295.23
365.018	9356.23
365.148	14792.23
365.277	12903.23
365.407	4734.23
365.537	3092.23
365.666	4012.23
365.796	1822.23
365.925	823.23
366.055	751.23
366.184	1040.23
366.314	1371.23
366.444	2465.23
366.573	2073.23
366.703	648.23
366.832	223.23
366.962	122.23
367.091	96.23
367.221	67.23
367.35	43.23
367.48	99.23
367.609	59.23
367.739	24.23
367.868	33.23
367.998	58.23
368.127	47.23
368.257	71.23
368.386	48.23
368.516	39.23
368.645	29.23
368.775	48.23
368.904	43.23
369.033	37.23
369.163	42.23
369.292	61.23
369.422	42.23
369.551	34.23
369.68	34.23
369.81	53.23
369.939	10.23
370.069	45.23
370.198	46.23
370.327	24.23
370.457	24.23
370.586	48.23
370.715	29.23
370.845	39.23
370.974	62.23
371.103	55.23
371.233	49.23
371.362	57.23
371.491	30.23
371.621	51.23
371.75	35.23
371.879	32.23
372.008	46.23
372.138	64.23
372.267	42.23
372.396	58.23
372.525	51.23
372.655	42.23
372.784	35.23
372.913	37.23
373.042	36.23
373.172	42.23
373.301	17.23
373.43	24.23
373.559	19.23
373.688	33.23
373.818	16.23
373.947	34.23
374.076	16.23
374.205	38.23
374.334	15.23
374.463	5.23
374.593	20.23
374.722	48.23
374.851	47.23
374.98	15.23
375.109	22.23
375.238	37.23
375.367	59.23
375.496	9.23
375.625	3.23
375.755	40.23
375.884	43.23
376.013	38.23
376.142	17.23
376.271	16.23
376.4	33.23
376.529	36.23
376.658	24.23
376.787	24.23
376.916	17.23
377.045	9.23
377.174	28.23
377.303	31.23
377.432	31.23
377.561	44.23
377.69	40.23
377.819	29.23
377.948	36.23
378.077	13.23
378.206	20.23
378.335	16.23
378.464	6.23
378.593	26.23
378.722	23.23
378.851	32.23
378.98	36.23
379.108	10.23
379.237	4.23
379.366	22.23
379.495	26.23
379.624	35.23
379.753	32.23
379.882	28.23
380.011	12.23
380.14	14.23
380.268	26.23
380.397	7.23
380.526	28.23
380.655	-5.77
380.784	9.23
380.913	7.23
381.041	18.23
381.17	0.23
381.299	27.23
381.428	17.23
381.557	30.23
381.685	32.23
381.814	15.23
381.943	28.23
382.072	18.23
382.2	9.23
382.329	26.23
382.458	24.23
382.587	41.23
382.715	26.23
382.844	22.23
382.973	12.23
383.102	17.23
383.23	15.23
383.359	17.23
383.488	25.23
383.616	4.23
383.745	26.23
383.874	29.23
384.003	19.23
384.131	16.23
384.26	2.23
384.389	30.23
384.517	22.23
384.646	17.23
384.774	15.23
384.903	49.23
385.032	48.23
385.16	29.23
385.289	14.23
385.418	28.23
385.546	15.23
385.675	33.23
385.803	14.23
385.932	31.23
386.06	25.23
386.189	13.23
386.318	26.23
386.446	12.23
386.575	29.23
386.703	32.23
386.832	16.23
386.96	-11.77
387.089	29.23
387.217	17.23
387.346	23.23
387.474	31.23
387.603	20.23
387.731	19.23
387.86	33.23
387.988	29.23
388.117	44.23
388.245	17.23
388.374	22.23
388.502	32.23
388.631	24.23
388.759	15.23
388.888	18.23
389.016	22.23
389.144	8.23
389.273	28.23
389.401	29.23
389.53	10.23
389.658	36.23
389.786	26.23
389.915	11.23
390.043	18.23
390.172	36.23
390.3	44.23
390.428	42.23
390.557	17.23
390.685	39.23
390.813	36.23
390.942	45.23
391.07	4.23
391.198	23.23
391.327	8.23
391.455	6.23
391.583	28.23
391.712	46.23
391.84	52.23
391.968	18.23
392.096	20.23
392.225	0.23
392.353	30.23
392.481	27.23
392.609	40.23
392.738	21.23
392.866	39.23
392.994	28.23
393.122	49.23
393.251	35.23
393.379	23.23
393.507	17.23
393.635	26.23
393.764	35.23
393.892	46.23
394.02	17.23
394.148	28.23
394.276	44.23
394.404	60.23
394.533	41.23
394.661	30.23
394.789	41.23
394.917	41.23
395.045	12.23
395.173	15.23
395.302	32.23
395.43	21.23
395.558	47.23
395.686	23.23
395.814	33.23
395.942	31.23
396.07	31.23
396.198	29.23
396.326	28.23
396.454	55.23
396.582	34.23
396.711	31.23
396.839	37.23
396.967	20.23
397.095	27.23
397.223	26.23
397.351	43.23
397.479	52.23
397.607	39.23
397.735	49.23
397.863	61.23
397.991	48.23
398.119	48.23
398.247	43.23
398.375	24.23
398.503	46.23
398.631	58.23
398.759	71.23
398.887	61.23
399.015	69.23
399.143	68.23
399.271	68.23
399.399	71.23
399.526	85.23
399.654	91.23
399.782	62.23
399.91	80.23
400.038	99.23
400.166	90.23
400.294	90.23
400.422	100.23
400.55	108.23
400.678	117.23
400.805	108.23
400.933	141.23
401.061	113.23
401.189	130.23
401.317	158.23
401.445	123.23
401.573	81.23
401.7	38.23
401.828	52.23
401.956	64.23
402.084	41.23
402.212	37.23
402.34	56.23
402.467	37.23
402.595	49.23
402.723	51.23
402.851	72.23
402.978	67.23
403.106	80.23
403.234	94.23
403.362	97.23
403.489	135.23
403.617	157.23
403.745	207.23
403.873	312.23
404	578.23
404.128	1443.23
404.256	3974.23
404.384	5122.23
404.511	5420.23
404.639	7185.23
404.767	11440.23
404.894	14616.23
405.022	4934.23
405.15	1294.23
405.277	429.23
405.405	246.23
405.533	144.23
405.66	118.23
405.788	75.23
405.916	74.23
406.043	54.23
406.171	72.23
406.299	52.23
406.426	50.23
406.554	57.23
406.681	67.23
406.809	39.23
406.937	56.23
407.064	65.23
407.192	119.23
407.319	317.23
407.447	513.23
407.574	544.23
407.702	621.23
407.83	869.23
407.957	1596.23
408.085	965.23
408.212	280.23
408.34	107.23
408.467	56.23
408.595	34.23
408.722	38.23
408.85	55.23
408.977	33.23
409.105	26.23
409.232	53.23
409.36	40.23
409.487	20.23
409.615	31.23
409.742	41.23
409.87	14.23
409.997	50.23
410.125	46.23
410.252	40.23
410.379	32.23
410.507	43.23
410.634	31.23
410.762	34.23
410.889	40.23
411.017	27.23
411.144	44.23
411.271	25.23
411.399	28.23
411.526	19.23
411.653	27.23
411.781	50.23
411.908	47.23
412.036	16.23
412.163	48.23
412.29	22.23
412.418	26.23
412.545	50.23
412.672	39.23
412.8	35.23
412.927	34.23
413.054	45.23
413.182	42.23
413.309	35.23
413.436	23.23
413.564	27.23
413.691	15.23
413.818	61.23
413.945	16.23
414.073	34.23
414.2	32.23
414.327	49.23
414.454	31.23
414.582	22.23
414.709	13.23
414.836	17.23
414.963	16.23
415.091	32.23
415.218	31.23
415.345	39.23
415.472	23.23
415.6	29.23
415.727	36.23
415.854	22.23
415.981	36.23
416.108	15.23
416.236	20.23
416.363	33.23
416.49	38.23
416.617	24.23
416.744	33.23
416.871	36.23
416.998	20.23
417.126	49.23
417.253	43.23
417.38	41.23
417.507	24.23
417.634	23.23
417.761	47.23
417.888	40.23
418.015	37.23
418.143	31.23
418.27	32.23
418.397	31.23
418.524	54.23
418.651	44.23
418.778	64.23
418.905	59.23
419.032	29.23
419.159	34.23
419.286	65.23
419.413	54.23
419.54	50.23
419.667	35.23
419.794	30.23
419.921	42.23
420.048	44.23
420.175	55.23
420.302	59.23
420.429	50.23
420.556	50.23
420.683	38.23
420.81	60.23
420.937	64.23
421.064	73.23
421.191	48.23
421.318	65.23
421.445	72.23
421.572	58.23
421.699	56.23
421.826	54.23
421.953	35.23
422.08	42.23
422.207	24.23
422.334	16.23
422.461	36.23
422.588	9.23
422.714	23.23
422.841	29.23
422.968	24.23
423.095	21.23
423.222	18.23
423.349	26.23
423.476	34.23
423.603	8.23
423.729	16.23
423.856	33.23
423.983	39.23
424.11	19.23
424.237	44.23
424.364	35.23
424.491	27.23
424.617	11.23
424.744	26.23
424.871	17.23
424.998	20.23
425.125	16.23
425.251	33.23
425.378	15.23
425.505	15.23
425.632	19.23
425.758	19.23
425.885	28.23
426.012	28.23
426.139	25.23
426.266	22.23
426.392	38.23
426.519	41.23
426.646	16.23
426.772	34.23
426.899	23.23
427.026	36.23
427.153	18.23
427.279	44.23
427.406	20.23
427.533	15.23
427.659	24.23
427.786	24.23
427.913	28.23
428.039	13.23
428.166	42.23
428.293	41.23
428.419	29.23
428.546	23.23
428.673	19.23
428.799	18.23
428.926	16.23
429.053	48.23
429.179	23.23
429.306	26.23
429.433	36.23
429.559	54.23
429.686	24.23
429.812	37.23
429.939	28.23
430.066	29.23
430.192	23.23
430.319	32.23
430.445	24.23
430.572	28.23
430.699	24.23
430.825	21.23
430.952	24.23
431.078	37.23
431.205	31.23
431.331	28.23
431.458	37.23
431.584	39.23
431.711	30.23
431.837	24.23
431.964	22.23
432.09	29.23
432.217	4.23
432.343	24.23
432.47	41.23
432.596	36.23
432.723	17.23
432.849	17.23
432.976	32.23
433.102	60.23
433.229	44.23
433.355	61.23
433.482	89.23
433.608	108.23
433.735	95.23
433.861	108.23
433.987	150.23
434.114	189.23
434.24	165.23
434.367	203.23
434.493	216.23
434.62	258.23
434.746	377.23
434.872	626.23
434.999	875.23
435.125	1722.23
435.252	5526.23
435.378	13394.23
435.504	15209.23
435.631	15412.23
435.757	15685.23
435.883	15685.23
436.01	15685.23
436.136	15685.23
436.262	15685.23
436.389	3472.23
436.515	2061.23
436.641	773.23
436.768	628.23
436.894	396.23
437.02	383.23
437.147	300.23
437.273	270.23
437.399	228.23
437.526	244.23
437.652	175.23
437.778	183.23
437.904	154.23
438.031	182.23
438.157	140.23
438.283	159.23
438.409	139.23
438.536	138.23
438.662	125.23
438.788	130.23
438.914	116.23
439.041	116.23
439.167	112.23
439.293	114.23
439.419	106.23
439.546	106.23
439.672	74.23
439.798	82.23
439.924	66.23
440.05	90.23
440.177	87.23
440.303	86.23
440.429	69.23
440.555	70.23
440.681	55.23
440.807	84.23
440.934	78.23
441.06	60.23
441.186	42.23
441.312	79.23
441.438	47.23
441.564	65.23
441.69	62.23
441.816	64.23
441.943	54.23
442.069	55.23
442.195	48.23
442.321	65.23
442.447	52.23
442.573	50.23
442.699	46.23
442.825	46.23
442.951	61.23
443.077	68.23
443.203	65.23
443.33	61.23
443.456	24.23
443.582	40.23
443.708	32.23
443.834	62.23
443.96	50.23
444.086	48.23
444.212	60.23
444.338	54.23
444.464	57.23
444.59	56.23
444.716	33.23
444.842	45.23
444.968	29.23
445.094	25.23
445.22	40.23
445.346	22.23
445.472	39.23
445.598	41.23
445.724	53.23
445.85	56.23
445.976	42.23
446.102	43.23
446.228	38.23
446.354	29.23
446.48	15.23
446.605	28.23
446.731	46.23
446.857	19.23
446.983	29.23
447.109	40.23
447.235	47.23
447.361	37.23
447.487	37.23
447.613	37.23
447.739	31.23
447.865	16.23
447.99	24.23
448.116	36.23
448.242	44.23
448.368	37.23
448.494	14.23
448.62	26.23
448.746	44.23
448.872	42.23
448.997	22.23
449.123	31.23
449.249	40.23
449.375	48.23
449.501	21.23
449.627	14.23
449.752	56.23
449.878	31.23
450.004	22.23
450.13	30.23
450.256	18.23
450.381	29.23
450.507	28.23
450.633	25.23
450.759	40.23
450.884	37.23
451.01	39.23
451.136	38.23
451.262	25.23
451.388	38.23
451.513	14.23
451.639	30.23
451.765	20.23
451.89	27.23
452.016	27.23
452.142	23.23
452.268	27.23
452.393	37.23
452.519	10.23
452.645	41.23
452.771	19.23
452.896	31.23
453.022	26.23
453.148	50.23
453.273	41.23
453.399	20.23
453.525	11.23
453.65	17.23
453.776	40.23
453.902	31.23
454.027	39.23
454.153	23.23
454.279	52.23
454.404	18.23
454.53	46.23
454.656	49.23
454.781	29.23
454.907	31.23
455.032	49.23
455.158	37.23
455.284	56.23
455.409	33.23
455.535	39.23
455.66	40.23
455.786	50.23
455.912	19.23
456.037	22.23
456.163	27.23
456.288	36.23
456.414	29.23
456.539	27.23
456.665	25.23
456.791	23.23
456.916	23.23
457.042	28.23
457.167	-0.77
457.293	29.23
457.418	25.23
457.544	8.23
457.669	20.23
457.795	17.23
457.92	24.23
458.046	30.23
458.171	43.23
458.297	52.23
458.422	37.23
458.548	22.23
458.673	28.23
458.799	29.23
458.924	17.23
459.05	27.23
459.175	33.23
459.301	15.23
459.426	33.23
459.552	20.23
459.677	28.23
459.803	57.23
459.928	25.23
460.053	22.23
460.179	41.23
460.304	47.23
460.43	17.23
460.555	25.23
460.681	23.23
460.806	22.23
460.931	19.23
461.057	37.23
461.182	31.23
461.308	28.23
461.433	29.23
461.558	20.23
461.684	30.23
461.809	24.23
461.934	41.23
462.06	42.23
462.185	32.23
462.311	24.23
462.436	34.23
462.561	27.23
462.687	26.23
462.812	26.23
462.937	26.23
463.063	18.23
463.188	24.23
463.313	31.23
463.439	35.23
463.564	20.23
463.689	28.23
463.814	35.23
463.94	20.23
464.065	34.23
464.19	34.23
464.316	28.23
464.441	20.23
464.566	8.23
464.692	27.23
464.817	42.23
464.942	38.23
465.067	37.23
465.193	23.23
465.318	31.23
465.443	32.23
465.568	18.23
465.694	18.23
465.819	43.23
465.944	29.23
466.069	19.23
466.194	21.23
466.32	41.23
466.445	35.23
466.57	25.23
466.695	29.23
466.82	35.23
466.946	31.23
467.071	30.23
467.196	35.23
467.321	59.23
467.446	42.23
467.572	39.23
467.697	22.23
467.822	42.23
467.947	34.23
468.072	25.23
468.197	38.23
468.323	24.23
468.448	40.23
468.573	27.23
468.698	38.23
468.823	44.23
468.948	42.23
469.073	30.23
469.198	43.23
469.324	44.23
469.449	24.23
469.574	41.23
469.699	40.23
469.824	43.23
469.949	25.23
470.074	34.23
470.199	55.23
470.324	44.23
470.449	43.23
470.574	25.23
470.7	12.23
470.825	36.23
470.95	71.23
471.075	31.23
471.2	33.23
471.325	49.23
471.45	39.23
471.575	44.23
471.7	39.23
471.825	24.23
471.95	44.23
472.075	27.23
472.2	28.23
472.325	29.23
472.45	24.23
472.575	46.23
472.7	41.23
472.825	50.23
472.95	49.23
473.075	49.23
473.2	31.23
473.325	47.23
473.45	43.23
473.575	43.23
473.7	52.23
473.825	30.23
473.95	45.23
474.075	43.23
474.2	31.23
474.325	20.23
474.45	35.23
474.574	25.23
474.699	44.23
474.824	39.23
474.949	13.23
475.074	26.23
475.199	30.23
475.324	26.23
475.449	27.23
475.574	35.23
475.699	48.23
475.824	15.23
475.949	11.23
476.073	15.23
476.198	22.23
476.323	25.23
476.448	22.23
476.573	19.23
476.698	26.23
476.823	27.23
476.947	40.23
477.072	23.23
477.197	29.23
477.322	6.23
477.447	24.23
477.572	15.23
477.697	11.23
477.821	11.23
477.946	18.23
478.071	16.23
478.196	35.23
478.321	13.23
478.445	0.23
478.57	7.23
478.695	16.23
478.82	19.23
478.945	27.23
479.069	18.23
479.194	0.23
479.319	32.23
479.444	37.23
479.569	32.23
479.693	27.23
479.818	27.23
479.943	16.23
480.068	12.23
480.192	19.23
480.317	12.23
480.442	24.23
480.567	15.23
480.691	10.23
480.816	11.23
480.941	15.23
481.066	25.23
481.19	34.23
481.315	26.23
481.44	17.23
481.564	8.23
481.689	27.23
481.814	31.23
481.938	24.23
482.063	18.23
482.188	11.23
482.313	38.23
482.437	17.23
482.562	27.23
482.687	16.23
482.811	26.23
482.936	26.23
483.061	28.23
483.185	38.23
483.31	28.23
483.435	22.23
483.559	20.23
483.684	22.23
483.808	47.23
483.933	15.23
484.058	27.23
484.182	25.23
484.307	31.23
484.432	26.23
484.556	23.23
484.681	30.23
484.805	35.23
484.93	43.23
485.055	24.23
485.179	57.23
485.304	25.23
485.428	26.23
485.553	22.23
485.678	37.23
485.802	27.23
485.927	34.23
486.051	47.23
486.176	35.23
486.3	14.23
486.425	23.23
486.549	42.23
486.674	44.23
486.799	31.23
486.923	7.23
487.048	16.23
487.172	8.23
487.297	32.23
487.421	27.23
487.546	20.23
487.67	39.23
487.795	25.23
487.919	20.23
488.044	41.23
488.168	44.23
488.293	38.23
488.417	24.23
488.542	27.23
488.666	41.23
488.791	30.23
488.915	14.23
489.04	26.23
489.164	20.23
489.289	36.23
489.413	8.23
489.538	34.23
489.662	37.23
489.786	11.23
489.911	34.23
490.035	37.23
490.16	11.23
490.284	18.23
490.409	8.23
490.533	15.23
490.658	54.23
490.782	35.23
490.906	52.23
491.031	125.23
491.155	147.23
491.28	173.23
491.404	173.23
491.528	246.23
491.653	152.23
491.777	54.23
491.902	30.23
492.026	43.23
492.15	30.23
492.275	46.23
492.399	26.23
492.524	4.23
492.648	32.23
492.772	19.23
492.897	34.23
493.021	16.23
493.145	35.23
493.27	39.23
493.394	27.23
493.518	24.23
493.643	15.23
493.767	32.23
493.891	1.23
494.016	16.23
494.14	26.23
494.264	18.23
494.389	13.23
494.513	23.23
494.637	10.23
494.762	42.23
494.886	44.23
495.01	35.23
495.134	39.23
495.259	39.23
495.383	16.23
495.507	19.23
495.632	39.23
495.756	47.23
495.88	28.23
496.004	31.23
496.129	22.23
496.253	26.23
496.377	46.23
496.501	17.23
496.626	12.23
496.75	12.23
496.874	19.23
496.998	10.23
497.123	36.23
497.247	10.23
497.371	36.23
497.495	19.23
497.62	21.23
497.744	2.23
497.868	14.23
497.992	20.23
498.116	26.23
498.241	37.23
498.365	25.23
498.489	5.23
498.613	34.23
498.737	11.23
498.862	36.23
498.986	29.23
499.11	34.23
499.234	32.23
499.358	27.23
499.482	14.23
499.607	34.23
499.731	30.23
499.855	38.23
499.979	21.23
500.103	18.23
500.227	30.23
500.351	14.23
500.476	27.23
500.6	24.23
500.724	30.23
500.848	26.23
500.972	26.23
501.096	15.23
501.22	34.23
501.344	26.23
501.469	25.23
501.593	29.23
501.717	26.23
501.841	21.23
501.965	27.23
502.089	23.23
502.213	31.23
502.337	26.23
502.461	14.23
502.585	18.23
502.709	40.23
502.834	19.23
502.958	28.23
503.082	25.23
503.206	11.23
503.33	22.23
503.454	40.23
503.578	33.23
503.702	25.23
503.826	27.23
503.95	39.23
504.074	36.23
504.198	29.23
504.322	7.23
504.446	18.23
504.57	15.23
504.694	28.23
504.818	35.23
504.942	46.23
505.066	13.23
505.19	26.23
505.314	30.23
505.438	11.23
505.562	9.23
505.686	40.23
505.81	49.23
505.934	44.23
506.058	24.23
506.182	36.23
506.306	30.23
506.43	14.23
506.554	30.23
506.678	11.23
506.802	10.23
506.926	34.23
507.05	40.23
507.174	37.23
507.298	40.23
507.422	41.23
507.546	33.23
507.67	47.23
507.794	4.23
507.918	25.23
508.042	24.23
508.165	13.23
508.289	6.23
508.413	41.23
508.537	17.23
508.661	9.23
508.785	22.23
508.909	32.23
509.033	20.23
509.157	35.23
509.281	30.23
509.405	29.23
509.528	59.23
509.652	56.23
509.776	41.23
509.9	43.23
510.024	33.23
510.148	28.23
510.272	47.23
510.396	61.23
510.519	41.23
510.643	59.23
510.767	25.23
510.891	44.23
511.015	28.23
511.139	32.23
511.263	59.23
511.386	46.23
511.51	49.23
511.634	39.23
511.758	32.23
511.882	38.23
512.006	62.23
512.129	54.23
512.253	95.23
512.377	82.23
512.501	111.23
512.625	65.23
512.748	97.23
512.872	66.23
512.996	57.23
513.12	66.23
513.244	45.23
513.367	80.23
513.491	69.23
513.615	78.23
513.739	82.23
513.862	89.23
513.986	88.23
514.11	106.23
514.234	109.23
514.358	108.23
514.481	114.23
514.605	121.23
514.729	130.23
514.853	122.23
514.976	98.23
515.1	101.23
515.224	114.23
515.348	111.23
515.471	78.23
515.595	97.23
515.719	129.23
515.842	209.23
515.966	269.23
516.09	316.23
516.214	323.23
516.337	337.23
516.461	218.23
516.585	91.23
516.708	52.23
516.832	46.23
516.956	25.23
517.08	26.23
517.203	7.23
517.327	34.23
517.451	27.23
517.574	26.23
517.698	16.23
517.822	25.23
517.945	17.23
518.069	14.23
518.193	53.23
518.316	32.23
518.44	51.23
518.564	22.23
518.687	4.23
518.811	30.23
518.935	32.23
519.058	18.23
519.182	26.23
519.306	29.23
519.429	19.23
519.553	50.23
519.676	22.23
519.8	16.23
519.924	18.23
520.047	42.23
520.171	16.23
520.294	20.23
520.418	35.23
520.542	21.23
520.665	27.23
520.789	22.23
520.913	15.23
521.036	13.23
521.16	18.23
521.283	28.23
521.407	9.23
521.53	7.23
521.654	16.23
521.778	27.23
521.901	32.23
522.025	19.23
522.148	10.23
522.272	28.23
522.395	16.23
522.519	21.23
522.643	11.23
522.766	6.23
522.89	-7.77
523.013	26.23
523.137	16.23
523.26	8.23
523.384	30.23
523.507	36.23
523.631	25.23
523.754	27.23
523.878	11.23
524.002	21.23
524.125	15.23
524.249	5.23
524.372	32.23
524.496	26.23
524.619	30.23
524.743	27.23
524.866	11.23
524.99	7.23
525.113	-5.77
525.237	30.23
525.36	24.23
525.484	13.23
525.607	23.23
525.731	16.23
525.854	12.23
525.978	18.23
526.101	18.23
526.224	12.23
526.348	12.23
526.471	36.23
526.595	16.23
526.718	9.23
526.842	4.23
526.965	47.23
527.089	33.23
527.212	26.23
527.336	0.23
527.459	26.23
527.582	22.23
527.706	32.23
527.829	15.23
527.953	12.23
528.076	15.23
528.2	7.23
528.323	24.23
528.446	57.23
528.57	43.23
528.693	27.23
528.817	17.23
528.94	28.23
529.064	47.23
529.187	8.23
529.31	17.23
529.434	28.23
529.557	34.23
529.68	25.23
529.804	28.23
529.927	21.23
530.051	13.23
530.174	4.23
530.297	14.23
530.421	34.23
530.544	41.23
530.668	15.23
530.791	19.23
530.914	22.23
531.038	18.23
531.161	7.23
531.284	19.23
531.408	24.23
531.531	15.23
531.654	30.23
531.778	31.23
531.901	-1.77
532.024	14.23
532.148	3.23
532.271	31.23
532.394	30.23
532.518	35.23
532.641	25.23
532.764	22.23
532.888	33.23
533.011	23.23
533.134	17.23
533.258	32.23
533.381	33.23
533.504	7.23
533.628	14.23
533.751	20.23
533.874	25.23
533.997	35.23
534.121	4.23
534.244	32.23
534.367	17.23
534.491	9.23
534.614	32.23
534.737	29.23
534.86	21.23
534.984	4.23
535.107	13.23
535.23	12.23
535.354	12.23
535.477	10.23
535.6	13.23
535.723	27.23
535.847	24.23
535.97	3.23
536.093	7.23
536.216	6.23
536.34	19.23
536.463	18.23
536.586	23.23
536.709	13.23
536.833	23.23
536.956	11.23
537.079	14.23
537.202	13.23
537.325	17.23
537.449	27.23
537.572	23.23
537.695	14.23
537.818	24.23
537.941	18.23
538.065	10.23
538.188	24.23
538.311	37.23
538.434	31.23
538.558	29.23
538.681	28.23
538.804	17.23
538.927	21.23
539.05	23.23
539.173	21.23
539.297	3.23
539.42	16.23
539.543	23.23
539.666	36.23
539.789	27.23
539.913	13.23
540.036	24.23
540.159	23.23
540.282	7.23
540.405	21.23
540.528	14.23
540.651	18.23
540.775	22.23
540.898	38.23
541.021	19.23
541.144	43.23
541.267	41.23
541.39	29.23
541.513	36.23
541.637	35.23
541.76	36.23
541.883	26.23
542.006	23.23
542.129	37.23
542.252	18.23
542.375	41.23
542.498	39.23
542.622	58.23
542.745	59.23
542.868	37.23
542.991	40.23
543.114	71.23
543.237	64.23
543.36	55.23
543.483	52.23
543.606	68.23
543.73	94.23
543.853	82.23
543.976	95.23
544.099	122.23
544.222	136.23
544.345	147.23
544.468	157.23
544.591	217.23
544.714	275.23
544.837	336.23
544.96	438.23
545.083	676.23
545.206	1088.23
545.329	2420.23
545.453	10923.23
545.576	15258.23
545.699	15685.23
545.822	15685.23
545.945	15685.23
546.068	15685.23
546.191	15685.23
546.314	15685.23
546.437	15685.23
546.56	15685.23
546.683	15685.23
546.806	15685.23
546.929	15685.23
547.052	15685.23
547.175	15685.23
547.298	15685.23
547.421	15685.23
547.544	15685.23
547.667	3543.23
547.79	2318.23
547.913	1002.23
548.036	881.23
548.159	650.23
548.282	634.23
548.405	481.23
548.528	489.23
548.651	404.23
548.774	390.23
548.897	346.23
549.02	370.23
549.143	311.23
549.266	296.23
549.389	276.23
549.512	249.23
549.635	263.23
549.758	269.23
549.881	222.23
550.004	215.23
550.127	181.23
550.25	185.23
550.373	183.23
550.496	176.23
550.619	161.23
550.742	159.23
550.865	142.23
550.988	164.23
551.111	168.23
551.234	157.23
551.356	146.23
551.479	136.23
551.602	123.23
551.725	129.23
551.848	126.23
551.971	139.23
552.094	127.23
552.217	109.23
552.34	128.23
552.463	72.23
552.586	100.23
552.709	95.23
552.832	98.23
552.955	127.23
553.077	106.23
553.2	105.23
553.323	88.23
553.446	105.23
553.569	95.23
553.692	119.23
553.815	105.23
553.938	97.23
554.061	115.23
554.184	94.23
554.306	79.23
554.429	98.23
554.552	90.23
554.675	71.23
554.798	79.23
554.921	64.23
555.044	73.23
555.167	83.23
555.29	68.23
555.412	68.23
555.535	78.23
555.658	85.23
555.781	62.23
555.904	71.23
556.027	79.23
556.15	75.23
556.272	71.23
556.395	68.23
556.518	77.23
556.641	79.23
556.764	80.23
556.887	74.23
557.01	65.23
557.132	52.23
557.255	71.23
557.378	87.23
557.501	75.23
557.624	73.23
557.747	61.23
557.869	65.23
557.992	88.23
558.115	102.23
558.238	83.23
558.361	77.23
558.483	103.23
558.606	71.23
558.729	63.23
558.852	85.23
558.975	57.23
559.098	70.23
559.22	64.23
559.343	68.23
559.466	48.23
559.589	63.23
559.712	56.23
559.834	59.23
559.957	62.23
560.08	49.23
560.203	51.23
560.325	73.23
560.448	68.23
560.571	60.23
560.694	56.23
560.817	64.23
560.939	48.23
561.062	62.23
561.185	53.23
561.308	64.23
561.43	63.23
561.553	74.23
561.676	71.23
561.799	86.23
561.921	76.23
562.044	60.23
562.167	53.23
562.29	83.23
562.413	83.23
562.535	86.23
562.658	40.23
562.781	78.23
562.903	66.23
563.026	100.23
563.149	134.23
563.272	111.23
563.394	122.23
563.517	108.23
563.64	75.23
563.763	63.23
563.885	52.23
564.008	90.23
564.131	52.23
564.254	45.23
564.376	47.23
564.499	30.23
564.622	42.23
564.744	45.23
564.867	40.23
564.99	37.23
565.113	55.23
565.235	40.23
565.358	44.23
565.481	42.23
565.603	40.23
565.726	30.23
565.849	53.23
565.971	50.23
566.094	17.23
566.217	49.23
566.34	38.23
566.462	30.23
566.585	46.23
566.708	53.23
566.83	30.23
566.953	65.23
567.076	47.23
567.198	44.23
567.321	27.23
567.444	48.23
567.566	39.23
567.689	44.23
567.812	19.23
567.934	52.23
568.057	52.23
568.18	38.23
568.302	33.23
568.425	10.23
568.548	48.23
568.67	40.23
568.793	38.23
568.916	33.23
569.038	14.23
569.161	41.23
569.283	42.23
569.406	45.23
569.529	36.23
569.651	36.23
569.774	23.23
569.897	32.23
570.019	51.23
570.142	33.23
570.265	30.23
570.387	33.23
570.51	54.23
570.632	68.23
570.755	30.23
570.878	41.23
571	50.23
571.123	30.23
571.246	45.23
571.368	35.23
571.491	25.23
571.613	18.23
571.736	15.23
571.859	18.23
571.981	27.23
572.104	34.23
572.226	32.23
572.349	24.23
572.472	32.23
572.594	47.23
572.717	18.23
572.839	19.23
572.962	28.23
573.085	43.23
573.207	41.23
573.33	27.23
573.452	29.23
573.575	32.23
573.697	46.23
573.82	30.23
573.943	41.23
574.065	39.23
574.188	34.23
574.31	53.23
574.433	33.23
574.555	46.23
574.678	40.23
574.801	37.23
574.923	30.23
575.046	35.23
575.168	45.23
575.291	45.23
575.413	26.23
575.536	38.23
575.659	64.23
575.781	66.23
575.904	72.23
576.026	88.23
576.149	87.23
576.271	122.23
576.394	203.23
576.516	533.23
576.639	3684.23
576.761	10125.23
576.884	8792.23
577.007	8716.23
577.129	7991.23
577.252	3709.23
577.374	1296.23
577.497	512.23
577.619	291.23
577.742	160.23
577.864	153.23
577.987	142.23
578.109	137.23
578.232	128.23
578.354	168.23
578.477	229.23
578.599	388.23
578.722	1969.23
578.844	9092.23
578.967	9800.23
579.089	8717.23
579.212	9087.23
579.334	5267.23
579.457	1918.23
579.579	715.23
579.702	325.23
579.824	224.23
579.947	141.23
580.069	119.23
580.192	86.23
580.314	94.23
580.437	65.23
580.559	93.23
580.682	67.23
580.804	80.23
580.927	68.23
581.049	78.23
581.172	57.23
581.294	59.23
581.417	55.23
581.539	66.23
581.662	48.23
581.784	46.23
581.907	46.23
582.029	50.23
582.152	49.23
582.274	54.23
582.396	27.23
582.519	45.23
582.641	35.23
582.764	25.23
582.886	59.23
583.009	35.23
583.131	33.23
583.254	32.23
583.376	54.23
583.499	35.23
583.621	40.23
583.743	46.23
583.866	50.23
583.988	40.23
584.111	31.23
584.233	45.23
584.356	43.23
584.478	38.23
584.601	10.23
584.723	38.23
584.845	54.23
584.968	19.23
585.09	22.23
585.213	39.23
585.335	28.23
585.458	25.23
585.58	37.23
585.702	54.23
585.825	52.23
585.947	27.23
586.07	6.23
586.192	24.23
586.315	43.23
586.437	22.23
586.559	27.23
586.682	25.23
586.804	54.23
586.927	38.23
587.049	31.23
587.171	49.23
587.294	42.23
587.416	58.23
587.539	32.23
587.661	17.23
587.783	18.23
587.906	26.23
588.028	48.23
588.151	35.23
588.273	50.23
588.395	41.23
588.518	28.23
588.64	36.23
588.763	54.23
588.885	46.23
589.007	43.23
589.13	14.23
589.252	30.23
589.375	22.23
589.497	24.23
589.619	33.23
589.742	39.23
589.864	39.23
589.986	13.23
590.109	22.23
590.231	19.23
590.354	58.23
590.476	29.23
590.598	25.23
590.721	11.23
590.843	28.23
590.965	35.23
591.088	46.23
591.21	44.23
591.332	23.23
591.455	2.23
591.577	8.23
591.7	36.23
591.822	46.23
591.944	38.23
592.067	23.23
592.189	30.23
592.311	35.23
592.434	39.23
592.556	33.23
592.678	32.23
592.801	37.23
592.923	34.23
593.045	19.23
593.168	20.23
593.29	39.23
593.412	41.23
593.535	27.23
593.657	21.23
593.779	18.23
593.902	26.23
594.024	28.23
594.146	44.23
594.269	32.23
594.391	32.23
594.513	15.23
594.636	22.23
594.758	3.23
594.88	33.23
595.003	40.23
595.125	12.23
595.247	29.23
595.37	21.23
595.492	16.23
595.614	51.23
595.737	19.23
595.859	24.23
595.981	30.23
596.104	35.23
596.226	31.23
596.348	28.23
596.471	30.23
596.593	38.23
596.715	16.23
596.838	30.23
596.96	38.23
597.082	23.23
597.204	15.23
597.327	34.23
597.449	15.23
597.571	37.23
597.694	36.23
597.816	19.23
597.938	14.23
598.061	41.23
598.183	34.23
598.305	35.23
598.427	35.23
598.55	26.23
598.672	37.23
598.794	32.23
598.917	20.23
599.039	11.23
599.161	8.23
599.283	31.23
599.406	27.23
599.528	25.23
599.65	46.23
599.773	36.23
599.895	37.23
600.017	29.23
600.139	8.23
600.262	17.23
600.384	19.23
600.506	18.23
600.628	45.23
600.751	51.23
600.873	41.23
600.995	37.23
601.118	41.23
601.24	36.23
601.362	42.23
601.484	26.23
601.607	37.23
601.729	19.23
601.851	20.23
601.973	30.23
602.096	11.23
602.218	34.23
602.34	8.23
602.462	31.23
602.585	28.23
602.707	27.23
602.829	27.23
602.951	23.23
603.074	15.23
603.196	23.23
603.318	17.23
603.44	20.23
603.563	19.23
603.685	8.23
603.807	27.23
603.929	37.23
604.052	38.23
604.174	41.23
604.296	27.23
604.418	31.23
604.541	41.23
604.663	0.23
604.785	18.23
604.907	42.23
605.03	29.23
605.152	55.23
605.274	16.23
605.396	17.23
605.519	29.23
605.641	44.23
605.763	32.23
605.885	28.23
606.008	15.23
606.13	23.23
606.252	39.23
606.374	7.23
606.496	30.23
606.619	23.23
606.741	20.23
606.863	23.23
606.985	29.23
607.108	32.23
607.23	7.23
607.352	24.23
607.474	22.23
607.596	31.23
607.719	31.23
607.841	24.23
607.963	10.23
608.085	12.23
608.207	39.23
608.33	16.23
608.452	22.23
608.574	30.23
608.696	37.23
608.819	33.23
608.941	40.23
609.063	20.23
609.185	9.23
609.307	20.23
609.43	31.23
609.552	38.23
609.674	2.23
609.796	33.23
609.918	28.23
610.041	15.23
610.163	32.23
610.285	20.23
610.407	27.23
610.529	22.23
610.652	12.23
610.774	23.23
610.896	27.23
611.018	26.23
611.14	10.23
611.263	8.23
611.385	17.23
611.507	39.23
611.629	23.23
611.751	30.23
611.873	46.23
611.996	22.23
612.118	14.23
612.24	17.23
612.362	34.23
612.484	36.23
612.607	40.23
612.729	64.23
612.851	50.23
612.973	19.23
613.095	14.23
613.218	15.23
613.34	30.23
613.462	36.23
613.584	25.23
613.706	36.23
613.828	37.23
613.951	25.23
614.073	13.23
614.195	-4.77
614.317	39.23
614.439	40.23
614.561	25.23
614.684	29.23
614.806	17.23
614.928	29.23
615.05	14.23
615.172	15.23
615.294	26.23
615.417	22.23
615.539	10.23
615.661	9.23
615.783	37.23
615.905	25.23
616.027	27.23
616.15	25.23
616.272	27.23
616.394	23.23
616.516	4.23
616.638	14.23
616.76	23.23
616.883	27.23
617.005	24.23
617.127	17.23
617.249	15.23
617.371	33.23
617.493	18.23
617.615	47.23
617.738	22.23
617.86	21.23
617.982	20.23
618.104	25.23
618.226	6.23
618.348	7.23
618.471	20.23
618.593	26.23
618.715	22.23
618.837	41.23
618.959	30.23
619.081	41.23
619.203	20.23
619.326	26.23
619.448	31.23
619.57	40.23
619.692	24.23
619.814	33.23
619.936	26.23
620.058	22.23
620.181	32.23
620.303	22.23
620.425	41.23
620.547	25.23
620.669	13.23
620.791	32.23
620.913	28.23
621.036	-2.77
621.158	29.23
621.28	26.23
621.402	-6.77
621.524	22.23
621.646	10.23
621.768	28.23
621.891	-1.77
622.013	4.23
622.135	8.23
622.257	9.23
622.379	10.23
622.501	18.23
622.623	15.23
622.745	32.23
622.868	17.23
622.99	12.23
623.112	25.23
623.234	21.23
623.356	9.23
623.478	9.23
623.6	28.23
623.722	20.23
623.845	39.23
623.967	28.23
624.089	31.23
624.211	24.23
624.333	26.23
624.455	26.23
624.577	12.23
624.699	19.23
624.822	16.23
624.944	15.23
625.066	16.23
625.188	-0.77
625.31	35.23
625.432	44.23
625.554	5.23
625.676	46.23
625.799	15.23
625.921	29.23
626.043	27.23
626.165	41.23
626.287	11.23
626.409	43.23
626.531	9.23
626.653	22.23
626.775	33.23
626.898	27.23
627.02	21.23
627.142	51.23
627.264	24.23
627.386	25.23
627.508	28.23
627.63	17.23
627.752	22.23
627.874	19.23
627.997	21.23
628.119	32.23
628.241	23.23
628.363	43.23
628.485	27.23
628.607	20.23
628.729	13.23
628.851	19.23
628.973	26.23
629.096	-3.77
629.218	3.23
629.34	10.23
629.462	16.23
629.584	19.23
629.706	28.23
629.828	25.23
629.95	19.23
630.072	22.23
630.195	13.23
630.317	36.23
630.439	9.23
630.561	6.23
630.683	19.23
630.805	15.23
630.927	11.23
631.049	21.23
631.171	3.23
631.293	16.23
631.416	29.23
631.538	15.23
631.66	18.23
631.782	19.23
631.904	34.23
632.026	-2.77
632.148	36.23
632.27	24.23
632.392	27.23
632.514	27.23
632.637	30.23
632.759	26.23
632.881	7.23
633.003	-0.77
633.125	9.23
633.247	12.23
633.369	6.23
633.491	20.23
633.613	24.23
633.735	11.23
633.858	22.23
633.98	1.23
634.102	-3.77
634.224	8.23
634.346	27.23
634.468	22.23
634.59	22.23
634.712	21.23
634.834	17.23
634.956	12.23
635.078	16.23
635.201	8.23
635.323	32.23
635.445	15.23
635.567	14.23
635.689	22.23
635.811	0.23
635.933	8.23
636.055	13.23
636.177	22.23
636.299	24.23
636.421	19.23
636.544	6.23
636.666	23.23
636.788	17.23
636.91	29.23
637.032	16.23
637.154	24.23
637.276	51.23
637.398	34.23
637.52	22.23
637.642	34.23
637.764	20.23
637.887	20.23
638.009	16.23
638.131	2.23
638.253	14.23
638.375	18.23
638.497	11.23
638.619	-1.77
638.741	16.23
638.863	-4.77
638.985	4.23
639.107	18.23
639.23	11.23
639.352	27.23
639.474	14.23
639.596	6.23
639.718	36.23
639.84	14.23
639.962	19.23
640.084	16.23
640.206	26.23
640.328	6.23
640.45	19.23
640.573	31.23
640.695	24.23
640.817	18.23
640.939	20.23
641.061	13.23
641.183	26.23
641.305	15.23
641.427	9.23
641.549	6.23
641.671	29.23
641.793	23.23
641.915	39.23
642.038	10.23
642.16	23.23
642.282	9.23
642.404	14.23
642.526	14.23
642.648	23.23
642.77	10.23
642.892	8.23
643.014	10.23
643.136	23.23
643.258	15.23
643.381	20.23
643.503	32.23
643.625	28.23
643.747	4.23
643.869	3.23
643.991	25.23
644.113	6.23
644.235	3.23
644.357	4.23
644.479	8.23
644.601	5.23
644.723	7.23
644.846	6.23
644.968	21.23
645.09	11.23
645.212	2.23
645.334	20.23
645.456	20.23
645.578	34.23
645.7	28.23
645.822	25.23
645.944	31.23
646.066	18.23
646.188	16.23
646.311	25.23
646.433	8.23
646.555	34.23
646.677	19.23
646.799	12.23
646.921	17.23
647.043	22.23
647.165	-10.77
647.287	16.23
647.409	17.23
647.531	19.23
647.654	-2.77
647.776	13.23
647.898	21.23
648.02	21.23
648.142	10.23
648.264	7.23
648.386	11.23
648.508	18.23
648.63	18.23
648.752	19.23
648.874	6.23
648.997	15.23
649.119	28.23
649.241	0.23
649.363	21.23
649.485	16.23
649.607	-1.77
649.729	-0.77
649.851	13.23
649.973	9.23
650.095	15.23
650.217	14.23
650.34	6.23
650.462	13.23
650.584	24.23
650.706	39.23
650.828	28.23
650.95	-0.77
651.072	13.23
651.194	-5.77
651.316	13.23
651.438	23.23
651.56	7.23
651.683	11.23
651.805	3.23
651.927	4.23
652.049	14.23
652.171	11.23
652.293	4.23
652.415	14.23
652.537	-14.77
652.659	20.23
652.781	24.23
652.903	16.23
653.026	19.23
653.148	8.23
653.27	23.23
653.392	20.23
653.514	8.23
653.636	22.23
653.758	11.23
653.88	10.23
654.002	0.23
654.124	4.23
654.247	9.23
654.369	18.23
654.491	11.23
654.613	20.23
654.735	18.23
654.857	24.23
654.979	22.23
655.101	16.23
655.223	40.23
655.345	23.23
655.468	19.23
655.59	6.23
655.712	11.23
655.834	5.23
655.956	36.23
656.078	20.23
656.2	29.23
656.322	16.23
656.444	0.23
656.566	23.23
656.689	-0.77
656.811	0.23
656.933	32.23
657.055	10.23
657.177	22.23
657.299	9.23
657.421	11.23
657.543	13.23
657.665	18.23
657.787	10.23
657.91	-11.77
658.032	11.23
658.154	-1.77
658.276	16.23
658.398	-5.77
658.52	18.23
658.642	23.23
658.764	6.23
658.886	-12.77
659.009	12.23
659.131	33.23
659.253	-0.77
659.375	18.23
659.497	7.23
659.619	22.23
659.741	16.23
659.863	9.23
659.985	-7.77
660.108	22.23
660.23	22.23
660.352	9.23
660.474	21.23
660.596	10.23
660.718	20.23
660.84	13.23
660.962	12.23
661.084	1.23
661.207	6.23
661.329	8.23
661.451	-3.77
661.573	8.23
661.695	30.23
661.817	23.23
661.939	47.23
662.061	26.23
662.184	7.23
662.306	-3.77
662.428	16.23
662.55	17.23
662.672	-8.77
662.794	12.23
662.916	12.23
663.038	25.23
663.161	21.23
663.283	16.23
663.405	30.23
663.527	14.23
663.649	15.23
663.771	7.23
663.893	4.23
664.015	14.23
664.138	12.23
664.26	16.23
664.382	31.23
664.504	15.23
664.626	-15.77
664.748	-2.77
664.87	12.23
664.992	24.23
665.115	27.23
665.237	14.23
665.359	-5.77
665.481	16.23
665.603	9.23
665.725	10.23
665.847	3.23
665.97	19.23
666.092	19.23
666.214	20.23
666.336	12.23
666.458	30.23
666.58	11.23
666.702	3.23
666.825	11.23
666.947	11.23
667.069	20.23
667.191	14.23
667.313	19.23
667.435	-0.77
667.557	-16.77
667.68	1.23
667.802	11.23
667.924	8.23
668.046	22.23
668.168	22.23
668.29	16.23
668.412	9.23
668.535	16.23
668.657	7.23
668.779	14.23
668.901	12.23
669.023	26.23
669.145	17.23
669.267	19.23
669.39	9.23
669.512	19.23
669.634	-1.77
669.756	-3.77
669.878	5.23
670	12.23
670.123	12.23
670.245	30.23
670.367	19.23
670.489	10.23
670.611	17.23
670.733	8.23
670.856	19.23
670.978	23.23
671.1	26.23
671.222	12.23
671.344	12.23
671.466	6.23
671.589	1.23
671.711	-2.77
671.833	1.23
671.955	16.23
672.077	11.23
672.199	15.23
672.322	23.23
672.444	31.23
672.566	12.23
672.688	0.23
672.81	9.23
672.932	18.23
673.055	18.23
673.177	-1.77
673.299	15.23
673.421	-2.77
673.543	23.23
673.665	18.23
673.788	23.23
673.91	6.23
674.032	-9.77
674.154	-1.77
674.276	17.23
674.399	5.23
674.521	14.23
674.643	10.23
674.765	11.23
674.887	15.23
675.009	7.23
675.132	8.23
675.254	17.23
675.376	24.23
675.498	25.23
675.62	19.23
675.743	-0.77
675.865	20.23
675.987	14.23
676.109	8.23
676.231	6.23
676.354	26.23
676.476	2.23
676.598	12.23
676.72	19.23
676.842	18.23
676.965	20.23
677.087	19.23
677.209	17.23
677.331	17.23
677.453	9.23
677.576	8.23
677.698	6.23
677.82	6.23
677.942	15.23
678.064	5.23
678.187	15.23
678.309	24.23
678.431	13.23
678.553	-0.77
678.675	20.23
678.798	23.23
678.92	23.23
679.042	22.23
679.164	16.23
679.286	21.23
679.409	9.23
679.531	0.23
679.653	8.23
679.775	13.23
679.898	-0.77
680.02	11.23
680.142	1.23
680.264	23.23
680.386	2.23
680.509	12.23
680.631	19.23
680.753	32.23
680.875	10.23
680.998	10.23
681.12	12.23
681.242	19.23
681.364	0.23
681.486	3.23
681.609	-4.77
681.731	6.23
681.853	8.23
681.975	16.23
682.098	13.23
682.22	22.23
682.342	25.23
682.464	18.23
682.587	15.23
682.709	9.23
682.831	-2.77
682.953	6.23
683.076	12.23
683.198	30.23
683.32	10.23
683.442	9.23
683.565	18.23
683.687	3.23
683.809	3.23
683.931	1.23
684.054	31.23
684.176	27.23
684.298	19.23
684.42	0.23
684.543	-4.77
684.665	16.23
684.787	10.23
684.909	10.23
685.032	12.23
685.154	-12.77
685.276	4.23
685.398	9.23
685.521	4.23
685.643	-0.77
685.765	10.23
685.887	20.23
686.01	6.23
686.132	4.23
686.254	25.23
686.377	24.23
686.499	16.23
686.621	17.23
686.743	25.23
686.866	6.23
686.988	24.23
687.11	21.23
687.232	24.23
687.355	-2.77
687.477	7.23
687.599	15.23
687.722	9.23
687.844	14.23
687.966	17.23
688.088	7.23
688.211	43.23
688.333	19.23
688.455	19.23
688.578	28.23
688.7	24.23
688.822	6.23
688.944	6.23
689.067	51.23
689.189	12.23
689.311	-8.77
689.434	10.23
689.556	19.23
689.678	10.23
689.801	-8.77
689.923	10.23
690.045	18.23
690.167	39.23
690.29	26.23
690.412	23.23
690.534	10.23
690.657	6.23
690.779	11.23
690.901	13.23
691.024	-0.77
691.146	14.23
691.268	-0.77
691.391	19.23
691.513	18.23
691.635	20.23
691.758	23.23
691.88	35.23
692.002	20.23
692.125	18.23
692.247	2.23
692.369	7.23
692.492	2.23
692.614	20.23
692.736	10.23
692.859	20.23
692.981	9.23
693.103	7.23
693.226	14.23
693.348	26.23
693.47	19.23
693.593	42.23
693.715	38.23
693.837	36.23
693.96	17.23
694.082	6.23
694.204	16.23
694.327	0.23
694.449	14.23
694.571	0.23
694.694	2.23
694.816	17.23
694.938	-9.77
695.061	23.23
695.183	12.23
695.305	12.23
695.428	28.23
695.55	-0.77
695.672	8.23
695.795	37.23
695.917	16.23
696.04	14.23
696.162	19.23
696.284	9.23
696.407	6.23
696.529	17.23
696.651	13.23
696.774	13.23
696.896	17.23
697.019	14.23
697.141	23.23
697.263	21.23
697.386	7.23
697.508	7.23
697.63	6.23
697.753	8.23
697.875	24.23
697.998	11.23
698.12	20.23
698.242	10.23
698.365	23.23
698.487	33.23
698.61	17.23
698.732	29.23
698.854	15.23
698.977	-0.77
699.099	15.23
699.221	3.23
699.344	-0.77
699.466	8.23
699.589	9.23
699.711	0.23
699.834	14.23
699.956	14.23
700.078	4.23
700.201	-1.77
700.323	26.23
700.446	23.23
700.568	4.23
700.69	13.23
700.813	20.23
700.935	9.23
701.058	9.23
701.18	6.23
701.302	13.23
701.425	9.23
701.547	21.23
701.67	-1.77
701.792	18.23
701.915	3.23
702.037	-3.77
702.159	11.23
702.282	26.23
702.404	-2.77
702.527	14.23
702.649	25.23
702.772	36.23
702.894	16.23
703.017	28.23
703.139	26.23
703.261	32.23
703.384	20.23
703.506	8.23
703.629	17.23
703.751	13.23
703.874	0.23
703.996	6.23
704.119	3.23
704.241	16.23
704.364	-7.77
704.486	14.23
704.608	23.23
704.731	13.23
704.853	11.23
704.976	4.23
705.098	13.23
705.221	6.23
705.343	10.23
705.466	10.23
705.588	22.23
705.711	23.23
705.833	10.23
705.956	18.23
706.078	12.23
706.201	26.23
706.323	22.23
706.446	6.23
