Data from LowRes_mercury_15_20_11_07_2024_HR4C61881__42__15-23-36-471.txt Node

Date: Thu Nov 07 15:23:36 EST 2024
User: crc00042
Spectrometer: HR4C6188
Trigger mode: 4
Integration Time (sec): 1.000000E-1
Scans to average: 1
Electric dark correction enabled: true
Nonlinearity correction enabled: false
Boxcar width: 0
XAxis mode: Wavelengths
Number of Pixels in Spectrum: 3648
>>>>>Begin Spectral Data<<<<<
245.66	-70
245.797	-70
245.934	-70
246.071	-68
246.208	16
246.344	6
246.481	-4
246.618	-17
246.755	4
246.892	-15
247.029	1
247.165	6
247.302	29
247.439	1
247.576	6
247.713	-6
247.849	12
247.986	-23
248.123	0
248.26	-7
248.396	15
248.533	-2
248.67	-6
248.806	6
248.943	-13
249.08	8
249.216	29
249.353	-7
249.49	-8
249.626	1
249.763	1
249.9	-7
250.036	-5
250.173	16
250.309	-3
250.446	-11
250.582	-7
250.719	-10
250.856	-16
250.992	-3
251.129	-12
251.265	-8
251.402	0
251.538	14
251.675	-1
251.811	3
251.948	5
252.084	5
252.221	10
252.357	-24
252.493	13
252.63	3
252.766	26
252.903	-6
253.039	-17
253.175	-6
253.312	21
253.448	-3
253.585	4
253.721	5
253.857	-13
253.994	1
254.13	0
254.266	-12
254.403	-1
254.539	-6
254.675	18
254.811	17
254.948	0
255.084	-3
255.22	-17
255.356	7
255.493	11
255.629	2
255.765	12
255.901	20
256.037	13
256.174	-4
256.31	-6
256.446	-13
256.582	6
256.718	-4
256.854	10
256.991	0
257.127	0
257.263	-6
257.399	-7
257.535	-8
257.671	-15
257.807	-5
257.943	-14
258.079	-17
258.215	-11
258.351	13
258.487	20
258.623	17
258.759	-7
258.895	-16
259.031	6
259.167	-17
259.303	18
259.439	-1
259.575	6
259.711	-2
259.847	-11
259.983	-7
260.119	-18
260.255	-19
260.391	10
260.527	6
260.663	-2
260.799	2
260.934	4
261.07	10
261.206	-4
261.342	-9
261.478	13
261.614	-7
261.749	6
261.885	4
262.021	0
262.157	15
262.293	24
262.428	-4
262.564	4
262.7	19
262.836	-12
262.971	26
263.107	5
263.243	22
263.378	3
263.514	-17
263.65	-3
263.785	6
263.921	-11
264.057	-16
264.192	-6
264.328	17
264.464	-17
264.599	-5
264.735	20
264.871	-21
265.006	-6
265.142	-17
265.277	16
265.413	5
265.548	16
265.684	0
265.819	-9
265.955	-9
266.091	-20
266.226	-16
266.362	24
266.497	18
266.633	0
266.768	-16
266.903	-1
267.039	30
267.174	32
267.31	12
267.445	4
267.581	-11
267.716	9
267.851	4
267.987	6
268.122	15
268.258	3
268.393	1
268.528	16
268.664	-20
268.799	-12
268.934	16
269.07	-13
269.205	13
269.34	28
269.476	-5
269.611	3
269.746	9
269.881	-10
270.017	10
270.152	-4
270.287	2
270.422	20
270.558	-5
270.693	15
270.828	9
270.963	-1
271.098	-20
271.234	-14
271.369	-1
271.504	6
271.639	-10
271.774	1
271.909	9
272.045	-14
272.18	7
272.315	-12
272.45	25
272.585	6
272.72	2
272.855	-1
272.99	20
273.125	-5
273.26	-33
273.395	-31
273.53	-21
273.665	-2
273.8	8
273.935	12
274.07	9
274.205	-9
274.34	-4
274.475	-4
274.61	19
274.745	5
274.88	7
275.015	-4
275.15	0
275.285	-1
275.42	5
275.555	9
275.69	14
275.825	9
275.959	20
276.094	4
276.229	-1
276.364	-15
276.499	3
276.634	10
276.768	-11
276.903	0
277.038	2
277.173	4
277.308	4
277.442	18
277.577	-18
277.712	-6
277.847	1
277.981	2
278.116	-20
278.251	3
278.386	5
278.52	1
278.655	8
278.79	12
278.924	-8
279.059	-3
279.194	-12
279.328	14
279.463	15
279.598	30
279.732	11
279.867	1
280.001	25
280.136	-4
280.271	12
280.405	17
280.54	13
280.674	-2
280.809	20
280.943	-16
281.078	-15
281.213	0
281.347	-7
281.482	1
281.616	-2
281.751	-3
281.885	-29
282.02	-7
282.154	11
282.288	-24
282.423	-7
282.557	-3
282.692	22
282.826	13
282.961	-10
283.095	-12
283.229	8
283.364	-18
283.498	3
283.633	-10
283.767	-6
283.901	-13
284.036	0
284.17	0
284.304	-13
284.439	-6
284.573	-10
284.707	13
284.842	-4
284.976	-1
285.11	-15
285.244	2
285.379	56
285.513	6
285.647	-7
285.781	-2
285.916	-9
286.05	-6
286.184	30
286.318	10
286.453	-5
286.587	-9
286.721	-11
286.855	-2
286.989	13
287.123	2
287.258	-22
287.392	-7
287.526	1
287.66	-5
287.794	3
287.928	-14
288.062	4
288.196	1
288.33	5
288.464	14
288.598	0
288.733	0
288.867	13
289.001	-10
289.135	-5
289.269	7
289.403	-5
289.537	5
289.671	7
289.805	-24
289.939	11
290.073	-7
290.207	23
290.34	1
290.474	10
290.608	1
290.742	-11
290.876	-15
291.01	-7
291.144	13
291.278	11
291.412	5
291.546	-1
291.679	-18
291.813	-4
291.947	2
292.081	-1
292.215	-9
292.349	7
292.482	9
292.616	-4
292.75	-1
292.884	2
293.018	4
293.151	-13
293.285	2
293.419	-26
293.553	-4
293.686	-15
293.82	-21
293.954	7
294.088	20
294.221	-4
294.355	4
294.489	-13
294.622	-9
294.756	-6
294.89	6
295.023	-7
295.157	12
295.291	9
295.424	2
295.558	16
295.691	-6
295.825	-6
295.959	-8
296.092	-1
296.226	-1
296.359	17
296.493	9
296.627	3
296.76	-6
296.894	-6
297.027	-2
297.161	14
297.294	-1
297.428	-3
297.561	23
297.695	-1
297.828	-16
297.962	3
298.095	0
298.229	7
298.362	6
298.495	-3
298.629	3
298.762	-3
298.896	-2
299.029	-9
299.162	-1
299.296	3
299.429	-1
299.563	7
299.696	4
299.829	17
299.963	23
300.096	0
300.229	-3
300.363	9
300.496	-5
300.629	-12
300.763	3
300.896	13
301.029	23
301.162	11
301.296	-2
301.429	9
301.562	-14
301.695	-3
301.829	15
301.962	11
302.095	-4
302.228	-16
302.362	4
302.495	3
302.628	6
302.761	-7
302.894	-10
303.027	18
303.161	-22
303.294	-1
303.427	20
303.56	4
303.693	-7
303.826	1
303.959	-11
304.092	8
304.225	7
304.359	1
304.492	4
304.625	-6
304.758	0
304.891	-1
305.024	-5
305.157	-11
305.29	-16
305.423	5
305.556	15
305.689	16
305.822	-7
305.955	-15
306.088	-3
306.221	-7
306.354	-2
306.487	-1
306.62	15
306.752	17
306.885	19
307.018	-5
307.151	1
307.284	-6
307.417	-22
307.55	-2
307.683	-3
307.816	7
307.948	15
308.081	14
308.214	29
308.347	29
308.48	-5
308.613	-6
308.745	10
308.878	-16
309.011	2
309.144	6
309.277	-4
309.409	3
309.542	-6
309.675	17
309.808	8
309.94	19
310.073	-9
310.206	5
310.339	26
310.471	-11
310.604	16
310.737	-13
310.869	9
311.002	12
311.135	-12
311.267	-31
311.4	9
311.533	13
311.665	-1
311.798	-15
311.93	-1
312.063	29
312.196	48
312.328	92
312.461	48
312.593	32
312.726	60
312.859	111
312.991	168
313.124	39
313.256	15
313.389	4
313.521	-14
313.654	-6
313.786	-21
313.919	-5
314.051	-1
314.184	20
314.316	27
314.449	-10
314.581	-19
314.714	-1
314.846	13
314.978	-12
315.111	-3
315.243	10
315.376	-7
315.508	4
315.641	5
315.773	14
315.905	11
316.038	7
316.17	-11
316.302	6
316.435	-1
316.567	-10
316.699	22
316.832	-8
316.964	-7
317.096	-18
317.229	-20
317.361	-22
317.493	8
317.625	-13
317.758	-4
317.89	30
318.022	4
318.155	-13
318.287	8
318.419	6
318.551	7
318.683	-11
318.816	3
318.948	-15
319.08	-10
319.212	7
319.344	17
319.477	-1
319.609	9
319.741	7
319.873	-3
320.005	3
320.137	17
320.269	2
320.401	-17
320.534	-6
320.666	-38
320.798	-20
320.93	1
321.062	3
321.194	14
321.326	-2
321.458	16
321.59	6
321.722	-1
321.854	-4
321.986	-4
322.118	10
322.25	-5
322.382	-6
322.514	-12
322.646	-9
322.778	29
322.91	-26
323.042	-13
323.174	-9
323.306	-21
323.438	-24
323.57	7
323.702	0
323.834	-7
323.966	-14
324.097	-12
324.229	16
324.361	0
324.493	11
324.625	-3
324.757	7
324.889	2
325.021	3
325.152	-1
325.284	16
325.416	-7
325.548	4
325.68	-13
325.811	4
325.943	12
326.075	-9
326.207	7
326.339	28
326.47	8
326.602	5
326.734	4
326.866	-1
326.997	-3
327.129	-1
327.261	-16
327.392	7
327.524	10
327.656	17
327.787	11
327.919	1
328.051	20
328.182	23
328.314	15
328.446	2
328.577	13
328.709	13
328.841	0
328.972	-7
329.104	-9
329.235	7
329.367	1
329.499	-2
329.63	-1
329.762	8
329.893	8
330.025	-6
330.156	0
330.288	13
330.419	36
330.551	28
330.683	14
330.814	1
330.946	21
331.077	0
331.208	5
331.34	-1
331.471	-2
331.603	1
331.734	-2
331.866	-6
331.997	1
332.129	-13
332.26	-4
332.392	25
332.523	6
332.654	2
332.786	10
332.917	-2
333.048	17
333.18	28
333.311	-1
333.443	12
333.574	-2
333.705	19
333.837	39
333.968	126
334.099	242
334.231	207
334.362	44
334.493	13
334.624	20
334.756	7
334.887	12
335.018	10
335.15	5
335.281	12
335.412	30
335.543	24
335.675	10
335.806	16
335.937	-4
336.068	7
336.199	40
336.331	24
336.462	4
336.593	20
336.724	0
336.855	3
336.986	14
337.118	7
337.249	23
337.38	19
337.511	15
337.642	6
337.773	3
337.904	20
338.035	13
338.166	8
338.298	8
338.429	9
338.56	5
338.691	34
338.822	17
338.953	12
339.084	3
339.215	13
339.346	12
339.477	-2
339.608	14
339.739	21
339.87	8
340.001	-4
340.132	9
340.263	-3
340.394	19
340.525	11
340.656	-4
340.787	-5
340.918	47
341.049	24
341.179	9
341.31	11
341.441	26
341.572	23
341.703	20
341.834	-10
341.965	11
342.096	1
342.227	22
342.357	13
342.488	23
342.619	11
342.75	-2
342.881	-1
343.012	24
343.142	39
343.273	20
343.404	17
343.535	36
343.666	26
343.796	9
343.927	8
344.058	43
344.189	26
344.319	24
344.45	24
344.581	14
344.712	3
344.842	28
344.973	28
345.104	38
345.234	25
345.365	22
345.496	18
345.626	25
345.757	20
345.888	8
346.018	20
346.149	28
346.28	38
346.41	29
346.541	19
346.672	0
346.802	36
346.933	26
347.063	35
347.194	20
347.325	17
347.455	45
347.586	30
347.716	22
347.847	30
347.977	41
348.108	61
348.238	34
348.369	41
348.499	44
348.63	38
348.76	57
348.891	50
349.021	70
349.152	53
349.282	61
349.413	42
349.543	43
349.674	37
349.804	45
349.935	19
350.065	31
350.196	17
350.326	29
350.456	19
350.587	30
350.717	21
350.848	33
350.978	33
351.108	17
351.239	35
351.369	18
351.499	14
351.63	15
351.76	5
351.89	33
352.021	10
352.151	13
352.281	26
352.412	28
352.542	13
352.672	20
352.803	19
352.933	37
353.063	12
353.193	17
353.324	4
353.454	18
353.584	40
353.714	36
353.845	5
353.975	5
354.105	9
354.235	23
354.365	17
354.496	19
354.626	45
354.756	36
354.886	21
355.016	25
355.146	21
355.277	34
355.407	25
355.537	18
355.667	14
355.797	22
355.927	14
356.057	25
356.187	7
356.318	26
356.448	15
356.578	26
356.708	17
356.838	19
356.968	36
357.098	29
357.228	26
357.358	21
357.488	36
357.618	46
357.748	47
357.878	24
358.008	37
358.138	31
358.268	10
358.398	37
358.528	36
358.658	40
358.788	15
358.918	23
359.048	22
359.178	16
359.308	38
359.438	48
359.568	28
359.698	28
359.827	9
359.957	27
360.087	32
360.217	21
360.347	25
360.477	33
360.607	13
360.737	16
360.866	34
360.996	6
361.126	15
361.256	35
361.386	37
361.516	35
361.645	19
361.775	45
361.905	42
362.035	35
362.165	37
362.294	33
362.424	55
362.554	27
362.684	12
362.813	41
362.943	57
363.073	37
363.203	44
363.332	67
363.462	68
363.592	100
363.721	124
363.851	152
363.981	198
364.111	234
364.24	309
364.37	470
364.5	865
364.629	1822
364.759	3829
364.888	6279
365.018	9373
365.148	14801
365.277	13049
365.407	4785
365.537	3087
365.666	4042
365.796	1849
365.925	790
366.055	747
366.184	1013
366.314	1405
366.444	2476
366.573	2122
366.703	656
366.832	218
366.962	109
367.091	98
367.221	73
367.35	50
367.48	80
367.609	54
367.739	45
367.868	33
367.998	43
368.127	43
368.257	51
368.386	61
368.516	50
368.645	33
368.775	59
368.904	41
369.033	35
369.163	33
369.292	47
369.422	40
369.551	51
369.68	44
369.81	33
369.939	23
370.069	47
370.198	38
370.327	28
370.457	41
370.586	37
370.715	36
370.845	32
370.974	32
371.103	51
371.233	48
371.362	45
371.491	42
371.621	55
371.75	55
371.879	44
372.008	49
372.138	50
372.267	62
372.396	45
372.525	27
372.655	27
372.784	45
372.913	12
373.042	33
373.172	49
373.301	14
373.43	4
373.559	14
373.688	20
373.818	21
373.947	27
374.076	15
374.205	34
374.334	19
374.463	29
374.593	33
374.722	20
374.851	38
374.98	21
375.109	36
375.238	27
375.367	46
375.496	9
375.625	11
375.755	24
375.884	25
376.013	38
376.142	25
376.271	12
376.4	26
376.529	34
376.658	27
376.787	33
376.916	23
377.045	23
377.174	23
377.303	18
377.432	34
377.561	28
377.69	2
377.819	27
377.948	11
378.077	5
378.206	-1
378.335	19
378.464	4
378.593	37
378.722	26
378.851	27
378.98	32
379.108	19
379.237	3
379.366	14
379.495	38
379.624	31
379.753	19
379.882	14
380.011	4
380.14	7
380.268	30
380.397	15
380.526	40
380.655	21
380.784	-9
380.913	0
381.041	14
381.17	-3
381.299	4
381.428	10
381.557	14
381.685	8
381.814	21
381.943	10
382.072	-2
382.2	6
382.329	15
382.458	26
382.587	44
382.715	33
382.844	22
382.973	18
383.102	20
383.23	7
383.359	0
383.488	21
383.616	17
383.745	13
383.874	32
384.003	14
384.131	15
384.26	19
384.389	36
384.517	25
384.646	-4
384.774	17
384.903	42
385.032	38
385.16	12
385.289	11
385.418	32
385.546	17
385.675	41
385.803	24
385.932	31
386.06	11
386.189	16
386.318	20
386.446	37
386.575	6
386.703	19
386.832	16
386.96	14
387.089	31
387.217	25
387.346	8
387.474	25
387.603	25
387.731	16
387.86	16
387.988	25
388.117	23
388.245	11
388.374	15
388.502	28
388.631	17
388.759	5
388.888	19
389.016	23
389.144	13
389.273	12
389.401	16
389.53	-1
389.658	29
389.786	-5
389.915	25
390.043	20
390.172	14
390.3	47
390.428	37
390.557	17
390.685	55
390.813	43
390.942	51
391.07	19
391.198	16
391.327	16
391.455	22
391.583	49
391.712	33
391.84	30
391.968	26
392.096	21
392.225	24
392.353	29
392.481	22
392.609	37
392.738	21
392.866	7
392.994	18
393.122	45
393.251	35
393.379	20
393.507	18
393.635	25
393.764	31
393.892	33
394.02	9
394.148	-4
394.276	23
394.404	36
394.533	14
394.661	16
394.789	45
394.917	27
395.045	24
395.173	15
395.302	14
395.43	24
395.558	28
395.686	21
395.814	20
395.942	13
396.07	18
396.198	3
396.326	28
396.454	24
396.582	39
396.711	27
396.839	39
396.967	33
397.095	8
397.223	25
397.351	43
397.479	39
397.607	22
397.735	59
397.863	54
397.991	52
398.119	23
398.247	45
398.375	64
398.503	46
398.631	66
398.759	57
398.887	44
399.015	38
399.143	42
399.271	68
399.399	56
399.526	71
399.654	93
399.782	67
399.91	82
400.038	104
400.166	77
400.294	96
400.422	95
400.55	100
400.678	112
400.805	104
400.933	108
401.061	122
401.189	113
401.317	133
401.445	107
401.573	85
401.7	52
401.828	45
401.956	44
402.084	34
402.212	37
402.34	27
402.467	28
402.595	48
402.723	55
402.851	69
402.978	61
403.106	70
403.234	94
403.362	108
403.489	127
403.617	169
403.745	196
403.873	292
404	576
404.128	1460
404.256	3893
404.384	5108
404.511	5415
404.639	7215
404.767	11424
404.894	14649
405.022	4940
405.15	1318
405.277	423
405.405	246
405.533	144
405.66	109
405.788	44
405.916	55
406.043	56
406.171	53
406.299	57
406.426	51
406.554	46
406.681	67
406.809	61
406.937	72
407.064	56
407.192	135
407.319	288
407.447	536
407.574	535
407.702	625
407.83	853
407.957	1583
408.085	947
408.212	288
408.34	112
408.467	61
408.595	52
408.722	44
408.85	51
408.977	32
409.105	31
409.232	31
409.36	10
409.487	7
409.615	39
409.742	40
409.87	32
409.997	51
410.125	38
410.252	46
410.379	23
410.507	40
410.634	35
410.762	35
410.889	36
411.017	40
411.144	25
411.271	13
411.399	25
411.526	19
411.653	25
411.781	46
411.908	25
412.036	12
412.163	52
412.29	47
412.418	18
412.545	31
412.672	29
412.8	46
412.927	28
413.054	37
413.182	42
413.309	25
413.436	16
413.564	14
413.691	36
413.818	48
413.945	20
414.073	33
414.2	42
414.327	28
414.454	39
414.582	30
414.709	26
414.836	39
414.963	21
415.091	33
415.218	17
415.345	25
415.472	32
415.6	15
415.727	34
415.854	22
415.981	21
416.108	20
416.236	30
416.363	29
416.49	8
416.617	16
416.744	28
416.871	29
416.998	9
417.126	24
417.253	6
417.38	38
417.507	36
417.634	18
417.761	39
417.888	45
418.015	30
418.143	40
418.27	51
418.397	43
418.524	43
418.651	17
418.778	31
418.905	52
419.032	32
419.159	39
419.286	48
419.413	49
419.54	59
419.667	26
419.794	25
419.921	47
420.048	59
420.175	38
420.302	33
420.429	55
420.556	48
420.683	56
420.81	62
420.937	64
421.064	76
421.191	52
421.318	62
421.445	72
421.572	59
421.699	64
421.826	47
421.953	40
422.08	29
422.207	4
422.334	-5
422.461	31
422.588	24
422.714	28
422.841	43
422.968	33
423.095	31
423.222	25
423.349	22
423.476	32
423.603	19
423.729	2
423.856	23
423.983	36
424.11	19
424.237	20
424.364	10
424.491	28
424.617	8
424.744	16
424.871	22
424.998	18
425.125	26
425.251	18
425.378	0
425.505	17
425.632	22
425.758	8
425.885	25
426.012	37
426.139	35
426.266	14
426.392	18
426.519	38
426.646	13
426.772	31
426.899	22
427.026	32
427.153	23
427.279	35
427.406	23
427.533	8
427.659	30
427.786	13
427.913	27
428.039	31
428.166	22
428.293	5
428.419	29
428.546	25
428.673	1
428.799	15
428.926	16
429.053	43
429.179	48
429.306	54
429.433	43
429.559	42
429.686	22
429.812	25
429.939	30
430.066	24
430.192	25
430.319	43
430.445	27
430.572	19
430.699	12
430.825	37
430.952	31
431.078	28
431.205	45
431.331	25
431.458	28
431.584	44
431.711	18
431.837	26
431.964	36
432.09	47
432.217	8
432.343	16
432.47	20
432.596	18
432.723	23
432.849	39
432.976	30
433.102	32
433.229	30
433.355	58
433.482	65
433.608	98
433.735	113
433.861	103
433.987	160
434.114	181
434.24	200
434.367	215
434.493	200
434.62	260
434.746	366
434.872	622
434.999	844
435.125	1733
435.252	5476
435.378	13410
435.504	15207
435.631	15434
435.757	15682
435.883	15682
436.01	15682
436.136	15682
436.262	15682
436.389	3463
436.515	2176
436.641	796
436.768	621
436.894	385
437.02	395
437.147	291
437.273	285
437.399	201
437.526	241
437.652	186
437.778	201
437.904	152
438.031	163
438.157	143
438.283	152
438.409	102
438.536	117
438.662	108
438.788	121
438.914	106
439.041	108
439.167	115
439.293	103
439.419	96
439.546	93
439.672	80
439.798	96
439.924	72
440.05	89
440.177	79
440.303	66
440.429	53
440.555	66
440.681	57
440.807	69
440.934	53
441.06	76
441.186	66
441.312	58
441.438	63
441.564	69
441.69	61
441.816	62
441.943	56
442.069	60
442.195	56
442.321	62
442.447	42
442.573	38
442.699	15
442.825	41
442.951	57
443.077	51
443.203	53
443.33	43
443.456	37
443.582	52
443.708	35
443.834	47
443.96	46
444.086	61
444.212	49
444.338	56
444.464	57
444.59	41
444.716	39
444.842	32
444.968	21
445.094	35
445.22	32
445.346	36
445.472	24
445.598	20
445.724	20
445.85	39
445.976	53
446.102	45
446.228	52
446.354	48
446.48	41
446.605	53
446.731	37
446.857	46
446.983	30
447.109	33
447.235	29
447.361	25
447.487	44
447.613	33
447.739	24
447.865	16
447.99	32
448.116	43
448.242	33
448.368	30
448.494	19
448.62	48
448.746	54
448.872	20
448.997	14
449.123	17
449.249	24
449.375	37
449.501	16
449.627	6
449.752	35
449.878	9
450.004	12
450.13	19
450.256	34
450.381	28
450.507	21
450.633	33
450.759	36
450.884	25
451.01	37
451.136	30
451.262	35
451.388	33
451.513	25
451.639	32
451.765	38
451.89	58
452.016	34
452.142	47
452.268	22
452.393	42
452.519	11
452.645	27
452.771	42
452.896	17
453.022	25
453.148	35
453.273	29
453.399	27
453.525	9
453.65	15
453.776	31
453.902	38
454.027	52
454.153	43
454.279	44
454.404	29
454.53	54
454.656	61
454.781	18
454.907	23
455.032	31
455.158	38
455.284	43
455.409	31
455.535	21
455.66	37
455.786	33
455.912	38
456.037	11
456.163	48
456.288	39
456.414	11
456.539	27
456.665	47
456.791	24
456.916	9
457.042	35
457.167	9
457.293	32
457.418	19
457.544	20
457.669	10
457.795	14
457.92	6
458.046	26
458.171	32
458.297	16
458.422	14
458.548	16
458.673	19
458.799	25
458.924	4
459.05	25
459.175	12
459.301	23
459.426	36
459.552	15
459.677	-4
459.803	43
459.928	20
460.053	28
460.179	37
460.304	31
460.43	18
460.555	18
460.681	28
460.806	20
460.931	20
461.057	43
461.182	27
461.308	31
461.433	39
461.558	22
461.684	39
461.809	26
461.934	30
462.06	18
462.185	7
462.311	17
462.436	20
462.561	38
462.687	24
462.812	29
462.937	17
463.063	6
463.188	11
463.313	35
463.439	25
463.564	15
463.689	35
463.814	32
463.94	19
464.065	27
464.19	37
464.316	25
464.441	8
464.566	24
464.692	29
464.817	21
464.942	0
465.067	16
465.193	8
465.318	9
465.443	24
465.568	22
465.694	29
465.819	53
465.944	25
466.069	27
466.194	30
466.32	37
466.445	18
466.57	33
466.695	40
466.82	35
466.946	28
467.071	28
467.196	29
467.321	51
467.446	36
467.572	27
467.697	20
467.822	49
467.947	46
468.072	47
468.197	21
468.323	-2
468.448	45
468.573	23
468.698	23
468.823	47
468.948	49
469.073	32
469.198	33
469.324	35
469.449	28
469.574	60
469.699	40
469.824	24
469.949	49
470.074	27
470.199	54
470.324	36
470.449	27
470.574	24
470.7	29
470.825	39
470.95	57
471.075	43
471.2	49
471.325	62
471.45	44
471.575	3
471.7	39
471.825	22
471.95	21
472.075	26
472.2	19
472.325	21
472.45	26
472.575	26
472.7	29
472.825	30
472.95	34
473.075	34
473.2	27
473.325	46
473.45	31
473.575	40
473.7	49
473.825	30
473.95	16
474.075	31
474.2	6
474.325	20
474.45	51
474.574	29
474.699	44
474.824	26
474.949	21
475.074	19
475.199	22
475.324	28
475.449	19
475.574	19
475.699	29
475.824	0
475.949	7
476.073	8
476.198	6
476.323	13
476.448	9
476.573	1
476.698	29
476.823	19
476.947	12
477.072	25
477.197	27
477.322	23
477.447	11
477.572	16
477.697	25
477.821	11
477.946	15
478.071	25
478.196	25
478.321	20
478.445	19
478.57	17
478.695	23
478.82	32
478.945	30
479.069	16
479.194	19
479.319	27
479.444	31
479.569	12
479.693	39
479.818	23
479.943	32
480.068	22
480.192	30
480.317	33
480.442	19
480.567	16
480.691	22
480.816	15
480.941	3
481.066	-1
481.19	26
481.315	14
481.44	13
481.564	-1
481.689	6
481.814	16
481.938	4
482.063	15
482.188	18
482.313	15
482.437	13
482.562	14
482.687	3
482.811	11
482.936	13
483.061	13
483.185	19
483.31	24
483.435	16
483.559	-2
483.684	26
483.808	35
483.933	32
484.058	34
484.182	22
484.307	20
484.432	4
484.556	24
484.681	14
484.805	21
484.93	23
485.055	15
485.179	36
485.304	36
485.428	20
485.553	1
485.678	27
485.802	19
485.927	28
486.051	19
486.176	27
486.3	30
486.425	11
486.549	13
486.674	35
486.799	14
486.923	15
487.048	25
487.172	21
487.297	12
487.421	30
487.546	43
487.67	22
487.795	23
487.919	32
488.044	19
488.168	20
488.293	15
488.417	23
488.542	30
488.666	26
488.791	14
488.915	12
489.04	20
489.164	29
489.289	27
489.413	3
489.538	5
489.662	24
489.786	14
489.911	20
490.035	25
490.16	20
490.284	20
490.409	0
490.533	13
490.658	32
490.782	35
490.906	29
491.031	103
491.155	119
491.28	140
491.404	162
491.528	237
491.653	144
491.777	64
491.902	29
492.026	27
492.15	29
492.275	58
492.399	31
492.524	17
492.648	19
492.772	13
492.897	31
493.021	20
493.145	28
493.27	27
493.394	19
493.518	20
493.643	25
493.767	33
493.891	15
494.016	25
494.14	5
494.264	11
494.389	22
494.513	12
494.637	16
494.762	22
494.886	29
495.01	23
495.134	30
495.259	45
495.383	16
495.507	12
495.632	39
495.756	41
495.88	28
496.004	8
496.129	15
496.253	34
496.377	28
496.501	27
496.626	8
496.75	20
496.874	13
496.998	22
497.123	37
497.247	33
497.371	23
497.495	24
497.62	23
497.744	14
497.868	15
497.992	34
498.116	14
498.241	32
498.365	14
498.489	19
498.613	25
498.737	28
498.862	16
498.986	25
499.11	21
499.234	23
499.358	-3
499.482	15
499.607	12
499.731	11
499.855	37
499.979	29
500.103	23
500.227	41
500.351	35
500.476	17
500.6	7
500.724	11
500.848	10
500.972	12
501.096	7
501.22	23
501.344	9
501.469	20
501.593	23
501.717	24
501.841	24
501.965	27
502.089	3
502.213	30
502.337	17
502.461	30
502.585	10
502.709	25
502.834	6
502.958	23
503.082	14
503.206	37
503.33	33
503.454	28
503.578	40
503.702	24
503.826	29
503.95	25
504.074	14
504.198	10
504.322	15
504.446	11
504.57	12
504.694	12
504.818	11
504.942	43
505.066	30
505.19	40
505.314	35
505.438	31
505.562	21
505.686	34
505.81	25
505.934	40
506.058	20
506.182	9
506.306	21
506.43	22
506.554	38
506.678	35
506.802	17
506.926	19
507.05	22
507.174	42
507.298	35
507.422	16
507.546	42
507.67	36
507.794	5
507.918	17
508.042	-9
508.165	-1
508.289	16
508.413	16
508.537	18
508.661	41
508.785	25
508.909	31
509.033	34
509.157	27
509.281	17
509.405	36
509.528	65
509.652	49
509.776	34
509.9	45
510.024	29
510.148	35
510.272	31
510.396	32
510.519	20
510.643	41
510.767	50
510.891	49
511.015	35
511.139	37
511.263	60
511.386	46
511.51	41
511.634	33
511.758	31
511.882	37
512.006	49
512.129	48
512.253	91
512.377	59
512.501	81
512.625	89
512.748	89
512.872	75
512.996	65
513.12	53
513.244	61
513.367	61
513.491	64
513.615	67
513.739	73
513.862	89
513.986	81
514.11	92
514.234	90
514.358	112
514.481	124
514.605	106
514.729	107
514.853	111
514.976	107
515.1	92
515.224	110
515.348	93
515.471	56
515.595	108
515.719	113
515.842	214
515.966	281
516.09	297
516.214	288
516.337	331
516.461	231
516.585	89
516.708	44
516.832	29
516.956	27
517.08	23
517.203	8
517.327	23
517.451	35
517.574	26
517.698	0
517.822	9
517.945	32
518.069	19
518.193	44
518.316	32
518.44	20
518.564	3
518.687	20
518.811	28
518.935	55
519.058	15
519.182	13
519.306	10
519.429	7
519.553	59
519.676	33
519.8	27
519.924	15
520.047	17
520.171	15
520.294	20
520.418	37
520.542	30
520.665	29
520.789	2
520.913	-3
521.036	0
521.16	5
521.283	9
521.407	12
521.53	7
521.654	1
521.778	8
521.901	-2
522.025	12
522.148	7
522.272	22
522.395	13
522.519	37
522.643	7
522.766	26
522.89	17
523.013	26
523.137	-3
523.26	7
523.384	12
523.507	28
523.631	27
523.754	10
523.878	22
524.002	17
524.125	21
524.249	8
524.372	27
524.496	15
524.619	14
524.743	17
524.866	9
524.99	23
525.113	26
525.237	23
525.36	6
525.484	2
525.607	-4
525.731	-7
525.854	28
525.978	29
526.101	15
526.224	9
526.348	22
526.471	16
526.595	14
526.718	-4
526.842	11
526.965	17
527.089	10
527.212	27
527.336	22
527.459	37
527.582	21
527.706	17
527.829	19
527.953	24
528.076	13
528.2	6
528.323	39
528.446	30
528.57	20
528.693	21
528.817	11
528.94	24
529.064	35
529.187	25
529.31	10
529.434	-5
529.557	7
529.68	25
529.804	15
529.927	20
530.051	14
530.174	21
530.297	11
530.421	14
530.544	32
530.668	25
530.791	16
530.914	39
531.038	6
531.161	0
531.284	34
531.408	21
531.531	6
531.654	8
531.778	11
531.901	10
532.024	20
532.148	7
532.271	26
532.394	16
532.518	27
532.641	15
532.764	28
532.888	30
533.011	5
533.134	10
533.258	41
533.381	14
533.504	8
533.628	11
533.751	28
533.874	25
533.997	9
534.121	-2
534.244	11
534.367	14
534.491	23
534.614	19
534.737	29
534.86	14
534.984	15
535.107	7
535.23	12
535.354	11
535.477	11
535.6	26
535.723	24
535.847	8
535.97	10
536.093	14
536.216	17
536.34	25
536.463	14
536.586	25
536.709	15
536.833	14
536.956	15
537.079	-3
537.202	19
537.325	11
537.449	2
537.572	21
537.695	23
537.818	29
537.941	17
538.065	6
538.188	13
538.311	22
538.434	22
538.558	14
538.681	33
538.804	42
538.927	20
539.05	23
539.173	17
539.297	14
539.42	36
539.543	8
539.666	37
539.789	26
539.913	26
540.036	23
540.159	21
540.282	17
540.405	12
540.528	15
540.651	24
540.775	6
540.898	13
541.021	23
541.144	29
541.267	32
541.39	19
541.513	42
541.637	32
541.76	28
541.883	42
542.006	28
542.129	37
542.252	23
542.375	36
542.498	31
542.622	29
542.745	41
542.868	32
542.991	47
543.114	49
543.237	58
543.36	58
543.483	47
543.606	61
543.73	80
543.853	74
543.976	77
544.099	118
544.222	116
544.345	122
544.468	172
544.591	198
544.714	263
544.837	326
544.96	473
545.083	683
545.206	1099
545.329	2444
545.453	10924
545.576	15249
545.699	15682
545.822	15682
545.945	15682
546.068	15682
546.191	15682
546.314	15682
546.437	15682
546.56	15682
546.683	15682
546.806	15682
546.929	15682
547.052	15682
547.175	15682
547.298	15682
547.421	15682
547.544	15682
547.667	3571
547.79	2629
547.913	1087
548.036	904
548.159	636
548.282	633
548.405	508
548.528	500
548.651	384
548.774	393
548.897	356
549.02	352
549.143	309
549.266	291
549.389	272
549.512	245
549.635	243
549.758	245
549.881	218
550.004	204
550.127	196
550.25	193
550.373	163
550.496	188
550.619	151
550.742	163
550.865	127
550.988	161
551.111	161
551.234	151
551.356	127
551.479	132
551.602	128
551.725	134
551.848	126
551.971	119
552.094	123
552.217	103
552.34	116
552.463	100
552.586	110
552.709	119
552.832	82
552.955	107
553.077	117
553.2	107
553.323	97
553.446	104
553.569	85
553.692	95
553.815	103
553.938	96
554.061	101
554.184	88
554.306	84
554.429	97
554.552	73
554.675	52
554.798	79
554.921	73
555.044	84
555.167	80
555.29	81
555.412	73
555.535	57
555.658	70
555.781	63
555.904	81
556.027	63
556.15	63
556.272	65
556.395	73
556.518	68
556.641	74
556.764	77
556.887	74
557.01	68
557.132	72
557.255	76
557.378	76
557.501	64
557.624	81
557.747	80
557.869	75
557.992	67
558.115	103
558.238	85
558.361	93
558.483	97
558.606	76
558.729	42
558.852	86
558.975	61
559.098	71
559.22	58
559.343	57
559.466	48
559.589	41
559.712	51
559.834	65
559.957	36
560.08	42
560.203	61
560.325	79
560.448	62
560.571	46
560.694	46
560.817	56
560.939	43
561.062	46
561.185	72
561.308	56
561.43	56
561.553	53
561.676	61
561.799	56
561.921	67
562.044	53
562.167	47
562.29	79
562.413	64
562.535	83
562.658	66
562.781	55
562.903	66
563.026	85
563.149	117
563.272	109
563.394	112
563.517	91
563.64	80
563.763	60
563.885	53
564.008	61
564.131	50
564.254	26
564.376	27
564.499	33
564.622	36
564.744	27
564.867	24
564.99	33
565.113	37
565.235	38
565.358	35
565.481	20
565.603	37
565.726	27
565.849	34
565.971	53
566.094	37
566.217	41
566.34	29
566.462	39
566.585	49
566.708	65
566.83	32
566.953	43
567.076	44
567.198	30
567.321	35
567.444	51
567.566	46
567.689	26
567.812	40
567.934	23
568.057	34
568.18	30
568.302	41
568.425	16
568.548	44
568.67	34
568.793	41
568.916	22
569.038	11
569.161	31
569.283	29
569.406	7
569.529	33
569.651	22
569.774	16
569.897	33
570.019	40
570.142	31
570.265	47
570.387	25
570.51	28
570.632	37
570.755	21
570.878	19
571	32
571.123	21
571.246	30
571.368	22
571.491	31
571.613	19
571.736	21
571.859	39
571.981	28
572.104	21
572.226	21
572.349	22
572.472	22
572.594	35
572.717	31
572.839	13
572.962	31
573.085	41
573.207	39
573.33	25
573.452	29
573.575	63
573.697	31
573.82	20
573.943	17
574.065	32
574.188	20
574.31	44
574.433	39
574.555	54
574.678	37
574.801	25
574.923	27
575.046	41
575.168	47
575.291	44
575.413	41
575.536	34
575.659	44
575.781	49
575.904	55
576.026	63
576.149	70
576.271	131
576.394	197
576.516	528
576.639	3692
576.761	10186
576.884	8787
577.007	8701
577.129	8010
577.252	3727
577.374	1328
577.497	516
577.619	277
577.742	169
577.864	159
577.987	123
578.109	131
578.232	113
578.354	156
578.477	199
578.599	379
578.722	1941
578.844	9085
578.967	9795
579.089	8777
579.212	9154
579.334	5287
579.457	1951
579.579	728
579.702	331
579.824	210
579.947	131
580.069	102
580.192	79
580.314	87
580.437	79
580.559	102
580.682	69
580.804	70
580.927	57
581.049	68
581.172	57
581.294	41
581.417	57
581.539	49
581.662	53
581.784	46
581.907	31
582.029	62
582.152	31
582.274	47
582.396	41
582.519	45
582.641	26
582.764	30
582.886	52
583.009	40
583.131	35
583.254	41
583.376	39
583.499	36
583.621	39
583.743	27
583.866	35
583.988	17
584.111	34
584.233	59
584.356	33
584.478	27
584.601	27
584.723	32
584.845	37
584.968	11
585.09	9
585.213	43
585.335	21
585.458	31
585.58	22
585.702	49
585.825	35
585.947	32
586.07	40
586.192	29
586.315	32
586.437	23
586.559	6
586.682	13
586.804	29
586.927	18
587.049	6
587.171	17
587.294	46
587.416	54
587.539	36
587.661	27
587.783	34
587.906	23
588.028	30
588.151	27
588.273	38
588.395	31
588.518	34
588.64	22
588.763	43
588.885	28
589.007	38
589.13	15
589.252	3
589.375	30
589.497	19
589.619	21
589.742	29
589.864	28
589.986	14
590.109	8
590.231	16
590.354	32
590.476	7
590.598	10
590.721	23
590.843	30
590.965	39
591.088	31
591.21	37
591.332	43
591.455	-3
591.577	30
591.7	28
591.822	18
591.944	23
592.067	25
592.189	25
592.311	20
592.434	24
592.556	40
592.678	27
592.801	32
592.923	25
593.045	30
593.168	19
593.29	23
593.412	32
593.535	8
593.657	21
593.779	20
593.902	28
594.024	31
594.146	35
594.269	28
594.391	6
594.513	23
594.636	37
594.758	8
594.88	38
595.003	31
595.125	19
595.247	28
595.37	29
595.492	19
595.614	40
595.737	17
595.859	20
595.981	22
596.104	33
596.226	5
596.348	21
596.471	15
596.593	27
596.715	5
596.838	11
596.96	-2
597.082	36
597.204	7
597.327	13
597.449	-1
597.571	27
597.694	21
597.816	22
597.938	34
598.061	24
598.183	19
598.305	29
598.427	22
598.55	-9
598.672	15
598.794	23
598.917	8
599.039	15
599.161	16
599.283	32
599.406	25
599.528	27
599.65	43
599.773	29
599.895	41
600.017	32
600.139	26
600.262	20
600.384	27
600.506	33
600.628	39
600.751	39
600.873	29
600.995	35
601.118	29
601.24	20
601.362	38
601.484	25
601.607	36
601.729	11
601.851	8
601.973	21
602.096	28
602.218	33
602.34	29
602.462	31
602.585	15
602.707	15
602.829	14
602.951	27
603.074	3
603.196	9
603.318	8
603.44	15
603.563	22
603.685	-8
603.807	29
603.929	24
604.052	23
604.174	32
604.296	20
604.418	37
604.541	48
604.663	19
604.785	3
604.907	31
605.03	-4
605.152	38
605.274	34
605.396	28
605.519	31
605.641	23
605.763	21
605.885	13
606.008	13
606.13	33
606.252	22
606.374	4
606.496	17
606.619	15
606.741	5
606.863	34
606.985	32
607.108	13
607.23	18
607.352	17
607.474	4
607.596	27
607.719	17
607.841	25
607.963	21
608.085	21
608.207	42
608.33	4
608.452	3
608.574	19
608.696	31
608.819	20
608.941	29
609.063	9
609.185	17
609.307	21
609.43	42
609.552	30
609.674	5
609.796	13
609.918	24
610.041	27
610.163	20
610.285	27
610.407	29
610.529	15
610.652	27
610.774	33
610.896	19
611.018	13
611.14	19
611.263	4
611.385	9
611.507	20
611.629	13
611.751	42
611.873	43
611.996	12
612.118	23
612.24	24
612.362	38
612.484	52
612.607	29
612.729	34
612.851	21
612.973	15
613.095	12
613.218	31
613.34	23
613.462	37
613.584	25
613.706	4
613.828	24
613.951	23
614.073	28
614.195	7
614.317	36
614.439	26
614.561	31
614.684	33
614.806	52
614.928	17
615.05	20
615.172	39
615.294	21
615.417	25
615.539	9
615.661	22
615.783	36
615.905	5
616.027	10
616.15	20
616.272	19
616.394	19
616.516	19
616.638	24
616.76	11
616.883	9
617.005	12
617.127	19
617.249	15
617.371	30
617.493	15
617.615	18
617.738	27
617.86	22
617.982	19
618.104	15
618.226	8
618.348	11
618.471	27
618.593	45
618.715	0
618.837	20
618.959	19
619.081	31
619.203	20
619.326	16
619.448	14
619.57	32
619.692	41
619.814	35
619.936	38
620.058	28
620.181	33
620.303	7
620.425	16
620.547	17
620.669	19
620.791	15
620.913	13
621.036	-7
621.158	15
621.28	29
621.402	7
621.524	3
621.646	16
621.768	12
621.891	4
622.013	13
622.135	3
622.257	25
622.379	25
622.501	20
622.623	20
622.745	5
622.868	20
622.99	25
623.112	11
623.234	18
623.356	26
623.478	10
623.6	17
623.722	29
623.845	19
623.967	2
624.089	23
624.211	6
624.333	43
624.455	31
624.577	12
624.699	24
624.822	12
624.944	29
625.066	6
625.188	18
625.31	24
625.432	53
625.554	5
625.676	45
625.799	9
625.921	21
626.043	31
626.165	5
626.287	-5
626.409	30
626.531	15
626.653	18
626.775	12
626.898	17
627.02	37
627.142	36
627.264	18
627.386	23
627.508	24
627.63	10
627.752	17
627.874	38
627.997	30
628.119	35
628.241	36
628.363	23
628.485	25
628.607	24
628.729	4
628.851	7
628.973	18
629.096	12
629.218	5
629.34	26
629.462	8
629.584	-3
629.706	11
629.828	40
629.95	28
630.072	21
630.195	32
630.317	22
630.439	6
630.561	13
630.683	15
630.805	29
630.927	28
631.049	19
631.171	3
631.293	20
631.416	15
631.538	1
631.66	17
631.782	31
631.904	31
632.026	16
632.148	29
632.27	20
632.392	27
632.514	3
632.637	19
632.759	-8
632.881	3
633.003	0
633.125	-7
633.247	27
633.369	21
633.491	20
633.613	9
633.735	19
633.858	19
633.98	8
634.102	-5
634.224	26
634.346	18
634.468	16
634.59	3
634.712	8
634.834	26
634.956	8
635.078	13
635.201	1
635.323	12
635.445	20
635.567	4
635.689	23
635.811	29
635.933	12
636.055	25
636.177	4
636.299	32
636.421	19
636.544	-13
636.666	6
636.788	28
636.91	22
637.032	4
637.154	11
637.276	49
637.398	29
637.52	20
637.642	-2
637.764	20
637.887	4
638.009	7
638.131	21
638.253	1
638.375	11
638.497	28
638.619	4
638.741	14
638.863	-6
638.985	0
639.107	3
639.23	10
639.352	24
639.474	6
639.596	9
639.718	3
639.84	20
639.962	11
640.084	28
640.206	28
640.328	0
640.45	7
640.573	11
640.695	14
640.817	12
640.939	28
641.061	14
641.183	-25
641.305	1
641.427	-4
641.549	9
641.671	16
641.793	1
641.915	17
642.038	23
642.16	7
642.282	7
642.404	-4
642.526	6
642.648	9
642.77	15
642.892	19
643.014	33
643.136	20
643.258	17
643.381	30
643.503	21
643.625	5
643.747	3
643.869	14
643.991	19
644.113	15
644.235	16
644.357	4
644.479	13
644.601	15
644.723	10
644.846	30
644.968	19
645.09	17
645.212	3
645.334	16
645.456	29
645.578	28
645.7	-3
645.822	6
645.944	3
646.066	29
646.188	11
646.311	34
646.433	5
646.555	33
646.677	9
646.799	-3
646.921	12
647.043	36
647.165	11
647.287	32
647.409	5
647.531	22
647.654	-15
647.776	31
647.898	31
648.02	8
648.142	8
648.264	12
648.386	7
648.508	12
648.63	16
648.752	12
648.874	16
648.997	20
649.119	22
649.241	28
649.363	41
649.485	23
649.607	-1
649.729	3
649.851	27
649.973	12
650.095	20
650.217	3
650.34	4
650.462	7
650.584	12
650.706	17
650.828	3
650.95	-13
651.072	12
651.194	2
651.316	5
651.438	32
651.56	-8
651.683	10
651.805	16
651.927	11
652.049	17
652.171	8
652.293	10
652.415	21
652.537	7
652.659	5
652.781	24
652.903	24
653.026	36
653.148	25
653.27	15
653.392	5
653.514	1
653.636	13
653.758	12
653.88	8
654.002	-4
654.124	11
654.247	9
654.369	13
654.491	21
654.613	20
654.735	-1
654.857	13
654.979	6
655.101	14
655.223	49
655.345	27
655.468	23
655.59	11
655.712	11
655.834	10
655.956	13
656.078	9
656.2	13
656.322	-1
656.444	-18
656.566	5
656.689	19
656.811	7
656.933	21
657.055	-2
657.177	-3
657.299	-7
657.421	3
657.543	22
657.665	-1
657.787	0
657.91	-14
658.032	-13
658.154	-2
658.276	18
658.398	-11
658.52	10
658.642	17
658.764	11
658.886	-9
659.009	14
659.131	19
659.253	9
659.375	6
659.497	6
659.619	16
659.741	20
659.863	4
659.985	1
660.108	0
660.23	-5
660.352	19
660.474	19
660.596	17
660.718	8
660.84	10
660.962	21
661.084	14
661.207	12
661.329	30
661.451	-5
661.573	-1
661.695	32
661.817	21
661.939	18
662.061	25
662.184	11
662.306	25
662.428	4
662.55	30
662.672	12
662.794	12
662.916	16
663.038	3
663.161	9
663.283	14
663.405	15
663.527	6
663.649	8
663.771	20
663.893	12
664.015	13
664.138	8
664.26	21
664.382	19
664.504	9
664.626	-14
664.748	-8
664.87	9
664.992	17
665.115	11
665.237	4
665.359	-4
665.481	12
665.603	13
665.725	-11
665.847	10
665.97	16
666.092	26
666.214	23
666.336	8
666.458	13
666.58	27
666.702	-5
666.825	1
666.947	3
667.069	29
667.191	12
667.313	14
667.435	5
667.557	-4
667.68	4
667.802	8
667.924	9
668.046	15
668.168	12
668.29	22
668.412	21
668.535	14
668.657	21
668.779	12
668.901	11
669.023	24
669.145	8
669.267	21
669.39	15
669.512	7
669.634	21
669.756	-10
669.878	13
670	16
670.123	19
670.245	47
670.367	31
670.489	27
670.611	11
670.733	16
670.856	-6
670.978	18
671.1	0
671.222	15
671.344	11
671.466	8
671.589	11
671.711	-1
671.833	19
671.955	7
672.077	3
672.199	25
672.322	35
672.444	26
672.566	17
672.688	18
672.81	19
672.932	16
673.055	16
673.177	-8
673.299	16
673.421	-7
673.543	5
673.665	20
673.788	16
673.91	8
674.032	-7
674.154	-4
674.276	15
674.399	9
674.521	11
674.643	5
674.765	-5
674.887	13
675.009	-5
675.132	-3
675.254	6
675.376	11
675.498	19
675.62	27
675.743	14
675.865	23
675.987	-11
676.109	-1
676.231	18
676.354	22
676.476	-10
676.598	-1
676.72	11
676.842	9
676.965	10
677.087	11
677.209	4
677.331	9
677.453	16
677.576	15
677.698	0
677.82	-7
677.942	1
678.064	11
678.187	17
678.309	15
678.431	4
678.553	-1
678.675	16
678.798	28
678.92	23
679.042	6
679.164	-13
679.286	7
679.409	24
679.531	4
679.653	-1
679.775	-5
679.898	11
680.02	-2
680.142	-3
680.264	15
680.386	1
680.509	16
680.631	11
680.753	24
680.875	-8
680.998	11
681.12	17
681.242	17
681.364	2
681.486	25
681.609	7
681.731	1
681.853	-5
681.975	-3
682.098	4
682.22	25
682.342	14
682.464	23
682.587	23
682.709	6
682.831	-5
682.953	6
683.076	-2
683.198	23
683.32	24
683.442	13
683.565	17
683.687	3
683.809	3
683.931	2
684.054	26
684.176	11
684.298	18
684.42	-4
684.543	20
684.665	7
684.787	-7
684.909	-13
685.032	17
685.154	4
685.276	3
685.398	4
685.521	6
685.643	-1
685.765	21
685.887	15
686.01	24
686.132	20
686.254	8
686.377	6
686.499	15
686.621	2
686.743	14
686.866	13
686.988	35
687.11	13
687.232	15
687.355	-1
687.477	11
687.599	15
687.722	13
687.844	5
687.966	-6
688.088	10
688.211	31
688.333	28
688.455	6
688.578	19
688.7	6
688.822	10
688.944	6
689.067	54
689.189	7
689.311	8
689.434	0
689.556	0
689.678	13
689.801	4
689.923	13
690.045	29
690.167	36
690.29	19
690.412	3
690.534	26
690.657	-1
690.779	1
690.901	21
691.024	17
691.146	13
691.268	3
691.391	26
691.513	35
691.635	12
691.758	15
691.88	23
692.002	-7
692.125	6
692.247	3
692.369	15
692.492	3
692.614	1
692.736	10
692.859	1
692.981	13
693.103	7
693.226	7
693.348	27
693.47	20
693.593	33
693.715	30
693.837	30
693.96	9
694.082	9
694.204	19
694.327	16
694.449	4
694.571	4
694.694	17
694.816	-2
694.938	-3
695.061	2
695.183	8
695.305	13
695.428	14
695.55	-4
695.672	6
695.795	24
695.917	30
696.04	5
696.162	-3
696.284	18
696.407	20
696.529	1
696.651	19
696.774	2
696.896	11
697.019	3
697.141	13
697.263	11
697.386	3
697.508	20
697.63	9
697.753	3
697.875	6
697.998	-5
698.12	18
698.242	5
698.365	5
698.487	21
698.61	16
698.732	6
698.854	16
698.977	10
699.099	25
699.221	7
699.344	20
699.466	13
699.589	3
699.711	-10
699.834	5
699.956	17
700.078	11
700.201	5
700.323	30
700.446	20
700.568	-3
700.69	28
700.813	7
700.935	5
701.058	11
701.18	7
701.302	-11
701.425	-1
701.547	7
701.67	9
701.792	19
701.915	-15
702.037	-4
702.159	1
702.282	6
702.404	-1
702.527	8
702.649	32
702.772	15
702.894	0
703.017	16
703.139	6
703.261	24
703.384	19
703.506	-6
703.629	11
703.751	21
703.874	14
703.996	-2
704.119	6
704.241	11
704.364	-13
704.486	12
704.608	17
704.731	11
704.853	11
704.976	-3
705.098	10
705.221	28
705.343	11
705.466	34
705.588	17
705.711	20
705.833	7
705.956	9
706.078	21
706.201	7
706.323	8
706.446	-1
