Data from LowRes_mercury_15_20_11_07_2024_HR4C61881__84__15-23-40-670.txt Node

Date: Thu Nov 07 15:23:40 EST 2024
User: crc00042
Spectrometer: HR4C6188
Trigger mode: 4
Integration Time (sec): 1.000000E-1
Scans to average: 1
Electric dark correction enabled: true
Nonlinearity correction enabled: false
Boxcar width: 0
XAxis mode: Wavelengths
Number of Pixels in Spectrum: 3648
>>>>>Begin Spectral Data<<<<<
245.66	-52
245.797	-52
245.934	-52
246.071	-80
246.208	8
246.344	10
246.481	-12
246.618	-3
246.755	12
246.892	-2
247.029	-3
247.165	-25
247.302	15
247.439	11
247.576	9
247.713	-25
247.849	28
247.986	-15
248.123	12
248.26	0
248.396	30
248.533	10
248.67	10
248.806	25
248.943	0
249.08	-8
249.216	1
249.353	-9
249.49	6
249.626	-7
249.763	20
249.9	-19
250.036	-3
250.173	2
250.309	-3
250.446	0
250.582	-5
250.719	-10
250.856	6
250.992	5
251.129	-3
251.265	-1
251.402	-4
251.538	4
251.675	-12
251.811	7
251.948	23
252.084	18
252.221	-27
252.357	-1
252.493	13
252.63	1
252.766	11
252.903	2
253.039	-6
253.175	-7
253.312	11
253.448	2
253.585	-6
253.721	-3
253.857	4
253.994	15
254.13	11
254.266	12
254.403	8
254.539	6
254.675	26
254.811	12
254.948	-6
255.084	-1
255.22	-6
255.356	-1
255.493	8
255.629	12
255.765	2
255.901	7
256.037	15
256.174	13
256.31	-3
256.446	-2
256.582	2
256.718	3
256.854	19
256.991	14
257.127	12
257.263	-7
257.399	5
257.535	-5
257.671	1
257.807	3
257.943	-5
258.079	-12
258.215	0
258.351	3
258.487	8
258.623	21
258.759	8
258.895	0
259.031	-4
259.167	-19
259.303	21
259.439	-16
259.575	8
259.711	-4
259.847	-6
259.983	31
260.119	2
260.255	6
260.391	13
260.527	27
260.663	18
260.799	11
260.934	-5
261.07	0
261.206	4
261.342	-8
261.478	3
261.614	19
261.749	10
261.885	-3
262.021	-10
262.157	22
262.293	7
262.428	1
262.564	-18
262.7	11
262.836	10
262.971	11
263.107	6
263.243	16
263.378	-2
263.514	-16
263.65	-17
263.785	-10
263.921	-4
264.057	3
264.192	5
264.328	19
264.464	10
264.599	4
264.735	24
264.871	0
265.006	15
265.142	16
265.277	19
265.413	23
265.548	12
265.684	10
265.819	10
265.955	-14
266.091	-6
266.226	4
266.362	-13
266.497	-1
266.633	9
266.768	6
266.903	7
267.039	-7
267.174	21
267.31	7
267.445	7
267.581	3
267.716	-5
267.851	18
267.987	19
268.122	11
268.258	1
268.393	-1
268.528	28
268.664	-3
268.799	-19
268.934	-3
269.07	-9
269.205	16
269.34	31
269.476	-6
269.611	5
269.746	21
269.881	14
270.017	4
270.152	-6
270.287	18
270.422	13
270.558	-9
270.693	21
270.828	1
270.963	10
271.098	2
271.234	1
271.369	12
271.504	2
271.639	-22
271.774	-9
271.909	11
272.045	-10
272.18	-1
272.315	15
272.45	16
272.585	6
272.72	-2
272.855	-6
272.99	1
273.125	8
273.26	-2
273.395	-23
273.53	15
273.665	12
273.8	5
273.935	-11
274.07	-13
274.205	-2
274.34	11
274.475	12
274.61	13
274.745	16
274.88	9
275.015	-21
275.15	18
275.285	22
275.42	-7
275.555	11
275.69	-1
275.825	-10
275.959	17
276.094	2
276.229	8
276.364	-20
276.499	-7
276.634	-18
276.768	17
276.903	13
277.038	9
277.173	28
277.308	21
277.442	-13
277.577	-8
277.712	19
277.847	-10
277.981	30
278.116	-7
278.251	-1
278.386	15
278.52	20
278.655	10
278.79	23
278.924	-5
279.059	8
279.194	-6
279.328	23
279.463	-2
279.598	27
279.732	13
279.867	23
280.001	3
280.136	8
280.271	-12
280.405	12
280.54	2
280.674	3
280.809	22
280.943	1
281.078	4
281.213	15
281.347	26
281.482	9
281.616	4
281.751	16
281.885	-22
282.02	5
282.154	-5
282.288	-29
282.423	-26
282.557	-15
282.692	12
282.826	10
282.961	9
283.095	-3
283.229	11
283.364	4
283.498	12
283.633	4
283.767	-6
283.901	11
284.036	26
284.17	-5
284.304	-14
284.439	14
284.573	3
284.707	2
284.842	-1
284.976	-6
285.11	-4
285.244	-5
285.379	34
285.513	-13
285.647	22
285.781	15
285.916	19
286.05	4
286.184	27
286.318	21
286.453	-5
286.587	-9
286.721	-4
286.855	31
286.989	39
287.123	-2
287.258	-12
287.392	1
287.526	24
287.66	9
287.794	6
287.928	-11
288.062	15
288.196	-10
288.33	14
288.464	21
288.598	7
288.733	14
288.867	6
289.001	-3
289.135	2
289.269	-4
289.403	12
289.537	-3
289.671	-2
289.805	-16
289.939	-8
290.073	4
290.207	8
290.34	-5
290.474	25
290.608	19
290.742	21
290.876	9
291.01	4
291.144	26
291.278	23
291.412	27
291.546	-15
291.679	1
291.813	16
291.947	12
292.081	1
292.215	-3
292.349	10
292.482	30
292.616	11
292.75	24
292.884	4
293.018	1
293.151	-5
293.285	-8
293.419	-5
293.553	15
293.686	-7
293.82	9
293.954	23
294.088	17
294.221	-13
294.355	-13
294.489	14
294.622	-13
294.756	12
294.89	2
295.023	21
295.157	44
295.291	5
295.424	14
295.558	10
295.691	1
295.825	2
295.959	16
296.092	-2
296.226	-10
296.359	0
296.493	5
296.627	15
296.76	7
296.894	-5
297.027	-5
297.161	6
297.294	-2
297.428	-8
297.561	21
297.695	13
297.828	16
297.962	-6
298.095	-7
298.229	7
298.362	-6
298.495	-7
298.629	-6
298.762	-3
298.896	-3
299.029	3
299.162	-4
299.296	8
299.429	-9
299.563	7
299.696	16
299.829	2
299.963	-1
300.096	14
300.229	25
300.363	-3
300.496	18
300.629	-13
300.763	-17
300.896	16
301.029	32
301.162	-1
301.296	-5
301.429	17
301.562	-7
301.695	0
301.829	10
301.962	10
302.095	-7
302.228	-16
302.362	2
302.495	-8
302.628	22
302.761	-8
302.894	17
303.027	12
303.161	1
303.294	6
303.427	24
303.56	13
303.693	8
303.826	2
303.959	-16
304.092	6
304.225	-11
304.359	5
304.492	13
304.625	-20
304.758	14
304.891	-1
305.024	7
305.157	7
305.29	1
305.423	-17
305.556	11
305.689	21
305.822	-6
305.955	6
306.088	-9
306.221	-2
306.354	7
306.487	-1
306.62	-5
306.752	-15
306.885	-15
307.018	-11
307.151	8
307.284	1
307.417	14
307.55	12
307.683	-4
307.816	16
307.948	21
308.081	21
308.214	26
308.347	19
308.48	2
308.613	-6
308.745	23
308.878	-14
309.011	-5
309.144	15
309.277	20
309.409	25
309.542	16
309.675	10
309.808	3
309.94	22
310.073	-20
310.206	-2
310.339	5
310.471	-7
310.604	14
310.737	-3
310.869	5
311.002	15
311.135	-11
311.267	-2
311.4	10
311.533	14
311.665	-8
311.798	-4
311.93	15
312.063	26
312.196	43
312.328	63
312.461	40
312.593	20
312.726	56
312.859	111
312.991	153
313.124	41
313.256	15
313.389	23
313.521	15
313.654	-3
313.786	-2
313.919	-14
314.051	-1
314.184	3
314.316	-3
314.449	-18
314.581	-8
314.714	-6
314.846	3
314.978	-3
315.111	0
315.243	25
315.376	6
315.508	10
315.641	9
315.773	15
315.905	16
316.038	4
316.17	7
316.302	14
316.435	0
316.567	-3
316.699	22
316.832	9
316.964	-4
317.096	-13
317.229	4
317.361	-15
317.493	-21
317.625	-21
317.758	21
317.89	7
318.022	26
318.155	11
318.287	17
318.419	8
318.551	-1
318.683	4
318.816	0
318.948	-13
319.08	2
319.212	15
319.344	6
319.477	-5
319.609	15
319.741	11
319.873	3
320.005	5
320.137	8
320.269	11
320.401	10
320.534	-10
320.666	-5
320.798	-6
320.93	-3
321.062	-6
321.194	-9
321.326	6
321.458	15
321.59	-3
321.722	-9
321.854	-3
321.986	-4
322.118	6
322.25	-6
322.382	10
322.514	7
322.646	-14
322.778	23
322.91	-2
323.042	13
323.174	-1
323.306	-5
323.438	-12
323.57	9
323.702	6
323.834	7
323.966	-11
324.097	0
324.229	23
324.361	11
324.493	-8
324.625	-15
324.757	5
324.889	9
325.021	14
325.152	30
325.284	15
325.416	8
325.548	23
325.68	11
325.811	17
325.943	10
326.075	5
326.207	17
326.339	29
326.47	18
326.602	27
326.734	16
326.866	32
326.997	-26
327.129	-20
327.261	-13
327.392	-7
327.524	-2
327.656	-11
327.787	16
327.919	6
328.051	8
328.182	22
328.314	41
328.446	3
328.577	24
328.709	17
328.841	8
328.972	-4
329.104	-3
329.235	-3
329.367	0
329.499	-9
329.63	16
329.762	13
329.893	10
330.025	6
330.156	-14
330.288	10
330.419	13
330.551	18
330.683	9
330.814	7
330.946	6
331.077	0
331.208	-7
331.34	6
331.471	6
331.603	14
331.734	-17
331.866	11
331.997	13
332.129	1
332.26	-9
332.392	23
332.523	1
332.654	-11
332.786	9
332.917	-11
333.048	25
333.18	19
333.311	8
333.443	5
333.574	22
333.705	24
333.837	31
333.968	107
334.099	216
334.231	210
334.362	60
334.493	17
334.624	27
334.756	21
334.887	8
335.018	11
335.15	9
335.281	14
335.412	35
335.543	29
335.675	25
335.806	34
335.937	6
336.068	21
336.199	36
336.331	3
336.462	-6
336.593	14
336.724	3
336.855	0
336.986	13
337.118	35
337.249	9
337.38	9
337.511	16
337.642	9
337.773	21
337.904	28
338.035	21
338.166	8
338.298	23
338.429	15
338.56	19
338.691	23
338.822	16
338.953	18
339.084	26
339.215	16
339.346	8
339.477	12
339.608	11
339.739	19
339.87	19
340.001	25
340.132	21
340.263	19
340.394	28
340.525	17
340.656	1
340.787	2
340.918	12
341.049	29
341.179	11
341.31	22
341.441	26
341.572	15
341.703	18
341.834	0
341.965	13
342.096	-3
342.227	10
342.357	3
342.488	-3
342.619	13
342.75	30
342.881	20
343.012	26
343.142	39
343.273	15
343.404	21
343.535	43
343.666	25
343.796	14
343.927	33
344.058	15
344.189	26
344.319	27
344.45	24
344.581	26
344.712	2
344.842	27
344.973	9
345.104	28
345.234	20
345.365	21
345.496	18
345.626	7
345.757	33
345.888	2
346.018	21
346.149	21
346.28	50
346.41	23
346.541	29
346.672	14
346.802	26
346.933	34
347.063	26
347.194	21
347.325	31
347.455	32
347.586	10
347.716	-4
347.847	25
347.977	36
348.108	59
348.238	45
348.369	30
348.499	42
348.63	51
348.76	59
348.891	62
349.021	55
349.152	51
349.282	46
349.413	39
349.543	38
349.674	28
349.804	47
349.935	34
350.065	16
350.196	41
350.326	22
350.456	7
350.587	16
350.717	23
350.848	12
350.978	29
351.108	-12
351.239	42
351.369	29
351.499	11
351.63	37
351.76	18
351.89	40
352.021	11
352.151	17
352.281	17
352.412	26
352.542	19
352.672	37
352.803	26
352.933	32
353.063	43
353.193	16
353.324	25
353.454	46
353.584	50
353.714	24
353.845	17
353.975	6
354.105	18
354.235	15
354.365	15
354.496	11
354.626	37
354.756	26
354.886	9
355.016	22
355.146	34
355.277	17
355.407	17
355.537	21
355.667	6
355.797	26
355.927	22
356.057	22
356.187	20
356.318	18
356.448	35
356.578	32
356.708	47
356.838	40
356.968	21
357.098	38
357.228	51
357.358	23
357.488	23
357.618	44
357.748	27
357.878	45
358.008	35
358.138	36
358.268	17
358.398	34
358.528	9
358.658	30
358.788	21
358.918	35
359.048	32
359.178	39
359.308	25
359.438	38
359.568	25
359.698	43
359.827	18
359.957	18
360.087	26
360.217	30
360.347	38
360.477	43
360.607	14
360.737	46
360.866	17
360.996	8
361.126	31
361.256	56
361.386	43
361.516	38
361.645	18
361.775	46
361.905	15
362.035	44
362.165	34
362.294	48
362.424	45
362.554	39
362.684	25
362.813	28
362.943	63
363.073	28
363.203	44
363.332	75
363.462	77
363.592	96
363.721	122
363.851	151
363.981	207
364.111	266
364.24	343
364.37	459
364.5	829
364.629	1818
364.759	3827
364.888	6263
365.018	9407
365.148	14821
365.277	12862
365.407	4733
365.537	3138
365.666	3997
365.796	1835
365.925	804
366.055	761
366.184	1050
366.314	1426
366.444	2474
366.573	2109
366.703	675
366.832	221
366.962	117
367.091	97
367.221	92
367.35	49
367.48	80
367.609	50
367.739	43
367.868	31
367.998	42
368.127	49
368.257	41
368.386	65
368.516	52
368.645	42
368.775	48
368.904	34
369.033	6
369.163	34
369.292	34
369.422	33
369.551	46
369.68	31
369.81	37
369.939	25
370.069	61
370.198	34
370.327	37
370.457	40
370.586	44
370.715	29
370.845	44
370.974	36
371.103	58
371.233	38
371.362	63
371.491	29
371.621	58
371.75	36
371.879	21
372.008	47
372.138	53
372.267	63
372.396	45
372.525	41
372.655	34
372.784	40
372.913	21
373.042	29
373.172	39
373.301	-6
373.43	-2
373.559	28
373.688	34
373.818	41
373.947	33
374.076	13
374.205	8
374.334	10
374.463	26
374.593	34
374.722	36
374.851	26
374.98	4
375.109	8
375.238	22
375.367	43
375.496	8
375.625	14
375.755	25
375.884	39
376.013	33
376.142	12
376.271	10
376.4	25
376.529	25
376.658	29
376.787	36
376.916	19
377.045	21
377.174	18
377.303	14
377.432	45
377.561	27
377.69	29
377.819	38
377.948	21
378.077	30
378.206	26
378.335	13
378.464	-2
378.593	38
378.722	17
378.851	11
378.98	17
379.108	12
379.237	-8
379.366	19
379.495	36
379.624	21
379.753	27
379.882	24
380.011	13
380.14	10
380.268	28
380.397	13
380.526	36
380.655	13
380.784	14
380.913	6
381.041	10
381.17	2
381.299	4
381.428	17
381.557	27
381.685	24
381.814	16
381.943	15
382.072	10
382.2	2
382.329	20
382.458	33
382.587	25
382.715	34
382.844	18
382.973	33
383.102	22
383.23	23
383.359	16
383.488	32
383.616	15
383.745	10
383.874	19
384.003	13
384.131	13
384.26	2
384.389	22
384.517	14
384.646	4
384.774	31
384.903	32
385.032	38
385.16	32
385.289	18
385.418	27
385.546	34
385.675	50
385.803	31
385.932	34
386.06	5
386.189	8
386.318	19
386.446	23
386.575	13
386.703	22
386.832	25
386.96	11
387.089	25
387.217	22
387.346	23
387.474	18
387.603	15
387.731	20
387.86	38
387.988	35
388.117	31
388.245	23
388.374	29
388.502	47
388.631	4
388.759	2
388.888	13
389.016	9
389.144	17
389.273	36
389.401	11
389.53	11
389.658	28
389.786	19
389.915	-3
390.043	5
390.172	26
390.3	57
390.428	53
390.557	15
390.685	46
390.813	46
390.942	42
391.07	29
391.198	28
391.327	32
391.455	3
391.583	51
391.712	38
391.84	43
391.968	25
392.096	15
392.225	35
392.353	43
392.481	44
392.609	45
392.738	38
392.866	21
392.994	2
393.122	32
393.251	17
393.379	31
393.507	10
393.635	46
393.764	34
393.892	36
394.02	1
394.148	22
394.276	36
394.404	50
394.533	28
394.661	28
394.789	44
394.917	42
395.045	22
395.173	20
395.302	22
395.43	47
395.558	36
395.686	39
395.814	54
395.942	25
396.07	43
396.198	24
396.326	38
396.454	34
396.582	46
396.711	42
396.839	34
396.967	36
397.095	48
397.223	38
397.351	55
397.479	35
397.607	29
397.735	78
397.863	62
397.991	67
398.119	42
398.247	55
398.375	42
398.503	43
398.631	57
398.759	71
398.887	49
399.015	46
399.143	71
399.271	62
399.399	64
399.526	72
399.654	81
399.782	61
399.91	104
400.038	90
400.166	96
400.294	90
400.422	86
400.55	95
400.678	108
400.805	114
400.933	116
401.061	115
401.189	113
401.317	136
401.445	95
401.573	63
401.7	72
401.828	65
401.956	70
402.084	56
402.212	56
402.34	42
402.467	35
402.595	39
402.723	27
402.851	56
402.978	62
403.106	70
403.234	79
403.362	114
403.489	125
403.617	150
403.745	177
403.873	284
404	562
404.128	1453
404.256	3932
404.384	5149
404.511	5469
404.639	7092
404.767	11473
404.894	14616
405.022	4940
405.15	1306
405.277	416
405.405	240
405.533	140
405.66	104
405.788	56
405.916	75
406.043	62
406.171	53
406.299	49
406.426	53
406.554	46
406.681	70
406.809	70
406.937	62
407.064	60
407.192	141
407.319	313
407.447	516
407.574	543
407.702	621
407.83	860
407.957	1594
408.085	937
408.212	248
408.34	102
408.467	41
408.595	57
408.722	67
408.85	73
408.977	26
409.105	43
409.232	33
409.36	18
409.487	19
409.615	30
409.742	37
409.87	30
409.997	41
410.125	29
410.252	42
410.379	26
410.507	31
410.634	26
410.762	27
410.889	46
411.017	35
411.144	27
411.271	16
411.399	38
411.526	34
411.653	26
411.781	42
411.908	25
412.036	12
412.163	32
412.29	32
412.418	32
412.545	17
412.672	48
412.8	35
412.927	27
413.054	47
413.182	47
413.309	18
413.436	20
413.564	9
413.691	14
413.818	55
413.945	28
414.073	29
414.2	17
414.327	30
414.454	31
414.582	22
414.709	15
414.836	52
414.963	42
415.091	42
415.218	35
415.345	29
415.472	33
415.6	22
415.727	40
415.854	18
415.981	14
416.108	13
416.236	28
416.363	30
416.49	16
416.617	35
416.744	45
416.871	47
416.998	22
417.126	21
417.253	34
417.38	33
417.507	35
417.634	44
417.761	39
417.888	54
418.015	38
418.143	34
418.27	36
418.397	25
418.524	36
418.651	32
418.778	39
418.905	56
419.032	54
419.159	27
419.286	56
419.413	60
419.54	55
419.667	38
419.794	33
419.921	38
420.048	48
420.175	42
420.302	36
420.429	50
420.556	55
420.683	51
420.81	48
420.937	56
421.064	87
421.191	74
421.318	82
421.445	70
421.572	47
421.699	49
421.826	37
421.953	49
422.08	24
422.207	7
422.334	12
422.461	38
422.588	23
422.714	9
422.841	43
422.968	30
423.095	34
423.222	23
423.349	34
423.476	28
423.603	15
423.729	9
423.856	16
423.983	27
424.11	-6
424.237	14
424.364	34
424.491	15
424.617	-9
424.744	21
424.871	33
424.998	17
425.125	21
425.251	18
425.378	6
425.505	29
425.632	4
425.758	6
425.885	19
426.012	30
426.139	58
426.266	3
426.392	24
426.519	31
426.646	23
426.772	31
426.899	26
427.026	12
427.153	12
427.279	29
427.406	21
427.533	27
427.659	21
427.786	12
427.913	50
428.039	23
428.166	13
428.293	24
428.419	25
428.546	8
428.673	24
428.799	4
428.926	14
429.053	41
429.179	27
429.306	23
429.433	58
429.559	34
429.686	7
429.812	23
429.939	23
430.066	51
430.192	30
430.319	40
430.445	33
430.572	26
430.699	8
430.825	12
430.952	15
431.078	42
431.205	46
431.331	30
431.458	30
431.584	32
431.711	29
431.837	37
431.964	31
432.09	22
432.217	19
432.343	6
432.47	40
432.596	41
432.723	25
432.849	25
432.976	35
433.102	41
433.229	32
433.355	58
433.482	86
433.608	102
433.735	110
433.861	130
433.987	150
434.114	178
434.24	152
434.367	208
434.493	215
434.62	286
434.746	395
434.872	632
434.999	857
435.125	1739
435.252	5484
435.378	13345
435.504	15181
435.631	15398
435.757	15684
435.883	15684
436.01	15684
436.136	15684
436.262	15684
436.389	3433
436.515	2061
436.641	757
436.768	617
436.894	389
437.02	380
437.147	288
437.273	265
437.399	221
437.526	248
437.652	182
437.778	218
437.904	145
438.031	165
438.157	141
438.283	149
438.409	103
438.536	122
438.662	124
438.788	114
438.914	105
439.041	140
439.167	136
439.293	107
439.419	104
439.546	99
439.672	87
439.798	108
439.924	90
440.05	90
440.177	87
440.303	56
440.429	53
440.555	73
440.681	47
440.807	66
440.934	67
441.06	82
441.186	59
441.312	74
441.438	73
441.564	65
441.69	62
441.816	58
441.943	48
442.069	39
442.195	48
442.321	61
442.447	26
442.573	49
442.699	42
442.825	46
442.951	62
443.077	54
443.203	47
443.33	47
443.456	42
443.582	60
443.708	48
443.834	50
443.96	35
444.086	63
444.212	71
444.338	58
444.464	62
444.59	61
444.716	26
444.842	49
444.968	39
445.094	47
445.22	24
445.346	25
445.472	34
445.598	45
445.724	29
445.85	25
445.976	46
446.102	35
446.228	58
446.354	50
446.48	40
446.605	31
446.731	36
446.857	18
446.983	30
447.109	26
447.235	27
447.361	18
447.487	28
447.613	57
447.739	24
447.865	37
447.99	34
448.116	30
448.242	35
448.368	23
448.494	29
448.62	63
448.746	42
448.872	34
448.997	15
449.123	38
449.249	50
449.375	35
449.501	29
449.627	31
449.752	51
449.878	27
450.004	21
450.13	26
450.256	29
450.381	30
450.507	30
450.633	22
450.759	25
450.884	26
451.01	27
451.136	5
451.262	36
451.388	38
451.513	38
451.639	35
451.765	22
451.89	37
452.016	32
452.142	33
452.268	33
452.393	38
452.519	18
452.645	31
452.771	16
452.896	9
453.022	22
453.148	29
453.273	23
453.399	37
453.525	-7
453.65	18
453.776	37
453.902	31
454.027	18
454.153	51
454.279	34
454.404	43
454.53	48
454.656	59
454.781	26
454.907	39
455.032	13
455.158	35
455.284	38
455.409	34
455.535	26
455.66	24
455.786	41
455.912	39
456.037	28
456.163	41
456.288	32
456.414	19
456.539	29
456.665	31
456.791	15
456.916	20
457.042	18
457.167	12
457.293	21
457.418	18
457.544	13
457.669	8
457.795	25
457.92	23
458.046	26
458.171	40
458.297	16
458.422	18
458.548	30
458.673	36
458.799	18
458.924	18
459.05	18
459.175	13
459.301	18
459.426	27
459.552	1
459.677	7
459.803	39
459.928	30
460.053	35
460.179	23
460.304	28
460.43	29
460.555	31
460.681	17
460.806	25
460.931	31
461.057	34
461.182	19
461.308	29
461.433	23
461.558	13
461.684	21
461.809	28
461.934	18
462.06	20
462.185	13
462.311	22
462.436	32
462.561	39
462.687	14
462.812	32
462.937	28
463.063	7
463.188	6
463.313	44
463.439	28
463.564	33
463.689	25
463.814	46
463.94	32
464.065	36
464.19	47
464.316	28
464.441	28
464.566	15
464.692	14
464.817	42
464.942	19
465.067	39
465.193	2
465.318	11
465.443	22
465.568	28
465.694	40
465.819	30
465.944	40
466.069	53
466.194	44
466.32	34
466.445	30
466.57	14
466.695	19
466.82	27
466.946	56
467.071	47
467.196	29
467.321	44
467.446	23
467.572	29
467.697	26
467.822	45
467.947	51
468.072	41
468.197	20
468.323	13
468.448	43
468.573	32
468.698	15
468.823	26
468.948	30
469.073	29
469.198	42
469.324	35
469.449	36
469.574	53
469.699	51
469.824	43
469.949	31
470.074	41
470.199	66
470.324	49
470.449	35
470.574	25
470.7	16
470.825	35
470.95	47
471.075	26
471.2	34
471.325	60
471.45	46
471.575	15
471.7	26
471.825	40
471.95	41
472.075	16
472.2	23
472.325	46
472.45	17
472.575	18
472.7	32
472.825	26
472.95	44
473.075	30
473.2	33
473.325	62
473.45	38
473.575	29
473.7	47
473.825	42
473.95	40
474.075	28
474.2	22
474.325	17
474.45	43
474.574	19
474.699	39
474.824	20
474.949	18
475.074	21
475.199	42
475.324	29
475.449	33
475.574	21
475.699	27
475.824	8
475.949	13
476.073	11
476.198	24
476.323	28
476.448	19
476.573	24
476.698	27
476.823	29
476.947	24
477.072	22
477.197	31
477.322	34
477.447	27
477.572	46
477.697	26
477.821	5
477.946	22
478.071	8
478.196	13
478.321	31
478.445	39
478.57	17
478.695	28
478.82	29
478.945	23
479.069	15
479.194	29
479.319	18
479.444	37
479.569	19
479.693	17
479.818	30
479.943	26
480.068	11
480.192	33
480.317	21
480.442	23
480.567	20
480.691	15
480.816	10
480.941	3
481.066	28
481.19	34
481.315	15
481.44	15
481.564	0
481.689	24
481.814	7
481.938	33
482.063	16
482.188	3
482.313	26
482.437	26
482.562	17
482.687	23
482.811	25
482.936	29
483.061	21
483.185	23
483.31	17
483.435	19
483.559	24
483.684	15
483.808	55
483.933	31
484.058	28
484.182	29
484.307	27
484.432	27
484.556	16
484.681	6
484.805	22
484.93	27
485.055	34
485.179	51
485.304	41
485.428	27
485.553	15
485.678	24
485.802	18
485.927	47
486.051	18
486.176	15
486.3	13
486.425	32
486.549	32
486.674	25
486.799	15
486.923	13
487.048	15
487.172	8
487.297	19
487.421	25
487.546	22
487.67	31
487.795	-2
487.919	29
488.044	34
488.168	37
488.293	13
488.417	22
488.542	16
488.666	23
488.791	35
488.915	30
489.04	38
489.164	49
489.289	42
489.413	24
489.538	16
489.662	41
489.786	25
489.911	29
490.035	25
490.16	18
490.284	17
490.409	15
490.533	17
490.658	45
490.782	16
490.906	57
491.031	123
491.155	137
491.28	156
491.404	170
491.528	250
491.653	138
491.777	69
491.902	27
492.026	44
492.15	26
492.275	51
492.399	19
492.524	23
492.648	38
492.772	22
492.897	31
493.021	24
493.145	31
493.27	28
493.394	19
493.518	25
493.643	24
493.767	45
493.891	6
494.016	21
494.14	18
494.264	21
494.389	14
494.513	2
494.637	23
494.762	33
494.886	29
495.01	22
495.134	22
495.259	28
495.383	14
495.507	-2
495.632	67
495.756	43
495.88	42
496.004	39
496.129	3
496.253	31
496.377	30
496.501	24
496.626	15
496.75	36
496.874	24
496.998	26
497.123	40
497.247	18
497.371	35
497.495	29
497.62	25
497.744	29
497.868	22
497.992	15
498.116	14
498.241	30
498.365	22
498.489	11
498.613	22
498.737	31
498.862	35
498.986	25
499.11	18
499.234	21
499.358	25
499.482	16
499.607	15
499.731	37
499.855	51
499.979	43
500.103	27
500.227	28
500.351	43
500.476	31
500.6	27
500.724	31
500.848	25
500.972	36
501.096	41
501.22	45
501.344	24
501.469	22
501.593	22
501.717	12
501.841	17
501.965	5
502.089	18
502.213	19
502.337	24
502.461	5
502.585	22
502.709	32
502.834	25
502.958	18
503.082	38
503.206	7
503.33	46
503.454	24
503.578	35
503.702	31
503.826	27
503.95	54
504.074	27
504.198	15
504.322	15
504.446	18
504.57	36
504.694	9
504.818	30
504.942	48
505.066	22
505.19	26
505.314	23
505.438	25
505.562	22
505.686	35
505.81	16
505.934	32
506.058	31
506.182	41
506.306	30
506.43	30
506.554	25
506.678	27
506.802	26
506.926	35
507.05	35
507.174	39
507.298	33
507.422	24
507.546	29
507.67	29
507.794	10
507.918	47
508.042	33
508.165	17
508.289	12
508.413	31
508.537	14
508.661	37
508.785	18
508.909	37
509.033	42
509.157	42
509.281	38
509.405	28
509.528	52
509.652	42
509.776	39
509.9	52
510.024	38
510.148	32
510.272	48
510.396	33
510.519	35
510.643	45
510.767	30
510.891	49
511.015	54
511.139	60
511.263	58
511.386	41
511.51	44
511.634	53
511.758	46
511.882	41
512.006	69
512.129	54
512.253	89
512.377	77
512.501	118
512.625	93
512.748	83
512.872	74
512.996	54
513.12	65
513.244	51
513.367	67
513.491	60
513.615	74
513.739	75
513.862	77
513.986	98
514.11	93
514.234	105
514.358	114
514.481	115
514.605	99
514.729	113
514.853	107
514.976	102
515.1	107
515.224	111
515.348	82
515.471	76
515.595	90
515.719	125
515.842	232
515.966	277
516.09	317
516.214	301
516.337	344
516.461	218
516.585	97
516.708	47
516.832	45
516.956	15
517.08	23
517.203	17
517.327	35
517.451	34
517.574	9
517.698	-3
517.822	18
517.945	21
518.069	33
518.193	54
518.316	18
518.44	7
518.564	-1
518.687	8
518.811	47
518.935	39
519.058	18
519.182	36
519.306	26
519.429	7
519.553	34
519.676	23
519.8	24
519.924	18
520.047	18
520.171	25
520.294	33
520.418	18
520.542	20
520.665	31
520.789	13
520.913	8
521.036	15
521.16	25
521.283	0
521.407	25
521.53	33
521.654	-7
521.778	34
521.901	14
522.025	22
522.148	10
522.272	16
522.395	13
522.519	30
522.643	21
522.766	17
522.89	10
523.013	35
523.137	20
523.26	15
523.384	18
523.507	27
523.631	14
523.754	19
523.878	15
524.002	31
524.125	18
524.249	10
524.372	25
524.496	30
524.619	14
524.743	23
524.866	22
524.99	16
525.113	18
525.237	26
525.36	23
525.484	11
525.607	9
525.731	1
525.854	32
525.978	39
526.101	21
526.224	12
526.348	12
526.471	22
526.595	21
526.718	12
526.842	1
526.965	29
527.089	25
527.212	18
527.336	24
527.459	17
527.582	18
527.706	37
527.829	20
527.953	33
528.076	4
528.2	14
528.323	28
528.446	37
528.57	13
528.693	45
528.817	13
528.94	28
529.064	44
529.187	5
529.31	27
529.434	17
529.557	20
529.68	12
529.804	18
529.927	21
530.051	12
530.174	7
530.297	10
530.421	24
530.544	29
530.668	27
530.791	2
530.914	27
531.038	38
531.161	11
531.284	29
531.408	14
531.531	11
531.654	28
531.778	15
531.901	5
532.024	31
532.148	11
532.271	19
532.394	10
532.518	31
532.641	32
532.764	7
532.888	16
533.011	22
533.134	3
533.258	14
533.381	28
533.504	10
533.628	25
533.751	27
533.874	6
533.997	2
534.121	-9
534.244	-5
534.367	21
534.491	25
534.614	16
534.737	38
534.86	40
534.984	3
535.107	5
535.23	15
535.354	13
535.477	7
535.6	24
535.723	34
535.847	23
535.97	14
536.093	18
536.216	11
536.34	25
536.463	1
536.586	8
536.709	11
536.833	21
536.956	9
537.079	22
537.202	32
537.325	14
537.449	8
537.572	21
537.695	9
537.818	16
537.941	14
538.065	5
538.188	-1
538.311	24
538.434	29
538.558	23
538.681	9
538.804	9
538.927	31
539.05	33
539.173	31
539.297	23
539.42	18
539.543	32
539.666	38
539.789	19
539.913	25
540.036	20
540.159	25
540.282	10
540.405	11
540.528	24
540.651	27
540.775	36
540.898	42
541.021	42
541.144	31
541.267	46
541.39	33
541.513	29
541.637	23
541.76	35
541.883	39
542.006	44
542.129	51
542.252	21
542.375	34
542.498	39
542.622	58
542.745	62
542.868	57
542.991	62
543.114	61
543.237	54
543.36	63
543.483	62
543.606	59
543.73	87
543.853	71
543.976	56
544.099	111
544.222	129
544.345	136
544.468	175
544.591	221
544.714	277
544.837	356
544.96	453
545.083	661
545.206	1069
545.329	2453
545.453	11001
545.576	15266
545.699	15684
545.822	15684
545.945	15684
546.068	15684
546.191	15684
546.314	15684
546.437	15684
546.56	15684
546.683	15684
546.806	15684
546.929	15684
547.052	15684
547.175	15684
547.298	15684
547.421	15684
547.544	15684
547.667	3526
547.79	2442
547.913	1040
548.036	897
548.159	618
548.282	624
548.405	458
548.528	481
548.651	401
548.774	388
548.897	337
549.02	356
549.143	319
549.266	295
549.389	271
549.512	257
549.635	255
549.758	266
549.881	213
550.004	225
550.127	195
550.25	203
550.373	169
550.496	190
550.619	165
550.742	163
550.865	139
550.988	160
551.111	147
551.234	142
551.356	126
551.479	119
551.602	125
551.725	131
551.848	133
551.971	132
552.094	110
552.217	113
552.34	117
552.463	117
552.586	106
552.709	107
552.832	106
552.955	108
553.077	105
553.2	110
553.323	73
553.446	105
553.569	104
553.692	94
553.815	88
553.938	107
554.061	93
554.184	67
554.306	88
554.429	82
554.552	77
554.675	79
554.798	71
554.921	88
555.044	73
555.167	74
555.29	79
555.412	55
555.535	70
555.658	71
555.781	77
555.904	60
556.027	61
556.15	69
556.272	69
556.395	70
556.518	74
556.641	88
556.764	69
556.887	72
557.01	63
557.132	46
557.255	47
557.378	50
557.501	57
557.624	82
557.747	81
557.869	78
557.992	103
558.115	95
558.238	64
558.361	88
558.483	100
558.606	53
558.729	57
558.852	72
558.975	53
559.098	55
559.22	56
559.343	62
559.466	59
559.589	62
559.712	52
559.834	67
559.957	44
560.08	39
560.203	54
560.325	65
560.448	62
560.571	61
560.694	49
560.817	85
560.939	64
561.062	43
561.185	56
561.308	73
561.43	65
561.553	80
561.676	42
561.799	92
561.921	69
562.044	65
562.167	57
562.29	69
562.413	75
562.535	82
562.658	49
562.781	55
562.903	65
563.026	82
563.149	130
563.272	118
563.394	124
563.517	119
563.64	53
563.763	57
563.885	68
564.008	56
564.131	56
564.254	31
564.376	37
564.499	26
564.622	12
564.744	39
564.867	32
564.99	45
565.113	52
565.235	52
565.358	46
565.481	45
565.603	47
565.726	31
565.849	58
565.971	43
566.094	43
566.217	48
566.34	27
566.462	36
566.585	35
566.708	53
566.83	29
566.953	42
567.076	50
567.198	34
567.321	24
567.444	49
567.566	38
567.689	24
567.812	43
567.934	47
568.057	43
568.18	36
568.302	28
568.425	45
568.548	30
568.67	24
568.793	40
568.916	55
569.038	25
569.161	37
569.283	43
569.406	42
569.529	22
569.651	33
569.774	35
569.897	27
570.019	47
570.142	47
570.265	41
570.387	35
570.51	34
570.632	31
570.755	31
570.878	23
571	46
571.123	31
571.246	49
571.368	35
571.491	46
571.613	24
571.736	31
571.859	30
571.981	24
572.104	26
572.226	47
572.349	22
572.472	35
572.594	38
572.717	28
572.839	22
572.962	56
573.085	38
573.207	20
573.33	22
573.452	38
573.575	36
573.697	25
573.82	38
573.943	37
574.065	51
574.188	42
574.31	29
574.433	43
574.555	50
574.678	28
574.801	48
574.923	28
575.046	35
575.168	43
575.291	31
575.413	39
575.536	46
575.659	33
575.781	60
575.904	63
576.026	80
576.149	83
576.271	160
576.394	217
576.516	557
576.639	3642
576.761	10204
576.884	8789
577.007	8792
577.129	7900
577.252	3738
577.374	1321
577.497	518
577.619	284
577.742	168
577.864	149
577.987	129
578.109	150
578.232	135
578.354	169
578.477	193
578.599	389
578.722	1945
578.844	9173
578.967	9775
579.089	8854
579.212	9104
579.334	5237
579.457	1921
579.579	711
579.702	313
579.824	210
579.947	129
580.069	125
580.192	82
580.314	94
580.437	78
580.559	88
580.682	70
580.804	64
580.927	46
581.049	72
581.172	67
581.294	56
581.417	53
581.539	48
581.662	65
581.784	51
581.907	49
582.029	33
582.152	29
582.274	36
582.396	39
582.519	36
582.641	29
582.764	40
582.886	42
583.009	41
583.131	17
583.254	25
583.376	28
583.499	56
583.621	46
583.743	26
583.866	50
583.988	38
584.111	27
584.233	33
584.356	41
584.478	34
584.601	17
584.723	18
584.845	46
584.968	31
585.09	9
585.213	37
585.335	15
585.458	24
585.58	37
585.702	53
585.825	45
585.947	31
586.07	25
586.192	21
586.315	32
586.437	19
586.559	34
586.682	19
586.804	38
586.927	28
587.049	19
587.171	14
587.294	39
587.416	44
587.539	32
587.661	17
587.783	11
587.906	28
588.028	33
588.151	14
588.273	47
588.395	28
588.518	38
588.64	34
588.763	41
588.885	28
589.007	37
589.13	12
589.252	7
589.375	31
589.497	47
589.619	27
589.742	38
589.864	37
589.986	18
590.109	29
590.231	35
590.354	28
590.476	24
590.598	32
590.721	21
590.843	28
590.965	34
591.088	38
591.21	32
591.332	36
591.455	23
591.577	23
591.7	29
591.822	15
591.944	46
592.067	32
592.189	43
592.311	32
592.434	33
592.556	40
592.678	34
592.801	27
592.923	27
593.045	15
593.168	29
593.29	22
593.412	28
593.535	30
593.657	33
593.779	36
593.902	22
594.024	27
594.146	46
594.269	34
594.391	23
594.513	33
594.636	19
594.758	21
594.88	41
595.003	27
595.125	18
595.247	38
595.37	30
595.492	10
595.614	28
595.737	30
595.859	21
595.981	14
596.104	24
596.226	0
596.348	17
596.471	8
596.593	26
596.715	19
596.838	17
596.96	12
597.082	35
597.204	30
597.327	25
597.449	17
597.571	29
597.694	36
597.816	31
597.938	29
598.061	22
598.183	21
598.305	28
598.427	17
598.55	22
598.672	45
598.794	39
598.917	21
599.039	33
599.161	51
599.283	12
599.406	27
599.528	36
599.65	47
599.773	37
599.895	45
600.017	43
600.139	22
600.262	31
600.384	29
600.506	23
600.628	47
600.751	51
600.873	24
600.995	30
601.118	41
601.24	31
601.362	22
601.484	39
601.607	31
601.729	21
601.851	25
601.973	23
602.096	26
602.218	39
602.34	25
602.462	49
602.585	40
602.707	16
602.829	30
602.951	28
603.074	14
603.196	23
603.318	27
603.44	26
603.563	8
603.685	8
603.807	35
603.929	31
604.052	39
604.174	36
604.296	16
604.418	41
604.541	44
604.663	18
604.785	2
604.907	18
605.03	13
605.152	45
605.274	18
605.396	18
605.519	29
605.641	21
605.763	20
605.885	23
606.008	30
606.13	49
606.252	27
606.374	17
606.496	17
606.619	33
606.741	18
606.863	45
606.985	45
607.108	40
607.23	22
607.352	18
607.474	32
607.596	33
607.719	22
607.841	38
607.963	39
608.085	12
608.207	31
608.33	18
608.452	6
608.574	34
608.696	34
608.819	8
608.941	17
609.063	13
609.185	19
609.307	25
609.43	43
609.552	33
609.674	10
609.796	35
609.918	34
610.041	9
610.163	21
610.285	22
610.407	22
610.529	7
610.652	20
610.774	29
610.896	29
611.018	34
611.14	23
611.263	21
611.385	7
611.507	36
611.629	20
611.751	37
611.873	47
611.996	24
612.118	45
612.24	40
612.362	42
612.484	35
612.607	47
612.729	40
612.851	37
612.973	25
613.095	3
613.218	24
613.34	34
613.462	11
613.584	9
613.706	18
613.828	61
613.951	24
614.073	48
614.195	37
614.317	33
614.439	30
614.561	31
614.684	30
614.806	26
614.928	35
615.05	28
615.172	39
615.294	35
615.417	18
615.539	13
615.661	17
615.783	13
615.905	6
616.027	11
616.15	40
616.272	24
616.394	15
616.516	22
616.638	23
616.76	26
616.883	31
617.005	30
617.127	12
617.249	19
617.371	19
617.493	29
617.615	41
617.738	29
617.86	41
617.982	32
618.104	44
618.226	9
618.348	4
618.471	16
618.593	38
618.715	18
618.837	30
618.959	27
619.081	34
619.203	19
619.326	18
619.448	20
619.57	38
619.692	34
619.814	34
619.936	25
620.058	30
620.181	17
620.303	11
620.425	24
620.547	11
620.669	10
620.791	23
620.913	6
621.036	13
621.158	22
621.28	12
621.402	26
621.524	33
621.646	22
621.768	23
621.891	-5
622.013	2
622.135	4
622.257	0
622.379	8
622.501	19
622.623	21
622.745	31
622.868	24
622.99	25
623.112	11
623.234	23
623.356	6
623.478	4
623.6	20
623.722	17
623.845	26
623.967	13
624.089	14
624.211	21
624.333	35
624.455	23
624.577	18
624.699	31
624.822	20
624.944	29
625.066	19
625.188	24
625.31	8
625.432	35
625.554	21
625.676	49
625.799	21
625.921	35
626.043	34
626.165	13
626.287	-6
626.409	23
626.531	12
626.653	14
626.775	34
626.898	36
627.02	28
627.142	42
627.264	23
627.386	26
627.508	39
627.63	20
627.752	19
627.874	15
627.997	26
628.119	54
628.241	34
628.363	29
628.485	35
628.607	17
628.729	5
628.851	5
628.973	20
629.096	14
629.218	26
629.34	33
629.462	11
629.584	3
629.706	21
629.828	33
629.95	16
630.072	15
630.195	13
630.317	24
630.439	25
630.561	29
630.683	6
630.805	21
630.927	31
631.049	18
631.171	-2
631.293	28
631.416	19
631.538	9
631.66	4
631.782	34
631.904	33
632.026	12
632.148	23
632.27	1
632.392	10
632.514	22
632.637	12
632.759	10
632.881	0
633.003	9
633.125	14
633.247	9
633.369	15
633.491	5
633.613	13
633.735	1
633.858	27
633.98	27
634.102	11
634.224	24
634.346	31
634.468	30
634.59	24
634.712	19
634.834	11
634.956	9
635.078	10
635.201	18
635.323	31
635.445	3
635.567	12
635.689	43
635.811	28
635.933	2
636.055	14
636.177	21
636.299	25
636.421	27
636.544	-12
636.666	13
636.788	14
636.91	19
637.032	6
637.154	30
637.276	59
637.398	37
637.52	16
637.642	14
637.764	21
637.887	9
638.009	11
638.131	29
638.253	4
638.375	28
638.497	14
638.619	5
638.741	17
638.863	1
638.985	-6
639.107	13
639.23	14
639.352	27
639.474	7
639.596	5
639.718	6
639.84	7
639.962	29
640.084	25
640.206	23
640.328	19
640.45	34
640.573	2
640.695	15
640.817	19
640.939	33
641.061	26
641.183	22
641.305	18
641.427	11
641.549	17
641.671	11
641.793	5
641.915	15
642.038	0
642.16	0
642.282	15
642.404	15
642.526	18
642.648	1
642.77	13
642.892	11
643.014	22
643.136	23
643.258	8
643.381	16
643.503	55
643.625	8
643.747	13
643.869	5
643.991	13
644.113	-6
644.235	1
644.357	10
644.479	22
644.601	22
644.723	7
644.846	15
644.968	23
645.09	11
645.212	23
645.334	27
645.456	19
645.578	19
645.7	12
645.822	25
645.944	12
646.066	13
646.188	8
646.311	40
646.433	7
646.555	28
646.677	30
646.799	37
646.921	24
647.043	28
647.165	15
647.287	10
647.409	9
647.531	29
647.654	-1
647.776	21
647.898	9
648.02	10
648.142	15
648.264	13
648.386	3
648.508	6
648.63	10
648.752	24
648.874	5
648.997	9
649.119	28
649.241	18
649.363	36
649.485	21
649.607	39
649.729	7
649.851	-1
649.973	21
650.095	24
650.217	9
650.34	11
650.462	15
650.584	20
650.706	16
650.828	22
650.95	1
651.072	17
651.194	2
651.316	6
651.438	17
651.56	6
651.683	15
651.805	22
651.927	29
652.049	18
652.171	18
652.293	22
652.415	3
652.537	9
652.659	3
652.781	16
652.903	17
653.026	33
653.148	21
653.27	1
653.392	15
653.514	6
653.636	3
653.758	0
653.88	1
654.002	1
654.124	-1
654.247	13
654.369	19
654.491	-4
654.613	25
654.735	21
654.857	17
654.979	6
655.101	26
655.223	38
655.345	32
655.468	32
655.59	8
655.712	17
655.834	9
655.956	28
656.078	21
656.2	26
656.322	25
656.444	2
656.566	10
656.689	15
656.811	5
656.933	16
657.055	-1
657.177	8
657.299	6
657.421	8
657.543	26
657.665	0
657.787	10
657.91	16
658.032	9
658.154	6
658.276	7
658.398	-1
658.52	18
658.642	26
658.764	23
658.886	5
659.009	18
659.131	22
659.253	15
659.375	22
659.497	13
659.619	6
659.741	-4
659.863	9
659.985	-1
660.108	29
660.23	-3
660.352	26
660.474	21
660.596	19
660.718	19
660.84	22
660.962	14
661.084	-8
661.207	14
661.329	15
661.451	13
661.573	0
661.695	37
661.817	23
661.939	21
662.061	27
662.184	11
662.306	11
662.428	19
662.55	7
662.672	15
662.794	13
662.916	-1
663.038	9
663.161	25
663.283	30
663.405	21
663.527	22
663.649	19
663.771	9
663.893	6
664.015	13
664.138	-5
664.26	23
664.382	11
664.504	-4
664.626	-11
664.748	5
664.87	-3
664.992	17
665.115	16
665.237	23
665.359	-1
665.481	20
665.603	14
665.725	18
665.847	-7
665.97	11
666.092	13
666.214	22
666.336	-9
666.458	28
666.58	32
666.702	12
666.825	0
666.947	2
667.069	4
667.191	-1
667.313	19
667.435	-2
667.557	5
667.68	-2
667.802	0
667.924	-8
668.046	5
668.168	8
668.29	10
668.412	-9
668.535	7
668.657	10
668.779	3
668.901	7
669.023	21
669.145	15
669.267	25
669.39	27
669.512	33
669.634	9
669.756	17
669.878	12
670	20
670.123	17
670.245	18
670.367	22
670.489	18
670.611	2
670.733	1
670.856	0
670.978	11
671.1	22
671.222	17
671.344	-3
671.466	11
671.589	15
671.711	22
671.833	9
671.955	28
672.077	19
672.199	22
672.322	15
672.444	21
672.566	13
672.688	6
672.81	24
672.932	22
673.055	25
673.177	6
673.299	12
673.421	3
673.543	1
673.665	26
673.788	27
673.91	5
674.032	-12
674.154	6
674.276	18
674.399	-7
674.521	18
674.643	11
674.765	14
674.887	18
675.009	6
675.132	-9
675.254	21
675.376	-12
675.498	21
675.62	29
675.743	16
675.865	9
675.987	2
676.109	18
676.231	4
676.354	26
676.476	11
676.598	26
676.72	33
676.842	22
676.965	31
677.087	21
677.209	29
677.331	21
677.453	11
677.576	22
677.698	15
677.82	10
677.942	-1
678.064	1
678.187	17
678.309	14
678.431	22
678.553	32
678.675	31
678.798	37
678.92	1
679.042	20
679.164	-4
679.286	15
679.409	17
679.531	8
679.653	-3
679.775	1
679.898	7
680.02	7
680.142	11
680.264	11
680.386	11
680.509	19
680.631	34
680.753	5
680.875	-4
680.998	21
681.12	2
681.242	21
681.364	10
681.486	-5
681.609	-11
681.731	-7
681.853	24
681.975	-7
682.098	19
682.22	26
682.342	7
682.464	19
682.587	5
682.709	-1
682.831	3
682.953	3
683.076	15
683.198	10
683.32	20
683.442	5
683.565	-4
683.687	-14
683.809	6
683.931	0
684.054	17
684.176	20
684.298	11
684.42	-9
684.543	6
684.665	22
684.787	10
684.909	-5
685.032	20
685.154	7
685.276	23
685.398	-1
685.521	-10
685.643	16
685.765	9
685.887	6
686.01	12
686.132	26
686.254	22
686.377	12
686.499	9
686.621	14
686.743	24
686.866	14
686.988	34
687.11	24
687.232	14
687.355	12
687.477	15
687.599	26
687.722	25
687.844	16
687.966	15
688.088	20
688.211	18
688.333	6
688.455	19
688.578	32
688.7	23
688.822	9
688.944	17
689.067	39
689.189	11
689.311	-14
689.434	13
689.556	34
689.678	27
689.801	5
689.923	15
690.045	32
690.167	28
690.29	25
690.412	8
690.534	23
690.657	6
690.779	3
690.901	7
691.024	3
691.146	21
691.268	11
691.391	22
691.513	18
691.635	26
691.758	22
691.88	15
692.002	13
692.125	11
692.247	12
692.369	11
692.492	7
692.614	11
692.736	9
692.859	2
692.981	14
693.103	-9
693.226	10
693.348	33
693.47	25
693.593	24
693.715	32
693.837	43
693.96	16
694.082	3
694.204	14
694.327	27
694.449	13
694.571	38
694.694	26
694.816	13
694.938	-8
695.061	5
695.183	14
695.305	13
695.428	14
695.55	13
695.672	14
695.795	27
695.917	33
696.04	15
696.162	-7
696.284	17
696.407	10
696.529	15
696.651	5
696.774	6
696.896	21
697.019	21
697.141	-3
697.263	-11
697.386	19
697.508	8
697.63	3
697.753	24
697.875	21
697.998	5
698.12	15
698.242	24
698.365	5
698.487	2
698.61	20
698.732	13
698.854	18
698.977	8
699.099	14
699.221	13
699.344	9
699.466	19
699.589	22
699.711	13
699.834	-5
699.956	33
700.078	26
700.201	18
700.323	9
700.446	-1
700.568	6
700.69	10
700.813	11
700.935	15
701.058	-1
701.18	-8
701.302	14
701.425	8
701.547	16
701.67	5
701.792	5
701.915	7
702.037	1
702.159	5
702.282	15
702.404	5
702.527	24
702.649	15
702.772	17
702.894	21
703.017	23
703.139	13
703.261	6
703.384	22
703.506	-9
703.629	-1
703.751	7
703.874	21
703.996	-1
704.119	3
704.241	13
704.364	11
704.486	10
704.608	12
704.731	19
704.853	14
704.976	14
705.098	19
705.221	6
705.343	16
705.466	28
705.588	12
705.711	12
705.833	25
705.956	3
706.078	10
706.201	15
706.323	10
706.446	1
