Data from LowRes_mercury_15_20_11_07_2024_HR4C61881__71__15-23-39-370.txt Node

Date: Thu Nov 07 15:23:39 EST 2024
User: crc00042
Spectrometer: HR4C6188
Trigger mode: 4
Integration Time (sec): 1.000000E-1
Scans to average: 1
Electric dark correction enabled: true
Nonlinearity correction enabled: false
Boxcar width: 0
XAxis mode: Wavelengths
Number of Pixels in Spectrum: 3648
>>>>>Begin Spectral Data<<<<<
245.66	-72.46
245.797	-72.46
245.934	-72.46
246.071	-76.46
246.208	34.54
246.344	1.54
246.481	-9.46
246.618	-17.46
246.755	16.54
246.892	3.54
247.029	-3.46
247.165	3.54
247.302	11.54
247.439	0.54
247.576	15.54
247.713	-24.46
247.849	16.54
247.986	-14.46
248.123	7.54
248.26	-3.46
248.396	-0.46
248.533	6.54
248.67	13.54
248.806	17.54
248.943	-10.46
249.08	-9.46
249.216	23.54
249.353	-11.46
249.49	-3.46
249.626	0.54
249.763	11.54
249.9	9.54
250.036	0.54
250.173	14.54
250.309	0.54
250.446	9.54
250.582	-6.46
250.719	1.54
250.856	-1.46
250.992	-15.46
251.129	8.54
251.265	-13.46
251.402	19.54
251.538	-2.46
251.675	-3.46
251.811	27.54
251.948	23.54
252.084	14.54
252.221	3.54
252.357	-9.46
252.493	33.54
252.63	11.54
252.766	31.54
252.903	-6.46
253.039	14.54
253.175	-2.46
253.312	-2.46
253.448	-16.46
253.585	-14.46
253.721	-2.46
253.857	-3.46
253.994	4.54
254.13	5.54
254.266	-2.46
254.403	-8.46
254.539	-5.46
254.675	3.54
254.811	11.54
254.948	10.54
255.084	2.54
255.22	1.54
255.356	2.54
255.493	9.54
255.629	8.54
255.765	-2.46
255.901	17.54
256.037	1.54
256.174	16.54
256.31	12.54
256.446	3.54
256.582	-0.46
256.718	11.54
256.854	18.54
256.991	22.54
257.127	13.54
257.263	0.54
257.399	9.54
257.535	-2.46
257.671	-3.46
257.807	2.54
257.943	0.54
258.079	-14.46
258.215	1.54
258.351	20.54
258.487	3.54
258.623	8.54
258.759	1.54
258.895	2.54
259.031	-10.46
259.167	-18.46
259.303	25.54
259.439	10.54
259.575	19.54
259.711	14.54
259.847	-17.46
259.983	-5.46
260.119	-20.46
260.255	-27.46
260.391	-4.46
260.527	-0.46
260.663	16.54
260.799	12.54
260.934	15.54
261.07	12.54
261.206	-2.46
261.342	-3.46
261.478	21.54
261.614	13.54
261.749	4.54
261.885	-8.46
262.021	6.54
262.157	29.54
262.293	-3.46
262.428	0.54
262.564	-5.46
262.7	30.54
262.836	16.54
262.971	16.54
263.107	10.54
263.243	18.54
263.378	4.54
263.514	-7.46
263.65	10.54
263.785	5.54
263.921	16.54
264.057	-12.46
264.192	14.54
264.328	10.54
264.464	10.54
264.599	14.54
264.735	22.54
264.871	-5.46
265.006	1.54
265.142	0.54
265.277	7.54
265.413	13.54
265.548	27.54
265.684	21.54
265.819	-3.46
265.955	-1.46
266.091	-4.46
266.226	9.54
266.362	2.54
266.497	15.54
266.633	-7.46
266.768	0.54
266.903	17.54
267.039	-5.46
267.174	14.54
267.31	-10.46
267.445	5.54
267.581	2.54
267.716	14.54
267.851	9.54
267.987	10.54
268.122	1.54
268.258	-0.46
268.393	-9.46
268.528	14.54
268.664	-4.46
268.799	-7.46
268.934	-2.46
269.07	-8.46
269.205	12.54
269.34	35.54
269.476	13.54
269.611	1.54
269.746	5.54
269.881	15.54
270.017	27.54
270.152	14.54
270.287	11.54
270.422	25.54
270.558	-0.46
270.693	15.54
270.828	1.54
270.963	4.54
271.098	13.54
271.234	-8.46
271.369	2.54
271.504	-2.46
271.639	-2.46
271.774	15.54
271.909	0.54
272.045	-4.46
272.18	8.54
272.315	8.54
272.45	3.54
272.585	-18.46
272.72	-9.46
272.855	-5.46
272.99	14.54
273.125	-7.46
273.26	-8.46
273.395	0.54
273.53	1.54
273.665	2.54
273.8	5.54
273.935	26.54
274.07	2.54
274.205	13.54
274.34	-13.46
274.475	5.54
274.61	24.54
274.745	5.54
274.88	23.54
275.015	-0.46
275.15	-4.46
275.285	5.54
275.42	18.54
275.555	13.54
275.69	27.54
275.825	11.54
275.959	10.54
276.094	-3.46
276.229	-6.46
276.364	5.54
276.499	11.54
276.634	-0.46
276.768	6.54
276.903	3.54
277.038	22.54
277.173	8.54
277.308	-3.46
277.442	-1.46
277.577	-7.46
277.712	8.54
277.847	6.54
277.981	15.54
278.116	-10.46
278.251	8.54
278.386	2.54
278.52	-8.46
278.655	6.54
278.79	22.54
278.924	-4.46
279.059	12.54
279.194	-9.46
279.328	43.54
279.463	9.54
279.598	24.54
279.732	21.54
279.867	15.54
280.001	16.54
280.136	0.54
280.271	0.54
280.405	-2.46
280.54	0.54
280.674	-9.46
280.809	8.54
280.943	14.54
281.078	-0.46
281.213	25.54
281.347	5.54
281.482	13.54
281.616	7.54
281.751	5.54
281.885	-8.46
282.02	-2.46
282.154	3.54
282.288	-3.46
282.423	-7.46
282.557	-17.46
282.692	6.54
282.826	5.54
282.961	14.54
283.095	9.54
283.229	-8.46
283.364	-12.46
283.498	-6.46
283.633	7.54
283.767	-11.46
283.901	5.54
284.036	7.54
284.17	-11.46
284.304	2.54
284.439	18.54
284.573	-8.46
284.707	-9.46
284.842	15.54
284.976	-7.46
285.11	-1.46
285.244	19.54
285.379	47.54
285.513	-16.46
285.647	14.54
285.781	8.54
285.916	23.54
286.05	-3.46
286.184	11.54
286.318	22.54
286.453	-10.46
286.587	-8.46
286.721	0.54
286.855	12.54
286.989	5.54
287.123	2.54
287.258	-16.46
287.392	-5.46
287.526	13.54
287.66	8.54
287.794	16.54
287.928	2.54
288.062	21.54
288.196	19.54
288.33	2.54
288.464	7.54
288.598	2.54
288.733	7.54
288.867	24.54
289.001	7.54
289.135	13.54
289.269	9.54
289.403	-4.46
289.537	2.54
289.671	0.54
289.805	-3.46
289.939	9.54
290.073	-14.46
290.207	21.54
290.34	2.54
290.474	25.54
290.608	20.54
290.742	0.54
290.876	-3.46
291.01	-3.46
291.144	26.54
291.278	8.54
291.412	-2.46
291.546	-6.46
291.679	-1.46
291.813	12.54
291.947	3.54
292.081	-9.46
292.215	-0.46
292.349	19.54
292.482	8.54
292.616	6.54
292.75	11.54
292.884	7.54
293.018	-3.46
293.151	-10.46
293.285	1.54
293.419	11.54
293.553	11.54
293.686	6.54
293.82	4.54
293.954	14.54
294.088	9.54
294.221	3.54
294.355	-9.46
294.489	14.54
294.622	-4.46
294.756	-7.46
294.89	5.54
295.023	7.54
295.157	13.54
295.291	16.54
295.424	9.54
295.558	22.54
295.691	11.54
295.825	-6.46
295.959	-0.46
296.092	-15.46
296.226	3.54
296.359	11.54
296.493	18.54
296.627	6.54
296.76	9.54
296.894	-10.46
297.027	-6.46
297.161	1.54
297.294	3.54
297.428	5.54
297.561	11.54
297.695	-1.46
297.828	10.54
297.962	0.54
298.095	-3.46
298.229	-1.46
298.362	-0.46
298.495	-1.46
298.629	-13.46
298.762	3.54
298.896	1.54
299.029	-8.46
299.162	18.54
299.296	11.54
299.429	4.54
299.563	20.54
299.696	8.54
299.829	5.54
299.963	14.54
300.096	23.54
300.229	9.54
300.363	-1.46
300.496	3.54
300.629	-15.46
300.763	10.54
300.896	0.54
301.029	11.54
301.162	2.54
301.296	-2.46
301.429	-8.46
301.562	-6.46
301.695	0.54
301.829	12.54
301.962	28.54
302.095	14.54
302.228	22.54
302.362	3.54
302.495	-4.46
302.628	18.54
302.761	11.54
302.894	10.54
303.027	6.54
303.161	-11.46
303.294	-4.46
303.427	21.54
303.56	20.54
303.693	-6.46
303.826	4.54
303.959	0.54
304.092	9.54
304.225	-1.46
304.359	2.54
304.492	2.54
304.625	-8.46
304.758	7.54
304.891	-7.46
305.024	11.54
305.157	13.54
305.29	-12.46
305.423	-0.46
305.556	12.54
305.689	28.54
305.822	-0.46
305.955	7.54
306.088	-9.46
306.221	-22.46
306.354	-4.46
306.487	-16.46
306.62	-14.46
306.752	-5.46
306.885	6.54
307.018	-3.46
307.151	-12.46
307.284	20.54
307.417	-6.46
307.55	14.54
307.683	22.54
307.816	15.54
307.948	9.54
308.081	12.54
308.214	19.54
308.347	40.54
308.48	4.54
308.613	-9.46
308.745	20.54
308.878	-7.46
309.011	-9.46
309.144	15.54
309.277	-20.46
309.409	14.54
309.542	1.54
309.675	9.54
309.808	18.54
309.94	23.54
310.073	-9.46
310.206	-3.46
310.339	6.54
310.471	-3.46
310.604	16.54
310.737	3.54
310.869	2.54
311.002	2.54
311.135	-4.46
311.267	3.54
311.4	-4.46
311.533	30.54
311.665	-9.46
311.798	6.54
311.93	11.54
312.063	20.54
312.196	56.54
312.328	88.54
312.461	74.54
312.593	36.54
312.726	43.54
312.859	92.54
312.991	164.54
313.124	38.54
313.256	22.54
313.389	-2.46
313.521	-15.46
313.654	-8.46
313.786	1.54
313.919	0.54
314.051	4.54
314.184	13.54
314.316	3.54
314.449	1.54
314.581	23.54
314.714	15.54
314.846	1.54
314.978	10.54
315.111	-10.46
315.243	-0.46
315.376	11.54
315.508	17.54
315.641	9.54
315.773	-2.46
315.905	13.54
316.038	3.54
316.17	7.54
316.302	-0.46
316.435	3.54
316.567	0.54
316.699	11.54
316.832	-10.46
316.964	-6.46
317.096	-9.46
317.229	-18.46
317.361	2.54
317.493	0.54
317.625	-0.46
317.758	26.54
317.89	7.54
318.022	3.54
318.155	-5.46
318.287	11.54
318.419	-2.46
318.551	-4.46
318.683	6.54
318.816	-11.46
318.948	0.54
319.08	-27.46
319.212	-3.46
319.344	17.54
319.477	10.54
319.609	8.54
319.741	2.54
319.873	-8.46
320.005	-4.46
320.137	8.54
320.269	25.54
320.401	-9.46
320.534	1.54
320.666	-19.46
320.798	-8.46
320.93	-14.46
321.062	-5.46
321.194	-0.46
321.326	26.54
321.458	30.54
321.59	0.54
321.722	-4.46
321.854	16.54
321.986	-8.46
322.118	6.54
322.25	8.54
322.382	-1.46
322.514	8.54
322.646	-11.46
322.778	20.54
322.91	-14.46
323.042	-0.46
323.174	6.54
323.306	-4.46
323.438	-10.46
323.57	5.54
323.702	17.54
323.834	2.54
323.966	-5.46
324.097	7.54
324.229	9.54
324.361	21.54
324.493	5.54
324.625	-13.46
324.757	-5.46
324.889	4.54
325.021	7.54
325.152	19.54
325.284	9.54
325.416	4.54
325.548	16.54
325.68	-6.46
325.811	23.54
325.943	5.54
326.075	-17.46
326.207	21.54
326.339	14.54
326.47	8.54
326.602	34.54
326.734	18.54
326.866	23.54
326.997	12.54
327.129	3.54
327.261	-6.46
327.392	-5.46
327.524	-7.46
327.656	6.54
327.787	27.54
327.919	6.54
328.051	9.54
328.182	26.54
328.314	34.54
328.446	-5.46
328.577	22.54
328.709	10.54
328.841	-0.46
328.972	-8.46
329.104	0.54
329.235	3.54
329.367	5.54
329.499	0.54
329.63	9.54
329.762	-1.46
329.893	8.54
330.025	9.54
330.156	-0.46
330.288	12.54
330.419	10.54
330.551	14.54
330.683	-0.46
330.814	-11.46
330.946	14.54
331.077	1.54
331.208	2.54
331.34	17.54
331.471	3.54
331.603	16.54
331.734	1.54
331.866	15.54
331.997	6.54
332.129	-5.46
332.26	7.54
332.392	25.54
332.523	3.54
332.654	-3.46
332.786	3.54
332.917	-12.46
333.048	17.54
333.18	34.54
333.311	19.54
333.443	2.54
333.574	12.54
333.705	23.54
333.837	43.54
333.968	125.54
334.099	233.54
334.231	203.54
334.362	59.54
334.493	41.54
334.624	19.54
334.756	19.54
334.887	15.54
335.018	11.54
335.15	29.54
335.281	14.54
335.412	22.54
335.543	11.54
335.675	20.54
335.806	14.54
335.937	-6.46
336.068	10.54
336.199	34.54
336.331	10.54
336.462	-6.46
336.593	29.54
336.724	-7.46
336.855	-5.46
336.986	14.54
337.118	19.54
337.249	12.54
337.38	-0.46
337.511	13.54
337.642	21.54
337.773	-6.46
337.904	1.54
338.035	27.54
338.166	8.54
338.298	12.54
338.429	-9.46
338.56	10.54
338.691	29.54
338.822	45.54
338.953	18.54
339.084	29.54
339.215	-1.46
339.346	8.54
339.477	-6.46
339.608	7.54
339.739	14.54
339.87	7.54
340.001	3.54
340.132	8.54
340.263	3.54
340.394	21.54
340.525	16.54
340.656	-3.46
340.787	10.54
340.918	36.54
341.049	25.54
341.179	8.54
341.31	10.54
341.441	26.54
341.572	17.54
341.703	19.54
341.834	3.54
341.965	2.54
342.096	6.54
342.227	10.54
342.357	32.54
342.488	36.54
342.619	35.54
342.75	23.54
342.881	-5.46
343.012	25.54
343.142	3.54
343.273	8.54
343.404	21.54
343.535	42.54
343.666	32.54
343.796	36.54
343.927	18.54
344.058	40.54
344.189	43.54
344.319	32.54
344.45	24.54
344.581	17.54
344.712	11.54
344.842	12.54
344.973	19.54
345.104	32.54
345.234	15.54
345.365	3.54
345.496	33.54
345.626	18.54
345.757	19.54
345.888	1.54
346.018	23.54
346.149	22.54
346.28	37.54
346.41	21.54
346.541	22.54
346.672	22.54
346.802	26.54
346.933	21.54
347.063	17.54
347.194	20.54
347.325	34.54
347.455	41.54
347.586	33.54
347.716	30.54
347.847	43.54
347.977	43.54
348.108	55.54
348.238	31.54
348.369	35.54
348.499	46.54
348.63	35.54
348.76	60.54
348.891	52.54
349.021	62.54
349.152	59.54
349.282	49.54
349.413	47.54
349.543	66.54
349.674	33.54
349.804	41.54
349.935	7.54
350.065	38.54
350.196	27.54
350.326	19.54
350.456	19.54
350.587	31.54
350.717	23.54
350.848	30.54
350.978	38.54
351.108	3.54
351.239	8.54
351.369	13.54
351.499	9.54
351.63	55.54
351.76	29.54
351.89	14.54
352.021	-1.46
352.151	1.54
352.281	34.54
352.412	35.54
352.542	29.54
352.672	9.54
352.803	24.54
352.933	15.54
353.063	33.54
353.193	14.54
353.324	22.54
353.454	24.54
353.584	67.54
353.714	22.54
353.845	14.54
353.975	15.54
354.105	5.54
354.235	12.54
354.365	19.54
354.496	25.54
354.626	22.54
354.756	15.54
354.886	22.54
355.016	26.54
355.146	23.54
355.277	49.54
355.407	14.54
355.537	28.54
355.667	32.54
355.797	2.54
355.927	17.54
356.057	26.54
356.187	15.54
356.318	19.54
356.448	29.54
356.578	21.54
356.708	41.54
356.838	39.54
356.968	32.54
357.098	40.54
357.228	27.54
357.358	18.54
357.488	25.54
357.618	62.54
357.748	26.54
357.878	24.54
358.008	26.54
358.138	13.54
358.268	21.54
358.398	28.54
358.528	17.54
358.658	35.54
358.788	19.54
358.918	31.54
359.048	14.54
359.178	29.54
359.308	31.54
359.438	54.54
359.568	41.54
359.698	36.54
359.827	26.54
359.957	25.54
360.087	37.54
360.217	33.54
360.347	40.54
360.477	42.54
360.607	10.54
360.737	47.54
360.866	27.54
360.996	21.54
361.126	24.54
361.256	40.54
361.386	22.54
361.516	44.54
361.645	24.54
361.775	37.54
361.905	19.54
362.035	63.54
362.165	37.54
362.294	22.54
362.424	58.54
362.554	40.54
362.684	32.54
362.813	29.54
362.943	59.54
363.073	59.54
363.203	42.54
363.332	70.54
363.462	70.54
363.592	102.54
363.721	117.54
363.851	149.54
363.981	203.54
364.111	246.54
364.24	323.54
364.37	483.54
364.5	857.54
364.629	1819.54
364.759	3840.54
364.888	6268.54
365.018	9485.54
365.148	14829.54
365.277	12925.54
365.407	4747.54
365.537	3116.54
365.666	4031.54
365.796	1821.54
365.925	791.54
366.055	767.54
366.184	1042.54
366.314	1415.54
366.444	2478.54
366.573	2094.54
366.703	629.54
366.832	225.54
366.962	103.54
367.091	84.54
367.221	84.54
367.35	55.54
367.48	74.54
367.609	42.54
367.739	60.54
367.868	24.54
367.998	54.54
368.127	63.54
368.257	67.54
368.386	60.54
368.516	58.54
368.645	26.54
368.775	48.54
368.904	40.54
369.033	47.54
369.163	22.54
369.292	39.54
369.422	34.54
369.551	57.54
369.68	53.54
369.81	56.54
369.939	21.54
370.069	63.54
370.198	59.54
370.327	18.54
370.457	37.54
370.586	36.54
370.715	21.54
370.845	36.54
370.974	10.54
371.103	41.54
371.233	44.54
371.362	57.54
371.491	41.54
371.621	35.54
371.75	56.54
371.879	32.54
372.008	42.54
372.138	45.54
372.267	55.54
372.396	45.54
372.525	31.54
372.655	45.54
372.784	28.54
372.913	36.54
373.042	43.54
373.172	43.54
373.301	10.54
373.43	5.54
373.559	13.54
373.688	36.54
373.818	16.54
373.947	34.54
374.076	28.54
374.205	42.54
374.334	26.54
374.463	18.54
374.593	38.54
374.722	20.54
374.851	44.54
374.98	10.54
375.109	44.54
375.238	30.54
375.367	38.54
375.496	5.54
375.625	9.54
375.755	20.54
375.884	53.54
376.013	36.54
376.142	4.54
376.271	25.54
376.4	20.54
376.529	41.54
376.658	24.54
376.787	29.54
376.916	39.54
377.045	30.54
377.174	41.54
377.303	16.54
377.432	48.54
377.561	40.54
377.69	21.54
377.819	38.54
377.948	27.54
378.077	11.54
378.206	8.54
378.335	12.54
378.464	17.54
378.593	52.54
378.722	22.54
378.851	31.54
378.98	25.54
379.108	7.54
379.237	10.54
379.366	24.54
379.495	14.54
379.624	28.54
379.753	9.54
379.882	15.54
380.011	6.54
380.14	9.54
380.268	12.54
380.397	19.54
380.526	30.54
380.655	2.54
380.784	-1.46
380.913	20.54
381.041	13.54
381.17	-5.46
381.299	18.54
381.428	31.54
381.557	10.54
381.685	19.54
381.814	19.54
381.943	11.54
382.072	21.54
382.2	14.54
382.329	29.54
382.458	17.54
382.587	29.54
382.715	31.54
382.844	22.54
382.973	18.54
383.102	15.54
383.23	23.54
383.359	17.54
383.488	22.54
383.616	-6.46
383.745	-14.46
383.874	18.54
384.003	18.54
384.131	7.54
384.26	10.54
384.389	18.54
384.517	19.54
384.646	6.54
384.774	20.54
384.903	31.54
385.032	37.54
385.16	14.54
385.289	17.54
385.418	-4.46
385.546	30.54
385.675	21.54
385.803	12.54
385.932	15.54
386.06	9.54
386.189	13.54
386.318	19.54
386.446	21.54
386.575	30.54
386.703	23.54
386.832	13.54
386.96	9.54
387.089	39.54
387.217	22.54
387.346	26.54
387.474	11.54
387.603	9.54
387.731	21.54
387.86	26.54
387.988	23.54
388.117	30.54
388.245	29.54
388.374	23.54
388.502	32.54
388.631	13.54
388.759	8.54
388.888	14.54
389.016	9.54
389.144	22.54
389.273	17.54
389.401	18.54
389.53	7.54
389.658	33.54
389.786	10.54
389.915	4.54
390.043	23.54
390.172	41.54
390.3	32.54
390.428	32.54
390.557	39.54
390.685	27.54
390.813	56.54
390.942	36.54
391.07	14.54
391.198	11.54
391.327	28.54
391.455	3.54
391.583	39.54
391.712	29.54
391.84	32.54
391.968	8.54
392.096	28.54
392.225	12.54
392.353	33.54
392.481	33.54
392.609	42.54
392.738	25.54
392.866	39.54
392.994	16.54
393.122	35.54
393.251	28.54
393.379	21.54
393.507	10.54
393.635	28.54
393.764	31.54
393.892	27.54
394.02	38.54
394.148	18.54
394.276	38.54
394.404	53.54
394.533	38.54
394.661	35.54
394.789	31.54
394.917	33.54
395.045	25.54
395.173	33.54
395.302	28.54
395.43	41.54
395.558	35.54
395.686	35.54
395.814	26.54
395.942	26.54
396.07	28.54
396.198	44.54
396.326	33.54
396.454	51.54
396.582	41.54
396.711	26.54
396.839	30.54
396.967	31.54
397.095	34.54
397.223	38.54
397.351	57.54
397.479	54.54
397.607	48.54
397.735	51.54
397.863	51.54
397.991	36.54
398.119	26.54
398.247	55.54
398.375	65.54
398.503	55.54
398.631	62.54
398.759	59.54
398.887	53.54
399.015	37.54
399.143	57.54
399.271	71.54
399.399	56.54
399.526	70.54
399.654	76.54
399.782	60.54
399.91	103.54
400.038	100.54
400.166	75.54
400.294	76.54
400.422	104.54
400.55	118.54
400.678	119.54
400.805	99.54
400.933	110.54
401.061	115.54
401.189	127.54
401.317	145.54
401.445	98.54
401.573	73.54
401.7	38.54
401.828	45.54
401.956	46.54
402.084	53.54
402.212	39.54
402.34	30.54
402.467	36.54
402.595	37.54
402.723	32.54
402.851	58.54
402.978	57.54
403.106	75.54
403.234	91.54
403.362	118.54
403.489	126.54
403.617	153.54
403.745	194.54
403.873	287.54
404	576.54
404.128	1451.54
404.256	3930.54
404.384	5077.54
404.511	5423.54
404.639	7251.54
404.767	11467.54
404.894	14615.54
405.022	4906.54
405.15	1316.54
405.277	430.54
405.405	241.54
405.533	126.54
405.66	110.54
405.788	74.54
405.916	78.54
406.043	55.54
406.171	49.54
406.299	75.54
406.426	68.54
406.554	55.54
406.681	67.54
406.809	58.54
406.937	81.54
407.064	60.54
407.192	149.54
407.319	311.54
407.447	509.54
407.574	544.54
407.702	639.54
407.83	825.54
407.957	1561.54
408.085	960.54
408.212	271.54
408.34	96.54
408.467	57.54
408.595	41.54
408.722	61.54
408.85	58.54
408.977	41.54
409.105	26.54
409.232	46.54
409.36	43.54
409.487	30.54
409.615	35.54
409.742	31.54
409.87	10.54
409.997	38.54
410.125	41.54
410.252	34.54
410.379	37.54
410.507	39.54
410.634	26.54
410.762	39.54
410.889	40.54
411.017	33.54
411.144	37.54
411.271	14.54
411.399	23.54
411.526	30.54
411.653	29.54
411.781	38.54
411.908	23.54
412.036	17.54
412.163	32.54
412.29	20.54
412.418	48.54
412.545	25.54
412.672	12.54
412.8	55.54
412.927	36.54
413.054	40.54
413.182	53.54
413.309	33.54
413.436	27.54
413.564	23.54
413.691	53.54
413.818	55.54
413.945	3.54
414.073	27.54
414.2	31.54
414.327	35.54
414.454	26.54
414.582	30.54
414.709	15.54
414.836	26.54
414.963	37.54
415.091	39.54
415.218	22.54
415.345	27.54
415.472	18.54
415.6	23.54
415.727	11.54
415.854	36.54
415.981	22.54
416.108	18.54
416.236	29.54
416.363	41.54
416.49	28.54
416.617	35.54
416.744	36.54
416.871	31.54
416.998	24.54
417.126	22.54
417.253	27.54
417.38	16.54
417.507	22.54
417.634	44.54
417.761	30.54
417.888	42.54
418.015	30.54
418.143	40.54
418.27	42.54
418.397	22.54
418.524	23.54
418.651	19.54
418.778	48.54
418.905	59.54
419.032	35.54
419.159	47.54
419.286	53.54
419.413	57.54
419.54	49.54
419.667	28.54
419.794	38.54
419.921	59.54
420.048	53.54
420.175	65.54
420.302	46.54
420.429	71.54
420.556	67.54
420.683	41.54
420.81	46.54
420.937	73.54
421.064	79.54
421.191	72.54
421.318	80.54
421.445	84.54
421.572	63.54
421.699	51.54
421.826	42.54
421.953	49.54
422.08	34.54
422.207	32.54
422.334	11.54
422.461	26.54
422.588	5.54
422.714	24.54
422.841	21.54
422.968	15.54
423.095	36.54
423.222	15.54
423.349	16.54
423.476	17.54
423.603	10.54
423.729	11.54
423.856	31.54
423.983	32.54
424.11	21.54
424.237	41.54
424.364	23.54
424.491	22.54
424.617	-8.46
424.744	7.54
424.871	22.54
424.998	-7.46
425.125	13.54
425.251	24.54
425.378	0.54
425.505	6.54
425.632	15.54
425.758	14.54
425.885	38.54
426.012	39.54
426.139	46.54
426.266	22.54
426.392	5.54
426.519	29.54
426.646	5.54
426.772	21.54
426.899	36.54
427.026	28.54
427.153	29.54
427.279	25.54
427.406	28.54
427.533	22.54
427.659	33.54
427.786	21.54
427.913	47.54
428.039	37.54
428.166	23.54
428.293	17.54
428.419	34.54
428.546	22.54
428.673	3.54
428.799	10.54
428.926	21.54
429.053	39.54
429.179	21.54
429.306	25.54
429.433	39.54
429.559	40.54
429.686	24.54
429.812	10.54
429.939	15.54
430.066	34.54
430.192	21.54
430.319	35.54
430.445	30.54
430.572	20.54
430.699	24.54
430.825	3.54
430.952	16.54
431.078	23.54
431.205	42.54
431.331	31.54
431.458	35.54
431.584	38.54
431.711	36.54
431.837	34.54
431.964	18.54
432.09	25.54
432.217	26.54
432.343	25.54
432.47	28.54
432.596	42.54
432.723	22.54
432.849	21.54
432.976	47.54
433.102	29.54
433.229	15.54
433.355	71.54
433.482	86.54
433.608	105.54
433.735	110.54
433.861	111.54
433.987	159.54
434.114	195.54
434.24	161.54
434.367	214.54
434.493	214.54
434.62	266.54
434.746	386.54
434.872	635.54
434.999	827.54
435.125	1736.54
435.252	5506.54
435.378	13422.54
435.504	15221.54
435.631	15416.54
435.757	15684.54
435.883	15684.54
436.01	15684.54
436.136	15684.54
436.262	15684.54
436.389	3498.54
436.515	2102.54
436.641	776.54
436.768	625.54
436.894	392.54
437.02	382.54
437.147	321.54
437.273	300.54
437.399	212.54
437.526	242.54
437.652	182.54
437.778	210.54
437.904	157.54
438.031	152.54
438.157	110.54
438.283	135.54
438.409	120.54
438.536	103.54
438.662	115.54
438.788	129.54
438.914	110.54
439.041	107.54
439.167	98.54
439.293	101.54
439.419	89.54
439.546	85.54
439.672	70.54
439.798	96.54
439.924	96.54
440.05	95.54
440.177	79.54
440.303	77.54
440.429	65.54
440.555	60.54
440.681	45.54
440.807	63.54
440.934	51.54
441.06	56.54
441.186	56.54
441.312	44.54
441.438	56.54
441.564	67.54
441.69	74.54
441.816	69.54
441.943	48.54
442.069	51.54
442.195	55.54
442.321	57.54
442.447	46.54
442.573	52.54
442.699	36.54
442.825	45.54
442.951	67.54
443.077	45.54
443.203	49.54
443.33	39.54
443.456	30.54
443.582	65.54
443.708	42.54
443.834	56.54
443.96	52.54
444.086	37.54
444.212	53.54
444.338	61.54
444.464	51.54
444.59	65.54
444.716	32.54
444.842	41.54
444.968	27.54
445.094	58.54
445.22	7.54
445.346	14.54
445.472	32.54
445.598	22.54
445.724	28.54
445.85	43.54
445.976	21.54
446.102	40.54
446.228	61.54
446.354	54.54
446.48	36.54
446.605	35.54
446.731	36.54
446.857	23.54
446.983	41.54
447.109	29.54
447.235	45.54
447.361	39.54
447.487	50.54
447.613	28.54
447.739	21.54
447.865	37.54
447.99	43.54
448.116	55.54
448.242	31.54
448.368	27.54
448.494	23.54
448.62	38.54
448.746	21.54
448.872	33.54
448.997	33.54
449.123	42.54
449.249	47.54
449.375	47.54
449.501	25.54
449.627	6.54
449.752	49.54
449.878	18.54
450.004	19.54
450.13	35.54
450.256	31.54
450.381	33.54
450.507	26.54
450.633	40.54
450.759	54.54
450.884	31.54
451.01	28.54
451.136	28.54
451.262	31.54
451.388	25.54
451.513	32.54
451.639	46.54
451.765	31.54
451.89	34.54
452.016	42.54
452.142	39.54
452.268	41.54
452.393	39.54
452.519	13.54
452.645	37.54
452.771	25.54
452.896	17.54
453.022	17.54
453.148	35.54
453.273	41.54
453.399	20.54
453.525	9.54
453.65	30.54
453.776	33.54
453.902	22.54
454.027	48.54
454.153	18.54
454.279	26.54
454.404	16.54
454.53	30.54
454.656	46.54
454.781	38.54
454.907	28.54
455.032	35.54
455.158	46.54
455.284	39.54
455.409	22.54
455.535	30.54
455.66	34.54
455.786	37.54
455.912	22.54
456.037	28.54
456.163	57.54
456.288	38.54
456.414	13.54
456.539	13.54
456.665	36.54
456.791	27.54
456.916	33.54
457.042	32.54
457.167	31.54
457.293	24.54
457.418	33.54
457.544	19.54
457.669	24.54
457.795	41.54
457.92	19.54
458.046	33.54
458.171	30.54
458.297	12.54
458.422	3.54
458.548	19.54
458.673	38.54
458.799	25.54
458.924	27.54
459.05	24.54
459.175	22.54
459.301	9.54
459.426	31.54
459.552	21.54
459.677	15.54
459.803	57.54
459.928	41.54
460.053	26.54
460.179	13.54
460.304	34.54
460.43	17.54
460.555	18.54
460.681	5.54
460.806	30.54
460.931	37.54
461.057	27.54
461.182	19.54
461.308	29.54
461.433	26.54
461.558	17.54
461.684	29.54
461.809	36.54
461.934	28.54
462.06	49.54
462.185	33.54
462.311	21.54
462.436	34.54
462.561	27.54
462.687	14.54
462.812	21.54
462.937	27.54
463.063	21.54
463.188	6.54
463.313	25.54
463.439	1.54
463.564	25.54
463.689	29.54
463.814	21.54
463.94	25.54
464.065	44.54
464.19	26.54
464.316	-3.46
464.441	10.54
464.566	20.54
464.692	14.54
464.817	26.54
464.942	26.54
465.067	31.54
465.193	7.54
465.318	17.54
465.443	22.54
465.568	42.54
465.694	20.54
465.819	31.54
465.944	36.54
466.069	54.54
466.194	29.54
466.32	40.54
466.445	27.54
466.57	33.54
466.695	21.54
466.82	44.54
466.946	35.54
467.071	8.54
467.196	15.54
467.321	41.54
467.446	45.54
467.572	54.54
467.697	24.54
467.822	41.54
467.947	33.54
468.072	24.54
468.197	35.54
468.323	22.54
468.448	41.54
468.573	38.54
468.698	29.54
468.823	44.54
468.948	49.54
469.073	41.54
469.198	30.54
469.324	43.54
469.449	23.54
469.574	59.54
469.699	69.54
469.824	52.54
469.949	34.54
470.074	43.54
470.199	60.54
470.324	48.54
470.449	39.54
470.574	29.54
470.7	44.54
470.825	39.54
470.95	61.54
471.075	45.54
471.2	41.54
471.325	69.54
471.45	40.54
471.575	13.54
471.7	36.54
471.825	6.54
471.95	17.54
472.075	14.54
472.2	28.54
472.325	42.54
472.45	27.54
472.575	33.54
472.7	40.54
472.825	62.54
472.95	37.54
473.075	39.54
473.2	43.54
473.325	41.54
473.45	39.54
473.575	40.54
473.7	54.54
473.825	31.54
473.95	11.54
474.075	21.54
474.2	13.54
474.325	12.54
474.45	44.54
474.574	39.54
474.699	45.54
474.824	20.54
474.949	12.54
475.074	9.54
475.199	29.54
475.324	20.54
475.449	6.54
475.574	31.54
475.699	25.54
475.824	27.54
475.949	31.54
476.073	22.54
476.198	18.54
476.323	22.54
476.448	21.54
476.573	28.54
476.698	35.54
476.823	32.54
476.947	38.54
477.072	37.54
477.197	32.54
477.322	35.54
477.447	27.54
477.572	33.54
477.697	19.54
477.821	15.54
477.946	35.54
478.071	23.54
478.196	19.54
478.321	24.54
478.445	27.54
478.57	25.54
478.695	21.54
478.82	19.54
478.945	34.54
479.069	2.54
479.194	17.54
479.319	27.54
479.444	18.54
479.569	16.54
479.693	14.54
479.818	11.54
479.943	18.54
480.068	14.54
480.192	28.54
480.317	27.54
480.442	28.54
480.567	25.54
480.691	14.54
480.816	11.54
480.941	4.54
481.066	29.54
481.19	53.54
481.315	27.54
481.44	16.54
481.564	9.54
481.689	31.54
481.814	15.54
481.938	11.54
482.063	1.54
482.188	14.54
482.313	23.54
482.437	11.54
482.562	13.54
482.687	32.54
482.811	23.54
482.936	31.54
483.061	45.54
483.185	14.54
483.31	26.54
483.435	39.54
483.559	25.54
483.684	16.54
483.808	37.54
483.933	31.54
484.058	6.54
484.182	28.54
484.307	31.54
484.432	39.54
484.556	42.54
484.681	28.54
484.805	36.54
484.93	-0.46
485.055	11.54
485.179	37.54
485.304	31.54
485.428	31.54
485.553	23.54
485.678	25.54
485.802	23.54
485.927	34.54
486.051	32.54
486.176	28.54
486.3	12.54
486.425	17.54
486.549	34.54
486.674	47.54
486.799	21.54
486.923	11.54
487.048	27.54
487.172	24.54
487.297	25.54
487.421	23.54
487.546	29.54
487.67	26.54
487.795	12.54
487.919	10.54
488.044	34.54
488.168	32.54
488.293	21.54
488.417	9.54
488.542	39.54
488.666	34.54
488.791	36.54
488.915	-3.46
489.04	23.54
489.164	31.54
489.289	48.54
489.413	0.54
489.538	41.54
489.662	58.54
489.786	14.54
489.911	21.54
490.035	24.54
490.16	20.54
490.284	9.54
490.409	1.54
490.533	15.54
490.658	20.54
490.782	22.54
490.906	53.54
491.031	116.54
491.155	149.54
491.28	157.54
491.404	154.54
491.528	249.54
491.653	169.54
491.777	73.54
491.902	34.54
492.026	27.54
492.15	48.54
492.275	40.54
492.399	17.54
492.524	21.54
492.648	28.54
492.772	35.54
492.897	38.54
493.021	22.54
493.145	23.54
493.27	31.54
493.394	29.54
493.518	18.54
493.643	17.54
493.767	25.54
493.891	11.54
494.016	22.54
494.14	19.54
494.264	28.54
494.389	34.54
494.513	27.54
494.637	15.54
494.762	47.54
494.886	26.54
495.01	30.54
495.134	19.54
495.259	16.54
495.383	26.54
495.507	35.54
495.632	47.54
495.756	49.54
495.88	25.54
496.004	26.54
496.129	32.54
496.253	37.54
496.377	27.54
496.501	40.54
496.626	13.54
496.75	26.54
496.874	34.54
496.998	17.54
497.123	35.54
497.247	9.54
497.371	6.54
497.495	17.54
497.62	29.54
497.744	32.54
497.868	26.54
497.992	23.54
498.116	17.54
498.241	36.54
498.365	31.54
498.489	26.54
498.613	25.54
498.737	26.54
498.862	17.54
498.986	8.54
499.11	8.54
499.234	13.54
499.358	12.54
499.482	12.54
499.607	21.54
499.731	36.54
499.855	35.54
499.979	27.54
500.103	40.54
500.227	31.54
500.351	35.54
500.476	33.54
500.6	18.54
500.724	22.54
500.848	25.54
500.972	30.54
501.096	15.54
501.22	35.54
501.344	11.54
501.469	37.54
501.593	36.54
501.717	40.54
501.841	24.54
501.965	31.54
502.089	19.54
502.213	18.54
502.337	19.54
502.461	26.54
502.585	18.54
502.709	22.54
502.834	11.54
502.958	16.54
503.082	26.54
503.206	15.54
503.33	42.54
503.454	32.54
503.578	22.54
503.702	13.54
503.826	26.54
503.95	38.54
504.074	16.54
504.198	16.54
504.322	21.54
504.446	21.54
504.57	17.54
504.694	21.54
504.818	28.54
504.942	32.54
505.066	38.54
505.19	29.54
505.314	41.54
505.438	26.54
505.562	13.54
505.686	31.54
505.81	14.54
505.934	36.54
506.058	31.54
506.182	32.54
506.306	21.54
506.43	18.54
506.554	39.54
506.678	24.54
506.802	27.54
506.926	38.54
507.05	31.54
507.174	39.54
507.298	21.54
507.422	25.54
507.546	31.54
507.67	29.54
507.794	9.54
507.918	19.54
508.042	14.54
508.165	2.54
508.289	23.54
508.413	22.54
508.537	30.54
508.661	24.54
508.785	20.54
508.909	28.54
509.033	17.54
509.157	36.54
509.281	26.54
509.405	35.54
509.528	38.54
509.652	53.54
509.776	48.54
509.9	43.54
510.024	27.54
510.148	23.54
510.272	40.54
510.396	60.54
510.519	22.54
510.643	32.54
510.767	41.54
510.891	54.54
511.015	46.54
511.139	44.54
511.263	37.54
511.386	49.54
511.51	42.54
511.634	33.54
511.758	48.54
511.882	22.54
512.006	47.54
512.129	55.54
512.253	92.54
512.377	85.54
512.501	85.54
512.625	81.54
512.748	104.54
512.872	65.54
512.996	52.54
513.12	49.54
513.244	47.54
513.367	54.54
513.491	73.54
513.615	85.54
513.739	83.54
513.862	73.54
513.986	83.54
514.11	109.54
514.234	94.54
514.358	109.54
514.481	103.54
514.605	108.54
514.729	120.54
514.853	124.54
514.976	87.54
515.1	120.54
515.224	100.54
515.348	104.54
515.471	75.54
515.595	110.54
515.719	115.54
515.842	221.54
515.966	271.54
516.09	311.54
516.214	322.54
516.337	346.54
516.461	229.54
516.585	100.54
516.708	39.54
516.832	27.54
516.956	32.54
517.08	15.54
517.203	11.54
517.327	21.54
517.451	35.54
517.574	45.54
517.698	18.54
517.822	23.54
517.945	22.54
518.069	22.54
518.193	52.54
518.316	39.54
518.44	16.54
518.564	13.54
518.687	12.54
518.811	28.54
518.935	32.54
519.058	28.54
519.182	40.54
519.306	38.54
519.429	4.54
519.553	41.54
519.676	24.54
519.8	33.54
519.924	9.54
520.047	-6.46
520.171	16.54
520.294	11.54
520.418	23.54
520.542	15.54
520.665	13.54
520.789	20.54
520.913	13.54
521.036	-9.46
521.16	19.54
521.283	18.54
521.407	8.54
521.53	3.54
521.654	-2.46
521.778	21.54
521.901	9.54
522.025	27.54
522.148	13.54
522.272	23.54
522.395	18.54
522.519	29.54
522.643	21.54
522.766	29.54
522.89	13.54
523.013	29.54
523.137	8.54
523.26	18.54
523.384	24.54
523.507	15.54
523.631	24.54
523.754	15.54
523.878	7.54
524.002	35.54
524.125	25.54
524.249	23.54
524.372	-0.46
524.496	19.54
524.619	28.54
524.743	28.54
524.866	5.54
524.99	19.54
525.113	12.54
525.237	30.54
525.36	24.54
525.484	19.54
525.607	-4.46
525.731	-3.46
525.854	8.54
525.978	34.54
526.101	5.54
526.224	10.54
526.348	17.54
526.471	18.54
526.595	5.54
526.718	9.54
526.842	1.54
526.965	27.54
527.089	10.54
527.212	30.54
527.336	17.54
527.459	21.54
527.582	27.54
527.706	27.54
527.829	7.54
527.953	15.54
528.076	2.54
528.2	-1.46
528.323	18.54
528.446	29.54
528.57	13.54
528.693	26.54
528.817	12.54
528.94	15.54
529.064	29.54
529.187	19.54
529.31	30.54
529.434	25.54
529.557	21.54
529.68	11.54
529.804	32.54
529.927	30.54
530.051	10.54
530.174	1.54
530.297	22.54
530.421	27.54
530.544	41.54
530.668	23.54
530.791	5.54
530.914	38.54
531.038	14.54
531.161	13.54
531.284	21.54
531.408	14.54
531.531	12.54
531.654	7.54
531.778	9.54
531.901	18.54
532.024	19.54
532.148	21.54
532.271	29.54
532.394	23.54
532.518	29.54
532.641	29.54
532.764	24.54
532.888	18.54
533.011	15.54
533.134	11.54
533.258	41.54
533.381	15.54
533.504	17.54
533.628	18.54
533.751	26.54
533.874	27.54
533.997	18.54
534.121	6.54
534.244	18.54
534.367	16.54
534.491	18.54
534.614	14.54
534.737	27.54
534.86	35.54
534.984	24.54
535.107	8.54
535.23	3.54
535.354	3.54
535.477	17.54
535.6	18.54
535.723	38.54
535.847	3.54
535.97	-6.46
536.093	12.54
536.216	-1.46
536.34	10.54
536.463	13.54
536.586	32.54
536.709	33.54
536.833	14.54
536.956	9.54
537.079	9.54
537.202	35.54
537.325	6.54
537.449	29.54
537.572	43.54
537.695	12.54
537.818	26.54
537.941	30.54
538.065	10.54
538.188	17.54
538.311	27.54
538.434	9.54
538.558	19.54
538.681	8.54
538.804	21.54
538.927	19.54
539.05	27.54
539.173	7.54
539.297	10.54
539.42	30.54
539.543	36.54
539.666	37.54
539.789	23.54
539.913	19.54
540.036	5.54
540.159	11.54
540.282	19.54
540.405	27.54
540.528	30.54
540.651	43.54
540.775	21.54
540.898	33.54
541.021	12.54
541.144	31.54
541.267	40.54
541.39	17.54
541.513	42.54
541.637	22.54
541.76	29.54
541.883	32.54
542.006	33.54
542.129	40.54
542.252	27.54
542.375	50.54
542.498	35.54
542.622	55.54
542.745	59.54
542.868	67.54
542.991	62.54
543.114	54.54
543.237	65.54
543.36	61.54
543.483	74.54
543.606	79.54
543.73	82.54
543.853	74.54
543.976	99.54
544.099	121.54
544.222	119.54
544.345	137.54
544.468	176.54
544.591	227.54
544.714	254.54
544.837	355.54
544.96	455.54
545.083	661.54
545.206	1084.54
545.329	2416.54
545.453	10955.54
545.576	15261.54
545.699	15684.54
545.822	15684.54
545.945	15684.54
546.068	15684.54
546.191	15684.54
546.314	15684.54
546.437	15684.54
546.56	15684.54
546.683	15684.54
546.806	15684.54
546.929	15684.54
547.052	15684.54
547.175	15684.54
547.298	15684.54
547.421	15684.54
547.544	15684.54
547.667	3557.54
547.79	2467.54
547.913	1054.54
548.036	866.54
548.159	656.54
548.282	641.54
548.405	496.54
548.528	487.54
548.651	392.54
548.774	398.54
548.897	339.54
549.02	372.54
549.143	307.54
549.266	291.54
549.389	272.54
549.512	270.54
549.635	257.54
549.758	253.54
549.881	205.54
550.004	213.54
550.127	198.54
550.25	193.54
550.373	185.54
550.496	191.54
550.619	160.54
550.742	155.54
550.865	136.54
550.988	151.54
551.111	156.54
551.234	148.54
551.356	103.54
551.479	107.54
551.602	124.54
551.725	150.54
551.848	124.54
551.971	151.54
552.094	125.54
552.217	131.54
552.34	117.54
552.463	85.54
552.586	105.54
552.709	96.54
552.832	97.54
552.955	108.54
553.077	97.54
553.2	98.54
553.323	101.54
553.446	97.54
553.569	76.54
553.692	87.54
553.815	89.54
553.938	111.54
554.061	109.54
554.184	105.54
554.306	86.54
554.429	83.54
554.552	89.54
554.675	77.54
554.798	68.54
554.921	71.54
555.044	85.54
555.167	82.54
555.29	70.54
555.412	67.54
555.535	69.54
555.658	63.54
555.781	67.54
555.904	71.54
556.027	74.54
556.15	74.54
556.272	71.54
556.395	87.54
556.518	88.54
556.641	84.54
556.764	77.54
556.887	86.54
557.01	58.54
557.132	65.54
557.255	76.54
557.378	83.54
557.501	72.54
557.624	78.54
557.747	74.54
557.869	88.54
557.992	83.54
558.115	92.54
558.238	82.54
558.361	88.54
558.483	107.54
558.606	61.54
558.729	52.54
558.852	88.54
558.975	60.54
559.098	58.54
559.22	67.54
559.343	70.54
559.466	63.54
559.589	32.54
559.712	45.54
559.834	58.54
559.957	54.54
560.08	38.54
560.203	70.54
560.325	83.54
560.448	75.54
560.571	62.54
560.694	45.54
560.817	71.54
560.939	53.54
561.062	55.54
561.185	63.54
561.308	63.54
561.43	49.54
561.553	47.54
561.676	58.54
561.799	76.54
561.921	65.54
562.044	53.54
562.167	47.54
562.29	89.54
562.413	74.54
562.535	79.54
562.658	49.54
562.781	54.54
562.903	74.54
563.026	94.54
563.149	155.54
563.272	125.54
563.394	117.54
563.517	111.54
563.64	73.54
563.763	51.54
563.885	33.54
564.008	54.54
564.131	46.54
564.254	39.54
564.376	28.54
564.499	11.54
564.622	39.54
564.744	39.54
564.867	40.54
564.99	43.54
565.113	36.54
565.235	35.54
565.358	35.54
565.481	27.54
565.603	26.54
565.726	43.54
565.849	54.54
565.971	57.54
566.094	48.54
566.217	39.54
566.34	35.54
566.462	45.54
566.585	48.54
566.708	63.54
566.83	23.54
566.953	37.54
567.076	39.54
567.198	24.54
567.321	30.54
567.444	46.54
567.566	51.54
567.689	10.54
567.812	32.54
567.934	29.54
568.057	39.54
568.18	16.54
568.302	28.54
568.425	25.54
568.548	41.54
568.67	45.54
568.793	30.54
568.916	38.54
569.038	27.54
569.161	31.54
569.283	36.54
569.406	48.54
569.529	22.54
569.651	39.54
569.774	31.54
569.897	25.54
570.019	54.54
570.142	47.54
570.265	37.54
570.387	41.54
570.51	37.54
570.632	50.54
570.755	35.54
570.878	28.54
571	46.54
571.123	20.54
571.246	19.54
571.368	19.54
571.491	17.54
571.613	22.54
571.736	32.54
571.859	38.54
571.981	14.54
572.104	36.54
572.226	42.54
572.349	31.54
572.472	34.54
572.594	31.54
572.717	34.54
572.839	46.54
572.962	33.54
573.085	39.54
573.207	26.54
573.33	27.54
573.452	38.54
573.575	35.54
573.697	24.54
573.82	40.54
573.943	39.54
574.065	38.54
574.188	43.54
574.31	46.54
574.433	38.54
574.555	53.54
574.678	38.54
574.801	39.54
574.923	21.54
575.046	36.54
575.168	36.54
575.291	26.54
575.413	45.54
575.536	54.54
575.659	63.54
575.781	41.54
575.904	70.54
576.026	85.54
576.149	86.54
576.271	122.54
576.394	205.54
576.516	498.54
576.639	3618.54
576.761	10114.54
576.884	8802.54
577.007	8723.54
577.129	7966.54
577.252	3719.54
577.374	1303.54
577.497	521.54
577.619	265.54
577.742	180.54
577.864	166.54
577.987	123.54
578.109	118.54
578.232	121.54
578.354	155.54
578.477	185.54
578.599	382.54
578.722	1985.54
578.844	9068.54
578.967	9825.54
579.089	8804.54
579.212	9088.54
579.334	5310.54
579.457	1931.54
579.579	722.54
579.702	328.54
579.824	201.54
579.947	123.54
580.069	118.54
580.192	90.54
580.314	97.54
580.437	64.54
580.559	100.54
580.682	78.54
580.804	66.54
580.927	55.54
581.049	80.54
581.172	45.54
581.294	49.54
581.417	46.54
581.539	41.54
581.662	50.54
581.784	60.54
581.907	54.54
582.029	63.54
582.152	27.54
582.274	55.54
582.396	43.54
582.519	36.54
582.641	19.54
582.764	47.54
582.886	37.54
583.009	34.54
583.131	41.54
583.254	35.54
583.376	62.54
583.499	31.54
583.621	25.54
583.743	45.54
583.866	40.54
583.988	35.54
584.111	61.54
584.233	46.54
584.356	45.54
584.478	25.54
584.601	19.54
584.723	14.54
584.845	29.54
584.968	34.54
585.09	25.54
585.213	39.54
585.335	26.54
585.458	2.54
585.58	17.54
585.702	52.54
585.825	42.54
585.947	35.54
586.07	20.54
586.192	26.54
586.315	35.54
586.437	18.54
586.559	21.54
586.682	16.54
586.804	28.54
586.927	23.54
587.049	26.54
587.171	35.54
587.294	17.54
587.416	33.54
587.539	28.54
587.661	14.54
587.783	41.54
587.906	45.54
588.028	31.54
588.151	33.54
588.273	33.54
588.395	45.54
588.518	23.54
588.64	34.54
588.763	41.54
588.885	22.54
589.007	25.54
589.13	6.54
589.252	30.54
589.375	22.54
589.497	19.54
589.619	35.54
589.742	35.54
589.864	36.54
589.986	27.54
590.109	17.54
590.231	13.54
590.354	31.54
590.476	25.54
590.598	42.54
590.721	28.54
590.843	25.54
590.965	26.54
591.088	23.54
591.21	25.54
591.332	31.54
591.455	-2.46
591.577	13.54
591.7	13.54
591.822	29.54
591.944	21.54
592.067	21.54
592.189	27.54
592.311	41.54
592.434	22.54
592.556	41.54
592.678	16.54
592.801	9.54
592.923	31.54
593.045	26.54
593.168	31.54
593.29	14.54
593.412	41.54
593.535	18.54
593.657	40.54
593.779	30.54
593.902	35.54
594.024	22.54
594.146	47.54
594.269	33.54
594.391	3.54
594.513	40.54
594.636	29.54
594.758	17.54
594.88	35.54
595.003	16.54
595.125	21.54
595.247	26.54
595.37	41.54
595.492	45.54
595.614	46.54
595.737	19.54
595.859	29.54
595.981	39.54
596.104	24.54
596.226	22.54
596.348	30.54
596.471	31.54
596.593	29.54
596.715	33.54
596.838	17.54
596.96	13.54
597.082	30.54
597.204	9.54
597.327	29.54
597.449	12.54
597.571	25.54
597.694	29.54
597.816	24.54
597.938	43.54
598.061	22.54
598.183	15.54
598.305	37.54
598.427	30.54
598.55	13.54
598.672	44.54
598.794	37.54
598.917	16.54
599.039	27.54
599.161	30.54
599.283	32.54
599.406	42.54
599.528	41.54
599.65	39.54
599.773	38.54
599.895	49.54
600.017	51.54
600.139	30.54
600.262	26.54
600.384	43.54
600.506	27.54
600.628	50.54
600.751	41.54
600.873	18.54
600.995	16.54
601.118	23.54
601.24	33.54
601.362	51.54
601.484	44.54
601.607	34.54
601.729	29.54
601.851	11.54
601.973	14.54
602.096	41.54
602.218	26.54
602.34	26.54
602.462	32.54
602.585	7.54
602.707	-1.46
602.829	21.54
602.951	31.54
603.074	-2.46
603.196	14.54
603.318	13.54
603.44	26.54
603.563	18.54
603.685	4.54
603.807	37.54
603.929	21.54
604.052	30.54
604.174	45.54
604.296	29.54
604.418	34.54
604.541	30.54
604.663	33.54
604.785	32.54
604.907	18.54
605.03	5.54
605.152	47.54
605.274	16.54
605.396	14.54
605.519	37.54
605.641	11.54
605.763	22.54
605.885	23.54
606.008	25.54
606.13	41.54
606.252	42.54
606.374	20.54
606.496	8.54
606.619	34.54
606.741	15.54
606.863	62.54
606.985	32.54
607.108	16.54
607.23	13.54
607.352	26.54
607.474	17.54
607.596	18.54
607.719	4.54
607.841	41.54
607.963	25.54
608.085	22.54
608.207	33.54
608.33	10.54
608.452	0.54
608.574	16.54
608.696	38.54
608.819	21.54
608.941	22.54
609.063	21.54
609.185	-1.46
609.307	23.54
609.43	29.54
609.552	21.54
609.674	17.54
609.796	19.54
609.918	18.54
610.041	20.54
610.163	34.54
610.285	25.54
610.407	27.54
610.529	-1.46
610.652	22.54
610.774	32.54
610.896	16.54
611.018	40.54
611.14	29.54
611.263	10.54
611.385	21.54
611.507	38.54
611.629	15.54
611.751	36.54
611.873	54.54
611.996	26.54
612.118	51.54
612.24	24.54
612.362	32.54
612.484	39.54
612.607	43.54
612.729	51.54
612.851	46.54
612.973	29.54
613.095	11.54
613.218	25.54
613.34	34.54
613.462	44.54
613.584	18.54
613.706	30.54
613.828	52.54
613.951	18.54
614.073	9.54
614.195	10.54
614.317	48.54
614.439	22.54
614.561	29.54
614.684	20.54
614.806	30.54
614.928	39.54
615.05	30.54
615.172	30.54
615.294	28.54
615.417	27.54
615.539	3.54
615.661	12.54
615.783	27.54
615.905	14.54
616.027	16.54
616.15	37.54
616.272	17.54
616.394	6.54
616.516	12.54
616.638	23.54
616.76	25.54
616.883	17.54
617.005	27.54
617.127	20.54
617.249	15.54
617.371	25.54
617.493	11.54
617.615	21.54
617.738	28.54
617.86	25.54
617.982	24.54
618.104	35.54
618.226	11.54
618.348	14.54
618.471	38.54
618.593	42.54
618.715	16.54
618.837	22.54
618.959	21.54
619.081	31.54
619.203	23.54
619.326	23.54
619.448	42.54
619.57	38.54
619.692	43.54
619.814	28.54
619.936	24.54
620.058	21.54
620.181	18.54
620.303	7.54
620.425	12.54
620.547	23.54
620.669	19.54
620.791	8.54
620.913	26.54
621.036	36.54
621.158	28.54
621.28	31.54
621.402	8.54
621.524	20.54
621.646	30.54
621.768	22.54
621.891	10.54
622.013	26.54
622.135	-1.46
622.257	9.54
622.379	23.54
622.501	24.54
622.623	12.54
622.745	33.54
622.868	31.54
622.99	6.54
623.112	1.54
623.234	14.54
623.356	21.54
623.478	8.54
623.6	26.54
623.722	20.54
623.845	20.54
623.967	21.54
624.089	31.54
624.211	24.54
624.333	28.54
624.455	11.54
624.577	12.54
624.699	26.54
624.822	25.54
624.944	23.54
625.066	23.54
625.188	14.54
625.31	19.54
625.432	31.54
625.554	15.54
625.676	49.54
625.799	34.54
625.921	18.54
626.043	32.54
626.165	31.54
626.287	14.54
626.409	35.54
626.531	18.54
626.653	17.54
626.775	17.54
626.898	30.54
627.02	43.54
627.142	35.54
627.264	32.54
627.386	25.54
627.508	8.54
627.63	21.54
627.752	23.54
627.874	31.54
627.997	25.54
628.119	26.54
628.241	25.54
628.363	34.54
628.485	20.54
628.607	20.54
628.729	10.54
628.851	19.54
628.973	-1.46
629.096	9.54
629.218	23.54
629.34	5.54
629.462	21.54
629.584	26.54
629.706	26.54
629.828	41.54
629.95	26.54
630.072	13.54
630.195	25.54
630.317	27.54
630.439	18.54
630.561	30.54
630.683	8.54
630.805	22.54
630.927	25.54
631.049	10.54
631.171	16.54
631.293	24.54
631.416	45.54
631.538	23.54
631.66	7.54
631.782	24.54
631.904	28.54
632.026	10.54
632.148	13.54
632.27	25.54
632.392	28.54
632.514	18.54
632.637	30.54
632.759	6.54
632.881	6.54
633.003	7.54
633.125	-2.46
633.247	2.54
633.369	5.54
633.491	26.54
633.613	9.54
633.735	17.54
633.858	10.54
633.98	16.54
634.102	5.54
634.224	23.54
634.346	6.54
634.468	30.54
634.59	28.54
634.712	31.54
634.834	34.54
634.956	-0.46
635.078	9.54
635.201	27.54
635.323	24.54
635.445	1.54
635.567	2.54
635.689	25.54
635.811	30.54
635.933	11.54
636.055	27.54
636.177	17.54
636.299	25.54
636.421	9.54
636.544	18.54
636.666	15.54
636.788	21.54
636.91	15.54
637.032	-11.46
637.154	18.54
637.276	33.54
637.398	40.54
637.52	17.54
637.642	19.54
637.764	12.54
637.887	8.54
638.009	8.54
638.131	14.54
638.253	15.54
638.375	9.54
638.497	1.54
638.619	11.54
638.741	6.54
638.863	-7.46
638.985	6.54
639.107	-1.46
639.23	24.54
639.352	17.54
639.474	13.54
639.596	21.54
639.718	9.54
639.84	17.54
639.962	10.54
640.084	37.54
640.206	18.54
640.328	7.54
640.45	36.54
640.573	3.54
640.695	15.54
640.817	17.54
640.939	27.54
641.061	15.54
641.183	17.54
641.305	13.54
641.427	9.54
641.549	7.54
641.671	29.54
641.793	-0.46
641.915	31.54
642.038	18.54
642.16	15.54
642.282	18.54
642.404	23.54
642.526	25.54
642.648	24.54
642.77	6.54
642.892	0.54
643.014	35.54
643.136	33.54
643.258	18.54
643.381	41.54
643.503	35.54
643.625	10.54
643.747	-2.46
643.869	10.54
643.991	28.54
644.113	25.54
644.235	13.54
644.357	-2.46
644.479	12.54
644.601	17.54
644.723	5.54
644.846	20.54
644.968	13.54
645.09	14.54
645.212	22.54
645.334	5.54
645.456	17.54
645.578	21.54
645.7	15.54
645.822	35.54
645.944	17.54
646.066	7.54
646.188	12.54
646.311	37.54
646.433	0.54
646.555	45.54
646.677	17.54
646.799	1.54
646.921	32.54
647.043	21.54
647.165	1.54
647.287	15.54
647.409	6.54
647.531	12.54
647.654	-9.46
647.776	18.54
647.898	8.54
648.02	9.54
648.142	6.54
648.264	10.54
648.386	11.54
648.508	8.54
648.63	20.54
648.752	26.54
648.874	14.54
648.997	28.54
649.119	30.54
649.241	16.54
649.363	30.54
649.485	24.54
649.607	8.54
649.729	6.54
649.851	27.54
649.973	2.54
650.095	27.54
650.217	10.54
650.34	14.54
650.462	21.54
650.584	27.54
650.706	13.54
650.828	9.54
650.95	-5.46
651.072	2.54
651.194	-4.46
651.316	14.54
651.438	18.54
651.56	-6.46
651.683	3.54
651.805	16.54
651.927	12.54
652.049	17.54
652.171	4.54
652.293	11.54
652.415	16.54
652.537	5.54
652.659	-1.46
652.781	18.54
652.903	26.54
653.026	46.54
653.148	25.54
653.27	15.54
653.392	25.54
653.514	2.54
653.636	11.54
653.758	4.54
653.88	-4.46
654.002	-5.46
654.124	11.54
654.247	9.54
654.369	8.54
654.491	6.54
654.613	2.54
654.735	-0.46
654.857	21.54
654.979	19.54
655.101	26.54
655.223	34.54
655.345	-9.46
655.468	5.54
655.59	14.54
655.712	25.54
655.834	11.54
655.956	31.54
656.078	5.54
656.2	9.54
656.322	7.54
656.444	-5.46
656.566	23.54
656.689	21.54
656.811	8.54
656.933	23.54
657.055	3.54
657.177	12.54
657.299	-14.46
657.421	4.54
657.543	11.54
657.665	1.54
657.787	21.54
657.91	3.54
658.032	5.54
658.154	-1.46
658.276	14.54
658.398	3.54
658.52	15.54
658.642	22.54
658.764	15.54
658.886	-8.46
659.009	10.54
659.131	16.54
659.253	19.54
659.375	20.54
659.497	14.54
659.619	17.54
659.741	14.54
659.863	-6.46
659.985	-5.46
660.108	21.54
660.23	-5.46
660.352	16.54
660.474	9.54
660.596	3.54
660.718	27.54
660.84	26.54
660.962	13.54
661.084	-3.46
661.207	17.54
661.329	10.54
661.451	17.54
661.573	2.54
661.695	34.54
661.817	34.54
661.939	24.54
662.061	25.54
662.184	19.54
662.306	11.54
662.428	10.54
662.55	18.54
662.672	-3.46
662.794	16.54
662.916	6.54
663.038	2.54
663.161	27.54
663.283	19.54
663.405	23.54
663.527	6.54
663.649	2.54
663.771	15.54
663.893	23.54
664.015	10.54
664.138	14.54
664.26	7.54
664.382	9.54
664.504	12.54
664.626	-0.46
664.748	6.54
664.87	7.54
664.992	29.54
665.115	16.54
665.237	6.54
665.359	9.54
665.481	0.54
665.603	11.54
665.725	10.54
665.847	-2.46
665.97	3.54
666.092	17.54
666.214	16.54
666.336	29.54
666.458	18.54
666.58	17.54
666.702	12.54
666.825	4.54
666.947	-18.46
667.069	13.54
667.191	-4.46
667.313	23.54
667.435	3.54
667.557	2.54
667.68	24.54
667.802	11.54
667.924	11.54
668.046	22.54
668.168	26.54
668.29	23.54
668.412	10.54
668.535	21.54
668.657	7.54
668.779	-5.46
668.901	19.54
669.023	41.54
669.145	6.54
669.267	14.54
669.39	16.54
669.512	6.54
669.634	14.54
669.756	15.54
669.878	11.54
670	26.54
670.123	20.54
670.245	33.54
670.367	17.54
670.489	20.54
670.611	-3.46
670.733	1.54
670.856	-3.46
670.978	20.54
671.1	27.54
671.222	18.54
671.344	3.54
671.466	6.54
671.589	4.54
671.711	3.54
671.833	5.54
671.955	4.54
672.077	9.54
672.199	21.54
672.322	32.54
672.444	16.54
672.566	21.54
672.688	9.54
672.81	4.54
672.932	17.54
673.055	2.54
673.177	5.54
673.299	4.54
673.421	-1.46
673.543	11.54
673.665	32.54
673.788	41.54
673.91	15.54
674.032	15.54
674.154	20.54
674.276	20.54
674.399	10.54
674.521	9.54
674.643	22.54
674.765	5.54
674.887	21.54
675.009	9.54
675.132	7.54
675.254	3.54
675.376	11.54
675.498	17.54
675.62	15.54
675.743	9.54
675.865	5.54
675.987	9.54
676.109	2.54
676.231	28.54
676.354	33.54
676.476	10.54
676.598	33.54
676.72	12.54
676.842	16.54
676.965	22.54
677.087	28.54
677.209	26.54
677.331	23.54
677.453	15.54
677.576	10.54
677.698	26.54
677.82	14.54
677.942	5.54
678.064	15.54
678.187	18.54
678.309	9.54
678.431	1.54
678.553	14.54
678.675	23.54
678.798	32.54
678.92	14.54
679.042	6.54
679.164	14.54
679.286	15.54
679.409	14.54
679.531	11.54
679.653	10.54
679.775	5.54
679.898	-9.46
680.02	-13.46
680.142	-4.46
680.264	8.54
680.386	-1.46
680.509	14.54
680.631	19.54
680.753	19.54
680.875	-5.46
680.998	7.54
681.12	8.54
681.242	1.54
681.364	4.54
681.486	3.54
681.609	6.54
681.731	2.54
681.853	18.54
681.975	3.54
682.098	14.54
682.22	25.54
682.342	-4.46
682.464	9.54
682.587	10.54
682.709	7.54
682.831	-3.46
682.953	15.54
683.076	5.54
683.198	19.54
683.32	6.54
683.442	13.54
683.565	27.54
683.687	9.54
683.809	5.54
683.931	5.54
684.054	14.54
684.176	9.54
684.298	9.54
684.42	7.54
684.543	2.54
684.665	-3.46
684.787	15.54
684.909	4.54
685.032	23.54
685.154	4.54
685.276	8.54
685.398	2.54
685.521	-12.46
685.643	5.54
685.765	14.54
685.887	14.54
686.01	7.54
686.132	9.54
686.254	18.54
686.377	8.54
686.499	17.54
686.621	19.54
686.743	23.54
686.866	11.54
686.988	51.54
687.11	25.54
687.232	14.54
687.355	-0.46
687.477	3.54
687.599	35.54
687.722	-0.46
687.844	5.54
687.966	22.54
688.088	18.54
688.211	31.54
688.333	26.54
688.455	19.54
688.578	25.54
688.7	38.54
688.822	17.54
688.944	-8.46
689.067	38.54
689.189	11.54
689.311	-3.46
689.434	13.54
689.556	2.54
689.678	28.54
689.801	5.54
689.923	3.54
690.045	18.54
690.167	28.54
690.29	37.54
690.412	26.54
690.534	11.54
690.657	14.54
690.779	15.54
690.901	13.54
691.024	18.54
691.146	13.54
691.268	11.54
691.391	10.54
691.513	9.54
691.635	25.54
691.758	25.54
691.88	19.54
692.002	15.54
692.125	7.54
692.247	15.54
692.369	3.54
692.492	5.54
692.614	25.54
692.736	9.54
692.859	11.54
692.981	-1.46
693.103	-5.46
693.226	14.54
693.348	31.54
693.47	12.54
693.593	32.54
693.715	35.54
693.837	23.54
693.96	26.54
694.082	25.54
694.204	9.54
694.327	11.54
694.449	-4.46
694.571	15.54
694.694	35.54
694.816	26.54
694.938	7.54
695.061	7.54
695.183	9.54
695.305	21.54
695.428	17.54
695.55	5.54
695.672	-10.46
695.795	28.54
695.917	14.54
696.04	6.54
696.162	9.54
696.284	18.54
696.407	1.54
696.529	7.54
696.651	32.54
696.774	7.54
696.896	27.54
697.019	16.54
697.141	22.54
697.263	10.54
697.386	10.54
697.508	16.54
697.63	14.54
697.753	13.54
697.875	18.54
697.998	6.54
698.12	16.54
698.242	19.54
698.365	0.54
698.487	6.54
698.61	-0.46
698.732	5.54
698.854	25.54
698.977	5.54
699.099	26.54
699.221	-12.46
699.344	5.54
699.466	6.54
699.589	-1.46
699.711	21.54
699.834	12.54
699.956	12.54
700.078	3.54
700.201	22.54
700.323	26.54
700.446	2.54
700.568	7.54
700.69	18.54
700.813	16.54
700.935	2.54
701.058	1.54
701.18	18.54
701.302	22.54
701.425	7.54
701.547	9.54
701.67	-12.46
701.792	-0.46
701.915	16.54
702.037	9.54
702.159	10.54
702.282	9.54
702.404	-8.46
702.527	14.54
702.649	19.54
702.772	31.54
702.894	27.54
703.017	26.54
703.139	12.54
703.261	26.54
703.384	18.54
703.506	1.54
703.629	11.54
703.751	14.54
703.874	14.54
703.996	4.54
704.119	-4.46
704.241	21.54
704.364	1.54
704.486	7.54
704.608	10.54
704.731	16.54
704.853	17.54
704.976	19.54
705.098	28.54
705.221	22.54
705.343	5.54
705.466	16.54
705.588	37.54
705.711	27.54
705.833	21.54
705.956	-0.46
706.078	21.54
706.201	20.54
706.323	0.54
706.446	3.54
