Data from LowRes_mercury_15_20_11_07_2024_HR4C61881__9__15-23-33-171.txt Node

Date: Thu Nov 07 15:23:33 EST 2024
User: crc00042
Spectrometer: HR4C6188
Trigger mode: 4
Integration Time (sec): 1.000000E-1
Scans to average: 1
Electric dark correction enabled: true
Nonlinearity correction enabled: false
Boxcar width: 0
XAxis mode: Wavelengths
Number of Pixels in Spectrum: 3648
>>>>>Begin Spectral Data<<<<<
245.66	-75.54
245.797	-75.54
245.934	-75.54
246.071	-76.54
246.208	2.46
246.344	-1.54
246.481	-15.54
246.618	6.46
246.755	19.46
246.892	3.46
247.029	-15.54
247.165	1.46
247.302	9.46
247.439	-2.54
247.576	12.46
247.713	-25.54
247.849	22.46
247.986	-14.54
248.123	6.46
248.26	-18.54
248.396	-0.54
248.533	3.46
248.67	-19.54
248.806	-0.54
248.943	-1.54
249.08	-9.54
249.216	12.46
249.353	-18.54
249.49	-8.54
249.626	-3.54
249.763	-15.54
249.9	-1.54
250.036	-4.54
250.173	-0.54
250.309	-10.54
250.446	-5.54
250.582	-12.54
250.719	-10.54
250.856	-6.54
250.992	-12.54
251.129	-5.54
251.265	-16.54
251.402	-7.54
251.538	-4.54
251.675	5.46
251.811	-0.54
251.948	18.46
252.084	-0.54
252.221	-12.54
252.357	-13.54
252.493	36.46
252.63	1.46
252.766	22.46
252.903	-10.54
253.039	-11.54
253.175	-3.54
253.312	7.46
253.448	2.46
253.585	-25.54
253.721	18.46
253.857	-6.54
253.994	-9.54
254.13	-2.54
254.266	21.46
254.403	-1.54
254.539	4.46
254.675	4.46
254.811	12.46
254.948	-1.54
255.084	-11.54
255.22	-6.54
255.356	-8.54
255.493	-3.54
255.629	-12.54
255.765	-5.54
255.901	26.46
256.037	-1.54
256.174	8.46
256.31	-3.54
256.446	-4.54
256.582	0.46
256.718	8.46
256.854	12.46
256.991	25.46
257.127	26.46
257.263	21.46
257.399	-3.54
257.535	-20.54
257.671	1.46
257.807	-6.54
257.943	-0.54
258.079	-22.54
258.215	-5.54
258.351	16.46
258.487	6.46
258.623	31.46
258.759	9.46
258.895	1.46
259.031	-3.54
259.167	-13.54
259.303	12.46
259.439	-5.54
259.575	-12.54
259.711	7.46
259.847	-10.54
259.983	6.46
260.119	-5.54
260.255	3.46
260.391	-11.54
260.527	6.46
260.663	0.46
260.799	16.46
260.934	18.46
261.07	-2.54
261.206	-22.54
261.342	-8.54
261.478	-4.54
261.614	24.46
261.749	1.46
261.885	-2.54
262.021	-0.54
262.157	11.46
262.293	-1.54
262.428	-2.54
262.564	7.46
262.7	-0.54
262.836	-4.54
262.971	-1.54
263.107	-1.54
263.243	27.46
263.378	-12.54
263.514	-29.54
263.65	10.46
263.785	-2.54
263.921	0.46
264.057	-9.54
264.192	-9.54
264.328	3.46
264.464	-8.54
264.599	0.46
264.735	27.46
264.871	-14.54
265.006	-12.54
265.142	-18.54
265.277	-4.54
265.413	14.46
265.548	-9.54
265.684	8.46
265.819	-3.54
265.955	-11.54
266.091	-9.54
266.226	-1.54
266.362	-5.54
266.497	3.46
266.633	-4.54
266.768	-3.54
266.903	14.46
267.039	1.46
267.174	23.46
267.31	-3.54
267.445	4.46
267.581	-14.54
267.716	0.46
267.851	2.46
267.987	7.46
268.122	22.46
268.258	-4.54
268.393	-5.54
268.528	-4.54
268.664	7.46
268.799	1.46
268.934	10.46
269.07	-6.54
269.205	9.46
269.34	13.46
269.476	-6.54
269.611	-6.54
269.746	19.46
269.881	-1.54
270.017	25.46
270.152	1.46
270.287	-3.54
270.422	0.46
270.558	-6.54
270.693	21.46
270.828	5.46
270.963	-13.54
271.098	-9.54
271.234	-3.54
271.369	22.46
271.504	9.46
271.639	5.46
271.774	13.46
271.909	0.46
272.045	-3.54
272.18	-14.54
272.315	5.46
272.45	12.46
272.585	-16.54
272.72	-10.54
272.855	1.46
272.99	16.46
273.125	-1.54
273.26	-1.54
273.395	-6.54
273.53	-19.54
273.665	-3.54
273.8	2.46
273.935	10.46
274.07	4.46
274.205	4.46
274.34	-0.54
274.475	5.46
274.61	5.46
274.745	-19.54
274.88	6.46
275.015	-10.54
275.15	1.46
275.285	11.46
275.42	-0.54
275.555	22.46
275.69	-1.54
275.825	8.46
275.959	11.46
276.094	4.46
276.229	-2.54
276.364	-28.54
276.499	-15.54
276.634	-18.54
276.768	-1.54
276.903	-5.54
277.038	1.46
277.173	-20.54
277.308	16.46
277.442	-10.54
277.577	-1.54
277.712	-2.54
277.847	-13.54
277.981	17.46
278.116	-22.54
278.251	-5.54
278.386	1.46
278.52	6.46
278.655	1.46
278.79	11.46
278.924	-1.54
279.059	3.46
279.194	-21.54
279.328	36.46
279.463	8.46
279.598	17.46
279.732	2.46
279.867	-1.54
280.001	2.46
280.136	2.46
280.271	1.46
280.405	8.46
280.54	11.46
280.674	-11.54
280.809	14.46
280.943	9.46
281.078	4.46
281.213	1.46
281.347	8.46
281.482	2.46
281.616	-12.54
281.751	-6.54
281.885	-14.54
282.02	-3.54
282.154	3.46
282.288	-15.54
282.423	-29.54
282.557	-22.54
282.692	-9.54
282.826	1.46
282.961	26.46
283.095	7.46
283.229	-10.54
283.364	-7.54
283.498	1.46
283.633	10.46
283.767	4.46
283.901	-17.54
284.036	12.46
284.17	-2.54
284.304	-12.54
284.439	1.46
284.573	-11.54
284.707	5.46
284.842	-9.54
284.976	-9.54
285.11	-26.54
285.244	-15.54
285.379	50.46
285.513	-12.54
285.647	-1.54
285.781	4.46
285.916	6.46
286.05	1.46
286.184	24.46
286.318	6.46
286.453	-6.54
286.587	-21.54
286.721	-21.54
286.855	-3.54
286.989	3.46
287.123	-16.54
287.258	-14.54
287.392	2.46
287.526	8.46
287.66	2.46
287.794	-7.54
287.928	7.46
288.062	8.46
288.196	-17.54
288.33	1.46
288.464	22.46
288.598	5.46
288.733	-2.54
288.867	11.46
289.001	-2.54
289.135	-16.54
289.269	-5.54
289.403	21.46
289.537	-22.54
289.671	-8.54
289.805	-11.54
289.939	11.46
290.073	-14.54
290.207	17.46
290.34	-0.54
290.474	0.46
290.608	14.46
290.742	9.46
290.876	1.46
291.01	0.46
291.144	9.46
291.278	17.46
291.412	3.46
291.546	5.46
291.679	5.46
291.813	6.46
291.947	5.46
292.081	-0.54
292.215	-6.54
292.349	-0.54
292.482	7.46
292.616	-7.54
292.75	12.46
292.884	12.46
293.018	9.46
293.151	-21.54
293.285	10.46
293.419	-11.54
293.553	1.46
293.686	1.46
293.82	6.46
293.954	-8.54
294.088	10.46
294.221	1.46
294.355	5.46
294.489	14.46
294.622	1.46
294.756	-4.54
294.89	-18.54
295.023	1.46
295.157	24.46
295.291	2.46
295.424	31.46
295.558	-1.54
295.691	-2.54
295.825	-1.54
295.959	-5.54
296.092	0.46
296.226	-0.54
296.359	0.46
296.493	4.46
296.627	-16.54
296.76	2.46
296.894	-7.54
297.027	-11.54
297.161	-14.54
297.294	-20.54
297.428	-2.54
297.561	15.46
297.695	-20.54
297.828	-7.54
297.962	-9.54
298.095	-13.54
298.229	13.46
298.362	-9.54
298.495	-21.54
298.629	-7.54
298.762	0.46
298.896	9.46
299.029	-13.54
299.162	5.46
299.296	7.46
299.429	-11.54
299.563	-0.54
299.696	23.46
299.829	6.46
299.963	2.46
300.096	13.46
300.229	-0.54
300.363	-0.54
300.496	-4.54
300.629	-14.54
300.763	-4.54
300.896	-14.54
301.029	-6.54
301.162	4.46
301.296	-1.54
301.429	-3.54
301.562	-18.54
301.695	9.46
301.829	3.46
301.962	4.46
302.095	-0.54
302.228	-5.54
302.362	-2.54
302.495	0.46
302.628	7.46
302.761	-1.54
302.894	12.46
303.027	16.46
303.161	-10.54
303.294	-4.54
303.427	13.46
303.56	-8.54
303.693	4.46
303.826	-8.54
303.959	-14.54
304.092	2.46
304.225	-5.54
304.359	-5.54
304.492	4.46
304.625	-32.54
304.758	-13.54
304.891	-24.54
305.024	4.46
305.157	-9.54
305.29	-15.54
305.423	-2.54
305.556	20.46
305.689	4.46
305.822	-11.54
305.955	8.46
306.088	-7.54
306.221	7.46
306.354	-15.54
306.487	-19.54
306.62	-14.54
306.752	-17.54
306.885	9.46
307.018	-2.54
307.151	6.46
307.284	6.46
307.417	-15.54
307.55	16.46
307.683	-4.54
307.816	11.46
307.948	-0.54
308.081	-2.54
308.214	-1.54
308.347	13.46
308.48	-14.54
308.613	-10.54
308.745	3.46
308.878	-17.54
309.011	1.46
309.144	2.46
309.277	-16.54
309.409	6.46
309.542	-12.54
309.675	-7.54
309.808	5.46
309.94	16.46
310.073	-10.54
310.206	-4.54
310.339	5.46
310.471	-32.54
310.604	15.46
310.737	-10.54
310.869	-20.54
311.002	-12.54
311.135	1.46
311.267	-10.54
311.4	-3.54
311.533	10.46
311.665	-7.54
311.798	-1.54
311.93	4.46
312.063	33.46
312.196	41.46
312.328	69.46
312.461	52.46
312.593	10.46
312.726	50.46
312.859	94.46
312.991	163.46
313.124	26.46
313.256	5.46
313.389	10.46
313.521	1.46
313.654	6.46
313.786	-31.54
313.919	-18.54
314.051	6.46
314.184	-3.54
314.316	6.46
314.449	-3.54
314.581	20.46
314.714	-9.54
314.846	5.46
314.978	-15.54
315.111	-2.54
315.243	1.46
315.376	7.46
315.508	9.46
315.641	-7.54
315.773	1.46
315.905	-9.54
316.038	-12.54
316.17	-1.54
316.302	-1.54
316.435	-11.54
316.567	-5.54
316.699	24.46
316.832	-9.54
316.964	-8.54
317.096	-14.54
317.229	-22.54
317.361	-22.54
317.493	-6.54
317.625	-6.54
317.758	-3.54
317.89	18.46
318.022	5.46
318.155	-13.54
318.287	-0.54
318.419	-2.54
318.551	-2.54
318.683	-8.54
318.816	8.46
318.948	-16.54
319.08	-9.54
319.212	-2.54
319.344	-1.54
319.477	-11.54
319.609	5.46
319.741	4.46
319.873	2.46
320.005	13.46
320.137	-1.54
320.269	-0.54
320.401	-10.54
320.534	2.46
320.666	-20.54
320.798	-2.54
320.93	-18.54
321.062	-9.54
321.194	-7.54
321.326	-2.54
321.458	-1.54
321.59	3.46
321.722	-11.54
321.854	-9.54
321.986	-2.54
322.118	1.46
322.25	-6.54
322.382	-15.54
322.514	-19.54
322.646	-13.54
322.778	8.46
322.91	-18.54
323.042	-2.54
323.174	5.46
323.306	1.46
323.438	-16.54
323.57	-3.54
323.702	-1.54
323.834	-5.54
323.966	-0.54
324.097	2.46
324.229	18.46
324.361	14.46
324.493	-1.54
324.625	-2.54
324.757	14.46
324.889	0.46
325.021	26.46
325.152	18.46
325.284	3.46
325.416	-19.54
325.548	-1.54
325.68	-1.54
325.811	22.46
325.943	4.46
326.075	-0.54
326.207	4.46
326.339	4.46
326.47	18.46
326.602	18.46
326.734	11.46
326.866	20.46
326.997	-19.54
327.129	-15.54
327.261	-19.54
327.392	-13.54
327.524	12.46
327.656	12.46
327.787	16.46
327.919	-3.54
328.051	-7.54
328.182	23.46
328.314	23.46
328.446	4.46
328.577	17.46
328.709	28.46
328.841	-34.54
328.972	-3.54
329.104	-10.54
329.235	-1.54
329.367	-12.54
329.499	-3.54
329.63	5.46
329.762	-1.54
329.893	15.46
330.025	12.46
330.156	-13.54
330.288	6.46
330.419	-5.54
330.551	8.46
330.683	4.46
330.814	-13.54
330.946	12.46
331.077	19.46
331.208	-4.54
331.34	1.46
331.471	-21.54
331.603	-6.54
331.734	-18.54
331.866	4.46
331.997	-5.54
332.129	15.46
332.26	4.46
332.392	15.46
332.523	1.46
332.654	-12.54
332.786	4.46
332.917	-4.54
333.048	35.46
333.18	41.46
333.311	-1.54
333.443	-5.54
333.574	0.46
333.705	29.46
333.837	38.46
333.968	111.46
334.099	246.46
334.231	204.46
334.362	64.46
334.493	31.46
334.624	-1.54
334.756	1.46
334.887	8.46
335.018	3.46
335.15	17.46
335.281	4.46
335.412	8.46
335.543	9.46
335.675	-13.54
335.806	-0.54
335.937	13.46
336.068	19.46
336.199	42.46
336.331	6.46
336.462	-4.54
336.593	20.46
336.724	3.46
336.855	8.46
336.986	7.46
337.118	8.46
337.249	19.46
337.38	7.46
337.511	-12.54
337.642	-1.54
337.773	12.46
337.904	4.46
338.035	4.46
338.166	-0.54
338.298	4.46
338.429	13.46
338.56	20.46
338.691	-3.54
338.822	0.46
338.953	8.46
339.084	4.46
339.215	12.46
339.346	6.46
339.477	5.46
339.608	3.46
339.739	16.46
339.87	8.46
340.001	20.46
340.132	14.46
340.263	-2.54
340.394	19.46
340.525	8.46
340.656	-2.54
340.787	-10.54
340.918	39.46
341.049	33.46
341.179	6.46
341.31	9.46
341.441	25.46
341.572	3.46
341.703	-10.54
341.834	6.46
341.965	27.46
342.096	16.46
342.227	1.46
342.357	13.46
342.488	0.46
342.619	6.46
342.75	20.46
342.881	-7.54
343.012	19.46
343.142	39.46
343.273	0.46
343.404	13.46
343.535	40.46
343.666	29.46
343.796	25.46
343.927	37.46
344.058	24.46
344.189	30.46
344.319	32.46
344.45	23.46
344.581	30.46
344.712	-4.54
344.842	23.46
344.973	22.46
345.104	30.46
345.234	25.46
345.365	9.46
345.496	9.46
345.626	6.46
345.757	37.46
345.888	0.46
346.018	20.46
346.149	24.46
346.28	36.46
346.41	12.46
346.541	30.46
346.672	18.46
346.802	34.46
346.933	18.46
347.063	44.46
347.194	19.46
347.325	22.46
347.455	40.46
347.586	22.46
347.716	6.46
347.847	18.46
347.977	27.46
348.108	39.46
348.238	42.46
348.369	36.46
348.499	49.46
348.63	44.46
348.76	36.46
348.891	47.46
349.021	56.46
349.152	38.46
349.282	44.46
349.413	40.46
349.543	34.46
349.674	49.46
349.804	35.46
349.935	18.46
350.065	29.46
350.196	16.46
350.326	18.46
350.456	4.46
350.587	46.46
350.717	19.46
350.848	16.46
350.978	39.46
351.108	2.46
351.239	33.46
351.369	11.46
351.499	-9.54
351.63	4.46
351.76	6.46
351.89	11.46
352.021	14.46
352.151	5.46
352.281	18.46
352.412	17.46
352.542	2.46
352.672	18.46
352.803	29.46
352.933	4.46
353.063	25.46
353.193	18.46
353.324	17.46
353.454	9.46
353.584	13.46
353.714	-5.54
353.845	13.46
353.975	1.46
354.105	0.46
354.235	12.46
354.365	22.46
354.496	26.46
354.626	15.46
354.756	14.46
354.886	15.46
355.016	23.46
355.146	12.46
355.277	20.46
355.407	17.46
355.537	30.46
355.667	10.46
355.797	35.46
355.927	14.46
356.057	18.46
356.187	9.46
356.318	18.46
356.448	28.46
356.578	16.46
356.708	44.46
356.838	30.46
356.968	17.46
357.098	27.46
357.228	39.46
357.358	25.46
357.488	12.46
357.618	49.46
357.748	33.46
357.878	14.46
358.008	12.46
358.138	10.46
358.268	-2.54
358.398	21.46
358.528	-3.54
358.658	32.46
358.788	21.46
358.918	30.46
359.048	20.46
359.178	36.46
359.308	38.46
359.438	41.46
359.568	31.46
359.698	22.46
359.827	10.46
359.957	26.46
360.087	22.46
360.217	7.46
360.347	25.46
360.477	41.46
360.607	13.46
360.737	31.46
360.866	22.46
360.996	26.46
361.126	5.46
361.256	31.46
361.386	31.46
361.516	41.46
361.645	7.46
361.775	28.46
361.905	20.46
362.035	35.46
362.165	24.46
362.294	35.46
362.424	49.46
362.554	39.46
362.684	24.46
362.813	43.46
362.943	62.46
363.073	61.46
363.203	63.46
363.332	67.46
363.462	61.46
363.592	90.46
363.721	110.46
363.851	150.46
363.981	203.46
364.111	260.46
364.24	318.46
364.37	487.46
364.5	881.46
364.629	1827.46
364.759	3928.46
364.888	6448.46
365.018	9673.46
365.148	14930.46
365.277	13241.46
365.407	4900.46
365.537	3193.46
365.666	4173.46
365.796	1877.46
365.925	823.46
366.055	766.46
366.184	1052.46
366.314	1454.46
366.444	2536.46
366.573	2169.46
366.703	666.46
366.832	218.46
366.962	120.46
367.091	101.46
367.221	65.46
367.35	42.46
367.48	70.46
367.609	22.46
367.739	58.46
367.868	40.46
367.998	50.46
368.127	49.46
368.257	50.46
368.386	57.46
368.516	42.46
368.645	27.46
368.775	30.46
368.904	19.46
369.033	21.46
369.163	31.46
369.292	38.46
369.422	16.46
369.551	23.46
369.68	37.46
369.81	46.46
369.939	29.46
370.069	50.46
370.198	35.46
370.327	24.46
370.457	30.46
370.586	26.46
370.715	41.46
370.845	42.46
370.974	27.46
371.103	44.46
371.233	43.46
371.362	33.46
371.491	39.46
371.621	58.46
371.75	24.46
371.879	51.46
372.008	51.46
372.138	68.46
372.267	61.46
372.396	52.46
372.525	35.46
372.655	39.46
372.784	13.46
372.913	29.46
373.042	21.46
373.172	36.46
373.301	-4.54
373.43	13.46
373.559	6.46
373.688	24.46
373.818	17.46
373.947	30.46
374.076	9.46
374.205	19.46
374.334	15.46
374.463	9.46
374.593	17.46
374.722	14.46
374.851	19.46
374.98	11.46
375.109	-7.54
375.238	26.46
375.367	40.46
375.496	4.46
375.625	-2.54
375.755	26.46
375.884	27.46
376.013	17.46
376.142	6.46
376.271	25.46
376.4	13.46
376.529	16.46
376.658	35.46
376.787	23.46
376.916	26.46
377.045	0.46
377.174	7.46
377.303	8.46
377.432	37.46
377.561	39.46
377.69	18.46
377.819	41.46
377.948	30.46
378.077	17.46
378.206	9.46
378.335	4.46
378.464	-5.54
378.593	32.46
378.722	-3.54
378.851	11.46
378.98	21.46
379.108	-9.54
379.237	-6.54
379.366	19.46
379.495	12.46
379.624	10.46
379.753	15.46
379.882	20.46
380.011	3.46
380.14	5.46
380.268	10.46
380.397	0.46
380.526	27.46
380.655	8.46
380.784	-6.54
380.913	-7.54
381.041	0.46
381.17	-8.54
381.299	8.46
381.428	13.46
381.557	-1.54
381.685	21.46
381.814	38.46
381.943	14.46
382.072	2.46
382.2	16.46
382.329	6.46
382.458	17.46
382.587	11.46
382.715	21.46
382.844	14.46
382.973	7.46
383.102	20.46
383.23	20.46
383.359	-12.54
383.488	11.46
383.616	21.46
383.745	2.46
383.874	2.46
384.003	-0.54
384.131	-0.54
384.26	-3.54
384.389	6.46
384.517	9.46
384.646	8.46
384.774	9.46
384.903	17.46
385.032	37.46
385.16	23.46
385.289	6.46
385.418	11.46
385.546	29.46
385.675	28.46
385.803	14.46
385.932	6.46
386.06	14.46
386.189	3.46
386.318	27.46
386.446	22.46
386.575	23.46
386.703	15.46
386.832	8.46
386.96	12.46
387.089	20.46
387.217	11.46
387.346	10.46
387.474	15.46
387.603	35.46
387.731	20.46
387.86	16.46
387.988	21.46
388.117	29.46
388.245	19.46
388.374	15.46
388.502	34.46
388.631	9.46
388.759	14.46
388.888	22.46
389.016	9.46
389.144	9.46
389.273	0.46
389.401	14.46
389.53	-5.54
389.658	13.46
389.786	11.46
389.915	24.46
390.043	23.46
390.172	48.46
390.3	52.46
390.428	29.46
390.557	30.46
390.685	31.46
390.813	38.46
390.942	44.46
391.07	26.46
391.198	14.46
391.327	7.46
391.455	-3.54
391.583	39.46
391.712	20.46
391.84	20.46
391.968	24.46
392.096	16.46
392.225	4.46
392.353	31.46
392.481	8.46
392.609	40.46
392.738	28.46
392.866	24.46
392.994	20.46
393.122	43.46
393.251	0.46
393.379	11.46
393.507	6.46
393.635	17.46
393.764	-4.54
393.892	24.46
394.02	18.46
394.148	29.46
394.276	30.46
394.404	36.46
394.533	12.46
394.661	17.46
394.789	25.46
394.917	25.46
395.045	19.46
395.173	17.46
395.302	28.46
395.43	27.46
395.558	27.46
395.686	32.46
395.814	23.46
395.942	7.46
396.07	25.46
396.198	33.46
396.326	34.46
396.454	37.46
396.582	31.46
396.711	25.46
396.839	42.46
396.967	40.46
397.095	23.46
397.223	46.46
397.351	48.46
397.479	38.46
397.607	31.46
397.735	46.46
397.863	39.46
397.991	40.46
398.119	14.46
398.247	49.46
398.375	63.46
398.503	46.46
398.631	54.46
398.759	54.46
398.887	42.46
399.015	37.46
399.143	56.46
399.271	51.46
399.399	70.46
399.526	78.46
399.654	91.46
399.782	56.46
399.91	100.46
400.038	82.46
400.166	81.46
400.294	82.46
400.422	84.46
400.55	109.46
400.678	94.46
400.805	112.46
400.933	101.46
401.061	121.46
401.189	108.46
401.317	138.46
401.445	100.46
401.573	73.46
401.7	46.46
401.828	38.46
401.956	49.46
402.084	57.46
402.212	31.46
402.34	24.46
402.467	38.46
402.595	45.46
402.723	45.46
402.851	62.46
402.978	58.46
403.106	67.46
403.234	78.46
403.362	123.46
403.489	124.46
403.617	166.46
403.745	203.46
403.873	299.46
404	587.46
404.128	1521.46
404.256	4052.46
404.384	5236.46
404.511	5584.46
404.639	7322.46
404.767	11622.46
404.894	14754.46
405.022	5012.46
405.15	1318.46
405.277	409.46
405.405	252.46
405.533	150.46
405.66	112.46
405.788	41.46
405.916	62.46
406.043	30.46
406.171	47.46
406.299	51.46
406.426	60.46
406.554	57.46
406.681	71.46
406.809	41.46
406.937	53.46
407.064	59.46
407.192	132.46
407.319	308.46
407.447	532.46
407.574	543.46
407.702	648.46
407.83	876.46
407.957	1644.46
408.085	967.46
408.212	299.46
408.34	94.46
408.467	58.46
408.595	38.46
408.722	41.46
408.85	33.46
408.977	26.46
409.105	16.46
409.232	31.46
409.36	13.46
409.487	32.46
409.615	39.46
409.742	29.46
409.87	25.46
409.997	36.46
410.125	30.46
410.252	27.46
410.379	24.46
410.507	55.46
410.634	31.46
410.762	13.46
410.889	36.46
411.017	20.46
411.144	32.46
411.271	25.46
411.399	22.46
411.526	26.46
411.653	19.46
411.781	43.46
411.908	16.46
412.036	6.46
412.163	42.46
412.29	27.46
412.418	18.46
412.545	18.46
412.672	22.46
412.8	44.46
412.927	38.46
413.054	38.46
413.182	5.46
413.309	25.46
413.436	10.46
413.564	29.46
413.691	32.46
413.818	32.46
413.945	13.46
414.073	22.46
414.2	23.46
414.327	5.46
414.454	30.46
414.582	41.46
414.709	5.46
414.836	22.46
414.963	18.46
415.091	22.46
415.218	9.46
415.345	22.46
415.472	25.46
415.6	16.46
415.727	20.46
415.854	20.46
415.981	-1.54
416.108	24.46
416.236	29.46
416.363	20.46
416.49	-3.54
416.617	31.46
416.744	33.46
416.871	11.46
416.998	30.46
417.126	25.46
417.253	13.46
417.38	16.46
417.507	33.46
417.634	28.46
417.761	30.46
417.888	33.46
418.015	29.46
418.143	44.46
418.27	50.46
418.397	19.46
418.524	25.46
418.651	32.46
418.778	50.46
418.905	61.46
419.032	37.46
419.159	40.46
419.286	53.46
419.413	46.46
419.54	41.46
419.667	28.46
419.794	33.46
419.921	48.46
420.048	36.46
420.175	33.46
420.302	36.46
420.429	53.46
420.556	39.46
420.683	26.46
420.81	54.46
420.937	76.46
421.064	54.46
421.191	50.46
421.318	62.46
421.445	72.46
421.572	56.46
421.699	59.46
421.826	38.46
421.953	23.46
422.08	29.46
422.207	1.46
422.334	-6.54
422.461	31.46
422.588	9.46
422.714	16.46
422.841	27.46
422.968	35.46
423.095	20.46
423.222	7.46
423.349	21.46
423.476	21.46
423.603	14.46
423.729	8.46
423.856	15.46
423.983	24.46
424.11	-5.54
424.237	17.46
424.364	31.46
424.491	16.46
424.617	8.46
424.744	3.46
424.871	23.46
424.998	7.46
425.125	2.46
425.251	5.46
425.378	5.46
425.505	36.46
425.632	13.46
425.758	-3.54
425.885	24.46
426.012	11.46
426.139	36.46
426.266	22.46
426.392	19.46
426.519	25.46
426.646	31.46
426.772	37.46
426.899	24.46
427.026	21.46
427.153	28.46
427.279	16.46
427.406	13.46
427.533	7.46
427.659	0.46
427.786	9.46
427.913	19.46
428.039	-3.54
428.166	21.46
428.293	8.46
428.419	17.46
428.546	23.46
428.673	9.46
428.799	7.46
428.926	16.46
429.053	25.46
429.179	28.46
429.306	22.46
429.433	38.46
429.559	40.46
429.686	9.46
429.812	17.46
429.939	14.46
430.066	24.46
430.192	18.46
430.319	34.46
430.445	19.46
430.572	24.46
430.699	-6.54
430.825	-3.54
430.952	13.46
431.078	4.46
431.205	35.46
431.331	23.46
431.458	40.46
431.584	33.46
431.711	28.46
431.837	37.46
431.964	16.46
432.09	10.46
432.217	10.46
432.343	12.46
432.47	27.46
432.596	24.46
432.723	14.46
432.849	21.46
432.976	40.46
433.102	26.46
433.229	29.46
433.355	61.46
433.482	76.46
433.608	95.46
433.735	103.46
433.861	105.46
433.987	160.46
434.114	196.46
434.24	180.46
434.367	214.46
434.493	202.46
434.62	269.46
434.746	410.46
434.872	626.46
434.999	858.46
435.125	1763.46
435.252	5670.46
435.378	13553.46
435.504	15270.46
435.631	15517.46
435.757	15679.46
435.883	15679.46
436.01	15679.46
436.136	15679.46
436.262	15679.46
436.389	3594.46
436.515	2807.46
436.641	921.46
436.768	665.46
436.894	408.46
437.02	417.46
437.147	313.46
437.273	292.46
437.399	237.46
437.526	253.46
437.652	186.46
437.778	226.46
437.904	135.46
438.031	161.46
438.157	133.46
438.283	129.46
438.409	117.46
438.536	118.46
438.662	112.46
438.788	129.46
438.914	97.46
439.041	129.46
439.167	90.46
439.293	110.46
439.419	78.46
439.546	98.46
439.672	80.46
439.798	75.46
439.924	77.46
440.05	94.46
440.177	74.46
440.303	72.46
440.429	64.46
440.555	74.46
440.681	62.46
440.807	78.46
440.934	56.46
441.06	53.46
441.186	56.46
441.312	48.46
441.438	36.46
441.564	67.46
441.69	56.46
441.816	62.46
441.943	40.46
442.069	48.46
442.195	50.46
442.321	53.46
442.447	30.46
442.573	39.46
442.699	31.46
442.825	25.46
442.951	55.46
443.077	57.46
443.203	44.46
443.33	34.46
443.456	21.46
443.582	39.46
443.708	30.46
443.834	48.46
443.96	45.46
444.086	46.46
444.212	42.46
444.338	48.46
444.464	56.46
444.59	62.46
444.716	44.46
444.842	37.46
444.968	32.46
445.094	33.46
445.22	38.46
445.346	15.46
445.472	42.46
445.598	44.46
445.724	45.46
445.85	28.46
445.976	29.46
446.102	53.46
446.228	47.46
446.354	37.46
446.48	42.46
446.605	30.46
446.731	31.46
446.857	31.46
446.983	39.46
447.109	26.46
447.235	11.46
447.361	12.46
447.487	24.46
447.613	28.46
447.739	30.46
447.865	27.46
447.99	17.46
448.116	17.46
448.242	13.46
448.368	13.46
448.494	8.46
448.62	25.46
448.746	34.46
448.872	37.46
448.997	22.46
449.123	17.46
449.249	50.46
449.375	35.46
449.501	21.46
449.627	28.46
449.752	42.46
449.878	21.46
450.004	-3.54
450.13	28.46
450.256	17.46
450.381	23.46
450.507	33.46
450.633	28.46
450.759	33.46
450.884	5.46
451.01	32.46
451.136	18.46
451.262	14.46
451.388	30.46
451.513	13.46
451.639	30.46
451.765	41.46
451.89	41.46
452.016	34.46
452.142	7.46
452.268	12.46
452.393	6.46
452.519	-1.54
452.645	30.46
452.771	31.46
452.896	21.46
453.022	24.46
453.148	36.46
453.273	4.46
453.399	12.46
453.525	-0.54
453.65	24.46
453.776	25.46
453.902	31.46
454.027	39.46
454.153	32.46
454.279	29.46
454.404	17.46
454.53	38.46
454.656	64.46
454.781	38.46
454.907	28.46
455.032	26.46
455.158	32.46
455.284	17.46
455.409	34.46
455.535	28.46
455.66	35.46
455.786	28.46
455.912	27.46
456.037	20.46
456.163	33.46
456.288	21.46
456.414	1.46
456.539	18.46
456.665	34.46
456.791	16.46
456.916	4.46
457.042	13.46
457.167	9.46
457.293	20.46
457.418	13.46
457.544	20.46
457.669	18.46
457.795	26.46
457.92	19.46
458.046	8.46
458.171	21.46
458.297	15.46
458.422	19.46
458.548	28.46
458.673	17.46
458.799	12.46
458.924	12.46
459.05	21.46
459.175	18.46
459.301	30.46
459.426	37.46
459.552	29.46
459.677	7.46
459.803	41.46
459.928	34.46
460.053	17.46
460.179	19.46
460.304	28.46
460.43	9.46
460.555	8.46
460.681	24.46
460.806	16.46
460.931	17.46
461.057	13.46
461.182	16.46
461.308	25.46
461.433	27.46
461.558	16.46
461.684	35.46
461.809	32.46
461.934	21.46
462.06	27.46
462.185	5.46
462.311	6.46
462.436	12.46
462.561	18.46
462.687	21.46
462.812	19.46
462.937	4.46
463.063	13.46
463.188	1.46
463.313	19.46
463.439	6.46
463.564	4.46
463.689	23.46
463.814	16.46
463.94	23.46
464.065	8.46
464.19	28.46
464.316	12.46
464.441	12.46
464.566	9.46
464.692	6.46
464.817	31.46
464.942	22.46
465.067	21.46
465.193	-6.54
465.318	21.46
465.443	21.46
465.568	12.46
465.694	17.46
465.819	31.46
465.944	31.46
466.069	36.46
466.194	21.46
466.32	22.46
466.445	19.46
466.57	5.46
466.695	18.46
466.82	19.46
466.946	27.46
467.071	24.46
467.196	11.46
467.321	41.46
467.446	37.46
467.572	31.46
467.697	17.46
467.822	27.46
467.947	36.46
468.072	26.46
468.197	32.46
468.323	29.46
468.448	31.46
468.573	12.46
468.698	14.46
468.823	29.46
468.948	38.46
469.073	25.46
469.198	38.46
469.324	47.46
469.449	28.46
469.574	33.46
469.699	31.46
469.824	54.46
469.949	34.46
470.074	43.46
470.199	43.46
470.324	48.46
470.449	21.46
470.574	18.46
470.7	15.46
470.825	42.46
470.95	47.46
471.075	27.46
471.2	36.46
471.325	35.46
471.45	33.46
471.575	20.46
471.7	45.46
471.825	18.46
471.95	19.46
472.075	17.46
472.2	8.46
472.325	30.46
472.45	30.46
472.575	26.46
472.7	12.46
472.825	34.46
472.95	39.46
473.075	27.46
473.2	39.46
473.325	34.46
473.45	22.46
473.575	35.46
473.7	40.46
473.825	21.46
473.95	32.46
474.075	16.46
474.2	-17.54
474.325	-5.54
474.45	17.46
474.574	23.46
474.699	31.46
474.824	20.46
474.949	-1.54
475.074	13.46
475.199	38.46
475.324	20.46
475.449	18.46
475.574	18.46
475.699	13.46
475.824	5.46
475.949	14.46
476.073	1.46
476.198	6.46
476.323	28.46
476.448	26.46
476.573	14.46
476.698	27.46
476.823	9.46
476.947	19.46
477.072	12.46
477.197	13.46
477.322	4.46
477.447	16.46
477.572	20.46
477.697	13.46
477.821	14.46
477.946	13.46
478.071	32.46
478.196	31.46
478.321	20.46
478.445	20.46
478.57	12.46
478.695	20.46
478.82	26.46
478.945	20.46
479.069	8.46
479.194	11.46
479.319	9.46
479.444	18.46
479.569	8.46
479.693	20.46
479.818	14.46
479.943	24.46
480.068	19.46
480.192	27.46
480.317	39.46
480.442	19.46
480.567	9.46
480.691	21.46
480.816	6.46
480.941	-1.54
481.066	18.46
481.19	36.46
481.315	34.46
481.44	14.46
481.564	5.46
481.689	32.46
481.814	22.46
481.938	4.46
482.063	8.46
482.188	-2.54
482.313	6.46
482.437	12.46
482.562	21.46
482.687	7.46
482.811	3.46
482.936	10.46
483.061	2.46
483.185	21.46
483.31	27.46
483.435	20.46
483.559	21.46
483.684	32.46
483.808	29.46
483.933	14.46
484.058	5.46
484.182	1.46
484.307	6.46
484.432	23.46
484.556	13.46
484.681	1.46
484.805	11.46
484.93	30.46
485.055	19.46
485.179	52.46
485.304	29.46
485.428	18.46
485.553	-2.54
485.678	6.46
485.802	9.46
485.927	36.46
486.051	24.46
486.176	-2.54
486.3	14.46
486.425	16.46
486.549	25.46
486.674	28.46
486.799	21.46
486.923	20.46
487.048	11.46
487.172	8.46
487.297	-2.54
487.421	51.46
487.546	12.46
487.67	22.46
487.795	2.46
487.919	23.46
488.044	33.46
488.168	12.46
488.293	1.46
488.417	12.46
488.542	15.46
488.666	16.46
488.791	14.46
488.915	29.46
489.04	10.46
489.164	28.46
489.289	23.46
489.413	10.46
489.538	21.46
489.662	36.46
489.786	16.46
489.911	30.46
490.035	22.46
490.16	6.46
490.284	-13.54
490.409	0.46
490.533	16.46
490.658	37.46
490.782	13.46
490.906	17.46
491.031	101.46
491.155	121.46
491.28	145.46
491.404	148.46
491.528	265.46
491.653	164.46
491.777	72.46
491.902	29.46
492.026	27.46
492.15	30.46
492.275	33.46
492.399	25.46
492.524	37.46
492.648	18.46
492.772	26.46
492.897	34.46
493.021	16.46
493.145	45.46
493.27	20.46
493.394	19.46
493.518	23.46
493.643	-15.54
493.767	25.46
493.891	12.46
494.016	13.46
494.14	5.46
494.264	8.46
494.389	21.46
494.513	25.46
494.637	-0.54
494.762	23.46
494.886	29.46
495.01	9.46
495.134	22.46
495.259	20.46
495.383	10.46
495.507	12.46
495.632	51.46
495.756	30.46
495.88	19.46
496.004	6.46
496.129	12.46
496.253	9.46
496.377	19.46
496.501	10.46
496.626	-3.54
496.75	17.46
496.874	17.46
496.998	11.46
497.123	16.46
497.247	17.46
497.371	5.46
497.495	13.46
497.62	19.46
497.744	24.46
497.868	15.46
497.992	25.46
498.116	16.46
498.241	16.46
498.365	14.46
498.489	2.46
498.613	39.46
498.737	23.46
498.862	18.46
498.986	9.46
499.11	16.46
499.234	22.46
499.358	2.46
499.482	24.46
499.607	29.46
499.731	1.46
499.855	21.46
499.979	4.46
500.103	20.46
500.227	35.46
500.351	25.46
500.476	14.46
500.6	14.46
500.724	28.46
500.848	9.46
500.972	13.46
501.096	25.46
501.22	34.46
501.344	13.46
501.469	21.46
501.593	20.46
501.717	17.46
501.841	10.46
501.965	14.46
502.089	30.46
502.213	10.46
502.337	25.46
502.461	11.46
502.585	17.46
502.709	4.46
502.834	10.46
502.958	1.46
503.082	20.46
503.206	5.46
503.33	26.46
503.454	16.46
503.578	35.46
503.702	22.46
503.826	20.46
503.95	32.46
504.074	14.46
504.198	12.46
504.322	7.46
504.446	-15.54
504.57	24.46
504.694	25.46
504.818	24.46
504.942	20.46
505.066	25.46
505.19	15.46
505.314	9.46
505.438	18.46
505.562	23.46
505.686	20.46
505.81	0.46
505.934	23.46
506.058	13.46
506.182	21.46
506.306	31.46
506.43	20.46
506.554	13.46
506.678	18.46
506.802	21.46
506.926	20.46
507.05	16.46
507.174	28.46
507.298	30.46
507.422	11.46
507.546	14.46
507.67	30.46
507.794	0.46
507.918	16.46
508.042	20.46
508.165	15.46
508.289	-6.54
508.413	27.46
508.537	15.46
508.661	18.46
508.785	21.46
508.909	29.46
509.033	12.46
509.157	8.46
509.281	10.46
509.405	25.46
509.528	45.46
509.652	40.46
509.776	12.46
509.9	28.46
510.024	19.46
510.148	28.46
510.272	43.46
510.396	33.46
510.519	17.46
510.643	59.46
510.767	34.46
510.891	32.46
511.015	30.46
511.139	44.46
511.263	39.46
511.386	32.46
511.51	52.46
511.634	24.46
511.758	43.46
511.882	31.46
512.006	51.46
512.129	53.46
512.253	81.46
512.377	74.46
512.501	81.46
512.625	86.46
512.748	73.46
512.872	83.46
512.996	60.46
513.12	46.46
513.244	48.46
513.367	51.46
513.491	57.46
513.615	53.46
513.739	67.46
513.862	64.46
513.986	66.46
514.11	107.46
514.234	85.46
514.358	88.46
514.481	102.46
514.605	114.46
514.729	114.46
514.853	124.46
514.976	103.46
515.1	97.46
515.224	100.46
515.348	92.46
515.471	81.46
515.595	91.46
515.719	112.46
515.842	238.46
515.966	284.46
516.09	282.46
516.214	292.46
516.337	320.46
516.461	207.46
516.585	95.46
516.708	44.46
516.832	25.46
516.956	33.46
517.08	18.46
517.203	17.46
517.327	1.46
517.451	30.46
517.574	33.46
517.698	4.46
517.822	-1.54
517.945	4.46
518.069	29.46
518.193	34.46
518.316	24.46
518.44	22.46
518.564	14.46
518.687	8.46
518.811	7.46
518.935	56.46
519.058	9.46
519.182	18.46
519.306	25.46
519.429	18.46
519.553	24.46
519.676	10.46
519.8	10.46
519.924	2.46
520.047	3.46
520.171	10.46
520.294	17.46
520.418	22.46
520.542	21.46
520.665	30.46
520.789	21.46
520.913	6.46
521.036	14.46
521.16	14.46
521.283	5.46
521.407	29.46
521.53	6.46
521.654	-3.54
521.778	26.46
521.901	12.46
522.025	16.46
522.148	-1.54
522.272	10.46
522.395	8.46
522.519	11.46
522.643	10.46
522.766	2.46
522.89	1.46
523.013	19.46
523.137	-0.54
523.26	13.46
523.384	20.46
523.507	9.46
523.631	2.46
523.754	13.46
523.878	5.46
524.002	2.46
524.125	25.46
524.249	4.46
524.372	18.46
524.496	24.46
524.619	17.46
524.743	4.46
524.866	0.46
524.99	15.46
525.113	-2.54
525.237	13.46
525.36	27.46
525.484	15.46
525.607	2.46
525.731	-11.54
525.854	5.46
525.978	21.46
526.101	6.46
526.224	16.46
526.348	16.46
526.471	23.46
526.595	15.46
526.718	7.46
526.842	24.46
526.965	38.46
527.089	8.46
527.212	19.46
527.336	5.46
527.459	29.46
527.582	5.46
527.706	17.46
527.829	13.46
527.953	20.46
528.076	4.46
528.2	6.46
528.323	23.46
528.446	13.46
528.57	10.46
528.693	24.46
528.817	-0.54
528.94	17.46
529.064	22.46
529.187	19.46
529.31	1.46
529.434	5.46
529.557	-5.54
529.68	-8.54
529.804	28.46
529.927	28.46
530.051	-0.54
530.174	3.46
530.297	-1.54
530.421	17.46
530.544	33.46
530.668	-2.54
530.791	-6.54
530.914	17.46
531.038	23.46
531.161	9.46
531.284	12.46
531.408	16.46
531.531	11.46
531.654	11.46
531.778	10.46
531.901	17.46
532.024	17.46
532.148	11.46
532.271	10.46
532.394	5.46
532.518	16.46
532.641	28.46
532.764	27.46
532.888	10.46
533.011	-0.54
533.134	6.46
533.258	27.46
533.381	12.46
533.504	14.46
533.628	12.46
533.751	17.46
533.874	6.46
533.997	15.46
534.121	1.46
534.244	4.46
534.367	5.46
534.491	6.46
534.614	3.46
534.737	13.46
534.86	30.46
534.984	0.46
535.107	14.46
535.23	11.46
535.354	6.46
535.477	9.46
535.6	29.46
535.723	16.46
535.847	-2.54
535.97	-1.54
536.093	27.46
536.216	12.46
536.34	11.46
536.463	1.46
536.586	14.46
536.709	16.46
536.833	14.46
536.956	23.46
537.079	8.46
537.202	18.46
537.325	-5.54
537.449	-6.54
537.572	10.46
537.695	6.46
537.818	20.46
537.941	26.46
538.065	11.46
538.188	10.46
538.311	22.46
538.434	-6.54
538.558	14.46
538.681	15.46
538.804	21.46
538.927	29.46
539.05	10.46
539.173	17.46
539.297	11.46
539.42	18.46
539.543	20.46
539.666	17.46
539.789	26.46
539.913	24.46
540.036	16.46
540.159	27.46
540.282	12.46
540.405	12.46
540.528	4.46
540.651	27.46
540.775	23.46
540.898	26.46
541.021	7.46
541.144	32.46
541.267	24.46
541.39	28.46
541.513	32.46
541.637	14.46
541.76	8.46
541.883	36.46
542.006	49.46
542.129	55.46
542.252	30.46
542.375	38.46
542.498	44.46
542.622	31.46
542.745	39.46
542.868	48.46
542.991	45.46
543.114	61.46
543.237	51.46
543.36	69.46
543.483	50.46
543.606	58.46
543.73	71.46
543.853	61.46
543.976	82.46
544.099	94.46
544.222	139.46
544.345	146.46
544.468	169.46
544.591	223.46
544.714	260.46
544.837	347.46
544.96	444.46
545.083	656.46
545.206	1120.46
545.329	2490.46
545.453	11156.46
545.576	15280.46
545.699	15679.46
545.822	15679.46
545.945	15679.46
546.068	15679.46
546.191	15679.46
546.314	15679.46
546.437	15679.46
546.56	15679.46
546.683	15679.46
546.806	15679.46
546.929	15679.46
547.052	15679.46
547.175	15679.46
547.298	15679.46
547.421	15679.46
547.544	15679.46
547.667	4565.46
547.79	5852.46
547.913	1625.46
548.036	1005.46
548.159	678.46
548.282	682.46
548.405	502.46
548.528	519.46
548.651	403.46
548.774	428.46
548.897	351.46
549.02	378.46
549.143	315.46
549.266	306.46
549.389	270.46
549.512	273.46
549.635	246.46
549.758	257.46
549.881	208.46
550.004	203.46
550.127	179.46
550.25	196.46
550.373	166.46
550.496	190.46
550.619	162.46
550.742	152.46
550.865	142.46
550.988	152.46
551.111	161.46
551.234	146.46
551.356	124.46
551.479	118.46
551.602	126.46
551.725	148.46
551.848	116.46
551.971	124.46
552.094	126.46
552.217	110.46
552.34	101.46
552.463	98.46
552.586	98.46
552.709	109.46
552.832	100.46
552.955	102.46
553.077	119.46
553.2	97.46
553.323	74.46
553.446	100.46
553.569	90.46
553.692	96.46
553.815	83.46
553.938	99.46
554.061	75.46
554.184	71.46
554.306	80.46
554.429	88.46
554.552	74.46
554.675	72.46
554.798	66.46
554.921	79.46
555.044	64.46
555.167	75.46
555.29	62.46
555.412	84.46
555.535	73.46
555.658	73.46
555.781	64.46
555.904	74.46
556.027	75.46
556.15	81.46
556.272	59.46
556.395	70.46
556.518	75.46
556.641	59.46
556.764	62.46
556.887	81.46
557.01	66.46
557.132	70.46
557.255	69.46
557.378	74.46
557.501	56.46
557.624	65.46
557.747	62.46
557.869	71.46
557.992	83.46
558.115	99.46
558.238	77.46
558.361	90.46
558.483	105.46
558.606	70.46
558.729	56.46
558.852	64.46
558.975	48.46
559.098	41.46
559.22	43.46
559.343	47.46
559.466	46.46
559.589	42.46
559.712	46.46
559.834	32.46
559.957	39.46
560.08	41.46
560.203	59.46
560.325	64.46
560.448	70.46
560.571	62.46
560.694	43.46
560.817	59.46
560.939	52.46
561.062	39.46
561.185	49.46
561.308	65.46
561.43	41.46
561.553	44.46
561.676	49.46
561.799	51.46
561.921	55.46
562.044	53.46
562.167	51.46
562.29	68.46
562.413	62.46
562.535	42.46
562.658	37.46
562.781	41.46
562.903	63.46
563.026	93.46
563.149	124.46
563.272	115.46
563.394	119.46
563.517	99.46
563.64	52.46
563.763	33.46
563.885	40.46
564.008	47.46
564.131	35.46
564.254	30.46
564.376	46.46
564.499	18.46
564.622	33.46
564.744	46.46
564.867	27.46
564.99	34.46
565.113	32.46
565.235	31.46
565.358	35.46
565.481	13.46
565.603	26.46
565.726	38.46
565.849	48.46
565.971	52.46
566.094	42.46
566.217	35.46
566.34	44.46
566.462	11.46
566.585	53.46
566.708	56.46
566.83	37.46
566.953	66.46
567.076	18.46
567.198	41.46
567.321	9.46
567.444	32.46
567.566	33.46
567.689	25.46
567.812	27.46
567.934	30.46
568.057	23.46
568.18	33.46
568.302	20.46
568.425	0.46
568.548	17.46
568.67	36.46
568.793	31.46
568.916	36.46
569.038	24.46
569.161	24.46
569.283	25.46
569.406	19.46
569.529	28.46
569.651	19.46
569.774	16.46
569.897	24.46
570.019	48.46
570.142	31.46
570.265	20.46
570.387	8.46
570.51	38.46
570.632	53.46
570.755	22.46
570.878	36.46
571	34.46
571.123	25.46
571.246	29.46
571.368	16.46
571.491	28.46
571.613	17.46
571.736	2.46
571.859	26.46
571.981	12.46
572.104	6.46
572.226	32.46
572.349	13.46
572.472	20.46
572.594	33.46
572.717	29.46
572.839	26.46
572.962	35.46
573.085	34.46
573.207	22.46
573.33	11.46
573.452	34.46
573.575	52.46
573.697	24.46
573.82	14.46
573.943	9.46
574.065	13.46
574.188	32.46
574.31	40.46
574.433	24.46
574.555	51.46
574.678	18.46
574.801	51.46
574.923	13.46
575.046	28.46
575.168	27.46
575.291	36.46
575.413	30.46
575.536	44.46
575.659	50.46
575.781	49.46
575.904	54.46
576.026	70.46
576.149	81.46
576.271	139.46
576.394	199.46
576.516	542.46
576.639	3757.46
576.761	10456.46
576.884	8964.46
577.007	8933.46
577.129	8124.46
577.252	3810.46
577.374	1333.46
577.497	510.46
577.619	285.46
577.742	176.46
577.864	143.46
577.987	125.46
578.109	122.46
578.232	132.46
578.354	153.46
578.477	197.46
578.599	400.46
578.722	1990.46
578.844	9304.46
578.967	9984.46
579.089	8930.46
579.212	9299.46
579.334	5363.46
579.457	1949.46
579.579	736.46
579.702	332.46
579.824	201.46
579.947	114.46
580.069	100.46
580.192	77.46
580.314	88.46
580.437	60.46
580.559	84.46
580.682	62.46
580.804	80.46
580.927	66.46
581.049	83.46
581.172	53.46
581.294	64.46
581.417	51.46
581.539	41.46
581.662	58.46
581.784	44.46
581.907	65.46
582.029	60.46
582.152	26.46
582.274	42.46
582.396	40.46
582.519	31.46
582.641	10.46
582.764	26.46
582.886	31.46
583.009	31.46
583.131	31.46
583.254	26.46
583.376	32.46
583.499	42.46
583.621	21.46
583.743	35.46
583.866	25.46
583.988	27.46
584.111	30.46
584.233	25.46
584.356	24.46
584.478	20.46
584.601	20.46
584.723	38.46
584.845	24.46
584.968	23.46
585.09	8.46
585.213	28.46
585.335	0.46
585.458	23.46
585.58	19.46
585.702	34.46
585.825	38.46
585.947	18.46
586.07	5.46
586.192	22.46
586.315	46.46
586.437	30.46
586.559	34.46
586.682	10.46
586.804	28.46
586.927	17.46
587.049	16.46
587.171	21.46
587.294	24.46
587.416	39.46
587.539	18.46
587.661	12.46
587.783	13.46
587.906	19.46
588.028	11.46
588.151	26.46
588.273	32.46
588.395	9.46
588.518	8.46
588.64	26.46
588.763	32.46
588.885	33.46
589.007	29.46
589.13	3.46
589.252	2.46
589.375	28.46
589.497	26.46
589.619	12.46
589.742	15.46
589.864	35.46
589.986	22.46
590.109	11.46
590.231	17.46
590.354	28.46
590.476	6.46
590.598	4.46
590.721	-5.54
590.843	25.46
590.965	22.46
591.088	34.46
591.21	29.46
591.332	19.46
591.455	4.46
591.577	13.46
591.7	9.46
591.822	16.46
591.944	6.46
592.067	14.46
592.189	18.46
592.311	28.46
592.434	31.46
592.556	39.46
592.678	12.46
592.801	15.46
592.923	12.46
593.045	9.46
593.168	15.46
593.29	19.46
593.412	21.46
593.535	21.46
593.657	10.46
593.779	8.46
593.902	28.46
594.024	-2.54
594.146	27.46
594.269	9.46
594.391	-3.54
594.513	10.46
594.636	18.46
594.758	14.46
594.88	15.46
595.003	14.46
595.125	24.46
595.247	18.46
595.37	8.46
595.492	19.46
595.614	39.46
595.737	30.46
595.859	3.46
595.981	19.46
596.104	13.46
596.226	12.46
596.348	19.46
596.471	19.46
596.593	26.46
596.715	16.46
596.838	16.46
596.96	10.46
597.082	24.46
597.204	8.46
597.327	11.46
597.449	-3.54
597.571	11.46
597.694	28.46
597.816	21.46
597.938	14.46
598.061	26.46
598.183	33.46
598.305	43.46
598.427	14.46
598.55	12.46
598.672	24.46
598.794	35.46
598.917	17.46
599.039	25.46
599.161	7.46
599.283	12.46
599.406	16.46
599.528	28.46
599.65	36.46
599.773	16.46
599.895	36.46
600.017	33.46
600.139	21.46
600.262	13.46
600.384	38.46
600.506	22.46
600.628	28.46
600.751	28.46
600.873	13.46
600.995	10.46
601.118	42.46
601.24	29.46
601.362	47.46
601.484	20.46
601.607	9.46
601.729	26.46
601.851	5.46
601.973	23.46
602.096	25.46
602.218	28.46
602.34	7.46
602.462	27.46
602.585	16.46
602.707	10.46
602.829	24.46
602.951	-1.54
603.074	-5.54
603.196	31.46
603.318	23.46
603.44	24.46
603.563	15.46
603.685	-14.54
603.807	18.46
603.929	18.46
604.052	32.46
604.174	33.46
604.296	31.46
604.418	30.46
604.541	41.46
604.663	-8.54
604.785	16.46
604.907	18.46
605.03	-2.54
605.152	44.46
605.274	-0.54
605.396	3.46
605.519	13.46
605.641	6.46
605.763	26.46
605.885	21.46
606.008	15.46
606.13	16.46
606.252	18.46
606.374	12.46
606.496	6.46
606.619	21.46
606.741	9.46
606.863	28.46
606.985	40.46
607.108	30.46
607.23	21.46
607.352	1.46
607.474	8.46
607.596	17.46
607.719	17.46
607.841	32.46
607.963	23.46
608.085	12.46
608.207	27.46
608.33	18.46
608.452	17.46
608.574	17.46
608.696	17.46
608.819	29.46
608.941	31.46
609.063	19.46
609.185	10.46
609.307	9.46
609.43	22.46
609.552	10.46
609.674	4.46
609.796	5.46
609.918	27.46
610.041	5.46
610.163	22.46
610.285	18.46
610.407	21.46
610.529	23.46
610.652	23.46
610.774	24.46
610.896	11.46
611.018	5.46
611.14	13.46
611.263	11.46
611.385	18.46
611.507	30.46
611.629	-4.54
611.751	28.46
611.873	47.46
611.996	28.46
612.118	22.46
612.24	4.46
612.362	21.46
612.484	38.46
612.607	18.46
612.729	26.46
612.851	36.46
612.973	9.46
613.095	15.46
613.218	21.46
613.34	33.46
613.462	23.46
613.584	16.46
613.706	22.46
613.828	42.46
613.951	22.46
614.073	10.46
614.195	-1.54
614.317	40.46
614.439	17.46
614.561	33.46
614.684	16.46
614.806	18.46
614.928	28.46
615.05	9.46
615.172	11.46
615.294	37.46
615.417	19.46
615.539	16.46
615.661	10.46
615.783	33.46
615.905	12.46
616.027	7.46
616.15	26.46
616.272	15.46
616.394	4.46
616.516	5.46
616.638	26.46
616.76	11.46
616.883	21.46
617.005	0.46
617.127	29.46
617.249	19.46
617.371	16.46
617.493	8.46
617.615	12.46
617.738	16.46
617.86	17.46
617.982	2.46
618.104	16.46
618.226	6.46
618.348	1.46
618.471	17.46
618.593	24.46
618.715	17.46
618.837	16.46
618.959	25.46
619.081	20.46
619.203	22.46
619.326	32.46
619.448	30.46
619.57	22.46
619.692	26.46
619.814	19.46
619.936	21.46
620.058	16.46
620.181	19.46
620.303	19.46
620.425	6.46
620.547	1.46
620.669	6.46
620.791	24.46
620.913	-2.54
621.036	9.46
621.158	13.46
621.28	20.46
621.402	-2.54
621.524	0.46
621.646	18.46
621.768	10.46
621.891	-5.54
622.013	10.46
622.135	14.46
622.257	2.46
622.379	-4.54
622.501	32.46
622.623	13.46
622.745	16.46
622.868	10.46
622.99	-4.54
623.112	4.46
623.234	12.46
623.356	17.46
623.478	6.46
623.6	26.46
623.722	14.46
623.845	16.46
623.967	18.46
624.089	27.46
624.211	5.46
624.333	8.46
624.455	29.46
624.577	6.46
624.699	17.46
624.822	28.46
624.944	26.46
625.066	6.46
625.188	21.46
625.31	20.46
625.432	29.46
625.554	13.46
625.676	28.46
625.799	0.46
625.921	7.46
626.043	11.46
626.165	25.46
626.287	-0.54
626.409	11.46
626.531	8.46
626.653	16.46
626.775	30.46
626.898	33.46
627.02	22.46
627.142	44.46
627.264	31.46
627.386	20.46
627.508	5.46
627.63	7.46
627.752	16.46
627.874	9.46
627.997	10.46
628.119	22.46
628.241	12.46
628.363	16.46
628.485	16.46
628.607	24.46
628.729	13.46
628.851	3.46
628.973	13.46
629.096	-6.54
629.218	-6.54
629.34	8.46
629.462	0.46
629.584	18.46
629.706	18.46
629.828	20.46
629.95	10.46
630.072	12.46
630.195	7.46
630.317	23.46
630.439	6.46
630.561	10.46
630.683	14.46
630.805	12.46
630.927	15.46
631.049	14.46
631.171	-4.54
631.293	-7.54
631.416	7.46
631.538	17.46
631.66	15.46
631.782	4.46
631.904	11.46
632.026	4.46
632.148	1.46
632.27	6.46
632.392	13.46
632.514	15.46
632.637	17.46
632.759	16.46
632.881	15.46
633.003	8.46
633.125	4.46
633.247	16.46
633.369	8.46
633.491	11.46
633.613	25.46
633.735	6.46
633.858	8.46
633.98	-5.54
634.102	4.46
634.224	-5.54
634.346	6.46
634.468	12.46
634.59	8.46
634.712	6.46
634.834	3.46
634.956	2.46
635.078	5.46
635.201	8.46
635.323	9.46
635.445	14.46
635.567	-22.54
635.689	16.46
635.811	16.46
635.933	16.46
636.055	10.46
636.177	10.46
636.299	18.46
636.421	8.46
636.544	11.46
636.666	13.46
636.788	12.46
636.91	16.46
637.032	4.46
637.154	17.46
637.276	46.46
637.398	28.46
637.52	9.46
637.642	7.46
637.764	13.46
637.887	8.46
638.009	8.46
638.131	5.46
638.253	-3.54
638.375	13.46
638.497	6.46
638.619	12.46
638.741	9.46
638.863	-3.54
638.985	-9.54
639.107	2.46
639.23	16.46
639.352	20.46
639.474	5.46
639.596	12.46
639.718	1.46
639.84	10.46
639.962	3.46
640.084	25.46
640.206	20.46
640.328	15.46
640.45	20.46
640.573	10.46
640.695	8.46
640.817	10.46
640.939	13.46
641.061	2.46
641.183	28.46
641.305	0.46
641.427	8.46
641.549	17.46
641.671	10.46
641.793	10.46
641.915	14.46
642.038	7.46
642.16	8.46
642.282	-4.54
642.404	13.46
642.526	20.46
642.648	3.46
642.77	8.46
642.892	2.46
643.014	7.46
643.136	13.46
643.258	15.46
643.381	11.46
643.503	7.46
643.625	10.46
643.747	-10.54
643.869	4.46
643.991	5.46
644.113	0.46
644.235	11.46
644.357	16.46
644.479	22.46
644.601	6.46
644.723	6.46
644.846	25.46
644.968	4.46
645.09	10.46
645.212	-7.54
645.334	22.46
645.456	11.46
645.578	16.46
645.7	14.46
645.822	4.46
645.944	16.46
646.066	0.46
646.188	11.46
646.311	36.46
646.433	4.46
646.555	19.46
646.677	23.46
646.799	9.46
646.921	12.46
647.043	41.46
647.165	16.46
647.287	14.46
647.409	9.46
647.531	26.46
647.654	-3.54
647.776	21.46
647.898	10.46
648.02	0.46
648.142	3.46
648.264	0.46
648.386	1.46
648.508	-6.54
648.63	9.46
648.752	9.46
648.874	6.46
648.997	4.46
649.119	28.46
649.241	10.46
649.363	30.46
649.485	17.46
649.607	6.46
649.729	-2.54
649.851	1.46
649.973	-3.54
650.095	9.46
650.217	12.46
650.34	17.46
650.462	6.46
650.584	19.46
650.706	8.46
650.828	17.46
650.95	7.46
651.072	24.46
651.194	-2.54
651.316	5.46
651.438	1.46
651.56	-11.54
651.683	5.46
651.805	13.46
651.927	9.46
652.049	-1.54
652.171	12.46
652.293	11.46
652.415	-13.54
652.537	-19.54
652.659	8.46
652.781	18.46
652.903	25.46
653.026	17.46
653.148	0.46
653.27	14.46
653.392	24.46
653.514	0.46
653.636	10.46
653.758	5.46
653.88	0.46
654.002	10.46
654.124	-4.54
654.247	-6.54
654.369	19.46
654.491	-2.54
654.613	16.46
654.735	5.46
654.857	25.46
654.979	-1.54
655.101	19.46
655.223	42.46
655.345	6.46
655.468	35.46
655.59	2.46
655.712	14.46
655.834	19.46
655.956	6.46
656.078	16.46
656.2	18.46
656.322	9.46
656.444	-10.54
656.566	12.46
656.689	14.46
656.811	5.46
656.933	16.46
657.055	-21.54
657.177	-10.54
657.299	9.46
657.421	-3.54
657.543	-4.54
657.665	-7.54
657.787	4.46
657.91	3.46
658.032	4.46
658.154	-6.54
658.276	11.46
658.398	0.46
658.52	18.46
658.642	11.46
658.764	8.46
658.886	-23.54
659.009	20.46
659.131	23.46
659.253	14.46
659.375	3.46
659.497	6.46
659.619	24.46
659.741	4.46
659.863	13.46
659.985	-5.54
660.108	24.46
660.23	25.46
660.352	24.46
660.474	13.46
660.596	10.46
660.718	27.46
660.84	17.46
660.962	6.46
661.084	9.46
661.207	20.46
661.329	15.46
661.451	6.46
661.573	7.46
661.695	21.46
661.817	18.46
661.939	13.46
662.061	26.46
662.184	5.46
662.306	1.46
662.428	0.46
662.55	14.46
662.672	7.46
662.794	11.46
662.916	5.46
663.038	4.46
663.161	22.46
663.283	21.46
663.405	13.46
663.527	7.46
663.649	10.46
663.771	-0.54
663.893	-5.54
664.015	19.46
664.138	6.46
664.26	25.46
664.382	14.46
664.504	10.46
664.626	2.46
664.748	13.46
664.87	-17.54
664.992	3.46
665.115	7.46
665.237	21.46
665.359	10.46
665.481	27.46
665.603	18.46
665.725	4.46
665.847	-21.54
665.97	-0.54
666.092	-2.54
666.214	7.46
666.336	2.46
666.458	12.46
666.58	14.46
666.702	1.46
666.825	-6.54
666.947	-3.54
667.069	-13.54
667.191	-3.54
667.313	-1.54
667.435	-11.54
667.557	-9.54
667.68	-8.54
667.802	-3.54
667.924	1.46
668.046	7.46
668.168	11.46
668.29	27.46
668.412	22.46
668.535	21.46
668.657	9.46
668.779	4.46
668.901	9.46
669.023	12.46
669.145	-15.54
669.267	10.46
669.39	-1.54
669.512	-5.54
669.634	15.46
669.756	2.46
669.878	5.46
670	7.46
670.123	5.46
670.245	22.46
670.367	27.46
670.489	27.46
670.611	7.46
670.733	-7.54
670.856	3.46
670.978	1.46
671.1	2.46
671.222	13.46
671.344	20.46
671.466	-5.54
671.589	-8.54
671.711	-3.54
671.833	0.46
671.955	-3.54
672.077	-2.54
672.199	46.46
672.322	16.46
672.444	9.46
672.566	13.46
672.688	-3.54
672.81	-3.54
672.932	3.46
673.055	-5.54
673.177	1.46
673.299	15.46
673.421	8.46
673.543	2.46
673.665	20.46
673.788	22.46
673.91	13.46
674.032	4.46
674.154	5.46
674.276	-1.54
674.399	-14.54
674.521	-6.54
674.643	3.46
674.765	-16.54
674.887	-13.54
675.009	8.46
675.132	1.46
675.254	-10.54
675.376	-14.54
675.498	13.46
675.62	13.46
675.743	1.46
675.865	11.46
675.987	-3.54
676.109	-5.54
676.231	8.46
676.354	14.46
676.476	10.46
676.598	16.46
676.72	4.46
676.842	-6.54
676.965	12.46
677.087	16.46
677.209	18.46
677.331	24.46
677.453	9.46
677.576	-12.54
677.698	-3.54
677.82	14.46
677.942	2.46
678.064	7.46
678.187	3.46
678.309	0.46
678.431	14.46
678.553	2.46
678.675	18.46
678.798	24.46
678.92	5.46
679.042	6.46
679.164	10.46
679.286	10.46
679.409	-7.54
679.531	-21.54
679.653	2.46
679.775	-4.54
679.898	-2.54
680.02	-6.54
680.142	4.46
680.264	22.46
680.386	-7.54
680.509	16.46
680.631	8.46
680.753	-5.54
680.875	-3.54
680.998	-5.54
681.12	18.46
681.242	13.46
681.364	-17.54
681.486	2.46
681.609	-3.54
681.731	-3.54
681.853	-2.54
681.975	-7.54
682.098	7.46
682.22	19.46
682.342	6.46
682.464	5.46
682.587	3.46
682.709	2.46
682.831	1.46
682.953	1.46
683.076	-5.54
683.198	5.46
683.32	13.46
683.442	20.46
683.565	21.46
683.687	-6.54
683.809	5.46
683.931	-7.54
684.054	4.46
684.176	6.46
684.298	-9.54
684.42	1.46
684.543	5.46
684.665	18.46
684.787	2.46
684.909	-1.54
685.032	13.46
685.154	-15.54
685.276	-3.54
685.398	-1.54
685.521	8.46
685.643	16.46
685.765	16.46
685.887	14.46
686.01	5.46
686.132	-4.54
686.254	9.46
686.377	1.46
686.499	6.46
686.621	9.46
686.743	17.46
686.866	8.46
686.988	41.46
687.11	10.46
687.232	-9.54
687.355	-19.54
687.477	-7.54
687.599	-2.54
687.722	9.46
687.844	2.46
687.966	5.46
688.088	-5.54
688.211	41.46
688.333	-2.54
688.455	-1.54
688.578	9.46
688.7	28.46
688.822	9.46
688.944	-2.54
689.067	39.46
689.189	12.46
689.311	-22.54
689.434	6.46
689.556	8.46
689.678	6.46
689.801	5.46
689.923	8.46
690.045	24.46
690.167	19.46
690.29	20.46
690.412	3.46
690.534	0.46
690.657	12.46
690.779	0.46
690.901	10.46
691.024	0.46
691.146	-2.54
691.268	-3.54
691.391	8.46
691.513	18.46
691.635	25.46
691.758	24.46
691.88	30.46
692.002	5.46
692.125	7.46
692.247	7.46
692.369	4.46
692.492	-2.54
692.614	18.46
692.736	6.46
692.859	16.46
692.981	0.46
693.103	-4.54
693.226	8.46
693.348	21.46
693.47	3.46
693.593	17.46
693.715	20.46
693.837	24.46
693.96	2.46
694.082	0.46
694.204	14.46
694.327	3.46
694.449	-5.54
694.571	-10.54
694.694	0.46
694.816	7.46
694.938	-10.54
695.061	2.46
695.183	13.46
695.305	8.46
695.428	4.46
695.55	-5.54
695.672	-9.54
695.795	25.46
695.917	10.46
696.04	4.46
696.162	4.46
696.284	2.46
696.407	17.46
696.529	-11.54
696.651	21.46
696.774	5.46
696.896	38.46
697.019	26.46
697.141	-0.54
697.263	8.46
697.386	-8.54
697.508	-4.54
697.63	-3.54
697.753	18.46
697.875	-1.54
697.998	-11.54
698.12	5.46
698.242	2.46
698.365	-2.54
698.487	5.46
698.61	-1.54
698.732	10.46
698.854	14.46
698.977	12.46
699.099	15.46
699.221	16.46
699.344	13.46
699.466	26.46
699.589	6.46
699.711	3.46
699.834	21.46
699.956	5.46
700.078	-7.54
700.201	-3.54
700.323	12.46
700.446	17.46
700.568	-2.54
700.69	9.46
700.813	-3.54
700.935	5.46
701.058	16.46
701.18	2.46
701.302	-1.54
701.425	10.46
701.547	9.46
701.67	1.46
701.792	0.46
701.915	-14.54
702.037	-2.54
702.159	7.46
702.282	12.46
702.404	13.46
702.527	16.46
702.649	12.46
702.772	-10.54
702.894	-12.54
703.017	5.46
703.139	1.46
703.261	26.46
703.384	19.46
703.506	-10.54
703.629	3.46
703.751	8.46
703.874	-3.54
703.996	-6.54
704.119	-27.54
704.241	9.46
704.364	-2.54
704.486	16.46
704.608	11.46
704.731	9.46
704.853	4.46
704.976	-8.54
705.098	8.46
705.221	9.46
705.343	12.46
705.466	23.46
705.588	32.46
705.711	3.46
705.833	22.46
705.956	8.46
706.078	10.46
706.201	9.46
706.323	12.46
706.446	-1.54
