Data from LowRes_mercury_15_20_11_07_2024_HR4C61881__88__15-23-41-070.txt Node

Date: Thu Nov 07 15:23:41 EST 2024
User: crc00042
Spectrometer: HR4C6188
Trigger mode: 4
Integration Time (sec): 1.000000E-1
Scans to average: 1
Electric dark correction enabled: true
Nonlinearity correction enabled: false
Boxcar width: 0
XAxis mode: Wavelengths
Number of Pixels in Spectrum: 3648
>>>>>Begin Spectral Data<<<<<
245.66	-49.69
245.797	-49.69
245.934	-49.69
246.071	-87.69
246.208	13.31
246.344	17.31
246.481	-1.69
246.618	-14.69
246.755	3.31
246.892	-11.69
247.029	-27.69
247.165	-15.69
247.302	8.31
247.439	15.31
247.576	11.31
247.713	-0.69
247.849	21.31
247.986	-4.69
248.123	12.31
248.26	19.31
248.396	24.31
248.533	8.31
248.67	10.31
248.806	-1.69
248.943	-5.69
249.08	0.31
249.216	29.31
249.353	-13.69
249.49	-7.69
249.626	25.31
249.763	8.31
249.9	-5.69
250.036	-0.69
250.173	1.31
250.309	3.31
250.446	14.31
250.582	-7.69
250.719	-2.69
250.856	-5.69
250.992	7.31
251.129	8.31
251.265	-13.69
251.402	-7.69
251.538	4.31
251.675	-1.69
251.811	29.31
251.948	16.31
252.084	8.31
252.221	18.31
252.357	-9.69
252.493	28.31
252.63	-0.69
252.766	37.31
252.903	6.31
253.039	2.31
253.175	-4.69
253.312	12.31
253.448	-4.69
253.585	-25.69
253.721	16.31
253.857	0.31
253.994	4.31
254.13	16.31
254.266	1.31
254.403	0.31
254.539	12.31
254.675	-1.69
254.811	4.31
254.948	-9.69
255.084	7.31
255.22	-24.69
255.356	4.31
255.493	6.31
255.629	13.31
255.765	17.31
255.901	22.31
256.037	23.31
256.174	4.31
256.31	-23.69
256.446	-3.69
256.582	-3.69
256.718	31.31
256.854	11.31
256.991	1.31
257.127	12.31
257.263	10.31
257.399	-0.69
257.535	-17.69
257.671	-7.69
257.807	-2.69
257.943	-1.69
258.079	1.31
258.215	13.31
258.351	35.31
258.487	17.31
258.623	26.31
258.759	12.31
258.895	7.31
259.031	0.31
259.167	5.31
259.303	34.31
259.439	8.31
259.575	-2.69
259.711	-2.69
259.847	-15.69
259.983	19.31
260.119	14.31
260.255	-5.69
260.391	19.31
260.527	17.31
260.663	38.31
260.799	-0.69
260.934	10.31
261.07	-0.69
261.206	-6.69
261.342	-13.69
261.478	15.31
261.614	14.31
261.749	-4.69
261.885	3.31
262.021	-10.69
262.157	4.31
262.293	0.31
262.428	-8.69
262.564	-8.69
262.7	17.31
262.836	16.31
262.971	15.31
263.107	4.31
263.243	17.31
263.378	10.31
263.514	14.31
263.65	3.31
263.785	-4.69
263.921	-6.69
264.057	1.31
264.192	15.31
264.328	24.31
264.464	-16.69
264.599	26.31
264.735	24.31
264.871	4.31
265.006	19.31
265.142	10.31
265.277	10.31
265.413	8.31
265.548	20.31
265.684	25.31
265.819	-7.69
265.955	-16.69
266.091	-17.69
266.226	-12.69
266.362	1.31
266.497	27.31
266.633	-3.69
266.768	-5.69
266.903	24.31
267.039	11.31
267.174	9.31
267.31	-4.69
267.445	14.31
267.581	2.31
267.716	17.31
267.851	17.31
267.987	12.31
268.122	22.31
268.258	14.31
268.393	5.31
268.528	18.31
268.664	1.31
268.799	-28.69
268.934	22.31
269.07	18.31
269.205	23.31
269.34	13.31
269.476	1.31
269.611	-8.69
269.746	18.31
269.881	11.31
270.017	10.31
270.152	7.31
270.287	-4.69
270.422	2.31
270.558	-7.69
270.693	-0.69
270.828	-0.69
270.963	9.31
271.098	13.31
271.234	11.31
271.369	16.31
271.504	-6.69
271.639	-9.69
271.774	-9.69
271.909	15.31
272.045	-14.69
272.18	-18.69
272.315	-5.69
272.45	6.31
272.585	-22.69
272.72	-4.69
272.855	17.31
272.99	19.31
273.125	-6.69
273.26	-17.69
273.395	-5.69
273.53	2.31
273.665	8.31
273.8	-6.69
273.935	-5.69
274.07	9.31
274.205	3.31
274.34	1.31
274.475	8.31
274.61	11.31
274.745	7.31
274.88	17.31
275.015	5.31
275.15	2.31
275.285	0.31
275.42	9.31
275.555	12.31
275.69	15.31
275.825	9.31
275.959	17.31
276.094	2.31
276.229	-6.69
276.364	4.31
276.499	-0.69
276.634	-13.69
276.768	16.31
276.903	9.31
277.038	28.31
277.173	20.31
277.308	-8.69
277.442	4.31
277.577	-7.69
277.712	3.31
277.847	-4.69
277.981	3.31
278.116	-6.69
278.251	5.31
278.386	15.31
278.52	11.31
278.655	2.31
278.79	18.31
278.924	11.31
279.059	8.31
279.194	-1.69
279.328	32.31
279.463	7.31
279.598	27.31
279.732	19.31
279.867	24.31
280.001	19.31
280.136	-16.69
280.271	6.31
280.405	2.31
280.54	1.31
280.674	11.31
280.809	21.31
280.943	19.31
281.078	14.31
281.213	24.31
281.347	27.31
281.482	6.31
281.616	-1.69
281.751	-2.69
281.885	-13.69
282.02	0.31
282.154	8.31
282.288	-14.69
282.423	1.31
282.557	-22.69
282.692	7.31
282.826	1.31
282.961	18.31
283.095	-7.69
283.229	-21.69
283.364	-2.69
283.498	8.31
283.633	5.31
283.767	2.31
283.901	13.31
284.036	13.31
284.17	-3.69
284.304	5.31
284.439	32.31
284.573	-0.69
284.707	15.31
284.842	-1.69
284.976	18.31
285.11	3.31
285.244	10.31
285.379	38.31
285.513	12.31
285.647	14.31
285.781	33.31
285.916	24.31
286.05	15.31
286.184	31.31
286.318	21.31
286.453	-0.69
286.587	-9.69
286.721	0.31
286.855	11.31
286.989	17.31
287.123	2.31
287.258	6.31
287.392	12.31
287.526	13.31
287.66	7.31
287.794	9.31
287.928	-10.69
288.062	22.31
288.196	0.31
288.33	9.31
288.464	31.31
288.598	32.31
288.733	4.31
288.867	21.31
289.001	9.31
289.135	22.31
289.269	17.31
289.403	-3.69
289.537	9.31
289.671	18.31
289.805	-12.69
289.939	-2.69
290.073	10.31
290.207	11.31
290.34	-0.69
290.474	22.31
290.608	13.31
290.742	-9.69
290.876	-2.69
291.01	22.31
291.144	24.31
291.278	28.31
291.412	-18.69
291.546	-5.69
291.679	5.31
291.813	11.31
291.947	-4.69
292.081	10.31
292.215	11.31
292.349	3.31
292.482	9.31
292.616	4.31
292.75	8.31
292.884	15.31
293.018	7.31
293.151	-5.69
293.285	5.31
293.419	-9.69
293.553	-2.69
293.686	3.31
293.82	19.31
293.954	31.31
294.088	34.31
294.221	6.31
294.355	18.31
294.489	-0.69
294.622	7.31
294.756	5.31
294.89	8.31
295.023	6.31
295.157	8.31
295.291	16.31
295.424	8.31
295.558	7.31
295.691	0.31
295.825	11.31
295.959	-3.69
296.092	15.31
296.226	0.31
296.359	0.31
296.493	10.31
296.627	0.31
296.76	-5.69
296.894	0.31
297.027	10.31
297.161	25.31
297.294	-12.69
297.428	22.31
297.561	25.31
297.695	4.31
297.828	-0.69
297.962	-5.69
298.095	-7.69
298.229	-11.69
298.362	1.31
298.495	-2.69
298.629	-17.69
298.762	2.31
298.896	-7.69
299.029	-18.69
299.162	1.31
299.296	11.31
299.429	3.31
299.563	2.31
299.696	8.31
299.829	-2.69
299.963	-0.69
300.096	11.31
300.229	11.31
300.363	10.31
300.496	8.31
300.629	-3.69
300.763	-3.69
300.896	14.31
301.029	16.31
301.162	11.31
301.296	-5.69
301.429	0.31
301.562	3.31
301.695	13.31
301.829	1.31
301.962	19.31
302.095	7.31
302.228	-21.69
302.362	-5.69
302.495	-13.69
302.628	2.31
302.761	10.31
302.894	13.31
303.027	6.31
303.161	5.31
303.294	-13.69
303.427	18.31
303.56	17.31
303.693	-2.69
303.826	10.31
303.959	-2.69
304.092	-8.69
304.225	1.31
304.359	10.31
304.492	18.31
304.625	-6.69
304.758	29.31
304.891	15.31
305.024	9.31
305.157	-1.69
305.29	0.31
305.423	13.31
305.556	24.31
305.689	33.31
305.822	9.31
305.955	12.31
306.088	13.31
306.221	-1.69
306.354	-14.69
306.487	-3.69
306.62	-10.69
306.752	-2.69
306.885	18.31
307.018	2.31
307.151	6.31
307.284	8.31
307.417	0.31
307.55	8.31
307.683	-9.69
307.816	2.31
307.948	20.31
308.081	14.31
308.214	11.31
308.347	30.31
308.48	-7.69
308.613	-4.69
308.745	23.31
308.878	-7.69
309.011	1.31
309.144	-6.69
309.277	12.31
309.409	10.31
309.542	10.31
309.675	11.31
309.808	0.31
309.94	10.31
310.073	-1.69
310.206	-5.69
310.339	8.31
310.471	-5.69
310.604	15.31
310.737	-4.69
310.869	3.31
311.002	14.31
311.135	7.31
311.267	-20.69
311.4	10.31
311.533	15.31
311.665	-8.69
311.798	14.31
311.93	20.31
312.063	45.31
312.196	40.31
312.328	82.31
312.461	52.31
312.593	32.31
312.726	50.31
312.859	94.31
312.991	155.31
313.124	39.31
313.256	42.31
313.389	22.31
313.521	-2.69
313.654	15.31
313.786	-13.69
313.919	-3.69
314.051	18.31
314.184	12.31
314.316	19.31
314.449	-15.69
314.581	1.31
314.714	4.31
314.846	6.31
314.978	-20.69
315.111	-5.69
315.243	3.31
315.376	11.31
315.508	19.31
315.641	7.31
315.773	41.31
315.905	-11.69
316.038	1.31
316.17	1.31
316.302	26.31
316.435	19.31
316.567	-0.69
316.699	20.31
316.832	-8.69
316.964	-21.69
317.096	19.31
317.229	1.31
317.361	-24.69
317.493	3.31
317.625	6.31
317.758	5.31
317.89	14.31
318.022	10.31
318.155	11.31
318.287	0.31
318.419	16.31
318.551	9.31
318.683	17.31
318.816	-0.69
318.948	11.31
319.08	-0.69
319.212	27.31
319.344	3.31
319.477	0.31
319.609	2.31
319.741	13.31
319.873	-3.69
320.005	10.31
320.137	2.31
320.269	0.31
320.401	2.31
320.534	-0.69
320.666	-1.69
320.798	-0.69
320.93	13.31
321.062	6.31
321.194	-7.69
321.326	5.31
321.458	11.31
321.59	5.31
321.722	-1.69
321.854	-2.69
321.986	-6.69
322.118	5.31
322.25	1.31
322.382	5.31
322.514	-2.69
322.646	-0.69
322.778	14.31
322.91	0.31
323.042	8.31
323.174	22.31
323.306	-7.69
323.438	-17.69
323.57	1.31
323.702	7.31
323.834	-4.69
323.966	-0.69
324.097	-7.69
324.229	8.31
324.361	8.31
324.493	2.31
324.625	-6.69
324.757	9.31
324.889	14.31
325.021	-0.69
325.152	20.31
325.284	28.31
325.416	-5.69
325.548	10.31
325.68	10.31
325.811	34.31
325.943	31.31
326.075	5.31
326.207	26.31
326.339	27.31
326.47	-4.69
326.602	4.31
326.734	22.31
326.866	9.31
326.997	-7.69
327.129	-18.69
327.261	7.31
327.392	5.31
327.524	-1.69
327.656	-1.69
327.787	-6.69
327.919	6.31
328.051	-12.69
328.182	14.31
328.314	21.31
328.446	11.31
328.577	5.31
328.709	7.31
328.841	-2.69
328.972	-3.69
329.104	-4.69
329.235	17.31
329.367	14.31
329.499	5.31
329.63	1.31
329.762	-1.69
329.893	13.31
330.025	8.31
330.156	-5.69
330.288	5.31
330.419	5.31
330.551	4.31
330.683	0.31
330.814	15.31
330.946	11.31
331.077	-15.69
331.208	-5.69
331.34	4.31
331.471	-0.69
331.603	8.31
331.734	4.31
331.866	6.31
331.997	15.31
332.129	3.31
332.26	10.31
332.392	33.31
332.523	14.31
332.654	5.31
332.786	6.31
332.917	24.31
333.048	15.31
333.18	18.31
333.311	-10.69
333.443	17.31
333.574	16.31
333.705	41.31
333.837	34.31
333.968	120.31
334.099	236.31
334.231	218.31
334.362	50.31
334.493	22.31
334.624	30.31
334.756	10.31
334.887	-0.69
335.018	4.31
335.15	18.31
335.281	10.31
335.412	15.31
335.543	13.31
335.675	19.31
335.806	0.31
335.937	-6.69
336.068	24.31
336.199	46.31
336.331	9.31
336.462	14.31
336.593	23.31
336.724	2.31
336.855	-7.69
336.986	22.31
337.118	10.31
337.249	21.31
337.38	22.31
337.511	-0.69
337.642	11.31
337.773	11.31
337.904	30.31
338.035	2.31
338.166	17.31
338.298	24.31
338.429	-11.69
338.56	18.31
338.691	25.31
338.822	12.31
338.953	24.31
339.084	27.31
339.215	28.31
339.346	7.31
339.477	16.31
339.608	12.31
339.739	24.31
339.87	15.31
340.001	3.31
340.132	43.31
340.263	16.31
340.394	38.31
340.525	33.31
340.656	13.31
340.787	-3.69
340.918	31.31
341.049	24.31
341.179	21.31
341.31	18.31
341.441	14.31
341.572	20.31
341.703	0.31
341.834	0.31
341.965	27.31
342.096	18.31
342.227	28.31
342.357	16.31
342.488	10.31
342.619	21.31
342.75	28.31
342.881	15.31
343.012	42.31
343.142	27.31
343.273	9.31
343.404	26.31
343.535	42.31
343.666	38.31
343.796	46.31
343.927	33.31
344.058	23.31
344.189	19.31
344.319	22.31
344.45	31.31
344.581	29.31
344.712	6.31
344.842	30.31
344.973	9.31
345.104	24.31
345.234	21.31
345.365	12.31
345.496	26.31
345.626	17.31
345.757	31.31
345.888	17.31
346.018	61.31
346.149	25.31
346.28	29.31
346.41	7.31
346.541	23.31
346.672	25.31
346.802	40.31
346.933	28.31
347.063	20.31
347.194	23.31
347.325	31.31
347.455	44.31
347.586	26.31
347.716	11.31
347.847	39.31
347.977	52.31
348.108	58.31
348.238	58.31
348.369	52.31
348.499	51.31
348.63	69.31
348.76	44.31
348.891	43.31
349.021	43.31
349.152	53.31
349.282	56.31
349.413	51.31
349.543	59.31
349.674	59.31
349.804	43.31
349.935	33.31
350.065	24.31
350.196	29.31
350.326	34.31
350.456	16.31
350.587	25.31
350.717	27.31
350.848	31.31
350.978	32.31
351.108	10.31
351.239	22.31
351.369	20.31
351.499	28.31
351.63	33.31
351.76	19.31
351.89	23.31
352.021	31.31
352.151	13.31
352.281	29.31
352.412	36.31
352.542	35.31
352.672	24.31
352.803	14.31
352.933	30.31
353.063	19.31
353.193	10.31
353.324	40.31
353.454	36.31
353.584	55.31
353.714	36.31
353.845	24.31
353.975	23.31
354.105	26.31
354.235	41.31
354.365	33.31
354.496	22.31
354.626	29.31
354.756	27.31
354.886	27.31
355.016	20.31
355.146	10.31
355.277	30.31
355.407	10.31
355.537	32.31
355.667	41.31
355.797	22.31
355.927	40.31
356.057	30.31
356.187	9.31
356.318	16.31
356.448	27.31
356.578	20.31
356.708	32.31
356.838	24.31
356.968	17.31
357.098	36.31
357.228	39.31
357.358	40.31
357.488	33.31
357.618	71.31
357.748	51.31
357.878	28.31
358.008	20.31
358.138	17.31
358.268	30.31
358.398	29.31
358.528	18.31
358.658	26.31
358.788	30.31
358.918	49.31
359.048	37.31
359.178	30.31
359.308	31.31
359.438	52.31
359.568	27.31
359.698	44.31
359.827	19.31
359.957	33.31
360.087	37.31
360.217	30.31
360.347	35.31
360.477	35.31
360.607	29.31
360.737	51.31
360.866	23.31
360.996	28.31
361.126	39.31
361.256	63.31
361.386	39.31
361.516	42.31
361.645	22.31
361.775	36.31
361.905	14.31
362.035	42.31
362.165	38.31
362.294	57.31
362.424	54.31
362.554	54.31
362.684	35.31
362.813	36.31
362.943	58.31
363.073	61.31
363.203	64.31
363.332	74.31
363.462	67.31
363.592	79.31
363.721	127.31
363.851	148.31
363.981	201.31
364.111	247.31
364.24	315.31
364.37	480.31
364.5	843.31
364.629	1821.31
364.759	3835.31
364.888	6297.31
365.018	9372.31
365.148	14802.31
365.277	12876.31
365.407	4745.31
365.537	3112.31
365.666	4072.31
365.796	1866.31
365.925	818.31
366.055	747.31
366.184	1055.31
366.314	1409.31
366.444	2479.31
366.573	2090.31
366.703	666.31
366.832	223.31
366.962	109.31
367.091	94.31
367.221	88.31
367.35	64.31
367.48	90.31
367.609	49.31
367.739	55.31
367.868	36.31
367.998	35.31
368.127	59.31
368.257	72.31
368.386	56.31
368.516	60.31
368.645	45.31
368.775	65.31
368.904	41.31
369.033	31.31
369.163	14.31
369.292	39.31
369.422	37.31
369.551	54.31
369.68	44.31
369.81	44.31
369.939	21.31
370.069	67.31
370.198	42.31
370.327	23.31
370.457	19.31
370.586	47.31
370.715	37.31
370.845	36.31
370.974	47.31
371.103	45.31
371.233	46.31
371.362	39.31
371.491	22.31
371.621	62.31
371.75	54.31
371.879	34.31
372.008	45.31
372.138	45.31
372.267	60.31
372.396	72.31
372.525	38.31
372.655	32.31
372.784	26.31
372.913	16.31
373.042	31.31
373.172	37.31
373.301	22.31
373.43	-5.69
373.559	20.31
373.688	9.31
373.818	33.31
373.947	43.31
374.076	19.31
374.205	25.31
374.334	12.31
374.463	12.31
374.593	34.31
374.722	25.31
374.851	24.31
374.98	11.31
375.109	24.31
375.238	38.31
375.367	47.31
375.496	17.31
375.625	28.31
375.755	31.31
375.884	27.31
376.013	24.31
376.142	0.31
376.271	22.31
376.4	30.31
376.529	26.31
376.658	32.31
376.787	18.31
376.916	15.31
377.045	17.31
377.174	10.31
377.303	23.31
377.432	43.31
377.561	44.31
377.69	4.31
377.819	41.31
377.948	36.31
378.077	2.31
378.206	18.31
378.335	18.31
378.464	11.31
378.593	22.31
378.722	8.31
378.851	21.31
378.98	36.31
379.108	8.31
379.237	25.31
379.366	24.31
379.495	25.31
379.624	36.31
379.753	14.31
379.882	20.31
380.011	8.31
380.14	8.31
380.268	17.31
380.397	10.31
380.526	25.31
380.655	-8.69
380.784	0.31
380.913	17.31
381.041	14.31
381.17	4.31
381.299	12.31
381.428	7.31
381.557	33.31
381.685	31.31
381.814	23.31
381.943	17.31
382.072	7.31
382.2	7.31
382.329	33.31
382.458	10.31
382.587	22.31
382.715	30.31
382.844	16.31
382.973	20.31
383.102	24.31
383.23	16.31
383.359	12.31
383.488	12.31
383.616	8.31
383.745	9.31
383.874	3.31
384.003	17.31
384.131	4.31
384.26	18.31
384.389	32.31
384.517	2.31
384.646	19.31
384.774	11.31
384.903	35.31
385.032	31.31
385.16	34.31
385.289	26.31
385.418	23.31
385.546	20.31
385.675	43.31
385.803	20.31
385.932	15.31
386.06	11.31
386.189	18.31
386.318	10.31
386.446	3.31
386.575	20.31
386.703	40.31
386.832	19.31
386.96	6.31
387.089	26.31
387.217	19.31
387.346	9.31
387.474	28.31
387.603	25.31
387.731	23.31
387.86	46.31
387.988	44.31
388.117	43.31
388.245	19.31
388.374	26.31
388.502	43.31
388.631	2.31
388.759	3.31
388.888	21.31
389.016	6.31
389.144	8.31
389.273	8.31
389.401	21.31
389.53	16.31
389.658	28.31
389.786	27.31
389.915	27.31
390.043	24.31
390.172	18.31
390.3	50.31
390.428	40.31
390.557	29.31
390.685	50.31
390.813	63.31
390.942	32.31
391.07	18.31
391.198	29.31
391.327	12.31
391.455	11.31
391.583	37.31
391.712	25.31
391.84	15.31
391.968	18.31
392.096	26.31
392.225	11.31
392.353	27.31
392.481	28.31
392.609	43.31
392.738	37.31
392.866	38.31
392.994	-1.69
393.122	32.31
393.251	11.31
393.379	24.31
393.507	12.31
393.635	19.31
393.764	26.31
393.892	32.31
394.02	21.31
394.148	22.31
394.276	17.31
394.404	56.31
394.533	25.31
394.661	31.31
394.789	30.31
394.917	39.31
395.045	25.31
395.173	15.31
395.302	29.31
395.43	28.31
395.558	30.31
395.686	32.31
395.814	40.31
395.942	31.31
396.07	17.31
396.198	30.31
396.326	30.31
396.454	41.31
396.582	36.31
396.711	41.31
396.839	51.31
396.967	33.31
397.095	27.31
397.223	49.31
397.351	59.31
397.479	57.31
397.607	36.31
397.735	66.31
397.863	51.31
397.991	35.31
398.119	36.31
398.247	40.31
398.375	42.31
398.503	55.31
398.631	53.31
398.759	56.31
398.887	54.31
399.015	44.31
399.143	37.31
399.271	62.31
399.399	59.31
399.526	78.31
399.654	85.31
399.782	55.31
399.91	94.31
400.038	108.31
400.166	96.31
400.294	96.31
400.422	81.31
400.55	111.31
400.678	109.31
400.805	111.31
400.933	109.31
401.061	109.31
401.189	125.31
401.317	127.31
401.445	125.31
401.573	72.31
401.7	50.31
401.828	66.31
401.956	88.31
402.084	54.31
402.212	48.31
402.34	30.31
402.467	37.31
402.595	37.31
402.723	40.31
402.851	64.31
402.978	47.31
403.106	75.31
403.234	89.31
403.362	124.31
403.489	114.31
403.617	161.31
403.745	204.31
403.873	282.31
404	572.31
404.128	1467.31
404.256	3932.31
404.384	5111.31
404.511	5467.31
404.639	7206.31
404.767	11498.31
404.894	14642.31
405.022	4923.31
405.15	1307.31
405.277	442.31
405.405	247.31
405.533	141.31
405.66	108.31
405.788	69.31
405.916	68.31
406.043	40.31
406.171	60.31
406.299	59.31
406.426	50.31
406.554	47.31
406.681	62.31
406.809	42.31
406.937	52.31
407.064	74.31
407.192	120.31
407.319	314.31
407.447	506.31
407.574	539.31
407.702	625.31
407.83	831.31
407.957	1575.31
408.085	923.31
408.212	299.31
408.34	97.31
408.467	61.31
408.595	35.31
408.722	51.31
408.85	36.31
408.977	23.31
409.105	20.31
409.232	42.31
409.36	38.31
409.487	24.31
409.615	23.31
409.742	25.31
409.87	44.31
409.997	47.31
410.125	47.31
410.252	44.31
410.379	18.31
410.507	30.31
410.634	23.31
410.762	31.31
410.889	45.31
411.017	33.31
411.144	51.31
411.271	31.31
411.399	42.31
411.526	39.31
411.653	44.31
411.781	52.31
411.908	46.31
412.036	31.31
412.163	40.31
412.29	41.31
412.418	22.31
412.545	49.31
412.672	24.31
412.8	53.31
412.927	40.31
413.054	50.31
413.182	25.31
413.309	26.31
413.436	10.31
413.564	23.31
413.691	29.31
413.818	43.31
413.945	0.31
414.073	12.31
414.2	32.31
414.327	29.31
414.454	45.31
414.582	36.31
414.709	15.31
414.836	24.31
414.963	29.31
415.091	21.31
415.218	13.31
415.345	47.31
415.472	32.31
415.6	39.31
415.727	21.31
415.854	29.31
415.981	17.31
416.108	15.31
416.236	27.31
416.363	33.31
416.49	34.31
416.617	35.31
416.744	49.31
416.871	56.31
416.998	15.31
417.126	32.31
417.253	39.31
417.38	28.31
417.507	34.31
417.634	36.31
417.761	37.31
417.888	36.31
418.015	30.31
418.143	38.31
418.27	46.31
418.397	28.31
418.524	23.31
418.651	16.31
418.778	47.31
418.905	51.31
419.032	46.31
419.159	46.31
419.286	50.31
419.413	42.31
419.54	66.31
419.667	28.31
419.794	36.31
419.921	36.31
420.048	52.31
420.175	52.31
420.302	54.31
420.429	41.31
420.556	52.31
420.683	44.31
420.81	61.31
420.937	63.31
421.064	89.31
421.191	55.31
421.318	76.31
421.445	91.31
421.572	61.31
421.699	40.31
421.826	42.31
421.953	39.31
422.08	27.31
422.207	23.31
422.334	17.31
422.461	38.31
422.588	22.31
422.714	31.31
422.841	39.31
422.968	31.31
423.095	4.31
423.222	28.31
423.349	30.31
423.476	59.31
423.603	20.31
423.729	20.31
423.856	37.31
423.983	40.31
424.11	18.31
424.237	33.31
424.364	46.31
424.491	21.31
424.617	6.31
424.744	17.31
424.871	38.31
424.998	16.31
425.125	7.31
425.251	29.31
425.378	28.31
425.505	36.31
425.632	22.31
425.758	10.31
425.885	17.31
426.012	31.31
426.139	29.31
426.266	12.31
426.392	24.31
426.519	34.31
426.646	9.31
426.772	23.31
426.899	15.31
427.026	27.31
427.153	33.31
427.279	31.31
427.406	30.31
427.533	31.31
427.659	17.31
427.786	14.31
427.913	42.31
428.039	27.31
428.166	7.31
428.293	14.31
428.419	50.31
428.546	20.31
428.673	2.31
428.799	12.31
428.926	14.31
429.053	32.31
429.179	47.31
429.306	31.31
429.433	44.31
429.559	39.31
429.686	2.31
429.812	27.31
429.939	20.31
430.066	28.31
430.192	29.31
430.319	41.31
430.445	29.31
430.572	47.31
430.699	15.31
430.825	17.31
430.952	29.31
431.078	19.31
431.205	34.31
431.331	35.31
431.458	41.31
431.584	26.31
431.711	21.31
431.837	32.31
431.964	33.31
432.09	44.31
432.217	23.31
432.343	35.31
432.47	58.31
432.596	43.31
432.723	34.31
432.849	22.31
432.976	29.31
433.102	25.31
433.229	43.31
433.355	75.31
433.482	88.31
433.608	101.31
433.735	89.31
433.861	108.31
433.987	151.31
434.114	178.31
434.24	190.31
434.367	235.31
434.493	225.31
434.62	283.31
434.746	391.31
434.872	626.31
434.999	844.31
435.125	1728.31
435.252	5553.31
435.378	13399.31
435.504	15199.31
435.631	15406.31
435.757	15685.31
435.883	15685.31
436.01	15685.31
436.136	15685.31
436.262	15685.31
436.389	3465.31
436.515	2146.31
436.641	814.31
436.768	617.31
436.894	392.31
437.02	410.31
437.147	288.31
437.273	302.31
437.399	225.31
437.526	261.31
437.652	179.31
437.778	199.31
437.904	147.31
438.031	161.31
438.157	138.31
438.283	154.31
438.409	120.31
438.536	124.31
438.662	130.31
438.788	123.31
438.914	101.31
439.041	126.31
439.167	114.31
439.293	104.31
439.419	92.31
439.546	103.31
439.672	80.31
439.798	93.31
439.924	76.31
440.05	106.31
440.177	93.31
440.303	73.31
440.429	65.31
440.555	84.31
440.681	76.31
440.807	80.31
440.934	67.31
441.06	77.31
441.186	45.31
441.312	54.31
441.438	69.31
441.564	65.31
441.69	64.31
441.816	71.31
441.943	41.31
442.069	50.31
442.195	40.31
442.321	67.31
442.447	41.31
442.573	51.31
442.699	45.31
442.825	48.31
442.951	49.31
443.077	56.31
443.203	68.31
443.33	31.31
443.456	43.31
443.582	66.31
443.708	53.31
443.834	70.31
443.96	66.31
444.086	58.31
444.212	55.31
444.338	56.31
444.464	50.31
444.59	44.31
444.716	50.31
444.842	42.31
444.968	25.31
445.094	38.31
445.22	36.31
445.346	35.31
445.472	39.31
445.598	45.31
445.724	51.31
445.85	41.31
445.976	54.31
446.102	54.31
446.228	46.31
446.354	49.31
446.48	28.31
446.605	28.31
446.731	46.31
446.857	21.31
446.983	20.31
447.109	37.31
447.235	36.31
447.361	19.31
447.487	41.31
447.613	48.31
447.739	22.31
447.865	22.31
447.99	45.31
448.116	54.31
448.242	24.31
448.368	24.31
448.494	22.31
448.62	49.31
448.746	37.31
448.872	38.31
448.997	18.31
449.123	35.31
449.249	40.31
449.375	39.31
449.501	32.31
449.627	0.31
449.752	44.31
449.878	8.31
450.004	-0.69
450.13	41.31
450.256	29.31
450.381	22.31
450.507	36.31
450.633	39.31
450.759	51.31
450.884	32.31
451.01	32.31
451.136	39.31
451.262	43.31
451.388	39.31
451.513	23.31
451.639	26.31
451.765	26.31
451.89	28.31
452.016	25.31
452.142	32.31
452.268	35.31
452.393	30.31
452.519	19.31
452.645	40.31
452.771	26.31
452.896	26.31
453.022	25.31
453.148	46.31
453.273	33.31
453.399	32.31
453.525	35.31
453.65	33.31
453.776	38.31
453.902	30.31
454.027	19.31
454.153	34.31
454.279	39.31
454.404	32.31
454.53	37.31
454.656	51.31
454.781	13.31
454.907	0.31
455.032	-0.69
455.158	28.31
455.284	53.31
455.409	36.31
455.535	33.31
455.66	31.31
455.786	41.31
455.912	41.31
456.037	1.31
456.163	25.31
456.288	52.31
456.414	25.31
456.539	22.31
456.665	44.31
456.791	24.31
456.916	19.31
457.042	34.31
457.167	18.31
457.293	51.31
457.418	27.31
457.544	20.31
457.669	33.31
457.795	30.31
457.92	21.31
458.046	39.31
458.171	27.31
458.297	18.31
458.422	18.31
458.548	10.31
458.673	37.31
458.799	29.31
458.924	12.31
459.05	29.31
459.175	26.31
459.301	22.31
459.426	40.31
459.552	34.31
459.677	24.31
459.803	33.31
459.928	36.31
460.053	22.31
460.179	32.31
460.304	32.31
460.43	31.31
460.555	18.31
460.681	38.31
460.806	31.31
460.931	37.31
461.057	32.31
461.182	20.31
461.308	28.31
461.433	42.31
461.558	23.31
461.684	41.31
461.809	36.31
461.934	35.31
462.06	39.31
462.185	17.31
462.311	22.31
462.436	27.31
462.561	24.31
462.687	26.31
462.812	44.31
462.937	14.31
463.063	9.31
463.188	7.31
463.313	44.31
463.439	28.31
463.564	35.31
463.689	36.31
463.814	42.31
463.94	33.31
464.065	54.31
464.19	26.31
464.316	13.31
464.441	22.31
464.566	31.31
464.692	36.31
464.817	28.31
464.942	39.31
465.067	22.31
465.193	2.31
465.318	14.31
465.443	10.31
465.568	31.31
465.694	20.31
465.819	28.31
465.944	24.31
466.069	39.31
466.194	42.31
466.32	36.31
466.445	30.31
466.57	14.31
466.695	13.31
466.82	42.31
466.946	35.31
467.071	31.31
467.196	44.31
467.321	42.31
467.446	34.31
467.572	24.31
467.697	41.31
467.822	40.31
467.947	45.31
468.072	23.31
468.197	27.31
468.323	12.31
468.448	26.31
468.573	2.31
468.698	28.31
468.823	41.31
468.948	47.31
469.073	38.31
469.198	37.31
469.324	57.31
469.449	30.31
469.574	54.31
469.699	54.31
469.824	34.31
469.949	34.31
470.074	52.31
470.199	63.31
470.324	41.31
470.449	36.31
470.574	33.31
470.7	35.31
470.825	49.31
470.95	75.31
471.075	33.31
471.2	49.31
471.325	52.31
471.45	23.31
471.575	27.31
471.7	35.31
471.825	32.31
471.95	34.31
472.075	15.31
472.2	35.31
472.325	37.31
472.45	38.31
472.575	22.31
472.7	29.31
472.825	53.31
472.95	32.31
473.075	29.31
473.2	42.31
473.325	54.31
473.45	57.31
473.575	40.31
473.7	44.31
473.825	27.31
473.95	28.31
474.075	44.31
474.2	11.31
474.325	12.31
474.45	40.31
474.574	43.31
474.699	27.31
474.824	40.31
474.949	31.31
475.074	6.31
475.199	43.31
475.324	30.31
475.449	26.31
475.574	26.31
475.699	26.31
475.824	10.31
475.949	19.31
476.073	22.31
476.198	19.31
476.323	13.31
476.448	20.31
476.573	16.31
476.698	31.31
476.823	25.31
476.947	33.31
477.072	19.31
477.197	11.31
477.322	20.31
477.447	26.31
477.572	30.31
477.697	20.31
477.821	32.31
477.946	35.31
478.071	33.31
478.196	25.31
478.321	27.31
478.445	13.31
478.57	17.31
478.695	6.31
478.82	27.31
478.945	28.31
479.069	8.31
479.194	19.31
479.319	30.31
479.444	37.31
479.569	34.31
479.693	10.31
479.818	30.31
479.943	46.31
480.068	7.31
480.192	26.31
480.317	20.31
480.442	23.31
480.567	15.31
480.691	19.31
480.816	26.31
480.941	15.31
481.066	34.31
481.19	36.31
481.315	22.31
481.44	24.31
481.564	13.31
481.689	22.31
481.814	10.31
481.938	24.31
482.063	8.31
482.188	23.31
482.313	23.31
482.437	19.31
482.562	21.31
482.687	22.31
482.811	22.31
482.936	22.31
483.061	33.31
483.185	8.31
483.31	26.31
483.435	35.31
483.559	14.31
483.684	40.31
483.808	52.31
483.933	40.31
484.058	28.31
484.182	18.31
484.307	24.31
484.432	31.31
484.556	15.31
484.681	15.31
484.805	29.31
484.93	20.31
485.055	37.31
485.179	57.31
485.304	26.31
485.428	36.31
485.553	14.31
485.678	27.31
485.802	23.31
485.927	33.31
486.051	39.31
486.176	20.31
486.3	21.31
486.425	20.31
486.549	23.31
486.674	25.31
486.799	16.31
486.923	5.31
487.048	14.31
487.172	6.31
487.297	15.31
487.421	24.31
487.546	31.31
487.67	28.31
487.795	20.31
487.919	23.31
488.044	39.31
488.168	33.31
488.293	15.31
488.417	10.31
488.542	18.31
488.666	38.31
488.791	43.31
488.915	17.31
489.04	30.31
489.164	24.31
489.289	47.31
489.413	27.31
489.538	35.31
489.662	40.31
489.786	15.31
489.911	26.31
490.035	35.31
490.16	26.31
490.284	22.31
490.409	10.31
490.533	25.31
490.658	58.31
490.782	39.31
490.906	46.31
491.031	112.31
491.155	151.31
491.28	143.31
491.404	159.31
491.528	260.31
491.653	144.31
491.777	67.31
491.902	22.31
492.026	48.31
492.15	24.31
492.275	46.31
492.399	49.31
492.524	26.31
492.648	30.31
492.772	24.31
492.897	36.31
493.021	21.31
493.145	29.31
493.27	27.31
493.394	8.31
493.518	21.31
493.643	11.31
493.767	34.31
493.891	16.31
494.016	22.31
494.14	11.31
494.264	31.31
494.389	38.31
494.513	19.31
494.637	3.31
494.762	24.31
494.886	31.31
495.01	41.31
495.134	28.31
495.259	30.31
495.383	17.31
495.507	24.31
495.632	28.31
495.756	64.31
495.88	35.31
496.004	47.31
496.129	18.31
496.253	24.31
496.377	23.31
496.501	41.31
496.626	18.31
496.75	26.31
496.874	27.31
496.998	12.31
497.123	20.31
497.247	15.31
497.371	0.31
497.495	25.31
497.62	24.31
497.744	13.31
497.868	16.31
497.992	21.31
498.116	19.31
498.241	14.31
498.365	11.31
498.489	20.31
498.613	38.31
498.737	15.31
498.862	9.31
498.986	8.31
499.11	27.31
499.234	32.31
499.358	15.31
499.482	16.31
499.607	31.31
499.731	26.31
499.855	32.31
499.979	22.31
500.103	31.31
500.227	17.31
500.351	29.31
500.476	35.31
500.6	26.31
500.724	33.31
500.848	26.31
500.972	25.31
501.096	26.31
501.22	30.31
501.344	20.31
501.469	7.31
501.593	14.31
501.717	24.31
501.841	22.31
501.965	7.31
502.089	6.31
502.213	23.31
502.337	32.31
502.461	3.31
502.585	29.31
502.709	20.31
502.834	27.31
502.958	21.31
503.082	18.31
503.206	24.31
503.33	39.31
503.454	36.31
503.578	33.31
503.702	23.31
503.826	24.31
503.95	30.31
504.074	20.31
504.198	12.31
504.322	19.31
504.446	27.31
504.57	37.31
504.694	26.31
504.818	23.31
504.942	36.31
505.066	33.31
505.19	19.31
505.314	13.31
505.438	28.31
505.562	26.31
505.686	41.31
505.81	22.31
505.934	16.31
506.058	13.31
506.182	19.31
506.306	26.31
506.43	10.31
506.554	13.31
506.678	12.31
506.802	11.31
506.926	41.31
507.05	44.31
507.174	59.31
507.298	49.31
507.422	30.31
507.546	25.31
507.67	33.31
507.794	-4.69
507.918	-0.69
508.042	9.31
508.165	29.31
508.289	24.31
508.413	33.31
508.537	12.31
508.661	27.31
508.785	20.31
508.909	37.31
509.033	32.31
509.157	34.31
509.281	19.31
509.405	14.31
509.528	59.31
509.652	31.31
509.776	38.31
509.9	28.31
510.024	34.31
510.148	54.31
510.272	41.31
510.396	45.31
510.519	33.31
510.643	36.31
510.767	37.31
510.891	44.31
511.015	44.31
511.139	24.31
511.263	59.31
511.386	47.31
511.51	49.31
511.634	41.31
511.758	53.31
511.882	35.31
512.006	51.31
512.129	57.31
512.253	93.31
512.377	73.31
512.501	78.31
512.625	88.31
512.748	102.31
512.872	80.31
512.996	65.31
513.12	68.31
513.244	51.31
513.367	61.31
513.491	60.31
513.615	89.31
513.739	88.31
513.862	83.31
513.986	75.31
514.11	121.31
514.234	96.31
514.358	122.31
514.481	119.31
514.605	112.31
514.729	127.31
514.853	138.31
514.976	112.31
515.1	128.31
515.224	115.31
515.348	92.31
515.471	77.31
515.595	104.31
515.719	125.31
515.842	222.31
515.966	306.31
516.09	322.31
516.214	304.31
516.337	332.31
516.461	221.31
516.585	94.31
516.708	58.31
516.832	29.31
516.956	6.31
517.08	26.31
517.203	12.31
517.327	13.31
517.451	31.31
517.574	46.31
517.698	23.31
517.822	19.31
517.945	10.31
518.069	20.31
518.193	48.31
518.316	29.31
518.44	13.31
518.564	15.31
518.687	7.31
518.811	28.31
518.935	39.31
519.058	24.31
519.182	28.31
519.306	37.31
519.429	15.31
519.553	45.31
519.676	25.31
519.8	20.31
519.924	20.31
520.047	26.31
520.171	18.31
520.294	14.31
520.418	29.31
520.542	3.31
520.665	33.31
520.789	25.31
520.913	4.31
521.036	1.31
521.16	8.31
521.283	11.31
521.407	20.31
521.53	8.31
521.654	8.31
521.778	35.31
521.901	39.31
522.025	12.31
522.148	12.31
522.272	20.31
522.395	15.31
522.519	24.31
522.643	25.31
522.766	12.31
522.89	25.31
523.013	20.31
523.137	15.31
523.26	9.31
523.384	19.31
523.507	20.31
523.631	14.31
523.754	16.31
523.878	42.31
524.002	25.31
524.125	8.31
524.249	4.31
524.372	28.31
524.496	15.31
524.619	30.31
524.743	24.31
524.866	19.31
524.99	26.31
525.113	-3.69
525.237	24.31
525.36	31.31
525.484	21.31
525.607	12.31
525.731	19.31
525.854	18.31
525.978	31.31
526.101	3.31
526.224	25.31
526.348	24.31
526.471	33.31
526.595	21.31
526.718	32.31
526.842	18.31
526.965	29.31
527.089	18.31
527.212	15.31
527.336	4.31
527.459	34.31
527.582	23.31
527.706	28.31
527.829	20.31
527.953	37.31
528.076	15.31
528.2	-0.69
528.323	29.31
528.446	55.31
528.57	24.31
528.693	36.31
528.817	7.31
528.94	38.31
529.064	30.31
529.187	7.31
529.31	33.31
529.434	16.31
529.557	8.31
529.68	17.31
529.804	13.31
529.927	21.31
530.051	17.31
530.174	1.31
530.297	9.31
530.421	38.31
530.544	36.31
530.668	24.31
530.791	12.31
530.914	17.31
531.038	12.31
531.161	23.31
531.284	19.31
531.408	30.31
531.531	13.31
531.654	15.31
531.778	26.31
531.901	4.31
532.024	5.31
532.148	5.31
532.271	10.31
532.394	18.31
532.518	31.31
532.641	18.31
532.764	22.31
532.888	25.31
533.011	24.31
533.134	28.31
533.258	30.31
533.381	13.31
533.504	22.31
533.628	20.31
533.751	19.31
533.874	19.31
533.997	16.31
534.121	21.31
534.244	22.31
534.367	20.31
534.491	30.31
534.614	10.31
534.737	51.31
534.86	32.31
534.984	4.31
535.107	31.31
535.23	32.31
535.354	32.31
535.477	22.31
535.6	15.31
535.723	29.31
535.847	16.31
535.97	19.31
536.093	24.31
536.216	15.31
536.34	21.31
536.463	-4.69
536.586	34.31
536.709	22.31
536.833	24.31
536.956	4.31
537.079	1.31
537.202	24.31
537.325	15.31
537.449	-5.69
537.572	10.31
537.695	16.31
537.818	13.31
537.941	11.31
538.065	12.31
538.188	6.31
538.311	24.31
538.434	31.31
538.558	21.31
538.681	23.31
538.804	10.31
538.927	30.31
539.05	24.31
539.173	23.31
539.297	23.31
539.42	27.31
539.543	49.31
539.666	24.31
539.789	28.31
539.913	21.31
540.036	17.31
540.159	41.31
540.282	30.31
540.405	6.31
540.528	8.31
540.651	28.31
540.775	8.31
540.898	31.31
541.021	18.31
541.144	31.31
541.267	31.31
541.39	32.31
541.513	39.31
541.637	26.31
541.76	38.31
541.883	37.31
542.006	64.31
542.129	45.31
542.252	36.31
542.375	34.31
542.498	51.31
542.622	46.31
542.745	52.31
542.868	44.31
542.991	70.31
543.114	66.31
543.237	53.31
543.36	71.31
543.483	54.31
543.606	60.31
543.73	71.31
543.853	77.31
543.976	71.31
544.099	122.31
544.222	124.31
544.345	135.31
544.468	176.31
544.591	214.31
544.714	283.31
544.837	351.31
544.96	438.31
545.083	639.31
545.206	1089.31
545.329	2407.31
545.453	10946.31
545.576	15252.31
545.699	15685.31
545.822	15685.31
545.945	15685.31
546.068	15685.31
546.191	15685.31
546.314	15685.31
546.437	15685.31
546.56	15685.31
546.683	15685.31
546.806	15685.31
546.929	15685.31
547.052	15685.31
547.175	15685.31
547.298	15685.31
547.421	15685.31
547.544	15685.31
547.667	3591.31
547.79	2685.31
547.913	1090.31
548.036	906.31
548.159	648.31
548.282	621.31
548.405	474.31
548.528	466.31
548.651	400.31
548.774	390.31
548.897	356.31
549.02	361.31
549.143	313.31
549.266	297.31
549.389	266.31
549.512	247.31
549.635	258.31
549.758	267.31
549.881	200.31
550.004	203.31
550.127	206.31
550.25	196.31
550.373	170.31
550.496	181.31
550.619	154.31
550.742	143.31
550.865	130.31
550.988	148.31
551.111	161.31
551.234	141.31
551.356	125.31
551.479	130.31
551.602	137.31
551.725	137.31
551.848	124.31
551.971	159.31
552.094	109.31
552.217	113.31
552.34	137.31
552.463	95.31
552.586	121.31
552.709	116.31
552.832	107.31
552.955	106.31
553.077	102.31
553.2	112.31
553.323	96.31
553.446	114.31
553.569	92.31
553.692	112.31
553.815	111.31
553.938	107.31
554.061	96.31
554.184	108.31
554.306	91.31
554.429	97.31
554.552	90.31
554.675	69.31
554.798	74.31
554.921	78.31
555.044	77.31
555.167	63.31
555.29	83.31
555.412	60.31
555.535	78.31
555.658	66.31
555.781	86.31
555.904	83.31
556.027	71.31
556.15	82.31
556.272	82.31
556.395	83.31
556.518	76.31
556.641	76.31
556.764	77.31
556.887	79.31
557.01	71.31
557.132	62.31
557.255	69.31
557.378	94.31
557.501	72.31
557.624	67.31
557.747	77.31
557.869	75.31
557.992	91.31
558.115	92.31
558.238	103.31
558.361	106.31
558.483	108.31
558.606	83.31
558.729	55.31
558.852	70.31
558.975	80.31
559.098	62.31
559.22	72.31
559.343	65.31
559.466	47.31
559.589	59.31
559.712	62.31
559.834	76.31
559.957	48.31
560.08	49.31
560.203	68.31
560.325	79.31
560.448	76.31
560.571	53.31
560.694	36.31
560.817	64.31
560.939	60.31
561.062	63.31
561.185	55.31
561.308	58.31
561.43	56.31
561.553	56.31
561.676	69.31
561.799	74.31
561.921	61.31
562.044	78.31
562.167	51.31
562.29	83.31
562.413	73.31
562.535	63.31
562.658	39.31
562.781	61.31
562.903	74.31
563.026	96.31
563.149	142.31
563.272	143.31
563.394	108.31
563.517	98.31
563.64	84.31
563.763	61.31
563.885	62.31
564.008	82.31
564.131	41.31
564.254	37.31
564.376	46.31
564.499	28.31
564.622	36.31
564.744	65.31
564.867	43.31
564.99	40.31
565.113	44.31
565.235	43.31
565.358	32.31
565.481	21.31
565.603	39.31
565.726	29.31
565.849	61.31
565.971	52.31
566.094	26.31
566.217	47.31
566.34	42.31
566.462	34.31
566.585	36.31
566.708	62.31
566.83	52.31
566.953	55.31
567.076	31.31
567.198	34.31
567.321	32.31
567.444	56.31
567.566	37.31
567.689	33.31
567.812	36.31
567.934	39.31
568.057	26.31
568.18	44.31
568.302	24.31
568.425	28.31
568.548	32.31
568.67	40.31
568.793	20.31
568.916	31.31
569.038	31.31
569.161	43.31
569.283	58.31
569.406	44.31
569.529	35.31
569.651	31.31
569.774	44.31
569.897	28.31
570.019	46.31
570.142	33.31
570.265	46.31
570.387	46.31
570.51	56.31
570.632	51.31
570.755	22.31
570.878	23.31
571	37.31
571.123	46.31
571.246	48.31
571.368	38.31
571.491	31.31
571.613	26.31
571.736	18.31
571.859	29.31
571.981	19.31
572.104	42.31
572.226	36.31
572.349	33.31
572.472	37.31
572.594	47.31
572.717	41.31
572.839	32.31
572.962	36.31
573.085	46.31
573.207	38.31
573.33	30.31
573.452	41.31
573.575	46.31
573.697	34.31
573.82	34.31
573.943	24.31
574.065	35.31
574.188	38.31
574.31	52.31
574.433	40.31
574.555	60.31
574.678	38.31
574.801	32.31
574.923	26.31
575.046	40.31
575.168	26.31
575.291	26.31
575.413	36.31
575.536	46.31
575.659	40.31
575.781	46.31
575.904	55.31
576.026	70.31
576.149	94.31
576.271	142.31
576.394	208.31
576.516	548.31
576.639	3624.31
576.761	10204.31
576.884	8814.31
577.007	8803.31
577.129	7990.31
577.252	3767.31
577.374	1302.31
577.497	531.31
577.619	287.31
577.742	167.31
577.864	143.31
577.987	151.31
578.109	140.31
578.232	126.31
578.354	156.31
578.477	191.31
578.599	375.31
578.722	1938.31
578.844	9150.31
578.967	9850.31
579.089	8830.31
579.212	9112.31
579.334	5268.31
579.457	1904.31
579.579	712.31
579.702	324.31
579.824	214.31
579.947	133.31
580.069	97.31
580.192	77.31
580.314	106.31
580.437	86.31
580.559	95.31
580.682	91.31
580.804	78.31
580.927	65.31
581.049	69.31
581.172	70.31
581.294	53.31
581.417	52.31
581.539	54.31
581.662	57.31
581.784	48.31
581.907	65.31
582.029	54.31
582.152	40.31
582.274	55.31
582.396	31.31
582.519	47.31
582.641	39.31
582.764	32.31
582.886	58.31
583.009	14.31
583.131	42.31
583.254	26.31
583.376	63.31
583.499	36.31
583.621	51.31
583.743	46.31
583.866	29.31
583.988	29.31
584.111	57.31
584.233	44.31
584.356	38.31
584.478	44.31
584.601	28.31
584.723	33.31
584.845	54.31
584.968	33.31
585.09	19.31
585.213	39.31
585.335	31.31
585.458	25.31
585.58	35.31
585.702	34.31
585.825	38.31
585.947	42.31
586.07	27.31
586.192	22.31
586.315	37.31
586.437	26.31
586.559	29.31
586.682	11.31
586.804	35.31
586.927	39.31
587.049	14.31
587.171	43.31
587.294	49.31
587.416	43.31
587.539	34.31
587.661	30.31
587.783	34.31
587.906	32.31
588.028	29.31
588.151	30.31
588.273	31.31
588.395	21.31
588.518	12.31
588.64	21.31
588.763	23.31
588.885	39.31
589.007	36.31
589.13	27.31
589.252	16.31
589.375	22.31
589.497	31.31
589.619	29.31
589.742	36.31
589.864	34.31
589.986	25.31
590.109	30.31
590.231	26.31
590.354	50.31
590.476	17.31
590.598	7.31
590.721	22.31
590.843	51.31
590.965	38.31
591.088	36.31
591.21	29.31
591.332	56.31
591.455	8.31
591.577	7.31
591.7	30.31
591.822	28.31
591.944	27.31
592.067	39.31
592.189	34.31
592.311	38.31
592.434	24.31
592.556	20.31
592.678	37.31
592.801	26.31
592.923	27.31
593.045	21.31
593.168	23.31
593.29	36.31
593.412	49.31
593.535	29.31
593.657	18.31
593.779	18.31
593.902	36.31
594.024	22.31
594.146	31.31
594.269	32.31
594.391	27.31
594.513	37.31
594.636	29.31
594.758	27.31
594.88	50.31
595.003	40.31
595.125	28.31
595.247	27.31
595.37	30.31
595.492	36.31
595.614	46.31
595.737	33.31
595.859	22.31
595.981	36.31
596.104	27.31
596.226	27.31
596.348	9.31
596.471	18.31
596.593	32.31
596.715	20.31
596.838	16.31
596.96	11.31
597.082	30.31
597.204	43.31
597.327	36.31
597.449	21.31
597.571	36.31
597.694	37.31
597.816	36.31
597.938	31.31
598.061	25.31
598.183	29.31
598.305	50.31
598.427	7.31
598.55	19.31
598.672	27.31
598.794	24.31
598.917	20.31
599.039	37.31
599.161	41.31
599.283	3.31
599.406	43.31
599.528	30.31
599.65	48.31
599.773	29.31
599.895	42.31
600.017	30.31
600.139	7.31
600.262	13.31
600.384	36.31
600.506	36.31
600.628	39.31
600.751	38.31
600.873	27.31
600.995	36.31
601.118	21.31
601.24	34.31
601.362	46.31
601.484	40.31
601.607	26.31
601.729	11.31
601.851	19.31
601.973	27.31
602.096	38.31
602.218	38.31
602.34	19.31
602.462	34.31
602.585	24.31
602.707	10.31
602.829	36.31
602.951	18.31
603.074	16.31
603.196	25.31
603.318	24.31
603.44	43.31
603.563	31.31
603.685	15.31
603.807	37.31
603.929	18.31
604.052	36.31
604.174	40.31
604.296	50.31
604.418	44.31
604.541	41.31
604.663	6.31
604.785	22.31
604.907	27.31
605.03	26.31
605.152	51.31
605.274	35.31
605.396	21.31
605.519	25.31
605.641	26.31
605.763	21.31
605.885	27.31
606.008	32.31
606.13	23.31
606.252	31.31
606.374	15.31
606.496	-11.69
606.619	13.31
606.741	13.31
606.863	30.31
606.985	35.31
607.108	36.31
607.23	16.31
607.352	20.31
607.474	12.31
607.596	22.31
607.719	26.31
607.841	24.31
607.963	25.31
608.085	24.31
608.207	36.31
608.33	21.31
608.452	26.31
608.574	13.31
608.696	49.31
608.819	26.31
608.941	37.31
609.063	11.31
609.185	23.31
609.307	19.31
609.43	36.31
609.552	24.31
609.674	10.31
609.796	35.31
609.918	32.31
610.041	22.31
610.163	16.31
610.285	24.31
610.407	22.31
610.529	21.31
610.652	18.31
610.774	22.31
610.896	22.31
611.018	18.31
611.14	22.31
611.263	10.31
611.385	10.31
611.507	40.31
611.629	20.31
611.751	31.31
611.873	26.31
611.996	33.31
612.118	24.31
612.24	30.31
612.362	33.31
612.484	50.31
612.607	49.31
612.729	56.31
612.851	35.31
612.973	22.31
613.095	28.31
613.218	28.31
613.34	37.31
613.462	35.31
613.584	46.31
613.706	39.31
613.828	37.31
613.951	14.31
614.073	23.31
614.195	27.31
614.317	33.31
614.439	27.31
614.561	26.31
614.684	32.31
614.806	31.31
614.928	33.31
615.05	28.31
615.172	31.31
615.294	33.31
615.417	40.31
615.539	16.31
615.661	30.31
615.783	51.31
615.905	43.31
616.027	27.31
616.15	32.31
616.272	38.31
616.394	7.31
616.516	11.31
616.638	24.31
616.76	32.31
616.883	39.31
617.005	8.31
617.127	16.31
617.249	34.31
617.371	20.31
617.493	29.31
617.615	31.31
617.738	41.31
617.86	29.31
617.982	34.31
618.104	36.31
618.226	20.31
618.348	15.31
618.471	35.31
618.593	43.31
618.715	0.31
618.837	12.31
618.959	20.31
619.081	36.31
619.203	29.31
619.326	34.31
619.448	36.31
619.57	37.31
619.692	32.31
619.814	33.31
619.936	23.31
620.058	33.31
620.181	30.31
620.303	23.31
620.425	18.31
620.547	11.31
620.669	15.31
620.791	37.31
620.913	26.31
621.036	22.31
621.158	32.31
621.28	20.31
621.402	12.31
621.524	14.31
621.646	30.31
621.768	11.31
621.891	14.31
622.013	14.31
622.135	24.31
622.257	8.31
622.379	25.31
622.501	32.31
622.623	22.31
622.745	8.31
622.868	17.31
622.99	22.31
623.112	25.31
623.234	8.31
623.356	15.31
623.478	8.31
623.6	27.31
623.722	11.31
623.845	15.31
623.967	14.31
624.089	28.31
624.211	20.31
624.333	23.31
624.455	27.31
624.577	8.31
624.699	28.31
624.822	27.31
624.944	-2.69
625.066	8.31
625.188	22.31
625.31	23.31
625.432	27.31
625.554	11.31
625.676	32.31
625.799	35.31
625.921	42.31
626.043	27.31
626.165	36.31
626.287	-5.69
626.409	30.31
626.531	26.31
626.653	13.31
626.775	15.31
626.898	27.31
627.02	37.31
627.142	56.31
627.264	26.31
627.386	18.31
627.508	30.31
627.63	12.31
627.752	10.31
627.874	17.31
627.997	38.31
628.119	27.31
628.241	28.31
628.363	41.31
628.485	32.31
628.607	26.31
628.729	20.31
628.851	6.31
628.973	18.31
629.096	8.31
629.218	22.31
629.34	28.31
629.462	22.31
629.584	29.31
629.706	29.31
629.828	26.31
629.95	18.31
630.072	20.31
630.195	11.31
630.317	34.31
630.439	10.31
630.561	4.31
630.683	22.31
630.805	27.31
630.927	24.31
631.049	16.31
631.171	18.31
631.293	16.31
631.416	17.31
631.538	3.31
631.66	21.31
631.782	19.31
631.904	41.31
632.026	3.31
632.148	27.31
632.27	15.31
632.392	23.31
632.514	24.31
632.637	22.31
632.759	-2.69
632.881	12.31
633.003	16.31
633.125	4.31
633.247	23.31
633.369	16.31
633.491	15.31
633.613	22.31
633.735	10.31
633.858	23.31
633.98	3.31
634.102	8.31
634.224	7.31
634.346	21.31
634.468	21.31
634.59	20.31
634.712	25.31
634.834	17.31
634.956	8.31
635.078	21.31
635.201	23.31
635.323	33.31
635.445	22.31
635.567	6.31
635.689	38.31
635.811	10.31
635.933	17.31
636.055	20.31
636.177	23.31
636.299	19.31
636.421	16.31
636.544	6.31
636.666	13.31
636.788	17.31
636.91	36.31
637.032	6.31
637.154	6.31
637.276	54.31
637.398	39.31
637.52	25.31
637.642	10.31
637.764	28.31
637.887	16.31
638.009	19.31
638.131	19.31
638.253	28.31
638.375	24.31
638.497	29.31
638.619	14.31
638.741	4.31
638.863	13.31
638.985	1.31
639.107	18.31
639.23	15.31
639.352	32.31
639.474	15.31
639.596	7.31
639.718	9.31
639.84	18.31
639.962	14.31
640.084	44.31
640.206	18.31
640.328	13.31
640.45	10.31
640.573	6.31
640.695	14.31
640.817	23.31
640.939	6.31
641.061	17.31
641.183	22.31
641.305	17.31
641.427	10.31
641.549	4.31
641.671	16.31
641.793	7.31
641.915	33.31
642.038	22.31
642.16	19.31
642.282	7.31
642.404	-9.69
642.526	24.31
642.648	4.31
642.77	8.31
642.892	4.31
643.014	28.31
643.136	23.31
643.258	26.31
643.381	23.31
643.503	29.31
643.625	17.31
643.747	6.31
643.869	1.31
643.991	22.31
644.113	22.31
644.235	14.31
644.357	25.31
644.479	28.31
644.601	14.31
644.723	22.31
644.846	31.31
644.968	6.31
645.09	15.31
645.212	11.31
645.334	35.31
645.456	10.31
645.578	22.31
645.7	18.31
645.822	20.31
645.944	18.31
646.066	16.31
646.188	22.31
646.311	38.31
646.433	7.31
646.555	42.31
646.677	23.31
646.799	22.31
646.921	19.31
647.043	43.31
647.165	2.31
647.287	3.31
647.409	22.31
647.531	21.31
647.654	-2.69
647.776	27.31
647.898	20.31
648.02	13.31
648.142	11.31
648.264	16.31
648.386	18.31
648.508	12.31
648.63	8.31
648.752	12.31
648.874	19.31
648.997	26.31
649.119	24.31
649.241	6.31
649.363	33.31
649.485	20.31
649.607	1.31
649.729	-9.69
649.851	13.31
649.973	23.31
650.095	26.31
650.217	12.31
650.34	11.31
650.462	19.31
650.584	27.31
650.706	30.31
650.828	33.31
650.95	8.31
651.072	6.31
651.194	2.31
651.316	14.31
651.438	15.31
651.56	12.31
651.683	21.31
651.805	28.31
651.927	2.31
652.049	8.31
652.171	-5.69
652.293	15.31
652.415	8.31
652.537	15.31
652.659	3.31
652.781	14.31
652.903	17.31
653.026	31.31
653.148	24.31
653.27	7.31
653.392	0.31
653.514	2.31
653.636	0.31
653.758	7.31
653.88	5.31
654.002	-11.69
654.124	20.31
654.247	19.31
654.369	24.31
654.491	15.31
654.613	11.31
654.735	28.31
654.857	22.31
654.979	20.31
655.101	19.31
655.223	24.31
655.345	14.31
655.468	6.31
655.59	14.31
655.712	25.31
655.834	9.31
655.956	29.31
656.078	20.31
656.2	24.31
656.322	-1.69
656.444	11.31
656.566	16.31
656.689	12.31
656.811	-2.69
656.933	20.31
657.055	8.31
657.177	8.31
657.299	-0.69
657.421	27.31
657.543	10.31
657.665	19.31
657.787	10.31
657.91	8.31
658.032	14.31
658.154	9.31
658.276	13.31
658.398	-2.69
658.52	21.31
658.642	20.31
658.764	24.31
658.886	4.31
659.009	11.31
659.131	25.31
659.253	19.31
659.375	34.31
659.497	7.31
659.619	18.31
659.741	23.31
659.863	7.31
659.985	-8.69
660.108	20.31
660.23	9.31
660.352	30.31
660.474	25.31
660.596	10.31
660.718	20.31
660.84	11.31
660.962	28.31
661.084	3.31
661.207	14.31
661.329	8.31
661.451	10.31
661.573	0.31
661.695	33.31
661.817	20.31
661.939	41.31
662.061	26.31
662.184	17.31
662.306	14.31
662.428	7.31
662.55	18.31
662.672	10.31
662.794	24.31
662.916	22.31
663.038	8.31
663.161	26.31
663.283	46.31
663.405	16.31
663.527	11.31
663.649	16.31
663.771	19.31
663.893	16.31
664.015	9.31
664.138	4.31
664.26	10.31
664.382	18.31
664.504	7.31
664.626	3.31
664.748	11.31
664.87	2.31
664.992	21.31
665.115	12.31
665.237	10.31
665.359	11.31
665.481	22.31
665.603	29.31
665.725	18.31
665.847	-8.69
665.97	-7.69
666.092	6.31
666.214	22.31
666.336	-1.69
666.458	13.31
666.58	5.31
666.702	10.31
666.825	8.31
666.947	0.31
667.069	2.31
667.191	16.31
667.313	10.31
667.435	7.31
667.557	3.31
667.68	2.31
667.802	14.31
667.924	2.31
668.046	20.31
668.168	26.31
668.29	25.31
668.412	18.31
668.535	14.31
668.657	10.31
668.779	-0.69
668.901	15.31
669.023	13.31
669.145	18.31
669.267	22.31
669.39	25.31
669.512	14.31
669.634	10.31
669.756	19.31
669.878	20.31
670	21.31
670.123	22.31
670.245	23.31
670.367	17.31
670.489	8.31
670.611	16.31
670.733	18.31
670.856	-4.69
670.978	19.31
671.1	31.31
671.222	12.31
671.344	2.31
671.466	-0.69
671.589	-1.69
671.711	23.31
671.833	6.31
671.955	22.31
672.077	3.31
672.199	33.31
672.322	25.31
672.444	18.31
672.566	34.31
672.688	7.31
672.81	19.31
672.932	30.31
673.055	8.31
673.177	-14.69
673.299	10.31
673.421	-1.69
673.543	25.31
673.665	34.31
673.788	21.31
673.91	8.31
674.032	-1.69
674.154	15.31
674.276	11.31
674.399	6.31
674.521	12.31
674.643	12.31
674.765	-4.69
674.887	17.31
675.009	-9.69
675.132	-4.69
675.254	6.31
675.376	29.31
675.498	13.31
675.62	18.31
675.743	5.31
675.865	24.31
675.987	2.31
676.109	-9.69
676.231	15.31
676.354	22.31
676.476	5.31
676.598	16.31
676.72	18.31
676.842	16.31
676.965	9.31
677.087	-0.69
677.209	6.31
677.331	8.31
677.453	10.31
677.576	26.31
677.698	14.31
677.82	22.31
677.942	6.31
678.064	6.31
678.187	18.31
678.309	19.31
678.431	16.31
678.553	14.31
678.675	14.31
678.798	32.31
678.92	10.31
679.042	8.31
679.164	13.31
679.286	20.31
679.409	11.31
679.531	3.31
679.653	9.31
679.775	3.31
679.898	-7.69
680.02	10.31
680.142	9.31
680.264	16.31
680.386	4.31
680.509	31.31
680.631	31.31
680.753	29.31
680.875	16.31
680.998	1.31
681.12	6.31
681.242	23.31
681.364	2.31
681.486	14.31
681.609	-5.69
681.731	12.31
681.853	14.31
681.975	15.31
682.098	19.31
682.22	22.31
682.342	29.31
682.464	23.31
682.587	22.31
682.709	6.31
682.831	10.31
682.953	-2.69
683.076	-2.69
683.198	20.31
683.32	4.31
683.442	19.31
683.565	22.31
683.687	9.31
683.809	14.31
683.931	2.31
684.054	13.31
684.176	16.31
684.298	9.31
684.42	3.31
684.543	2.31
684.665	17.31
684.787	12.31
684.909	7.31
685.032	15.31
685.154	-15.69
685.276	22.31
685.398	-12.69
685.521	-1.69
685.643	17.31
685.765	1.31
685.887	15.31
686.01	18.31
686.132	19.31
686.254	7.31
686.377	14.31
686.499	11.31
686.621	26.31
686.743	22.31
686.866	3.31
686.988	29.31
687.11	17.31
687.232	10.31
687.355	0.31
687.477	15.31
687.599	37.31
687.722	11.31
687.844	23.31
687.966	5.31
688.088	10.31
688.211	28.31
688.333	24.31
688.455	25.31
688.578	40.31
688.7	27.31
688.822	27.31
688.944	19.31
689.067	53.31
689.189	24.31
689.311	5.31
689.434	17.31
689.556	22.31
689.678	12.31
689.801	8.31
689.923	16.31
690.045	30.31
690.167	42.31
690.29	42.31
690.412	22.31
690.534	20.31
690.657	8.31
690.779	9.31
690.901	27.31
691.024	22.31
691.146	24.31
691.268	10.31
691.391	30.31
691.513	8.31
691.635	10.31
691.758	30.31
691.88	12.31
692.002	10.31
692.125	14.31
692.247	14.31
692.369	9.31
692.492	0.31
692.614	12.31
692.736	0.31
692.859	8.31
692.981	10.31
693.103	17.31
693.226	14.31
693.348	39.31
693.47	24.31
693.593	24.31
693.715	43.31
693.837	34.31
693.96	34.31
694.082	17.31
694.204	23.31
694.327	16.31
694.449	2.31
694.571	1.31
694.694	11.31
694.816	0.31
694.938	15.31
695.061	14.31
695.183	18.31
695.305	31.31
695.428	32.31
695.55	8.31
695.672	10.31
695.795	20.31
695.917	31.31
696.04	-11.69
696.162	3.31
696.284	-2.69
696.407	3.31
696.529	3.31
696.651	26.31
696.774	14.31
696.896	18.31
697.019	32.31
697.141	24.31
697.263	8.31
697.386	22.31
697.508	7.31
697.63	11.31
697.753	22.31
697.875	0.31
697.998	0.31
698.12	-0.69
698.242	11.31
698.365	13.31
698.487	3.31
698.61	23.31
698.732	27.31
698.854	26.31
698.977	14.31
699.099	14.31
699.221	12.31
699.344	23.31
699.466	-2.69
699.589	14.31
699.711	2.31
699.834	11.31
699.956	22.31
700.078	14.31
700.201	6.31
700.323	36.31
700.446	23.31
700.568	11.31
700.69	13.31
700.813	7.31
700.935	11.31
701.058	2.31
701.18	1.31
701.302	0.31
701.425	10.31
701.547	20.31
701.67	8.31
701.792	6.31
701.915	-2.69
702.037	14.31
702.159	31.31
702.282	23.31
702.404	10.31
702.527	22.31
702.649	31.31
702.772	25.31
702.894	17.31
703.017	14.31
703.139	15.31
703.261	37.31
703.384	23.31
703.506	0.31
703.629	13.31
703.751	17.31
703.874	-5.69
703.996	14.31
704.119	5.31
704.241	12.31
704.364	8.31
704.486	6.31
704.608	21.31
704.731	14.31
704.853	16.31
704.976	-3.69
705.098	8.31
705.221	3.31
705.343	10.31
705.466	8.31
705.588	29.31
705.711	20.31
705.833	10.31
705.956	6.31
706.078	19.31
706.201	15.31
706.323	22.31
706.446	19.31
