Data from LowRes_mercury_15_20_11_07_2024_HR4C61881__18__15-23-34-071.txt Node

Date: Thu Nov 07 15:23:34 EST 2024
User: crc00042
Spectrometer: HR4C6188
Trigger mode: 4
Integration Time (sec): 1.000000E-1
Scans to average: 1
Electric dark correction enabled: true
Nonlinearity correction enabled: false
Boxcar width: 0
XAxis mode: Wavelengths
Number of Pixels in Spectrum: 3648
>>>>>Begin Spectral Data<<<<<
245.66	-93.23
245.797	-93.23
245.934	-93.23
246.071	-56.23
246.208	13.77
246.344	15.77
246.481	3.77
246.618	-10.23
246.755	6.77
246.892	-16.23
247.029	-5.23
247.165	-15.23
247.302	6.77
247.439	-2.23
247.576	4.77
247.713	-15.23
247.849	26.77
247.986	-0.23
248.123	-4.23
248.26	-11.23
248.396	32.77
248.533	18.77
248.67	4.77
248.806	-2.23
248.943	-21.23
249.08	-11.23
249.216	-1.23
249.353	-28.23
249.49	-1.23
249.626	-6.23
249.763	3.77
249.9	-16.23
250.036	-9.23
250.173	19.77
250.309	3.77
250.446	2.77
250.582	-4.23
250.719	-11.23
250.856	16.77
250.992	3.77
251.129	3.77
251.265	4.77
251.402	-9.23
251.538	-18.23
251.675	2.77
251.811	40.77
251.948	32.77
252.084	17.77
252.221	2.77
252.357	0.77
252.493	36.77
252.63	5.77
252.766	7.77
252.903	7.77
253.039	0.77
253.175	0.77
253.312	14.77
253.448	13.77
253.585	-21.23
253.721	19.77
253.857	-3.23
253.994	26.77
254.13	7.77
254.266	-5.23
254.403	-4.23
254.539	-1.23
254.675	19.77
254.811	12.77
254.948	11.77
255.084	0.77
255.22	-13.23
255.356	13.77
255.493	-0.23
255.629	6.77
255.765	-4.23
255.901	23.77
256.037	1.77
256.174	15.77
256.31	10.77
256.446	3.77
256.582	-12.23
256.718	15.77
256.854	12.77
256.991	2.77
257.127	30.77
257.263	2.77
257.399	-3.23
257.535	-8.23
257.671	1.77
257.807	-2.23
257.943	-12.23
258.079	-5.23
258.215	-0.23
258.351	2.77
258.487	4.77
258.623	5.77
258.759	5.77
258.895	-3.23
259.031	-15.23
259.167	-4.23
259.303	22.77
259.439	3.77
259.575	2.77
259.711	0.77
259.847	0.77
259.983	23.77
260.119	-3.23
260.255	-4.23
260.391	19.77
260.527	9.77
260.663	26.77
260.799	-3.23
260.934	-9.23
261.07	1.77
261.206	-20.23
261.342	2.77
261.478	3.77
261.614	2.77
261.749	-4.23
261.885	-2.23
262.021	4.77
262.157	14.77
262.293	-9.23
262.428	-13.23
262.564	-16.23
262.7	3.77
262.836	-11.23
262.971	-1.23
263.107	16.77
263.243	22.77
263.378	24.77
263.514	-14.23
263.65	1.77
263.785	0.77
263.921	0.77
264.057	0.77
264.192	12.77
264.328	6.77
264.464	-1.23
264.599	11.77
264.735	14.77
264.871	3.77
265.006	10.77
265.142	-6.23
265.277	3.77
265.413	30.77
265.548	11.77
265.684	11.77
265.819	0.77
265.955	-6.23
266.091	3.77
266.226	-5.23
266.362	7.77
266.497	19.77
266.633	25.77
266.768	-0.23
266.903	11.77
267.039	11.77
267.174	11.77
267.31	10.77
267.445	-7.23
267.581	-23.23
267.716	10.77
267.851	20.77
267.987	19.77
268.122	21.77
268.258	-9.23
268.393	-0.23
268.528	20.77
268.664	4.77
268.799	3.77
268.934	7.77
269.07	-15.23
269.205	9.77
269.34	20.77
269.476	14.77
269.611	-13.23
269.746	10.77
269.881	26.77
270.017	4.77
270.152	7.77
270.287	19.77
270.422	20.77
270.558	9.77
270.693	30.77
270.828	11.77
270.963	-11.23
271.098	-1.23
271.234	12.77
271.369	30.77
271.504	19.77
271.639	-23.23
271.774	-10.23
271.909	1.77
272.045	-13.23
272.18	-8.23
272.315	8.77
272.45	16.77
272.585	-16.23
272.72	2.77
272.855	-0.23
272.99	25.77
273.125	10.77
273.26	7.77
273.395	-8.23
273.53	6.77
273.665	21.77
273.8	-1.23
273.935	9.77
274.07	-7.23
274.205	22.77
274.34	-3.23
274.475	4.77
274.61	12.77
274.745	20.77
274.88	14.77
275.015	-13.23
275.15	12.77
275.285	20.77
275.42	18.77
275.555	22.77
275.69	13.77
275.825	2.77
275.959	0.77
276.094	-3.23
276.229	9.77
276.364	0.77
276.499	6.77
276.634	4.77
276.768	-2.23
276.903	-3.23
277.038	21.77
277.173	13.77
277.308	2.77
277.442	5.77
277.577	-1.23
277.712	10.77
277.847	10.77
277.981	17.77
278.116	-1.23
278.251	8.77
278.386	-4.23
278.52	4.77
278.655	12.77
278.79	4.77
278.924	11.77
279.059	-3.23
279.194	-19.23
279.328	33.77
279.463	20.77
279.598	24.77
279.732	30.77
279.867	8.77
280.001	26.77
280.136	18.77
280.271	6.77
280.405	18.77
280.54	-0.23
280.674	0.77
280.809	16.77
280.943	22.77
281.078	-2.23
281.213	26.77
281.347	9.77
281.482	-8.23
281.616	1.77
281.751	0.77
281.885	-8.23
282.02	7.77
282.154	21.77
282.288	-12.23
282.423	1.77
282.557	-24.23
282.692	-17.23
282.826	9.77
282.961	18.77
283.095	1.77
283.229	5.77
283.364	-12.23
283.498	14.77
283.633	9.77
283.767	1.77
283.901	7.77
284.036	-3.23
284.17	0.77
284.304	2.77
284.439	13.77
284.573	8.77
284.707	11.77
284.842	14.77
284.976	-10.23
285.11	-0.23
285.244	-7.23
285.379	38.77
285.513	2.77
285.647	1.77
285.781	1.77
285.916	16.77
286.05	14.77
286.184	29.77
286.318	22.77
286.453	4.77
286.587	-4.23
286.721	-3.23
286.855	1.77
286.989	-2.23
287.123	1.77
287.258	-16.23
287.392	13.77
287.526	6.77
287.66	-13.23
287.794	9.77
287.928	-4.23
288.062	-1.23
288.196	6.77
288.33	19.77
288.464	15.77
288.598	10.77
288.733	16.77
288.867	22.77
289.001	-3.23
289.135	15.77
289.269	-0.23
289.403	24.77
289.537	33.77
289.671	9.77
289.805	-6.23
289.939	3.77
290.073	10.77
290.207	17.77
290.34	-0.23
290.474	10.77
290.608	41.77
290.742	-1.23
290.876	4.77
291.01	-5.23
291.144	20.77
291.278	24.77
291.412	18.77
291.546	-4.23
291.679	-12.23
291.813	9.77
291.947	23.77
292.081	0.77
292.215	-2.23
292.349	26.77
292.482	23.77
292.616	-9.23
292.75	2.77
292.884	9.77
293.018	5.77
293.151	-22.23
293.285	-7.23
293.419	-11.23
293.553	-10.23
293.686	-11.23
293.82	8.77
293.954	26.77
294.088	23.77
294.221	-13.23
294.355	-17.23
294.489	18.77
294.622	-11.23
294.756	-2.23
294.89	8.77
295.023	26.77
295.157	17.77
295.291	23.77
295.424	31.77
295.558	23.77
295.691	0.77
295.825	14.77
295.959	4.77
296.092	8.77
296.226	19.77
296.359	12.77
296.493	2.77
296.627	10.77
296.76	8.77
296.894	19.77
297.027	16.77
297.161	18.77
297.294	4.77
297.428	10.77
297.561	25.77
297.695	-7.23
297.828	-6.23
297.962	-9.23
298.095	7.77
298.229	21.77
298.362	7.77
298.495	-3.23
298.629	-12.23
298.762	4.77
298.896	24.77
299.029	-15.23
299.162	-5.23
299.296	8.77
299.429	13.77
299.563	16.77
299.696	-1.23
299.829	14.77
299.963	17.77
300.096	15.77
300.229	-5.23
300.363	5.77
300.496	15.77
300.629	-7.23
300.763	-5.23
300.896	12.77
301.029	6.77
301.162	27.77
301.296	-5.23
301.429	10.77
301.562	-9.23
301.695	5.77
301.829	4.77
301.962	12.77
302.095	-0.23
302.228	-4.23
302.362	16.77
302.495	-1.23
302.628	1.77
302.761	2.77
302.894	-11.23
303.027	23.77
303.161	-1.23
303.294	6.77
303.427	7.77
303.56	0.77
303.693	-17.23
303.826	-18.23
303.959	21.77
304.092	7.77
304.225	22.77
304.359	-0.23
304.492	-4.23
304.625	-1.23
304.758	-3.23
304.891	-10.23
305.024	8.77
305.157	-13.23
305.29	-3.23
305.423	8.77
305.556	9.77
305.689	39.77
305.822	-4.23
305.955	-7.23
306.088	-6.23
306.221	-14.23
306.354	-20.23
306.487	-23.23
306.62	-6.23
306.752	10.77
306.885	4.77
307.018	6.77
307.151	10.77
307.284	16.77
307.417	-3.23
307.55	10.77
307.683	-3.23
307.816	14.77
307.948	23.77
308.081	-2.23
308.214	16.77
308.347	22.77
308.48	1.77
308.613	-14.23
308.745	24.77
308.878	9.77
309.011	2.77
309.144	13.77
309.277	9.77
309.409	23.77
309.542	-1.23
309.675	18.77
309.808	-2.23
309.94	20.77
310.073	-6.23
310.206	-12.23
310.339	7.77
310.471	-18.23
310.604	18.77
310.737	0.77
310.869	6.77
311.002	0.77
311.135	-19.23
311.267	-10.23
311.4	17.77
311.533	3.77
311.665	-7.23
311.798	9.77
311.93	7.77
312.063	-4.23
312.196	46.77
312.328	106.77
312.461	54.77
312.593	40.77
312.726	51.77
312.859	104.77
312.991	165.77
313.124	24.77
313.256	16.77
313.389	26.77
313.521	-9.23
313.654	-12.23
313.786	-2.23
313.919	-1.23
314.051	0.77
314.184	21.77
314.316	18.77
314.449	-13.23
314.581	2.77
314.714	9.77
314.846	16.77
314.978	8.77
315.111	10.77
315.243	19.77
315.376	26.77
315.508	17.77
315.641	-4.23
315.773	28.77
315.905	11.77
316.038	-3.23
316.17	-5.23
316.302	3.77
316.435	-1.23
316.567	-9.23
316.699	14.77
316.832	-1.23
316.964	7.77
317.096	7.77
317.229	-19.23
317.361	-32.23
317.493	-11.23
317.625	-9.23
317.758	6.77
317.89	10.77
318.022	7.77
318.155	-10.23
318.287	0.77
318.419	2.77
318.551	8.77
318.683	-0.23
318.816	2.77
318.948	-8.23
319.08	-3.23
319.212	5.77
319.344	11.77
319.477	10.77
319.609	0.77
319.741	17.77
319.873	15.77
320.005	2.77
320.137	8.77
320.269	-3.23
320.401	20.77
320.534	14.77
320.666	-0.23
320.798	-15.23
320.93	6.77
321.062	-20.23
321.194	-3.23
321.326	15.77
321.458	31.77
321.59	4.77
321.722	-20.23
321.854	3.77
321.986	-5.23
322.118	7.77
322.25	-4.23
322.382	8.77
322.514	-2.23
322.646	-0.23
322.778	16.77
322.91	-2.23
323.042	-0.23
323.174	2.77
323.306	-17.23
323.438	-5.23
323.57	-9.23
323.702	5.77
323.834	-6.23
323.966	-3.23
324.097	7.77
324.229	9.77
324.361	6.77
324.493	18.77
324.625	19.77
324.757	12.77
324.889	8.77
325.021	6.77
325.152	12.77
325.284	31.77
325.416	6.77
325.548	10.77
325.68	-9.23
325.811	1.77
325.943	11.77
326.075	1.77
326.207	9.77
326.339	8.77
326.47	8.77
326.602	18.77
326.734	17.77
326.866	21.77
326.997	0.77
327.129	8.77
327.261	-3.23
327.392	-8.23
327.524	5.77
327.656	-4.23
327.787	11.77
327.919	13.77
328.051	21.77
328.182	17.77
328.314	25.77
328.446	-3.23
328.577	6.77
328.709	-0.23
328.841	-15.23
328.972	-15.23
329.104	3.77
329.235	-4.23
329.367	10.77
329.499	-4.23
329.63	8.77
329.762	12.77
329.893	14.77
330.025	12.77
330.156	-4.23
330.288	14.77
330.419	26.77
330.551	5.77
330.683	14.77
330.814	4.77
330.946	20.77
331.077	-9.23
331.208	-21.23
331.34	-7.23
331.471	-6.23
331.603	14.77
331.734	-13.23
331.866	-3.23
331.997	-14.23
332.129	4.77
332.26	3.77
332.392	39.77
332.523	7.77
332.654	-2.23
332.786	2.77
332.917	7.77
333.048	18.77
333.18	24.77
333.311	4.77
333.443	14.77
333.574	12.77
333.705	36.77
333.837	52.77
333.968	125.77
334.099	242.77
334.231	219.77
334.362	53.77
334.493	32.77
334.624	24.77
334.756	11.77
334.887	12.77
335.018	15.77
335.15	33.77
335.281	28.77
335.412	19.77
335.543	22.77
335.675	2.77
335.806	11.77
335.937	14.77
336.068	23.77
336.199	46.77
336.331	-0.23
336.462	4.77
336.593	20.77
336.724	12.77
336.855	17.77
336.986	10.77
337.118	12.77
337.249	9.77
337.38	14.77
337.511	22.77
337.642	4.77
337.773	3.77
337.904	14.77
338.035	17.77
338.166	9.77
338.298	10.77
338.429	16.77
338.56	14.77
338.691	29.77
338.822	12.77
338.953	19.77
339.084	17.77
339.215	27.77
339.346	6.77
339.477	8.77
339.608	-7.23
339.739	1.77
339.87	16.77
340.001	2.77
340.132	14.77
340.263	-3.23
340.394	22.77
340.525	11.77
340.656	-4.23
340.787	-9.23
340.918	34.77
341.049	23.77
341.179	34.77
341.31	11.77
341.441	15.77
341.572	18.77
341.703	32.77
341.834	-1.23
341.965	23.77
342.096	12.77
342.227	17.77
342.357	9.77
342.488	40.77
342.619	29.77
342.75	22.77
342.881	15.77
343.012	30.77
343.142	43.77
343.273	24.77
343.404	25.77
343.535	36.77
343.666	29.77
343.796	34.77
343.927	32.77
344.058	24.77
344.189	40.77
344.319	24.77
344.45	17.77
344.581	34.77
344.712	8.77
344.842	28.77
344.973	10.77
345.104	36.77
345.234	32.77
345.365	15.77
345.496	39.77
345.626	28.77
345.757	17.77
345.888	12.77
346.018	14.77
346.149	34.77
346.28	46.77
346.41	13.77
346.541	40.77
346.672	27.77
346.802	32.77
346.933	3.77
347.063	28.77
347.194	33.77
347.325	35.77
347.455	39.77
347.586	19.77
347.716	19.77
347.847	33.77
347.977	42.77
348.108	55.77
348.238	44.77
348.369	30.77
348.499	32.77
348.63	45.77
348.76	47.77
348.891	47.77
349.021	63.77
349.152	54.77
349.282	52.77
349.413	30.77
349.543	44.77
349.674	44.77
349.804	38.77
349.935	16.77
350.065	22.77
350.196	14.77
350.326	26.77
350.456	15.77
350.587	49.77
350.717	43.77
350.848	23.77
350.978	39.77
351.108	21.77
351.239	28.77
351.369	23.77
351.499	23.77
351.63	16.77
351.76	26.77
351.89	36.77
352.021	13.77
352.151	12.77
352.281	36.77
352.412	25.77
352.542	15.77
352.672	17.77
352.803	17.77
352.933	10.77
353.063	31.77
353.193	23.77
353.324	20.77
353.454	24.77
353.584	36.77
353.714	11.77
353.845	5.77
353.975	-0.23
354.105	4.77
354.235	33.77
354.365	22.77
354.496	8.77
354.626	33.77
354.756	33.77
354.886	19.77
355.016	18.77
355.146	22.77
355.277	28.77
355.407	39.77
355.537	34.77
355.667	36.77
355.797	24.77
355.927	7.77
356.057	33.77
356.187	12.77
356.318	20.77
356.448	15.77
356.578	17.77
356.708	50.77
356.838	32.77
356.968	38.77
357.098	28.77
357.228	40.77
357.358	30.77
357.488	27.77
357.618	34.77
357.748	32.77
357.878	35.77
358.008	16.77
358.138	21.77
358.268	19.77
358.398	44.77
358.528	11.77
358.658	31.77
358.788	18.77
358.918	25.77
359.048	32.77
359.178	38.77
359.308	29.77
359.438	45.77
359.568	46.77
359.698	29.77
359.827	15.77
359.957	30.77
360.087	40.77
360.217	22.77
360.347	32.77
360.477	42.77
360.607	21.77
360.737	42.77
360.866	18.77
360.996	29.77
361.126	30.77
361.256	44.77
361.386	44.77
361.516	45.77
361.645	31.77
361.775	37.77
361.905	21.77
362.035	65.77
362.165	53.77
362.294	56.77
362.424	55.77
362.554	62.77
362.684	27.77
362.813	54.77
362.943	60.77
363.073	64.77
363.203	52.77
363.332	80.77
363.462	87.77
363.592	119.77
363.721	132.77
363.851	169.77
363.981	222.77
364.111	239.77
364.24	314.77
364.37	500.77
364.5	869.77
364.629	1881.77
364.759	3958.77
364.888	6388.77
365.018	9569.77
365.148	14886.77
365.277	13191.77
365.407	4854.77
365.537	3179.77
365.666	4135.77
365.796	1871.77
365.925	813.77
366.055	800.77
366.184	1045.77
366.314	1373.77
366.444	2527.77
366.573	2185.77
366.703	681.77
366.832	234.77
366.962	110.77
367.091	87.77
367.221	80.77
367.35	72.77
367.48	76.77
367.609	53.77
367.739	76.77
367.868	53.77
367.998	46.77
368.127	54.77
368.257	61.77
368.386	66.77
368.516	58.77
368.645	31.77
368.775	59.77
368.904	52.77
369.033	29.77
369.163	12.77
369.292	49.77
369.422	22.77
369.551	69.77
369.68	64.77
369.81	59.77
369.939	41.77
370.069	48.77
370.198	38.77
370.327	28.77
370.457	44.77
370.586	51.77
370.715	42.77
370.845	48.77
370.974	62.77
371.103	55.77
371.233	62.77
371.362	63.77
371.491	31.77
371.621	58.77
371.75	51.77
371.879	55.77
372.008	50.77
372.138	61.77
372.267	50.77
372.396	57.77
372.525	45.77
372.655	19.77
372.784	37.77
372.913	23.77
373.042	42.77
373.172	50.77
373.301	-0.23
373.43	-6.23
373.559	26.77
373.688	37.77
373.818	16.77
373.947	24.77
374.076	5.77
374.205	25.77
374.334	20.77
374.463	-7.23
374.593	16.77
374.722	26.77
374.851	41.77
374.98	22.77
375.109	9.77
375.238	44.77
375.367	52.77
375.496	25.77
375.625	23.77
375.755	32.77
375.884	36.77
376.013	23.77
376.142	4.77
376.271	10.77
376.4	19.77
376.529	24.77
376.658	43.77
376.787	12.77
376.916	10.77
377.045	22.77
377.174	8.77
377.303	12.77
377.432	43.77
377.561	39.77
377.69	34.77
377.819	68.77
377.948	27.77
378.077	-5.23
378.206	2.77
378.335	19.77
378.464	17.77
378.593	36.77
378.722	12.77
378.851	-1.23
378.98	25.77
379.108	11.77
379.237	2.77
379.366	34.77
379.495	37.77
379.624	14.77
379.753	16.77
379.882	11.77
380.011	0.77
380.14	11.77
380.268	-0.23
380.397	0.77
380.526	34.77
380.655	35.77
380.784	5.77
380.913	22.77
381.041	23.77
381.17	10.77
381.299	8.77
381.428	34.77
381.557	23.77
381.685	37.77
381.814	15.77
381.943	12.77
382.072	26.77
382.2	11.77
382.329	-5.23
382.458	1.77
382.587	14.77
382.715	49.77
382.844	22.77
382.973	23.77
383.102	31.77
383.23	14.77
383.359	1.77
383.488	29.77
383.616	24.77
383.745	7.77
383.874	26.77
384.003	12.77
384.131	24.77
384.26	17.77
384.389	26.77
384.517	4.77
384.646	15.77
384.774	20.77
384.903	33.77
385.032	47.77
385.16	30.77
385.289	26.77
385.418	27.77
385.546	18.77
385.675	35.77
385.803	14.77
385.932	13.77
386.06	19.77
386.189	26.77
386.318	31.77
386.446	19.77
386.575	-2.23
386.703	26.77
386.832	14.77
386.96	8.77
387.089	39.77
387.217	27.77
387.346	19.77
387.474	19.77
387.603	17.77
387.731	24.77
387.86	40.77
387.988	27.77
388.117	18.77
388.245	1.77
388.374	17.77
388.502	31.77
388.631	16.77
388.759	30.77
388.888	25.77
389.016	23.77
389.144	8.77
389.273	29.77
389.401	-5.23
389.53	2.77
389.658	32.77
389.786	15.77
389.915	9.77
390.043	25.77
390.172	39.77
390.3	45.77
390.428	46.77
390.557	32.77
390.685	56.77
390.813	50.77
390.942	37.77
391.07	35.77
391.198	30.77
391.327	23.77
391.455	19.77
391.583	57.77
391.712	35.77
391.84	23.77
391.968	24.77
392.096	36.77
392.225	25.77
392.353	26.77
392.481	42.77
392.609	34.77
392.738	14.77
392.866	36.77
392.994	34.77
393.122	42.77
393.251	19.77
393.379	7.77
393.507	13.77
393.635	23.77
393.764	21.77
393.892	43.77
394.02	23.77
394.148	25.77
394.276	30.77
394.404	59.77
394.533	25.77
394.661	15.77
394.789	33.77
394.917	56.77
395.045	16.77
395.173	16.77
395.302	11.77
395.43	49.77
395.558	51.77
395.686	35.77
395.814	54.77
395.942	33.77
396.07	36.77
396.198	37.77
396.326	30.77
396.454	36.77
396.582	33.77
396.711	32.77
396.839	44.77
396.967	33.77
397.095	16.77
397.223	28.77
397.351	47.77
397.479	34.77
397.607	45.77
397.735	56.77
397.863	47.77
397.991	59.77
398.119	24.77
398.247	35.77
398.375	63.77
398.503	52.77
398.631	59.77
398.759	42.77
398.887	43.77
399.015	34.77
399.143	51.77
399.271	79.77
399.399	70.77
399.526	61.77
399.654	81.77
399.782	66.77
399.91	85.77
400.038	94.77
400.166	83.77
400.294	79.77
400.422	63.77
400.55	115.77
400.678	109.77
400.805	115.77
400.933	120.77
401.061	130.77
401.189	127.77
401.317	134.77
401.445	97.77
401.573	82.77
401.7	51.77
401.828	53.77
401.956	48.77
402.084	59.77
402.212	39.77
402.34	45.77
402.467	40.77
402.595	42.77
402.723	37.77
402.851	63.77
402.978	64.77
403.106	80.77
403.234	70.77
403.362	110.77
403.489	118.77
403.617	151.77
403.745	202.77
403.873	276.77
404	563.77
404.128	1518.77
404.256	4019.77
404.384	5242.77
404.511	5606.77
404.639	7400.77
404.767	11712.77
404.894	14818.77
405.022	5053.77
405.15	1356.77
405.277	417.77
405.405	253.77
405.533	130.77
405.66	110.77
405.788	76.77
405.916	95.77
406.043	34.77
406.171	59.77
406.299	52.77
406.426	64.77
406.554	53.77
406.681	84.77
406.809	50.77
406.937	56.77
407.064	66.77
407.192	130.77
407.319	331.77
407.447	524.77
407.574	554.77
407.702	630.77
407.83	873.77
407.957	1632.77
408.085	921.77
408.212	289.77
408.34	115.77
408.467	61.77
408.595	54.77
408.722	54.77
408.85	57.77
408.977	35.77
409.105	30.77
409.232	34.77
409.36	37.77
409.487	35.77
409.615	34.77
409.742	42.77
409.87	27.77
409.997	36.77
410.125	46.77
410.252	33.77
410.379	29.77
410.507	52.77
410.634	20.77
410.762	33.77
410.889	52.77
411.017	40.77
411.144	35.77
411.271	23.77
411.399	35.77
411.526	28.77
411.653	43.77
411.781	40.77
411.908	31.77
412.036	28.77
412.163	32.77
412.29	28.77
412.418	34.77
412.545	31.77
412.672	27.77
412.8	58.77
412.927	36.77
413.054	38.77
413.182	28.77
413.309	41.77
413.436	11.77
413.564	27.77
413.691	49.77
413.818	58.77
413.945	31.77
414.073	32.77
414.2	18.77
414.327	42.77
414.454	55.77
414.582	22.77
414.709	32.77
414.836	45.77
414.963	22.77
415.091	46.77
415.218	36.77
415.345	29.77
415.472	36.77
415.6	-0.23
415.727	43.77
415.854	40.77
415.981	13.77
416.108	37.77
416.236	31.77
416.363	32.77
416.49	22.77
416.617	22.77
416.744	41.77
416.871	49.77
416.998	22.77
417.126	25.77
417.253	29.77
417.38	28.77
417.507	34.77
417.634	45.77
417.761	31.77
417.888	41.77
418.015	32.77
418.143	35.77
418.27	42.77
418.397	32.77
418.524	22.77
418.651	36.77
418.778	43.77
418.905	42.77
419.032	39.77
419.159	35.77
419.286	60.77
419.413	34.77
419.54	45.77
419.667	32.77
419.794	37.77
419.921	60.77
420.048	58.77
420.175	47.77
420.302	56.77
420.429	62.77
420.556	70.77
420.683	41.77
420.81	59.77
420.937	81.77
421.064	78.77
421.191	47.77
421.318	64.77
421.445	74.77
421.572	74.77
421.699	50.77
421.826	64.77
421.953	49.77
422.08	28.77
422.207	22.77
422.334	11.77
422.461	36.77
422.588	20.77
422.714	31.77
422.841	32.77
422.968	43.77
423.095	30.77
423.222	20.77
423.349	36.77
423.476	38.77
423.603	16.77
423.729	15.77
423.856	25.77
423.983	38.77
424.11	1.77
424.237	24.77
424.364	45.77
424.491	6.77
424.617	2.77
424.744	8.77
424.871	23.77
424.998	19.77
425.125	17.77
425.251	18.77
425.378	20.77
425.505	24.77
425.632	31.77
425.758	10.77
425.885	20.77
426.012	14.77
426.139	39.77
426.266	24.77
426.392	15.77
426.519	41.77
426.646	15.77
426.772	38.77
426.899	38.77
427.026	21.77
427.153	39.77
427.279	43.77
427.406	34.77
427.533	36.77
427.659	22.77
427.786	27.77
427.913	45.77
428.039	32.77
428.166	6.77
428.293	28.77
428.419	23.77
428.546	26.77
428.673	10.77
428.799	10.77
428.926	20.77
429.053	41.77
429.179	40.77
429.306	36.77
429.433	37.77
429.559	27.77
429.686	11.77
429.812	37.77
429.939	9.77
430.066	27.77
430.192	32.77
430.319	38.77
430.445	26.77
430.572	41.77
430.699	23.77
430.825	13.77
430.952	24.77
431.078	42.77
431.205	44.77
431.331	41.77
431.458	33.77
431.584	40.77
431.711	4.77
431.837	16.77
431.964	30.77
432.09	47.77
432.217	7.77
432.343	22.77
432.47	37.77
432.596	38.77
432.723	13.77
432.849	4.77
432.976	42.77
433.102	32.77
433.229	25.77
433.355	61.77
433.482	82.77
433.608	116.77
433.735	105.77
433.861	98.77
433.987	143.77
434.114	177.77
434.24	169.77
434.367	201.77
434.493	243.77
434.62	273.77
434.746	378.77
434.872	635.77
434.999	841.77
435.125	1766.77
435.252	5678.77
435.378	13603.77
435.504	15304.77
435.631	15495.77
435.757	15685.77
435.883	15685.77
436.01	15685.77
436.136	15685.77
436.262	15685.77
436.389	3571.77
436.515	2805.77
436.641	932.77
436.768	687.77
436.894	418.77
437.02	415.77
437.147	307.77
437.273	315.77
437.399	229.77
437.526	265.77
437.652	183.77
437.778	201.77
437.904	153.77
438.031	165.77
438.157	139.77
438.283	156.77
438.409	109.77
438.536	123.77
438.662	138.77
438.788	135.77
438.914	119.77
439.041	98.77
439.167	120.77
439.293	101.77
439.419	113.77
439.546	106.77
439.672	94.77
439.798	86.77
439.924	71.77
440.05	92.77
440.177	69.77
440.303	87.77
440.429	65.77
440.555	72.77
440.681	58.77
440.807	72.77
440.934	60.77
441.06	49.77
441.186	65.77
441.312	65.77
441.438	46.77
441.564	63.77
441.69	86.77
441.816	55.77
441.943	47.77
442.069	68.77
442.195	56.77
442.321	59.77
442.447	51.77
442.573	61.77
442.699	31.77
442.825	47.77
442.951	50.77
443.077	56.77
443.203	56.77
443.33	43.77
443.456	31.77
443.582	43.77
443.708	38.77
443.834	71.77
443.96	54.77
444.086	50.77
444.212	57.77
444.338	57.77
444.464	62.77
444.59	68.77
444.716	56.77
444.842	49.77
444.968	40.77
445.094	47.77
445.22	40.77
445.346	33.77
445.472	39.77
445.598	35.77
445.724	32.77
445.85	31.77
445.976	46.77
446.102	52.77
446.228	40.77
446.354	26.77
446.48	38.77
446.605	57.77
446.731	26.77
446.857	26.77
446.983	43.77
447.109	34.77
447.235	35.77
447.361	36.77
447.487	36.77
447.613	46.77
447.739	27.77
447.865	32.77
447.99	50.77
448.116	40.77
448.242	34.77
448.368	46.77
448.494	35.77
448.62	53.77
448.746	30.77
448.872	37.77
448.997	22.77
449.123	26.77
449.249	33.77
449.375	36.77
449.501	19.77
449.627	24.77
449.752	61.77
449.878	16.77
450.004	15.77
450.13	38.77
450.256	23.77
450.381	17.77
450.507	45.77
450.633	37.77
450.759	25.77
450.884	22.77
451.01	49.77
451.136	24.77
451.262	31.77
451.388	31.77
451.513	18.77
451.639	25.77
451.765	26.77
451.89	33.77
452.016	26.77
452.142	29.77
452.268	47.77
452.393	27.77
452.519	22.77
452.645	43.77
452.771	20.77
452.896	24.77
453.022	15.77
453.148	36.77
453.273	37.77
453.399	23.77
453.525	13.77
453.65	32.77
453.776	22.77
453.902	38.77
454.027	30.77
454.153	32.77
454.279	36.77
454.404	12.77
454.53	22.77
454.656	30.77
454.781	38.77
454.907	36.77
455.032	31.77
455.158	30.77
455.284	37.77
455.409	18.77
455.535	28.77
455.66	17.77
455.786	35.77
455.912	36.77
456.037	22.77
456.163	24.77
456.288	24.77
456.414	18.77
456.539	19.77
456.665	34.77
456.791	19.77
456.916	29.77
457.042	28.77
457.167	12.77
457.293	26.77
457.418	36.77
457.544	27.77
457.669	12.77
457.795	30.77
457.92	40.77
458.046	30.77
458.171	46.77
458.297	27.77
458.422	23.77
458.548	10.77
458.673	22.77
458.799	11.77
458.924	29.77
459.05	17.77
459.175	31.77
459.301	27.77
459.426	20.77
459.552	22.77
459.677	28.77
459.803	27.77
459.928	26.77
460.053	29.77
460.179	45.77
460.304	35.77
460.43	28.77
460.555	26.77
460.681	12.77
460.806	24.77
460.931	28.77
461.057	28.77
461.182	22.77
461.308	27.77
461.433	36.77
461.558	11.77
461.684	45.77
461.809	44.77
461.934	25.77
462.06	24.77
462.185	14.77
462.311	19.77
462.436	15.77
462.561	37.77
462.687	32.77
462.812	18.77
462.937	20.77
463.063	6.77
463.188	14.77
463.313	26.77
463.439	14.77
463.564	22.77
463.689	29.77
463.814	32.77
463.94	29.77
464.065	39.77
464.19	37.77
464.316	8.77
464.441	15.77
464.566	26.77
464.692	14.77
464.817	0.77
464.942	41.77
465.067	32.77
465.193	7.77
465.318	30.77
465.443	35.77
465.568	38.77
465.694	39.77
465.819	40.77
465.944	45.77
466.069	32.77
466.194	40.77
466.32	37.77
466.445	39.77
466.57	28.77
466.695	14.77
466.82	45.77
466.946	48.77
467.071	31.77
467.196	16.77
467.321	40.77
467.446	27.77
467.572	36.77
467.697	31.77
467.822	37.77
467.947	43.77
468.072	20.77
468.197	20.77
468.323	20.77
468.448	26.77
468.573	18.77
468.698	26.77
468.823	26.77
468.948	33.77
469.073	28.77
469.198	40.77
469.324	70.77
469.449	31.77
469.574	73.77
469.699	49.77
469.824	37.77
469.949	39.77
470.074	45.77
470.199	55.77
470.324	37.77
470.449	43.77
470.574	20.77
470.7	27.77
470.825	39.77
470.95	56.77
471.075	31.77
471.2	44.77
471.325	53.77
471.45	43.77
471.575	40.77
471.7	36.77
471.825	24.77
471.95	40.77
472.075	20.77
472.2	22.77
472.325	29.77
472.45	30.77
472.575	26.77
472.7	43.77
472.825	60.77
472.95	45.77
473.075	35.77
473.2	16.77
473.325	45.77
473.45	49.77
473.575	47.77
473.7	41.77
473.825	34.77
473.95	19.77
474.075	18.77
474.2	17.77
474.325	17.77
474.45	30.77
474.574	38.77
474.699	36.77
474.824	29.77
474.949	5.77
475.074	18.77
475.199	25.77
475.324	28.77
475.449	26.77
475.574	19.77
475.699	39.77
475.824	9.77
475.949	23.77
476.073	12.77
476.198	-0.23
476.323	33.77
476.448	23.77
476.573	18.77
476.698	40.77
476.823	49.77
476.947	34.77
477.072	39.77
477.197	30.77
477.322	10.77
477.447	22.77
477.572	30.77
477.697	19.77
477.821	10.77
477.946	20.77
478.071	36.77
478.196	22.77
478.321	33.77
478.445	23.77
478.57	-1.23
478.695	3.77
478.82	34.77
478.945	34.77
479.069	14.77
479.194	19.77
479.319	23.77
479.444	32.77
479.569	18.77
479.693	31.77
479.818	7.77
479.943	25.77
480.068	16.77
480.192	29.77
480.317	25.77
480.442	17.77
480.567	16.77
480.691	14.77
480.816	11.77
480.941	11.77
481.066	32.77
481.19	29.77
481.315	22.77
481.44	-0.23
481.564	12.77
481.689	12.77
481.814	27.77
481.938	24.77
482.063	14.77
482.188	20.77
482.313	26.77
482.437	11.77
482.562	19.77
482.687	35.77
482.811	32.77
482.936	25.77
483.061	22.77
483.185	36.77
483.31	42.77
483.435	23.77
483.559	12.77
483.684	19.77
483.808	62.77
483.933	22.77
484.058	24.77
484.182	12.77
484.307	18.77
484.432	28.77
484.556	6.77
484.681	8.77
484.805	33.77
484.93	15.77
485.055	42.77
485.179	48.77
485.304	28.77
485.428	22.77
485.553	18.77
485.678	10.77
485.802	12.77
485.927	22.77
486.051	29.77
486.176	35.77
486.3	16.77
486.425	16.77
486.549	37.77
486.674	43.77
486.799	30.77
486.923	12.77
487.048	21.77
487.172	11.77
487.297	10.77
487.421	34.77
487.546	36.77
487.67	26.77
487.795	7.77
487.919	19.77
488.044	34.77
488.168	18.77
488.293	26.77
488.417	26.77
488.542	39.77
488.666	39.77
488.791	41.77
488.915	36.77
489.04	33.77
489.164	44.77
489.289	35.77
489.413	27.77
489.538	34.77
489.662	16.77
489.786	11.77
489.911	20.77
490.035	20.77
490.16	18.77
490.284	22.77
490.409	16.77
490.533	23.77
490.658	46.77
490.782	46.77
490.906	50.77
491.031	108.77
491.155	156.77
491.28	163.77
491.404	157.77
491.528	247.77
491.653	142.77
491.777	45.77
491.902	11.77
492.026	32.77
492.15	28.77
492.275	49.77
492.399	20.77
492.524	16.77
492.648	44.77
492.772	19.77
492.897	34.77
493.021	29.77
493.145	38.77
493.27	34.77
493.394	9.77
493.518	24.77
493.643	18.77
493.767	38.77
493.891	-0.23
494.016	14.77
494.14	14.77
494.264	38.77
494.389	33.77
494.513	15.77
494.637	30.77
494.762	33.77
494.886	39.77
495.01	17.77
495.134	32.77
495.259	52.77
495.383	26.77
495.507	31.77
495.632	32.77
495.756	45.77
495.88	28.77
496.004	20.77
496.129	15.77
496.253	28.77
496.377	36.77
496.501	55.77
496.626	18.77
496.75	15.77
496.874	11.77
496.998	6.77
497.123	23.77
497.247	30.77
497.371	22.77
497.495	24.77
497.62	19.77
497.744	42.77
497.868	31.77
497.992	27.77
498.116	12.77
498.241	19.77
498.365	21.77
498.489	29.77
498.613	35.77
498.737	24.77
498.862	18.77
498.986	9.77
499.11	5.77
499.234	31.77
499.358	15.77
499.482	12.77
499.607	20.77
499.731	22.77
499.855	42.77
499.979	10.77
500.103	36.77
500.227	26.77
500.351	31.77
500.476	30.77
500.6	14.77
500.724	33.77
500.848	36.77
500.972	31.77
501.096	9.77
501.22	43.77
501.344	22.77
501.469	16.77
501.593	16.77
501.717	33.77
501.841	28.77
501.965	26.77
502.089	7.77
502.213	25.77
502.337	9.77
502.461	9.77
502.585	7.77
502.709	27.77
502.834	20.77
502.958	19.77
503.082	31.77
503.206	25.77
503.33	39.77
503.454	36.77
503.578	22.77
503.702	19.77
503.826	27.77
503.95	35.77
504.074	17.77
504.198	28.77
504.322	7.77
504.446	13.77
504.57	27.77
504.694	30.77
504.818	12.77
504.942	29.77
505.066	31.77
505.19	17.77
505.314	17.77
505.438	7.77
505.562	10.77
505.686	42.77
505.81	9.77
505.934	20.77
506.058	17.77
506.182	15.77
506.306	31.77
506.43	5.77
506.554	24.77
506.678	26.77
506.802	9.77
506.926	34.77
507.05	14.77
507.174	22.77
507.298	28.77
507.422	19.77
507.546	25.77
507.67	35.77
507.794	22.77
507.918	20.77
508.042	24.77
508.165	15.77
508.289	15.77
508.413	13.77
508.537	29.77
508.661	27.77
508.785	28.77
508.909	26.77
509.033	26.77
509.157	36.77
509.281	24.77
509.405	38.77
509.528	42.77
509.652	59.77
509.776	36.77
509.9	39.77
510.024	33.77
510.148	34.77
510.272	34.77
510.396	43.77
510.519	38.77
510.643	46.77
510.767	43.77
510.891	39.77
511.015	29.77
511.139	40.77
511.263	49.77
511.386	41.77
511.51	56.77
511.634	50.77
511.758	44.77
511.882	34.77
512.006	46.77
512.129	60.77
512.253	88.77
512.377	70.77
512.501	86.77
512.625	94.77
512.748	77.77
512.872	62.77
512.996	50.77
513.12	53.77
513.244	54.77
513.367	81.77
513.491	72.77
513.615	82.77
513.739	83.77
513.862	89.77
513.986	90.77
514.11	105.77
514.234	88.77
514.358	103.77
514.481	115.77
514.605	102.77
514.729	112.77
514.853	110.77
514.976	98.77
515.1	83.77
515.224	126.77
515.348	85.77
515.471	87.77
515.595	113.77
515.719	123.77
515.842	224.77
515.966	292.77
516.09	317.77
516.214	308.77
516.337	343.77
516.461	259.77
516.585	82.77
516.708	39.77
516.832	45.77
516.956	35.77
517.08	34.77
517.203	8.77
517.327	21.77
517.451	29.77
517.574	54.77
517.698	15.77
517.822	4.77
517.945	23.77
518.069	18.77
518.193	46.77
518.316	36.77
518.44	29.77
518.564	4.77
518.687	9.77
518.811	24.77
518.935	54.77
519.058	11.77
519.182	20.77
519.306	36.77
519.429	17.77
519.553	43.77
519.676	31.77
519.8	25.77
519.924	28.77
520.047	25.77
520.171	39.77
520.294	16.77
520.418	25.77
520.542	16.77
520.665	37.77
520.789	18.77
520.913	11.77
521.036	-3.23
521.16	14.77
521.283	17.77
521.407	9.77
521.53	19.77
521.654	7.77
521.778	29.77
521.901	10.77
522.025	20.77
522.148	2.77
522.272	15.77
522.395	12.77
522.519	26.77
522.643	-0.23
522.766	23.77
522.89	35.77
523.013	24.77
523.137	5.77
523.26	15.77
523.384	23.77
523.507	19.77
523.631	12.77
523.754	7.77
523.878	18.77
524.002	15.77
524.125	32.77
524.249	12.77
524.372	25.77
524.496	14.77
524.619	22.77
524.743	16.77
524.866	-3.23
524.99	9.77
525.113	-2.23
525.237	30.77
525.36	22.77
525.484	3.77
525.607	14.77
525.731	-1.23
525.854	32.77
525.978	49.77
526.101	27.77
526.224	17.77
526.348	16.77
526.471	14.77
526.595	25.77
526.718	7.77
526.842	22.77
526.965	16.77
527.089	24.77
527.212	16.77
527.336	12.77
527.459	23.77
527.582	2.77
527.706	25.77
527.829	18.77
527.953	28.77
528.076	3.77
528.2	6.77
528.323	28.77
528.446	26.77
528.57	6.77
528.693	26.77
528.817	8.77
528.94	36.77
529.064	35.77
529.187	20.77
529.31	2.77
529.434	7.77
529.557	23.77
529.68	27.77
529.804	10.77
529.927	15.77
530.051	7.77
530.174	8.77
530.297	-1.23
530.421	11.77
530.544	30.77
530.668	15.77
530.791	8.77
530.914	40.77
531.038	29.77
531.161	26.77
531.284	23.77
531.408	13.77
531.531	10.77
531.654	8.77
531.778	23.77
531.901	14.77
532.024	22.77
532.148	0.77
532.271	10.77
532.394	9.77
532.518	27.77
532.641	22.77
532.764	26.77
532.888	6.77
533.011	8.77
533.134	2.77
533.258	28.77
533.381	7.77
533.504	19.77
533.628	18.77
533.751	26.77
533.874	10.77
533.997	19.77
534.121	20.77
534.244	22.77
534.367	7.77
534.491	31.77
534.614	7.77
534.737	11.77
534.86	34.77
534.984	15.77
535.107	6.77
535.23	23.77
535.354	7.77
535.477	-4.23
535.6	26.77
535.723	31.77
535.847	42.77
535.97	22.77
536.093	19.77
536.216	1.77
536.34	27.77
536.463	15.77
536.586	18.77
536.709	24.77
536.833	38.77
536.956	29.77
537.079	20.77
537.202	33.77
537.325	12.77
537.449	13.77
537.572	34.77
537.695	6.77
537.818	29.77
537.941	21.77
538.065	14.77
538.188	6.77
538.311	14.77
538.434	20.77
538.558	24.77
538.681	12.77
538.804	34.77
538.927	35.77
539.05	48.77
539.173	17.77
539.297	7.77
539.42	21.77
539.543	18.77
539.666	48.77
539.789	42.77
539.913	23.77
540.036	24.77
540.159	7.77
540.282	12.77
540.405	9.77
540.528	9.77
540.651	36.77
540.775	20.77
540.898	34.77
541.021	33.77
541.144	34.77
541.267	41.77
541.39	30.77
541.513	41.77
541.637	52.77
541.76	37.77
541.883	35.77
542.006	36.77
542.129	39.77
542.252	23.77
542.375	31.77
542.498	33.77
542.622	45.77
542.745	48.77
542.868	43.77
542.991	68.77
543.114	46.77
543.237	63.77
543.36	66.77
543.483	54.77
543.606	68.77
543.73	81.77
543.853	87.77
543.976	90.77
544.099	120.77
544.222	138.77
544.345	132.77
544.468	168.77
544.591	231.77
544.714	285.77
544.837	338.77
544.96	473.77
545.083	674.77
545.206	1084.77
545.329	2493.77
545.453	11107.77
545.576	15277.77
545.699	15685.77
545.822	15685.77
545.945	15685.77
546.068	15685.77
546.191	15685.77
546.314	15685.77
546.437	15685.77
546.56	15685.77
546.683	15685.77
546.806	15685.77
546.929	15685.77
547.052	15685.77
547.175	15685.77
547.298	15685.77
547.421	15685.77
547.544	15685.77
547.667	4413.77
547.79	5630.77
547.913	1582.77
548.036	1050.77
548.159	704.77
548.282	688.77
548.405	518.77
548.528	522.77
548.651	413.77
548.774	427.77
548.897	354.77
549.02	362.77
549.143	328.77
549.266	307.77
549.389	269.77
549.512	248.77
549.635	266.77
549.758	260.77
549.881	211.77
550.004	221.77
550.127	208.77
550.25	194.77
550.373	161.77
550.496	173.77
550.619	156.77
550.742	160.77
550.865	137.77
550.988	154.77
551.111	169.77
551.234	155.77
551.356	139.77
551.479	148.77
551.602	125.77
551.725	133.77
551.848	156.77
551.971	147.77
552.094	120.77
552.217	119.77
552.34	106.77
552.463	108.77
552.586	100.77
552.709	104.77
552.832	110.77
552.955	114.77
553.077	118.77
553.2	124.77
553.323	101.77
553.446	116.77
553.569	88.77
553.692	91.77
553.815	106.77
553.938	106.77
554.061	100.77
554.184	83.77
554.306	89.77
554.429	84.77
554.552	81.77
554.675	71.77
554.798	88.77
554.921	90.77
555.044	82.77
555.167	79.77
555.29	84.77
555.412	72.77
555.535	66.77
555.658	74.77
555.781	79.77
555.904	78.77
556.027	74.77
556.15	83.77
556.272	90.77
556.395	89.77
556.518	76.77
556.641	76.77
556.764	91.77
556.887	89.77
557.01	67.77
557.132	65.77
557.255	66.77
557.378	73.77
557.501	80.77
557.624	72.77
557.747	82.77
557.869	76.77
557.992	104.77
558.115	104.77
558.238	95.77
558.361	94.77
558.483	113.77
558.606	78.77
558.729	62.77
558.852	93.77
558.975	74.77
559.098	61.77
559.22	66.77
559.343	52.77
559.466	42.77
559.589	56.77
559.712	52.77
559.834	47.77
559.957	46.77
560.08	60.77
560.203	65.77
560.325	71.77
560.448	81.77
560.571	59.77
560.694	44.77
560.817	81.77
560.939	64.77
561.062	64.77
561.185	60.77
561.308	65.77
561.43	50.77
561.553	77.77
561.676	63.77
561.799	67.77
561.921	76.77
562.044	59.77
562.167	46.77
562.29	71.77
562.413	73.77
562.535	75.77
562.658	38.77
562.781	56.77
562.903	53.77
563.026	88.77
563.149	143.77
563.272	131.77
563.394	135.77
563.517	94.77
563.64	72.77
563.763	37.77
563.885	55.77
564.008	60.77
564.131	31.77
564.254	16.77
564.376	42.77
564.499	16.77
564.622	48.77
564.744	60.77
564.867	42.77
564.99	31.77
565.113	52.77
565.235	31.77
565.358	26.77
565.481	24.77
565.603	37.77
565.726	31.77
565.849	42.77
565.971	44.77
566.094	39.77
566.217	33.77
566.34	25.77
566.462	34.77
566.585	52.77
566.708	75.77
566.83	43.77
566.953	46.77
567.076	31.77
567.198	19.77
567.321	27.77
567.444	38.77
567.566	36.77
567.689	40.77
567.812	37.77
567.934	38.77
568.057	30.77
568.18	31.77
568.302	34.77
568.425	22.77
568.548	48.77
568.67	32.77
568.793	36.77
568.916	30.77
569.038	43.77
569.161	35.77
569.283	19.77
569.406	35.77
569.529	35.77
569.651	44.77
569.774	9.77
569.897	32.77
570.019	49.77
570.142	50.77
570.265	49.77
570.387	33.77
570.51	47.77
570.632	38.77
570.755	25.77
570.878	34.77
571	47.77
571.123	38.77
571.246	51.77
571.368	38.77
571.491	36.77
571.613	36.77
571.736	15.77
571.859	41.77
571.981	23.77
572.104	30.77
572.226	50.77
572.349	22.77
572.472	32.77
572.594	26.77
572.717	42.77
572.839	23.77
572.962	29.77
573.085	56.77
573.207	43.77
573.33	54.77
573.452	44.77
573.575	35.77
573.697	45.77
573.82	28.77
573.943	26.77
574.065	35.77
574.188	48.77
574.31	52.77
574.433	29.77
574.555	52.77
574.678	26.77
574.801	42.77
574.923	30.77
575.046	38.77
575.168	22.77
575.291	46.77
575.413	37.77
575.536	39.77
575.659	57.77
575.781	32.77
575.904	48.77
576.026	66.77
576.149	77.77
576.271	145.77
576.394	190.77
576.516	534.77
576.639	3725.77
576.761	10417.77
576.884	9018.77
577.007	8950.77
577.129	8252.77
577.252	3831.77
577.374	1342.77
577.497	540.77
577.619	292.77
577.742	189.77
577.864	168.77
577.987	138.77
578.109	143.77
578.232	151.77
578.354	165.77
578.477	198.77
578.599	396.77
578.722	2005.77
578.844	9287.77
578.967	9966.77
579.089	8994.77
579.212	9285.77
579.334	5433.77
579.457	1987.77
579.579	698.77
579.702	339.77
579.824	218.77
579.947	141.77
580.069	107.77
580.192	80.77
580.314	92.77
580.437	78.77
580.559	78.77
580.682	67.77
580.804	67.77
580.927	73.77
581.049	65.77
581.172	51.77
581.294	56.77
581.417	61.77
581.539	57.77
581.662	49.77
581.784	65.77
581.907	58.77
582.029	39.77
582.152	40.77
582.274	49.77
582.396	24.77
582.519	34.77
582.641	35.77
582.764	24.77
582.886	46.77
583.009	34.77
583.131	29.77
583.254	45.77
583.376	52.77
583.499	45.77
583.621	31.77
583.743	42.77
583.866	42.77
583.988	39.77
584.111	41.77
584.233	57.77
584.356	41.77
584.478	41.77
584.601	3.77
584.723	16.77
584.845	50.77
584.968	27.77
585.09	11.77
585.213	44.77
585.335	29.77
585.458	21.77
585.58	24.77
585.702	49.77
585.825	31.77
585.947	42.77
586.07	15.77
586.192	21.77
586.315	28.77
586.437	16.77
586.559	18.77
586.682	23.77
586.804	39.77
586.927	15.77
587.049	15.77
587.171	27.77
587.294	34.77
587.416	46.77
587.539	27.77
587.661	28.77
587.783	18.77
587.906	24.77
588.028	33.77
588.151	20.77
588.273	42.77
588.395	23.77
588.518	23.77
588.64	24.77
588.763	40.77
588.885	26.77
589.007	39.77
589.13	34.77
589.252	14.77
589.375	31.77
589.497	16.77
589.619	20.77
589.742	27.77
589.864	35.77
589.986	33.77
590.109	14.77
590.231	17.77
590.354	34.77
590.476	15.77
590.598	16.77
590.721	12.77
590.843	29.77
590.965	32.77
591.088	30.77
591.21	39.77
591.332	27.77
591.455	6.77
591.577	-7.23
591.7	23.77
591.822	31.77
591.944	26.77
592.067	26.77
592.189	34.77
592.311	39.77
592.434	22.77
592.556	35.77
592.678	22.77
592.801	15.77
592.923	29.77
593.045	22.77
593.168	48.77
593.29	21.77
593.412	12.77
593.535	14.77
593.657	31.77
593.779	30.77
593.902	37.77
594.024	16.77
594.146	35.77
594.269	26.77
594.391	11.77
594.513	33.77
594.636	22.77
594.758	27.77
594.88	31.77
595.003	23.77
595.125	13.77
595.247	46.77
595.37	32.77
595.492	20.77
595.614	38.77
595.737	23.77
595.859	17.77
595.981	19.77
596.104	31.77
596.226	13.77
596.348	14.77
596.471	32.77
596.593	22.77
596.715	17.77
596.838	17.77
596.96	0.77
597.082	23.77
597.204	15.77
597.327	21.77
597.449	33.77
597.571	21.77
597.694	35.77
597.816	29.77
597.938	36.77
598.061	24.77
598.183	26.77
598.305	34.77
598.427	30.77
598.55	25.77
598.672	22.77
598.794	29.77
598.917	12.77
599.039	18.77
599.161	18.77
599.283	29.77
599.406	37.77
599.528	37.77
599.65	48.77
599.773	32.77
599.895	34.77
600.017	32.77
600.139	16.77
600.262	11.77
600.384	8.77
600.506	45.77
600.628	36.77
600.751	41.77
600.873	34.77
600.995	37.77
601.118	28.77
601.24	19.77
601.362	46.77
601.484	26.77
601.607	32.77
601.729	22.77
601.851	16.77
601.973	15.77
602.096	35.77
602.218	37.77
602.34	16.77
602.462	34.77
602.585	27.77
602.707	5.77
602.829	22.77
602.951	29.77
603.074	18.77
603.196	14.77
603.318	15.77
603.44	36.77
603.563	24.77
603.685	7.77
603.807	17.77
603.929	11.77
604.052	17.77
604.174	28.77
604.296	42.77
604.418	32.77
604.541	41.77
604.663	34.77
604.785	19.77
604.907	27.77
605.03	23.77
605.152	60.77
605.274	25.77
605.396	21.77
605.519	16.77
605.641	20.77
605.763	22.77
605.885	28.77
606.008	21.77
606.13	19.77
606.252	40.77
606.374	6.77
606.496	25.77
606.619	26.77
606.741	30.77
606.863	47.77
606.985	37.77
607.108	19.77
607.23	30.77
607.352	23.77
607.474	12.77
607.596	31.77
607.719	8.77
607.841	18.77
607.963	19.77
608.085	24.77
608.207	39.77
608.33	23.77
608.452	12.77
608.574	32.77
608.696	42.77
608.819	25.77
608.941	29.77
609.063	13.77
609.185	18.77
609.307	30.77
609.43	18.77
609.552	33.77
609.674	16.77
609.796	24.77
609.918	35.77
610.041	11.77
610.163	12.77
610.285	9.77
610.407	39.77
610.529	26.77
610.652	37.77
610.774	26.77
610.896	7.77
611.018	11.77
611.14	15.77
611.263	23.77
611.385	18.77
611.507	19.77
611.629	20.77
611.751	33.77
611.873	58.77
611.996	18.77
612.118	43.77
612.24	24.77
612.362	34.77
612.484	59.77
612.607	31.77
612.729	45.77
612.851	32.77
612.973	4.77
613.095	22.77
613.218	24.77
613.34	42.77
613.462	28.77
613.584	31.77
613.706	16.77
613.828	42.77
613.951	8.77
614.073	0.77
614.195	10.77
614.317	31.77
614.439	23.77
614.561	34.77
614.684	22.77
614.806	30.77
614.928	24.77
615.05	40.77
615.172	12.77
615.294	35.77
615.417	27.77
615.539	22.77
615.661	9.77
615.783	44.77
615.905	28.77
616.027	23.77
616.15	29.77
616.272	10.77
616.394	9.77
616.516	23.77
616.638	15.77
616.76	18.77
616.883	13.77
617.005	24.77
617.127	23.77
617.249	41.77
617.371	30.77
617.493	42.77
617.615	40.77
617.738	28.77
617.86	16.77
617.982	19.77
618.104	26.77
618.226	14.77
618.348	6.77
618.471	22.77
618.593	18.77
618.715	6.77
618.837	14.77
618.959	24.77
619.081	26.77
619.203	21.77
619.326	50.77
619.448	53.77
619.57	60.77
619.692	47.77
619.814	29.77
619.936	26.77
620.058	36.77
620.181	19.77
620.303	22.77
620.425	34.77
620.547	25.77
620.669	11.77
620.791	28.77
620.913	31.77
621.036	22.77
621.158	25.77
621.28	34.77
621.402	20.77
621.524	15.77
621.646	31.77
621.768	22.77
621.891	-4.23
622.013	27.77
622.135	5.77
622.257	6.77
622.379	16.77
622.501	35.77
622.623	17.77
622.745	19.77
622.868	26.77
622.99	27.77
623.112	18.77
623.234	19.77
623.356	30.77
623.478	-8.23
623.6	39.77
623.722	19.77
623.845	33.77
623.967	21.77
624.089	22.77
624.211	15.77
624.333	13.77
624.455	31.77
624.577	25.77
624.699	48.77
624.822	36.77
624.944	6.77
625.066	20.77
625.188	-5.23
625.31	11.77
625.432	25.77
625.554	19.77
625.676	40.77
625.799	22.77
625.921	29.77
626.043	17.77
626.165	18.77
626.287	-3.23
626.409	36.77
626.531	14.77
626.653	4.77
626.775	22.77
626.898	38.77
627.02	37.77
627.142	63.77
627.264	29.77
627.386	17.77
627.508	6.77
627.63	-0.23
627.752	26.77
627.874	15.77
627.997	16.77
628.119	32.77
628.241	29.77
628.363	24.77
628.485	27.77
628.607	18.77
628.729	15.77
628.851	6.77
628.973	11.77
629.096	17.77
629.218	24.77
629.34	8.77
629.462	10.77
629.584	9.77
629.706	18.77
629.828	25.77
629.95	28.77
630.072	7.77
630.195	26.77
630.317	24.77
630.439	27.77
630.561	22.77
630.683	14.77
630.805	13.77
630.927	25.77
631.049	15.77
631.171	12.77
631.293	12.77
631.416	17.77
631.538	15.77
631.66	14.77
631.782	23.77
631.904	16.77
632.026	21.77
632.148	24.77
632.27	8.77
632.392	18.77
632.514	20.77
632.637	28.77
632.759	2.77
632.881	6.77
633.003	2.77
633.125	12.77
633.247	14.77
633.369	28.77
633.491	33.77
633.613	20.77
633.735	27.77
633.858	25.77
633.98	15.77
634.102	18.77
634.224	14.77
634.346	7.77
634.468	33.77
634.59	24.77
634.712	13.77
634.834	23.77
634.956	6.77
635.078	7.77
635.201	2.77
635.323	18.77
635.445	10.77
635.567	0.77
635.689	16.77
635.811	22.77
635.933	19.77
636.055	19.77
636.177	7.77
636.299	16.77
636.421	14.77
636.544	-2.23
636.666	14.77
636.788	25.77
636.91	17.77
637.032	19.77
637.154	25.77
637.276	31.77
637.398	28.77
637.52	27.77
637.642	12.77
637.764	19.77
637.887	10.77
638.009	36.77
638.131	18.77
638.253	3.77
638.375	22.77
638.497	38.77
638.619	11.77
638.741	2.77
638.863	-2.23
638.985	12.77
639.107	0.77
639.23	7.77
639.352	29.77
639.474	3.77
639.596	7.77
639.718	22.77
639.84	17.77
639.962	17.77
640.084	22.77
640.206	23.77
640.328	15.77
640.45	10.77
640.573	8.77
640.695	26.77
640.817	13.77
640.939	39.77
641.061	-14.23
641.183	11.77
641.305	9.77
641.427	3.77
641.549	31.77
641.671	38.77
641.793	16.77
641.915	32.77
642.038	-1.23
642.16	6.77
642.282	15.77
642.404	7.77
642.526	39.77
642.648	16.77
642.77	17.77
642.892	15.77
643.014	34.77
643.136	16.77
643.258	13.77
643.381	40.77
643.503	23.77
643.625	15.77
643.747	-6.23
643.869	11.77
643.991	21.77
644.113	23.77
644.235	20.77
644.357	18.77
644.479	19.77
644.601	30.77
644.723	24.77
644.846	20.77
644.968	13.77
645.09	3.77
645.212	-6.23
645.334	8.77
645.456	23.77
645.578	36.77
645.7	23.77
645.822	35.77
645.944	10.77
646.066	27.77
646.188	8.77
646.311	16.77
646.433	23.77
646.555	26.77
646.677	15.77
646.799	14.77
646.921	19.77
647.043	29.77
647.165	5.77
647.287	12.77
647.409	3.77
647.531	34.77
647.654	15.77
647.776	7.77
647.898	3.77
648.02	8.77
648.142	13.77
648.264	14.77
648.386	6.77
648.508	6.77
648.63	19.77
648.752	12.77
648.874	12.77
648.997	9.77
649.119	34.77
649.241	17.77
649.363	35.77
649.485	3.77
649.607	3.77
649.729	3.77
649.851	-3.23
649.973	11.77
650.095	1.77
650.217	-9.23
650.34	2.77
650.462	20.77
650.584	22.77
650.706	28.77
650.828	16.77
650.95	8.77
651.072	1.77
651.194	-6.23
651.316	8.77
651.438	0.77
651.56	-3.23
651.683	11.77
651.805	20.77
651.927	2.77
652.049	9.77
652.171	17.77
652.293	21.77
652.415	11.77
652.537	4.77
652.659	-0.23
652.781	-2.23
652.903	16.77
653.026	28.77
653.148	24.77
653.27	21.77
653.392	11.77
653.514	17.77
653.636	9.77
653.758	10.77
653.88	-0.23
654.002	1.77
654.124	15.77
654.247	10.77
654.369	16.77
654.491	0.77
654.613	6.77
654.735	17.77
654.857	19.77
654.979	23.77
655.101	29.77
655.223	35.77
655.345	23.77
655.468	16.77
655.59	24.77
655.712	26.77
655.834	23.77
655.956	22.77
656.078	21.77
656.2	15.77
656.322	11.77
656.444	-4.23
656.566	19.77
656.689	-0.23
656.811	-3.23
656.933	32.77
657.055	-0.23
657.177	6.77
657.299	8.77
657.421	8.77
657.543	-7.23
657.665	8.77
657.787	18.77
657.91	-1.23
658.032	20.77
658.154	0.77
658.276	2.77
658.398	-4.23
658.52	14.77
658.642	18.77
658.764	15.77
658.886	-4.23
659.009	7.77
659.131	35.77
659.253	24.77
659.375	21.77
659.497	10.77
659.619	24.77
659.741	18.77
659.863	14.77
659.985	10.77
660.108	23.77
660.23	-4.23
660.352	14.77
660.474	24.77
660.596	28.77
660.718	3.77
660.84	16.77
660.962	15.77
661.084	4.77
661.207	6.77
661.329	11.77
661.451	18.77
661.573	13.77
661.695	37.77
661.817	29.77
661.939	36.77
662.061	37.77
662.184	12.77
662.306	2.77
662.428	13.77
662.55	22.77
662.672	2.77
662.794	15.77
662.916	16.77
663.038	8.77
663.161	36.77
663.283	24.77
663.405	16.77
663.527	-1.23
663.649	28.77
663.771	10.77
663.893	-1.23
664.015	10.77
664.138	8.77
664.26	16.77
664.382	13.77
664.504	6.77
664.626	-2.23
664.748	7.77
664.87	-1.23
664.992	9.77
665.115	20.77
665.237	-16.23
665.359	26.77
665.481	30.77
665.603	16.77
665.725	20.77
665.847	1.77
665.97	10.77
666.092	17.77
666.214	12.77
666.336	1.77
666.458	-6.23
666.58	15.77
666.702	9.77
666.825	6.77
666.947	14.77
667.069	13.77
667.191	0.77
667.313	29.77
667.435	7.77
667.557	-7.23
667.68	6.77
667.802	11.77
667.924	10.77
668.046	5.77
668.168	25.77
668.29	39.77
668.412	16.77
668.535	21.77
668.657	12.77
668.779	-1.23
668.901	30.77
669.023	33.77
669.145	17.77
669.267	9.77
669.39	12.77
669.512	5.77
669.634	9.77
669.756	-0.23
669.878	6.77
670	30.77
670.123	16.77
670.245	23.77
670.367	8.77
670.489	14.77
670.611	26.77
670.733	20.77
670.856	22.77
670.978	28.77
671.1	11.77
671.222	11.77
671.344	-0.23
671.466	8.77
671.589	4.77
671.711	-3.23
671.833	10.77
671.955	13.77
672.077	11.77
672.199	20.77
672.322	35.77
672.444	14.77
672.566	29.77
672.688	14.77
672.81	31.77
672.932	35.77
673.055	23.77
673.177	8.77
673.299	18.77
673.421	-3.23
673.543	11.77
673.665	32.77
673.788	32.77
673.91	9.77
674.032	-1.23
674.154	8.77
674.276	26.77
674.399	-3.23
674.521	15.77
674.643	12.77
674.765	-9.23
674.887	17.77
675.009	18.77
675.132	6.77
675.254	-7.23
675.376	-3.23
675.498	26.77
675.62	58.77
675.743	23.77
675.865	18.77
675.987	10.77
676.109	12.77
676.231	22.77
676.354	36.77
676.476	8.77
676.598	29.77
676.72	20.77
676.842	31.77
676.965	19.77
677.087	-0.23
677.209	19.77
677.331	22.77
677.453	5.77
677.576	23.77
677.698	19.77
677.82	29.77
677.942	2.77
678.064	6.77
678.187	6.77
678.309	17.77
678.431	16.77
678.553	16.77
678.675	32.77
678.798	25.77
678.92	9.77
679.042	0.77
679.164	3.77
679.286	25.77
679.409	10.77
679.531	-0.23
679.653	18.77
679.775	5.77
679.898	15.77
680.02	8.77
680.142	11.77
680.264	13.77
680.386	9.77
680.509	8.77
680.631	10.77
680.753	11.77
680.875	7.77
680.998	8.77
681.12	10.77
681.242	23.77
681.364	-4.23
681.486	15.77
681.609	7.77
681.731	-6.23
681.853	-5.23
681.975	1.77
682.098	28.77
682.22	24.77
682.342	9.77
682.464	31.77
682.587	8.77
682.709	7.77
682.831	-4.23
682.953	-2.23
683.076	0.77
683.198	17.77
683.32	18.77
683.442	16.77
683.565	14.77
683.687	3.77
683.809	5.77
683.931	-10.23
684.054	23.77
684.176	14.77
684.298	17.77
684.42	9.77
684.543	2.77
684.665	1.77
684.787	-2.23
684.909	6.77
685.032	27.77
685.154	4.77
685.276	21.77
685.398	20.77
685.521	14.77
685.643	25.77
685.765	19.77
685.887	16.77
686.01	13.77
686.132	8.77
686.254	18.77
686.377	10.77
686.499	6.77
686.621	19.77
686.743	17.77
686.866	6.77
686.988	19.77
687.11	33.77
687.232	23.77
687.355	3.77
687.477	18.77
687.599	32.77
687.722	-0.23
687.844	24.77
687.966	20.77
688.088	25.77
688.211	26.77
688.333	23.77
688.455	18.77
688.578	16.77
688.7	33.77
688.822	18.77
688.944	2.77
689.067	31.77
689.189	18.77
689.311	-4.23
689.434	11.77
689.556	12.77
689.678	7.77
689.801	-5.23
689.923	17.77
690.045	34.77
690.167	26.77
690.29	30.77
690.412	22.77
690.534	11.77
690.657	20.77
690.779	14.77
690.901	12.77
691.024	12.77
691.146	7.77
691.268	6.77
691.391	11.77
691.513	20.77
691.635	25.77
691.758	15.77
691.88	19.77
692.002	4.77
692.125	6.77
692.247	8.77
692.369	27.77
692.492	-1.23
692.614	14.77
692.736	3.77
692.859	12.77
692.981	14.77
693.103	12.77
693.226	8.77
693.348	32.77
693.47	28.77
693.593	35.77
693.715	34.77
693.837	13.77
693.96	3.77
694.082	-2.23
694.204	23.77
694.327	27.77
694.449	1.77
694.571	20.77
694.694	30.77
694.816	13.77
694.938	20.77
695.061	28.77
695.183	27.77
695.305	18.77
695.428	7.77
695.55	-12.23
695.672	13.77
695.795	13.77
695.917	33.77
696.04	10.77
696.162	10.77
696.284	9.77
696.407	13.77
696.529	12.77
696.651	33.77
696.774	2.77
696.896	28.77
697.019	10.77
697.141	4.77
697.263	1.77
697.386	-9.23
697.508	8.77
697.63	14.77
697.753	24.77
697.875	2.77
697.998	12.77
698.12	27.77
698.242	28.77
698.365	10.77
698.487	14.77
698.61	15.77
698.732	14.77
698.854	17.77
698.977	23.77
699.099	26.77
699.221	22.77
699.344	4.77
699.466	13.77
699.589	11.77
699.711	-3.23
699.834	26.77
699.956	15.77
700.078	11.77
700.201	2.77
700.323	16.77
700.446	-0.23
700.568	-7.23
700.69	13.77
700.813	18.77
700.935	6.77
701.058	13.77
701.18	16.77
701.302	-0.23
701.425	3.77
701.547	25.77
701.67	18.77
701.792	0.77
701.915	4.77
702.037	7.77
702.159	6.77
702.282	12.77
702.404	-0.23
702.527	6.77
702.649	10.77
702.772	23.77
702.894	3.77
703.017	17.77
703.139	19.77
703.261	34.77
703.384	17.77
703.506	8.77
703.629	11.77
703.751	28.77
703.874	10.77
703.996	13.77
704.119	-1.23
704.241	8.77
704.364	7.77
704.486	22.77
704.608	29.77
704.731	20.77
704.853	19.77
704.976	7.77
705.098	24.77
705.221	19.77
705.343	17.77
705.466	32.77
705.588	18.77
705.711	0.77
705.833	26.77
705.956	0.77
706.078	7.77
706.201	28.77
706.323	31.77
706.446	14.77
