Data from LowRes_mercury_15_20_11_07_2024_HR4C61881__20__15-23-34-271.txt Node

Date: Thu Nov 07 15:23:34 EST 2024
User: crc00042
Spectrometer: HR4C6188
Trigger mode: 4
Integration Time (sec): 1.000000E-1
Scans to average: 1
Electric dark correction enabled: true
Nonlinearity correction enabled: false
Boxcar width: 0
XAxis mode: Wavelengths
Number of Pixels in Spectrum: 3648
>>>>>Begin Spectral Data<<<<<
245.66	-56.85
245.797	-56.85
245.934	-56.85
246.071	-65.85
246.208	18.15
246.344	4.15
246.481	-5.85
246.618	1.15
246.755	12.15
246.892	-0.85
247.029	-8.85
247.165	-17.85
247.302	3.15
247.439	-3.85
247.576	25.15
247.713	-11.85
247.849	12.15
247.986	-8.85
248.123	0.15
248.26	-2.85
248.396	15.15
248.533	13.15
248.67	-5.85
248.806	7.15
248.943	-15.85
249.08	-7.85
249.216	9.15
249.353	-23.85
249.49	-16.85
249.626	-10.85
249.763	-5.85
249.9	-18.85
250.036	25.15
250.173	8.15
250.309	-14.85
250.446	-5.85
250.582	-3.85
250.719	5.15
250.856	4.15
250.992	-14.85
251.129	-18.85
251.265	-26.85
251.402	-4.85
251.538	-0.85
251.675	-5.85
251.811	11.15
251.948	18.15
252.084	9.15
252.221	-0.85
252.357	-0.85
252.493	35.15
252.63	1.15
252.766	5.15
252.903	10.15
253.039	-23.85
253.175	9.15
253.312	6.15
253.448	4.15
253.585	-20.85
253.721	-8.85
253.857	-5.85
253.994	-8.85
254.13	1.15
254.266	5.15
254.403	-1.85
254.539	2.15
254.675	8.15
254.811	1.15
254.948	8.15
255.084	-10.85
255.22	-1.85
255.356	15.15
255.493	2.15
255.629	9.15
255.765	-6.85
255.901	13.15
256.037	-14.85
256.174	8.15
256.31	-3.85
256.446	31.15
256.582	4.15
256.718	9.15
256.854	14.15
256.991	22.15
257.127	6.15
257.263	11.15
257.399	-3.85
257.535	-5.85
257.671	3.15
257.807	-13.85
257.943	-21.85
258.079	-31.85
258.215	5.15
258.351	27.15
258.487	9.15
258.623	29.15
258.759	16.15
258.895	-4.85
259.031	-6.85
259.167	-2.85
259.303	1.15
259.439	4.15
259.575	-7.85
259.711	5.15
259.847	-2.85
259.983	6.15
260.119	-11.85
260.255	3.15
260.391	8.15
260.527	7.15
260.663	13.15
260.799	11.15
260.934	6.15
261.07	9.15
261.206	2.15
261.342	-8.85
261.478	13.15
261.614	15.15
261.749	17.15
261.885	-4.85
262.021	0.15
262.157	13.15
262.293	-14.85
262.428	-29.85
262.564	-27.85
262.7	1.15
262.836	-0.85
262.971	15.15
263.107	7.15
263.243	26.15
263.378	7.15
263.514	-21.85
263.65	-7.85
263.785	-6.85
263.921	-6.85
264.057	-7.85
264.192	16.15
264.328	12.15
264.464	-14.85
264.599	-1.85
264.735	5.15
264.871	3.15
265.006	2.15
265.142	-1.85
265.277	10.15
265.413	14.15
265.548	11.15
265.684	12.15
265.819	-2.85
265.955	-12.85
266.091	-12.85
266.226	-9.85
266.362	-3.85
266.497	-10.85
266.633	1.15
266.768	-18.85
266.903	19.15
267.039	10.15
267.174	16.15
267.31	-2.85
267.445	-2.85
267.581	-8.85
267.716	23.15
267.851	26.15
267.987	10.15
268.122	24.15
268.258	1.15
268.393	-9.85
268.528	11.15
268.664	5.15
268.799	-14.85
268.934	-0.85
269.07	-6.85
269.205	11.15
269.34	29.15
269.476	1.15
269.611	-26.85
269.746	9.15
269.881	13.15
270.017	8.15
270.152	-6.85
270.287	12.15
270.422	20.15
270.558	-6.85
270.693	21.15
270.828	-8.85
270.963	-0.85
271.098	-11.85
271.234	-8.85
271.369	17.15
271.504	11.15
271.639	-6.85
271.774	-2.85
271.909	12.15
272.045	-8.85
272.18	2.15
272.315	-6.85
272.45	21.15
272.585	9.15
272.72	-1.85
272.855	0.15
272.99	10.15
273.125	8.15
273.26	-3.85
273.395	-6.85
273.53	-19.85
273.665	27.15
273.8	-13.85
273.935	-11.85
274.07	4.15
274.205	18.15
274.34	-8.85
274.475	0.15
274.61	6.15
274.745	8.15
274.88	12.15
275.015	-3.85
275.15	-0.85
275.285	22.15
275.42	5.15
275.555	16.15
275.69	24.15
275.825	3.15
275.959	-9.85
276.094	-4.85
276.229	-2.85
276.364	3.15
276.499	-3.85
276.634	-11.85
276.768	-8.85
276.903	-3.85
277.038	11.15
277.173	2.15
277.308	3.15
277.442	-6.85
277.577	-14.85
277.712	6.15
277.847	-2.85
277.981	13.15
278.116	-26.85
278.251	4.15
278.386	6.15
278.52	1.15
278.655	2.15
278.79	22.15
278.924	-7.85
279.059	10.15
279.194	-14.85
279.328	38.15
279.463	8.15
279.598	26.15
279.732	9.15
279.867	5.15
280.001	3.15
280.136	-6.85
280.271	13.15
280.405	14.15
280.54	13.15
280.674	-4.85
280.809	10.15
280.943	-5.85
281.078	2.15
281.213	16.15
281.347	4.15
281.482	18.15
281.616	-4.85
281.751	-6.85
281.885	-29.85
282.02	-2.85
282.154	-4.85
282.288	-19.85
282.423	-11.85
282.557	-4.85
282.692	4.15
282.826	-6.85
282.961	3.15
283.095	-3.85
283.229	-6.85
283.364	-6.85
283.498	-5.85
283.633	9.15
283.767	11.15
283.901	5.15
284.036	5.15
284.17	9.15
284.304	0.15
284.439	-3.85
284.573	3.15
284.707	7.15
284.842	4.15
284.976	-8.85
285.11	-25.85
285.244	6.15
285.379	56.15
285.513	-5.85
285.647	-5.85
285.781	10.15
285.916	13.15
286.05	9.15
286.184	24.15
286.318	17.15
286.453	5.15
286.587	-7.85
286.721	-3.85
286.855	12.15
286.989	4.15
287.123	4.15
287.258	7.15
287.392	7.15
287.526	12.15
287.66	9.15
287.794	6.15
287.928	-4.85
288.062	11.15
288.196	3.15
288.33	8.15
288.464	16.15
288.598	11.15
288.733	9.15
288.867	19.15
289.001	0.15
289.135	-21.85
289.269	-17.85
289.403	4.15
289.537	-0.85
289.671	13.15
289.805	-21.85
289.939	5.15
290.073	-1.85
290.207	-7.85
290.34	-7.85
290.474	8.15
290.608	-2.85
290.742	-3.85
290.876	10.15
291.01	-2.85
291.144	19.15
291.278	15.15
291.412	2.15
291.546	-5.85
291.679	6.15
291.813	14.15
291.947	0.15
292.081	-13.85
292.215	4.15
292.349	11.15
292.482	5.15
292.616	1.15
292.75	6.15
292.884	-2.85
293.018	-3.85
293.151	-25.85
293.285	12.15
293.419	14.15
293.553	-9.85
293.686	1.15
293.82	17.15
293.954	13.15
294.088	21.15
294.221	9.15
294.355	-10.85
294.489	-3.85
294.622	-10.85
294.756	2.15
294.89	13.15
295.023	-3.85
295.157	17.15
295.291	16.15
295.424	20.15
295.558	12.15
295.691	-12.85
295.825	11.15
295.959	-8.85
296.092	-9.85
296.226	-3.85
296.359	12.15
296.493	13.15
296.627	8.15
296.76	5.15
296.894	-5.85
297.027	13.15
297.161	28.15
297.294	-11.85
297.428	-12.85
297.561	15.15
297.695	8.15
297.828	4.15
297.962	-3.85
298.095	2.15
298.229	1.15
298.362	-5.85
298.495	-11.85
298.629	-16.85
298.762	-4.85
298.896	-15.85
299.029	-16.85
299.162	-9.85
299.296	21.15
299.429	-4.85
299.563	-1.85
299.696	6.15
299.829	1.15
299.963	16.15
300.096	12.15
300.229	-7.85
300.363	15.15
300.496	15.15
300.629	-16.85
300.763	-3.85
300.896	15.15
301.029	-0.85
301.162	-3.85
301.296	-16.85
301.429	4.15
301.562	-17.85
301.695	1.15
301.829	5.15
301.962	13.15
302.095	9.15
302.228	7.15
302.362	-0.85
302.495	-14.85
302.628	10.15
302.761	-4.85
302.894	2.15
303.027	24.15
303.161	-12.85
303.294	-14.85
303.427	3.15
303.56	11.15
303.693	-11.85
303.826	1.15
303.959	-7.85
304.092	0.15
304.225	-14.85
304.359	14.15
304.492	8.15
304.625	-0.85
304.758	3.15
304.891	-13.85
305.024	-1.85
305.157	-8.85
305.29	-32.85
305.423	-3.85
305.556	11.15
305.689	11.15
305.822	1.15
305.955	14.15
306.088	-0.85
306.221	6.15
306.354	-8.85
306.487	-2.85
306.62	-7.85
306.752	0.15
306.885	5.15
307.018	6.15
307.151	1.15
307.284	12.15
307.417	2.15
307.55	12.15
307.683	-0.85
307.816	5.15
307.948	-8.85
308.081	6.15
308.214	25.15
308.347	17.15
308.48	-10.85
308.613	-14.85
308.745	10.15
308.878	-3.85
309.011	-2.85
309.144	15.15
309.277	-9.85
309.409	5.15
309.542	-3.85
309.675	6.15
309.808	-0.85
309.94	13.15
310.073	-8.85
310.206	-2.85
310.339	15.15
310.471	4.15
310.604	32.15
310.737	6.15
310.869	13.15
311.002	-0.85
311.135	3.15
311.267	5.15
311.4	0.15
311.533	27.15
311.665	-2.85
311.798	7.15
311.93	8.15
312.063	25.15
312.196	37.15
312.328	100.15
312.461	68.15
312.593	51.15
312.726	65.15
312.859	107.15
312.991	154.15
313.124	53.15
313.256	33.15
313.389	8.15
313.521	1.15
313.654	-3.85
313.786	1.15
313.919	5.15
314.051	3.15
314.184	8.15
314.316	-5.85
314.449	-15.85
314.581	-24.85
314.714	-9.85
314.846	-4.85
314.978	-12.85
315.111	-8.85
315.243	15.15
315.376	4.15
315.508	5.15
315.641	14.15
315.773	7.15
315.905	-4.85
316.038	-7.85
316.17	-8.85
316.302	7.15
316.435	-4.85
316.567	-4.85
316.699	23.15
316.832	-3.85
316.964	-16.85
317.096	-4.85
317.229	-6.85
317.361	-4.85
317.493	10.15
317.625	-14.85
317.758	-3.85
317.89	9.15
318.022	-0.85
318.155	13.15
318.287	-1.85
318.419	9.15
318.551	4.15
318.683	15.15
318.816	-0.85
318.948	-10.85
319.08	-17.85
319.212	7.15
319.344	7.15
319.477	-15.85
319.609	7.15
319.741	5.15
319.873	-5.85
320.005	3.15
320.137	17.15
320.269	-3.85
320.401	-2.85
320.534	-17.85
320.666	-23.85
320.798	-17.85
320.93	1.15
321.062	-7.85
321.194	-3.85
321.326	7.15
321.458	12.15
321.59	16.15
321.722	-23.85
321.854	2.15
321.986	11.15
322.118	-3.85
322.25	-6.85
322.382	-3.85
322.514	-10.85
322.646	0.15
322.778	17.15
322.91	14.15
323.042	-11.85
323.174	3.15
323.306	-8.85
323.438	-15.85
323.57	5.15
323.702	10.15
323.834	9.15
323.966	-5.85
324.097	5.15
324.229	19.15
324.361	25.15
324.493	-0.85
324.625	-1.85
324.757	4.15
324.889	4.15
325.021	5.15
325.152	29.15
325.284	7.15
325.416	4.15
325.548	17.15
325.68	3.15
325.811	22.15
325.943	13.15
326.075	-8.85
326.207	-2.85
326.339	-1.85
326.47	-4.85
326.602	24.15
326.734	24.15
326.866	15.15
326.997	-2.85
327.129	-0.85
327.261	-32.85
327.392	2.15
327.524	0.15
327.656	19.15
327.787	17.15
327.919	13.15
328.051	16.15
328.182	27.15
328.314	28.15
328.446	10.15
328.577	8.15
328.709	-4.85
328.841	-8.85
328.972	-8.85
329.104	-1.85
329.235	17.15
329.367	-2.85
329.499	9.15
329.63	-6.85
329.762	-3.85
329.893	12.15
330.025	6.15
330.156	-8.85
330.288	7.15
330.419	22.15
330.551	-3.85
330.683	11.15
330.814	-11.85
330.946	9.15
331.077	-15.85
331.208	3.15
331.34	-8.85
331.471	6.15
331.603	7.15
331.734	-4.85
331.866	-1.85
331.997	1.15
332.129	8.15
332.26	7.15
332.392	-6.85
332.523	-0.85
332.654	-2.85
332.786	-0.85
332.917	5.15
333.048	21.15
333.18	24.15
333.311	-12.85
333.443	6.15
333.574	7.15
333.705	33.15
333.837	26.15
333.968	116.15
334.099	222.15
334.231	213.15
334.362	56.15
334.493	24.15
334.624	6.15
334.756	20.15
334.887	2.15
335.018	7.15
335.15	5.15
335.281	27.15
335.412	20.15
335.543	18.15
335.675	-6.85
335.806	1.15
335.937	23.15
336.068	13.15
336.199	34.15
336.331	-6.85
336.462	0.15
336.593	17.15
336.724	5.15
336.855	14.15
336.986	20.15
337.118	10.15
337.249	-2.85
337.38	19.15
337.511	3.15
337.642	11.15
337.773	16.15
337.904	10.15
338.035	8.15
338.166	8.15
338.298	22.15
338.429	-7.85
338.56	23.15
338.691	17.15
338.822	1.15
338.953	8.15
339.084	25.15
339.215	39.15
339.346	15.15
339.477	3.15
339.608	12.15
339.739	-13.85
339.87	-8.85
340.001	10.15
340.132	24.15
340.263	3.15
340.394	12.15
340.525	11.15
340.656	-7.85
340.787	-0.85
340.918	29.15
341.049	24.15
341.179	7.15
341.31	12.15
341.441	17.15
341.572	14.15
341.703	20.15
341.834	-0.85
341.965	10.15
342.096	1.15
342.227	9.15
342.357	14.15
342.488	9.15
342.619	12.15
342.75	5.15
342.881	-15.85
343.012	24.15
343.142	39.15
343.273	18.15
343.404	24.15
343.535	37.15
343.666	27.15
343.796	19.15
343.927	35.15
344.058	50.15
344.189	21.15
344.319	32.15
344.45	17.15
344.581	18.15
344.712	-5.85
344.842	22.15
344.973	19.15
345.104	30.15
345.234	11.15
345.365	9.15
345.496	24.15
345.626	19.15
345.757	27.15
345.888	12.15
346.018	33.15
346.149	26.15
346.28	34.15
346.41	17.15
346.541	24.15
346.672	15.15
346.802	38.15
346.933	25.15
347.063	34.15
347.194	18.15
347.325	22.15
347.455	37.15
347.586	16.15
347.716	21.15
347.847	18.15
347.977	35.15
348.108	43.15
348.238	23.15
348.369	32.15
348.499	43.15
348.63	32.15
348.76	42.15
348.891	33.15
349.021	42.15
349.152	59.15
349.282	42.15
349.413	24.15
349.543	57.15
349.674	27.15
349.804	27.15
349.935	14.15
350.065	36.15
350.196	29.15
350.326	25.15
350.456	9.15
350.587	14.15
350.717	-0.85
350.848	23.15
350.978	30.15
351.108	11.15
351.239	20.15
351.369	11.15
351.499	14.15
351.63	32.15
351.76	25.15
351.89	32.15
352.021	21.15
352.151	11.15
352.281	19.15
352.412	18.15
352.542	21.15
352.672	22.15
352.803	15.15
352.933	21.15
353.063	32.15
353.193	31.15
353.324	16.15
353.454	27.15
353.584	19.15
353.714	1.15
353.845	3.15
353.975	19.15
354.105	25.15
354.235	15.15
354.365	19.15
354.496	18.15
354.626	19.15
354.756	32.15
354.886	17.15
355.016	21.15
355.146	11.15
355.277	43.15
355.407	1.15
355.537	30.15
355.667	28.15
355.797	18.15
355.927	2.15
356.057	14.15
356.187	11.15
356.318	16.15
356.448	44.15
356.578	30.15
356.708	28.15
356.838	21.15
356.968	41.15
357.098	31.15
357.228	32.15
357.358	14.15
357.488	21.15
357.618	54.15
357.748	42.15
357.878	22.15
358.008	-2.85
358.138	18.15
358.268	27.15
358.398	40.15
358.528	8.15
358.658	21.15
358.788	23.15
358.918	35.15
359.048	27.15
359.178	39.15
359.308	24.15
359.438	37.15
359.568	33.15
359.698	18.15
359.827	20.15
359.957	19.15
360.087	30.15
360.217	43.15
360.347	24.15
360.477	52.15
360.607	15.15
360.737	32.15
360.866	18.15
360.996	24.15
361.126	21.15
361.256	51.15
361.386	40.15
361.516	43.15
361.645	11.15
361.775	29.15
361.905	29.15
362.035	43.15
362.165	30.15
362.294	35.15
362.424	53.15
362.554	33.15
362.684	36.15
362.813	29.15
362.943	41.15
363.073	23.15
363.203	52.15
363.332	72.15
363.462	82.15
363.592	94.15
363.721	112.15
363.851	164.15
363.981	211.15
364.111	242.15
364.24	308.15
364.37	458.15
364.5	882.15
364.629	1859.15
364.759	3959.15
364.888	6392.15
365.018	9515.15
365.148	14848.15
365.277	13206.15
365.407	4868.15
365.537	3160.15
365.666	4069.15
365.796	1825.15
365.925	800.15
366.055	779.15
366.184	1035.15
366.314	1380.15
366.444	2472.15
366.573	2142.15
366.703	659.15
366.832	215.15
366.962	124.15
367.091	84.15
367.221	62.15
367.35	55.15
367.48	81.15
367.609	44.15
367.739	58.15
367.868	38.15
367.998	65.15
368.127	59.15
368.257	51.15
368.386	47.15
368.516	61.15
368.645	32.15
368.775	58.15
368.904	34.15
369.033	22.15
369.163	23.15
369.292	47.15
369.422	52.15
369.551	31.15
369.68	32.15
369.81	46.15
369.939	20.15
370.069	61.15
370.198	41.15
370.327	25.15
370.457	40.15
370.586	51.15
370.715	13.15
370.845	34.15
370.974	43.15
371.103	54.15
371.233	37.15
371.362	49.15
371.491	29.15
371.621	49.15
371.75	29.15
371.879	34.15
372.008	44.15
372.138	39.15
372.267	73.15
372.396	47.15
372.525	43.15
372.655	22.15
372.784	49.15
372.913	26.15
373.042	36.15
373.172	45.15
373.301	12.15
373.43	2.15
373.559	8.15
373.688	27.15
373.818	55.15
373.947	37.15
374.076	12.15
374.205	32.15
374.334	21.15
374.463	8.15
374.593	26.15
374.722	18.15
374.851	37.15
374.98	20.15
375.109	24.15
375.238	43.15
375.367	41.15
375.496	19.15
375.625	-2.85
375.755	30.15
375.884	31.15
376.013	39.15
376.142	1.15
376.271	21.15
376.4	22.15
376.529	18.15
376.658	29.15
376.787	23.15
376.916	25.15
377.045	8.15
377.174	19.15
377.303	23.15
377.432	23.15
377.561	34.15
377.69	46.15
377.819	14.15
377.948	16.15
378.077	26.15
378.206	14.15
378.335	9.15
378.464	9.15
378.593	30.15
378.722	16.15
378.851	16.15
378.98	34.15
379.108	10.15
379.237	-2.85
379.366	8.15
379.495	29.15
379.624	20.15
379.753	12.15
379.882	24.15
380.011	7.15
380.14	9.15
380.268	14.15
380.397	5.15
380.526	11.15
380.655	8.15
380.784	-6.85
380.913	-6.85
381.041	13.15
381.17	15.15
381.299	-1.85
381.428	11.15
381.557	17.15
381.685	12.15
381.814	23.15
381.943	7.15
382.072	-5.85
382.2	-3.85
382.329	31.15
382.458	1.15
382.587	23.15
382.715	24.15
382.844	31.15
382.973	17.15
383.102	15.15
383.23	26.15
383.359	20.15
383.488	24.15
383.616	14.15
383.745	10.15
383.874	6.15
384.003	20.15
384.131	16.15
384.26	0.15
384.389	30.15
384.517	20.15
384.646	37.15
384.774	19.15
384.903	24.15
385.032	29.15
385.16	13.15
385.289	15.15
385.418	4.15
385.546	27.15
385.675	35.15
385.803	10.15
385.932	30.15
386.06	17.15
386.189	21.15
386.318	35.15
386.446	28.15
386.575	29.15
386.703	31.15
386.832	11.15
386.96	4.15
387.089	44.15
387.217	27.15
387.346	10.15
387.474	28.15
387.603	19.15
387.731	27.15
387.86	29.15
387.988	19.15
388.117	35.15
388.245	1.15
388.374	20.15
388.502	20.15
388.631	-11.85
388.759	-7.85
388.888	11.15
389.016	25.15
389.144	16.15
389.273	33.15
389.401	15.15
389.53	14.15
389.658	11.15
389.786	14.15
389.915	26.15
390.043	8.15
390.172	17.15
390.3	27.15
390.428	34.15
390.557	-1.85
390.685	26.15
390.813	51.15
390.942	44.15
391.07	13.15
391.198	12.15
391.327	28.15
391.455	16.15
391.583	48.15
391.712	39.15
391.84	22.15
391.968	15.15
392.096	21.15
392.225	1.15
392.353	22.15
392.481	25.15
392.609	41.15
392.738	19.15
392.866	32.15
392.994	11.15
393.122	36.15
393.251	21.15
393.379	13.15
393.507	15.15
393.635	23.15
393.764	48.15
393.892	35.15
394.02	14.15
394.148	25.15
394.276	19.15
394.404	50.15
394.533	16.15
394.661	25.15
394.789	28.15
394.917	25.15
395.045	31.15
395.173	2.15
395.302	41.15
395.43	43.15
395.558	38.15
395.686	31.15
395.814	30.15
395.942	13.15
396.07	38.15
396.198	26.15
396.326	34.15
396.454	59.15
396.582	45.15
396.711	6.15
396.839	33.15
396.967	23.15
397.095	20.15
397.223	26.15
397.351	44.15
397.479	38.15
397.607	36.15
397.735	61.15
397.863	42.15
397.991	46.15
398.119	15.15
398.247	47.15
398.375	32.15
398.503	36.15
398.631	56.15
398.759	46.15
398.887	50.15
399.015	40.15
399.143	38.15
399.271	58.15
399.399	64.15
399.526	90.15
399.654	73.15
399.782	40.15
399.91	89.15
400.038	95.15
400.166	80.15
400.294	91.15
400.422	103.15
400.55	119.15
400.678	108.15
400.805	109.15
400.933	99.15
401.061	118.15
401.189	110.15
401.317	125.15
401.445	99.15
401.573	94.15
401.7	53.15
401.828	46.15
401.956	52.15
402.084	55.15
402.212	31.15
402.34	32.15
402.467	40.15
402.595	50.15
402.723	51.15
402.851	66.15
402.978	46.15
403.106	68.15
403.234	70.15
403.362	116.15
403.489	138.15
403.617	149.15
403.745	202.15
403.873	302.15
404	560.15
404.128	1483.15
404.256	3946.15
404.384	5144.15
404.511	5493.15
404.639	7292.15
404.767	11517.15
404.894	14693.15
405.022	4953.15
405.15	1321.15
405.277	429.15
405.405	227.15
405.533	132.15
405.66	111.15
405.788	54.15
405.916	76.15
406.043	56.15
406.171	70.15
406.299	63.15
406.426	57.15
406.554	61.15
406.681	74.15
406.809	66.15
406.937	76.15
407.064	77.15
407.192	133.15
407.319	297.15
407.447	524.15
407.574	567.15
407.702	656.15
407.83	866.15
407.957	1626.15
408.085	971.15
408.212	296.15
408.34	97.15
408.467	69.15
408.595	44.15
408.722	63.15
408.85	45.15
408.977	7.15
409.105	36.15
409.232	36.15
409.36	11.15
409.487	29.15
409.615	14.15
409.742	29.15
409.87	27.15
409.997	47.15
410.125	27.15
410.252	39.15
410.379	29.15
410.507	39.15
410.634	38.15
410.762	27.15
410.889	44.15
411.017	30.15
411.144	36.15
411.271	22.15
411.399	29.15
411.526	25.15
411.653	41.15
411.781	42.15
411.908	37.15
412.036	20.15
412.163	46.15
412.29	39.15
412.418	41.15
412.545	26.15
412.672	14.15
412.8	38.15
412.927	30.15
413.054	43.15
413.182	18.15
413.309	27.15
413.436	24.15
413.564	32.15
413.691	36.15
413.818	24.15
413.945	9.15
414.073	32.15
414.2	35.15
414.327	31.15
414.454	46.15
414.582	35.15
414.709	12.15
414.836	29.15
414.963	37.15
415.091	48.15
415.218	23.15
415.345	39.15
415.472	44.15
415.6	33.15
415.727	22.15
415.854	22.15
415.981	15.15
416.108	34.15
416.236	29.15
416.363	52.15
416.49	20.15
416.617	34.15
416.744	38.15
416.871	46.15
416.998	24.15
417.126	34.15
417.253	10.15
417.38	20.15
417.507	27.15
417.634	36.15
417.761	29.15
417.888	31.15
418.015	27.15
418.143	49.15
418.27	61.15
418.397	32.15
418.524	33.15
418.651	31.15
418.778	44.15
418.905	70.15
419.032	39.15
419.159	34.15
419.286	74.15
419.413	40.15
419.54	48.15
419.667	33.15
419.794	31.15
419.921	44.15
420.048	78.15
420.175	59.15
420.302	49.15
420.429	50.15
420.556	49.15
420.683	35.15
420.81	61.15
420.937	56.15
421.064	77.15
421.191	66.15
421.318	68.15
421.445	86.15
421.572	53.15
421.699	48.15
421.826	39.15
421.953	23.15
422.08	41.15
422.207	14.15
422.334	7.15
422.461	27.15
422.588	12.15
422.714	39.15
422.841	34.15
422.968	27.15
423.095	8.15
423.222	1.15
423.349	14.15
423.476	25.15
423.603	30.15
423.729	13.15
423.856	20.15
423.983	40.15
424.11	23.15
424.237	15.15
424.364	10.15
424.491	27.15
424.617	13.15
424.744	19.15
424.871	23.15
424.998	13.15
425.125	12.15
425.251	34.15
425.378	22.15
425.505	13.15
425.632	16.15
425.758	-0.85
425.885	39.15
426.012	47.15
426.139	27.15
426.266	7.15
426.392	22.15
426.519	44.15
426.646	8.15
426.772	24.15
426.899	30.15
427.026	19.15
427.153	28.15
427.279	45.15
427.406	32.15
427.533	5.15
427.659	7.15
427.786	15.15
427.913	36.15
428.039	7.15
428.166	36.15
428.293	7.15
428.419	41.15
428.546	17.15
428.673	27.15
428.799	-0.85
428.926	9.15
429.053	33.15
429.179	27.15
429.306	29.15
429.433	34.15
429.559	25.15
429.686	9.15
429.812	12.15
429.939	28.15
430.066	21.15
430.192	-2.85
430.319	33.15
430.445	25.15
430.572	14.15
430.699	11.15
430.825	40.15
430.952	28.15
431.078	28.15
431.205	35.15
431.331	33.15
431.458	25.15
431.584	23.15
431.711	11.15
431.837	41.15
431.964	33.15
432.09	19.15
432.217	15.15
432.343	24.15
432.47	42.15
432.596	18.15
432.723	23.15
432.849	29.15
432.976	44.15
433.102	42.15
433.229	53.15
433.355	80.15
433.482	76.15
433.608	102.15
433.735	94.15
433.861	107.15
433.987	147.15
434.114	195.15
434.24	176.15
434.367	229.15
434.493	240.15
434.62	275.15
434.746	399.15
434.872	637.15
434.999	844.15
435.125	1711.15
435.252	5520.15
435.378	13455.15
435.504	15269.15
435.631	15446.15
435.757	15682.15
435.883	15682.15
436.01	15682.15
436.136	15682.15
436.262	15682.15
436.389	3525.15
436.515	2470.15
436.641	859.15
436.768	652.15
436.894	387.15
437.02	396.15
437.147	295.15
437.273	296.15
437.399	205.15
437.526	239.15
437.652	180.15
437.778	191.15
437.904	155.15
438.031	166.15
438.157	136.15
438.283	159.15
438.409	105.15
438.536	109.15
438.662	123.15
438.788	131.15
438.914	110.15
439.041	122.15
439.167	116.15
439.293	103.15
439.419	73.15
439.546	111.15
439.672	81.15
439.798	87.15
439.924	92.15
440.05	103.15
440.177	85.15
440.303	78.15
440.429	72.15
440.555	65.15
440.681	65.15
440.807	69.15
440.934	68.15
441.06	69.15
441.186	46.15
441.312	47.15
441.438	42.15
441.564	67.15
441.69	67.15
441.816	72.15
441.943	38.15
442.069	63.15
442.195	52.15
442.321	59.15
442.447	49.15
442.573	41.15
442.699	14.15
442.825	26.15
442.951	46.15
443.077	62.15
443.203	65.15
443.33	55.15
443.456	27.15
443.582	45.15
443.708	39.15
443.834	55.15
443.96	45.15
444.086	49.15
444.212	47.15
444.338	63.15
444.464	48.15
444.59	45.15
444.716	43.15
444.842	36.15
444.968	29.15
445.094	25.15
445.22	31.15
445.346	35.15
445.472	20.15
445.598	30.15
445.724	34.15
445.85	44.15
445.976	57.15
446.102	51.15
446.228	37.15
446.354	42.15
446.48	31.15
446.605	36.15
446.731	40.15
446.857	13.15
446.983	22.15
447.109	31.15
447.235	25.15
447.361	20.15
447.487	42.15
447.613	32.15
447.739	26.15
447.865	9.15
447.99	29.15
448.116	26.15
448.242	30.15
448.368	28.15
448.494	14.15
448.62	25.15
448.746	25.15
448.872	24.15
448.997	16.15
449.123	24.15
449.249	34.15
449.375	52.15
449.501	23.15
449.627	22.15
449.752	27.15
449.878	4.15
450.004	11.15
450.13	21.15
450.256	16.15
450.381	18.15
450.507	44.15
450.633	37.15
450.759	35.15
450.884	29.15
451.01	30.15
451.136	20.15
451.262	34.15
451.388	55.15
451.513	18.15
451.639	25.15
451.765	27.15
451.89	20.15
452.016	11.15
452.142	25.15
452.268	41.15
452.393	25.15
452.519	12.15
452.645	11.15
452.771	22.15
452.896	25.15
453.022	13.15
453.148	33.15
453.273	40.15
453.399	6.15
453.525	-5.85
453.65	22.15
453.776	35.15
453.902	37.15
454.027	21.15
454.153	35.15
454.279	43.15
454.404	23.15
454.53	35.15
454.656	48.15
454.781	32.15
454.907	40.15
455.032	17.15
455.158	45.15
455.284	47.15
455.409	33.15
455.535	39.15
455.66	32.15
455.786	36.15
455.912	22.15
456.037	-7.85
456.163	33.15
456.288	16.15
456.414	13.15
456.539	13.15
456.665	24.15
456.791	11.15
456.916	32.15
457.042	29.15
457.167	19.15
457.293	12.15
457.418	24.15
457.544	24.15
457.669	39.15
457.795	22.15
457.92	22.15
458.046	25.15
458.171	44.15
458.297	25.15
458.422	23.15
458.548	9.15
458.673	19.15
458.799	21.15
458.924	9.15
459.05	17.15
459.175	22.15
459.301	13.15
459.426	31.15
459.552	23.15
459.677	19.15
459.803	43.15
459.928	12.15
460.053	19.15
460.179	40.15
460.304	45.15
460.43	16.15
460.555	30.15
460.681	20.15
460.806	23.15
460.931	28.15
461.057	44.15
461.182	19.15
461.308	30.15
461.433	43.15
461.558	20.15
461.684	39.15
461.809	40.15
461.934	28.15
462.06	46.15
462.185	17.15
462.311	28.15
462.436	41.15
462.561	15.15
462.687	2.15
462.812	12.15
462.937	16.15
463.063	23.15
463.188	21.15
463.313	25.15
463.439	20.15
463.564	37.15
463.689	42.15
463.814	27.15
463.94	34.15
464.065	31.15
464.19	34.15
464.316	7.15
464.441	23.15
464.566	17.15
464.692	18.15
464.817	26.15
464.942	30.15
465.067	17.15
465.193	3.15
465.318	7.15
465.443	24.15
465.568	30.15
465.694	25.15
465.819	36.15
465.944	27.15
466.069	42.15
466.194	22.15
466.32	23.15
466.445	30.15
466.57	20.15
466.695	17.15
466.82	28.15
466.946	40.15
467.071	30.15
467.196	15.15
467.321	32.15
467.446	42.15
467.572	43.15
467.697	23.15
467.822	43.15
467.947	40.15
468.072	26.15
468.197	26.15
468.323	7.15
468.448	27.15
468.573	21.15
468.698	23.15
468.823	37.15
468.948	33.15
469.073	51.15
469.198	34.15
469.324	50.15
469.449	30.15
469.574	39.15
469.699	49.15
469.824	41.15
469.949	40.15
470.074	40.15
470.199	61.15
470.324	50.15
470.449	36.15
470.574	9.15
470.7	9.15
470.825	29.15
470.95	44.15
471.075	28.15
471.2	58.15
471.325	44.15
471.45	38.15
471.575	27.15
471.7	34.15
471.825	25.15
471.95	13.15
472.075	16.15
472.2	13.15
472.325	38.15
472.45	24.15
472.575	20.15
472.7	38.15
472.825	49.15
472.95	34.15
473.075	45.15
473.2	24.15
473.325	36.15
473.45	45.15
473.575	43.15
473.7	59.15
473.825	43.15
473.95	53.15
474.075	19.15
474.2	9.15
474.325	20.15
474.45	8.15
474.574	25.15
474.699	38.15
474.824	21.15
474.949	11.15
475.074	13.15
475.199	28.15
475.324	27.15
475.449	16.15
475.574	20.15
475.699	30.15
475.824	11.15
475.949	16.15
476.073	1.15
476.198	4.15
476.323	26.15
476.448	12.15
476.573	3.15
476.698	24.15
476.823	22.15
476.947	4.15
477.072	29.15
477.197	29.15
477.322	7.15
477.447	8.15
477.572	18.15
477.697	34.15
477.821	25.15
477.946	15.15
478.071	36.15
478.196	14.15
478.321	5.15
478.445	20.15
478.57	24.15
478.695	13.15
478.82	19.15
478.945	18.15
479.069	6.15
479.194	16.15
479.319	27.15
479.444	26.15
479.569	4.15
479.693	23.15
479.818	17.15
479.943	23.15
480.068	21.15
480.192	45.15
480.317	20.15
480.442	15.15
480.567	12.15
480.691	23.15
480.816	18.15
480.941	-3.85
481.066	20.15
481.19	42.15
481.315	16.15
481.44	7.15
481.564	6.15
481.689	23.15
481.814	28.15
481.938	22.15
482.063	9.15
482.188	3.15
482.313	18.15
482.437	7.15
482.562	10.15
482.687	23.15
482.811	13.15
482.936	12.15
483.061	17.15
483.185	15.15
483.31	24.15
483.435	14.15
483.559	21.15
483.684	21.15
483.808	46.15
483.933	34.15
484.058	19.15
484.182	27.15
484.307	24.15
484.432	27.15
484.556	21.15
484.681	27.15
484.805	25.15
484.93	15.15
485.055	31.15
485.179	37.15
485.304	35.15
485.428	20.15
485.553	15.15
485.678	32.15
485.802	12.15
485.927	35.15
486.051	28.15
486.176	19.15
486.3	-3.85
486.425	13.15
486.549	21.15
486.674	39.15
486.799	27.15
486.923	15.15
487.048	20.15
487.172	21.15
487.297	0.15
487.421	19.15
487.546	29.15
487.67	21.15
487.795	14.15
487.919	20.15
488.044	32.15
488.168	9.15
488.293	3.15
488.417	12.15
488.542	28.15
488.666	23.15
488.791	26.15
488.915	33.15
489.04	21.15
489.164	33.15
489.289	12.15
489.413	0.15
489.538	27.15
489.662	21.15
489.786	27.15
489.911	32.15
490.035	6.15
490.16	5.15
490.284	8.15
490.409	8.15
490.533	16.15
490.658	40.15
490.782	27.15
490.906	45.15
491.031	110.15
491.155	134.15
491.28	125.15
491.404	160.15
491.528	259.15
491.653	159.15
491.777	65.15
491.902	27.15
492.026	16.15
492.15	19.15
492.275	31.15
492.399	28.15
492.524	19.15
492.648	34.15
492.772	22.15
492.897	22.15
493.021	3.15
493.145	38.15
493.27	11.15
493.394	24.15
493.518	20.15
493.643	16.15
493.767	24.15
493.891	-7.85
494.016	15.15
494.14	28.15
494.264	28.15
494.389	37.15
494.513	16.15
494.637	23.15
494.762	36.15
494.886	30.15
495.01	23.15
495.134	36.15
495.259	21.15
495.383	16.15
495.507	11.15
495.632	31.15
495.756	38.15
495.88	19.15
496.004	8.15
496.129	10.15
496.253	24.15
496.377	46.15
496.501	31.15
496.626	11.15
496.75	19.15
496.874	21.15
496.998	2.15
497.123	43.15
497.247	17.15
497.371	10.15
497.495	15.15
497.62	24.15
497.744	15.15
497.868	10.15
497.992	4.15
498.116	14.15
498.241	32.15
498.365	0.15
498.489	15.15
498.613	49.15
498.737	21.15
498.862	5.15
498.986	17.15
499.11	5.15
499.234	14.15
499.358	1.15
499.482	20.15
499.607	35.15
499.731	21.15
499.855	30.15
499.979	27.15
500.103	23.15
500.227	29.15
500.351	11.15
500.476	32.15
500.6	21.15
500.724	23.15
500.848	15.15
500.972	22.15
501.096	23.15
501.22	44.15
501.344	15.15
501.469	9.15
501.593	11.15
501.717	18.15
501.841	4.15
501.965	29.15
502.089	31.15
502.213	27.15
502.337	23.15
502.461	25.15
502.585	20.15
502.709	5.15
502.834	3.15
502.958	4.15
503.082	8.15
503.206	25.15
503.33	34.15
503.454	40.15
503.578	37.15
503.702	24.15
503.826	14.15
503.95	22.15
504.074	8.15
504.198	2.15
504.322	12.15
504.446	15.15
504.57	12.15
504.694	23.15
504.818	12.15
504.942	34.15
505.066	26.15
505.19	15.15
505.314	40.15
505.438	22.15
505.562	22.15
505.686	24.15
505.81	20.15
505.934	30.15
506.058	9.15
506.182	28.15
506.306	13.15
506.43	12.15
506.554	8.15
506.678	15.15
506.802	12.15
506.926	28.15
507.05	42.15
507.174	23.15
507.298	34.15
507.422	8.15
507.546	28.15
507.67	55.15
507.794	9.15
507.918	7.15
508.042	19.15
508.165	17.15
508.289	26.15
508.413	10.15
508.537	2.15
508.661	36.15
508.785	30.15
508.909	20.15
509.033	29.15
509.157	30.15
509.281	14.15
509.405	31.15
509.528	48.15
509.652	64.15
509.776	16.15
509.9	29.15
510.024	27.15
510.148	41.15
510.272	35.15
510.396	43.15
510.519	22.15
510.643	31.15
510.767	46.15
510.891	34.15
511.015	24.15
511.139	36.15
511.263	53.15
511.386	54.15
511.51	48.15
511.634	29.15
511.758	35.15
511.882	33.15
512.006	46.15
512.129	49.15
512.253	85.15
512.377	67.15
512.501	94.15
512.625	95.15
512.748	104.15
512.872	72.15
512.996	43.15
513.12	53.15
513.244	47.15
513.367	81.15
513.491	59.15
513.615	66.15
513.739	77.15
513.862	76.15
513.986	85.15
514.11	88.15
514.234	84.15
514.358	97.15
514.481	119.15
514.605	112.15
514.729	119.15
514.853	144.15
514.976	91.15
515.1	106.15
515.224	121.15
515.348	75.15
515.471	83.15
515.595	89.15
515.719	133.15
515.842	222.15
515.966	275.15
516.09	300.15
516.214	298.15
516.337	330.15
516.461	223.15
516.585	92.15
516.708	37.15
516.832	15.15
516.956	20.15
517.08	17.15
517.203	4.15
517.327	20.15
517.451	14.15
517.574	41.15
517.698	11.15
517.822	19.15
517.945	16.15
518.069	16.15
518.193	37.15
518.316	37.15
518.44	28.15
518.564	-0.85
518.687	4.15
518.811	31.15
518.935	46.15
519.058	3.15
519.182	15.15
519.306	19.15
519.429	9.15
519.553	43.15
519.676	35.15
519.8	20.15
519.924	29.15
520.047	25.15
520.171	14.15
520.294	8.15
520.418	20.15
520.542	14.15
520.665	39.15
520.789	15.15
520.913	-10.85
521.036	1.15
521.16	-4.85
521.283	36.15
521.407	9.15
521.53	9.15
521.654	-14.85
521.778	27.15
521.901	20.15
522.025	10.15
522.148	10.15
522.272	17.15
522.395	16.15
522.519	23.15
522.643	15.15
522.766	10.15
522.89	13.15
523.013	32.15
523.137	6.15
523.26	-5.85
523.384	13.15
523.507	24.15
523.631	29.15
523.754	12.15
523.878	11.15
524.002	13.15
524.125	0.15
524.249	21.15
524.372	20.15
524.496	15.15
524.619	16.15
524.743	20.15
524.866	24.15
524.99	25.15
525.113	0.15
525.237	23.15
525.36	14.15
525.484	7.15
525.607	-16.85
525.731	-3.85
525.854	13.15
525.978	29.15
526.101	6.15
526.224	20.15
526.348	13.15
526.471	19.15
526.595	17.15
526.718	13.15
526.842	8.15
526.965	26.15
527.089	22.15
527.212	20.15
527.336	18.15
527.459	9.15
527.582	19.15
527.706	19.15
527.829	30.15
527.953	32.15
528.076	8.15
528.2	5.15
528.323	27.15
528.446	31.15
528.57	9.15
528.693	26.15
528.817	8.15
528.94	38.15
529.064	34.15
529.187	7.15
529.31	16.15
529.434	25.15
529.557	25.15
529.68	8.15
529.804	29.15
529.927	25.15
530.051	16.15
530.174	2.15
530.297	9.15
530.421	15.15
530.544	19.15
530.668	19.15
530.791	4.15
530.914	16.15
531.038	12.15
531.161	7.15
531.284	11.15
531.408	8.15
531.531	23.15
531.654	12.15
531.778	27.15
531.901	23.15
532.024	21.15
532.148	-5.85
532.271	28.15
532.394	10.15
532.518	29.15
532.641	28.15
532.764	30.15
532.888	12.15
533.011	-5.85
533.134	-9.85
533.258	28.15
533.381	-5.85
533.504	3.15
533.628	8.15
533.751	24.15
533.874	12.15
533.997	14.15
534.121	31.15
534.244	3.15
534.367	3.15
534.491	12.15
534.614	15.15
534.737	25.15
534.86	29.15
534.984	29.15
535.107	21.15
535.23	19.15
535.354	15.15
535.477	3.15
535.6	14.15
535.723	8.15
535.847	14.15
535.97	5.15
536.093	21.15
536.216	9.15
536.34	24.15
536.463	13.15
536.586	21.15
536.709	15.15
536.833	5.15
536.956	12.15
537.079	7.15
537.202	27.15
537.325	0.15
537.449	11.15
537.572	12.15
537.695	8.15
537.818	13.15
537.941	8.15
538.065	13.15
538.188	14.15
538.311	19.15
538.434	12.15
538.558	13.15
538.681	47.15
538.804	24.15
538.927	28.15
539.05	27.15
539.173	21.15
539.297	8.15
539.42	9.15
539.543	30.15
539.666	44.15
539.789	13.15
539.913	9.15
540.036	21.15
540.159	24.15
540.282	28.15
540.405	-6.85
540.528	12.15
540.651	27.15
540.775	0.15
540.898	38.15
541.021	42.15
541.144	38.15
541.267	24.15
541.39	27.15
541.513	27.15
541.637	13.15
541.76	36.15
541.883	18.15
542.006	44.15
542.129	41.15
542.252	35.15
542.375	46.15
542.498	33.15
542.622	47.15
542.745	30.15
542.868	54.15
542.991	51.15
543.114	53.15
543.237	86.15
543.36	69.15
543.483	48.15
543.606	66.15
543.73	70.15
543.853	71.15
543.976	79.15
544.099	106.15
544.222	132.15
544.345	128.15
544.468	174.15
544.591	204.15
544.714	287.15
544.837	352.15
544.96	465.15
545.083	646.15
545.206	1093.15
545.329	2477.15
545.453	11040.15
545.576	15272.15
545.699	15682.15
545.822	15682.15
545.945	15682.15
546.068	15682.15
546.191	15682.15
546.314	15682.15
546.437	15682.15
546.56	15682.15
546.683	15682.15
546.806	15682.15
546.929	15682.15
547.052	15682.15
547.175	15682.15
547.298	15682.15
547.421	15682.15
547.544	15682.15
547.667	3927.15
547.79	4159.15
547.913	1315.15
548.036	947.15
548.159	656.15
548.282	644.15
548.405	507.15
548.528	508.15
548.651	396.15
548.774	428.15
548.897	349.15
549.02	360.15
549.143	339.15
549.266	315.15
549.389	268.15
549.512	261.15
549.635	233.15
549.758	257.15
549.881	220.15
550.004	215.15
550.127	195.15
550.25	189.15
550.373	184.15
550.496	190.15
550.619	187.15
550.742	161.15
550.865	140.15
550.988	148.15
551.111	138.15
551.234	146.15
551.356	134.15
551.479	135.15
551.602	128.15
551.725	152.15
551.848	132.15
551.971	158.15
552.094	109.15
552.217	112.15
552.34	103.15
552.463	109.15
552.586	113.15
552.709	100.15
552.832	102.15
552.955	121.15
553.077	129.15
553.2	100.15
553.323	84.15
553.446	102.15
553.569	74.15
553.692	101.15
553.815	83.15
553.938	102.15
554.061	107.15
554.184	104.15
554.306	103.15
554.429	97.15
554.552	67.15
554.675	71.15
554.798	85.15
554.921	85.15
555.044	77.15
555.167	72.15
555.29	63.15
555.412	64.15
555.535	73.15
555.658	72.15
555.781	79.15
555.904	79.15
556.027	79.15
556.15	79.15
556.272	63.15
556.395	87.15
556.518	63.15
556.641	60.15
556.764	85.15
556.887	84.15
557.01	69.15
557.132	51.15
557.255	52.15
557.378	56.15
557.501	83.15
557.624	86.15
557.747	64.15
557.869	85.15
557.992	76.15
558.115	92.15
558.238	74.15
558.361	85.15
558.483	100.15
558.606	91.15
558.729	57.15
558.852	66.15
558.975	72.15
559.098	79.15
559.22	64.15
559.343	55.15
559.466	52.15
559.589	49.15
559.712	61.15
559.834	60.15
559.957	62.15
560.08	47.15
560.203	45.15
560.325	75.15
560.448	64.15
560.571	48.15
560.694	55.15
560.817	76.15
560.939	42.15
561.062	41.15
561.185	52.15
561.308	60.15
561.43	53.15
561.553	71.15
561.676	55.15
561.799	72.15
561.921	60.15
562.044	57.15
562.167	54.15
562.29	57.15
562.413	60.15
562.535	81.15
562.658	45.15
562.781	43.15
562.903	70.15
563.026	80.15
563.149	145.15
563.272	121.15
563.394	110.15
563.517	95.15
563.64	55.15
563.763	44.15
563.885	58.15
564.008	67.15
564.131	57.15
564.254	49.15
564.376	47.15
564.499	20.15
564.622	24.15
564.744	39.15
564.867	29.15
564.99	41.15
565.113	44.15
565.235	34.15
565.358	35.15
565.481	29.15
565.603	19.15
565.726	34.15
565.849	50.15
565.971	54.15
566.094	35.15
566.217	38.15
566.34	17.15
566.462	26.15
566.585	40.15
566.708	54.15
566.83	45.15
566.953	52.15
567.076	43.15
567.198	29.15
567.321	43.15
567.444	47.15
567.566	34.15
567.689	18.15
567.812	30.15
567.934	28.15
568.057	35.15
568.18	29.15
568.302	26.15
568.425	18.15
568.548	42.15
568.67	59.15
568.793	34.15
568.916	37.15
569.038	34.15
569.161	31.15
569.283	26.15
569.406	35.15
569.529	26.15
569.651	21.15
569.774	31.15
569.897	22.15
570.019	41.15
570.142	39.15
570.265	44.15
570.387	24.15
570.51	36.15
570.632	39.15
570.755	30.15
570.878	31.15
571	38.15
571.123	24.15
571.246	49.15
571.368	23.15
571.491	29.15
571.613	34.15
571.736	13.15
571.859	38.15
571.981	17.15
572.104	9.15
572.226	40.15
572.349	26.15
572.472	43.15
572.594	23.15
572.717	29.15
572.839	32.15
572.962	39.15
573.085	37.15
573.207	38.15
573.33	17.15
573.452	41.15
573.575	54.15
573.697	27.15
573.82	29.15
573.943	34.15
574.065	41.15
574.188	28.15
574.31	33.15
574.433	51.15
574.555	58.15
574.678	29.15
574.801	41.15
574.923	36.15
575.046	38.15
575.168	34.15
575.291	30.15
575.413	50.15
575.536	59.15
575.659	53.15
575.781	57.15
575.904	60.15
576.026	64.15
576.149	72.15
576.271	141.15
576.394	217.15
576.516	537.15
576.639	3728.15
576.761	10268.15
576.884	8873.15
577.007	8850.15
577.129	8173.15
577.252	3785.15
577.374	1312.15
577.497	528.15
577.619	276.15
577.742	171.15
577.864	158.15
577.987	133.15
578.109	144.15
578.232	126.15
578.354	159.15
578.477	186.15
578.599	392.15
578.722	1957.15
578.844	9159.15
578.967	9878.15
579.089	8855.15
579.212	9180.15
579.334	5374.15
579.457	1945.15
579.579	729.15
579.702	341.15
579.824	209.15
579.947	131.15
580.069	129.15
580.192	84.15
580.314	86.15
580.437	64.15
580.559	88.15
580.682	69.15
580.804	56.15
580.927	71.15
581.049	73.15
581.172	47.15
581.294	54.15
581.417	53.15
581.539	52.15
581.662	53.15
581.784	30.15
581.907	33.15
582.029	55.15
582.152	34.15
582.274	43.15
582.396	36.15
582.519	36.15
582.641	38.15
582.764	23.15
582.886	40.15
583.009	41.15
583.131	32.15
583.254	54.15
583.376	58.15
583.499	45.15
583.621	43.15
583.743	26.15
583.866	26.15
583.988	31.15
584.111	28.15
584.233	37.15
584.356	30.15
584.478	36.15
584.601	20.15
584.723	40.15
584.845	45.15
584.968	7.15
585.09	26.15
585.213	38.15
585.335	22.15
585.458	28.15
585.58	25.15
585.702	29.15
585.825	53.15
585.947	24.15
586.07	17.15
586.192	21.15
586.315	48.15
586.437	27.15
586.559	10.15
586.682	1.15
586.804	25.15
586.927	31.15
587.049	29.15
587.171	35.15
587.294	32.15
587.416	58.15
587.539	40.15
587.661	26.15
587.783	26.15
587.906	25.15
588.028	31.15
588.151	10.15
588.273	33.15
588.395	15.15
588.518	20.15
588.64	32.15
588.763	39.15
588.885	33.15
589.007	31.15
589.13	25.15
589.252	11.15
589.375	27.15
589.497	20.15
589.619	35.15
589.742	37.15
589.864	27.15
589.986	28.15
590.109	27.15
590.231	11.15
590.354	45.15
590.476	21.15
590.598	15.15
590.721	20.15
590.843	10.15
590.965	15.15
591.088	36.15
591.21	5.15
591.332	30.15
591.455	-2.85
591.577	16.15
591.7	17.15
591.822	24.15
591.944	39.15
592.067	23.15
592.189	26.15
592.311	30.15
592.434	30.15
592.556	31.15
592.678	23.15
592.801	31.15
592.923	19.15
593.045	37.15
593.168	19.15
593.29	21.15
593.412	24.15
593.535	9.15
593.657	19.15
593.779	8.15
593.902	26.15
594.024	32.15
594.146	17.15
594.269	38.15
594.391	14.15
594.513	32.15
594.636	23.15
594.758	14.15
594.88	33.15
595.003	35.15
595.125	17.15
595.247	23.15
595.37	25.15
595.492	29.15
595.614	47.15
595.737	37.15
595.859	21.15
595.981	23.15
596.104	13.15
596.226	24.15
596.348	19.15
596.471	23.15
596.593	13.15
596.715	36.15
596.838	31.15
596.96	10.15
597.082	23.15
597.204	24.15
597.327	30.15
597.449	15.15
597.571	13.15
597.694	29.15
597.816	23.15
597.938	8.15
598.061	8.15
598.183	27.15
598.305	11.15
598.427	17.15
598.55	8.15
598.672	31.15
598.794	32.15
598.917	16.15
599.039	19.15
599.161	23.15
599.283	12.15
599.406	31.15
599.528	22.15
599.65	52.15
599.773	34.15
599.895	36.15
600.017	51.15
600.139	17.15
600.262	0.15
600.384	26.15
600.506	35.15
600.628	38.15
600.751	27.15
600.873	15.15
600.995	15.15
601.118	16.15
601.24	15.15
601.362	49.15
601.484	21.15
601.607	21.15
601.729	31.15
601.851	29.15
601.973	23.15
602.096	30.15
602.218	33.15
602.34	28.15
602.462	21.15
602.585	18.15
602.707	13.15
602.829	46.15
602.951	36.15
603.074	18.15
603.196	31.15
603.318	7.15
603.44	20.15
603.563	19.15
603.685	5.15
603.807	35.15
603.929	25.15
604.052	43.15
604.174	43.15
604.296	41.15
604.418	43.15
604.541	32.15
604.663	11.15
604.785	12.15
604.907	14.15
605.03	8.15
605.152	34.15
605.274	33.15
605.396	36.15
605.519	22.15
605.641	-0.85
605.763	7.15
605.885	22.15
606.008	43.15
606.13	34.15
606.252	27.15
606.374	15.15
606.496	11.15
606.619	23.15
606.741	11.15
606.863	36.15
606.985	35.15
607.108	38.15
607.23	31.15
607.352	10.15
607.474	28.15
607.596	35.15
607.719	38.15
607.841	20.15
607.963	5.15
608.085	16.15
608.207	42.15
608.33	26.15
608.452	-2.85
608.574	14.15
608.696	17.15
608.819	26.15
608.941	33.15
609.063	24.15
609.185	8.15
609.307	28.15
609.43	32.15
609.552	17.15
609.674	5.15
609.796	29.15
609.918	25.15
610.041	27.15
610.163	26.15
610.285	23.15
610.407	14.15
610.529	24.15
610.652	21.15
610.774	26.15
610.896	10.15
611.018	32.15
611.14	26.15
611.263	23.15
611.385	16.15
611.507	32.15
611.629	21.15
611.751	38.15
611.873	28.15
611.996	35.15
612.118	23.15
612.24	29.15
612.362	25.15
612.484	39.15
612.607	24.15
612.729	32.15
612.851	19.15
612.973	11.15
613.095	10.15
613.218	12.15
613.34	29.15
613.462	21.15
613.584	25.15
613.706	19.15
613.828	39.15
613.951	31.15
614.073	16.15
614.195	7.15
614.317	34.15
614.439	40.15
614.561	19.15
614.684	9.15
614.806	21.15
614.928	20.15
615.05	35.15
615.172	17.15
615.294	19.15
615.417	11.15
615.539	16.15
615.661	36.15
615.783	40.15
615.905	28.15
616.027	17.15
616.15	31.15
616.272	15.15
616.394	14.15
616.516	15.15
616.638	20.15
616.76	2.15
616.883	15.15
617.005	20.15
617.127	22.15
617.249	30.15
617.371	4.15
617.493	16.15
617.615	35.15
617.738	27.15
617.86	31.15
617.982	19.15
618.104	28.15
618.226	13.15
618.348	9.15
618.471	21.15
618.593	28.15
618.715	7.15
618.837	21.15
618.959	20.15
619.081	31.15
619.203	19.15
619.326	25.15
619.448	26.15
619.57	17.15
619.692	21.15
619.814	19.15
619.936	10.15
620.058	34.15
620.181	17.15
620.303	11.15
620.425	19.15
620.547	23.15
620.669	10.15
620.791	24.15
620.913	2.15
621.036	4.15
621.158	21.15
621.28	32.15
621.402	9.15
621.524	9.15
621.646	15.15
621.768	3.15
621.891	2.15
622.013	13.15
622.135	11.15
622.257	3.15
622.379	19.15
622.501	3.15
622.623	14.15
622.745	21.15
622.868	8.15
622.99	11.15
623.112	13.15
623.234	33.15
623.356	8.15
623.478	-0.85
623.6	15.15
623.722	15.15
623.845	5.15
623.967	7.15
624.089	24.15
624.211	17.15
624.333	47.15
624.455	24.15
624.577	5.15
624.699	21.15
624.822	11.15
624.944	1.15
625.066	15.15
625.188	7.15
625.31	24.15
625.432	24.15
625.554	9.15
625.676	30.15
625.799	1.15
625.921	25.15
626.043	22.15
626.165	28.15
626.287	-8.85
626.409	23.15
626.531	9.15
626.653	5.15
626.775	22.15
626.898	39.15
627.02	47.15
627.142	53.15
627.264	26.15
627.386	8.15
627.508	17.15
627.63	19.15
627.752	28.15
627.874	16.15
627.997	19.15
628.119	27.15
628.241	33.15
628.363	19.15
628.485	9.15
628.607	10.15
628.729	1.15
628.851	-0.85
628.973	31.15
629.096	-2.85
629.218	19.15
629.34	13.15
629.462	2.15
629.584	9.15
629.706	24.15
629.828	30.15
629.95	10.15
630.072	-1.85
630.195	21.15
630.317	29.15
630.439	15.15
630.561	20.15
630.683	-4.85
630.805	7.15
630.927	15.15
631.049	3.15
631.171	-1.85
631.293	23.15
631.416	37.15
631.538	7.15
631.66	13.15
631.782	31.15
631.904	36.15
632.026	24.15
632.148	25.15
632.27	20.15
632.392	17.15
632.514	26.15
632.637	20.15
632.759	15.15
632.881	8.15
633.003	15.15
633.125	20.15
633.247	21.15
633.369	6.15
633.491	14.15
633.613	12.15
633.735	13.15
633.858	30.15
633.98	19.15
634.102	-24.85
634.224	12.15
634.346	11.15
634.468	24.15
634.59	-6.85
634.712	5.15
634.834	-2.85
634.956	7.15
635.078	2.15
635.201	6.15
635.323	13.15
635.445	9.15
635.567	-0.85
635.689	12.15
635.811	12.15
635.933	4.15
636.055	7.15
636.177	-3.85
636.299	10.15
636.421	11.15
636.544	-10.85
636.666	15.15
636.788	6.15
636.91	16.15
637.032	4.15
637.154	37.15
637.276	36.15
637.398	30.15
637.52	13.15
637.642	29.15
637.764	25.15
637.887	24.15
638.009	-0.85
638.131	11.15
638.253	-8.85
638.375	25.15
638.497	8.15
638.619	11.15
638.741	17.15
638.863	-0.85
638.985	9.15
639.107	7.15
639.23	8.15
639.352	30.15
639.474	4.15
639.596	10.15
639.718	-6.85
639.84	28.15
639.962	8.15
640.084	16.15
640.206	18.15
640.328	-3.85
640.45	-1.85
640.573	3.15
640.695	9.15
640.817	25.15
640.939	16.15
641.061	12.15
641.183	-7.85
641.305	12.15
641.427	13.15
641.549	20.15
641.671	19.15
641.793	15.15
641.915	30.15
642.038	13.15
642.16	4.15
642.282	6.15
642.404	23.15
642.526	21.15
642.648	3.15
642.77	3.15
642.892	8.15
643.014	15.15
643.136	13.15
643.258	4.15
643.381	23.15
643.503	17.15
643.625	9.15
643.747	6.15
643.869	14.15
643.991	28.15
644.113	24.15
644.235	15.15
644.357	7.15
644.479	10.15
644.601	1.15
644.723	9.15
644.846	3.15
644.968	5.15
645.09	11.15
645.212	10.15
645.334	30.15
645.456	16.15
645.578	22.15
645.7	7.15
645.822	9.15
645.944	2.15
646.066	9.15
646.188	10.15
646.311	26.15
646.433	5.15
646.555	35.15
646.677	19.15
646.799	12.15
646.921	11.15
647.043	23.15
647.165	-4.85
647.287	16.15
647.409	8.15
647.531	23.15
647.654	6.15
647.776	26.15
647.898	15.15
648.02	-2.85
648.142	12.15
648.264	-0.85
648.386	-9.85
648.508	0.15
648.63	1.15
648.752	10.15
648.874	12.15
648.997	7.15
649.119	20.15
649.241	12.15
649.363	31.15
649.485	11.15
649.607	-11.85
649.729	-15.85
649.851	4.15
649.973	8.15
650.095	7.15
650.217	6.15
650.34	-1.85
650.462	16.15
650.584	19.15
650.706	19.15
650.828	28.15
650.95	-4.85
651.072	17.15
651.194	17.15
651.316	11.15
651.438	-1.85
651.56	7.15
651.683	4.15
651.805	5.15
651.927	18.15
652.049	1.15
652.171	6.15
652.293	0.15
652.415	7.15
652.537	12.15
652.659	9.15
652.781	1.15
652.903	23.15
653.026	20.15
653.148	3.15
653.27	15.15
653.392	5.15
653.514	0.15
653.636	2.15
653.758	-0.85
653.88	-1.85
654.002	0.15
654.124	13.15
654.247	6.15
654.369	23.15
654.491	-2.85
654.613	7.15
654.735	-6.85
654.857	6.15
654.979	12.15
655.101	18.15
655.223	41.15
655.345	23.15
655.468	12.15
655.59	11.15
655.712	6.15
655.834	21.15
655.956	8.15
656.078	3.15
656.2	14.15
656.322	-4.85
656.444	-12.85
656.566	21.15
656.689	6.15
656.811	-7.85
656.933	23.15
657.055	-3.85
657.177	6.15
657.299	0.15
657.421	16.15
657.543	23.15
657.665	4.15
657.787	13.15
657.91	7.15
658.032	11.15
658.154	2.15
658.276	4.15
658.398	5.15
658.52	11.15
658.642	4.15
658.764	26.15
658.886	-9.85
659.009	12.15
659.131	14.15
659.253	11.15
659.375	12.15
659.497	23.15
659.619	33.15
659.741	9.15
659.863	3.15
659.985	2.15
660.108	17.15
660.23	24.15
660.352	9.15
660.474	5.15
660.596	20.15
660.718	10.15
660.84	1.15
660.962	2.15
661.084	-7.85
661.207	-1.85
661.329	8.15
661.451	14.15
661.573	21.15
661.695	36.15
661.817	22.15
661.939	37.15
662.061	39.15
662.184	4.15
662.306	-5.85
662.428	8.15
662.55	24.15
662.672	22.15
662.794	20.15
662.916	6.15
663.038	11.15
663.161	8.15
663.283	23.15
663.405	25.15
663.527	-7.85
663.649	32.15
663.771	4.15
663.893	10.15
664.015	23.15
664.138	-1.85
664.26	12.15
664.382	2.15
664.504	11.15
664.626	6.15
664.748	13.15
664.87	7.15
664.992	15.15
665.115	28.15
665.237	14.15
665.359	-7.85
665.481	19.15
665.603	16.15
665.725	-5.85
665.847	-5.85
665.97	3.15
666.092	20.15
666.214	16.15
666.336	-0.85
666.458	10.15
666.58	27.15
666.702	1.15
666.825	7.15
666.947	1.15
667.069	9.15
667.191	14.15
667.313	29.15
667.435	14.15
667.557	7.15
667.68	-10.85
667.802	-2.85
667.924	12.15
668.046	28.15
668.168	17.15
668.29	19.15
668.412	15.15
668.535	18.15
668.657	11.15
668.779	5.15
668.901	22.15
669.023	26.15
669.145	9.15
669.267	20.15
669.39	11.15
669.512	1.15
669.634	19.15
669.756	3.15
669.878	13.15
670	13.15
670.123	4.15
670.245	37.15
670.367	39.15
670.489	36.15
670.611	8.15
670.733	3.15
670.856	7.15
670.978	17.15
671.1	17.15
671.222	22.15
671.344	10.15
671.466	7.15
671.589	4.15
671.711	7.15
671.833	-3.85
671.955	18.15
672.077	5.15
672.199	18.15
672.322	24.15
672.444	-0.85
672.566	16.15
672.688	6.15
672.81	9.15
672.932	15.15
673.055	-2.85
673.177	-3.85
673.299	17.15
673.421	8.15
673.543	14.15
673.665	31.15
673.788	20.15
673.91	-0.85
674.032	-0.85
674.154	4.15
674.276	10.15
674.399	0.15
674.521	7.15
674.643	36.15
674.765	-0.85
674.887	16.15
675.009	7.15
675.132	-6.85
675.254	11.15
675.376	8.15
675.498	19.15
675.62	18.15
675.743	7.15
675.865	2.15
675.987	-1.85
676.109	7.15
676.231	16.15
676.354	7.15
676.476	-9.85
676.598	0.15
676.72	29.15
676.842	12.15
676.965	6.15
677.087	14.15
677.209	15.15
677.331	20.15
677.453	8.15
677.576	3.15
677.698	11.15
677.82	15.15
677.942	11.15
678.064	7.15
678.187	19.15
678.309	17.15
678.431	6.15
678.553	11.15
678.675	36.15
678.798	32.15
678.92	14.15
679.042	10.15
679.164	4.15
679.286	22.15
679.409	-0.85
679.531	-3.85
679.653	3.15
679.775	-5.85
679.898	12.15
680.02	-7.85
680.142	-15.85
680.264	-3.85
680.386	-12.85
680.509	-3.85
680.631	-10.85
680.753	-11.85
680.875	-6.85
680.998	9.15
681.12	3.15
681.242	-11.85
681.364	7.15
681.486	3.15
681.609	0.15
681.731	-12.85
681.853	-3.85
681.975	-0.85
682.098	20.15
682.22	19.15
682.342	11.15
682.464	20.15
682.587	16.15
682.709	-2.85
682.831	-2.85
682.953	2.15
683.076	-1.85
683.198	13.15
683.32	18.15
683.442	20.15
683.565	19.15
683.687	-2.85
683.809	8.15
683.931	3.15
684.054	31.15
684.176	21.15
684.298	30.15
684.42	22.15
684.543	21.15
684.665	11.15
684.787	3.15
684.909	4.15
685.032	6.15
685.154	-1.85
685.276	15.15
685.398	-6.85
685.521	6.15
685.643	8.15
685.765	7.15
685.887	14.15
686.01	21.15
686.132	1.15
686.254	23.15
686.377	6.15
686.499	11.15
686.621	5.15
686.743	21.15
686.866	15.15
686.988	35.15
687.11	22.15
687.232	12.15
687.355	-0.85
687.477	16.15
687.599	15.15
687.722	1.15
687.844	16.15
687.966	17.15
688.088	15.15
688.211	31.15
688.333	20.15
688.455	31.15
688.578	30.15
688.7	19.15
688.822	4.15
688.944	-2.85
689.067	34.15
689.189	10.15
689.311	1.15
689.434	16.15
689.556	17.15
689.678	31.15
689.801	5.15
689.923	17.15
690.045	20.15
690.167	20.15
690.29	15.15
690.412	0.15
690.534	17.15
690.657	2.15
690.779	9.15
690.901	22.15
691.024	26.15
691.146	5.15
691.268	-0.85
691.391	24.15
691.513	29.15
691.635	17.15
691.758	29.15
691.88	27.15
692.002	10.15
692.125	12.15
692.247	6.15
692.369	-5.85
692.492	1.15
692.614	4.15
692.736	5.15
692.859	6.15
692.981	-4.85
693.103	-5.85
693.226	0.15
693.348	12.15
693.47	15.15
693.593	37.15
693.715	20.15
693.837	28.15
693.96	4.15
694.082	1.15
694.204	14.15
694.327	15.15
694.449	-13.85
694.571	5.15
694.694	23.15
694.816	20.15
694.938	-2.85
695.061	16.15
695.183	6.15
695.305	10.15
695.428	29.15
695.55	8.15
695.672	1.15
695.795	17.15
695.917	32.15
696.04	4.15
696.162	-2.85
696.284	3.15
696.407	5.15
696.529	11.15
696.651	26.15
696.774	-13.85
696.896	16.15
697.019	21.15
697.141	9.15
697.263	-0.85
697.386	9.15
697.508	8.15
697.63	5.15
697.753	20.15
697.875	16.15
697.998	3.15
698.12	12.15
698.242	-1.85
698.365	8.15
698.487	-3.85
698.61	10.15
698.732	30.15
698.854	24.15
698.977	5.15
699.099	32.15
699.221	5.15
699.344	3.15
699.466	8.15
699.589	-4.85
699.711	15.15
699.834	5.15
699.956	14.15
700.078	23.15
700.201	8.15
700.323	31.15
700.446	7.15
700.568	0.15
700.69	25.15
700.813	19.15
700.935	17.15
701.058	-2.85
701.18	-2.85
701.302	6.15
701.425	-8.85
701.547	4.15
701.67	-5.85
701.792	21.15
701.915	1.15
702.037	-17.85
702.159	15.15
702.282	19.15
702.404	11.15
702.527	12.15
702.649	23.15
702.772	25.15
702.894	18.15
703.017	1.15
703.139	15.15
703.261	29.15
703.384	13.15
703.506	-6.85
703.629	7.15
703.751	21.15
703.874	-8.85
703.996	7.15
704.119	-3.85
704.241	8.15
704.364	-10.85
704.486	11.15
704.608	8.15
704.731	0.15
704.853	16.15
704.976	6.15
705.098	19.15
705.221	9.15
705.343	13.15
705.466	15.15
705.588	21.15
705.711	12.15
705.833	16.15
705.956	13.15
706.078	23.15
706.201	6.15
706.323	7.15
706.446	-14.85
