Data from LowRes_mercury_15_20_11_07_2024_HR4C61881__40__15-23-36-271.txt Node

Date: Thu Nov 07 15:23:36 EST 2024
User: crc00042
Spectrometer: HR4C6188
Trigger mode: 4
Integration Time (sec): 1.000000E-1
Scans to average: 1
Electric dark correction enabled: true
Nonlinearity correction enabled: false
Boxcar width: 0
XAxis mode: Wavelengths
Number of Pixels in Spectrum: 3648
>>>>>Begin Spectral Data<<<<<
245.66	-66.69
245.797	-66.69
245.934	-66.69
246.071	-71.69
246.208	15.31
246.344	7.31
246.481	-10.69
246.618	-7.69
246.755	11.31
246.892	-7.69
247.029	-18.69
247.165	-16.69
247.302	3.31
247.439	-7.69
247.576	-7.69
247.713	-7.69
247.849	54.31
247.986	8.31
248.123	3.31
248.26	5.31
248.396	17.31
248.533	-0.69
248.67	2.31
248.806	7.31
248.943	-13.69
249.08	4.31
249.216	18.31
249.353	-18.69
249.49	8.31
249.626	-0.69
249.763	-8.69
249.9	-18.69
250.036	-4.69
250.173	11.31
250.309	6.31
250.446	9.31
250.582	4.31
250.719	-18.69
250.856	0.31
250.992	-5.69
251.129	-14.69
251.265	-18.69
251.402	11.31
251.538	-10.69
251.675	-1.69
251.811	0.31
251.948	19.31
252.084	17.31
252.221	-10.69
252.357	-8.69
252.493	16.31
252.63	-9.69
252.766	4.31
252.903	-0.69
253.039	-2.69
253.175	-2.69
253.312	2.31
253.448	-20.69
253.585	-9.69
253.721	9.31
253.857	-3.69
253.994	-0.69
254.13	-10.69
254.266	0.31
254.403	-3.69
254.539	15.31
254.675	16.31
254.811	2.31
254.948	-12.69
255.084	-18.69
255.22	1.31
255.356	-2.69
255.493	0.31
255.629	13.31
255.765	14.31
255.901	28.31
256.037	10.31
256.174	18.31
256.31	-6.69
256.446	-2.69
256.582	4.31
256.718	17.31
256.854	8.31
256.991	-11.69
257.127	15.31
257.263	8.31
257.399	5.31
257.535	13.31
257.671	0.31
257.807	-0.69
257.943	-12.69
258.079	-10.69
258.215	-7.69
258.351	20.31
258.487	21.31
258.623	9.31
258.759	-3.69
258.895	-3.69
259.031	-20.69
259.167	-13.69
259.303	33.31
259.439	1.31
259.575	5.31
259.711	8.31
259.847	-7.69
259.983	13.31
260.119	-18.69
260.255	-14.69
260.391	7.31
260.527	13.31
260.663	36.31
260.799	18.31
260.934	-1.69
261.07	0.31
261.206	-5.69
261.342	-0.69
261.478	13.31
261.614	10.31
261.749	-7.69
261.885	10.31
262.021	-6.69
262.157	13.31
262.293	-12.69
262.428	-1.69
262.564	-7.69
262.7	10.31
262.836	-2.69
262.971	25.31
263.107	0.31
263.243	25.31
263.378	18.31
263.514	-34.69
263.65	4.31
263.785	-3.69
263.921	-19.69
264.057	10.31
264.192	16.31
264.328	28.31
264.464	0.31
264.599	1.31
264.735	3.31
264.871	8.31
265.006	-5.69
265.142	14.31
265.277	7.31
265.413	21.31
265.548	24.31
265.684	21.31
265.819	11.31
265.955	-16.69
266.091	-4.69
266.226	-15.69
266.362	9.31
266.497	12.31
266.633	-5.69
266.768	2.31
266.903	24.31
267.039	24.31
267.174	20.31
267.31	1.31
267.445	-6.69
267.581	-2.69
267.716	-0.69
267.851	11.31
267.987	0.31
268.122	23.31
268.258	1.31
268.393	4.31
268.528	20.31
268.664	-3.69
268.799	-11.69
268.934	13.31
269.07	11.31
269.205	10.31
269.34	18.31
269.476	-8.69
269.611	-22.69
269.746	12.31
269.881	11.31
270.017	13.31
270.152	-10.69
270.287	10.31
270.422	26.31
270.558	12.31
270.693	14.31
270.828	0.31
270.963	-2.69
271.098	-8.69
271.234	0.31
271.369	27.31
271.504	3.31
271.639	-14.69
271.774	-6.69
271.909	6.31
272.045	-6.69
272.18	-6.69
272.315	4.31
272.45	9.31
272.585	-5.69
272.72	4.31
272.855	6.31
272.99	12.31
273.125	-3.69
273.26	-6.69
273.395	6.31
273.53	13.31
273.665	20.31
273.8	-1.69
273.935	7.31
274.07	-4.69
274.205	-5.69
274.34	-10.69
274.475	-15.69
274.61	18.31
274.745	3.31
274.88	40.31
275.015	-1.69
275.15	-1.69
275.285	19.31
275.42	-6.69
275.555	11.31
275.69	-8.69
275.825	-0.69
275.959	27.31
276.094	4.31
276.229	-6.69
276.364	-0.69
276.499	1.31
276.634	10.31
276.768	-1.69
276.903	8.31
277.038	-2.69
277.173	13.31
277.308	-3.69
277.442	-10.69
277.577	-4.69
277.712	4.31
277.847	2.31
277.981	11.31
278.116	-13.69
278.251	-1.69
278.386	11.31
278.52	3.31
278.655	17.31
278.79	3.31
278.924	-8.69
279.059	0.31
279.194	-13.69
279.328	27.31
279.463	20.31
279.598	18.31
279.732	21.31
279.867	18.31
280.001	-2.69
280.136	-8.69
280.271	16.31
280.405	8.31
280.54	-0.69
280.674	-1.69
280.809	24.31
280.943	13.31
281.078	0.31
281.213	23.31
281.347	25.31
281.482	16.31
281.616	9.31
281.751	-0.69
281.885	-11.69
282.02	-16.69
282.154	-2.69
282.288	-23.69
282.423	-23.69
282.557	3.31
282.692	11.31
282.826	5.31
282.961	21.31
283.095	7.31
283.229	-6.69
283.364	0.31
283.498	12.31
283.633	-1.69
283.767	19.31
283.901	-3.69
284.036	11.31
284.17	-9.69
284.304	8.31
284.439	16.31
284.573	-1.69
284.707	17.31
284.842	-20.69
284.976	-14.69
285.11	-10.69
285.244	-10.69
285.379	58.31
285.513	-9.69
285.647	-6.69
285.781	-3.69
285.916	20.31
286.05	3.31
286.184	14.31
286.318	19.31
286.453	-0.69
286.587	-6.69
286.721	-14.69
286.855	13.31
286.989	17.31
287.123	10.31
287.258	0.31
287.392	8.31
287.526	12.31
287.66	-9.69
287.794	12.31
287.928	-5.69
288.062	7.31
288.196	5.31
288.33	2.31
288.464	32.31
288.598	19.31
288.733	-0.69
288.867	14.31
289.001	16.31
289.135	11.31
289.269	10.31
289.403	-8.69
289.537	3.31
289.671	1.31
289.805	0.31
289.939	15.31
290.073	8.31
290.207	29.31
290.34	9.31
290.474	9.31
290.608	21.31
290.742	19.31
290.876	-9.69
291.01	-0.69
291.144	31.31
291.278	19.31
291.412	18.31
291.546	1.31
291.679	-5.69
291.813	17.31
291.947	5.31
292.081	0.31
292.215	-14.69
292.349	20.31
292.482	24.31
292.616	12.31
292.75	-5.69
292.884	4.31
293.018	2.31
293.151	-17.69
293.285	6.31
293.419	-14.69
293.553	-5.69
293.686	-1.69
293.82	0.31
293.954	-1.69
294.088	19.31
294.221	0.31
294.355	6.31
294.489	7.31
294.622	-9.69
294.756	7.31
294.89	20.31
295.023	-11.69
295.157	8.31
295.291	14.31
295.424	31.31
295.558	-2.69
295.691	-3.69
295.825	3.31
295.959	-3.69
296.092	4.31
296.226	13.31
296.359	31.31
296.493	-2.69
296.627	17.31
296.76	10.31
296.894	5.31
297.027	-9.69
297.161	4.31
297.294	-8.69
297.428	-18.69
297.561	18.31
297.695	-3.69
297.828	3.31
297.962	-5.69
298.095	-18.69
298.229	1.31
298.362	-23.69
298.495	-7.69
298.629	-26.69
298.762	-10.69
298.896	-5.69
299.029	-12.69
299.162	2.31
299.296	-1.69
299.429	4.31
299.563	-3.69
299.696	8.31
299.829	3.31
299.963	20.31
300.096	-1.69
300.229	21.31
300.363	0.31
300.496	4.31
300.629	-11.69
300.763	-2.69
300.896	10.31
301.029	9.31
301.162	8.31
301.296	3.31
301.429	-15.69
301.562	-26.69
301.695	-6.69
301.829	4.31
301.962	24.31
302.095	15.31
302.228	-10.69
302.362	4.31
302.495	-5.69
302.628	10.31
302.761	-0.69
302.894	4.31
303.027	0.31
303.161	5.31
303.294	-22.69
303.427	12.31
303.56	2.31
303.693	-3.69
303.826	5.31
303.959	-9.69
304.092	17.31
304.225	-3.69
304.359	19.31
304.492	-4.69
304.625	-3.69
304.758	12.31
304.891	-12.69
305.024	21.31
305.157	2.31
305.29	0.31
305.423	0.31
305.556	4.31
305.689	23.31
305.822	1.31
305.955	-2.69
306.088	8.31
306.221	-5.69
306.354	1.31
306.487	-12.69
306.62	-3.69
306.752	5.31
306.885	4.31
307.018	14.31
307.151	7.31
307.284	5.31
307.417	-4.69
307.55	17.31
307.683	7.31
307.816	13.31
307.948	12.31
308.081	19.31
308.214	9.31
308.347	24.31
308.48	-8.69
308.613	-22.69
308.745	24.31
308.878	-7.69
309.011	7.31
309.144	26.31
309.277	0.31
309.409	21.31
309.542	8.31
309.675	12.31
309.808	9.31
309.94	18.31
310.073	-16.69
310.206	1.31
310.339	11.31
310.471	-11.69
310.604	21.31
310.737	-7.69
310.869	1.31
311.002	4.31
311.135	9.31
311.267	-12.69
311.4	-6.69
311.533	26.31
311.665	8.31
311.798	4.31
311.93	13.31
312.063	38.31
312.196	42.31
312.328	96.31
312.461	58.31
312.593	17.31
312.726	51.31
312.859	102.31
312.991	178.31
313.124	38.31
313.256	10.31
313.389	12.31
313.521	-20.69
313.654	-17.69
313.786	-12.69
313.919	0.31
314.051	13.31
314.184	7.31
314.316	24.31
314.449	-11.69
314.581	6.31
314.714	8.31
314.846	9.31
314.978	-0.69
315.111	5.31
315.243	9.31
315.376	33.31
315.508	15.31
315.641	-1.69
315.773	18.31
315.905	15.31
316.038	9.31
316.17	-1.69
316.302	7.31
316.435	8.31
316.567	2.31
316.699	11.31
316.832	-0.69
316.964	11.31
317.096	-2.69
317.229	13.31
317.361	-13.69
317.493	-4.69
317.625	-19.69
317.758	25.31
317.89	22.31
318.022	-0.69
318.155	-4.69
318.287	13.31
318.419	-19.69
318.551	0.31
318.683	-1.69
318.816	0.31
318.948	4.31
319.08	-1.69
319.212	0.31
319.344	25.31
319.477	16.31
319.609	24.31
319.741	21.31
319.873	1.31
320.005	4.31
320.137	11.31
320.269	-3.69
320.401	8.31
320.534	-4.69
320.666	-24.69
320.798	-13.69
320.93	17.31
321.062	-1.69
321.194	-1.69
321.326	6.31
321.458	4.31
321.59	-3.69
321.722	-3.69
321.854	1.31
321.986	-3.69
322.118	-2.69
322.25	5.31
322.382	-3.69
322.514	-14.69
322.646	-3.69
322.778	13.31
322.91	8.31
323.042	10.31
323.174	14.31
323.306	-1.69
323.438	-14.69
323.57	2.31
323.702	10.31
323.834	8.31
323.966	4.31
324.097	0.31
324.229	7.31
324.361	21.31
324.493	27.31
324.625	10.31
324.757	18.31
324.889	-5.69
325.021	8.31
325.152	14.31
325.284	26.31
325.416	-10.69
325.548	17.31
325.68	10.31
325.811	26.31
325.943	3.31
326.075	5.31
326.207	6.31
326.339	20.31
326.47	22.31
326.602	13.31
326.734	13.31
326.866	3.31
326.997	-13.69
327.129	-22.69
327.261	-21.69
327.392	20.31
327.524	17.31
327.656	-4.69
327.787	6.31
327.919	22.31
328.051	22.31
328.182	8.31
328.314	24.31
328.446	2.31
328.577	42.31
328.709	14.31
328.841	-10.69
328.972	-18.69
329.104	11.31
329.235	4.31
329.367	-19.69
329.499	9.31
329.63	6.31
329.762	6.31
329.893	18.31
330.025	-3.69
330.156	-7.69
330.288	8.31
330.419	32.31
330.551	14.31
330.683	12.31
330.814	-7.69
330.946	1.31
331.077	-6.69
331.208	7.31
331.34	5.31
331.471	0.31
331.603	5.31
331.734	-2.69
331.866	15.31
331.997	21.31
332.129	8.31
332.26	-3.69
332.392	14.31
332.523	7.31
332.654	-28.69
332.786	2.31
332.917	5.31
333.048	32.31
333.18	14.31
333.311	-0.69
333.443	24.31
333.574	9.31
333.705	41.31
333.837	33.31
333.968	141.31
334.099	241.31
334.231	210.31
334.362	47.31
334.493	36.31
334.624	20.31
334.756	7.31
334.887	14.31
335.018	22.31
335.15	7.31
335.281	18.31
335.412	36.31
335.543	21.31
335.675	21.31
335.806	4.31
335.937	9.31
336.068	17.31
336.199	31.31
336.331	-5.69
336.462	7.31
336.593	15.31
336.724	7.31
336.855	-0.69
336.986	6.31
337.118	26.31
337.249	16.31
337.38	9.31
337.511	-3.69
337.642	-7.69
337.773	-10.69
337.904	2.31
338.035	15.31
338.166	1.31
338.298	2.31
338.429	-4.69
338.56	21.31
338.691	25.31
338.822	7.31
338.953	16.31
339.084	21.31
339.215	11.31
339.346	6.31
339.477	8.31
339.608	-1.69
339.739	9.31
339.87	0.31
340.001	13.31
340.132	30.31
340.263	11.31
340.394	31.31
340.525	25.31
340.656	2.31
340.787	12.31
340.918	25.31
341.049	28.31
341.179	-3.69
341.31	-3.69
341.441	27.31
341.572	13.31
341.703	23.31
341.834	19.31
341.965	27.31
342.096	9.31
342.227	12.31
342.357	14.31
342.488	10.31
342.619	13.31
342.75	10.31
342.881	22.31
343.012	23.31
343.142	45.31
343.273	12.31
343.404	24.31
343.535	49.31
343.666	32.31
343.796	24.31
343.927	26.31
344.058	41.31
344.189	31.31
344.319	31.31
344.45	22.31
344.581	24.31
344.712	9.31
344.842	25.31
344.973	25.31
345.104	36.31
345.234	29.31
345.365	15.31
345.496	30.31
345.626	40.31
345.757	29.31
345.888	19.31
346.018	32.31
346.149	32.31
346.28	42.31
346.41	26.31
346.541	26.31
346.672	23.31
346.802	35.31
346.933	18.31
347.063	38.31
347.194	27.31
347.325	22.31
347.455	44.31
347.586	17.31
347.716	6.31
347.847	36.31
347.977	43.31
348.108	26.31
348.238	32.31
348.369	47.31
348.499	41.31
348.63	30.31
348.76	41.31
348.891	54.31
349.021	38.31
349.152	54.31
349.282	50.31
349.413	35.31
349.543	59.31
349.674	49.31
349.804	59.31
349.935	26.31
350.065	34.31
350.196	2.31
350.326	32.31
350.456	27.31
350.587	31.31
350.717	23.31
350.848	33.31
350.978	22.31
351.108	19.31
351.239	29.31
351.369	12.31
351.499	23.31
351.63	38.31
351.76	23.31
351.89	12.31
352.021	18.31
352.151	28.31
352.281	33.31
352.412	20.31
352.542	30.31
352.672	26.31
352.803	18.31
352.933	18.31
353.063	22.31
353.193	32.31
353.324	24.31
353.454	28.31
353.584	33.31
353.714	29.31
353.845	41.31
353.975	6.31
354.105	16.31
354.235	30.31
354.365	25.31
354.496	28.31
354.626	64.31
354.756	50.31
354.886	26.31
355.016	1.31
355.146	17.31
355.277	18.31
355.407	12.31
355.537	23.31
355.667	25.31
355.797	27.31
355.927	10.31
356.057	23.31
356.187	10.31
356.318	13.31
356.448	33.31
356.578	22.31
356.708	30.31
356.838	34.31
356.968	8.31
357.098	23.31
357.228	28.31
357.358	24.31
357.488	18.31
357.618	58.31
357.748	43.31
357.878	32.31
358.008	15.31
358.138	8.31
358.268	17.31
358.398	25.31
358.528	22.31
358.658	30.31
358.788	25.31
358.918	34.31
359.048	24.31
359.178	43.31
359.308	32.31
359.438	48.31
359.568	34.31
359.698	29.31
359.827	15.31
359.957	26.31
360.087	28.31
360.217	21.31
360.347	21.31
360.477	53.31
360.607	5.31
360.737	22.31
360.866	14.31
360.996	24.31
361.126	26.31
361.256	46.31
361.386	56.31
361.516	33.31
361.645	16.31
361.775	40.31
361.905	5.31
362.035	48.31
362.165	25.31
362.294	38.31
362.424	58.31
362.554	42.31
362.684	23.31
362.813	44.31
362.943	21.31
363.073	52.31
363.203	51.31
363.332	93.31
363.462	80.31
363.592	94.31
363.721	132.31
363.851	168.31
363.981	198.31
364.111	227.31
364.24	315.31
364.37	504.31
364.5	867.31
364.629	1782.31
364.759	3806.31
364.888	6323.31
365.018	9310.31
365.148	14800.31
365.277	13013.31
365.407	4754.31
365.537	3116.31
365.666	4022.31
365.796	1855.31
365.925	809.31
366.055	747.31
366.184	1011.31
366.314	1370.31
366.444	2484.31
366.573	2101.31
366.703	663.31
366.832	206.31
366.962	120.31
367.091	76.31
367.221	73.31
367.35	60.31
367.48	103.31
367.609	71.31
367.739	56.31
367.868	42.31
367.998	54.31
368.127	50.31
368.257	45.31
368.386	72.31
368.516	53.31
368.645	22.31
368.775	25.31
368.904	41.31
369.033	37.31
369.163	33.31
369.292	39.31
369.422	33.31
369.551	30.31
369.68	51.31
369.81	55.31
369.939	40.31
370.069	69.31
370.198	52.31
370.327	29.31
370.457	25.31
370.586	49.31
370.715	45.31
370.845	29.31
370.974	24.31
371.103	56.31
371.233	62.31
371.362	57.31
371.491	14.31
371.621	57.31
371.75	43.31
371.879	12.31
372.008	32.31
372.138	45.31
372.267	55.31
372.396	53.31
372.525	42.31
372.655	25.31
372.784	22.31
372.913	25.31
373.042	43.31
373.172	43.31
373.301	-11.69
373.43	-1.69
373.559	10.31
373.688	36.31
373.818	37.31
373.947	34.31
374.076	13.31
374.205	30.31
374.334	1.31
374.463	12.31
374.593	36.31
374.722	40.31
374.851	35.31
374.98	12.31
375.109	25.31
375.238	30.31
375.367	39.31
375.496	5.31
375.625	-2.69
375.755	28.31
375.884	42.31
376.013	33.31
376.142	9.31
376.271	23.31
376.4	32.31
376.529	33.31
376.658	9.31
376.787	13.31
376.916	33.31
377.045	10.31
377.174	28.31
377.303	12.31
377.432	53.31
377.561	24.31
377.69	21.31
377.819	39.31
377.948	23.31
378.077	30.31
378.206	20.31
378.335	12.31
378.464	14.31
378.593	46.31
378.722	17.31
378.851	6.31
378.98	16.31
379.108	12.31
379.237	16.31
379.366	28.31
379.495	43.31
379.624	35.31
379.753	15.31
379.882	3.31
380.011	9.31
380.14	17.31
380.268	7.31
380.397	4.31
380.526	36.31
380.655	22.31
380.784	7.31
380.913	7.31
381.041	-2.69
381.17	-0.69
381.299	22.31
381.428	17.31
381.557	25.31
381.685	7.31
381.814	11.31
381.943	6.31
382.072	10.31
382.2	17.31
382.329	28.31
382.458	13.31
382.587	26.31
382.715	34.31
382.844	20.31
382.973	36.31
383.102	27.31
383.23	18.31
383.359	-6.69
383.488	18.31
383.616	3.31
383.745	24.31
383.874	33.31
384.003	21.31
384.131	3.31
384.26	17.31
384.389	28.31
384.517	20.31
384.646	17.31
384.774	16.31
384.903	18.31
385.032	48.31
385.16	23.31
385.289	5.31
385.418	6.31
385.546	33.31
385.675	23.31
385.803	-1.69
385.932	21.31
386.06	5.31
386.189	21.31
386.318	11.31
386.446	6.31
386.575	19.31
386.703	22.31
386.832	15.31
386.96	22.31
387.089	44.31
387.217	22.31
387.346	7.31
387.474	20.31
387.603	19.31
387.731	32.31
387.86	42.31
387.988	21.31
388.117	25.31
388.245	15.31
388.374	-5.69
388.502	13.31
388.631	2.31
388.759	-1.69
388.888	24.31
389.016	5.31
389.144	30.31
389.273	19.31
389.401	25.31
389.53	16.31
389.658	30.31
389.786	10.31
389.915	-1.69
390.043	14.31
390.172	24.31
390.3	54.31
390.428	38.31
390.557	13.31
390.685	49.31
390.813	44.31
390.942	44.31
391.07	19.31
391.198	32.31
391.327	25.31
391.455	16.31
391.583	58.31
391.712	36.31
391.84	23.31
391.968	16.31
392.096	1.31
392.225	25.31
392.353	27.31
392.481	25.31
392.609	40.31
392.738	33.31
392.866	21.31
392.994	9.31
393.122	5.31
393.251	8.31
393.379	24.31
393.507	9.31
393.635	18.31
393.764	24.31
393.892	16.31
394.02	2.31
394.148	23.31
394.276	23.31
394.404	47.31
394.533	19.31
394.661	34.31
394.789	37.31
394.917	53.31
395.045	33.31
395.173	32.31
395.302	21.31
395.43	38.31
395.558	37.31
395.686	20.31
395.814	44.31
395.942	29.31
396.07	29.31
396.198	46.31
396.326	45.31
396.454	49.31
396.582	23.31
396.711	30.31
396.839	28.31
396.967	42.31
397.095	23.31
397.223	37.31
397.351	66.31
397.479	54.31
397.607	32.31
397.735	40.31
397.863	41.31
397.991	46.31
398.119	25.31
398.247	36.31
398.375	58.31
398.503	56.31
398.631	55.31
398.759	49.31
398.887	46.31
399.015	38.31
399.143	55.31
399.271	52.31
399.399	89.31
399.526	85.31
399.654	89.31
399.782	78.31
399.91	105.31
400.038	104.31
400.166	103.31
400.294	97.31
400.422	88.31
400.55	106.31
400.678	105.31
400.805	94.31
400.933	104.31
401.061	120.31
401.189	104.31
401.317	137.31
401.445	101.31
401.573	66.31
401.7	62.31
401.828	70.31
401.956	59.31
402.084	53.31
402.212	47.31
402.34	49.31
402.467	25.31
402.595	35.31
402.723	35.31
402.851	58.31
402.978	65.31
403.106	84.31
403.234	87.31
403.362	117.31
403.489	123.31
403.617	147.31
403.745	199.31
403.873	307.31
404	542.31
404.128	1475.31
404.256	3955.31
404.384	5096.31
404.511	5506.31
404.639	7244.31
404.767	11454.31
404.894	14649.31
405.022	4953.31
405.15	1323.31
405.277	426.31
405.405	256.31
405.533	142.31
405.66	124.31
405.788	62.31
405.916	76.31
406.043	41.31
406.171	62.31
406.299	52.31
406.426	69.31
406.554	50.31
406.681	63.31
406.809	21.31
406.937	43.31
407.064	63.31
407.192	127.31
407.319	313.31
407.447	534.31
407.574	525.31
407.702	622.31
407.83	848.31
407.957	1604.31
408.085	950.31
408.212	284.31
408.34	97.31
408.467	57.31
408.595	54.31
408.722	56.31
408.85	50.31
408.977	50.31
409.105	28.31
409.232	30.31
409.36	22.31
409.487	22.31
409.615	13.31
409.742	23.31
409.87	24.31
409.997	35.31
410.125	21.31
410.252	46.31
410.379	24.31
410.507	33.31
410.634	25.31
410.762	20.31
410.889	41.31
411.017	32.31
411.144	45.31
411.271	20.31
411.399	33.31
411.526	40.31
411.653	47.31
411.781	27.31
411.908	34.31
412.036	30.31
412.163	43.31
412.29	42.31
412.418	50.31
412.545	26.31
412.672	28.31
412.8	48.31
412.927	37.31
413.054	42.31
413.182	36.31
413.309	20.31
413.436	21.31
413.564	39.31
413.691	40.31
413.818	39.31
413.945	27.31
414.073	14.31
414.2	47.31
414.327	29.31
414.454	34.31
414.582	34.31
414.709	23.31
414.836	16.31
414.963	23.31
415.091	30.31
415.218	42.31
415.345	46.31
415.472	28.31
415.6	29.31
415.727	16.31
415.854	34.31
415.981	36.31
416.108	28.31
416.236	17.31
416.363	31.31
416.49	18.31
416.617	33.31
416.744	44.31
416.871	39.31
416.998	27.31
417.126	32.31
417.253	33.31
417.38	19.31
417.507	24.31
417.634	44.31
417.761	38.31
417.888	36.31
418.015	12.31
418.143	41.31
418.27	58.31
418.397	43.31
418.524	41.31
418.651	22.31
418.778	50.31
418.905	52.31
419.032	53.31
419.159	35.31
419.286	54.31
419.413	61.31
419.54	45.31
419.667	30.31
419.794	32.31
419.921	44.31
420.048	42.31
420.175	63.31
420.302	47.31
420.429	40.31
420.556	49.31
420.683	42.31
420.81	76.31
420.937	80.31
421.064	55.31
421.191	63.31
421.318	67.31
421.445	66.31
421.572	56.31
421.699	54.31
421.826	54.31
421.953	32.31
422.08	36.31
422.207	8.31
422.334	19.31
422.461	26.31
422.588	10.31
422.714	21.31
422.841	25.31
422.968	30.31
423.095	28.31
423.222	23.31
423.349	39.31
423.476	50.31
423.603	16.31
423.729	2.31
423.856	2.31
423.983	25.31
424.11	33.31
424.237	32.31
424.364	22.31
424.491	40.31
424.617	8.31
424.744	15.31
424.871	17.31
424.998	13.31
425.125	21.31
425.251	19.31
425.378	16.31
425.505	35.31
425.632	17.31
425.758	18.31
425.885	7.31
426.012	45.31
426.139	29.31
426.266	11.31
426.392	21.31
426.519	32.31
426.646	7.31
426.772	19.31
426.899	28.31
427.026	31.31
427.153	27.31
427.279	28.31
427.406	26.31
427.533	14.31
427.659	21.31
427.786	27.31
427.913	57.31
428.039	11.31
428.166	26.31
428.293	43.31
428.419	23.31
428.546	26.31
428.673	4.31
428.799	20.31
428.926	28.31
429.053	33.31
429.179	26.31
429.306	24.31
429.433	39.31
429.559	36.31
429.686	10.31
429.812	25.31
429.939	18.31
430.066	16.31
430.192	22.31
430.319	32.31
430.445	34.31
430.572	34.31
430.699	23.31
430.825	26.31
430.952	38.31
431.078	19.31
431.205	27.31
431.331	27.31
431.458	11.31
431.584	34.31
431.711	32.31
431.837	37.31
431.964	38.31
432.09	35.31
432.217	11.31
432.343	25.31
432.47	42.31
432.596	36.31
432.723	18.31
432.849	15.31
432.976	28.31
433.102	48.31
433.229	21.31
433.355	64.31
433.482	65.31
433.608	101.31
433.735	100.31
433.861	104.31
433.987	153.31
434.114	201.31
434.24	156.31
434.367	205.31
434.493	240.31
434.62	279.31
434.746	377.31
434.872	641.31
434.999	807.31
435.125	1731.31
435.252	5524.31
435.378	13397.31
435.504	15208.31
435.631	15431.31
435.757	15683.31
435.883	15683.31
436.01	15683.31
436.136	15683.31
436.262	15683.31
436.389	3470.31
436.515	2341.31
436.641	822.31
436.768	645.31
436.894	393.31
437.02	384.31
437.147	292.31
437.273	286.31
437.399	211.31
437.526	234.31
437.652	173.31
437.778	219.31
437.904	144.31
438.031	155.31
438.157	149.31
438.283	160.31
438.409	110.31
438.536	119.31
438.662	120.31
438.788	136.31
438.914	105.31
439.041	113.31
439.167	123.31
439.293	97.31
439.419	92.31
439.546	108.31
439.672	77.31
439.798	86.31
439.924	81.31
440.05	108.31
440.177	82.31
440.303	64.31
440.429	44.31
440.555	76.31
440.681	73.31
440.807	78.31
440.934	44.31
441.06	59.31
441.186	58.31
441.312	38.31
441.438	57.31
441.564	66.31
441.69	70.31
441.816	73.31
441.943	56.31
442.069	60.31
442.195	54.31
442.321	60.31
442.447	20.31
442.573	43.31
442.699	40.31
442.825	48.31
442.951	59.31
443.077	59.31
443.203	42.31
443.33	39.31
443.456	30.31
443.582	53.31
443.708	24.31
443.834	60.31
443.96	43.31
444.086	58.31
444.212	64.31
444.338	71.31
444.464	40.31
444.59	43.31
444.716	47.31
444.842	36.31
444.968	41.31
445.094	62.31
445.22	22.31
445.346	34.31
445.472	28.31
445.598	51.31
445.724	34.31
445.85	35.31
445.976	48.31
446.102	50.31
446.228	37.31
446.354	47.31
446.48	27.31
446.605	21.31
446.731	33.31
446.857	24.31
446.983	24.31
447.109	39.31
447.235	41.31
447.361	21.31
447.487	52.31
447.613	31.31
447.739	28.31
447.865	24.31
447.99	22.31
448.116	31.31
448.242	46.31
448.368	31.31
448.494	21.31
448.62	47.31
448.746	28.31
448.872	30.31
448.997	15.31
449.123	31.31
449.249	31.31
449.375	43.31
449.501	25.31
449.627	12.31
449.752	50.31
449.878	24.31
450.004	28.31
450.13	32.31
450.256	12.31
450.381	41.31
450.507	24.31
450.633	14.31
450.759	47.31
450.884	20.31
451.01	15.31
451.136	23.31
451.262	36.31
451.388	38.31
451.513	22.31
451.639	37.31
451.765	33.31
451.89	44.31
452.016	27.31
452.142	10.31
452.268	31.31
452.393	30.31
452.519	2.31
452.645	39.31
452.771	25.31
452.896	32.31
453.022	14.31
453.148	37.31
453.273	15.31
453.399	32.31
453.525	9.31
453.65	10.31
453.776	43.31
453.902	32.31
454.027	42.31
454.153	31.31
454.279	33.31
454.404	35.31
454.53	36.31
454.656	49.31
454.781	24.31
454.907	23.31
455.032	27.31
455.158	36.31
455.284	32.31
455.409	28.31
455.535	22.31
455.66	32.31
455.786	52.31
455.912	38.31
456.037	8.31
456.163	30.31
456.288	41.31
456.414	22.31
456.539	2.31
456.665	21.31
456.791	51.31
456.916	24.31
457.042	27.31
457.167	27.31
457.293	31.31
457.418	32.31
457.544	27.31
457.669	26.31
457.795	26.31
457.92	31.31
458.046	37.31
458.171	16.31
458.297	27.31
458.422	11.31
458.548	15.31
458.673	22.31
458.799	20.31
458.924	18.31
459.05	35.31
459.175	20.31
459.301	30.31
459.426	30.31
459.552	11.31
459.677	26.31
459.803	53.31
459.928	46.31
460.053	24.31
460.179	22.31
460.304	32.31
460.43	-0.69
460.555	14.31
460.681	26.31
460.806	13.31
460.931	25.31
461.057	37.31
461.182	20.31
461.308	35.31
461.433	31.31
461.558	2.31
461.684	29.31
461.809	18.31
461.934	11.31
462.06	20.31
462.185	10.31
462.311	32.31
462.436	31.31
462.561	30.31
462.687	16.31
462.812	15.31
462.937	0.31
463.063	10.31
463.188	21.31
463.313	22.31
463.439	29.31
463.564	12.31
463.689	27.31
463.814	43.31
463.94	11.31
464.065	27.31
464.19	21.31
464.316	20.31
464.441	16.31
464.566	28.31
464.692	30.31
464.817	14.31
464.942	17.31
465.067	24.31
465.193	3.31
465.318	26.31
465.443	33.31
465.568	17.31
465.694	20.31
465.819	55.31
465.944	24.31
466.069	30.31
466.194	22.31
466.32	37.31
466.445	33.31
466.57	24.31
466.695	24.31
466.82	43.31
466.946	28.31
467.071	24.31
467.196	29.31
467.321	34.31
467.446	31.31
467.572	23.31
467.697	10.31
467.822	33.31
467.947	33.31
468.072	32.31
468.197	10.31
468.323	36.31
468.448	35.31
468.573	38.31
468.698	30.31
468.823	40.31
468.948	33.31
469.073	25.31
469.198	47.31
469.324	49.31
469.449	37.31
469.574	58.31
469.699	46.31
469.824	28.31
469.949	24.31
470.074	44.31
470.199	56.31
470.324	39.31
470.449	50.31
470.574	27.31
470.7	40.31
470.825	38.31
470.95	53.31
471.075	25.31
471.2	44.31
471.325	53.31
471.45	38.31
471.575	16.31
471.7	35.31
471.825	24.31
471.95	23.31
472.075	18.31
472.2	26.31
472.325	34.31
472.45	39.31
472.575	34.31
472.7	25.31
472.825	39.31
472.95	48.31
473.075	42.31
473.2	14.31
473.325	46.31
473.45	37.31
473.575	42.31
473.7	59.31
473.825	38.31
473.95	48.31
474.075	14.31
474.2	26.31
474.325	11.31
474.45	29.31
474.574	19.31
474.699	29.31
474.824	44.31
474.949	20.31
475.074	26.31
475.199	29.31
475.324	20.31
475.449	12.31
475.574	30.31
475.699	10.31
475.824	18.31
475.949	25.31
476.073	4.31
476.198	34.31
476.323	24.31
476.448	25.31
476.573	26.31
476.698	29.31
476.823	27.31
476.947	20.31
477.072	4.31
477.197	10.31
477.322	41.31
477.447	4.31
477.572	20.31
477.697	16.31
477.821	23.31
477.946	44.31
478.071	45.31
478.196	36.31
478.321	21.31
478.445	3.31
478.57	10.31
478.695	13.31
478.82	37.31
478.945	30.31
479.069	24.31
479.194	4.31
479.319	25.31
479.444	11.31
479.569	11.31
479.693	16.31
479.818	18.31
479.943	29.31
480.068	43.31
480.192	24.31
480.317	19.31
480.442	23.31
480.567	17.31
480.691	29.31
480.816	24.31
480.941	17.31
481.066	14.31
481.19	24.31
481.315	30.31
481.44	9.31
481.564	4.31
481.689	42.31
481.814	34.31
481.938	23.31
482.063	12.31
482.188	24.31
482.313	21.31
482.437	13.31
482.562	21.31
482.687	20.31
482.811	24.31
482.936	14.31
483.061	24.31
483.185	13.31
483.31	31.31
483.435	22.31
483.559	17.31
483.684	7.31
483.808	32.31
483.933	15.31
484.058	35.31
484.182	21.31
484.307	12.31
484.432	18.31
484.556	24.31
484.681	25.31
484.805	33.31
484.93	27.31
485.055	18.31
485.179	52.31
485.304	15.31
485.428	21.31
485.553	26.31
485.678	38.31
485.802	14.31
485.927	29.31
486.051	31.31
486.176	13.31
486.3	7.31
486.425	30.31
486.549	19.31
486.674	32.31
486.799	47.31
486.923	24.31
487.048	5.31
487.172	22.31
487.297	21.31
487.421	49.31
487.546	26.31
487.67	23.31
487.795	26.31
487.919	14.31
488.044	32.31
488.168	20.31
488.293	9.31
488.417	16.31
488.542	20.31
488.666	33.31
488.791	15.31
488.915	20.31
489.04	26.31
489.164	26.31
489.289	36.31
489.413	16.31
489.538	21.31
489.662	9.31
489.786	28.31
489.911	26.31
490.035	19.31
490.16	20.31
490.284	22.31
490.409	2.31
490.533	27.31
490.658	37.31
490.782	31.31
490.906	52.31
491.031	126.31
491.155	148.31
491.28	152.31
491.404	176.31
491.528	264.31
491.653	151.31
491.777	62.31
491.902	30.31
492.026	38.31
492.15	19.31
492.275	34.31
492.399	39.31
492.524	15.31
492.648	37.31
492.772	57.31
492.897	35.31
493.021	6.31
493.145	35.31
493.27	28.31
493.394	18.31
493.518	10.31
493.643	17.31
493.767	28.31
493.891	16.31
494.016	12.31
494.14	24.31
494.264	32.31
494.389	41.31
494.513	5.31
494.637	16.31
494.762	22.31
494.886	25.31
495.01	11.31
495.134	19.31
495.259	20.31
495.383	23.31
495.507	27.31
495.632	33.31
495.756	57.31
495.88	39.31
496.004	18.31
496.129	18.31
496.253	19.31
496.377	7.31
496.501	25.31
496.626	33.31
496.75	37.31
496.874	30.31
496.998	-1.69
497.123	30.31
497.247	12.31
497.371	12.31
497.495	17.31
497.62	30.31
497.744	22.31
497.868	32.31
497.992	14.31
498.116	17.31
498.241	32.31
498.365	8.31
498.489	21.31
498.613	44.31
498.737	10.31
498.862	17.31
498.986	0.31
499.11	24.31
499.234	20.31
499.358	23.31
499.482	15.31
499.607	28.31
499.731	37.31
499.855	31.31
499.979	39.31
500.103	21.31
500.227	39.31
500.351	43.31
500.476	19.31
500.6	23.31
500.724	16.31
500.848	30.31
500.972	35.31
501.096	33.31
501.22	22.31
501.344	9.31
501.469	24.31
501.593	22.31
501.717	30.31
501.841	28.31
501.965	21.31
502.089	25.31
502.213	17.31
502.337	33.31
502.461	-3.69
502.585	22.31
502.709	47.31
502.834	23.31
502.958	24.31
503.082	6.31
503.206	42.31
503.33	52.31
503.454	16.31
503.578	31.31
503.702	27.31
503.826	24.31
503.95	32.31
504.074	22.31
504.198	-9.69
504.322	0.31
504.446	10.31
504.57	25.31
504.694	15.31
504.818	23.31
504.942	31.31
505.066	29.31
505.19	25.31
505.314	21.31
505.438	31.31
505.562	25.31
505.686	23.31
505.81	32.31
505.934	29.31
506.058	20.31
506.182	33.31
506.306	20.31
506.43	28.31
506.554	35.31
506.678	23.31
506.802	35.31
506.926	32.31
507.05	30.31
507.174	32.31
507.298	31.31
507.422	11.31
507.546	39.31
507.67	27.31
507.794	31.31
507.918	32.31
508.042	28.31
508.165	13.31
508.289	12.31
508.413	17.31
508.537	9.31
508.661	27.31
508.785	24.31
508.909	22.31
509.033	30.31
509.157	28.31
509.281	46.31
509.405	43.31
509.528	47.31
509.652	55.31
509.776	27.31
509.9	37.31
510.024	30.31
510.148	28.31
510.272	29.31
510.396	36.31
510.519	23.31
510.643	44.31
510.767	35.31
510.891	34.31
511.015	35.31
511.139	30.31
511.263	45.31
511.386	47.31
511.51	41.31
511.634	41.31
511.758	38.31
511.882	17.31
512.006	53.31
512.129	65.31
512.253	103.31
512.377	85.31
512.501	83.31
512.625	84.31
512.748	118.31
512.872	79.31
512.996	58.31
513.12	52.31
513.244	60.31
513.367	69.31
513.491	60.31
513.615	67.31
513.739	84.31
513.862	80.31
513.986	88.31
514.11	105.31
514.234	84.31
514.358	100.31
514.481	119.31
514.605	93.31
514.729	122.31
514.853	116.31
514.976	98.31
515.1	107.31
515.224	124.31
515.348	104.31
515.471	85.31
515.595	111.31
515.719	146.31
515.842	223.31
515.966	289.31
516.09	325.31
516.214	321.31
516.337	329.31
516.461	205.31
516.585	86.31
516.708	44.31
516.832	31.31
516.956	24.31
517.08	2.31
517.203	9.31
517.327	29.31
517.451	43.31
517.574	20.31
517.698	10.31
517.822	11.31
517.945	25.31
518.069	31.31
518.193	55.31
518.316	25.31
518.44	24.31
518.564	20.31
518.687	-3.69
518.811	30.31
518.935	44.31
519.058	17.31
519.182	24.31
519.306	32.31
519.429	25.31
519.553	44.31
519.676	24.31
519.8	19.31
519.924	6.31
520.047	32.31
520.171	14.31
520.294	34.31
520.418	23.31
520.542	7.31
520.665	24.31
520.789	32.31
520.913	0.31
521.036	-1.69
521.16	7.31
521.283	15.31
521.407	20.31
521.53	22.31
521.654	9.31
521.778	21.31
521.901	19.31
522.025	18.31
522.148	2.31
522.272	39.31
522.395	10.31
522.519	23.31
522.643	20.31
522.766	17.31
522.89	39.31
523.013	29.31
523.137	6.31
523.26	10.31
523.384	10.31
523.507	25.31
523.631	7.31
523.754	5.31
523.878	9.31
524.002	18.31
524.125	20.31
524.249	10.31
524.372	21.31
524.496	26.31
524.619	12.31
524.743	18.31
524.866	16.31
524.99	8.31
525.113	14.31
525.237	24.31
525.36	21.31
525.484	9.31
525.607	12.31
525.731	-2.69
525.854	13.31
525.978	31.31
526.101	13.31
526.224	17.31
526.348	16.31
526.471	27.31
526.595	21.31
526.718	24.31
526.842	-4.69
526.965	2.31
527.089	19.31
527.212	20.31
527.336	32.31
527.459	20.31
527.582	31.31
527.706	19.31
527.829	10.31
527.953	14.31
528.076	9.31
528.2	3.31
528.323	18.31
528.446	19.31
528.57	13.31
528.693	30.31
528.817	9.31
528.94	29.31
529.064	57.31
529.187	12.31
529.31	16.31
529.434	21.31
529.557	7.31
529.68	8.31
529.804	20.31
529.927	30.31
530.051	5.31
530.174	17.31
530.297	10.31
530.421	10.31
530.544	20.31
530.668	30.31
530.791	21.31
530.914	26.31
531.038	13.31
531.161	35.31
531.284	38.31
531.408	36.31
531.531	16.31
531.654	10.31
531.778	13.31
531.901	1.31
532.024	21.31
532.148	8.31
532.271	24.31
532.394	26.31
532.518	1.31
532.641	15.31
532.764	31.31
532.888	14.31
533.011	5.31
533.134	3.31
533.258	34.31
533.381	4.31
533.504	23.31
533.628	9.31
533.751	18.31
533.874	21.31
533.997	11.31
534.121	12.31
534.244	20.31
534.367	18.31
534.491	42.31
534.614	23.31
534.737	27.31
534.86	29.31
534.984	26.31
535.107	5.31
535.23	7.31
535.354	9.31
535.477	17.31
535.6	17.31
535.723	30.31
535.847	14.31
535.97	11.31
536.093	7.31
536.216	20.31
536.34	28.31
536.463	2.31
536.586	26.31
536.709	39.31
536.833	25.31
536.956	31.31
537.079	3.31
537.202	19.31
537.325	10.31
537.449	9.31
537.572	22.31
537.695	9.31
537.818	25.31
537.941	6.31
538.065	23.31
538.188	34.31
538.311	25.31
538.434	17.31
538.558	7.31
538.681	18.31
538.804	25.31
538.927	31.31
539.05	23.31
539.173	25.31
539.297	7.31
539.42	13.31
539.543	10.31
539.666	36.31
539.789	32.31
539.913	24.31
540.036	26.31
540.159	29.31
540.282	25.31
540.405	18.31
540.528	18.31
540.651	24.31
540.775	24.31
540.898	13.31
541.021	30.31
541.144	33.31
541.267	26.31
541.39	24.31
541.513	26.31
541.637	24.31
541.76	36.31
541.883	29.31
542.006	30.31
542.129	54.31
542.252	29.31
542.375	32.31
542.498	30.31
542.622	44.31
542.745	54.31
542.868	50.31
542.991	46.31
543.114	58.31
543.237	63.31
543.36	65.31
543.483	47.31
543.606	64.31
543.73	89.31
543.853	68.31
543.976	98.31
544.099	122.31
544.222	138.31
544.345	123.31
544.468	171.31
544.591	224.31
544.714	274.31
544.837	352.31
544.96	425.31
545.083	653.31
545.206	1098.31
545.329	2450.31
545.453	10978.31
545.576	15260.31
545.699	15683.31
545.822	15683.31
545.945	15683.31
546.068	15683.31
546.191	15683.31
546.314	15683.31
546.437	15683.31
546.56	15683.31
546.683	15683.31
546.806	15683.31
546.929	15683.31
547.052	15683.31
547.175	15683.31
547.298	15683.31
547.421	15683.31
547.544	15683.31
547.667	3645.31
547.79	2956.31
547.913	1157.31
548.036	916.31
548.159	656.31
548.282	649.31
548.405	494.31
548.528	504.31
548.651	396.31
548.774	424.31
548.897	351.31
549.02	364.31
549.143	320.31
549.266	306.31
549.389	273.31
549.512	258.31
549.635	274.31
549.758	261.31
549.881	211.31
550.004	219.31
550.127	197.31
550.25	170.31
550.373	183.31
550.496	180.31
550.619	166.31
550.742	171.31
550.865	137.31
550.988	143.31
551.111	149.31
551.234	142.31
551.356	118.31
551.479	110.31
551.602	122.31
551.725	133.31
551.848	130.31
551.971	137.31
552.094	117.31
552.217	90.31
552.34	112.31
552.463	108.31
552.586	82.31
552.709	98.31
552.832	104.31
552.955	118.31
553.077	101.31
553.2	106.31
553.323	91.31
553.446	91.31
553.569	87.31
553.692	92.31
553.815	88.31
553.938	121.31
554.061	106.31
554.184	98.31
554.306	79.31
554.429	89.31
554.552	81.31
554.675	72.31
554.798	69.31
554.921	90.31
555.044	85.31
555.167	66.31
555.29	80.31
555.412	76.31
555.535	70.31
555.658	76.31
555.781	79.31
555.904	94.31
556.027	74.31
556.15	71.31
556.272	71.31
556.395	78.31
556.518	72.31
556.641	76.31
556.764	80.31
556.887	66.31
557.01	67.31
557.132	63.31
557.255	64.31
557.378	62.31
557.501	68.31
557.624	79.31
557.747	68.31
557.869	71.31
557.992	90.31
558.115	100.31
558.238	95.31
558.361	106.31
558.483	106.31
558.606	70.31
558.729	42.31
558.852	69.31
558.975	72.31
559.098	61.31
559.22	35.31
559.343	56.31
559.466	59.31
559.589	53.31
559.712	44.31
559.834	46.31
559.957	44.31
560.08	36.31
560.203	47.31
560.325	64.31
560.448	68.31
560.571	42.31
560.694	46.31
560.817	67.31
560.939	52.31
561.062	51.31
561.185	63.31
561.308	82.31
561.43	68.31
561.553	73.31
561.676	65.31
561.799	72.31
561.921	65.31
562.044	70.31
562.167	49.31
562.29	62.31
562.413	74.31
562.535	79.31
562.658	54.31
562.781	54.31
562.903	48.31
563.026	99.31
563.149	139.31
563.272	113.31
563.394	109.31
563.517	95.31
563.64	50.31
563.763	49.31
563.885	51.31
564.008	64.31
564.131	40.31
564.254	34.31
564.376	51.31
564.499	45.31
564.622	34.31
564.744	47.31
564.867	33.31
564.99	38.31
565.113	38.31
565.235	50.31
565.358	34.31
565.481	18.31
565.603	25.31
565.726	41.31
565.849	63.31
565.971	50.31
566.094	26.31
566.217	41.31
566.34	41.31
566.462	36.31
566.585	34.31
566.708	58.31
566.83	40.31
566.953	35.31
567.076	30.31
567.198	46.31
567.321	10.31
567.444	26.31
567.566	35.31
567.689	22.31
567.812	28.31
567.934	48.31
568.057	41.31
568.18	43.31
568.302	41.31
568.425	24.31
568.548	25.31
568.67	29.31
568.793	33.31
568.916	38.31
569.038	38.31
569.161	48.31
569.283	46.31
569.406	27.31
569.529	28.31
569.651	7.31
569.774	16.31
569.897	33.31
570.019	36.31
570.142	45.31
570.265	21.31
570.387	32.31
570.51	32.31
570.632	21.31
570.755	42.31
570.878	37.31
571	37.31
571.123	14.31
571.246	34.31
571.368	18.31
571.491	16.31
571.613	17.31
571.736	28.31
571.859	22.31
571.981	18.31
572.104	28.31
572.226	25.31
572.349	36.31
572.472	20.31
572.594	55.31
572.717	34.31
572.839	18.31
572.962	27.31
573.085	45.31
573.207	45.31
573.33	22.31
573.452	41.31
573.575	37.31
573.697	32.31
573.82	24.31
573.943	21.31
574.065	33.31
574.188	38.31
574.31	38.31
574.433	46.31
574.555	56.31
574.678	25.31
574.801	40.31
574.923	21.31
575.046	39.31
575.168	36.31
575.291	28.31
575.413	38.31
575.536	40.31
575.659	46.31
575.781	46.31
575.904	40.31
576.026	69.31
576.149	84.31
576.271	135.31
576.394	199.31
576.516	510.31
576.639	3597.31
576.761	10134.31
576.884	8886.31
577.007	8690.31
577.129	7973.31
577.252	3727.31
577.374	1317.31
577.497	520.31
577.619	278.31
577.742	168.31
577.864	178.31
577.987	141.31
578.109	134.31
578.232	131.31
578.354	151.31
578.477	200.31
578.599	395.31
578.722	1969.31
578.844	9131.31
578.967	9807.31
579.089	8741.31
579.212	9087.31
579.334	5281.31
579.457	1907.31
579.579	699.31
579.702	314.31
579.824	197.31
579.947	137.31
580.069	101.31
580.192	84.31
580.314	90.31
580.437	66.31
580.559	71.31
580.682	53.31
580.804	72.31
580.927	59.31
581.049	58.31
581.172	68.31
581.294	44.31
581.417	56.31
581.539	53.31
581.662	40.31
581.784	40.31
581.907	49.31
582.029	49.31
582.152	32.31
582.274	64.31
582.396	50.31
582.519	49.31
582.641	23.31
582.764	31.31
582.886	44.31
583.009	29.31
583.131	14.31
583.254	34.31
583.376	44.31
583.499	41.31
583.621	37.31
583.743	54.31
583.866	38.31
583.988	33.31
584.111	37.31
584.233	34.31
584.356	10.31
584.478	20.31
584.601	29.31
584.723	31.31
584.845	47.31
584.968	17.31
585.09	11.31
585.213	39.31
585.335	31.31
585.458	12.31
585.58	21.31
585.702	33.31
585.825	34.31
585.947	51.31
586.07	18.31
586.192	20.31
586.315	30.31
586.437	30.31
586.559	25.31
586.682	13.31
586.804	34.31
586.927	8.31
587.049	32.31
587.171	31.31
587.294	23.31
587.416	44.31
587.539	36.31
587.661	16.31
587.783	14.31
587.906	30.31
588.028	37.31
588.151	22.31
588.273	41.31
588.395	42.31
588.518	23.31
588.64	14.31
588.763	39.31
588.885	14.31
589.007	40.31
589.13	18.31
589.252	11.31
589.375	29.31
589.497	41.31
589.619	37.31
589.742	27.31
589.864	48.31
589.986	32.31
590.109	17.31
590.231	20.31
590.354	34.31
590.476	13.31
590.598	31.31
590.721	11.31
590.843	29.31
590.965	16.31
591.088	31.31
591.21	29.31
591.332	26.31
591.455	19.31
591.577	4.31
591.7	24.31
591.822	23.31
591.944	30.31
592.067	18.31
592.189	26.31
592.311	53.31
592.434	27.31
592.556	44.31
592.678	25.31
592.801	34.31
592.923	15.31
593.045	11.31
593.168	9.31
593.29	21.31
593.412	33.31
593.535	21.31
593.657	25.31
593.779	18.31
593.902	22.31
594.024	9.31
594.146	28.31
594.269	24.31
594.391	9.31
594.513	39.31
594.636	14.31
594.758	27.31
594.88	48.31
595.003	26.31
595.125	32.31
595.247	25.31
595.37	45.31
595.492	16.31
595.614	42.31
595.737	45.31
595.859	33.31
595.981	8.31
596.104	26.31
596.226	23.31
596.348	29.31
596.471	28.31
596.593	33.31
596.715	27.31
596.838	4.31
596.96	-0.69
597.082	18.31
597.204	28.31
597.327	34.31
597.449	14.31
597.571	20.31
597.694	21.31
597.816	31.31
597.938	38.31
598.061	18.31
598.183	14.31
598.305	32.31
598.427	24.31
598.55	32.31
598.672	35.31
598.794	35.31
598.917	28.31
599.039	42.31
599.161	26.31
599.283	13.31
599.406	21.31
599.528	16.31
599.65	53.31
599.773	22.31
599.895	34.31
600.017	32.31
600.139	42.31
600.262	8.31
600.384	12.31
600.506	25.31
600.628	42.31
600.751	12.31
600.873	29.31
600.995	17.31
601.118	14.31
601.24	24.31
601.362	45.31
601.484	31.31
601.607	36.31
601.729	18.31
601.851	18.31
601.973	18.31
602.096	31.31
602.218	16.31
602.34	25.31
602.462	22.31
602.585	16.31
602.707	-4.69
602.829	36.31
602.951	24.31
603.074	-1.69
603.196	26.31
603.318	0.31
603.44	21.31
603.563	23.31
603.685	26.31
603.807	25.31
603.929	27.31
604.052	35.31
604.174	26.31
604.296	48.31
604.418	30.31
604.541	42.31
604.663	16.31
604.785	27.31
604.907	4.31
605.03	8.31
605.152	45.31
605.274	25.31
605.396	22.31
605.519	28.31
605.641	28.31
605.763	20.31
605.885	28.31
606.008	33.31
606.13	45.31
606.252	29.31
606.374	1.31
606.496	8.31
606.619	24.31
606.741	17.31
606.863	26.31
606.985	46.31
607.108	35.31
607.23	18.31
607.352	21.31
607.474	14.31
607.596	20.31
607.719	23.31
607.841	42.31
607.963	25.31
608.085	9.31
608.207	34.31
608.33	19.31
608.452	17.31
608.574	7.31
608.696	31.31
608.819	25.31
608.941	21.31
609.063	21.31
609.185	36.31
609.307	22.31
609.43	16.31
609.552	15.31
609.674	10.31
609.796	25.31
609.918	32.31
610.041	15.31
610.163	42.31
610.285	34.31
610.407	38.31
610.529	11.31
610.652	20.31
610.774	17.31
610.896	6.31
611.018	17.31
611.14	24.31
611.263	17.31
611.385	26.31
611.507	34.31
611.629	1.31
611.751	18.31
611.873	49.31
611.996	17.31
612.118	26.31
612.24	28.31
612.362	27.31
612.484	43.31
612.607	47.31
612.729	51.31
612.851	37.31
612.973	37.31
613.095	15.31
613.218	13.31
613.34	34.31
613.462	32.31
613.584	12.31
613.706	15.31
613.828	31.31
613.951	24.31
614.073	17.31
614.195	-2.69
614.317	34.31
614.439	33.31
614.561	33.31
614.684	24.31
614.806	26.31
614.928	33.31
615.05	27.31
615.172	30.31
615.294	27.31
615.417	24.31
615.539	21.31
615.661	51.31
615.783	44.31
615.905	16.31
616.027	17.31
616.15	29.31
616.272	25.31
616.394	7.31
616.516	32.31
616.638	27.31
616.76	32.31
616.883	1.31
617.005	7.31
617.127	21.31
617.249	21.31
617.371	29.31
617.493	33.31
617.615	28.31
617.738	25.31
617.86	29.31
617.982	26.31
618.104	12.31
618.226	13.31
618.348	21.31
618.471	44.31
618.593	33.31
618.715	0.31
618.837	27.31
618.959	20.31
619.081	30.31
619.203	22.31
619.326	39.31
619.448	28.31
619.57	40.31
619.692	26.31
619.814	32.31
619.936	24.31
620.058	29.31
620.181	22.31
620.303	20.31
620.425	30.31
620.547	6.31
620.669	10.31
620.791	6.31
620.913	18.31
621.036	21.31
621.158	23.31
621.28	16.31
621.402	13.31
621.524	14.31
621.646	22.31
621.768	10.31
621.891	2.31
622.013	22.31
622.135	7.31
622.257	5.31
622.379	10.31
622.501	33.31
622.623	12.31
622.745	12.31
622.868	18.31
622.99	22.31
623.112	12.31
623.234	1.31
623.356	17.31
623.478	21.31
623.6	38.31
623.722	24.31
623.845	21.31
623.967	31.31
624.089	33.31
624.211	21.31
624.333	24.31
624.455	22.31
624.577	21.31
624.699	44.31
624.822	25.31
624.944	12.31
625.066	23.31
625.188	25.31
625.31	26.31
625.432	32.31
625.554	13.31
625.676	48.31
625.799	18.31
625.921	23.31
626.043	8.31
626.165	31.31
626.287	1.31
626.409	20.31
626.531	12.31
626.653	25.31
626.775	20.31
626.898	33.31
627.02	50.31
627.142	42.31
627.264	17.31
627.386	25.31
627.508	8.31
627.63	12.31
627.752	34.31
627.874	25.31
627.997	20.31
628.119	14.31
628.241	17.31
628.363	26.31
628.485	32.31
628.607	24.31
628.729	4.31
628.851	18.31
628.973	21.31
629.096	24.31
629.218	30.31
629.34	28.31
629.462	-3.69
629.584	3.31
629.706	16.31
629.828	36.31
629.95	22.31
630.072	15.31
630.195	14.31
630.317	22.31
630.439	19.31
630.561	4.31
630.683	4.31
630.805	29.31
630.927	19.31
631.049	7.31
631.171	10.31
631.293	6.31
631.416	2.31
631.538	9.31
631.66	18.31
631.782	34.31
631.904	13.31
632.026	-1.69
632.148	11.31
632.27	1.31
632.392	6.31
632.514	13.31
632.637	23.31
632.759	10.31
632.881	-4.69
633.003	6.31
633.125	8.31
633.247	1.31
633.369	8.31
633.491	29.31
633.613	24.31
633.735	20.31
633.858	20.31
633.98	18.31
634.102	15.31
634.224	10.31
634.346	7.31
634.468	26.31
634.59	17.31
634.712	12.31
634.834	26.31
634.956	14.31
635.078	2.31
635.201	8.31
635.323	16.31
635.445	24.31
635.567	7.31
635.689	29.31
635.811	12.31
635.933	1.31
636.055	29.31
636.177	30.31
636.299	27.31
636.421	10.31
636.544	11.31
636.666	21.31
636.788	33.31
636.91	34.31
637.032	13.31
637.154	33.31
637.276	38.31
637.398	31.31
637.52	12.31
637.642	11.31
637.764	17.31
637.887	31.31
638.009	24.31
638.131	5.31
638.253	0.31
638.375	29.31
638.497	10.31
638.619	16.31
638.741	-3.69
638.863	1.31
638.985	-9.69
639.107	-1.69
639.23	10.31
639.352	26.31
639.474	25.31
639.596	1.31
639.718	0.31
639.84	12.31
639.962	9.31
640.084	20.31
640.206	24.31
640.328	-4.69
640.45	4.31
640.573	30.31
640.695	20.31
640.817	29.31
640.939	38.31
641.061	12.31
641.183	18.31
641.305	7.31
641.427	12.31
641.549	21.31
641.671	27.31
641.793	-10.69
641.915	22.31
642.038	20.31
642.16	5.31
642.282	-0.69
642.404	-1.69
642.526	18.31
642.648	13.31
642.77	27.31
642.892	20.31
643.014	24.31
643.136	5.31
643.258	25.31
643.381	32.31
643.503	38.31
643.625	-0.69
643.747	0.31
643.869	10.31
643.991	8.31
644.113	23.31
644.235	14.31
644.357	-1.69
644.479	33.31
644.601	8.31
644.723	5.31
644.846	15.31
644.968	10.31
645.09	5.31
645.212	-0.69
645.334	16.31
645.456	8.31
645.578	17.31
645.7	21.31
645.822	14.31
645.944	19.31
646.066	-3.69
646.188	4.31
646.311	11.31
646.433	16.31
646.555	29.31
646.677	15.31
646.799	14.31
646.921	11.31
647.043	31.31
647.165	-9.69
647.287	17.31
647.409	4.31
647.531	32.31
647.654	5.31
647.776	20.31
647.898	28.31
648.02	4.31
648.142	-4.69
648.264	17.31
648.386	0.31
648.508	8.31
648.63	6.31
648.752	0.31
648.874	10.31
648.997	16.31
649.119	30.31
649.241	15.31
649.363	39.31
649.485	10.31
649.607	15.31
649.729	9.31
649.851	1.31
649.973	7.31
650.095	22.31
650.217	-7.69
650.34	20.31
650.462	21.31
650.584	14.31
650.706	31.31
650.828	24.31
650.95	1.31
651.072	22.31
651.194	14.31
651.316	8.31
651.438	18.31
651.56	-0.69
651.683	-22.69
651.805	6.31
651.927	-1.69
652.049	10.31
652.171	8.31
652.293	2.31
652.415	0.31
652.537	2.31
652.659	10.31
652.781	8.31
652.903	7.31
653.026	32.31
653.148	10.31
653.27	18.31
653.392	16.31
653.514	6.31
653.636	10.31
653.758	5.31
653.88	0.31
654.002	10.31
654.124	6.31
654.247	15.31
654.369	18.31
654.491	8.31
654.613	14.31
654.735	26.31
654.857	6.31
654.979	10.31
655.101	31.31
655.223	38.31
655.345	21.31
655.468	34.31
655.59	15.31
655.712	17.31
655.834	18.31
655.956	24.31
656.078	12.31
656.2	14.31
656.322	-4.69
656.444	-14.69
656.566	20.31
656.689	4.31
656.811	9.31
656.933	33.31
657.055	-7.69
657.177	7.31
657.299	4.31
657.421	21.31
657.543	10.31
657.665	-2.69
657.787	-3.69
657.91	-0.69
658.032	20.31
658.154	0.31
658.276	10.31
658.398	9.31
658.52	20.31
658.642	15.31
658.764	0.31
658.886	-15.69
659.009	14.31
659.131	16.31
659.253	12.31
659.375	17.31
659.497	12.31
659.619	29.31
659.741	15.31
659.863	9.31
659.985	-4.69
660.108	21.31
660.23	-7.69
660.352	27.31
660.474	2.31
660.596	29.31
660.718	21.31
660.84	29.31
660.962	12.31
661.084	-0.69
661.207	2.31
661.329	25.31
661.451	15.31
661.573	19.31
661.695	28.31
661.817	14.31
661.939	27.31
662.061	32.31
662.184	14.31
662.306	14.31
662.428	17.31
662.55	16.31
662.672	-2.69
662.794	11.31
662.916	2.31
663.038	8.31
663.161	34.31
663.283	32.31
663.405	10.31
663.527	-3.69
663.649	22.31
663.771	5.31
663.893	0.31
664.015	8.31
664.138	10.31
664.26	17.31
664.382	15.31
664.504	17.31
664.626	-8.69
664.748	16.31
664.87	12.31
664.992	9.31
665.115	29.31
665.237	4.31
665.359	5.31
665.481	21.31
665.603	25.31
665.725	2.31
665.847	-7.69
665.97	7.31
666.092	12.31
666.214	6.31
666.336	4.31
666.458	13.31
666.58	18.31
666.702	3.31
666.825	9.31
666.947	4.31
667.069	14.31
667.191	7.31
667.313	19.31
667.435	5.31
667.557	7.31
667.68	7.31
667.802	21.31
667.924	1.31
668.046	6.31
668.168	9.31
668.29	20.31
668.412	-10.69
668.535	5.31
668.657	4.31
668.779	-1.69
668.901	16.31
669.023	15.31
669.145	12.31
669.267	30.31
669.39	18.31
669.512	10.31
669.634	8.31
669.756	-4.69
669.878	5.31
670	11.31
670.123	10.31
670.245	37.31
670.367	8.31
670.489	23.31
670.611	3.31
670.733	10.31
670.856	16.31
670.978	12.31
671.1	7.31
671.222	21.31
671.344	8.31
671.466	8.31
671.589	-3.69
671.711	-1.69
671.833	-0.69
671.955	7.31
672.077	-11.69
672.199	29.31
672.322	26.31
672.444	4.31
672.566	14.31
672.688	-1.69
672.81	15.31
672.932	7.31
673.055	10.31
673.177	-4.69
673.299	31.31
673.421	8.31
673.543	2.31
673.665	22.31
673.788	30.31
673.91	1.31
674.032	-11.69
674.154	8.31
674.276	21.31
674.399	-5.69
674.521	5.31
674.643	22.31
674.765	17.31
674.887	12.31
675.009	2.31
675.132	5.31
675.254	6.31
675.376	21.31
675.498	4.31
675.62	29.31
675.743	8.31
675.865	16.31
675.987	7.31
676.109	6.31
676.231	2.31
676.354	31.31
676.476	5.31
676.598	15.31
676.72	4.31
676.842	13.31
676.965	2.31
677.087	31.31
677.209	47.31
677.331	26.31
677.453	6.31
677.576	25.31
677.698	17.31
677.82	9.31
677.942	4.31
678.064	-0.69
678.187	21.31
678.309	11.31
678.431	9.31
678.553	11.31
678.675	22.31
678.798	31.31
678.92	15.31
679.042	4.31
679.164	1.31
679.286	24.31
679.409	12.31
679.531	-23.69
679.653	-6.69
679.775	-1.69
679.898	10.31
680.02	21.31
680.142	-0.69
680.264	6.31
680.386	4.31
680.509	16.31
680.631	12.31
680.753	4.31
680.875	0.31
680.998	11.31
681.12	9.31
681.242	7.31
681.364	4.31
681.486	10.31
681.609	9.31
681.731	1.31
681.853	-3.69
681.975	8.31
682.098	14.31
682.22	20.31
682.342	22.31
682.464	30.31
682.587	9.31
682.709	14.31
682.831	-2.69
682.953	-1.69
683.076	14.31
683.198	13.31
683.32	14.31
683.442	17.31
683.565	20.31
683.687	10.31
683.809	7.31
683.931	16.31
684.054	16.31
684.176	12.31
684.298	21.31
684.42	19.31
684.543	14.31
684.665	-5.69
684.787	-5.69
684.909	2.31
685.032	20.31
685.154	5.31
685.276	18.31
685.398	8.31
685.521	-1.69
685.643	24.31
685.765	12.31
685.887	8.31
686.01	5.31
686.132	13.31
686.254	20.31
686.377	22.31
686.499	13.31
686.621	8.31
686.743	14.31
686.866	10.31
686.988	30.31
687.11	34.31
687.232	27.31
687.355	13.31
687.477	16.31
687.599	5.31
687.722	0.31
687.844	12.31
687.966	-1.69
688.088	2.31
688.211	38.31
688.333	29.31
688.455	9.31
688.578	26.31
688.7	18.31
688.822	16.31
688.944	5.31
689.067	44.31
689.189	18.31
689.311	-6.69
689.434	-3.69
689.556	20.31
689.678	19.31
689.801	12.31
689.923	15.31
690.045	25.31
690.167	8.31
690.29	28.31
690.412	12.31
690.534	24.31
690.657	4.31
690.779	9.31
690.901	13.31
691.024	20.31
691.146	-2.69
691.268	5.31
691.391	13.31
691.513	23.31
691.635	38.31
691.758	24.31
691.88	22.31
692.002	7.31
692.125	-3.69
692.247	14.31
692.369	20.31
692.492	0.31
692.614	17.31
692.736	-1.69
692.859	13.31
692.981	14.31
693.103	9.31
693.226	10.31
693.348	29.31
693.47	21.31
693.593	15.31
693.715	18.31
693.837	24.31
693.96	10.31
694.082	-2.69
694.204	2.31
694.327	12.31
694.449	7.31
694.571	9.31
694.694	5.31
694.816	13.31
694.938	-5.69
695.061	4.31
695.183	21.31
695.305	15.31
695.428	24.31
695.55	26.31
695.672	13.31
695.795	14.31
695.917	17.31
696.04	4.31
696.162	7.31
696.284	13.31
696.407	5.31
696.529	5.31
696.651	18.31
696.774	11.31
696.896	25.31
697.019	11.31
697.141	3.31
697.263	11.31
697.386	15.31
697.508	9.31
697.63	5.31
697.753	6.31
697.875	4.31
697.998	8.31
698.12	16.31
698.242	-5.69
698.365	-2.69
698.487	3.31
698.61	16.31
698.732	2.31
698.854	22.31
698.977	13.31
699.099	13.31
699.221	9.31
699.344	4.31
699.466	9.31
699.589	-1.69
699.711	-7.69
699.834	-11.69
699.956	10.31
700.078	14.31
700.201	2.31
700.323	-11.69
700.446	20.31
700.568	-2.69
700.69	1.31
700.813	15.31
700.935	16.31
701.058	-2.69
701.18	14.31
701.302	-8.69
701.425	-12.69
701.547	9.31
701.67	5.31
701.792	16.31
701.915	-7.69
702.037	-5.69
702.159	16.31
702.282	11.31
702.404	1.31
702.527	15.31
702.649	26.31
702.772	23.31
702.894	18.31
703.017	9.31
703.139	14.31
703.261	15.31
703.384	20.31
703.506	-7.69
703.629	-1.69
703.751	8.31
703.874	15.31
703.996	-3.69
704.119	-5.69
704.241	22.31
704.364	-5.69
704.486	5.31
704.608	1.31
704.731	-7.69
704.853	24.31
704.976	-0.69
705.098	10.31
705.221	6.31
705.343	-3.69
705.466	29.31
705.588	33.31
705.711	21.31
705.833	14.31
705.956	6.31
706.078	26.31
706.201	23.31
706.323	-5.69
706.446	-0.69
