Data from LowRes_mercury_15_20_11_07_2024_HR4C61881__81__15-23-40-370.txt Node

Date: Thu Nov 07 15:23:40 EST 2024
User: crc00042
Spectrometer: HR4C6188
Trigger mode: 4
Integration Time (sec): 1.000000E-1
Scans to average: 1
Electric dark correction enabled: true
Nonlinearity correction enabled: false
Boxcar width: 0
XAxis mode: Wavelengths
Number of Pixels in Spectrum: 3648
>>>>>Begin Spectral Data<<<<<
245.66	-62.38
245.797	-62.38
245.934	-62.38
246.071	-75.38
246.208	10.62
246.344	9.62
246.481	2.62
246.618	-1.38
246.755	17.62
246.892	8.62
247.029	15.62
247.165	-23.38
247.302	3.62
247.439	4.62
247.576	-0.38
247.713	-20.38
247.849	4.62
247.986	-21.38
248.123	-3.38
248.26	-7.38
248.396	18.62
248.533	-4.38
248.67	-2.38
248.806	1.62
248.943	-14.38
249.08	9.62
249.216	19.62
249.353	-5.38
249.49	12.62
249.626	2.62
249.763	-11.38
249.9	-17.38
250.036	0.62
250.173	-23.38
250.309	0.62
250.446	7.62
250.582	-2.38
250.719	-21.38
250.856	-16.38
250.992	-7.38
251.129	-8.38
251.265	-3.38
251.402	12.62
251.538	-15.38
251.675	6.62
251.811	14.62
251.948	-6.38
252.084	13.62
252.221	-6.38
252.357	-4.38
252.493	32.62
252.63	-5.38
252.766	15.62
252.903	-15.38
253.039	-5.38
253.175	13.62
253.312	-7.38
253.448	-11.38
253.585	-7.38
253.721	27.62
253.857	-6.38
253.994	2.62
254.13	-2.38
254.266	-7.38
254.403	-9.38
254.539	-14.38
254.675	1.62
254.811	-8.38
254.948	-6.38
255.084	-18.38
255.22	-11.38
255.356	-9.38
255.493	11.62
255.629	6.62
255.765	5.62
255.901	1.62
256.037	-3.38
256.174	-5.38
256.31	-17.38
256.446	4.62
256.582	-10.38
256.718	-5.38
256.854	17.62
256.991	15.62
257.127	23.62
257.263	-9.38
257.399	-2.38
257.535	-26.38
257.671	-6.38
257.807	-16.38
257.943	-27.38
258.079	-28.38
258.215	-19.38
258.351	10.62
258.487	-6.38
258.623	18.62
258.759	-0.38
258.895	5.62
259.031	1.62
259.167	-28.38
259.303	21.62
259.439	-5.38
259.575	1.62
259.711	5.62
259.847	-9.38
259.983	5.62
260.119	-1.38
260.255	-6.38
260.391	5.62
260.527	-9.38
260.663	9.62
260.799	-3.38
260.934	-12.38
261.07	-11.38
261.206	-14.38
261.342	-34.38
261.478	-3.38
261.614	4.62
261.749	-7.38
261.885	-6.38
262.021	-4.38
262.157	13.62
262.293	3.62
262.428	-15.38
262.564	-18.38
262.7	2.62
262.836	0.62
262.971	12.62
263.107	-5.38
263.243	23.62
263.378	-18.38
263.514	-14.38
263.65	-5.38
263.785	-9.38
263.921	-21.38
264.057	-11.38
264.192	-0.38
264.328	22.62
264.464	-15.38
264.599	3.62
264.735	0.62
264.871	-19.38
265.006	0.62
265.142	2.62
265.277	-3.38
265.413	16.62
265.548	17.62
265.684	7.62
265.819	-11.38
265.955	-22.38
266.091	-19.38
266.226	10.62
266.362	-11.38
266.497	-4.38
266.633	-10.38
266.768	-21.38
266.903	3.62
267.039	9.62
267.174	14.62
267.31	2.62
267.445	-20.38
267.581	-21.38
267.716	4.62
267.851	-8.38
267.987	17.62
268.122	8.62
268.258	-21.38
268.393	9.62
268.528	-2.38
268.664	-15.38
268.799	-12.38
268.934	-5.38
269.07	1.62
269.205	11.62
269.34	15.62
269.476	-2.38
269.611	-12.38
269.746	7.62
269.881	2.62
270.017	16.62
270.152	-11.38
270.287	-0.38
270.422	-9.38
270.558	-8.38
270.693	-9.38
270.828	-2.38
270.963	-0.38
271.098	-13.38
271.234	-5.38
271.369	11.62
271.504	-3.38
271.639	-0.38
271.774	-12.38
271.909	7.62
272.045	-7.38
272.18	-10.38
272.315	0.62
272.45	17.62
272.585	-6.38
272.72	-2.38
272.855	5.62
272.99	18.62
273.125	5.62
273.26	3.62
273.395	-4.38
273.53	-17.38
273.665	-3.38
273.8	0.62
273.935	-0.38
274.07	-4.38
274.205	4.62
274.34	-4.38
274.475	-5.38
274.61	20.62
274.745	-1.38
274.88	20.62
275.015	1.62
275.15	12.62
275.285	4.62
275.42	10.62
275.555	20.62
275.69	7.62
275.825	0.62
275.959	5.62
276.094	-14.38
276.229	-5.38
276.364	-2.38
276.499	23.62
276.634	-19.38
276.768	-7.38
276.903	-3.38
277.038	-17.38
277.173	-2.38
277.308	-11.38
277.442	-1.38
277.577	-11.38
277.712	1.62
277.847	1.62
277.981	-6.38
278.116	-18.38
278.251	11.62
278.386	-2.38
278.52	3.62
278.655	-6.38
278.79	0.62
278.924	-6.38
279.059	-3.38
279.194	-18.38
279.328	24.62
279.463	4.62
279.598	36.62
279.732	9.62
279.867	5.62
280.001	26.62
280.136	14.62
280.271	4.62
280.405	12.62
280.54	10.62
280.674	-4.38
280.809	3.62
280.943	-12.38
281.078	-8.38
281.213	7.62
281.347	-3.38
281.482	7.62
281.616	3.62
281.751	-9.38
281.885	-4.38
282.02	-13.38
282.154	-6.38
282.288	-16.38
282.423	-17.38
282.557	-15.38
282.692	-2.38
282.826	6.62
282.961	11.62
283.095	-0.38
283.229	2.62
283.364	-0.38
283.498	-9.38
283.633	3.62
283.767	-2.38
283.901	2.62
284.036	-13.38
284.17	-3.38
284.304	-0.38
284.439	18.62
284.573	9.62
284.707	8.62
284.842	9.62
284.976	-2.38
285.11	-20.38
285.244	10.62
285.379	45.62
285.513	9.62
285.647	4.62
285.781	-4.38
285.916	32.62
286.05	-16.38
286.184	15.62
286.318	2.62
286.453	-3.38
286.587	-1.38
286.721	-6.38
286.855	2.62
286.989	0.62
287.123	-7.38
287.258	-4.38
287.392	-10.38
287.526	-0.38
287.66	12.62
287.794	-15.38
287.928	-12.38
288.062	19.62
288.196	6.62
288.33	7.62
288.464	9.62
288.598	6.62
288.733	17.62
288.867	7.62
289.001	-13.38
289.135	-1.38
289.269	-22.38
289.403	-13.38
289.537	-0.38
289.671	0.62
289.805	-23.38
289.939	1.62
290.073	5.62
290.207	12.62
290.34	-14.38
290.474	3.62
290.608	-2.38
290.742	1.62
290.876	-22.38
291.01	8.62
291.144	20.62
291.278	19.62
291.412	8.62
291.546	2.62
291.679	-11.38
291.813	9.62
291.947	7.62
292.081	13.62
292.215	11.62
292.349	9.62
292.482	8.62
292.616	-18.38
292.75	-11.38
292.884	-5.38
293.018	7.62
293.151	-14.38
293.285	3.62
293.419	2.62
293.553	-8.38
293.686	-18.38
293.82	10.62
293.954	31.62
294.088	12.62
294.221	-21.38
294.355	-16.38
294.489	-12.38
294.622	-10.38
294.756	-11.38
294.89	5.62
295.023	0.62
295.157	16.62
295.291	10.62
295.424	16.62
295.558	-6.38
295.691	1.62
295.825	-8.38
295.959	11.62
296.092	-11.38
296.226	-10.38
296.359	25.62
296.493	-0.38
296.627	4.62
296.76	4.62
296.894	-15.38
297.027	-4.38
297.161	-14.38
297.294	-10.38
297.428	-8.38
297.561	16.62
297.695	3.62
297.828	-5.38
297.962	-24.38
298.095	-18.38
298.229	-7.38
298.362	-14.38
298.495	-31.38
298.629	-4.38
298.762	-14.38
298.896	-11.38
299.029	-11.38
299.162	3.62
299.296	1.62
299.429	-8.38
299.563	-4.38
299.696	4.62
299.829	-11.38
299.963	17.62
300.096	11.62
300.229	-6.38
300.363	-21.38
300.496	4.62
300.629	-20.38
300.763	-11.38
300.896	-5.38
301.029	-3.38
301.162	1.62
301.296	-11.38
301.429	-7.38
301.562	-21.38
301.695	15.62
301.829	10.62
301.962	23.62
302.095	12.62
302.228	-3.38
302.362	4.62
302.495	-20.38
302.628	-5.38
302.761	3.62
302.894	8.62
303.027	5.62
303.161	-13.38
303.294	-17.38
303.427	5.62
303.56	-0.38
303.693	9.62
303.826	6.62
303.959	-6.38
304.092	-6.38
304.225	-11.38
304.359	14.62
304.492	3.62
304.625	-0.38
304.758	19.62
304.891	2.62
305.024	-4.38
305.157	7.62
305.29	5.62
305.423	-16.38
305.556	5.62
305.689	17.62
305.822	2.62
305.955	-8.38
306.088	1.62
306.221	-12.38
306.354	-10.38
306.487	-12.38
306.62	-3.38
306.752	-3.38
306.885	-6.38
307.018	6.62
307.151	6.62
307.284	10.62
307.417	-5.38
307.55	-3.38
307.683	2.62
307.816	14.62
307.948	2.62
308.081	23.62
308.214	-0.38
308.347	10.62
308.48	-6.38
308.613	-23.38
308.745	3.62
308.878	-1.38
309.011	-15.38
309.144	8.62
309.277	6.62
309.409	3.62
309.542	-16.38
309.675	5.62
309.808	5.62
309.94	18.62
310.073	-19.38
310.206	-12.38
310.339	5.62
310.471	-2.38
310.604	7.62
310.737	1.62
310.869	1.62
311.002	2.62
311.135	9.62
311.267	-27.38
311.4	-3.38
311.533	26.62
311.665	-8.38
311.798	-14.38
311.93	-4.38
312.063	13.62
312.196	33.62
312.328	75.62
312.461	46.62
312.593	28.62
312.726	39.62
312.859	87.62
312.991	165.62
313.124	45.62
313.256	24.62
313.389	-3.38
313.521	-17.38
313.654	-13.38
313.786	-10.38
313.919	11.62
314.051	7.62
314.184	7.62
314.316	11.62
314.449	-9.38
314.581	2.62
314.714	-12.38
314.846	4.62
314.978	-11.38
315.111	-18.38
315.243	-19.38
315.376	-0.38
315.508	12.62
315.641	10.62
315.773	22.62
315.905	1.62
316.038	3.62
316.17	16.62
316.302	8.62
316.435	-4.38
316.567	-17.38
316.699	9.62
316.832	-25.38
316.964	-3.38
317.096	11.62
317.229	-1.38
317.361	-21.38
317.493	-10.38
317.625	-21.38
317.758	-2.38
317.89	18.62
318.022	4.62
318.155	-0.38
318.287	2.62
318.419	12.62
318.551	8.62
318.683	2.62
318.816	5.62
318.948	-0.38
319.08	0.62
319.212	-8.38
319.344	-0.38
319.477	-7.38
319.609	-4.38
319.741	7.62
319.873	-10.38
320.005	13.62
320.137	3.62
320.269	4.62
320.401	5.62
320.534	3.62
320.666	-9.38
320.798	-19.38
320.93	0.62
321.062	-4.38
321.194	-10.38
321.326	-0.38
321.458	3.62
321.59	2.62
321.722	11.62
321.854	2.62
321.986	-6.38
322.118	-3.38
322.25	-1.38
322.382	10.62
322.514	4.62
322.646	-18.38
322.778	12.62
322.91	-4.38
323.042	16.62
323.174	-14.38
323.306	-20.38
323.438	-2.38
323.57	3.62
323.702	-7.38
323.834	-8.38
323.966	-10.38
324.097	-16.38
324.229	15.62
324.361	5.62
324.493	9.62
324.625	-8.38
324.757	5.62
324.889	-0.38
325.021	13.62
325.152	21.62
325.284	16.62
325.416	-4.38
325.548	23.62
325.68	2.62
325.811	18.62
325.943	13.62
326.075	1.62
326.207	2.62
326.339	-2.38
326.47	3.62
326.602	17.62
326.734	15.62
326.866	5.62
326.997	-4.38
327.129	-12.38
327.261	-14.38
327.392	-10.38
327.524	3.62
327.656	-4.38
327.787	20.62
327.919	2.62
328.051	15.62
328.182	21.62
328.314	22.62
328.446	7.62
328.577	13.62
328.709	3.62
328.841	-18.38
328.972	4.62
329.104	0.62
329.235	14.62
329.367	-7.38
329.499	-9.38
329.63	18.62
329.762	8.62
329.893	3.62
330.025	-15.38
330.156	-9.38
330.288	-2.38
330.419	13.62
330.551	1.62
330.683	22.62
330.814	-1.38
330.946	25.62
331.077	-3.38
331.208	-8.38
331.34	4.62
331.471	-14.38
331.603	6.62
331.734	-18.38
331.866	18.62
331.997	-0.38
332.129	5.62
332.26	8.62
332.392	3.62
332.523	-0.38
332.654	-10.38
332.786	1.62
332.917	-6.38
333.048	9.62
333.18	1.62
333.311	0.62
333.443	0.62
333.574	-8.38
333.705	23.62
333.837	26.62
333.968	116.62
334.099	236.62
334.231	204.62
334.362	68.62
334.493	13.62
334.624	14.62
334.756	-6.38
334.887	24.62
335.018	27.62
335.15	8.62
335.281	9.62
335.412	14.62
335.543	22.62
335.675	16.62
335.806	-6.38
335.937	1.62
336.068	22.62
336.199	22.62
336.331	-0.38
336.462	-10.38
336.593	23.62
336.724	2.62
336.855	9.62
336.986	7.62
337.118	3.62
337.249	19.62
337.38	4.62
337.511	12.62
337.642	11.62
337.773	-11.38
337.904	19.62
338.035	21.62
338.166	8.62
338.298	27.62
338.429	-4.38
338.56	16.62
338.691	5.62
338.822	-8.38
338.953	8.62
339.084	-4.38
339.215	14.62
339.346	14.62
339.477	13.62
339.608	8.62
339.739	12.62
339.87	8.62
340.001	16.62
340.132	16.62
340.263	4.62
340.394	31.62
340.525	3.62
340.656	-0.38
340.787	-0.38
340.918	12.62
341.049	14.62
341.179	1.62
341.31	3.62
341.441	9.62
341.572	6.62
341.703	4.62
341.834	-13.38
341.965	12.62
342.096	9.62
342.227	-4.38
342.357	-13.38
342.488	-0.38
342.619	17.62
342.75	21.62
342.881	-26.38
343.012	8.62
343.142	23.62
343.273	-10.38
343.404	11.62
343.535	30.62
343.666	35.62
343.796	10.62
343.927	37.62
344.058	18.62
344.189	14.62
344.319	33.62
344.45	23.62
344.581	30.62
344.712	12.62
344.842	4.62
344.973	10.62
345.104	25.62
345.234	13.62
345.365	-11.38
345.496	2.62
345.626	23.62
345.757	27.62
345.888	16.62
346.018	17.62
346.149	8.62
346.28	33.62
346.41	6.62
346.541	33.62
346.672	20.62
346.802	25.62
346.933	28.62
347.063	33.62
347.194	18.62
347.325	24.62
347.455	39.62
347.586	18.62
347.716	19.62
347.847	46.62
347.977	19.62
348.108	42.62
348.238	24.62
348.369	25.62
348.499	28.62
348.63	40.62
348.76	36.62
348.891	59.62
349.021	45.62
349.152	50.62
349.282	27.62
349.413	37.62
349.543	43.62
349.674	24.62
349.804	36.62
349.935	17.62
350.065	19.62
350.196	13.62
350.326	25.62
350.456	14.62
350.587	18.62
350.717	25.62
350.848	37.62
350.978	43.62
351.108	11.62
351.239	22.62
351.369	2.62
351.499	3.62
351.63	27.62
351.76	40.62
351.89	9.62
352.021	-0.38
352.151	0.62
352.281	10.62
352.412	19.62
352.542	18.62
352.672	17.62
352.803	13.62
352.933	23.62
353.063	21.62
353.193	27.62
353.324	32.62
353.454	40.62
353.584	27.62
353.714	8.62
353.845	25.62
353.975	-1.38
354.105	-4.38
354.235	10.62
354.365	16.62
354.496	19.62
354.626	30.62
354.756	29.62
354.886	36.62
355.016	25.62
355.146	19.62
355.277	26.62
355.407	8.62
355.537	19.62
355.667	12.62
355.797	10.62
355.927	6.62
356.057	23.62
356.187	2.62
356.318	5.62
356.448	19.62
356.578	24.62
356.708	33.62
356.838	27.62
356.968	16.62
357.098	31.62
357.228	21.62
357.358	30.62
357.488	-7.38
357.618	58.62
357.748	48.62
357.878	26.62
358.008	10.62
358.138	21.62
358.268	35.62
358.398	29.62
358.528	4.62
358.658	41.62
358.788	10.62
358.918	33.62
359.048	18.62
359.178	36.62
359.308	21.62
359.438	25.62
359.568	29.62
359.698	21.62
359.827	20.62
359.957	21.62
360.087	18.62
360.217	-7.38
360.347	19.62
360.477	30.62
360.607	16.62
360.737	29.62
360.866	7.62
360.996	26.62
361.126	12.62
361.256	26.62
361.386	27.62
361.516	56.62
361.645	13.62
361.775	25.62
361.905	12.62
362.035	30.62
362.165	33.62
362.294	52.62
362.424	52.62
362.554	41.62
362.684	16.62
362.813	40.62
362.943	64.62
363.073	32.62
363.203	45.62
363.332	57.62
363.462	64.62
363.592	100.62
363.721	106.62
363.851	135.62
363.981	198.62
364.111	259.62
364.24	318.62
364.37	493.62
364.5	875.62
364.629	1823.62
364.759	3798.62
364.888	6251.62
365.018	9345.62
365.148	14798.62
365.277	12955.62
365.407	4765.62
365.537	3079.62
365.666	4009.62
365.796	1820.62
365.925	783.62
366.055	751.62
366.184	1039.62
366.314	1383.62
366.444	2468.62
366.573	2102.62
366.703	680.62
366.832	197.62
366.962	115.62
367.091	84.62
367.221	74.62
367.35	62.62
367.48	79.62
367.609	56.62
367.739	46.62
367.868	25.62
367.998	50.62
368.127	40.62
368.257	43.62
368.386	65.62
368.516	31.62
368.645	11.62
368.775	42.62
368.904	30.62
369.033	31.62
369.163	29.62
369.292	29.62
369.422	27.62
369.551	23.62
369.68	55.62
369.81	40.62
369.939	27.62
370.069	38.62
370.198	52.62
370.327	19.62
370.457	28.62
370.586	31.62
370.715	29.62
370.845	13.62
370.974	17.62
371.103	50.62
371.233	38.62
371.362	37.62
371.491	27.62
371.621	58.62
371.75	40.62
371.879	22.62
372.008	32.62
372.138	54.62
372.267	62.62
372.396	46.62
372.525	47.62
372.655	25.62
372.784	21.62
372.913	35.62
373.042	33.62
373.172	41.62
373.301	3.62
373.43	-14.38
373.559	30.62
373.688	18.62
373.818	21.62
373.947	31.62
374.076	13.62
374.205	28.62
374.334	8.62
374.463	3.62
374.593	24.62
374.722	26.62
374.851	44.62
374.98	3.62
375.109	16.62
375.238	20.62
375.367	30.62
375.496	17.62
375.625	0.62
375.755	22.62
375.884	32.62
376.013	23.62
376.142	1.62
376.271	3.62
376.4	-0.38
376.529	23.62
376.658	21.62
376.787	13.62
376.916	11.62
377.045	10.62
377.174	4.62
377.303	10.62
377.432	42.62
377.561	25.62
377.69	32.62
377.819	30.62
377.948	32.62
378.077	18.62
378.206	21.62
378.335	13.62
378.464	5.62
378.593	17.62
378.722	19.62
378.851	9.62
378.98	15.62
379.108	3.62
379.237	-4.38
379.366	12.62
379.495	29.62
379.624	23.62
379.753	2.62
379.882	8.62
380.011	-5.38
380.14	13.62
380.268	15.62
380.397	16.62
380.526	29.62
380.655	7.62
380.784	20.62
380.913	9.62
381.041	17.62
381.17	8.62
381.299	-3.38
381.428	23.62
381.557	27.62
381.685	18.62
381.814	18.62
381.943	15.62
382.072	9.62
382.2	-0.38
382.329	4.62
382.458	-2.38
382.587	35.62
382.715	28.62
382.844	45.62
382.973	16.62
383.102	10.62
383.23	19.62
383.359	10.62
383.488	18.62
383.616	7.62
383.745	10.62
383.874	20.62
384.003	-2.38
384.131	3.62
384.26	20.62
384.389	20.62
384.517	12.62
384.646	-3.38
384.774	20.62
384.903	34.62
385.032	22.62
385.16	22.62
385.289	1.62
385.418	24.62
385.546	19.62
385.675	19.62
385.803	24.62
385.932	36.62
386.06	6.62
386.189	27.62
386.318	17.62
386.446	9.62
386.575	19.62
386.703	10.62
386.832	6.62
386.96	-6.38
387.089	30.62
387.217	3.62
387.346	-3.38
387.474	7.62
387.603	12.62
387.731	35.62
387.86	30.62
387.988	8.62
388.117	29.62
388.245	8.62
388.374	6.62
388.502	26.62
388.631	16.62
388.759	15.62
388.888	21.62
389.016	12.62
389.144	29.62
389.273	10.62
389.401	18.62
389.53	12.62
389.658	38.62
389.786	15.62
389.915	1.62
390.043	11.62
390.172	18.62
390.3	41.62
390.428	44.62
390.557	3.62
390.685	38.62
390.813	35.62
390.942	47.62
391.07	16.62
391.198	24.62
391.327	8.62
391.455	5.62
391.583	16.62
391.712	23.62
391.84	19.62
391.968	20.62
392.096	36.62
392.225	16.62
392.353	30.62
392.481	2.62
392.609	24.62
392.738	5.62
392.866	32.62
392.994	27.62
393.122	27.62
393.251	16.62
393.379	11.62
393.507	5.62
393.635	30.62
393.764	24.62
393.892	5.62
394.02	18.62
394.148	26.62
394.276	31.62
394.404	34.62
394.533	16.62
394.661	27.62
394.789	46.62
394.917	39.62
395.045	3.62
395.173	2.62
395.302	18.62
395.43	21.62
395.558	35.62
395.686	47.62
395.814	38.62
395.942	22.62
396.07	39.62
396.198	42.62
396.326	35.62
396.454	32.62
396.582	23.62
396.711	26.62
396.839	39.62
396.967	29.62
397.095	9.62
397.223	36.62
397.351	41.62
397.479	49.62
397.607	25.62
397.735	52.62
397.863	55.62
397.991	42.62
398.119	14.62
398.247	51.62
398.375	41.62
398.503	35.62
398.631	41.62
398.759	44.62
398.887	48.62
399.015	39.62
399.143	57.62
399.271	65.62
399.399	78.62
399.526	88.62
399.654	70.62
399.782	70.62
399.91	106.62
400.038	93.62
400.166	83.62
400.294	78.62
400.422	69.62
400.55	93.62
400.678	102.62
400.805	121.62
400.933	110.62
401.061	99.62
401.189	100.62
401.317	139.62
401.445	102.62
401.573	85.62
401.7	40.62
401.828	43.62
401.956	36.62
402.084	40.62
402.212	31.62
402.34	31.62
402.467	21.62
402.595	23.62
402.723	26.62
402.851	49.62
402.978	51.62
403.106	68.62
403.234	88.62
403.362	109.62
403.489	111.62
403.617	147.62
403.745	183.62
403.873	277.62
404	561.62
404.128	1454.62
404.256	3953.62
404.384	5074.62
404.511	5386.62
404.639	7209.62
404.767	11368.62
404.894	14636.62
405.022	4905.62
405.15	1298.62
405.277	429.62
405.405	243.62
405.533	135.62
405.66	117.62
405.788	40.62
405.916	43.62
406.043	54.62
406.171	45.62
406.299	47.62
406.426	48.62
406.554	47.62
406.681	68.62
406.809	40.62
406.937	58.62
407.064	68.62
407.192	127.62
407.319	305.62
407.447	515.62
407.574	557.62
407.702	634.62
407.83	842.62
407.957	1595.62
408.085	942.62
408.212	258.62
408.34	76.62
408.467	58.62
408.595	32.62
408.722	58.62
408.85	34.62
408.977	32.62
409.105	24.62
409.232	49.62
409.36	36.62
409.487	30.62
409.615	26.62
409.742	33.62
409.87	26.62
409.997	40.62
410.125	32.62
410.252	55.62
410.379	21.62
410.507	22.62
410.634	16.62
410.762	35.62
410.889	37.62
411.017	26.62
411.144	30.62
411.271	29.62
411.399	33.62
411.526	22.62
411.653	19.62
411.781	41.62
411.908	36.62
412.036	21.62
412.163	33.62
412.29	24.62
412.418	35.62
412.545	24.62
412.672	29.62
412.8	50.62
412.927	26.62
413.054	52.62
413.182	43.62
413.309	21.62
413.436	16.62
413.564	14.62
413.691	34.62
413.818	47.62
413.945	17.62
414.073	16.62
414.2	25.62
414.327	28.62
414.454	38.62
414.582	26.62
414.709	17.62
414.836	3.62
414.963	12.62
415.091	26.62
415.218	16.62
415.345	44.62
415.472	28.62
415.6	13.62
415.727	29.62
415.854	17.62
415.981	10.62
416.108	15.62
416.236	28.62
416.363	44.62
416.49	29.62
416.617	24.62
416.744	22.62
416.871	31.62
416.998	4.62
417.126	20.62
417.253	22.62
417.38	9.62
417.507	10.62
417.634	28.62
417.761	41.62
417.888	47.62
418.015	6.62
418.143	20.62
418.27	49.62
418.397	19.62
418.524	23.62
418.651	43.62
418.778	36.62
418.905	61.62
419.032	43.62
419.159	44.62
419.286	43.62
419.413	53.62
419.54	39.62
419.667	35.62
419.794	30.62
419.921	40.62
420.048	50.62
420.175	40.62
420.302	47.62
420.429	52.62
420.556	34.62
420.683	35.62
420.81	48.62
420.937	70.62
421.064	56.62
421.191	64.62
421.318	50.62
421.445	81.62
421.572	53.62
421.699	61.62
421.826	44.62
421.953	24.62
422.08	31.62
422.207	10.62
422.334	10.62
422.461	35.62
422.588	8.62
422.714	22.62
422.841	24.62
422.968	30.62
423.095	5.62
423.222	6.62
423.349	23.62
423.476	9.62
423.603	-1.38
423.729	12.62
423.856	18.62
423.983	36.62
424.11	-2.38
424.237	11.62
424.364	21.62
424.491	18.62
424.617	13.62
424.744	12.62
424.871	5.62
424.998	20.62
425.125	1.62
425.251	13.62
425.378	7.62
425.505	26.62
425.632	12.62
425.758	6.62
425.885	25.62
426.012	41.62
426.139	30.62
426.266	11.62
426.392	21.62
426.519	21.62
426.646	15.62
426.772	17.62
426.899	16.62
427.026	7.62
427.153	9.62
427.279	43.62
427.406	38.62
427.533	18.62
427.659	8.62
427.786	17.62
427.913	36.62
428.039	18.62
428.166	23.62
428.293	28.62
428.419	42.62
428.546	26.62
428.673	1.62
428.799	12.62
428.926	27.62
429.053	32.62
429.179	39.62
429.306	34.62
429.433	43.62
429.559	23.62
429.686	17.62
429.812	23.62
429.939	21.62
430.066	23.62
430.192	-3.38
430.319	23.62
430.445	30.62
430.572	43.62
430.699	5.62
430.825	30.62
430.952	26.62
431.078	17.62
431.205	37.62
431.331	30.62
431.458	12.62
431.584	43.62
431.711	17.62
431.837	27.62
431.964	27.62
432.09	42.62
432.217	17.62
432.343	24.62
432.47	44.62
432.596	11.62
432.723	11.62
432.849	16.62
432.976	23.62
433.102	51.62
433.229	25.62
433.355	67.62
433.482	91.62
433.608	119.62
433.735	95.62
433.861	107.62
433.987	146.62
434.114	196.62
434.24	163.62
434.367	221.62
434.493	230.62
434.62	267.62
434.746	365.62
434.872	606.62
434.999	817.62
435.125	1740.62
435.252	5512.62
435.378	13437.62
435.504	15227.62
435.631	15422.62
435.757	15678.62
435.883	15678.62
436.01	15678.62
436.136	15678.62
436.262	15678.62
436.389	3456.62
436.515	2022.62
436.641	752.62
436.768	606.62
436.894	388.62
437.02	393.62
437.147	291.62
437.273	300.62
437.399	196.62
437.526	225.62
437.652	176.62
437.778	186.62
437.904	129.62
438.031	162.62
438.157	143.62
438.283	149.62
438.409	112.62
438.536	126.62
438.662	111.62
438.788	109.62
438.914	110.62
439.041	106.62
439.167	112.62
439.293	82.62
439.419	89.62
439.546	89.62
439.672	81.62
439.798	92.62
439.924	67.62
440.05	92.62
440.177	63.62
440.303	74.62
440.429	60.62
440.555	63.62
440.681	67.62
440.807	76.62
440.934	47.62
441.06	33.62
441.186	46.62
441.312	55.62
441.438	53.62
441.564	59.62
441.69	56.62
441.816	61.62
441.943	36.62
442.069	38.62
442.195	44.62
442.321	59.62
442.447	19.62
442.573	54.62
442.699	40.62
442.825	38.62
442.951	48.62
443.077	55.62
443.203	51.62
443.33	42.62
443.456	15.62
443.582	53.62
443.708	41.62
443.834	60.62
443.96	52.62
444.086	50.62
444.212	71.62
444.338	71.62
444.464	49.62
444.59	41.62
444.716	36.62
444.842	55.62
444.968	43.62
445.094	27.62
445.22	28.62
445.346	26.62
445.472	26.62
445.598	34.62
445.724	22.62
445.85	20.62
445.976	25.62
446.102	47.62
446.228	45.62
446.354	44.62
446.48	28.62
446.605	39.62
446.731	42.62
446.857	17.62
446.983	39.62
447.109	34.62
447.235	30.62
447.361	35.62
447.487	40.62
447.613	29.62
447.739	15.62
447.865	32.62
447.99	18.62
448.116	13.62
448.242	30.62
448.368	31.62
448.494	26.62
448.62	31.62
448.746	28.62
448.872	28.62
448.997	0.62
449.123	9.62
449.249	23.62
449.375	31.62
449.501	18.62
449.627	15.62
449.752	40.62
449.878	18.62
450.004	22.62
450.13	11.62
450.256	15.62
450.381	10.62
450.507	30.62
450.633	38.62
450.759	27.62
450.884	17.62
451.01	18.62
451.136	23.62
451.262	40.62
451.388	28.62
451.513	13.62
451.639	25.62
451.765	21.62
451.89	28.62
452.016	16.62
452.142	8.62
452.268	33.62
452.393	46.62
452.519	18.62
452.645	27.62
452.771	23.62
452.896	4.62
453.022	19.62
453.148	45.62
453.273	29.62
453.399	5.62
453.525	15.62
453.65	17.62
453.776	13.62
453.902	25.62
454.027	28.62
454.153	27.62
454.279	28.62
454.404	21.62
454.53	28.62
454.656	49.62
454.781	20.62
454.907	11.62
455.032	24.62
455.158	47.62
455.284	23.62
455.409	27.62
455.535	25.62
455.66	27.62
455.786	28.62
455.912	40.62
456.037	22.62
456.163	26.62
456.288	29.62
456.414	6.62
456.539	3.62
456.665	15.62
456.791	17.62
456.916	19.62
457.042	33.62
457.167	13.62
457.293	30.62
457.418	11.62
457.544	11.62
457.669	33.62
457.795	23.62
457.92	17.62
458.046	20.62
458.171	14.62
458.297	8.62
458.422	-9.38
458.548	5.62
458.673	34.62
458.799	24.62
458.924	15.62
459.05	20.62
459.175	33.62
459.301	5.62
459.426	22.62
459.552	20.62
459.677	10.62
459.803	45.62
459.928	34.62
460.053	4.62
460.179	18.62
460.304	24.62
460.43	10.62
460.555	11.62
460.681	25.62
460.806	16.62
460.931	27.62
461.057	34.62
461.182	20.62
461.308	41.62
461.433	23.62
461.558	4.62
461.684	28.62
461.809	26.62
461.934	19.62
462.06	39.62
462.185	19.62
462.311	0.62
462.436	44.62
462.561	27.62
462.687	17.62
462.812	24.62
462.937	18.62
463.063	19.62
463.188	31.62
463.313	28.62
463.439	27.62
463.564	28.62
463.689	26.62
463.814	7.62
463.94	12.62
464.065	25.62
464.19	21.62
464.316	4.62
464.441	-9.38
464.566	-5.38
464.692	8.62
464.817	12.62
464.942	17.62
465.067	22.62
465.193	6.62
465.318	20.62
465.443	23.62
465.568	15.62
465.694	21.62
465.819	24.62
465.944	40.62
466.069	32.62
466.194	27.62
466.32	35.62
466.445	16.62
466.57	18.62
466.695	24.62
466.82	14.62
466.946	33.62
467.071	18.62
467.196	26.62
467.321	37.62
467.446	11.62
467.572	26.62
467.697	18.62
467.822	47.62
467.947	48.62
468.072	32.62
468.197	16.62
468.323	17.62
468.448	23.62
468.573	23.62
468.698	36.62
468.823	37.62
468.948	10.62
469.073	44.62
469.198	48.62
469.324	47.62
469.449	9.62
469.574	34.62
469.699	48.62
469.824	29.62
469.949	29.62
470.074	30.62
470.199	41.62
470.324	44.62
470.449	34.62
470.574	11.62
470.7	19.62
470.825	31.62
470.95	46.62
471.075	30.62
471.2	44.62
471.325	60.62
471.45	35.62
471.575	15.62
471.7	36.62
471.825	25.62
471.95	28.62
472.075	22.62
472.2	20.62
472.325	26.62
472.45	28.62
472.575	28.62
472.7	18.62
472.825	37.62
472.95	30.62
473.075	34.62
473.2	43.62
473.325	41.62
473.45	36.62
473.575	29.62
473.7	52.62
473.825	29.62
473.95	10.62
474.075	18.62
474.2	11.62
474.325	10.62
474.45	23.62
474.574	24.62
474.699	9.62
474.824	35.62
474.949	7.62
475.074	0.62
475.199	48.62
475.324	25.62
475.449	15.62
475.574	19.62
475.699	32.62
475.824	17.62
475.949	9.62
476.073	15.62
476.198	20.62
476.323	4.62
476.448	5.62
476.573	2.62
476.698	28.62
476.823	18.62
476.947	32.62
477.072	30.62
477.197	23.62
477.322	4.62
477.447	6.62
477.572	12.62
477.697	-2.38
477.821	-2.38
477.946	31.62
478.071	19.62
478.196	35.62
478.321	16.62
478.445	17.62
478.57	16.62
478.695	12.62
478.82	22.62
478.945	23.62
479.069	25.62
479.194	10.62
479.319	12.62
479.444	23.62
479.569	10.62
479.693	26.62
479.818	23.62
479.943	26.62
480.068	22.62
480.192	22.62
480.317	0.62
480.442	21.62
480.567	15.62
480.691	13.62
480.816	9.62
480.941	-2.38
481.066	11.62
481.19	19.62
481.315	19.62
481.44	4.62
481.564	-8.38
481.689	22.62
481.814	25.62
481.938	18.62
482.063	16.62
482.188	12.62
482.313	29.62
482.437	-10.38
482.562	25.62
482.687	22.62
482.811	36.62
482.936	7.62
483.061	30.62
483.185	10.62
483.31	17.62
483.435	11.62
483.559	12.62
483.684	32.62
483.808	45.62
483.933	5.62
484.058	14.62
484.182	25.62
484.307	15.62
484.432	5.62
484.556	9.62
484.681	13.62
484.805	28.62
484.93	28.62
485.055	21.62
485.179	48.62
485.304	29.62
485.428	36.62
485.553	22.62
485.678	14.62
485.802	6.62
485.927	23.62
486.051	24.62
486.176	-4.38
486.3	-9.38
486.425	10.62
486.549	23.62
486.674	15.62
486.799	7.62
486.923	12.62
487.048	-3.38
487.172	11.62
487.297	18.62
487.421	21.62
487.546	23.62
487.67	21.62
487.795	-0.38
487.919	12.62
488.044	12.62
488.168	26.62
488.293	21.62
488.417	0.62
488.542	22.62
488.666	27.62
488.791	17.62
488.915	12.62
489.04	27.62
489.164	32.62
489.289	14.62
489.413	18.62
489.538	28.62
489.662	22.62
489.786	9.62
489.911	20.62
490.035	25.62
490.16	-4.38
490.284	8.62
490.409	-1.38
490.533	21.62
490.658	34.62
490.782	32.62
490.906	53.62
491.031	111.62
491.155	141.62
491.28	138.62
491.404	149.62
491.528	248.62
491.653	153.62
491.777	60.62
491.902	12.62
492.026	28.62
492.15	39.62
492.275	26.62
492.399	41.62
492.524	16.62
492.648	24.62
492.772	16.62
492.897	13.62
493.021	-2.38
493.145	15.62
493.27	23.62
493.394	13.62
493.518	4.62
493.643	10.62
493.767	39.62
493.891	10.62
494.016	-1.38
494.14	14.62
494.264	25.62
494.389	23.62
494.513	23.62
494.637	18.62
494.762	15.62
494.886	20.62
495.01	21.62
495.134	26.62
495.259	20.62
495.383	4.62
495.507	16.62
495.632	16.62
495.756	38.62
495.88	38.62
496.004	14.62
496.129	2.62
496.253	17.62
496.377	-0.38
496.501	26.62
496.626	-0.38
496.75	19.62
496.874	24.62
496.998	30.62
497.123	30.62
497.247	22.62
497.371	12.62
497.495	21.62
497.62	23.62
497.744	14.62
497.868	16.62
497.992	15.62
498.116	16.62
498.241	24.62
498.365	30.62
498.489	10.62
498.613	4.62
498.737	24.62
498.862	10.62
498.986	9.62
499.11	25.62
499.234	13.62
499.358	19.62
499.482	25.62
499.607	18.62
499.731	21.62
499.855	20.62
499.979	10.62
500.103	23.62
500.227	15.62
500.351	-2.38
500.476	8.62
500.6	14.62
500.724	12.62
500.848	15.62
500.972	11.62
501.096	5.62
501.22	32.62
501.344	25.62
501.469	21.62
501.593	20.62
501.717	21.62
501.841	16.62
501.965	3.62
502.089	14.62
502.213	28.62
502.337	22.62
502.461	24.62
502.585	26.62
502.709	25.62
502.834	10.62
502.958	-6.38
503.082	-12.38
503.206	11.62
503.33	41.62
503.454	30.62
503.578	26.62
503.702	15.62
503.826	17.62
503.95	34.62
504.074	22.62
504.198	16.62
504.322	8.62
504.446	23.62
504.57	37.62
504.694	-3.38
504.818	10.62
504.942	25.62
505.066	13.62
505.19	18.62
505.314	17.62
505.438	35.62
505.562	13.62
505.686	15.62
505.81	22.62
505.934	32.62
506.058	12.62
506.182	37.62
506.306	14.62
506.43	8.62
506.554	5.62
506.678	19.62
506.802	24.62
506.926	29.62
507.05	23.62
507.174	31.62
507.298	22.62
507.422	28.62
507.546	25.62
507.67	47.62
507.794	6.62
507.918	25.62
508.042	12.62
508.165	-4.38
508.289	9.62
508.413	24.62
508.537	7.62
508.661	36.62
508.785	40.62
508.909	34.62
509.033	27.62
509.157	29.62
509.281	33.62
509.405	33.62
509.528	64.62
509.652	45.62
509.776	31.62
509.9	37.62
510.024	31.62
510.148	26.62
510.272	27.62
510.396	30.62
510.519	0.62
510.643	47.62
510.767	26.62
510.891	19.62
511.015	7.62
511.139	31.62
511.263	54.62
511.386	43.62
511.51	47.62
511.634	40.62
511.758	38.62
511.882	22.62
512.006	46.62
512.129	55.62
512.253	85.62
512.377	63.62
512.501	84.62
512.625	99.62
512.748	104.62
512.872	66.62
512.996	45.62
513.12	53.62
513.244	56.62
513.367	80.62
513.491	78.62
513.615	66.62
513.739	64.62
513.862	63.62
513.986	75.62
514.11	93.62
514.234	96.62
514.358	103.62
514.481	114.62
514.605	106.62
514.729	109.62
514.853	116.62
514.976	117.62
515.1	93.62
515.224	101.62
515.348	83.62
515.471	85.62
515.595	102.62
515.719	132.62
515.842	233.62
515.966	275.62
516.09	309.62
516.214	326.62
516.337	346.62
516.461	222.62
516.585	82.62
516.708	48.62
516.832	52.62
516.956	25.62
517.08	35.62
517.203	18.62
517.327	8.62
517.451	10.62
517.574	26.62
517.698	5.62
517.822	12.62
517.945	12.62
518.069	26.62
518.193	43.62
518.316	25.62
518.44	13.62
518.564	8.62
518.687	-3.38
518.811	18.62
518.935	41.62
519.058	10.62
519.182	16.62
519.306	15.62
519.429	15.62
519.553	43.62
519.676	25.62
519.8	11.62
519.924	3.62
520.047	13.62
520.171	6.62
520.294	23.62
520.418	15.62
520.542	10.62
520.665	38.62
520.789	5.62
520.913	7.62
521.036	10.62
521.16	7.62
521.283	28.62
521.407	7.62
521.53	-4.38
521.654	15.62
521.778	23.62
521.901	24.62
522.025	15.62
522.148	19.62
522.272	22.62
522.395	9.62
522.519	20.62
522.643	-2.38
522.766	-3.38
522.89	3.62
523.013	22.62
523.137	-7.38
523.26	11.62
523.384	16.62
523.507	10.62
523.631	6.62
523.754	19.62
523.878	14.62
524.002	10.62
524.125	10.62
524.249	3.62
524.372	7.62
524.496	10.62
524.619	21.62
524.743	25.62
524.866	11.62
524.99	5.62
525.113	-0.38
525.237	26.62
525.36	24.62
525.484	24.62
525.607	1.62
525.731	2.62
525.854	13.62
525.978	19.62
526.101	11.62
526.224	21.62
526.348	19.62
526.471	16.62
526.595	17.62
526.718	10.62
526.842	3.62
526.965	24.62
527.089	13.62
527.212	11.62
527.336	15.62
527.459	24.62
527.582	20.62
527.706	18.62
527.829	19.62
527.953	12.62
528.076	11.62
528.2	10.62
528.323	23.62
528.446	9.62
528.57	26.62
528.693	42.62
528.817	11.62
528.94	21.62
529.064	36.62
529.187	7.62
529.31	19.62
529.434	23.62
529.557	4.62
529.68	14.62
529.804	0.62
529.927	19.62
530.051	9.62
530.174	17.62
530.297	24.62
530.421	16.62
530.544	20.62
530.668	25.62
530.791	10.62
530.914	19.62
531.038	9.62
531.161	12.62
531.284	25.62
531.408	13.62
531.531	8.62
531.654	6.62
531.778	32.62
531.901	3.62
532.024	23.62
532.148	3.62
532.271	7.62
532.394	22.62
532.518	17.62
532.641	5.62
532.764	15.62
532.888	17.62
533.011	4.62
533.134	6.62
533.258	27.62
533.381	-4.38
533.504	20.62
533.628	20.62
533.751	24.62
533.874	15.62
533.997	32.62
534.121	15.62
534.244	26.62
534.367	2.62
534.491	15.62
534.614	15.62
534.737	16.62
534.86	34.62
534.984	3.62
535.107	8.62
535.23	10.62
535.354	11.62
535.477	2.62
535.6	26.62
535.723	30.62
535.847	22.62
535.97	9.62
536.093	9.62
536.216	15.62
536.34	25.62
536.463	17.62
536.586	28.62
536.709	27.62
536.833	24.62
536.956	17.62
537.079	29.62
537.202	35.62
537.325	0.62
537.449	13.62
537.572	25.62
537.695	16.62
537.818	4.62
537.941	11.62
538.065	-0.38
538.188	14.62
538.311	30.62
538.434	31.62
538.558	10.62
538.681	35.62
538.804	32.62
538.927	15.62
539.05	32.62
539.173	16.62
539.297	-1.38
539.42	7.62
539.543	20.62
539.666	27.62
539.789	30.62
539.913	23.62
540.036	23.62
540.159	17.62
540.282	24.62
540.405	12.62
540.528	19.62
540.651	25.62
540.775	23.62
540.898	41.62
541.021	16.62
541.144	28.62
541.267	19.62
541.39	24.62
541.513	52.62
541.637	15.62
541.76	24.62
541.883	17.62
542.006	33.62
542.129	55.62
542.252	20.62
542.375	30.62
542.498	25.62
542.622	58.62
542.745	47.62
542.868	41.62
542.991	28.62
543.114	60.62
543.237	55.62
543.36	55.62
543.483	48.62
543.606	55.62
543.73	69.62
543.853	79.62
543.976	82.62
544.099	105.62
544.222	132.62
544.345	146.62
544.468	180.62
544.591	212.62
544.714	261.62
544.837	329.62
544.96	460.62
545.083	625.62
545.206	1071.62
545.329	2420.62
545.453	10926.62
545.576	15248.62
545.699	15678.62
545.822	15678.62
545.945	15678.62
546.068	15678.62
546.191	15678.62
546.314	15678.62
546.437	15678.62
546.56	15678.62
546.683	15678.62
546.806	15678.62
546.929	15678.62
547.052	15678.62
547.175	15678.62
547.298	15678.62
547.421	15678.62
547.544	15678.62
547.667	3575.62
547.79	2392.62
547.913	1031.62
548.036	881.62
548.159	646.62
548.282	591.62
548.405	460.62
548.528	485.62
548.651	407.62
548.774	390.62
548.897	353.62
549.02	355.62
549.143	283.62
549.266	284.62
549.389	243.62
549.512	245.62
549.635	241.62
549.758	242.62
549.881	225.62
550.004	220.62
550.127	184.62
550.25	210.62
550.373	178.62
550.496	184.62
550.619	149.62
550.742	149.62
550.865	120.62
550.988	156.62
551.111	173.62
551.234	150.62
551.356	121.62
551.479	119.62
551.602	128.62
551.725	153.62
551.848	130.62
551.971	140.62
552.094	121.62
552.217	116.62
552.34	125.62
552.463	90.62
552.586	109.62
552.709	102.62
552.832	86.62
552.955	101.62
553.077	104.62
553.2	115.62
553.323	82.62
553.446	101.62
553.569	90.62
553.692	113.62
553.815	102.62
553.938	109.62
554.061	100.62
554.184	73.62
554.306	74.62
554.429	89.62
554.552	69.62
554.675	84.62
554.798	87.62
554.921	88.62
555.044	85.62
555.167	53.62
555.29	79.62
555.412	63.62
555.535	70.62
555.658	74.62
555.781	71.62
555.904	61.62
556.027	68.62
556.15	68.62
556.272	52.62
556.395	76.62
556.518	54.62
556.641	74.62
556.764	80.62
556.887	67.62
557.01	53.62
557.132	50.62
557.255	78.62
557.378	73.62
557.501	65.62
557.624	68.62
557.747	63.62
557.869	80.62
557.992	80.62
558.115	108.62
558.238	88.62
558.361	84.62
558.483	81.62
558.606	69.62
558.729	39.62
558.852	51.62
558.975	58.62
559.098	55.62
559.22	54.62
559.343	45.62
559.466	40.62
559.589	42.62
559.712	57.62
559.834	43.62
559.957	23.62
560.08	39.62
560.203	60.62
560.325	62.62
560.448	69.62
560.571	60.62
560.694	55.62
560.817	58.62
560.939	56.62
561.062	58.62
561.185	48.62
561.308	51.62
561.43	55.62
561.553	55.62
561.676	57.62
561.799	63.62
561.921	47.62
562.044	38.62
562.167	47.62
562.29	67.62
562.413	57.62
562.535	67.62
562.658	38.62
562.781	53.62
562.903	51.62
563.026	77.62
563.149	134.62
563.272	115.62
563.394	119.62
563.517	85.62
563.64	58.62
563.763	42.62
563.885	55.62
564.008	47.62
564.131	29.62
564.254	34.62
564.376	28.62
564.499	20.62
564.622	9.62
564.744	31.62
564.867	38.62
564.99	34.62
565.113	35.62
565.235	30.62
565.358	40.62
565.481	24.62
565.603	45.62
565.726	42.62
565.849	41.62
565.971	41.62
566.094	20.62
566.217	24.62
566.34	29.62
566.462	37.62
566.585	48.62
566.708	58.62
566.83	42.62
566.953	39.62
567.076	30.62
567.198	19.62
567.321	21.62
567.444	39.62
567.566	11.62
567.689	25.62
567.812	34.62
567.934	28.62
568.057	23.62
568.18	24.62
568.302	32.62
568.425	23.62
568.548	18.62
568.67	36.62
568.793	26.62
568.916	27.62
569.038	31.62
569.161	32.62
569.283	32.62
569.406	29.62
569.529	20.62
569.651	10.62
569.774	16.62
569.897	35.62
570.019	41.62
570.142	53.62
570.265	37.62
570.387	37.62
570.51	36.62
570.632	36.62
570.755	22.62
570.878	18.62
571	32.62
571.123	27.62
571.246	37.62
571.368	25.62
571.491	30.62
571.613	24.62
571.736	8.62
571.859	22.62
571.981	14.62
572.104	4.62
572.226	34.62
572.349	12.62
572.472	32.62
572.594	43.62
572.717	40.62
572.839	39.62
572.962	36.62
573.085	31.62
573.207	28.62
573.33	28.62
573.452	39.62
573.575	31.62
573.697	20.62
573.82	36.62
573.943	11.62
574.065	30.62
574.188	20.62
574.31	33.62
574.433	34.62
574.555	45.62
574.678	40.62
574.801	30.62
574.923	21.62
575.046	29.62
575.168	15.62
575.291	15.62
575.413	41.62
575.536	27.62
575.659	54.62
575.781	45.62
575.904	54.62
576.026	57.62
576.149	61.62
576.271	111.62
576.394	202.62
576.516	506.62
576.639	3682.62
576.761	10185.62
576.884	8848.62
577.007	8760.62
577.129	8016.62
577.252	3711.62
577.374	1321.62
577.497	515.62
577.619	262.62
577.742	153.62
577.864	156.62
577.987	122.62
578.109	150.62
578.232	123.62
578.354	160.62
578.477	185.62
578.599	352.62
578.722	1966.62
578.844	9073.62
578.967	9774.62
579.089	8768.62
579.212	9043.62
579.334	5255.62
579.457	1885.62
579.579	704.62
579.702	292.62
579.824	179.62
579.947	115.62
580.069	98.62
580.192	79.62
580.314	84.62
580.437	57.62
580.559	100.62
580.682	65.62
580.804	57.62
580.927	67.62
581.049	62.62
581.172	50.62
581.294	49.62
581.417	38.62
581.539	41.62
581.662	38.62
581.784	36.62
581.907	55.62
582.029	42.62
582.152	24.62
582.274	41.62
582.396	40.62
582.519	21.62
582.641	5.62
582.764	25.62
582.886	33.62
583.009	32.62
583.131	28.62
583.254	37.62
583.376	30.62
583.499	34.62
583.621	38.62
583.743	28.62
583.866	31.62
583.988	29.62
584.111	33.62
584.233	26.62
584.356	36.62
584.478	45.62
584.601	18.62
584.723	32.62
584.845	40.62
584.968	17.62
585.09	-1.38
585.213	29.62
585.335	3.62
585.458	10.62
585.58	16.62
585.702	35.62
585.825	47.62
585.947	40.62
586.07	15.62
586.192	23.62
586.315	36.62
586.437	11.62
586.559	23.62
586.682	9.62
586.804	17.62
586.927	29.62
587.049	30.62
587.171	33.62
587.294	36.62
587.416	64.62
587.539	42.62
587.661	12.62
587.783	18.62
587.906	19.62
588.028	32.62
588.151	24.62
588.273	36.62
588.395	17.62
588.518	31.62
588.64	13.62
588.763	38.62
588.885	21.62
589.007	38.62
589.13	8.62
589.252	-7.38
589.375	32.62
589.497	11.62
589.619	42.62
589.742	37.62
589.864	33.62
589.986	25.62
590.109	13.62
590.231	18.62
590.354	25.62
590.476	24.62
590.598	11.62
590.721	15.62
590.843	16.62
590.965	23.62
591.088	24.62
591.21	14.62
591.332	17.62
591.455	11.62
591.577	11.62
591.7	24.62
591.822	21.62
591.944	18.62
592.067	0.62
592.189	17.62
592.311	18.62
592.434	11.62
592.556	7.62
592.678	22.62
592.801	10.62
592.923	15.62
593.045	9.62
593.168	7.62
593.29	20.62
593.412	-0.38
593.535	15.62
593.657	9.62
593.779	19.62
593.902	21.62
594.024	22.62
594.146	30.62
594.269	18.62
594.391	4.62
594.513	21.62
594.636	18.62
594.758	25.62
594.88	23.62
595.003	24.62
595.125	13.62
595.247	25.62
595.37	18.62
595.492	20.62
595.614	38.62
595.737	25.62
595.859	21.62
595.981	19.62
596.104	11.62
596.226	31.62
596.348	17.62
596.471	0.62
596.593	29.62
596.715	17.62
596.838	7.62
596.96	-5.38
597.082	19.62
597.204	23.62
597.327	25.62
597.449	6.62
597.571	18.62
597.694	14.62
597.816	13.62
597.938	31.62
598.061	21.62
598.183	26.62
598.305	24.62
598.427	21.62
598.55	18.62
598.672	29.62
598.794	13.62
598.917	21.62
599.039	21.62
599.161	23.62
599.283	19.62
599.406	28.62
599.528	24.62
599.65	53.62
599.773	16.62
599.895	47.62
600.017	27.62
600.139	21.62
600.262	1.62
600.384	7.62
600.506	22.62
600.628	29.62
600.751	25.62
600.873	8.62
600.995	12.62
601.118	37.62
601.24	12.62
601.362	30.62
601.484	40.62
601.607	15.62
601.729	27.62
601.851	16.62
601.973	31.62
602.096	26.62
602.218	25.62
602.34	25.62
602.462	14.62
602.585	2.62
602.707	15.62
602.829	34.62
602.951	31.62
603.074	3.62
603.196	39.62
603.318	4.62
603.44	24.62
603.563	9.62
603.685	-4.38
603.807	21.62
603.929	9.62
604.052	21.62
604.174	29.62
604.296	32.62
604.418	9.62
604.541	27.62
604.663	11.62
604.785	10.62
604.907	17.62
605.03	17.62
605.152	40.62
605.274	7.62
605.396	14.62
605.519	17.62
605.641	23.62
605.763	21.62
605.885	25.62
606.008	7.62
606.13	21.62
606.252	29.62
606.374	11.62
606.496	6.62
606.619	15.62
606.741	9.62
606.863	37.62
606.985	41.62
607.108	13.62
607.23	14.62
607.352	0.62
607.474	4.62
607.596	32.62
607.719	24.62
607.841	15.62
607.963	8.62
608.085	8.62
608.207	31.62
608.33	29.62
608.452	1.62
608.574	16.62
608.696	23.62
608.819	7.62
608.941	17.62
609.063	11.62
609.185	19.62
609.307	15.62
609.43	30.62
609.552	11.62
609.674	14.62
609.796	12.62
609.918	42.62
610.041	26.62
610.163	13.62
610.285	17.62
610.407	32.62
610.529	0.62
610.652	36.62
610.774	30.62
610.896	7.62
611.018	13.62
611.14	11.62
611.263	8.62
611.385	18.62
611.507	31.62
611.629	20.62
611.751	19.62
611.873	23.62
611.996	19.62
612.118	34.62
612.24	25.62
612.362	31.62
612.484	29.62
612.607	23.62
612.729	40.62
612.851	39.62
612.973	15.62
613.095	9.62
613.218	16.62
613.34	14.62
613.462	15.62
613.584	14.62
613.706	11.62
613.828	40.62
613.951	10.62
614.073	4.62
614.195	3.62
614.317	17.62
614.439	20.62
614.561	29.62
614.684	19.62
614.806	14.62
614.928	24.62
615.05	7.62
615.172	14.62
615.294	17.62
615.417	19.62
615.539	6.62
615.661	21.62
615.783	18.62
615.905	20.62
616.027	16.62
616.15	29.62
616.272	21.62
616.394	4.62
616.516	9.62
616.638	18.62
616.76	11.62
616.883	26.62
617.005	28.62
617.127	24.62
617.249	22.62
617.371	22.62
617.493	4.62
617.615	24.62
617.738	25.62
617.86	7.62
617.982	12.62
618.104	16.62
618.226	0.62
618.348	4.62
618.471	10.62
618.593	9.62
618.715	17.62
618.837	18.62
618.959	34.62
619.081	24.62
619.203	27.62
619.326	24.62
619.448	9.62
619.57	26.62
619.692	21.62
619.814	26.62
619.936	37.62
620.058	23.62
620.181	20.62
620.303	16.62
620.425	17.62
620.547	7.62
620.669	18.62
620.791	12.62
620.913	5.62
621.036	7.62
621.158	19.62
621.28	12.62
621.402	-4.38
621.524	8.62
621.646	21.62
621.768	-2.38
621.891	-7.38
622.013	10.62
622.135	-0.38
622.257	4.62
622.379	0.62
622.501	12.62
622.623	6.62
622.745	3.62
622.868	1.62
622.99	16.62
623.112	9.62
623.234	11.62
623.356	21.62
623.478	9.62
623.6	29.62
623.722	-2.38
623.845	16.62
623.967	32.62
624.089	26.62
624.211	26.62
624.333	21.62
624.455	11.62
624.577	7.62
624.699	18.62
624.822	25.62
624.944	15.62
625.066	20.62
625.188	0.62
625.31	16.62
625.432	33.62
625.554	25.62
625.676	62.62
625.799	14.62
625.921	24.62
626.043	11.62
626.165	27.62
626.287	7.62
626.409	12.62
626.531	18.62
626.653	3.62
626.775	8.62
626.898	27.62
627.02	40.62
627.142	40.62
627.264	17.62
627.386	19.62
627.508	23.62
627.63	-6.38
627.752	6.62
627.874	13.62
627.997	11.62
628.119	15.62
628.241	24.62
628.363	25.62
628.485	25.62
628.607	14.62
628.729	14.62
628.851	3.62
628.973	26.62
629.096	5.62
629.218	-0.38
629.34	16.62
629.462	-11.38
629.584	-6.38
629.706	9.62
629.828	29.62
629.95	37.62
630.072	11.62
630.195	9.62
630.317	15.62
630.439	18.62
630.561	9.62
630.683	15.62
630.805	26.62
630.927	16.62
631.049	7.62
631.171	7.62
631.293	12.62
631.416	9.62
631.538	-9.38
631.66	13.62
631.782	18.62
631.904	18.62
632.026	-2.38
632.148	11.62
632.27	-4.38
632.392	11.62
632.514	16.62
632.637	4.62
632.759	3.62
632.881	7.62
633.003	-7.38
633.125	-4.38
633.247	2.62
633.369	-6.38
633.491	13.62
633.613	33.62
633.735	3.62
633.858	19.62
633.98	4.62
634.102	-9.38
634.224	6.62
634.346	12.62
634.468	5.62
634.59	12.62
634.712	15.62
634.834	24.62
634.956	8.62
635.078	4.62
635.201	6.62
635.323	1.62
635.445	12.62
635.567	-6.38
635.689	15.62
635.811	8.62
635.933	5.62
636.055	25.62
636.177	13.62
636.299	21.62
636.421	5.62
636.544	-6.38
636.666	0.62
636.788	21.62
636.91	47.62
637.032	15.62
637.154	13.62
637.276	17.62
637.398	17.62
637.52	19.62
637.642	4.62
637.764	8.62
637.887	-4.38
638.009	3.62
638.131	-2.38
638.253	-18.38
638.375	8.62
638.497	7.62
638.619	-9.38
638.741	13.62
638.863	-0.38
638.985	7.62
639.107	5.62
639.23	-4.38
639.352	5.62
639.474	2.62
639.596	11.62
639.718	-2.38
639.84	9.62
639.962	13.62
640.084	39.62
640.206	18.62
640.328	1.62
640.45	15.62
640.573	5.62
640.695	19.62
640.817	15.62
640.939	12.62
641.061	-0.38
641.183	13.62
641.305	28.62
641.427	11.62
641.549	3.62
641.671	-6.38
641.793	6.62
641.915	21.62
642.038	-10.38
642.16	12.62
642.282	17.62
642.404	16.62
642.526	-0.38
642.648	13.62
642.77	-0.38
642.892	4.62
643.014	26.62
643.136	16.62
643.258	4.62
643.381	23.62
643.503	38.62
643.625	3.62
643.747	8.62
643.869	2.62
643.991	10.62
644.113	3.62
644.235	7.62
644.357	9.62
644.479	23.62
644.601	12.62
644.723	3.62
644.846	22.62
644.968	9.62
645.09	2.62
645.212	8.62
645.334	17.62
645.456	18.62
645.578	16.62
645.7	2.62
645.822	16.62
645.944	11.62
646.066	8.62
646.188	13.62
646.311	24.62
646.433	3.62
646.555	28.62
646.677	21.62
646.799	19.62
646.921	12.62
647.043	16.62
647.165	-7.38
647.287	19.62
647.409	9.62
647.531	32.62
647.654	2.62
647.776	-12.38
647.898	4.62
648.02	3.62
648.142	-3.38
648.264	4.62
648.386	13.62
648.508	-7.38
648.63	15.62
648.752	-0.38
648.874	13.62
648.997	27.62
649.119	23.62
649.241	12.62
649.363	22.62
649.485	22.62
649.607	17.62
649.729	-1.38
649.851	21.62
649.973	-4.38
650.095	19.62
650.217	8.62
650.34	11.62
650.462	20.62
650.584	11.62
650.706	7.62
650.828	10.62
650.95	-9.38
651.072	8.62
651.194	11.62
651.316	14.62
651.438	9.62
651.56	-0.38
651.683	-3.38
651.805	18.62
651.927	-6.38
652.049	7.62
652.171	-11.38
652.293	3.62
652.415	-8.38
652.537	-10.38
652.659	2.62
652.781	16.62
652.903	39.62
653.026	12.62
653.148	5.62
653.27	-4.38
653.392	1.62
653.514	1.62
653.636	5.62
653.758	2.62
653.88	-19.38
654.002	-0.38
654.124	10.62
654.247	5.62
654.369	13.62
654.491	-10.38
654.613	-18.38
654.735	-5.38
654.857	19.62
654.979	8.62
655.101	-2.38
655.223	37.62
655.345	11.62
655.468	13.62
655.59	3.62
655.712	1.62
655.834	12.62
655.956	16.62
656.078	8.62
656.2	4.62
656.322	0.62
656.444	-16.38
656.566	13.62
656.689	-4.38
656.811	-3.38
656.933	17.62
657.055	3.62
657.177	0.62
657.299	3.62
657.421	8.62
657.543	3.62
657.665	13.62
657.787	-8.38
657.91	14.62
658.032	-7.38
658.154	9.62
658.276	-13.38
658.398	-10.38
658.52	-2.38
658.642	22.62
658.764	15.62
658.886	4.62
659.009	18.62
659.131	15.62
659.253	23.62
659.375	4.62
659.497	4.62
659.619	11.62
659.741	9.62
659.863	12.62
659.985	-6.38
660.108	3.62
660.23	0.62
660.352	20.62
660.474	6.62
660.596	14.62
660.718	5.62
660.84	-3.38
660.962	3.62
661.084	5.62
661.207	-0.38
661.329	12.62
661.451	24.62
661.573	15.62
661.695	20.62
661.817	10.62
661.939	28.62
662.061	30.62
662.184	13.62
662.306	-5.38
662.428	25.62
662.55	20.62
662.672	6.62
662.794	16.62
662.916	5.62
663.038	17.62
663.161	27.62
663.283	3.62
663.405	27.62
663.527	2.62
663.649	12.62
663.771	7.62
663.893	3.62
664.015	13.62
664.138	15.62
664.26	15.62
664.382	12.62
664.504	-0.38
664.626	-3.38
664.748	18.62
664.87	11.62
664.992	11.62
665.115	15.62
665.237	7.62
665.359	-0.38
665.481	1.62
665.603	-14.38
665.725	0.62
665.847	-12.38
665.97	11.62
666.092	8.62
666.214	19.62
666.336	5.62
666.458	1.62
666.58	-4.38
666.702	-7.38
666.825	-9.38
666.947	7.62
667.069	10.62
667.191	13.62
667.313	25.62
667.435	0.62
667.557	-0.38
667.68	-9.38
667.802	0.62
667.924	-1.38
668.046	25.62
668.168	9.62
668.29	27.62
668.412	-10.38
668.535	0.62
668.657	-8.38
668.779	-1.38
668.901	10.62
669.023	24.62
669.145	0.62
669.267	15.62
669.39	11.62
669.512	17.62
669.634	4.62
669.756	2.62
669.878	3.62
670	23.62
670.123	-18.38
670.245	8.62
670.367	16.62
670.489	22.62
670.611	-8.38
670.733	12.62
670.856	3.62
670.978	7.62
671.1	12.62
671.222	14.62
671.344	-2.38
671.466	-0.38
671.589	-14.38
671.711	9.62
671.833	8.62
671.955	1.62
672.077	12.62
672.199	13.62
672.322	16.62
672.444	3.62
672.566	13.62
672.688	-11.38
672.81	0.62
672.932	12.62
673.055	10.62
673.177	-7.38
673.299	-0.38
673.421	-32.38
673.543	4.62
673.665	31.62
673.788	22.62
673.91	-4.38
674.032	-2.38
674.154	-0.38
674.276	1.62
674.399	6.62
674.521	3.62
674.643	7.62
674.765	21.62
674.887	19.62
675.009	4.62
675.132	-15.38
675.254	15.62
675.376	16.62
675.498	6.62
675.62	16.62
675.743	-7.38
675.865	4.62
675.987	-3.38
676.109	-2.38
676.231	18.62
676.354	21.62
676.476	3.62
676.598	13.62
676.72	1.62
676.842	21.62
676.965	13.62
677.087	15.62
677.209	16.62
677.331	7.62
677.453	5.62
677.576	-8.38
677.698	5.62
677.82	4.62
677.942	0.62
678.064	-10.38
678.187	19.62
678.309	16.62
678.431	3.62
678.553	-15.38
678.675	27.62
678.798	25.62
678.92	5.62
679.042	15.62
679.164	8.62
679.286	15.62
679.409	-10.38
679.531	-18.38
679.653	-3.38
679.775	11.62
679.898	-2.38
680.02	-7.38
680.142	-12.38
680.264	2.62
680.386	1.62
680.509	10.62
680.631	15.62
680.753	11.62
680.875	-7.38
680.998	11.62
681.12	7.62
681.242	11.62
681.364	1.62
681.486	6.62
681.609	5.62
681.731	12.62
681.853	-12.38
681.975	-5.38
682.098	19.62
682.22	20.62
682.342	-0.38
682.464	3.62
682.587	12.62
682.709	-0.38
682.831	-8.38
682.953	-4.38
683.076	16.62
683.198	10.62
683.32	19.62
683.442	0.62
683.565	18.62
683.687	-0.38
683.809	3.62
683.931	-12.38
684.054	13.62
684.176	14.62
684.298	15.62
684.42	8.62
684.543	4.62
684.665	-2.38
684.787	-7.38
684.909	1.62
685.032	18.62
685.154	-0.38
685.276	-0.38
685.398	4.62
685.521	4.62
685.643	6.62
685.765	16.62
685.887	18.62
686.01	9.62
686.132	17.62
686.254	1.62
686.377	1.62
686.499	-13.38
686.621	15.62
686.743	16.62
686.866	11.62
686.988	19.62
687.11	21.62
687.232	-4.38
687.355	-11.38
687.477	9.62
687.599	10.62
687.722	-4.38
687.844	11.62
687.966	-8.38
688.088	7.62
688.211	31.62
688.333	5.62
688.455	4.62
688.578	-0.38
688.7	19.62
688.822	13.62
688.944	-3.38
689.067	28.62
689.189	16.62
689.311	-31.38
689.434	-11.38
689.556	4.62
689.678	5.62
689.801	-5.38
689.923	24.62
690.045	16.62
690.167	15.62
690.29	33.62
690.412	19.62
690.534	6.62
690.657	-2.38
690.779	-4.38
690.901	10.62
691.024	8.62
691.146	1.62
691.268	-4.38
691.391	6.62
691.513	28.62
691.635	15.62
691.758	6.62
691.88	14.62
692.002	11.62
692.125	5.62
692.247	12.62
692.369	4.62
692.492	-6.38
692.614	0.62
692.736	15.62
692.859	-5.38
692.981	15.62
693.103	1.62
693.226	13.62
693.348	18.62
693.47	3.62
693.593	28.62
693.715	24.62
693.837	32.62
693.96	4.62
694.082	9.62
694.204	3.62
694.327	4.62
694.449	-5.38
694.571	12.62
694.694	17.62
694.816	27.62
694.938	-3.38
695.061	-7.38
695.183	-4.38
695.305	-0.38
695.428	11.62
695.55	-2.38
695.672	-6.38
695.795	25.62
695.917	23.62
696.04	12.62
696.162	3.62
696.284	3.62
696.407	-7.38
696.529	10.62
696.651	14.62
696.774	3.62
696.896	26.62
697.019	9.62
697.141	20.62
697.263	6.62
697.386	0.62
697.508	1.62
697.63	3.62
697.753	-0.38
697.875	7.62
697.998	-7.38
698.12	17.62
698.242	9.62
698.365	2.62
698.487	13.62
698.61	16.62
698.732	3.62
698.854	24.62
698.977	16.62
699.099	33.62
699.221	-5.38
699.344	4.62
699.466	-4.38
699.589	-2.38
699.711	-2.38
699.834	-6.38
699.956	10.62
700.078	9.62
700.201	4.62
700.323	24.62
700.446	3.62
700.568	5.62
700.69	3.62
700.813	20.62
700.935	-1.38
701.058	-4.38
701.18	7.62
701.302	0.62
701.425	-2.38
701.547	7.62
701.67	3.62
701.792	-12.38
701.915	9.62
702.037	-5.38
702.159	3.62
702.282	4.62
702.404	2.62
702.527	5.62
702.649	8.62
702.772	19.62
702.894	12.62
703.017	4.62
703.139	21.62
703.261	28.62
703.384	11.62
703.506	-15.38
703.629	-3.38
703.751	10.62
703.874	5.62
703.996	-0.38
704.119	5.62
704.241	6.62
704.364	-5.38
704.486	15.62
704.608	15.62
704.731	4.62
704.853	15.62
704.976	-23.38
705.098	-7.38
705.221	-7.38
705.343	14.62
705.466	-0.38
705.588	28.62
705.711	28.62
705.833	8.62
705.956	10.62
706.078	10.62
706.201	0.62
706.323	2.62
706.446	-11.38
