Data from LowRes_mercury_15_20_11_07_2024_HR4C61881__17__15-23-33-971.txt Node

Date: Thu Nov 07 15:23:33 EST 2024
User: crc00042
Spectrometer: HR4C6188
Trigger mode: 4
Integration Time (sec): 1.000000E-1
Scans to average: 1
Electric dark correction enabled: true
Nonlinearity correction enabled: false
Boxcar width: 0
XAxis mode: Wavelengths
Number of Pixels in Spectrum: 3648
>>>>>Begin Spectral Data<<<<<
245.66	-78.69
245.797	-78.69
245.934	-78.69
246.071	-61.69
246.208	35.31
246.344	22.31
246.481	-13.69
246.618	-4.69
246.755	13.31
246.892	-6.69
247.029	-5.69
247.165	-15.69
247.302	6.31
247.439	-2.69
247.576	9.31
247.713	-5.69
247.849	16.31
247.986	-12.69
248.123	-4.69
248.26	-8.69
248.396	0.31
248.533	15.31
248.67	1.31
248.806	3.31
248.943	1.31
249.08	15.31
249.216	4.31
249.353	-14.69
249.49	-1.69
249.626	18.31
249.763	0.31
249.9	-5.69
250.036	-13.69
250.173	7.31
250.309	-0.69
250.446	-11.69
250.582	-14.69
250.719	3.31
250.856	7.31
250.992	-17.69
251.129	-0.69
251.265	-10.69
251.402	-2.69
251.538	-8.69
251.675	-6.69
251.811	10.31
251.948	13.31
252.084	12.31
252.221	-0.69
252.357	1.31
252.493	26.31
252.63	10.31
252.766	23.31
252.903	-0.69
253.039	3.31
253.175	16.31
253.312	-8.69
253.448	-3.69
253.585	-13.69
253.721	15.31
253.857	-15.69
253.994	7.31
254.13	7.31
254.266	7.31
254.403	15.31
254.539	-1.69
254.675	2.31
254.811	4.31
254.948	-15.69
255.084	13.31
255.22	-8.69
255.356	1.31
255.493	-9.69
255.629	-1.69
255.765	0.31
255.901	27.31
256.037	10.31
256.174	17.31
256.31	11.31
256.446	16.31
256.582	-3.69
256.718	13.31
256.854	15.31
256.991	9.31
257.127	12.31
257.263	-6.69
257.399	4.31
257.535	-8.69
257.671	4.31
257.807	-2.69
257.943	-14.69
258.079	-8.69
258.215	-9.69
258.351	21.31
258.487	8.31
258.623	18.31
258.759	1.31
258.895	1.31
259.031	18.31
259.167	13.31
259.303	17.31
259.439	8.31
259.575	0.31
259.711	-3.69
259.847	-5.69
259.983	0.31
260.119	-4.69
260.255	-11.69
260.391	2.31
260.527	10.31
260.663	8.31
260.799	10.31
260.934	6.31
261.07	-6.69
261.206	-23.69
261.342	-17.69
261.478	26.31
261.614	19.31
261.749	-3.69
261.885	-2.69
262.021	0.31
262.157	20.31
262.293	19.31
262.428	-5.69
262.564	-19.69
262.7	-1.69
262.836	-7.69
262.971	24.31
263.107	29.31
263.243	34.31
263.378	14.31
263.514	-17.69
263.65	7.31
263.785	-2.69
263.921	7.31
264.057	1.31
264.192	2.31
264.328	9.31
264.464	-13.69
264.599	15.31
264.735	22.31
264.871	-6.69
265.006	16.31
265.142	7.31
265.277	-2.69
265.413	10.31
265.548	22.31
265.684	4.31
265.819	-13.69
265.955	-6.69
266.091	-25.69
266.226	-9.69
266.362	-5.69
266.497	18.31
266.633	3.31
266.768	1.31
266.903	12.31
267.039	8.31
267.174	38.31
267.31	17.31
267.445	4.31
267.581	-4.69
267.716	14.31
267.851	14.31
267.987	10.31
268.122	6.31
268.258	-11.69
268.393	-5.69
268.528	18.31
268.664	-19.69
268.799	-0.69
268.934	27.31
269.07	-10.69
269.205	-2.69
269.34	36.31
269.476	-13.69
269.611	-4.69
269.746	24.31
269.881	10.31
270.017	2.31
270.152	0.31
270.287	1.31
270.422	3.31
270.558	5.31
270.693	5.31
270.828	-0.69
270.963	-3.69
271.098	-7.69
271.234	-4.69
271.369	14.31
271.504	2.31
271.639	-5.69
271.774	-7.69
271.909	-7.69
272.045	-18.69
272.18	-7.69
272.315	-17.69
272.45	17.31
272.585	2.31
272.72	-1.69
272.855	16.31
272.99	28.31
273.125	-8.69
273.26	-11.69
273.395	0.31
273.53	-3.69
273.665	14.31
273.8	14.31
273.935	-0.69
274.07	22.31
274.205	16.31
274.34	-9.69
274.475	9.31
274.61	4.31
274.745	-7.69
274.88	26.31
275.015	-8.69
275.15	11.31
275.285	21.31
275.42	24.31
275.555	17.31
275.69	3.31
275.825	0.31
275.959	9.31
276.094	5.31
276.229	-10.69
276.364	-8.69
276.499	11.31
276.634	4.31
276.768	3.31
276.903	-4.69
277.038	9.31
277.173	2.31
277.308	0.31
277.442	-11.69
277.577	0.31
277.712	-8.69
277.847	10.31
277.981	16.31
278.116	-22.69
278.251	14.31
278.386	18.31
278.52	10.31
278.655	-4.69
278.79	29.31
278.924	15.31
279.059	13.31
279.194	6.31
279.328	39.31
279.463	-9.69
279.598	15.31
279.732	17.31
279.867	0.31
280.001	21.31
280.136	11.31
280.271	14.31
280.405	3.31
280.54	-9.69
280.674	-15.69
280.809	24.31
280.943	6.31
281.078	15.31
281.213	9.31
281.347	13.31
281.482	9.31
281.616	6.31
281.751	-0.69
281.885	0.31
282.02	0.31
282.154	16.31
282.288	-11.69
282.423	-11.69
282.557	-4.69
282.692	8.31
282.826	-1.69
282.961	13.31
283.095	5.31
283.229	7.31
283.364	3.31
283.498	-16.69
283.633	3.31
283.767	7.31
283.901	28.31
284.036	17.31
284.17	4.31
284.304	8.31
284.439	10.31
284.573	0.31
284.707	19.31
284.842	2.31
284.976	-1.69
285.11	-18.69
285.244	16.31
285.379	41.31
285.513	-7.69
285.647	1.31
285.781	12.31
285.916	11.31
286.05	1.31
286.184	31.31
286.318	31.31
286.453	-0.69
286.587	-8.69
286.721	-10.69
286.855	0.31
286.989	24.31
287.123	4.31
287.258	-13.69
287.392	10.31
287.526	7.31
287.66	13.31
287.794	11.31
287.928	1.31
288.062	12.31
288.196	7.31
288.33	15.31
288.464	24.31
288.598	22.31
288.733	23.31
288.867	30.31
289.001	7.31
289.135	0.31
289.269	-0.69
289.403	11.31
289.537	17.31
289.671	39.31
289.805	-10.69
289.939	14.31
290.073	-0.69
290.207	17.31
290.34	2.31
290.474	15.31
290.608	19.31
290.742	3.31
290.876	5.31
291.01	12.31
291.144	33.31
291.278	13.31
291.412	13.31
291.546	-0.69
291.679	-16.69
291.813	-9.69
291.947	9.31
292.081	-11.69
292.215	19.31
292.349	9.31
292.482	23.31
292.616	12.31
292.75	21.31
292.884	10.31
293.018	-1.69
293.151	-11.69
293.285	20.31
293.419	8.31
293.553	-15.69
293.686	1.31
293.82	12.31
293.954	23.31
294.088	22.31
294.221	-7.69
294.355	-9.69
294.489	9.31
294.622	8.31
294.756	7.31
294.89	2.31
295.023	10.31
295.157	24.31
295.291	11.31
295.424	19.31
295.558	-1.69
295.691	-3.69
295.825	-3.69
295.959	3.31
296.092	-3.69
296.226	-6.69
296.359	-9.69
296.493	2.31
296.627	5.31
296.76	2.31
296.894	13.31
297.027	10.31
297.161	0.31
297.294	-18.69
297.428	6.31
297.561	36.31
297.695	-5.69
297.828	10.31
297.962	9.31
298.095	-8.69
298.229	13.31
298.362	-17.69
298.495	-6.69
298.629	-16.69
298.762	4.31
298.896	7.31
299.029	-5.69
299.162	14.31
299.296	6.31
299.429	17.31
299.563	21.31
299.696	17.31
299.829	-0.69
299.963	26.31
300.096	9.31
300.229	-11.69
300.363	2.31
300.496	0.31
300.629	-14.69
300.763	2.31
300.896	-7.69
301.029	-2.69
301.162	5.31
301.296	0.31
301.429	5.31
301.562	-25.69
301.695	19.31
301.829	28.31
301.962	27.31
302.095	-1.69
302.228	-16.69
302.362	-10.69
302.495	-9.69
302.628	4.31
302.761	-3.69
302.894	8.31
303.027	28.31
303.161	-2.69
303.294	-7.69
303.427	3.31
303.56	2.31
303.693	3.31
303.826	15.31
303.959	10.31
304.092	-4.69
304.225	13.31
304.359	10.31
304.492	-9.69
304.625	6.31
304.758	1.31
304.891	-23.69
305.024	2.31
305.157	1.31
305.29	-23.69
305.423	0.31
305.556	19.31
305.689	13.31
305.822	8.31
305.955	10.31
306.088	-1.69
306.221	0.31
306.354	-2.69
306.487	-4.69
306.62	14.31
306.752	14.31
306.885	4.31
307.018	-3.69
307.151	14.31
307.284	16.31
307.417	-6.69
307.55	18.31
307.683	5.31
307.816	7.31
307.948	-12.69
308.081	20.31
308.214	15.31
308.347	20.31
308.48	18.31
308.613	-11.69
308.745	14.31
308.878	3.31
309.011	14.31
309.144	11.31
309.277	9.31
309.409	21.31
309.542	21.31
309.675	14.31
309.808	23.31
309.94	23.31
310.073	10.31
310.206	-9.69
310.339	16.31
310.471	-1.69
310.604	30.31
310.737	-8.69
310.869	0.31
311.002	14.31
311.135	-6.69
311.267	-12.69
311.4	-3.69
311.533	20.31
311.665	-3.69
311.798	19.31
311.93	7.31
312.063	26.31
312.196	37.31
312.328	91.31
312.461	68.31
312.593	46.31
312.726	86.31
312.859	107.31
312.991	163.31
313.124	43.31
313.256	30.31
313.389	8.31
313.521	-2.69
313.654	6.31
313.786	-19.69
313.919	-4.69
314.051	12.31
314.184	16.31
314.316	-9.69
314.449	-20.69
314.581	15.31
314.714	16.31
314.846	20.31
314.978	-9.69
315.111	-3.69
315.243	9.31
315.376	-4.69
315.508	16.31
315.641	0.31
315.773	18.31
315.905	22.31
316.038	-5.69
316.17	-2.69
316.302	10.31
316.435	3.31
316.567	4.31
316.699	15.31
316.832	-6.69
316.964	-9.69
317.096	4.31
317.229	0.31
317.361	-18.69
317.493	8.31
317.625	-18.69
317.758	-1.69
317.89	9.31
318.022	10.31
318.155	11.31
318.287	6.31
318.419	-3.69
318.551	12.31
318.683	16.31
318.816	-11.69
318.948	-0.69
319.08	-7.69
319.212	-3.69
319.344	-3.69
319.477	-1.69
319.609	-1.69
319.741	19.31
319.873	7.31
320.005	-2.69
320.137	5.31
320.269	6.31
320.401	-5.69
320.534	15.31
320.666	-0.69
320.798	2.31
320.93	-1.69
321.062	-2.69
321.194	-3.69
321.326	5.31
321.458	-0.69
321.59	1.31
321.722	-11.69
321.854	11.31
321.986	6.31
322.118	4.31
322.25	1.31
322.382	15.31
322.514	-5.69
322.646	-5.69
322.778	16.31
322.91	-10.69
323.042	23.31
323.174	3.31
323.306	0.31
323.438	-19.69
323.57	-0.69
323.702	8.31
323.834	11.31
323.966	-11.69
324.097	19.31
324.229	-3.69
324.361	7.31
324.493	12.31
324.625	-13.69
324.757	-8.69
324.889	-0.69
325.021	15.31
325.152	10.31
325.284	18.31
325.416	1.31
325.548	13.31
325.68	1.31
325.811	18.31
325.943	12.31
326.075	6.31
326.207	8.31
326.339	32.31
326.47	-13.69
326.602	6.31
326.734	10.31
326.866	13.31
326.997	-6.69
327.129	1.31
327.261	-4.69
327.392	-2.69
327.524	11.31
327.656	16.31
327.787	0.31
327.919	16.31
328.051	27.31
328.182	24.31
328.314	36.31
328.446	11.31
328.577	32.31
328.709	3.31
328.841	-0.69
328.972	-20.69
329.104	5.31
329.235	5.31
329.367	-2.69
329.499	7.31
329.63	21.31
329.762	6.31
329.893	-0.69
330.025	23.31
330.156	-11.69
330.288	16.31
330.419	25.31
330.551	18.31
330.683	21.31
330.814	6.31
330.946	34.31
331.077	0.31
331.208	-3.69
331.34	-18.69
331.471	-2.69
331.603	11.31
331.734	-1.69
331.866	10.31
331.997	17.31
332.129	2.31
332.26	8.31
332.392	14.31
332.523	-4.69
332.654	-4.69
332.786	-4.69
332.917	-6.69
333.048	30.31
333.18	28.31
333.311	7.31
333.443	0.31
333.574	0.31
333.705	45.31
333.837	35.31
333.968	112.31
334.099	230.31
334.231	227.31
334.362	60.31
334.493	24.31
334.624	32.31
334.756	14.31
334.887	8.31
335.018	-7.69
335.15	41.31
335.281	14.31
335.412	37.31
335.543	20.31
335.675	14.31
335.806	36.31
335.937	8.31
336.068	5.31
336.199	36.31
336.331	5.31
336.462	9.31
336.593	24.31
336.724	12.31
336.855	10.31
336.986	18.31
337.118	14.31
337.249	14.31
337.38	21.31
337.511	31.31
337.642	24.31
337.773	2.31
337.904	9.31
338.035	19.31
338.166	15.31
338.298	12.31
338.429	16.31
338.56	31.31
338.691	32.31
338.822	20.31
338.953	10.31
339.084	20.31
339.215	23.31
339.346	4.31
339.477	20.31
339.608	4.31
339.739	19.31
339.87	8.31
340.001	16.31
340.132	1.31
340.263	8.31
340.394	20.31
340.525	9.31
340.656	-15.69
340.787	0.31
340.918	18.31
341.049	25.31
341.179	18.31
341.31	16.31
341.441	14.31
341.572	18.31
341.703	5.31
341.834	8.31
341.965	23.31
342.096	25.31
342.227	2.31
342.357	26.31
342.488	33.31
342.619	2.31
342.75	15.31
342.881	9.31
343.012	43.31
343.142	25.31
343.273	14.31
343.404	28.31
343.535	34.31
343.666	24.31
343.796	34.31
343.927	31.31
344.058	37.31
344.189	37.31
344.319	37.31
344.45	26.31
344.581	11.31
344.712	12.31
344.842	14.31
344.973	21.31
345.104	40.31
345.234	18.31
345.365	-6.69
345.496	7.31
345.626	35.31
345.757	34.31
345.888	11.31
346.018	37.31
346.149	30.31
346.28	57.31
346.41	12.31
346.541	31.31
346.672	7.31
346.802	18.31
346.933	25.31
347.063	19.31
347.194	16.31
347.325	8.31
347.455	44.31
347.586	21.31
347.716	29.31
347.847	53.31
347.977	49.31
348.108	43.31
348.238	23.31
348.369	23.31
348.499	46.31
348.63	48.31
348.76	34.31
348.891	61.31
349.021	52.31
349.152	50.31
349.282	65.31
349.413	32.31
349.543	53.31
349.674	41.31
349.804	35.31
349.935	33.31
350.065	15.31
350.196	16.31
350.326	8.31
350.456	10.31
350.587	49.31
350.717	19.31
350.848	25.31
350.978	30.31
351.108	9.31
351.239	43.31
351.369	20.31
351.499	23.31
351.63	23.31
351.76	0.31
351.89	33.31
352.021	30.31
352.151	26.31
352.281	2.31
352.412	19.31
352.542	21.31
352.672	25.31
352.803	26.31
352.933	26.31
353.063	30.31
353.193	18.31
353.324	9.31
353.454	31.31
353.584	41.31
353.714	32.31
353.845	15.31
353.975	10.31
354.105	20.31
354.235	43.31
354.365	19.31
354.496	26.31
354.626	32.31
354.756	45.31
354.886	24.31
355.016	40.31
355.146	22.31
355.277	21.31
355.407	16.31
355.537	36.31
355.667	32.31
355.797	38.31
355.927	19.31
356.057	20.31
356.187	13.31
356.318	27.31
356.448	26.31
356.578	25.31
356.708	35.31
356.838	39.31
356.968	28.31
357.098	27.31
357.228	28.31
357.358	22.31
357.488	40.31
357.618	58.31
357.748	50.31
357.878	34.31
358.008	12.31
358.138	26.31
358.268	28.31
358.398	45.31
358.528	20.31
358.658	30.31
358.788	30.31
358.918	36.31
359.048	17.31
359.178	39.31
359.308	37.31
359.438	58.31
359.568	40.31
359.698	23.31
359.827	30.31
359.957	36.31
360.087	28.31
360.217	34.31
360.347	19.31
360.477	44.31
360.607	10.31
360.737	27.31
360.866	28.31
360.996	18.31
361.126	20.31
361.256	48.31
361.386	49.31
361.516	39.31
361.645	10.31
361.775	33.31
361.905	24.31
362.035	42.31
362.165	31.31
362.294	46.31
362.424	37.31
362.554	35.31
362.684	26.31
362.813	36.31
362.943	64.31
363.073	52.31
363.203	57.31
363.332	68.31
363.462	69.31
363.592	120.31
363.721	130.31
363.851	152.31
363.981	192.31
364.111	236.31
364.24	337.31
364.37	473.31
364.5	874.31
364.629	1839.31
364.759	3883.31
364.888	6410.31
365.018	9501.31
365.148	14883.31
365.277	13132.31
365.407	4860.31
365.537	3182.31
365.666	4129.31
365.796	1874.31
365.925	815.31
366.055	798.31
366.184	1034.31
366.314	1429.31
366.444	2462.31
366.573	2129.31
366.703	688.31
366.832	208.31
366.962	117.31
367.091	96.31
367.221	79.31
367.35	57.31
367.48	98.31
367.609	51.31
367.739	65.31
367.868	47.31
367.998	42.31
368.127	45.31
368.257	60.31
368.386	53.31
368.516	68.31
368.645	39.31
368.775	47.31
368.904	26.31
369.033	34.31
369.163	29.31
369.292	56.31
369.422	63.31
369.551	48.31
369.68	51.31
369.81	36.31
369.939	35.31
370.069	51.31
370.198	49.31
370.327	30.31
370.457	25.31
370.586	45.31
370.715	21.31
370.845	16.31
370.974	46.31
371.103	69.31
371.233	73.31
371.362	61.31
371.491	32.31
371.621	61.31
371.75	38.31
371.879	49.31
372.008	24.31
372.138	46.31
372.267	56.31
372.396	69.31
372.525	57.31
372.655	42.31
372.784	31.31
372.913	39.31
373.042	25.31
373.172	41.31
373.301	11.31
373.43	13.31
373.559	4.31
373.688	41.31
373.818	38.31
373.947	24.31
374.076	16.31
374.205	22.31
374.334	11.31
374.463	-2.69
374.593	26.31
374.722	28.31
374.851	29.31
374.98	15.31
375.109	23.31
375.238	40.31
375.367	32.31
375.496	9.31
375.625	4.31
375.755	10.31
375.884	49.31
376.013	46.31
376.142	8.31
376.271	23.31
376.4	11.31
376.529	17.31
376.658	38.31
376.787	20.31
376.916	16.31
377.045	16.31
377.174	17.31
377.303	3.31
377.432	36.31
377.561	30.31
377.69	21.31
377.819	36.31
377.948	34.31
378.077	26.31
378.206	8.31
378.335	21.31
378.464	16.31
378.593	41.31
378.722	7.31
378.851	29.31
378.98	14.31
379.108	2.31
379.237	3.31
379.366	34.31
379.495	22.31
379.624	11.31
379.753	15.31
379.882	26.31
380.011	11.31
380.14	19.31
380.268	20.31
380.397	14.31
380.526	38.31
380.655	1.31
380.784	7.31
380.913	15.31
381.041	19.31
381.17	10.31
381.299	18.31
381.428	17.31
381.557	20.31
381.685	21.31
381.814	29.31
381.943	28.31
382.072	17.31
382.2	18.31
382.329	29.31
382.458	24.31
382.587	35.31
382.715	21.31
382.844	23.31
382.973	30.31
383.102	17.31
383.23	10.31
383.359	7.31
383.488	23.31
383.616	17.31
383.745	4.31
383.874	12.31
384.003	15.31
384.131	3.31
384.26	9.31
384.389	12.31
384.517	12.31
384.646	7.31
384.774	16.31
384.903	43.31
385.032	35.31
385.16	35.31
385.289	14.31
385.418	7.31
385.546	22.31
385.675	32.31
385.803	23.31
385.932	24.31
386.06	1.31
386.189	23.31
386.318	16.31
386.446	31.31
386.575	23.31
386.703	44.31
386.832	11.31
386.96	17.31
387.089	42.31
387.217	26.31
387.346	24.31
387.474	34.31
387.603	37.31
387.731	13.31
387.86	19.31
387.988	38.31
388.117	25.31
388.245	33.31
388.374	11.31
388.502	18.31
388.631	22.31
388.759	17.31
388.888	12.31
389.016	9.31
389.144	4.31
389.273	21.31
389.401	32.31
389.53	19.31
389.658	40.31
389.786	5.31
389.915	26.31
390.043	18.31
390.172	15.31
390.3	42.31
390.428	49.31
390.557	18.31
390.685	29.31
390.813	56.31
390.942	49.31
391.07	16.31
391.198	7.31
391.327	27.31
391.455	14.31
391.583	39.31
391.712	43.31
391.84	17.31
391.968	18.31
392.096	18.31
392.225	23.31
392.353	26.31
392.481	-0.69
392.609	19.31
392.738	30.31
392.866	65.31
392.994	18.31
393.122	42.31
393.251	15.31
393.379	2.31
393.507	8.31
393.635	25.31
393.764	26.31
393.892	23.31
394.02	26.31
394.148	28.31
394.276	32.31
394.404	36.31
394.533	30.31
394.661	17.31
394.789	35.31
394.917	53.31
395.045	21.31
395.173	22.31
395.302	27.31
395.43	27.31
395.558	38.31
395.686	32.31
395.814	14.31
395.942	15.31
396.07	20.31
396.198	17.31
396.326	37.31
396.454	44.31
396.582	25.31
396.711	32.31
396.839	20.31
396.967	36.31
397.095	29.31
397.223	41.31
397.351	57.31
397.479	24.31
397.607	30.31
397.735	44.31
397.863	48.31
397.991	45.31
398.119	37.31
398.247	57.31
398.375	45.31
398.503	48.31
398.631	63.31
398.759	69.31
398.887	72.31
399.015	41.31
399.143	53.31
399.271	66.31
399.399	75.31
399.526	70.31
399.654	85.31
399.782	56.31
399.91	79.31
400.038	99.31
400.166	73.31
400.294	102.31
400.422	89.31
400.55	129.31
400.678	135.31
400.805	111.31
400.933	119.31
401.061	130.31
401.189	124.31
401.317	122.31
401.445	108.31
401.573	78.31
401.7	60.31
401.828	69.31
401.956	50.31
402.084	43.31
402.212	44.31
402.34	43.31
402.467	31.31
402.595	47.31
402.723	56.31
402.851	71.31
402.978	64.31
403.106	89.31
403.234	85.31
403.362	114.31
403.489	112.31
403.617	142.31
403.745	211.31
403.873	303.31
404	570.31
404.128	1510.31
404.256	4017.31
404.384	5214.31
404.511	5534.31
404.639	7315.31
404.767	11627.31
404.894	14746.31
405.022	4977.31
405.15	1322.31
405.277	423.31
405.405	251.31
405.533	132.31
405.66	120.31
405.788	58.31
405.916	83.31
406.043	51.31
406.171	60.31
406.299	56.31
406.426	80.31
406.554	50.31
406.681	71.31
406.809	47.31
406.937	64.31
407.064	79.31
407.192	125.31
407.319	308.31
407.447	516.31
407.574	545.31
407.702	617.31
407.83	876.31
407.957	1611.31
408.085	944.31
408.212	279.31
408.34	108.31
408.467	61.31
408.595	47.31
408.722	61.31
408.85	36.31
408.977	44.31
409.105	38.31
409.232	43.31
409.36	44.31
409.487	51.31
409.615	38.31
409.742	47.31
409.87	28.31
409.997	53.31
410.125	39.31
410.252	47.31
410.379	37.31
410.507	46.31
410.634	35.31
410.762	46.31
410.889	49.31
411.017	31.31
411.144	40.31
411.271	25.31
411.399	11.31
411.526	34.31
411.653	57.31
411.781	49.31
411.908	31.31
412.036	34.31
412.163	38.31
412.29	36.31
412.418	56.31
412.545	36.31
412.672	30.31
412.8	55.31
412.927	39.31
413.054	58.31
413.182	42.31
413.309	39.31
413.436	40.31
413.564	34.31
413.691	30.31
413.818	36.31
413.945	20.31
414.073	19.31
414.2	20.31
414.327	39.31
414.454	43.31
414.582	39.31
414.709	18.31
414.836	29.31
414.963	21.31
415.091	27.31
415.218	32.31
415.345	32.31
415.472	30.31
415.6	23.31
415.727	48.31
415.854	29.31
415.981	10.31
416.108	20.31
416.236	29.31
416.363	33.31
416.49	27.31
416.617	37.31
416.744	42.31
416.871	21.31
416.998	37.31
417.126	25.31
417.253	19.31
417.38	28.31
417.507	10.31
417.634	22.31
417.761	46.31
417.888	51.31
418.015	34.31
418.143	34.31
418.27	55.31
418.397	29.31
418.524	31.31
418.651	31.31
418.778	31.31
418.905	57.31
419.032	46.31
419.159	47.31
419.286	53.31
419.413	56.31
419.54	48.31
419.667	44.31
419.794	21.31
419.921	59.31
420.048	58.31
420.175	48.31
420.302	48.31
420.429	52.31
420.556	51.31
420.683	42.31
420.81	61.31
420.937	59.31
421.064	86.31
421.191	83.31
421.318	78.31
421.445	68.31
421.572	50.31
421.699	55.31
421.826	54.31
421.953	20.31
422.08	27.31
422.207	1.31
422.334	9.31
422.461	48.31
422.588	12.31
422.714	22.31
422.841	31.31
422.968	32.31
423.095	10.31
423.222	-9.69
423.349	27.31
423.476	31.31
423.603	20.31
423.729	29.31
423.856	14.31
423.983	45.31
424.11	22.31
424.237	28.31
424.364	24.31
424.491	38.31
424.617	10.31
424.744	16.31
424.871	14.31
424.998	6.31
425.125	13.31
425.251	37.31
425.378	24.31
425.505	26.31
425.632	23.31
425.758	17.31
425.885	19.31
426.012	18.31
426.139	42.31
426.266	20.31
426.392	20.31
426.519	29.31
426.646	14.31
426.772	32.31
426.899	21.31
427.026	18.31
427.153	27.31
427.279	24.31
427.406	14.31
427.533	23.31
427.659	8.31
427.786	20.31
427.913	20.31
428.039	19.31
428.166	22.31
428.293	11.31
428.419	36.31
428.546	35.31
428.673	11.31
428.799	23.31
428.926	42.31
429.053	48.31
429.179	24.31
429.306	40.31
429.433	29.31
429.559	39.31
429.686	30.31
429.812	11.31
429.939	10.31
430.066	36.31
430.192	28.31
430.319	23.31
430.445	17.31
430.572	2.31
430.699	11.31
430.825	18.31
430.952	25.31
431.078	25.31
431.205	45.31
431.331	29.31
431.458	42.31
431.584	33.31
431.711	30.31
431.837	31.31
431.964	36.31
432.09	22.31
432.217	12.31
432.343	18.31
432.47	32.31
432.596	36.31
432.723	22.31
432.849	28.31
432.976	55.31
433.102	38.31
433.229	41.31
433.355	58.31
433.482	75.31
433.608	99.31
433.735	97.31
433.861	123.31
433.987	175.31
434.114	200.31
434.24	178.31
434.367	222.31
434.493	218.31
434.62	258.31
434.746	410.31
434.872	638.31
434.999	856.31
435.125	1739.31
435.252	5577.31
435.378	13473.31
435.504	15255.31
435.631	15453.31
435.757	15685.31
435.883	15685.31
436.01	15685.31
436.136	15685.31
436.262	15685.31
436.389	3559.31
436.515	2549.31
436.641	868.31
436.768	640.31
436.894	390.31
437.02	394.31
437.147	299.31
437.273	299.31
437.399	211.31
437.526	247.31
437.652	193.31
437.778	224.31
437.904	151.31
438.031	151.31
438.157	148.31
438.283	169.31
438.409	124.31
438.536	121.31
438.662	123.31
438.788	137.31
438.914	105.31
439.041	141.31
439.167	137.31
439.293	112.31
439.419	88.31
439.546	91.31
439.672	73.31
439.798	89.31
439.924	80.31
440.05	100.31
440.177	83.31
440.303	92.31
440.429	67.31
440.555	75.31
440.681	60.31
440.807	84.31
440.934	50.31
441.06	77.31
441.186	54.31
441.312	62.31
441.438	73.31
441.564	64.31
441.69	65.31
441.816	72.31
441.943	66.31
442.069	66.31
442.195	57.31
442.321	67.31
442.447	39.31
442.573	39.31
442.699	44.31
442.825	47.31
442.951	57.31
443.077	56.31
443.203	59.31
443.33	59.31
443.456	23.31
443.582	43.31
443.708	48.31
443.834	58.31
443.96	49.31
444.086	46.31
444.212	60.31
444.338	63.31
444.464	48.31
444.59	72.31
444.716	46.31
444.842	33.31
444.968	23.31
445.094	36.31
445.22	32.31
445.346	19.31
445.472	29.31
445.598	26.31
445.724	25.31
445.85	41.31
445.976	47.31
446.102	50.31
446.228	33.31
446.354	41.31
446.48	34.31
446.605	49.31
446.731	38.31
446.857	58.31
446.983	29.31
447.109	37.31
447.235	38.31
447.361	34.31
447.487	32.31
447.613	39.31
447.739	55.31
447.865	36.31
447.99	43.31
448.116	31.31
448.242	42.31
448.368	47.31
448.494	12.31
448.62	42.31
448.746	26.31
448.872	33.31
448.997	10.31
449.123	35.31
449.249	40.31
449.375	48.31
449.501	8.31
449.627	13.31
449.752	38.31
449.878	26.31
450.004	20.31
450.13	48.31
450.256	16.31
450.381	30.31
450.507	28.31
450.633	7.31
450.759	25.31
450.884	28.31
451.01	29.31
451.136	19.31
451.262	43.31
451.388	50.31
451.513	31.31
451.639	28.31
451.765	38.31
451.89	38.31
452.016	32.31
452.142	13.31
452.268	36.31
452.393	52.31
452.519	7.31
452.645	32.31
452.771	35.31
452.896	34.31
453.022	10.31
453.148	43.31
453.273	22.31
453.399	19.31
453.525	10.31
453.65	36.31
453.776	23.31
453.902	44.31
454.027	32.31
454.153	19.31
454.279	39.31
454.404	35.31
454.53	36.31
454.656	54.31
454.781	29.31
454.907	28.31
455.032	15.31
455.158	52.31
455.284	42.31
455.409	42.31
455.535	32.31
455.66	41.31
455.786	34.31
455.912	17.31
456.037	18.31
456.163	27.31
456.288	30.31
456.414	19.31
456.539	8.31
456.665	26.31
456.791	30.31
456.916	21.31
457.042	13.31
457.167	29.31
457.293	30.31
457.418	37.31
457.544	12.31
457.669	23.31
457.795	27.31
457.92	27.31
458.046	24.31
458.171	27.31
458.297	21.31
458.422	6.31
458.548	14.31
458.673	24.31
458.799	23.31
458.924	11.31
459.05	36.31
459.175	24.31
459.301	36.31
459.426	33.31
459.552	22.31
459.677	19.31
459.803	57.31
459.928	33.31
460.053	24.31
460.179	39.31
460.304	32.31
460.43	16.31
460.555	27.31
460.681	17.31
460.806	32.31
460.931	32.31
461.057	33.31
461.182	28.31
461.308	56.31
461.433	32.31
461.558	14.31
461.684	44.31
461.809	50.31
461.934	23.31
462.06	8.31
462.185	6.31
462.311	17.31
462.436	41.31
462.561	44.31
462.687	19.31
462.812	43.31
462.937	23.31
463.063	11.31
463.188	15.31
463.313	36.31
463.439	22.31
463.564	34.31
463.689	34.31
463.814	4.31
463.94	30.31
464.065	30.31
464.19	56.31
464.316	38.31
464.441	16.31
464.566	16.31
464.692	14.31
464.817	30.31
464.942	4.31
465.067	45.31
465.193	16.31
465.318	24.31
465.443	30.31
465.568	24.31
465.694	27.31
465.819	52.31
465.944	36.31
466.069	24.31
466.194	27.31
466.32	43.31
466.445	25.31
466.57	30.31
466.695	32.31
466.82	51.31
466.946	58.31
467.071	45.31
467.196	21.31
467.321	40.31
467.446	29.31
467.572	50.31
467.697	38.31
467.822	37.31
467.947	39.31
468.072	20.31
468.197	16.31
468.323	7.31
468.448	26.31
468.573	38.31
468.698	34.31
468.823	50.31
468.948	37.31
469.073	36.31
469.198	51.31
469.324	65.31
469.449	52.31
469.574	48.31
469.699	52.31
469.824	53.31
469.949	33.31
470.074	34.31
470.199	57.31
470.324	31.31
470.449	31.31
470.574	27.31
470.7	23.31
470.825	43.31
470.95	41.31
471.075	40.31
471.2	50.31
471.325	46.31
471.45	48.31
471.575	45.31
471.7	31.31
471.825	30.31
471.95	24.31
472.075	24.31
472.2	28.31
472.325	30.31
472.45	34.31
472.575	28.31
472.7	35.31
472.825	53.31
472.95	48.31
473.075	27.31
473.2	31.31
473.325	38.31
473.45	56.31
473.575	50.31
473.7	48.31
473.825	21.31
473.95	25.31
474.075	30.31
474.2	20.31
474.325	22.31
474.45	31.31
474.574	34.31
474.699	35.31
474.824	55.31
474.949	29.31
475.074	18.31
475.199	20.31
475.324	49.31
475.449	24.31
475.574	41.31
475.699	32.31
475.824	39.31
475.949	16.31
476.073	8.31
476.198	15.31
476.323	27.31
476.448	20.31
476.573	22.31
476.698	40.31
476.823	39.31
476.947	21.31
477.072	24.31
477.197	32.31
477.322	22.31
477.447	7.31
477.572	10.31
477.697	18.31
477.821	-1.69
477.946	38.31
478.071	44.31
478.196	33.31
478.321	29.31
478.445	19.31
478.57	14.31
478.695	10.31
478.82	34.31
478.945	31.31
479.069	4.31
479.194	10.31
479.319	52.31
479.444	40.31
479.569	19.31
479.693	27.31
479.818	26.31
479.943	29.31
480.068	11.31
480.192	15.31
480.317	11.31
480.442	20.31
480.567	26.31
480.691	18.31
480.816	15.31
480.941	19.31
481.066	21.31
481.19	35.31
481.315	23.31
481.44	10.31
481.564	2.31
481.689	17.31
481.814	15.31
481.938	14.31
482.063	6.31
482.188	20.31
482.313	27.31
482.437	-4.69
482.562	19.31
482.687	28.31
482.811	33.31
482.936	30.31
483.061	24.31
483.185	35.31
483.31	44.31
483.435	38.31
483.559	36.31
483.684	27.31
483.808	57.31
483.933	40.31
484.058	32.31
484.182	32.31
484.307	31.31
484.432	32.31
484.556	22.31
484.681	42.31
484.805	25.31
484.93	29.31
485.055	26.31
485.179	43.31
485.304	25.31
485.428	18.31
485.553	41.31
485.678	44.31
485.802	22.31
485.927	22.31
486.051	32.31
486.176	38.31
486.3	18.31
486.425	23.31
486.549	15.31
486.674	23.31
486.799	14.31
486.923	9.31
487.048	15.31
487.172	18.31
487.297	13.31
487.421	14.31
487.546	20.31
487.67	23.31
487.795	10.31
487.919	29.31
488.044	30.31
488.168	40.31
488.293	39.31
488.417	4.31
488.542	30.31
488.666	21.31
488.791	18.31
488.915	15.31
489.04	35.31
489.164	23.31
489.289	34.31
489.413	1.31
489.538	30.31
489.662	47.31
489.786	31.31
489.911	8.31
490.035	25.31
490.16	13.31
490.284	32.31
490.409	15.31
490.533	30.31
490.658	44.31
490.782	22.31
490.906	47.31
491.031	114.31
491.155	149.31
491.28	158.31
491.404	161.31
491.528	235.31
491.653	167.31
491.777	69.31
491.902	15.31
492.026	28.31
492.15	32.31
492.275	42.31
492.399	44.31
492.524	14.31
492.648	29.31
492.772	40.31
492.897	35.31
493.021	22.31
493.145	28.31
493.27	24.31
493.394	9.31
493.518	12.31
493.643	5.31
493.767	38.31
493.891	16.31
494.016	19.31
494.14	31.31
494.264	18.31
494.389	17.31
494.513	19.31
494.637	9.31
494.762	28.31
494.886	31.31
495.01	20.31
495.134	22.31
495.259	34.31
495.383	38.31
495.507	17.31
495.632	36.31
495.756	53.31
495.88	33.31
496.004	30.31
496.129	3.31
496.253	18.31
496.377	19.31
496.501	28.31
496.626	1.31
496.75	11.31
496.874	31.31
496.998	14.31
497.123	26.31
497.247	9.31
497.371	26.31
497.495	18.31
497.62	23.31
497.744	8.31
497.868	14.31
497.992	15.31
498.116	16.31
498.241	34.31
498.365	17.31
498.489	10.31
498.613	32.31
498.737	9.31
498.862	32.31
498.986	14.31
499.11	30.31
499.234	17.31
499.358	22.31
499.482	19.31
499.607	35.31
499.731	23.31
499.855	32.31
499.979	10.31
500.103	31.31
500.227	45.31
500.351	30.31
500.476	18.31
500.6	25.31
500.724	27.31
500.848	22.31
500.972	29.31
501.096	36.31
501.22	30.31
501.344	21.31
501.469	16.31
501.593	27.31
501.717	33.31
501.841	30.31
501.965	15.31
502.089	35.31
502.213	23.31
502.337	19.31
502.461	28.31
502.585	22.31
502.709	26.31
502.834	15.31
502.958	23.31
503.082	24.31
503.206	18.31
503.33	33.31
503.454	29.31
503.578	35.31
503.702	20.31
503.826	22.31
503.95	29.31
504.074	4.31
504.198	20.31
504.322	6.31
504.446	18.31
504.57	23.31
504.694	22.31
504.818	32.31
504.942	34.31
505.066	34.31
505.19	28.31
505.314	28.31
505.438	34.31
505.562	13.31
505.686	43.31
505.81	35.31
505.934	26.31
506.058	26.31
506.182	36.31
506.306	30.31
506.43	12.31
506.554	20.31
506.678	14.31
506.802	13.31
506.926	33.31
507.05	29.31
507.174	43.31
507.298	14.31
507.422	11.31
507.546	23.31
507.67	33.31
507.794	1.31
507.918	13.31
508.042	24.31
508.165	31.31
508.289	15.31
508.413	22.31
508.537	16.31
508.661	24.31
508.785	14.31
508.909	19.31
509.033	36.31
509.157	32.31
509.281	31.31
509.405	29.31
509.528	40.31
509.652	54.31
509.776	29.31
509.9	48.31
510.024	27.31
510.148	40.31
510.272	29.31
510.396	42.31
510.519	15.31
510.643	37.31
510.767	24.31
510.891	44.31
511.015	32.31
511.139	44.31
511.263	47.31
511.386	38.31
511.51	35.31
511.634	36.31
511.758	35.31
511.882	30.31
512.006	33.31
512.129	48.31
512.253	81.31
512.377	100.31
512.501	93.31
512.625	89.31
512.748	96.31
512.872	71.31
512.996	54.31
513.12	59.31
513.244	48.31
513.367	66.31
513.491	81.31
513.615	69.31
513.739	70.31
513.862	92.31
513.986	80.31
514.11	89.31
514.234	74.31
514.358	106.31
514.481	111.31
514.605	120.31
514.729	123.31
514.853	122.31
514.976	96.31
515.1	101.31
515.224	111.31
515.348	91.31
515.471	75.31
515.595	98.31
515.719	137.31
515.842	218.31
515.966	276.31
516.09	283.31
516.214	296.31
516.337	336.31
516.461	228.31
516.585	91.31
516.708	35.31
516.832	20.31
516.956	24.31
517.08	7.31
517.203	2.31
517.327	27.31
517.451	43.31
517.574	44.31
517.698	6.31
517.822	27.31
517.945	17.31
518.069	24.31
518.193	37.31
518.316	28.31
518.44	34.31
518.564	11.31
518.687	9.31
518.811	8.31
518.935	47.31
519.058	12.31
519.182	26.31
519.306	15.31
519.429	15.31
519.553	43.31
519.676	22.31
519.8	22.31
519.924	17.31
520.047	23.31
520.171	18.31
520.294	10.31
520.418	23.31
520.542	23.31
520.665	22.31
520.789	23.31
520.913	8.31
521.036	6.31
521.16	1.31
521.283	11.31
521.407	17.31
521.53	3.31
521.654	-0.69
521.778	22.31
521.901	30.31
522.025	5.31
522.148	-6.69
522.272	27.31
522.395	15.31
522.519	22.31
522.643	11.31
522.766	3.31
522.89	13.31
523.013	32.31
523.137	3.31
523.26	14.31
523.384	22.31
523.507	12.31
523.631	4.31
523.754	14.31
523.878	17.31
524.002	10.31
524.125	24.31
524.249	-1.69
524.372	37.31
524.496	24.31
524.619	24.31
524.743	14.31
524.866	7.31
524.99	9.31
525.113	17.31
525.237	23.31
525.36	16.31
525.484	26.31
525.607	15.31
525.731	4.31
525.854	2.31
525.978	40.31
526.101	19.31
526.224	25.31
526.348	8.31
526.471	19.31
526.595	19.31
526.718	18.31
526.842	7.31
526.965	25.31
527.089	14.31
527.212	27.31
527.336	15.31
527.459	30.31
527.582	21.31
527.706	40.31
527.829	34.31
527.953	12.31
528.076	-6.69
528.2	12.31
528.323	11.31
528.446	24.31
528.57	18.31
528.693	27.31
528.817	8.31
528.94	39.31
529.064	48.31
529.187	16.31
529.31	7.31
529.434	15.31
529.557	18.31
529.68	16.31
529.804	18.31
529.927	26.31
530.051	23.31
530.174	14.31
530.297	17.31
530.421	26.31
530.544	34.31
530.668	35.31
530.791	6.31
530.914	35.31
531.038	19.31
531.161	16.31
531.284	27.31
531.408	21.31
531.531	7.31
531.654	15.31
531.778	20.31
531.901	12.31
532.024	35.31
532.148	12.31
532.271	11.31
532.394	16.31
532.518	25.31
532.641	18.31
532.764	22.31
532.888	14.31
533.011	-12.69
533.134	-8.69
533.258	19.31
533.381	30.31
533.504	24.31
533.628	27.31
533.751	26.31
533.874	15.31
533.997	26.31
534.121	22.31
534.244	4.31
534.367	-0.69
534.491	18.31
534.614	36.31
534.737	31.31
534.86	38.31
534.984	24.31
535.107	7.31
535.23	11.31
535.354	11.31
535.477	-0.69
535.6	27.31
535.723	25.31
535.847	35.31
535.97	8.31
536.093	14.31
536.216	12.31
536.34	24.31
536.463	18.31
536.586	28.31
536.709	28.31
536.833	8.31
536.956	12.31
537.079	19.31
537.202	19.31
537.325	20.31
537.449	6.31
537.572	35.31
537.695	8.31
537.818	3.31
537.941	32.31
538.065	26.31
538.188	-6.69
538.311	26.31
538.434	17.31
538.558	34.31
538.681	25.31
538.804	19.31
538.927	30.31
539.05	39.31
539.173	24.31
539.297	23.31
539.42	34.31
539.543	27.31
539.666	38.31
539.789	36.31
539.913	17.31
540.036	28.31
540.159	25.31
540.282	35.31
540.405	24.31
540.528	16.31
540.651	28.31
540.775	16.31
540.898	26.31
541.021	35.31
541.144	37.31
541.267	38.31
541.39	34.31
541.513	35.31
541.637	30.31
541.76	43.31
541.883	39.31
542.006	50.31
542.129	52.31
542.252	30.31
542.375	35.31
542.498	43.31
542.622	51.31
542.745	52.31
542.868	33.31
542.991	52.31
543.114	51.31
543.237	66.31
543.36	71.31
543.483	67.31
543.606	76.31
543.73	80.31
543.853	67.31
543.976	70.31
544.099	99.31
544.222	132.31
544.345	140.31
544.468	173.31
544.591	230.31
544.714	273.31
544.837	356.31
544.96	454.31
545.083	669.31
545.206	1099.31
545.329	2472.31
545.453	11078.31
545.576	15279.31
545.699	15685.31
545.822	15685.31
545.945	15685.31
546.068	15685.31
546.191	15685.31
546.314	15685.31
546.437	15685.31
546.56	15685.31
546.683	15685.31
546.806	15685.31
546.929	15685.31
547.052	15685.31
547.175	15685.31
547.298	15685.31
547.421	15685.31
547.544	15685.31
547.667	3879.31
547.79	4236.31
547.913	1335.31
548.036	949.31
548.159	674.31
548.282	651.31
548.405	483.31
548.528	535.31
548.651	427.31
548.774	394.31
548.897	343.31
549.02	354.31
549.143	311.31
549.266	294.31
549.389	273.31
549.512	258.31
549.635	263.31
549.758	246.31
549.881	214.31
550.004	225.31
550.127	217.31
550.25	206.31
550.373	161.31
550.496	190.31
550.619	162.31
550.742	174.31
550.865	145.31
550.988	175.31
551.111	160.31
551.234	150.31
551.356	121.31
551.479	140.31
551.602	129.31
551.725	156.31
551.848	130.31
551.971	124.31
552.094	112.31
552.217	114.31
552.34	132.31
552.463	98.31
552.586	107.31
552.709	96.31
552.832	114.31
552.955	111.31
553.077	93.31
553.2	115.31
553.323	84.31
553.446	116.31
553.569	93.31
553.692	116.31
553.815	130.31
553.938	122.31
554.061	103.31
554.184	93.31
554.306	96.31
554.429	83.31
554.552	89.31
554.675	82.31
554.798	77.31
554.921	92.31
555.044	74.31
555.167	84.31
555.29	62.31
555.412	68.31
555.535	82.31
555.658	85.31
555.781	56.31
555.904	68.31
556.027	89.31
556.15	88.31
556.272	75.31
556.395	87.31
556.518	58.31
556.641	77.31
556.764	94.31
556.887	74.31
557.01	70.31
557.132	44.31
557.255	55.31
557.378	68.31
557.501	51.31
557.624	72.31
557.747	71.31
557.869	90.31
557.992	101.31
558.115	94.31
558.238	69.31
558.361	80.31
558.483	106.31
558.606	89.31
558.729	60.31
558.852	82.31
558.975	70.31
559.098	75.31
559.22	55.31
559.343	64.31
559.466	51.31
559.589	52.31
559.712	47.31
559.834	44.31
559.957	31.31
560.08	60.31
560.203	59.31
560.325	65.31
560.448	64.31
560.571	54.31
560.694	47.31
560.817	64.31
560.939	64.31
561.062	58.31
561.185	63.31
561.308	82.31
561.43	66.31
561.553	64.31
561.676	56.31
561.799	82.31
561.921	64.31
562.044	61.31
562.167	61.31
562.29	78.31
562.413	65.31
562.535	73.31
562.658	65.31
562.781	46.31
562.903	80.31
563.026	78.31
563.149	141.31
563.272	141.31
563.394	115.31
563.517	87.31
563.64	68.31
563.763	45.31
563.885	50.31
564.008	83.31
564.131	54.31
564.254	29.31
564.376	41.31
564.499	10.31
564.622	32.31
564.744	44.31
564.867	48.31
564.99	50.31
565.113	32.31
565.235	32.31
565.358	37.31
565.481	35.31
565.603	36.31
565.726	29.31
565.849	52.31
565.971	43.31
566.094	34.31
566.217	45.31
566.34	41.31
566.462	44.31
566.585	40.31
566.708	71.31
566.83	37.31
566.953	40.31
567.076	30.31
567.198	25.31
567.321	32.31
567.444	48.31
567.566	30.31
567.689	43.31
567.812	37.31
567.934	42.31
568.057	46.31
568.18	50.31
568.302	39.31
568.425	20.31
568.548	14.31
568.67	35.31
568.793	30.31
568.916	38.31
569.038	28.31
569.161	46.31
569.283	46.31
569.406	26.31
569.529	30.31
569.651	16.31
569.774	26.31
569.897	13.31
570.019	58.31
570.142	46.31
570.265	35.31
570.387	36.31
570.51	36.31
570.632	30.31
570.755	24.31
570.878	38.31
571	59.31
571.123	38.31
571.246	44.31
571.368	27.31
571.491	23.31
571.613	37.31
571.736	22.31
571.859	51.31
571.981	14.31
572.104	10.31
572.226	38.31
572.349	45.31
572.472	38.31
572.594	29.31
572.717	36.31
572.839	35.31
572.962	41.31
573.085	44.31
573.207	29.31
573.33	27.31
573.452	34.31
573.575	77.31
573.697	34.31
573.82	44.31
573.943	26.31
574.065	46.31
574.188	36.31
574.31	51.31
574.433	47.31
574.555	46.31
574.678	35.31
574.801	48.31
574.923	36.31
575.046	40.31
575.168	42.31
575.291	39.31
575.413	28.31
575.536	39.31
575.659	60.31
575.781	49.31
575.904	68.31
576.026	77.31
576.149	83.31
576.271	128.31
576.394	209.31
576.516	533.31
576.639	3676.31
576.761	10301.31
576.884	8956.31
577.007	8822.31
577.129	8080.31
577.252	3752.31
577.374	1312.31
577.497	515.31
577.619	298.31
577.742	193.31
577.864	158.31
577.987	118.31
578.109	128.31
578.232	125.31
578.354	152.31
578.477	203.31
578.599	385.31
578.722	1964.31
578.844	9188.31
578.967	9873.31
579.089	8876.31
579.212	9186.31
579.334	5287.31
579.457	1968.31
579.579	752.31
579.702	344.31
579.824	200.31
579.947	139.31
580.069	103.31
580.192	74.31
580.314	82.31
580.437	73.31
580.559	90.31
580.682	71.31
580.804	80.31
580.927	77.31
581.049	88.31
581.172	53.31
581.294	63.31
581.417	63.31
581.539	40.31
581.662	51.31
581.784	40.31
581.907	44.31
582.029	56.31
582.152	30.31
582.274	50.31
582.396	48.31
582.519	34.31
582.641	18.31
582.764	49.31
582.886	50.31
583.009	52.31
583.131	33.31
583.254	33.31
583.376	53.31
583.499	53.31
583.621	40.31
583.743	48.31
583.866	24.31
583.988	32.31
584.111	51.31
584.233	48.31
584.356	51.31
584.478	27.31
584.601	15.31
584.723	14.31
584.845	43.31
584.968	24.31
585.09	5.31
585.213	40.31
585.335	25.31
585.458	30.31
585.58	38.31
585.702	50.31
585.825	43.31
585.947	50.31
586.07	35.31
586.192	25.31
586.315	46.31
586.437	30.31
586.559	24.31
586.682	16.31
586.804	20.31
586.927	18.31
587.049	32.31
587.171	34.31
587.294	42.31
587.416	43.31
587.539	30.31
587.661	13.31
587.783	20.31
587.906	26.31
588.028	30.31
588.151	12.31
588.273	39.31
588.395	40.31
588.518	30.31
588.64	29.31
588.763	40.31
588.885	34.31
589.007	42.31
589.13	20.31
589.252	15.31
589.375	44.31
589.497	11.31
589.619	33.31
589.742	29.31
589.864	38.31
589.986	31.31
590.109	23.31
590.231	29.31
590.354	35.31
590.476	13.31
590.598	35.31
590.721	27.31
590.843	36.31
590.965	32.31
591.088	23.31
591.21	26.31
591.332	20.31
591.455	8.31
591.577	22.31
591.7	30.31
591.822	25.31
591.944	14.31
592.067	30.31
592.189	27.31
592.311	33.31
592.434	26.31
592.556	23.31
592.678	25.31
592.801	35.31
592.923	38.31
593.045	38.31
593.168	33.31
593.29	41.31
593.412	41.31
593.535	24.31
593.657	18.31
593.779	27.31
593.902	38.31
594.024	39.31
594.146	28.31
594.269	33.31
594.391	12.31
594.513	23.31
594.636	30.31
594.758	27.31
594.88	39.31
595.003	28.31
595.125	27.31
595.247	28.31
595.37	34.31
595.492	29.31
595.614	61.31
595.737	32.31
595.859	23.31
595.981	33.31
596.104	24.31
596.226	16.31
596.348	24.31
596.471	32.31
596.593	33.31
596.715	18.31
596.838	30.31
596.96	27.31
597.082	31.31
597.204	35.31
597.327	38.31
597.449	15.31
597.571	38.31
597.694	35.31
597.816	26.31
597.938	34.31
598.061	13.31
598.183	33.31
598.305	42.31
598.427	37.31
598.55	44.31
598.672	42.31
598.794	30.31
598.917	15.31
599.039	20.31
599.161	38.31
599.283	30.31
599.406	30.31
599.528	33.31
599.65	31.31
599.773	23.31
599.895	38.31
600.017	41.31
600.139	39.31
600.262	25.31
600.384	18.31
600.506	27.31
600.628	55.31
600.751	37.31
600.873	23.31
600.995	27.31
601.118	23.31
601.24	22.31
601.362	39.31
601.484	42.31
601.607	32.31
601.729	19.31
601.851	17.31
601.973	16.31
602.096	24.31
602.218	19.31
602.34	32.31
602.462	34.31
602.585	31.31
602.707	32.31
602.829	46.31
602.951	19.31
603.074	9.31
603.196	18.31
603.318	6.31
603.44	22.31
603.563	36.31
603.685	7.31
603.807	25.31
603.929	28.31
604.052	45.31
604.174	46.31
604.296	26.31
604.418	23.31
604.541	40.31
604.663	14.31
604.785	26.31
604.907	33.31
605.03	25.31
605.152	66.31
605.274	34.31
605.396	34.31
605.519	32.31
605.641	37.31
605.763	26.31
605.885	31.31
606.008	18.31
606.13	25.31
606.252	37.31
606.374	1.31
606.496	8.31
606.619	3.31
606.741	16.31
606.863	47.31
606.985	39.31
607.108	24.31
607.23	26.31
607.352	24.31
607.474	12.31
607.596	19.31
607.719	12.31
607.841	42.31
607.963	13.31
608.085	30.31
608.207	41.31
608.33	24.31
608.452	15.31
608.574	13.31
608.696	28.31
608.819	16.31
608.941	24.31
609.063	5.31
609.185	22.31
609.307	28.31
609.43	35.31
609.552	39.31
609.674	6.31
609.796	24.31
609.918	22.31
610.041	10.31
610.163	23.31
610.285	44.31
610.407	32.31
610.529	19.31
610.652	27.31
610.774	26.31
610.896	33.31
611.018	30.31
611.14	22.31
611.263	22.31
611.385	18.31
611.507	31.31
611.629	15.31
611.751	35.31
611.873	53.31
611.996	11.31
612.118	29.31
612.24	30.31
612.362	35.31
612.484	39.31
612.607	39.31
612.729	46.31
612.851	33.31
612.973	31.31
613.095	18.31
613.218	34.31
613.34	29.31
613.462	29.31
613.584	28.31
613.706	16.31
613.828	48.31
613.951	28.31
614.073	31.31
614.195	9.31
614.317	28.31
614.439	31.31
614.561	14.31
614.684	16.31
614.806	19.31
614.928	30.31
615.05	37.31
615.172	40.31
615.294	38.31
615.417	28.31
615.539	23.31
615.661	34.31
615.783	36.31
615.905	14.31
616.027	-4.69
616.15	37.31
616.272	20.31
616.394	26.31
616.516	32.31
616.638	18.31
616.76	23.31
616.883	18.31
617.005	24.31
617.127	22.31
617.249	28.31
617.371	26.31
617.493	15.31
617.615	23.31
617.738	32.31
617.86	20.31
617.982	15.31
618.104	22.31
618.226	1.31
618.348	11.31
618.471	34.31
618.593	28.31
618.715	7.31
618.837	38.31
618.959	17.31
619.081	22.31
619.203	22.31
619.326	35.31
619.448	31.31
619.57	35.31
619.692	26.31
619.814	36.31
619.936	15.31
620.058	28.31
620.181	14.31
620.303	25.31
620.425	32.31
620.547	19.31
620.669	25.31
620.791	25.31
620.913	27.31
621.036	7.31
621.158	33.31
621.28	30.31
621.402	18.31
621.524	22.31
621.646	23.31
621.768	23.31
621.891	4.31
622.013	13.31
622.135	13.31
622.257	16.31
622.379	14.31
622.501	11.31
622.623	31.31
622.745	13.31
622.868	7.31
622.99	10.31
623.112	3.31
623.234	-3.69
623.356	19.31
623.478	12.31
623.6	34.31
623.722	26.31
623.845	17.31
623.967	18.31
624.089	36.31
624.211	26.31
624.333	23.31
624.455	16.31
624.577	33.31
624.699	27.31
624.822	16.31
624.944	21.31
625.066	25.31
625.188	32.31
625.31	26.31
625.432	23.31
625.554	22.31
625.676	43.31
625.799	37.31
625.921	18.31
626.043	19.31
626.165	22.31
626.287	6.31
626.409	28.31
626.531	12.31
626.653	20.31
626.775	37.31
626.898	24.31
627.02	32.31
627.142	52.31
627.264	33.31
627.386	29.31
627.508	31.31
627.63	16.31
627.752	29.31
627.874	15.31
627.997	22.31
628.119	28.31
628.241	30.31
628.363	32.31
628.485	6.31
628.607	19.31
628.729	26.31
628.851	15.31
628.973	24.31
629.096	9.31
629.218	27.31
629.34	16.31
629.462	-4.69
629.584	8.31
629.706	21.31
629.828	35.31
629.95	11.31
630.072	10.31
630.195	2.31
630.317	24.31
630.439	3.31
630.561	9.31
630.683	12.31
630.805	37.31
630.927	15.31
631.049	21.31
631.171	13.31
631.293	20.31
631.416	19.31
631.538	20.31
631.66	22.31
631.782	38.31
631.904	41.31
632.026	19.31
632.148	31.31
632.27	28.31
632.392	22.31
632.514	13.31
632.637	11.31
632.759	31.31
632.881	14.31
633.003	26.31
633.125	18.31
633.247	8.31
633.369	19.31
633.491	15.31
633.613	27.31
633.735	6.31
633.858	23.31
633.98	26.31
634.102	-3.69
634.224	15.31
634.346	18.31
634.468	38.31
634.59	21.31
634.712	7.31
634.834	28.31
634.956	6.31
635.078	0.31
635.201	11.31
635.323	7.31
635.445	-2.69
635.567	22.31
635.689	22.31
635.811	16.31
635.933	12.31
636.055	7.31
636.177	20.31
636.299	19.31
636.421	7.31
636.544	-0.69
636.666	12.31
636.788	30.31
636.91	26.31
637.032	16.31
637.154	17.31
637.276	38.31
637.398	9.31
637.52	24.31
637.642	17.31
637.764	11.31
637.887	-3.69
638.009	8.31
638.131	9.31
638.253	7.31
638.375	26.31
638.497	8.31
638.619	10.31
638.741	16.31
638.863	15.31
638.985	0.31
639.107	-8.69
639.23	-0.69
639.352	31.31
639.474	17.31
639.596	18.31
639.718	17.31
639.84	28.31
639.962	10.31
640.084	32.31
640.206	13.31
640.328	8.31
640.45	25.31
640.573	16.31
640.695	14.31
640.817	28.31
640.939	35.31
641.061	12.31
641.183	16.31
641.305	11.31
641.427	8.31
641.549	3.31
641.671	19.31
641.793	4.31
641.915	27.31
642.038	12.31
642.16	7.31
642.282	-12.69
642.404	18.31
642.526	19.31
642.648	17.31
642.77	26.31
642.892	14.31
643.014	22.31
643.136	23.31
643.258	26.31
643.381	43.31
643.503	41.31
643.625	24.31
643.747	0.31
643.869	-2.69
643.991	5.31
644.113	17.31
644.235	8.31
644.357	33.31
644.479	41.31
644.601	26.31
644.723	10.31
644.846	21.31
644.968	24.31
645.09	13.31
645.212	18.31
645.334	9.31
645.456	26.31
645.578	25.31
645.7	27.31
645.822	36.31
645.944	18.31
646.066	17.31
646.188	8.31
646.311	32.31
646.433	14.31
646.555	29.31
646.677	23.31
646.799	4.31
646.921	16.31
647.043	24.31
647.165	9.31
647.287	20.31
647.409	2.31
647.531	20.31
647.654	5.31
647.776	25.31
647.898	27.31
648.02	10.31
648.142	9.31
648.264	1.31
648.386	6.31
648.508	3.31
648.63	12.31
648.752	0.31
648.874	6.31
648.997	20.31
649.119	24.31
649.241	14.31
649.363	40.31
649.485	20.31
649.607	-5.69
649.729	-9.69
649.851	4.31
649.973	17.31
650.095	4.31
650.217	-1.69
650.34	2.31
650.462	28.31
650.584	3.31
650.706	11.31
650.828	23.31
650.95	3.31
651.072	19.31
651.194	12.31
651.316	12.31
651.438	8.31
651.56	10.31
651.683	17.31
651.805	11.31
651.927	10.31
652.049	6.31
652.171	7.31
652.293	11.31
652.415	3.31
652.537	0.31
652.659	-4.69
652.781	18.31
652.903	39.31
653.026	23.31
653.148	16.31
653.27	-3.69
653.392	18.31
653.514	12.31
653.636	16.31
653.758	9.31
653.88	3.31
654.002	5.31
654.124	-0.69
654.247	6.31
654.369	31.31
654.491	2.31
654.613	26.31
654.735	9.31
654.857	31.31
654.979	19.31
655.101	6.31
655.223	30.31
655.345	9.31
655.468	19.31
655.59	14.31
655.712	27.31
655.834	25.31
655.956	8.31
656.078	10.31
656.2	15.31
656.322	18.31
656.444	-6.69
656.566	16.31
656.689	14.31
656.811	2.31
656.933	16.31
657.055	-2.69
657.177	6.31
657.299	0.31
657.421	12.31
657.543	10.31
657.665	4.31
657.787	16.31
657.91	8.31
658.032	2.31
658.154	2.31
658.276	6.31
658.398	-2.69
658.52	10.31
658.642	16.31
658.764	1.31
658.886	-14.69
659.009	20.31
659.131	16.31
659.253	14.31
659.375	22.31
659.497	9.31
659.619	11.31
659.741	17.31
659.863	10.31
659.985	1.31
660.108	34.31
660.23	2.31
660.352	22.31
660.474	28.31
660.596	29.31
660.718	15.31
660.84	15.31
660.962	19.31
661.084	-1.69
661.207	-0.69
661.329	13.31
661.451	7.31
661.573	17.31
661.695	26.31
661.817	22.31
661.939	40.31
662.061	15.31
662.184	0.31
662.306	11.31
662.428	32.31
662.55	25.31
662.672	-1.69
662.794	16.31
662.916	11.31
663.038	19.31
663.161	28.31
663.283	18.31
663.405	22.31
663.527	6.31
663.649	17.31
663.771	6.31
663.893	18.31
664.015	10.31
664.138	16.31
664.26	13.31
664.382	17.31
664.504	2.31
664.626	13.31
664.748	5.31
664.87	12.31
664.992	22.31
665.115	28.31
665.237	19.31
665.359	10.31
665.481	-1.69
665.603	22.31
665.725	0.31
665.847	-1.69
665.97	13.31
666.092	9.31
666.214	34.31
666.336	23.31
666.458	2.31
666.58	16.31
666.702	8.31
666.825	0.31
666.947	4.31
667.069	11.31
667.191	18.31
667.313	20.31
667.435	-6.69
667.557	1.31
667.68	12.31
667.802	6.31
667.924	5.31
668.046	19.31
668.168	24.31
668.29	28.31
668.412	20.31
668.535	28.31
668.657	6.31
668.779	8.31
668.901	27.31
669.023	23.31
669.145	6.31
669.267	29.31
669.39	1.31
669.512	1.31
669.634	25.31
669.756	6.31
669.878	18.31
670	14.31
670.123	5.31
670.245	38.31
670.367	24.31
670.489	15.31
670.611	25.31
670.733	7.31
670.856	6.31
670.978	18.31
671.1	24.31
671.222	22.31
671.344	26.31
671.466	10.31
671.589	6.31
671.711	7.31
671.833	6.31
671.955	12.31
672.077	17.31
672.199	19.31
672.322	34.31
672.444	1.31
672.566	32.31
672.688	22.31
672.81	23.31
672.932	23.31
673.055	2.31
673.177	-12.69
673.299	15.31
673.421	4.31
673.543	-0.69
673.665	31.31
673.788	23.31
673.91	-0.69
674.032	0.31
674.154	11.31
674.276	21.31
674.399	11.31
674.521	10.31
674.643	26.31
674.765	11.31
674.887	25.31
675.009	20.31
675.132	17.31
675.254	2.31
675.376	-14.69
675.498	23.31
675.62	20.31
675.743	12.31
675.865	20.31
675.987	0.31
676.109	10.31
676.231	27.31
676.354	41.31
676.476	23.31
676.598	22.31
676.72	-0.69
676.842	13.31
676.965	8.31
677.087	-10.69
677.209	30.31
677.331	18.31
677.453	14.31
677.576	9.31
677.698	20.31
677.82	28.31
677.942	6.31
678.064	17.31
678.187	9.31
678.309	32.31
678.431	-2.69
678.553	15.31
678.675	42.31
678.798	26.31
678.92	16.31
679.042	12.31
679.164	3.31
679.286	27.31
679.409	16.31
679.531	7.31
679.653	4.31
679.775	1.31
679.898	1.31
680.02	6.31
680.142	18.31
680.264	19.31
680.386	6.31
680.509	11.31
680.631	1.31
680.753	15.31
680.875	8.31
680.998	20.31
681.12	14.31
681.242	28.31
681.364	17.31
681.486	20.31
681.609	10.31
681.731	-0.69
681.853	-1.69
681.975	18.31
682.098	25.31
682.22	22.31
682.342	12.31
682.464	-2.69
682.587	17.31
682.709	14.31
682.831	0.31
682.953	4.31
683.076	20.31
683.198	28.31
683.32	24.31
683.442	25.31
683.565	29.31
683.687	14.31
683.809	11.31
683.931	-4.69
684.054	6.31
684.176	10.31
684.298	7.31
684.42	16.31
684.543	10.31
684.665	16.31
684.787	-1.69
684.909	6.31
685.032	26.31
685.154	-1.69
685.276	27.31
685.398	11.31
685.521	-1.69
685.643	3.31
685.765	1.31
685.887	4.31
686.01	18.31
686.132	15.31
686.254	9.31
686.377	11.31
686.499	14.31
686.621	28.31
686.743	31.31
686.866	8.31
686.988	23.31
687.11	25.31
687.232	18.31
687.355	-9.69
687.477	3.31
687.599	18.31
687.722	11.31
687.844	10.31
687.966	19.31
688.088	14.31
688.211	21.31
688.333	29.31
688.455	31.31
688.578	16.31
688.7	10.31
688.822	12.31
688.944	2.31
689.067	46.31
689.189	16.31
689.311	1.31
689.434	0.31
689.556	5.31
689.678	43.31
689.801	8.31
689.923	15.31
690.045	42.31
690.167	42.31
690.29	42.31
690.412	12.31
690.534	22.31
690.657	16.31
690.779	9.31
690.901	2.31
691.024	0.31
691.146	-9.69
691.268	-11.69
691.391	17.31
691.513	26.31
691.635	16.31
691.758	22.31
691.88	16.31
692.002	-11.69
692.125	4.31
692.247	3.31
692.369	22.31
692.492	-3.69
692.614	2.31
692.736	13.31
692.859	4.31
692.981	6.31
693.103	15.31
693.226	2.31
693.348	37.31
693.47	17.31
693.593	41.31
693.715	37.31
693.837	33.31
693.96	24.31
694.082	16.31
694.204	18.31
694.327	8.31
694.449	-2.69
694.571	11.31
694.694	20.31
694.816	19.31
694.938	10.31
695.061	15.31
695.183	22.31
695.305	15.31
695.428	6.31
695.55	6.31
695.672	-6.69
695.795	24.31
695.917	17.31
696.04	9.31
696.162	6.31
696.284	10.31
696.407	5.31
696.529	31.31
696.651	14.31
696.774	4.31
696.896	28.31
697.019	11.31
697.141	17.31
697.263	15.31
697.386	1.31
697.508	9.31
697.63	28.31
697.753	26.31
697.875	6.31
697.998	-1.69
698.12	8.31
698.242	14.31
698.365	18.31
698.487	10.31
698.61	22.31
698.732	23.31
698.854	18.31
698.977	6.31
699.099	4.31
699.221	0.31
699.344	16.31
699.466	10.31
699.589	30.31
699.711	7.31
699.834	17.31
699.956	22.31
700.078	13.31
700.201	23.31
700.323	20.31
700.446	13.31
700.568	8.31
700.69	10.31
700.813	11.31
700.935	16.31
701.058	11.31
701.18	15.31
701.302	9.31
701.425	12.31
701.547	6.31
701.67	4.31
701.792	16.31
701.915	6.31
702.037	16.31
702.159	12.31
702.282	15.31
702.404	14.31
702.527	26.31
702.649	33.31
702.772	15.31
702.894	14.31
703.017	23.31
703.139	26.31
703.261	31.31
703.384	9.31
703.506	-6.69
703.629	5.31
703.751	22.31
703.874	10.31
703.996	6.31
704.119	-0.69
704.241	14.31
704.364	-3.69
704.486	7.31
704.608	7.31
704.731	1.31
704.853	24.31
704.976	1.31
705.098	15.31
705.221	16.31
705.343	9.31
705.466	12.31
705.588	7.31
705.711	3.31
705.833	11.31
705.956	15.31
706.078	9.31
706.201	13.31
706.323	3.31
706.446	22.31
