Data from LowRes_mercury_15_20_11_07_2024_HR4C61881__47__15-23-36-971.txt Node

Date: Thu Nov 07 15:23:36 EST 2024
User: crc00042
Spectrometer: HR4C6188
Trigger mode: 4
Integration Time (sec): 1.000000E-1
Scans to average: 1
Electric dark correction enabled: true
Nonlinearity correction enabled: false
Boxcar width: 0
XAxis mode: Wavelengths
Number of Pixels in Spectrum: 3648
>>>>>Begin Spectral Data<<<<<
245.66	-69.85
245.797	-69.85
245.934	-69.85
246.071	-58.85
246.208	6.15
246.344	19.15
246.481	-8.85
246.618	-20.85
246.755	2.15
246.892	3.15
247.029	3.15
247.165	-11.85
247.302	10.15
247.439	-2.85
247.576	22.15
247.713	-14.85
247.849	12.15
247.986	-12.85
248.123	-6.85
248.26	10.15
248.396	11.15
248.533	15.15
248.67	-8.85
248.806	0.15
248.943	-25.85
249.08	-10.85
249.216	-17.85
249.353	-6.85
249.49	-5.85
249.626	10.15
249.763	-6.85
249.9	-15.85
250.036	-9.85
250.173	-4.85
250.309	-0.85
250.446	13.15
250.582	-2.85
250.719	3.15
250.856	0.15
250.992	-5.85
251.129	-4.85
251.265	-31.85
251.402	-8.85
251.538	-22.85
251.675	-25.85
251.811	3.15
251.948	15.15
252.084	13.15
252.221	8.15
252.357	-6.85
252.493	12.15
252.63	-1.85
252.766	16.15
252.903	-0.85
253.039	0.15
253.175	4.15
253.312	23.15
253.448	6.15
253.585	-11.85
253.721	7.15
253.857	-10.85
253.994	8.15
254.13	-0.85
254.266	11.15
254.403	-4.85
254.539	-7.85
254.675	8.15
254.811	-9.85
254.948	-19.85
255.084	-25.85
255.22	-1.85
255.356	2.15
255.493	-11.85
255.629	-2.85
255.765	2.15
255.901	5.15
256.037	-4.85
256.174	0.15
256.31	-13.85
256.446	-19.85
256.582	-3.85
256.718	21.15
256.854	8.15
256.991	-6.85
257.127	1.15
257.263	-1.85
257.399	-1.85
257.535	-5.85
257.671	-14.85
257.807	-11.85
257.943	-10.85
258.079	-23.85
258.215	-9.85
258.351	4.15
258.487	-8.85
258.623	15.15
258.759	-3.85
258.895	-3.85
259.031	-8.85
259.167	-13.85
259.303	-5.85
259.439	-29.85
259.575	-5.85
259.711	-1.85
259.847	3.15
259.983	9.15
260.119	-2.85
260.255	-14.85
260.391	9.15
260.527	7.15
260.663	3.15
260.799	19.15
260.934	7.15
261.07	-0.85
261.206	-12.85
261.342	-21.85
261.478	17.15
261.614	12.15
261.749	-1.85
261.885	5.15
262.021	-3.85
262.157	10.15
262.293	-4.85
262.428	-10.85
262.564	0.15
262.7	-9.85
262.836	-10.85
262.971	11.15
263.107	-8.85
263.243	24.15
263.378	10.15
263.514	-11.85
263.65	-3.85
263.785	-12.85
263.921	-3.85
264.057	19.15
264.192	19.15
264.328	9.15
264.464	-7.85
264.599	0.15
264.735	20.15
264.871	-8.85
265.006	-5.85
265.142	-7.85
265.277	11.15
265.413	4.15
265.548	-3.85
265.684	14.15
265.819	6.15
265.955	-6.85
266.091	-13.85
266.226	-8.85
266.362	2.15
266.497	5.15
266.633	-8.85
266.768	-13.85
266.903	21.15
267.039	5.15
267.174	21.15
267.31	-8.85
267.445	-0.85
267.581	-7.85
267.716	-3.85
267.851	5.15
267.987	18.15
268.122	12.15
268.258	-11.85
268.393	-3.85
268.528	25.15
268.664	-1.85
268.799	-10.85
268.934	-6.85
269.07	-16.85
269.205	-11.85
269.34	7.15
269.476	2.15
269.611	-5.85
269.746	22.15
269.881	13.15
270.017	6.15
270.152	13.15
270.287	-2.85
270.422	-5.85
270.558	-2.85
270.693	5.15
270.828	3.15
270.963	9.15
271.098	-3.85
271.234	-11.85
271.369	7.15
271.504	-0.85
271.639	-0.85
271.774	-1.85
271.909	-1.85
272.045	-6.85
272.18	-15.85
272.315	10.15
272.45	18.15
272.585	-9.85
272.72	2.15
272.855	7.15
272.99	8.15
273.125	4.15
273.26	-6.85
273.395	-22.85
273.53	-2.85
273.665	2.15
273.8	8.15
273.935	10.15
274.07	0.15
274.205	9.15
274.34	3.15
274.475	0.15
274.61	13.15
274.745	-10.85
274.88	4.15
275.015	-17.85
275.15	-3.85
275.285	10.15
275.42	9.15
275.555	27.15
275.69	14.15
275.825	8.15
275.959	7.15
276.094	-16.85
276.229	-7.85
276.364	-5.85
276.499	-3.85
276.634	-8.85
276.768	9.15
276.903	-6.85
277.038	30.15
277.173	8.15
277.308	14.15
277.442	-7.85
277.577	5.15
277.712	18.15
277.847	9.15
277.981	-2.85
278.116	-9.85
278.251	6.15
278.386	2.15
278.52	13.15
278.655	11.15
278.79	7.15
278.924	-11.85
279.059	3.15
279.194	-18.85
279.328	25.15
279.463	2.15
279.598	13.15
279.732	11.15
279.867	-6.85
280.001	6.15
280.136	6.15
280.271	8.15
280.405	1.15
280.54	7.15
280.674	-9.85
280.809	-3.85
280.943	11.15
281.078	-12.85
281.213	14.15
281.347	7.15
281.482	12.15
281.616	-5.85
281.751	-4.85
281.885	-6.85
282.02	-10.85
282.154	8.15
282.288	-24.85
282.423	-31.85
282.557	-34.85
282.692	-5.85
282.826	-1.85
282.961	3.15
283.095	3.15
283.229	1.15
283.364	-2.85
283.498	12.15
283.633	-10.85
283.767	2.15
283.901	4.15
284.036	10.15
284.17	-1.85
284.304	-24.85
284.439	-21.85
284.573	-3.85
284.707	31.15
284.842	1.15
284.976	-4.85
285.11	8.15
285.244	18.15
285.379	35.15
285.513	-9.85
285.647	-13.85
285.781	-0.85
285.916	6.15
286.05	11.15
286.184	15.15
286.318	-1.85
286.453	-3.85
286.587	-10.85
286.721	-0.85
286.855	6.15
286.989	22.15
287.123	11.15
287.258	-9.85
287.392	-7.85
287.526	0.15
287.66	2.15
287.794	8.15
287.928	-3.85
288.062	17.15
288.196	-13.85
288.33	-2.85
288.464	13.15
288.598	9.15
288.733	-3.85
288.867	3.15
289.001	-4.85
289.135	-6.85
289.269	-9.85
289.403	2.15
289.537	12.15
289.671	11.15
289.805	-8.85
289.939	-3.85
290.073	-5.85
290.207	13.15
290.34	-9.85
290.474	3.15
290.608	12.15
290.742	3.15
290.876	4.15
291.01	-4.85
291.144	25.15
291.278	22.15
291.412	4.15
291.546	-15.85
291.679	1.15
291.813	5.15
291.947	-4.85
292.081	-2.85
292.215	-1.85
292.349	5.15
292.482	-3.85
292.616	-1.85
292.75	15.15
292.884	9.15
293.018	-4.85
293.151	-18.85
293.285	-0.85
293.419	-19.85
293.553	-11.85
293.686	-2.85
293.82	3.15
293.954	25.15
294.088	35.15
294.221	-16.85
294.355	-4.85
294.489	6.15
294.622	0.15
294.756	14.15
294.89	13.15
295.023	-0.85
295.157	22.15
295.291	-5.85
295.424	-1.85
295.558	-1.85
295.691	2.15
295.825	-7.85
295.959	-12.85
296.092	2.15
296.226	9.15
296.359	7.15
296.493	16.15
296.627	3.15
296.76	17.15
296.894	-9.85
297.027	5.15
297.161	-8.85
297.294	-9.85
297.428	-4.85
297.561	19.15
297.695	-1.85
297.828	-10.85
297.962	-13.85
298.095	-3.85
298.229	-13.85
298.362	-5.85
298.495	6.15
298.629	0.15
298.762	-4.85
298.896	-16.85
299.029	-7.85
299.162	12.15
299.296	4.15
299.429	6.15
299.563	3.15
299.696	4.15
299.829	2.15
299.963	6.15
300.096	23.15
300.229	14.15
300.363	-0.85
300.496	25.15
300.629	-16.85
300.763	7.15
300.896	-1.85
301.029	9.15
301.162	-1.85
301.296	12.15
301.429	3.15
301.562	-23.85
301.695	3.15
301.829	10.15
301.962	12.15
302.095	1.15
302.228	-9.85
302.362	10.15
302.495	-17.85
302.628	1.15
302.761	7.15
302.894	17.15
303.027	13.15
303.161	-16.85
303.294	-18.85
303.427	16.15
303.56	16.15
303.693	5.15
303.826	6.15
303.959	12.15
304.092	5.15
304.225	5.15
304.359	10.15
304.492	10.15
304.625	3.15
304.758	-3.85
304.891	-5.85
305.024	-7.85
305.157	-14.85
305.29	-7.85
305.423	0.15
305.556	1.15
305.689	-5.85
305.822	-3.85
305.955	4.15
306.088	9.15
306.221	14.15
306.354	3.15
306.487	-3.85
306.62	-18.85
306.752	6.15
306.885	12.15
307.018	11.15
307.151	8.15
307.284	24.15
307.417	-4.85
307.55	-8.85
307.683	-7.85
307.816	12.15
307.948	2.15
308.081	14.15
308.214	8.15
308.347	25.15
308.48	-12.85
308.613	0.15
308.745	20.15
308.878	3.15
309.011	0.15
309.144	3.15
309.277	-1.85
309.409	1.15
309.542	14.15
309.675	17.15
309.808	-12.85
309.94	16.15
310.073	-4.85
310.206	-14.85
310.339	3.15
310.471	-25.85
310.604	1.15
310.737	-3.85
310.869	-1.85
311.002	-7.85
311.135	-0.85
311.267	-22.85
311.4	-8.85
311.533	22.15
311.665	-4.85
311.798	-10.85
311.93	-5.85
312.063	26.15
312.196	42.15
312.328	80.15
312.461	47.15
312.593	24.15
312.726	54.15
312.859	92.15
312.991	162.15
313.124	46.15
313.256	11.15
313.389	-0.85
313.521	1.15
313.654	1.15
313.786	-11.85
313.919	-13.85
314.051	-9.85
314.184	13.15
314.316	3.15
314.449	-16.85
314.581	-19.85
314.714	-2.85
314.846	8.15
314.978	-15.85
315.111	-8.85
315.243	16.15
315.376	-5.85
315.508	16.15
315.641	-10.85
315.773	23.15
315.905	14.15
316.038	-3.85
316.17	12.15
316.302	-6.85
316.435	23.15
316.567	-0.85
316.699	4.15
316.832	-1.85
316.964	-5.85
317.096	9.15
317.229	11.15
317.361	-17.85
317.493	-5.85
317.625	-7.85
317.758	5.15
317.89	-0.85
318.022	-4.85
318.155	-1.85
318.287	6.15
318.419	11.15
318.551	-5.85
318.683	-2.85
318.816	1.15
318.948	-9.85
319.08	-5.85
319.212	-4.85
319.344	5.15
319.477	3.15
319.609	-4.85
319.741	17.15
319.873	-1.85
320.005	-5.85
320.137	-8.85
320.269	11.15
320.401	11.15
320.534	10.15
320.666	-7.85
320.798	1.15
320.93	8.15
321.062	-16.85
321.194	-8.85
321.326	-0.85
321.458	-1.85
321.59	3.15
321.722	-2.85
321.854	4.15
321.986	-0.85
322.118	8.15
322.25	-5.85
322.382	-1.85
322.514	8.15
322.646	-25.85
322.778	2.15
322.91	-16.85
323.042	-5.85
323.174	-0.85
323.306	-8.85
323.438	-10.85
323.57	6.15
323.702	-6.85
323.834	-4.85
323.966	-11.85
324.097	-2.85
324.229	28.15
324.361	14.15
324.493	-2.85
324.625	10.15
324.757	7.15
324.889	4.15
325.021	7.15
325.152	5.15
325.284	17.15
325.416	-13.85
325.548	-5.85
325.68	-15.85
325.811	-8.85
325.943	8.15
326.075	-5.85
326.207	-0.85
326.339	-2.85
326.47	-4.85
326.602	13.15
326.734	-1.85
326.866	17.15
326.997	10.15
327.129	9.15
327.261	-10.85
327.392	-11.85
327.524	6.15
327.656	-7.85
327.787	10.15
327.919	8.15
328.051	6.15
328.182	18.15
328.314	9.15
328.446	5.15
328.577	13.15
328.709	8.15
328.841	-9.85
328.972	-10.85
329.104	-3.85
329.235	-20.85
329.367	-30.85
329.499	-9.85
329.63	4.15
329.762	6.15
329.893	1.15
330.025	-12.85
330.156	-9.85
330.288	-6.85
330.419	6.15
330.551	27.15
330.683	-3.85
330.814	15.15
330.946	22.15
331.077	2.15
331.208	-21.85
331.34	-5.85
331.471	-10.85
331.603	-4.85
331.734	-8.85
331.866	16.15
331.997	-2.85
332.129	-5.85
332.26	3.15
332.392	6.15
332.523	-15.85
332.654	-21.85
332.786	8.15
332.917	2.15
333.048	10.15
333.18	17.15
333.311	-9.85
333.443	-4.85
333.574	16.15
333.705	43.15
333.837	38.15
333.968	118.15
334.099	205.15
334.231	204.15
334.362	51.15
334.493	15.15
334.624	15.15
334.756	-0.85
334.887	22.15
335.018	15.15
335.15	29.15
335.281	10.15
335.412	8.15
335.543	13.15
335.675	9.15
335.806	1.15
335.937	-3.85
336.068	7.15
336.199	24.15
336.331	-10.85
336.462	13.15
336.593	8.15
336.724	2.15
336.855	-10.85
336.986	6.15
337.118	12.15
337.249	9.15
337.38	24.15
337.511	7.15
337.642	-5.85
337.773	14.15
337.904	6.15
338.035	5.15
338.166	9.15
338.298	9.15
338.429	-19.85
338.56	38.15
338.691	24.15
338.822	35.15
338.953	39.15
339.084	7.15
339.215	14.15
339.346	17.15
339.477	8.15
339.608	-6.85
339.739	5.15
339.87	-5.85
340.001	18.15
340.132	8.15
340.263	2.15
340.394	17.15
340.525	18.15
340.656	6.15
340.787	-3.85
340.918	18.15
341.049	-7.85
341.179	-0.85
341.31	9.15
341.441	2.15
341.572	6.15
341.703	11.15
341.834	-3.85
341.965	14.15
342.096	5.15
342.227	8.15
342.357	2.15
342.488	10.15
342.619	15.15
342.75	17.15
342.881	6.15
343.012	28.15
343.142	23.15
343.273	6.15
343.404	22.15
343.535	31.15
343.666	33.15
343.796	29.15
343.927	29.15
344.058	27.15
344.189	29.15
344.319	31.15
344.45	23.15
344.581	20.15
344.712	13.15
344.842	18.15
344.973	14.15
345.104	14.15
345.234	4.15
345.365	5.15
345.496	2.15
345.626	39.15
345.757	41.15
345.888	14.15
346.018	15.15
346.149	16.15
346.28	38.15
346.41	15.15
346.541	23.15
346.672	33.15
346.802	42.15
346.933	35.15
347.063	11.15
347.194	12.15
347.325	34.15
347.455	37.15
347.586	35.15
347.716	25.15
347.847	52.15
347.977	20.15
348.108	38.15
348.238	37.15
348.369	37.15
348.499	42.15
348.63	42.15
348.76	39.15
348.891	52.15
349.021	58.15
349.152	47.15
349.282	54.15
349.413	53.15
349.543	46.15
349.674	36.15
349.804	39.15
349.935	17.15
350.065	22.15
350.196	8.15
350.326	25.15
350.456	12.15
350.587	37.15
350.717	18.15
350.848	19.15
350.978	20.15
351.108	14.15
351.239	22.15
351.369	18.15
351.499	12.15
351.63	22.15
351.76	27.15
351.89	6.15
352.021	12.15
352.151	10.15
352.281	12.15
352.412	33.15
352.542	24.15
352.672	6.15
352.803	23.15
352.933	34.15
353.063	22.15
353.193	21.15
353.324	11.15
353.454	24.15
353.584	25.15
353.714	6.15
353.845	9.15
353.975	32.15
354.105	23.15
354.235	34.15
354.365	9.15
354.496	4.15
354.626	21.15
354.756	28.15
354.886	17.15
355.016	26.15
355.146	16.15
355.277	29.15
355.407	35.15
355.537	19.15
355.667	29.15
355.797	11.15
355.927	33.15
356.057	34.15
356.187	15.15
356.318	8.15
356.448	30.15
356.578	25.15
356.708	43.15
356.838	37.15
356.968	18.15
357.098	28.15
357.228	44.15
357.358	21.15
357.488	22.15
357.618	43.15
357.748	18.15
357.878	44.15
358.008	20.15
358.138	22.15
358.268	36.15
358.398	42.15
358.528	9.15
358.658	22.15
358.788	19.15
358.918	31.15
359.048	26.15
359.178	55.15
359.308	28.15
359.438	41.15
359.568	31.15
359.698	40.15
359.827	10.15
359.957	20.15
360.087	19.15
360.217	2.15
360.347	41.15
360.477	39.15
360.607	6.15
360.737	18.15
360.866	9.15
360.996	-5.85
361.126	11.15
361.256	52.15
361.386	39.15
361.516	47.15
361.645	26.15
361.775	36.15
361.905	14.15
362.035	39.15
362.165	45.15
362.294	25.15
362.424	47.15
362.554	42.15
362.684	20.15
362.813	55.15
362.943	42.15
363.073	33.15
363.203	38.15
363.332	78.15
363.462	78.15
363.592	90.15
363.721	98.15
363.851	143.15
363.981	199.15
364.111	223.15
364.24	324.15
364.37	489.15
364.5	851.15
364.629	1796.15
364.759	3822.15
364.888	6175.15
365.018	9207.15
365.148	14729.15
365.277	12819.15
365.407	4681.15
365.537	3047.15
365.666	4028.15
365.796	1806.15
365.925	797.15
366.055	757.15
366.184	991.15
366.314	1373.15
366.444	2458.15
366.573	2080.15
366.703	648.15
366.832	219.15
366.962	113.15
367.091	86.15
367.221	75.15
367.35	48.15
367.48	88.15
367.609	29.15
367.739	49.15
367.868	24.15
367.998	31.15
368.127	50.15
368.257	50.15
368.386	47.15
368.516	56.15
368.645	49.15
368.775	39.15
368.904	23.15
369.033	40.15
369.163	15.15
369.292	40.15
369.422	39.15
369.551	48.15
369.68	42.15
369.81	27.15
369.939	22.15
370.069	43.15
370.198	40.15
370.327	40.15
370.457	34.15
370.586	47.15
370.715	28.15
370.845	41.15
370.974	37.15
371.103	63.15
371.233	50.15
371.362	53.15
371.491	29.15
371.621	49.15
371.75	45.15
371.879	43.15
372.008	55.15
372.138	53.15
372.267	67.15
372.396	53.15
372.525	42.15
372.655	30.15
372.784	26.15
372.913	19.15
373.042	19.15
373.172	40.15
373.301	-3.85
373.43	12.15
373.559	14.15
373.688	26.15
373.818	17.15
373.947	36.15
374.076	13.15
374.205	26.15
374.334	30.15
374.463	14.15
374.593	36.15
374.722	34.15
374.851	34.15
374.98	32.15
375.109	13.15
375.238	26.15
375.367	30.15
375.496	-4.85
375.625	29.15
375.755	25.15
375.884	31.15
376.013	30.15
376.142	19.15
376.271	13.15
376.4	10.15
376.529	7.15
376.658	30.15
376.787	25.15
376.916	22.15
377.045	-3.85
377.174	7.15
377.303	22.15
377.432	47.15
377.561	33.15
377.69	24.15
377.819	30.15
377.948	29.15
378.077	-0.85
378.206	15.15
378.335	19.15
378.464	18.15
378.593	38.15
378.722	22.15
378.851	13.15
378.98	18.15
379.108	5.15
379.237	9.15
379.366	11.15
379.495	18.15
379.624	22.15
379.753	8.15
379.882	17.15
380.011	10.15
380.14	-1.85
380.268	18.15
380.397	15.15
380.526	34.15
380.655	12.15
380.784	-1.85
380.913	3.15
381.041	13.15
381.17	3.15
381.299	18.15
381.428	25.15
381.557	19.15
381.685	10.15
381.814	16.15
381.943	7.15
382.072	15.15
382.2	3.15
382.329	2.15
382.458	11.15
382.587	20.15
382.715	30.15
382.844	6.15
382.973	20.15
383.102	28.15
383.23	24.15
383.359	-3.85
383.488	7.15
383.616	6.15
383.745	-1.85
383.874	10.15
384.003	33.15
384.131	5.15
384.26	25.15
384.389	26.15
384.517	-14.85
384.646	-12.85
384.774	3.15
384.903	18.15
385.032	18.15
385.16	20.15
385.289	25.15
385.418	25.15
385.546	20.15
385.675	47.15
385.803	13.15
385.932	23.15
386.06	10.15
386.189	15.15
386.318	36.15
386.446	17.15
386.575	19.15
386.703	25.15
386.832	22.15
386.96	4.15
387.089	6.15
387.217	23.15
387.346	17.15
387.474	27.15
387.603	16.15
387.731	11.15
387.86	21.15
387.988	21.15
388.117	30.15
388.245	22.15
388.374	0.15
388.502	35.15
388.631	2.15
388.759	12.15
388.888	17.15
389.016	23.15
389.144	20.15
389.273	7.15
389.401	13.15
389.53	-3.85
389.658	43.15
389.786	11.15
389.915	6.15
390.043	7.15
390.172	8.15
390.3	42.15
390.428	25.15
390.557	33.15
390.685	38.15
390.813	57.15
390.942	53.15
391.07	36.15
391.198	13.15
391.327	9.15
391.455	14.15
391.583	38.15
391.712	14.15
391.84	18.15
391.968	29.15
392.096	19.15
392.225	5.15
392.353	21.15
392.481	15.15
392.609	31.15
392.738	29.15
392.866	33.15
392.994	14.15
393.122	48.15
393.251	10.15
393.379	29.15
393.507	8.15
393.635	17.15
393.764	11.15
393.892	18.15
394.02	17.15
394.148	31.15
394.276	18.15
394.404	24.15
394.533	20.15
394.661	22.15
394.789	27.15
394.917	32.15
395.045	27.15
395.173	8.15
395.302	13.15
395.43	22.15
395.558	45.15
395.686	46.15
395.814	37.15
395.942	16.15
396.07	24.15
396.198	34.15
396.326	31.15
396.454	43.15
396.582	42.15
396.711	7.15
396.839	33.15
396.967	27.15
397.095	19.15
397.223	20.15
397.351	50.15
397.479	28.15
397.607	20.15
397.735	53.15
397.863	61.15
397.991	46.15
398.119	37.15
398.247	54.15
398.375	46.15
398.503	44.15
398.631	51.15
398.759	63.15
398.887	36.15
399.015	54.15
399.143	47.15
399.271	65.15
399.399	57.15
399.526	88.15
399.654	77.15
399.782	41.15
399.91	102.15
400.038	96.15
400.166	75.15
400.294	89.15
400.422	58.15
400.55	99.15
400.678	116.15
400.805	121.15
400.933	103.15
401.061	114.15
401.189	117.15
401.317	144.15
401.445	117.15
401.573	75.15
401.7	57.15
401.828	47.15
401.956	46.15
402.084	43.15
402.212	39.15
402.34	19.15
402.467	35.15
402.595	60.15
402.723	35.15
402.851	79.15
402.978	51.15
403.106	72.15
403.234	76.15
403.362	111.15
403.489	117.15
403.617	134.15
403.745	193.15
403.873	273.15
404	529.15
404.128	1422.15
404.256	3860.15
404.384	5003.15
404.511	5412.15
404.639	7134.15
404.767	11241.15
404.894	14515.15
405.022	4852.15
405.15	1282.15
405.277	413.15
405.405	230.15
405.533	115.15
405.66	89.15
405.788	33.15
405.916	48.15
406.043	26.15
406.171	63.15
406.299	49.15
406.426	58.15
406.554	49.15
406.681	49.15
406.809	36.15
406.937	49.15
407.064	59.15
407.192	144.15
407.319	302.15
407.447	501.15
407.574	516.15
407.702	641.15
407.83	829.15
407.957	1587.15
408.085	905.15
408.212	247.15
408.34	83.15
408.467	40.15
408.595	28.15
408.722	55.15
408.85	52.15
408.977	19.15
409.105	23.15
409.232	34.15
409.36	35.15
409.487	37.15
409.615	22.15
409.742	35.15
409.87	37.15
409.997	35.15
410.125	32.15
410.252	45.15
410.379	38.15
410.507	39.15
410.634	28.15
410.762	18.15
410.889	43.15
411.017	33.15
411.144	18.15
411.271	10.15
411.399	17.15
411.526	26.15
411.653	36.15
411.781	39.15
411.908	3.15
412.036	22.15
412.163	35.15
412.29	39.15
412.418	14.15
412.545	28.15
412.672	10.15
412.8	43.15
412.927	28.15
413.054	39.15
413.182	22.15
413.309	25.15
413.436	3.15
413.564	21.15
413.691	24.15
413.818	31.15
413.945	11.15
414.073	21.15
414.2	23.15
414.327	46.15
414.454	42.15
414.582	31.15
414.709	19.15
414.836	25.15
414.963	9.15
415.091	26.15
415.218	25.15
415.345	25.15
415.472	26.15
415.6	15.15
415.727	30.15
415.854	25.15
415.981	29.15
416.108	32.15
416.236	11.15
416.363	33.15
416.49	10.15
416.617	17.15
416.744	37.15
416.871	52.15
416.998	34.15
417.126	20.15
417.253	9.15
417.38	36.15
417.507	29.15
417.634	48.15
417.761	42.15
417.888	40.15
418.015	18.15
418.143	55.15
418.27	53.15
418.397	30.15
418.524	33.15
418.651	21.15
418.778	32.15
418.905	48.15
419.032	43.15
419.159	30.15
419.286	49.15
419.413	51.15
419.54	60.15
419.667	27.15
419.794	43.15
419.921	58.15
420.048	78.15
420.175	51.15
420.302	42.15
420.429	45.15
420.556	50.15
420.683	46.15
420.81	33.15
420.937	52.15
421.064	59.15
421.191	55.15
421.318	90.15
421.445	58.15
421.572	43.15
421.699	48.15
421.826	40.15
421.953	34.15
422.08	30.15
422.207	5.15
422.334	10.15
422.461	34.15
422.588	30.15
422.714	5.15
422.841	50.15
422.968	29.15
423.095	22.15
423.222	22.15
423.349	20.15
423.476	24.15
423.603	10.15
423.729	5.15
423.856	21.15
423.983	23.15
424.11	-2.85
424.237	14.15
424.364	3.15
424.491	15.15
424.617	7.15
424.744	21.15
424.871	22.15
424.998	5.15
425.125	26.15
425.251	30.15
425.378	5.15
425.505	20.15
425.632	21.15
425.758	12.15
425.885	20.15
426.012	14.15
426.139	25.15
426.266	18.15
426.392	33.15
426.519	24.15
426.646	10.15
426.772	28.15
426.899	19.15
427.026	18.15
427.153	19.15
427.279	30.15
427.406	5.15
427.533	5.15
427.659	11.15
427.786	17.15
427.913	37.15
428.039	8.15
428.166	13.15
428.293	25.15
428.419	49.15
428.546	26.15
428.673	33.15
428.799	0.15
428.926	26.15
429.053	39.15
429.179	37.15
429.306	15.15
429.433	43.15
429.559	35.15
429.686	23.15
429.812	10.15
429.939	16.15
430.066	29.15
430.192	33.15
430.319	24.15
430.445	19.15
430.572	31.15
430.699	26.15
430.825	18.15
430.952	30.15
431.078	47.15
431.205	39.15
431.331	40.15
431.458	37.15
431.584	7.15
431.711	21.15
431.837	19.15
431.964	24.15
432.09	24.15
432.217	14.15
432.343	13.15
432.47	32.15
432.596	17.15
432.723	13.15
432.849	13.15
432.976	32.15
433.102	24.15
433.229	33.15
433.355	50.15
433.482	90.15
433.608	91.15
433.735	103.15
433.861	105.15
433.987	159.15
434.114	185.15
434.24	172.15
434.367	203.15
434.493	215.15
434.62	266.15
434.746	371.15
434.872	608.15
434.999	809.15
435.125	1662.15
435.252	5431.15
435.378	13281.15
435.504	15141.15
435.631	15333.15
435.757	15680.15
435.883	15680.15
436.01	15680.15
436.136	15680.15
436.262	15680.15
436.389	3394.15
436.515	1903.15
436.641	771.15
436.768	619.15
436.894	388.15
437.02	368.15
437.147	279.15
437.273	263.15
437.399	191.15
437.526	230.15
437.652	162.15
437.778	180.15
437.904	123.15
438.031	153.15
438.157	134.15
438.283	146.15
438.409	109.15
438.536	110.15
438.662	112.15
438.788	124.15
438.914	99.15
439.041	91.15
439.167	124.15
439.293	101.15
439.419	86.15
439.546	98.15
439.672	87.15
439.798	96.15
439.924	81.15
440.05	86.15
440.177	70.15
440.303	90.15
440.429	58.15
440.555	70.15
440.681	46.15
440.807	65.15
440.934	45.15
441.06	57.15
441.186	52.15
441.312	69.15
441.438	67.15
441.564	66.15
441.69	59.15
441.816	50.15
441.943	47.15
442.069	70.15
442.195	59.15
442.321	51.15
442.447	37.15
442.573	41.15
442.699	33.15
442.825	60.15
442.951	59.15
443.077	62.15
443.203	51.15
443.33	35.15
443.456	32.15
443.582	40.15
443.708	49.15
443.834	49.15
443.96	39.15
444.086	39.15
444.212	57.15
444.338	53.15
444.464	57.15
444.59	29.15
444.716	30.15
444.842	44.15
444.968	31.15
445.094	50.15
445.22	26.15
445.346	29.15
445.472	46.15
445.598	54.15
445.724	14.15
445.85	39.15
445.976	27.15
446.102	43.15
446.228	46.15
446.354	40.15
446.48	27.15
446.605	3.15
446.731	24.15
446.857	25.15
446.983	32.15
447.109	11.15
447.235	34.15
447.361	25.15
447.487	34.15
447.613	33.15
447.739	12.15
447.865	20.15
447.99	32.15
448.116	32.15
448.242	33.15
448.368	22.15
448.494	31.15
448.62	44.15
448.746	28.15
448.872	16.15
448.997	18.15
449.123	37.15
449.249	37.15
449.375	52.15
449.501	4.15
449.627	9.15
449.752	33.15
449.878	7.15
450.004	21.15
450.13	40.15
450.256	27.15
450.381	30.15
450.507	30.15
450.633	29.15
450.759	40.15
450.884	11.15
451.01	26.15
451.136	-3.85
451.262	24.15
451.388	31.15
451.513	28.15
451.639	43.15
451.765	18.15
451.89	35.15
452.016	29.15
452.142	25.15
452.268	37.15
452.393	35.15
452.519	14.15
452.645	28.15
452.771	18.15
452.896	28.15
453.022	8.15
453.148	56.15
453.273	45.15
453.399	19.15
453.525	9.15
453.65	22.15
453.776	25.15
453.902	35.15
454.027	43.15
454.153	32.15
454.279	21.15
454.404	28.15
454.53	26.15
454.656	53.15
454.781	22.15
454.907	12.15
455.032	20.15
455.158	43.15
455.284	38.15
455.409	17.15
455.535	30.15
455.66	25.15
455.786	20.15
455.912	22.15
456.037	9.15
456.163	18.15
456.288	17.15
456.414	6.15
456.539	12.15
456.665	27.15
456.791	17.15
456.916	27.15
457.042	38.15
457.167	13.15
457.293	19.15
457.418	24.15
457.544	15.15
457.669	19.15
457.795	7.15
457.92	18.15
458.046	27.15
458.171	20.15
458.297	15.15
458.422	-5.85
458.548	21.15
458.673	37.15
458.799	30.15
458.924	-1.85
459.05	25.15
459.175	17.15
459.301	31.15
459.426	39.15
459.552	31.15
459.677	9.15
459.803	34.15
459.928	38.15
460.053	30.15
460.179	17.15
460.304	19.15
460.43	8.15
460.555	5.15
460.681	28.15
460.806	20.15
460.931	15.15
461.057	35.15
461.182	17.15
461.308	28.15
461.433	38.15
461.558	-8.85
461.684	26.15
461.809	17.15
461.934	22.15
462.06	32.15
462.185	11.15
462.311	37.15
462.436	30.15
462.561	13.15
462.687	39.15
462.812	18.15
462.937	12.15
463.063	20.15
463.188	14.15
463.313	36.15
463.439	15.15
463.564	15.15
463.689	26.15
463.814	15.15
463.94	4.15
464.065	28.15
464.19	34.15
464.316	12.15
464.441	19.15
464.566	22.15
464.692	13.15
464.817	18.15
464.942	9.15
465.067	26.15
465.193	2.15
465.318	19.15
465.443	34.15
465.568	22.15
465.694	30.15
465.819	29.15
465.944	9.15
466.069	26.15
466.194	23.15
466.32	43.15
466.445	42.15
466.57	30.15
466.695	26.15
466.82	34.15
466.946	36.15
467.071	27.15
467.196	7.15
467.321	31.15
467.446	31.15
467.572	25.15
467.697	17.15
467.822	28.15
467.947	47.15
468.072	23.15
468.197	24.15
468.323	29.15
468.448	33.15
468.573	2.15
468.698	14.15
468.823	30.15
468.948	47.15
469.073	26.15
469.198	36.15
469.324	39.15
469.449	22.15
469.574	46.15
469.699	29.15
469.824	49.15
469.949	25.15
470.074	27.15
470.199	67.15
470.324	41.15
470.449	44.15
470.574	23.15
470.7	28.15
470.825	45.15
470.95	48.15
471.075	31.15
471.2	37.15
471.325	41.15
471.45	32.15
471.575	26.15
471.7	28.15
471.825	17.15
471.95	19.15
472.075	17.15
472.2	36.15
472.325	22.15
472.45	29.15
472.575	15.15
472.7	22.15
472.825	40.15
472.95	35.15
473.075	30.15
473.2	6.15
473.325	32.15
473.45	44.15
473.575	48.15
473.7	51.15
473.825	24.15
473.95	42.15
474.075	31.15
474.2	18.15
474.325	28.15
474.45	46.15
474.574	4.15
474.699	22.15
474.824	21.15
474.949	20.15
475.074	13.15
475.199	26.15
475.324	17.15
475.449	19.15
475.574	38.15
475.699	12.15
475.824	1.15
475.949	-5.85
476.073	10.15
476.198	9.15
476.323	8.15
476.448	24.15
476.573	13.15
476.698	22.15
476.823	21.15
476.947	23.15
477.072	33.15
477.197	23.15
477.322	13.15
477.447	7.15
477.572	31.15
477.697	31.15
477.821	15.15
477.946	33.15
478.071	31.15
478.196	27.15
478.321	22.15
478.445	10.15
478.57	14.15
478.695	11.15
478.82	20.15
478.945	21.15
479.069	10.15
479.194	24.15
479.319	16.15
479.444	22.15
479.569	10.15
479.693	26.15
479.818	30.15
479.943	28.15
480.068	25.15
480.192	21.15
480.317	22.15
480.442	25.15
480.567	8.15
480.691	13.15
480.816	13.15
480.941	1.15
481.066	14.15
481.19	27.15
481.315	20.15
481.44	3.15
481.564	18.15
481.689	29.15
481.814	20.15
481.938	18.15
482.063	15.15
482.188	7.15
482.313	17.15
482.437	20.15
482.562	21.15
482.687	18.15
482.811	23.15
482.936	16.15
483.061	13.15
483.185	30.15
483.31	20.15
483.435	14.15
483.559	1.15
483.684	12.15
483.808	40.15
483.933	12.15
484.058	22.15
484.182	25.15
484.307	25.15
484.432	32.15
484.556	21.15
484.681	7.15
484.805	19.15
484.93	29.15
485.055	19.15
485.179	45.15
485.304	35.15
485.428	30.15
485.553	17.15
485.678	27.15
485.802	17.15
485.927	21.15
486.051	27.15
486.176	24.15
486.3	19.15
486.425	27.15
486.549	27.15
486.674	21.15
486.799	19.15
486.923	1.15
487.048	12.15
487.172	12.15
487.297	9.15
487.421	21.15
487.546	18.15
487.67	31.15
487.795	19.15
487.919	26.15
488.044	26.15
488.168	32.15
488.293	17.15
488.417	15.15
488.542	29.15
488.666	28.15
488.791	27.15
488.915	31.15
489.04	19.15
489.164	18.15
489.289	29.15
489.413	15.15
489.538	32.15
489.662	18.15
489.786	-2.85
489.911	24.15
490.035	20.15
490.16	20.15
490.284	0.15
490.409	1.15
490.533	17.15
490.658	42.15
490.782	32.15
490.906	44.15
491.031	100.15
491.155	158.15
491.28	133.15
491.404	152.15
491.528	246.15
491.653	147.15
491.777	80.15
491.902	25.15
492.026	24.15
492.15	26.15
492.275	41.15
492.399	36.15
492.524	10.15
492.648	43.15
492.772	35.15
492.897	29.15
493.021	23.15
493.145	46.15
493.27	15.15
493.394	15.15
493.518	6.15
493.643	9.15
493.767	34.15
493.891	11.15
494.016	13.15
494.14	25.15
494.264	47.15
494.389	38.15
494.513	-2.85
494.637	11.15
494.762	23.15
494.886	31.15
495.01	15.15
495.134	-2.85
495.259	22.15
495.383	17.15
495.507	19.15
495.632	22.15
495.756	45.15
495.88	23.15
496.004	9.15
496.129	8.15
496.253	19.15
496.377	10.15
496.501	36.15
496.626	7.15
496.75	18.15
496.874	18.15
496.998	4.15
497.123	23.15
497.247	0.15
497.371	19.15
497.495	18.15
497.62	10.15
497.744	23.15
497.868	17.15
497.992	23.15
498.116	19.15
498.241	23.15
498.365	12.15
498.489	14.15
498.613	41.15
498.737	22.15
498.862	5.15
498.986	4.15
499.11	19.15
499.234	13.15
499.358	12.15
499.482	9.15
499.607	22.15
499.731	27.15
499.855	6.15
499.979	11.15
500.103	6.15
500.227	24.15
500.351	22.15
500.476	10.15
500.6	24.15
500.724	26.15
500.848	21.15
500.972	29.15
501.096	21.15
501.22	32.15
501.344	19.15
501.469	13.15
501.593	23.15
501.717	17.15
501.841	20.15
501.965	15.15
502.089	22.15
502.213	22.15
502.337	24.15
502.461	19.15
502.585	24.15
502.709	10.15
502.834	9.15
502.958	20.15
503.082	26.15
503.206	13.15
503.33	33.15
503.454	33.15
503.578	19.15
503.702	18.15
503.826	26.15
503.95	27.15
504.074	21.15
504.198	8.15
504.322	-10.85
504.446	2.15
504.57	25.15
504.694	18.15
504.818	9.15
504.942	39.15
505.066	10.15
505.19	16.15
505.314	31.15
505.438	18.15
505.562	9.15
505.686	20.15
505.81	27.15
505.934	25.15
506.058	18.15
506.182	24.15
506.306	18.15
506.43	14.15
506.554	17.15
506.678	15.15
506.802	18.15
506.926	21.15
507.05	19.15
507.174	19.15
507.298	28.15
507.422	43.15
507.546	25.15
507.67	34.15
507.794	-3.85
507.918	23.15
508.042	31.15
508.165	11.15
508.289	21.15
508.413	15.15
508.537	31.15
508.661	30.15
508.785	23.15
508.909	38.15
509.033	28.15
509.157	28.15
509.281	29.15
509.405	39.15
509.528	49.15
509.652	41.15
509.776	38.15
509.9	38.15
510.024	21.15
510.148	29.15
510.272	32.15
510.396	4.15
510.519	19.15
510.643	44.15
510.767	45.15
510.891	34.15
511.015	31.15
511.139	46.15
511.263	58.15
511.386	42.15
511.51	37.15
511.634	44.15
511.758	35.15
511.882	31.15
512.006	42.15
512.129	47.15
512.253	83.15
512.377	75.15
512.501	89.15
512.625	83.15
512.748	77.15
512.872	72.15
512.996	46.15
513.12	56.15
513.244	45.15
513.367	70.15
513.491	84.15
513.615	72.15
513.739	55.15
513.862	61.15
513.986	80.15
514.11	94.15
514.234	92.15
514.358	108.15
514.481	103.15
514.605	114.15
514.729	98.15
514.853	132.15
514.976	116.15
515.1	93.15
515.224	87.15
515.348	99.15
515.471	84.15
515.595	97.15
515.719	134.15
515.842	213.15
515.966	258.15
516.09	281.15
516.214	282.15
516.337	324.15
516.461	216.15
516.585	89.15
516.708	51.15
516.832	24.15
516.956	31.15
517.08	29.15
517.203	13.15
517.327	9.15
517.451	20.15
517.574	35.15
517.698	5.15
517.822	23.15
517.945	35.15
518.069	15.15
518.193	41.15
518.316	20.15
518.44	14.15
518.564	18.15
518.687	7.15
518.811	6.15
518.935	32.15
519.058	-8.85
519.182	19.15
519.306	7.15
519.429	5.15
519.553	59.15
519.676	21.15
519.8	23.15
519.924	5.15
520.047	0.15
520.171	19.15
520.294	14.15
520.418	16.15
520.542	7.15
520.665	34.15
520.789	13.15
520.913	14.15
521.036	-2.85
521.16	6.15
521.283	17.15
521.407	5.15
521.53	24.15
521.654	4.15
521.778	39.15
521.901	5.15
522.025	17.15
522.148	4.15
522.272	7.15
522.395	7.15
522.519	28.15
522.643	22.15
522.766	9.15
522.89	33.15
523.013	23.15
523.137	-13.85
523.26	-1.85
523.384	14.15
523.507	20.15
523.631	6.15
523.754	7.15
523.878	13.15
524.002	42.15
524.125	31.15
524.249	0.15
524.372	30.15
524.496	21.15
524.619	30.15
524.743	29.15
524.866	8.15
524.99	20.15
525.113	11.15
525.237	12.15
525.36	21.15
525.484	10.15
525.607	3.15
525.731	-8.85
525.854	21.15
525.978	44.15
526.101	27.15
526.224	13.15
526.348	13.15
526.471	14.15
526.595	23.15
526.718	12.15
526.842	1.15
526.965	22.15
527.089	8.15
527.212	16.15
527.336	19.15
527.459	22.15
527.582	17.15
527.706	35.15
527.829	8.15
527.953	22.15
528.076	14.15
528.2	1.15
528.323	19.15
528.446	24.15
528.57	14.15
528.693	20.15
528.817	-0.85
528.94	23.15
529.064	28.15
529.187	5.15
529.31	-0.85
529.434	3.15
529.557	18.15
529.68	10.15
529.804	26.15
529.927	9.15
530.051	13.15
530.174	36.15
530.297	25.15
530.421	25.15
530.544	27.15
530.668	14.15
530.791	2.15
530.914	26.15
531.038	7.15
531.161	5.15
531.284	25.15
531.408	19.15
531.531	22.15
531.654	10.15
531.778	17.15
531.901	5.15
532.024	25.15
532.148	16.15
532.271	-1.85
532.394	30.15
532.518	15.15
532.641	23.15
532.764	24.15
532.888	8.15
533.011	-6.85
533.134	12.15
533.258	36.15
533.381	-0.85
533.504	-2.85
533.628	15.15
533.751	21.15
533.874	5.15
533.997	26.15
534.121	14.15
534.244	20.15
534.367	12.15
534.491	0.15
534.614	9.15
534.737	16.15
534.86	16.15
534.984	0.15
535.107	11.15
535.23	11.15
535.354	7.15
535.477	2.15
535.6	27.15
535.723	25.15
535.847	10.15
535.97	12.15
536.093	19.15
536.216	17.15
536.34	12.15
536.463	-11.85
536.586	16.15
536.709	12.15
536.833	14.15
536.956	3.15
537.079	3.15
537.202	25.15
537.325	15.15
537.449	2.15
537.572	23.15
537.695	20.15
537.818	9.15
537.941	19.15
538.065	1.15
538.188	6.15
538.311	20.15
538.434	37.15
538.558	14.15
538.681	25.15
538.804	15.15
538.927	25.15
539.05	21.15
539.173	8.15
539.297	6.15
539.42	14.15
539.543	20.15
539.666	29.15
539.789	40.15
539.913	22.15
540.036	21.15
540.159	22.15
540.282	13.15
540.405	-1.85
540.528	23.15
540.651	34.15
540.775	23.15
540.898	14.15
541.021	15.15
541.144	20.15
541.267	41.15
541.39	23.15
541.513	16.15
541.637	5.15
541.76	25.15
541.883	37.15
542.006	53.15
542.129	35.15
542.252	33.15
542.375	34.15
542.498	31.15
542.622	39.15
542.745	37.15
542.868	39.15
542.991	46.15
543.114	51.15
543.237	51.15
543.36	61.15
543.483	55.15
543.606	66.15
543.73	63.15
543.853	75.15
543.976	74.15
544.099	92.15
544.222	117.15
544.345	133.15
544.468	167.15
544.591	207.15
544.714	258.15
544.837	341.15
544.96	442.15
545.083	638.15
545.206	1066.15
545.329	2411.15
545.453	10834.15
545.576	15233.15
545.699	15680.15
545.822	15680.15
545.945	15680.15
546.068	15680.15
546.191	15680.15
546.314	15680.15
546.437	15680.15
546.56	15680.15
546.683	15680.15
546.806	15680.15
546.929	15680.15
547.052	15680.15
547.175	15680.15
547.298	15680.15
547.421	15680.15
547.544	15680.15
547.667	3431.15
547.79	1695.15
547.913	897.15
548.036	825.15
548.159	593.15
548.282	576.15
548.405	468.15
548.528	471.15
548.651	397.15
548.774	405.15
548.897	336.15
549.02	364.15
549.143	297.15
549.266	299.15
549.389	257.15
549.512	230.15
549.635	250.15
549.758	263.15
549.881	184.15
550.004	194.15
550.127	170.15
550.25	191.15
550.373	160.15
550.496	182.15
550.619	174.15
550.742	148.15
550.865	142.15
550.988	180.15
551.111	151.15
551.234	150.15
551.356	117.15
551.479	127.15
551.602	132.15
551.725	118.15
551.848	117.15
551.971	134.15
552.094	133.15
552.217	113.15
552.34	117.15
552.463	102.15
552.586	101.15
552.709	98.15
552.832	113.15
552.955	108.15
553.077	114.15
553.2	99.15
553.323	91.15
553.446	99.15
553.569	103.15
553.692	94.15
553.815	76.15
553.938	95.15
554.061	92.15
554.184	93.15
554.306	76.15
554.429	94.15
554.552	79.15
554.675	60.15
554.798	60.15
554.921	73.15
555.044	74.15
555.167	66.15
555.29	62.15
555.412	72.15
555.535	65.15
555.658	76.15
555.781	67.15
555.904	73.15
556.027	83.15
556.15	74.15
556.272	70.15
556.395	74.15
556.518	63.15
556.641	65.15
556.764	66.15
556.887	79.15
557.01	69.15
557.132	65.15
557.255	66.15
557.378	57.15
557.501	55.15
557.624	52.15
557.747	69.15
557.869	70.15
557.992	91.15
558.115	113.15
558.238	71.15
558.361	93.15
558.483	104.15
558.606	79.15
558.729	30.15
558.852	65.15
558.975	78.15
559.098	69.15
559.22	46.15
559.343	58.15
559.466	59.15
559.589	44.15
559.712	46.15
559.834	45.15
559.957	37.15
560.08	50.15
560.203	68.15
560.325	69.15
560.448	61.15
560.571	38.15
560.694	35.15
560.817	70.15
560.939	48.15
561.062	41.15
561.185	45.15
561.308	48.15
561.43	31.15
561.553	61.15
561.676	66.15
561.799	44.15
561.921	55.15
562.044	72.15
562.167	51.15
562.29	61.15
562.413	72.15
562.535	66.15
562.658	47.15
562.781	48.15
562.903	50.15
563.026	78.15
563.149	115.15
563.272	111.15
563.394	92.15
563.517	93.15
563.64	65.15
563.763	41.15
563.885	50.15
564.008	47.15
564.131	36.15
564.254	30.15
564.376	28.15
564.499	32.15
564.622	25.15
564.744	15.15
564.867	21.15
564.99	27.15
565.113	33.15
565.235	24.15
565.358	30.15
565.481	33.15
565.603	34.15
565.726	43.15
565.849	44.15
565.971	46.15
566.094	53.15
566.217	41.15
566.34	29.15
566.462	28.15
566.585	42.15
566.708	51.15
566.83	35.15
566.953	45.15
567.076	49.15
567.198	18.15
567.321	9.15
567.444	40.15
567.566	41.15
567.689	41.15
567.812	14.15
567.934	36.15
568.057	41.15
568.18	33.15
568.302	26.15
568.425	11.15
568.548	22.15
568.67	35.15
568.793	22.15
568.916	29.15
569.038	17.15
569.161	51.15
569.283	30.15
569.406	34.15
569.529	31.15
569.651	22.15
569.774	27.15
569.897	16.15
570.019	47.15
570.142	40.15
570.265	38.15
570.387	29.15
570.51	44.15
570.632	38.15
570.755	22.15
570.878	23.15
571	15.15
571.123	30.15
571.246	63.15
571.368	28.15
571.491	18.15
571.613	19.15
571.736	32.15
571.859	32.15
571.981	17.15
572.104	32.15
572.226	38.15
572.349	27.15
572.472	34.15
572.594	28.15
572.717	23.15
572.839	26.15
572.962	4.15
573.085	34.15
573.207	28.15
573.33	14.15
573.452	42.15
573.575	27.15
573.697	31.15
573.82	43.15
573.943	29.15
574.065	29.15
574.188	32.15
574.31	49.15
574.433	46.15
574.555	49.15
574.678	25.15
574.801	38.15
574.923	38.15
575.046	39.15
575.168	30.15
575.291	17.15
575.413	38.15
575.536	31.15
575.659	55.15
575.781	37.15
575.904	43.15
576.026	68.15
576.149	75.15
576.271	140.15
576.394	208.15
576.516	515.15
576.639	3562.15
576.761	9972.15
576.884	8650.15
577.007	8620.15
577.129	7877.15
577.252	3679.15
577.374	1297.15
577.497	503.15
577.619	266.15
577.742	177.15
577.864	141.15
577.987	142.15
578.109	123.15
578.232	119.15
578.354	151.15
578.477	185.15
578.599	378.15
578.722	1918.15
578.844	8973.15
578.967	9664.15
579.089	8578.15
579.212	8961.15
579.334	5192.15
579.457	1871.15
579.579	697.15
579.702	312.15
579.824	198.15
579.947	116.15
580.069	104.15
580.192	79.15
580.314	80.15
580.437	62.15
580.559	95.15
580.682	50.15
580.804	59.15
580.927	74.15
581.049	68.15
581.172	42.15
581.294	56.15
581.417	49.15
581.539	39.15
581.662	43.15
581.784	36.15
581.907	40.15
582.029	51.15
582.152	24.15
582.274	48.15
582.396	48.15
582.519	48.15
582.641	42.15
582.764	37.15
582.886	42.15
583.009	31.15
583.131	26.15
583.254	54.15
583.376	43.15
583.499	49.15
583.621	43.15
583.743	38.15
583.866	28.15
583.988	37.15
584.111	18.15
584.233	12.15
584.356	38.15
584.478	41.15
584.601	19.15
584.723	16.15
584.845	28.15
584.968	25.15
585.09	31.15
585.213	39.15
585.335	11.15
585.458	41.15
585.58	29.15
585.702	39.15
585.825	25.15
585.947	37.15
586.07	10.15
586.192	22.15
586.315	32.15
586.437	17.15
586.559	22.15
586.682	11.15
586.804	29.15
586.927	26.15
587.049	10.15
587.171	29.15
587.294	41.15
587.416	50.15
587.539	30.15
587.661	24.15
587.783	29.15
587.906	35.15
588.028	29.15
588.151	33.15
588.273	44.15
588.395	35.15
588.518	27.15
588.64	27.15
588.763	32.15
588.885	34.15
589.007	24.15
589.13	1.15
589.252	3.15
589.375	26.15
589.497	29.15
589.619	41.15
589.742	26.15
589.864	35.15
589.986	34.15
590.109	15.15
590.231	38.15
590.354	36.15
590.476	17.15
590.598	27.15
590.721	19.15
590.843	38.15
590.965	25.15
591.088	41.15
591.21	31.15
591.332	29.15
591.455	-4.85
591.577	8.15
591.7	41.15
591.822	35.15
591.944	34.15
592.067	14.15
592.189	24.15
592.311	31.15
592.434	22.15
592.556	29.15
592.678	28.15
592.801	13.15
592.923	11.15
593.045	4.15
593.168	17.15
593.29	29.15
593.412	18.15
593.535	13.15
593.657	13.15
593.779	10.15
593.902	25.15
594.024	26.15
594.146	31.15
594.269	25.15
594.391	8.15
594.513	33.15
594.636	16.15
594.758	7.15
594.88	25.15
595.003	35.15
595.125	13.15
595.247	18.15
595.37	28.15
595.492	10.15
595.614	25.15
595.737	17.15
595.859	24.15
595.981	35.15
596.104	12.15
596.226	11.15
596.348	3.15
596.471	18.15
596.593	19.15
596.715	25.15
596.838	12.15
596.96	8.15
597.082	15.15
597.204	26.15
597.327	24.15
597.449	18.15
597.571	27.15
597.694	33.15
597.816	21.15
597.938	11.15
598.061	25.15
598.183	17.15
598.305	22.15
598.427	17.15
598.55	9.15
598.672	23.15
598.794	29.15
598.917	23.15
599.039	25.15
599.161	21.15
599.283	1.15
599.406	20.15
599.528	32.15
599.65	29.15
599.773	27.15
599.895	11.15
600.017	40.15
600.139	32.15
600.262	6.15
600.384	11.15
600.506	12.15
600.628	25.15
600.751	18.15
600.873	28.15
600.995	26.15
601.118	31.15
601.24	13.15
601.362	9.15
601.484	32.15
601.607	46.15
601.729	18.15
601.851	11.15
601.973	-2.85
602.096	13.15
602.218	30.15
602.34	27.15
602.462	49.15
602.585	34.15
602.707	10.15
602.829	22.15
602.951	22.15
603.074	5.15
603.196	15.15
603.318	9.15
603.44	22.15
603.563	21.15
603.685	5.15
603.807	18.15
603.929	20.15
604.052	33.15
604.174	18.15
604.296	42.15
604.418	26.15
604.541	28.15
604.663	23.15
604.785	29.15
604.907	27.15
605.03	21.15
605.152	52.15
605.274	13.15
605.396	30.15
605.519	26.15
605.641	19.15
605.763	28.15
605.885	13.15
606.008	22.15
606.13	27.15
606.252	29.15
606.374	-1.85
606.496	21.15
606.619	23.15
606.741	21.15
606.863	31.15
606.985	36.15
607.108	19.15
607.23	13.15
607.352	14.15
607.474	13.15
607.596	18.15
607.719	2.15
607.841	31.15
607.963	11.15
608.085	4.15
608.207	29.15
608.33	31.15
608.452	18.15
608.574	10.15
608.696	15.15
608.819	17.15
608.941	13.15
609.063	22.15
609.185	21.15
609.307	15.15
609.43	37.15
609.552	12.15
609.674	5.15
609.796	17.15
609.918	36.15
610.041	23.15
610.163	18.15
610.285	33.15
610.407	38.15
610.529	18.15
610.652	22.15
610.774	21.15
610.896	11.15
611.018	15.15
611.14	21.15
611.263	9.15
611.385	31.15
611.507	20.15
611.629	17.15
611.751	23.15
611.873	47.15
611.996	30.15
612.118	38.15
612.24	19.15
612.362	43.15
612.484	26.15
612.607	37.15
612.729	37.15
612.851	37.15
612.973	15.15
613.095	9.15
613.218	18.15
613.34	30.15
613.462	18.15
613.584	-0.85
613.706	17.15
613.828	34.15
613.951	11.15
614.073	21.15
614.195	-4.85
614.317	26.15
614.439	31.15
614.561	7.15
614.684	20.15
614.806	15.15
614.928	27.15
615.05	32.15
615.172	26.15
615.294	30.15
615.417	39.15
615.539	24.15
615.661	28.15
615.783	41.15
615.905	34.15
616.027	15.15
616.15	41.15
616.272	21.15
616.394	12.15
616.516	7.15
616.638	17.15
616.76	0.15
616.883	31.15
617.005	27.15
617.127	22.15
617.249	13.15
617.371	19.15
617.493	19.15
617.615	21.15
617.738	13.15
617.86	29.15
617.982	5.15
618.104	4.15
618.226	-0.85
618.348	-2.85
618.471	29.15
618.593	21.15
618.715	5.15
618.837	24.15
618.959	27.15
619.081	49.15
619.203	22.15
619.326	31.15
619.448	25.15
619.57	42.15
619.692	35.15
619.814	28.15
619.936	18.15
620.058	6.15
620.181	20.15
620.303	17.15
620.425	6.15
620.547	11.15
620.669	7.15
620.791	17.15
620.913	14.15
621.036	18.15
621.158	13.15
621.28	17.15
621.402	-2.85
621.524	8.15
621.646	11.15
621.768	8.15
621.891	0.15
622.013	16.15
622.135	29.15
622.257	7.15
622.379	1.15
622.501	14.15
622.623	9.15
622.745	5.15
622.868	21.15
622.99	15.15
623.112	-7.85
623.234	10.15
623.356	15.15
623.478	11.15
623.6	19.15
623.722	26.15
623.845	17.15
623.967	24.15
624.089	16.15
624.211	12.15
624.333	10.15
624.455	23.15
624.577	24.15
624.699	26.15
624.822	15.15
624.944	9.15
625.066	14.15
625.188	6.15
625.31	10.15
625.432	30.15
625.554	21.15
625.676	35.15
625.799	32.15
625.921	19.15
626.043	8.15
626.165	22.15
626.287	-0.85
626.409	26.15
626.531	17.15
626.653	13.15
626.775	21.15
626.898	13.15
627.02	37.15
627.142	45.15
627.264	20.15
627.386	2.15
627.508	13.15
627.63	-5.85
627.752	19.15
627.874	14.15
627.997	23.15
628.119	15.15
628.241	20.15
628.363	27.15
628.485	27.15
628.607	15.15
628.729	7.15
628.851	4.15
628.973	19.15
629.096	1.15
629.218	9.15
629.34	15.15
629.462	-2.85
629.584	9.15
629.706	8.15
629.828	29.15
629.95	15.15
630.072	9.15
630.195	19.15
630.317	13.15
630.439	11.15
630.561	21.15
630.683	-6.85
630.805	17.15
630.927	24.15
631.049	11.15
631.171	-5.85
631.293	17.15
631.416	34.15
631.538	9.15
631.66	-2.85
631.782	22.15
631.904	15.15
632.026	-3.85
632.148	-11.85
632.27	7.15
632.392	7.15
632.514	20.15
632.637	18.15
632.759	8.15
632.881	1.15
633.003	-19.85
633.125	18.15
633.247	6.15
633.369	13.15
633.491	-4.85
633.613	21.15
633.735	25.15
633.858	6.15
633.98	-3.85
634.102	-11.85
634.224	-5.85
634.346	13.15
634.468	17.15
634.59	27.15
634.712	-0.85
634.834	11.15
634.956	3.15
635.078	-6.85
635.201	3.15
635.323	10.15
635.445	14.15
635.567	3.15
635.689	9.15
635.811	19.15
635.933	13.15
636.055	-0.85
636.177	18.15
636.299	27.15
636.421	5.15
636.544	-1.85
636.666	5.15
636.788	6.15
636.91	15.15
637.032	11.15
637.154	10.15
637.276	29.15
637.398	12.15
637.52	15.15
637.642	9.15
637.764	13.15
637.887	-10.85
638.009	18.15
638.131	27.15
638.253	6.15
638.375	25.15
638.497	13.15
638.619	-1.85
638.741	-3.85
638.863	-4.85
638.985	-2.85
639.107	9.15
639.23	-0.85
639.352	31.15
639.474	9.15
639.596	7.15
639.718	22.15
639.84	24.15
639.962	26.15
640.084	30.15
640.206	23.15
640.328	8.15
640.45	-3.85
640.573	-0.85
640.695	15.15
640.817	13.15
640.939	24.15
641.061	14.15
641.183	16.15
641.305	3.15
641.427	6.15
641.549	19.15
641.671	19.15
641.793	-3.85
641.915	22.15
642.038	12.15
642.16	13.15
642.282	22.15
642.404	11.15
642.526	19.15
642.648	21.15
642.77	7.15
642.892	4.15
643.014	26.15
643.136	13.15
643.258	13.15
643.381	49.15
643.503	31.15
643.625	10.15
643.747	-2.85
643.869	-2.85
643.991	23.15
644.113	3.15
644.235	11.15
644.357	17.15
644.479	8.15
644.601	-4.85
644.723	-3.85
644.846	16.15
644.968	11.15
645.09	9.15
645.212	4.15
645.334	23.15
645.456	22.15
645.578	28.15
645.7	-0.85
645.822	29.15
645.944	8.15
646.066	3.15
646.188	2.15
646.311	39.15
646.433	13.15
646.555	31.15
646.677	19.15
646.799	14.15
646.921	16.15
647.043	34.15
647.165	5.15
647.287	2.15
647.409	5.15
647.531	22.15
647.654	-6.85
647.776	21.15
647.898	22.15
648.02	22.15
648.142	11.15
648.264	1.15
648.386	2.15
648.508	-11.85
648.63	8.15
648.752	15.15
648.874	0.15
648.997	16.15
649.119	17.15
649.241	38.15
649.363	15.15
649.485	19.15
649.607	9.15
649.729	-9.85
649.851	7.15
649.973	18.15
650.095	21.15
650.217	-8.85
650.34	-8.85
650.462	13.15
650.584	24.15
650.706	22.15
650.828	1.15
650.95	-9.85
651.072	31.15
651.194	6.15
651.316	-7.85
651.438	23.15
651.56	3.15
651.683	-5.85
651.805	5.15
651.927	5.15
652.049	-2.85
652.171	12.15
652.293	6.15
652.415	14.15
652.537	8.15
652.659	3.15
652.781	11.15
652.903	21.15
653.026	31.15
653.148	-4.85
653.27	-0.85
653.392	-7.85
653.514	-7.85
653.636	14.15
653.758	-9.85
653.88	-4.85
654.002	-1.85
654.124	4.15
654.247	17.15
654.369	27.15
654.491	5.15
654.613	-6.85
654.735	-0.85
654.857	25.15
654.979	14.15
655.101	17.15
655.223	19.15
655.345	14.15
655.468	21.15
655.59	5.15
655.712	20.15
655.834	9.15
655.956	11.15
656.078	8.15
656.2	20.15
656.322	6.15
656.444	-0.85
656.566	17.15
656.689	9.15
656.811	9.15
656.933	25.15
657.055	-2.85
657.177	3.15
657.299	9.15
657.421	12.15
657.543	13.15
657.665	-0.85
657.787	5.15
657.91	-1.85
658.032	1.15
658.154	4.15
658.276	1.15
658.398	-12.85
658.52	8.15
658.642	15.15
658.764	33.15
658.886	-2.85
659.009	17.15
659.131	5.15
659.253	14.15
659.375	12.15
659.497	7.15
659.619	15.15
659.741	3.15
659.863	-5.85
659.985	1.15
660.108	11.15
660.23	-19.85
660.352	8.15
660.474	22.15
660.596	17.15
660.718	7.15
660.84	-10.85
660.962	19.15
661.084	-13.85
661.207	10.15
661.329	19.15
661.451	9.15
661.573	10.15
661.695	29.15
661.817	31.15
661.939	30.15
662.061	39.15
662.184	-2.85
662.306	2.15
662.428	13.15
662.55	22.15
662.672	3.15
662.794	16.15
662.916	9.15
663.038	2.15
663.161	7.15
663.283	1.15
663.405	13.15
663.527	9.15
663.649	4.15
663.771	10.15
663.893	7.15
664.015	14.15
664.138	11.15
664.26	15.15
664.382	1.15
664.504	7.15
664.626	-17.85
664.748	2.15
664.87	14.15
664.992	31.15
665.115	17.15
665.237	12.15
665.359	11.15
665.481	-3.85
665.603	1.15
665.725	11.15
665.847	-2.85
665.97	11.15
666.092	11.15
666.214	8.15
666.336	11.15
666.458	18.15
666.58	0.15
666.702	-8.85
666.825	1.15
666.947	-2.85
667.069	17.15
667.191	17.15
667.313	23.15
667.435	10.15
667.557	-7.85
667.68	1.15
667.802	-4.85
667.924	1.15
668.046	10.15
668.168	14.15
668.29	13.15
668.412	12.15
668.535	16.15
668.657	22.15
668.779	7.15
668.901	8.15
669.023	19.15
669.145	16.15
669.267	18.15
669.39	7.15
669.512	12.15
669.634	13.15
669.756	-4.85
669.878	0.15
670	10.15
670.123	10.15
670.245	28.15
670.367	26.15
670.489	4.15
670.611	17.15
670.733	9.15
670.856	-11.85
670.978	20.15
671.1	13.15
671.222	15.15
671.344	5.15
671.466	3.15
671.589	-14.85
671.711	-8.85
671.833	-4.85
671.955	12.15
672.077	-4.85
672.199	16.15
672.322	30.15
672.444	6.15
672.566	9.15
672.688	19.15
672.81	9.15
672.932	11.15
673.055	-2.85
673.177	1.15
673.299	12.15
673.421	-6.85
673.543	-13.85
673.665	28.15
673.788	30.15
673.91	-14.85
674.032	-5.85
674.154	4.15
674.276	12.15
674.399	9.15
674.521	10.15
674.643	6.15
674.765	12.15
674.887	-1.85
675.009	-5.85
675.132	8.15
675.254	7.15
675.376	17.15
675.498	11.15
675.62	26.15
675.743	4.15
675.865	7.15
675.987	-10.85
676.109	11.15
676.231	14.15
676.354	29.15
676.476	-2.85
676.598	14.15
676.72	-0.85
676.842	8.15
676.965	13.15
677.087	8.15
677.209	13.15
677.331	22.15
677.453	16.15
677.576	2.15
677.698	8.15
677.82	2.15
677.942	-4.85
678.064	8.15
678.187	7.15
678.309	15.15
678.431	11.15
678.553	14.15
678.675	31.15
678.798	12.15
678.92	-1.85
679.042	19.15
679.164	-1.85
679.286	23.15
679.409	-0.85
679.531	-0.85
679.653	6.15
679.775	2.15
679.898	-2.85
680.02	2.15
680.142	-10.85
680.264	10.15
680.386	-7.85
680.509	19.15
680.631	2.15
680.753	17.15
680.875	16.15
680.998	13.15
681.12	19.15
681.242	21.15
681.364	2.15
681.486	1.15
681.609	1.15
681.731	-8.85
681.853	-6.85
681.975	13.15
682.098	13.15
682.22	40.15
682.342	-4.85
682.464	7.15
682.587	12.15
682.709	18.15
682.831	-6.85
682.953	-1.85
683.076	-2.85
683.198	13.15
683.32	6.15
683.442	20.15
683.565	20.15
683.687	5.15
683.809	15.15
683.931	-13.85
684.054	15.15
684.176	17.15
684.298	22.15
684.42	12.15
684.543	-0.85
684.665	5.15
684.787	10.15
684.909	9.15
685.032	15.15
685.154	-1.85
685.276	15.15
685.398	17.15
685.521	8.15
685.643	7.15
685.765	8.15
685.887	17.15
686.01	20.15
686.132	14.15
686.254	15.15
686.377	10.15
686.499	2.15
686.621	14.15
686.743	10.15
686.866	17.15
686.988	22.15
687.11	37.15
687.232	14.15
687.355	-9.85
687.477	5.15
687.599	16.15
687.722	9.15
687.844	-3.85
687.966	6.15
688.088	2.15
688.211	27.15
688.333	27.15
688.455	21.15
688.578	14.15
688.7	19.15
688.822	24.15
688.944	-0.85
689.067	33.15
689.189	3.15
689.311	-1.85
689.434	14.15
689.556	6.15
689.678	11.15
689.801	-9.85
689.923	7.15
690.045	23.15
690.167	28.15
690.29	18.15
690.412	18.15
690.534	15.15
690.657	-1.85
690.779	-4.85
690.901	8.15
691.024	11.15
691.146	10.15
691.268	-7.85
691.391	6.15
691.513	26.15
691.635	22.15
691.758	28.15
691.88	24.15
692.002	7.15
692.125	5.15
692.247	11.15
692.369	3.15
692.492	5.15
692.614	7.15
692.736	-1.85
692.859	-7.85
692.981	11.15
693.103	3.15
693.226	0.15
693.348	20.15
693.47	20.15
693.593	15.15
693.715	39.15
693.837	32.15
693.96	9.15
694.082	10.15
694.204	0.15
694.327	15.15
694.449	-4.85
694.571	10.15
694.694	9.15
694.816	22.15
694.938	6.15
695.061	14.15
695.183	13.15
695.305	20.15
695.428	-0.85
695.55	-0.85
695.672	8.15
695.795	9.15
695.917	25.15
696.04	-3.85
696.162	8.15
696.284	8.15
696.407	17.15
696.529	-9.85
696.651	13.15
696.774	4.15
696.896	21.15
697.019	21.15
697.141	-4.85
697.263	-6.85
697.386	-13.85
697.508	-1.85
697.63	7.15
697.753	1.15
697.875	4.15
697.998	4.15
698.12	6.15
698.242	-1.85
698.365	-1.85
698.487	5.15
698.61	2.15
698.732	22.15
698.854	19.15
698.977	1.15
699.099	7.15
699.221	0.15
699.344	14.15
699.466	8.15
699.589	5.15
699.711	-2.85
699.834	5.15
699.956	7.15
700.078	21.15
700.201	-14.85
700.323	20.15
700.446	2.15
700.568	-6.85
700.69	22.15
700.813	21.15
700.935	4.15
701.058	11.15
701.18	8.15
701.302	3.15
701.425	-10.85
701.547	-6.85
701.67	0.15
701.792	9.15
701.915	-1.85
702.037	1.15
702.159	13.15
702.282	14.15
702.404	2.15
702.527	18.15
702.649	23.15
702.772	3.15
702.894	11.15
703.017	25.15
703.139	15.15
703.261	26.15
703.384	18.15
703.506	-18.85
703.629	-2.85
703.751	7.15
703.874	-2.85
703.996	-20.85
704.119	9.15
704.241	21.15
704.364	7.15
704.486	17.15
704.608	17.15
704.731	10.15
704.853	10.15
704.976	2.15
705.098	15.15
705.221	-1.85
705.343	-0.85
705.466	30.15
705.588	16.15
705.711	5.15
705.833	14.15
705.956	3.15
706.078	6.15
706.201	15.15
706.323	6.15
706.446	1.15
