Data from LowRes_mercury_15_20_11_07_2024_HR4C61881__1__15-23-32-372.txt Node

Date: Thu Nov 07 15:23:32 EST 2024
User: crc00042
Spectrometer: HR4C6188
Trigger mode: 4
Integration Time (sec): 1.000000E-1
Scans to average: 1
Electric dark correction enabled: true
Nonlinearity correction enabled: false
Boxcar width: 0
XAxis mode: Wavelengths
Number of Pixels in Spectrum: 3648
>>>>>Begin Spectral Data<<<<<
245.66	-67.77
245.797	-67.77
245.934	-67.77
246.071	-70.77
246.208	23.23
246.344	9.23
246.481	6.23
246.618	7.23
246.755	2.23
246.892	8.23
247.029	-1.77
247.165	-33.77
247.302	15.23
247.439	-24.77
247.576	4.23
247.713	0.23
247.849	18.23
247.986	-10.77
248.123	1.23
248.26	14.23
248.396	25.23
248.533	19.23
248.67	1.23
248.806	1.23
248.943	7.23
249.08	0.23
249.216	8.23
249.353	-21.77
249.49	16.23
249.626	11.23
249.763	-1.77
249.9	-13.77
250.036	0.23
250.173	3.23
250.309	-10.77
250.446	2.23
250.582	4.23
250.719	5.23
250.856	11.23
250.992	-8.77
251.129	-11.77
251.265	-3.77
251.402	-7.77
251.538	-14.77
251.675	-0.77
251.811	18.23
251.948	5.23
252.084	16.23
252.221	-3.77
252.357	1.23
252.493	27.23
252.63	9.23
252.766	19.23
252.903	14.23
253.039	3.23
253.175	-3.77
253.312	-4.77
253.448	-1.77
253.585	-12.77
253.721	5.23
253.857	-2.77
253.994	9.23
254.13	-2.77
254.266	2.23
254.403	0.23
254.539	11.23
254.675	14.23
254.811	10.23
254.948	20.23
255.084	15.23
255.22	0.23
255.356	-7.77
255.493	12.23
255.629	8.23
255.765	23.23
255.901	12.23
256.037	6.23
256.174	-7.77
256.31	-7.77
256.446	1.23
256.582	-0.77
256.718	11.23
256.854	18.23
256.991	-5.77
257.127	28.23
257.263	24.23
257.399	22.23
257.535	13.23
257.671	-3.77
257.807	-7.77
257.943	1.23
258.079	-1.77
258.215	11.23
258.351	15.23
258.487	-2.77
258.623	23.23
258.759	7.23
258.895	-0.77
259.031	7.23
259.167	-6.77
259.303	22.23
259.439	-6.77
259.575	9.23
259.711	-1.77
259.847	-8.77
259.983	12.23
260.119	1.23
260.255	-2.77
260.391	39.23
260.527	23.23
260.663	10.23
260.799	-3.77
260.934	-9.77
261.07	3.23
261.206	-16.77
261.342	-11.77
261.478	25.23
261.614	22.23
261.749	7.23
261.885	17.23
262.021	11.23
262.157	16.23
262.293	8.23
262.428	-6.77
262.564	9.23
262.7	16.23
262.836	-10.77
262.971	14.23
263.107	20.23
263.243	25.23
263.378	2.23
263.514	-27.77
263.65	18.23
263.785	-4.77
263.921	13.23
264.057	9.23
264.192	3.23
264.328	16.23
264.464	4.23
264.599	17.23
264.735	23.23
264.871	-12.77
265.006	-0.77
265.142	-4.77
265.277	11.23
265.413	13.23
265.548	5.23
265.684	7.23
265.819	8.23
265.955	-14.77
266.091	-9.77
266.226	-1.77
266.362	1.23
266.497	14.23
266.633	4.23
266.768	-13.77
266.903	5.23
267.039	2.23
267.174	8.23
267.31	3.23
267.445	5.23
267.581	-8.77
267.716	25.23
267.851	11.23
267.987	22.23
268.122	9.23
268.258	-9.77
268.393	-3.77
268.528	28.23
268.664	-11.77
268.799	2.23
268.934	7.23
269.07	5.23
269.205	9.23
269.34	22.23
269.476	-6.77
269.611	-13.77
269.746	13.23
269.881	20.23
270.017	28.23
270.152	14.23
270.287	24.23
270.422	15.23
270.558	-1.77
270.693	2.23
270.828	4.23
270.963	0.23
271.098	-5.77
271.234	5.23
271.369	10.23
271.504	14.23
271.639	-4.77
271.774	-24.77
271.909	11.23
272.045	-2.77
272.18	0.23
272.315	-4.77
272.45	2.23
272.585	-13.77
272.72	5.23
272.855	13.23
272.99	25.23
273.125	-5.77
273.26	-23.77
273.395	-8.77
273.53	-1.77
273.665	27.23
273.8	14.23
273.935	-0.77
274.07	21.23
274.205	12.23
274.34	7.23
274.475	-9.77
274.61	10.23
274.745	-2.77
274.88	24.23
275.015	-3.77
275.15	3.23
275.285	-6.77
275.42	-2.77
275.555	2.23
275.69	7.23
275.825	-1.77
275.959	14.23
276.094	9.23
276.229	-0.77
276.364	-2.77
276.499	-12.77
276.634	-5.77
276.768	2.23
276.903	18.23
277.038	18.23
277.173	12.23
277.308	1.23
277.442	-8.77
277.577	-6.77
277.712	5.23
277.847	2.23
277.981	-7.77
278.116	-14.77
278.251	4.23
278.386	21.23
278.52	6.23
278.655	2.23
278.79	18.23
278.924	25.23
279.059	23.23
279.194	-10.77
279.328	33.23
279.463	11.23
279.598	24.23
279.732	6.23
279.867	19.23
280.001	10.23
280.136	-3.77
280.271	1.23
280.405	-0.77
280.54	14.23
280.674	-0.77
280.809	26.23
280.943	5.23
281.078	-8.77
281.213	21.23
281.347	25.23
281.482	23.23
281.616	11.23
281.751	9.23
281.885	-16.77
282.02	-4.77
282.154	-10.77
282.288	-7.77
282.423	-4.77
282.557	-13.77
282.692	-9.77
282.826	10.23
282.961	10.23
283.095	-5.77
283.229	-5.77
283.364	-7.77
283.498	-9.77
283.633	7.23
283.767	2.23
283.901	-12.77
284.036	-6.77
284.17	10.23
284.304	-17.77
284.439	12.23
284.573	15.23
284.707	30.23
284.842	1.23
284.976	5.23
285.11	-27.77
285.244	18.23
285.379	35.23
285.513	-2.77
285.647	4.23
285.781	1.23
285.916	26.23
286.05	12.23
286.184	19.23
286.318	3.23
286.453	-15.77
286.587	-3.77
286.721	-3.77
286.855	-5.77
286.989	-1.77
287.123	-7.77
287.258	-7.77
287.392	-2.77
287.526	1.23
287.66	11.23
287.794	3.23
287.928	15.23
288.062	16.23
288.196	-16.77
288.33	2.23
288.464	14.23
288.598	4.23
288.733	7.23
288.867	8.23
289.001	8.23
289.135	-0.77
289.269	-8.77
289.403	-1.77
289.537	29.23
289.671	9.23
289.805	0.23
289.939	12.23
290.073	9.23
290.207	15.23
290.34	-0.77
290.474	17.23
290.608	13.23
290.742	1.23
290.876	15.23
291.01	-1.77
291.144	8.23
291.278	22.23
291.412	10.23
291.546	-4.77
291.679	3.23
291.813	9.23
291.947	17.23
292.081	-12.77
292.215	12.23
292.349	16.23
292.482	21.23
292.616	-1.77
292.75	35.23
292.884	7.23
293.018	-2.77
293.151	-17.77
293.285	1.23
293.419	-1.77
293.553	-4.77
293.686	-1.77
293.82	6.23
293.954	13.23
294.088	30.23
294.221	3.23
294.355	4.23
294.489	-4.77
294.622	-4.77
294.756	-3.77
294.89	1.23
295.023	17.23
295.157	14.23
295.291	27.23
295.424	15.23
295.558	-1.77
295.691	-3.77
295.825	-5.77
295.959	10.23
296.092	5.23
296.226	-4.77
296.359	2.23
296.493	-2.77
296.627	6.23
296.76	6.23
296.894	-6.77
297.027	-9.77
297.161	-1.77
297.294	-28.77
297.428	-9.77
297.561	19.23
297.695	6.23
297.828	22.23
297.962	-2.77
298.095	6.23
298.229	28.23
298.362	3.23
298.495	2.23
298.629	-10.77
298.762	14.23
298.896	15.23
299.029	-21.77
299.162	-1.77
299.296	15.23
299.429	-6.77
299.563	-5.77
299.696	16.23
299.829	13.23
299.963	12.23
300.096	8.23
300.229	-3.77
300.363	21.23
300.496	17.23
300.629	-10.77
300.763	-4.77
300.896	-3.77
301.029	12.23
301.162	0.23
301.296	-16.77
301.429	9.23
301.562	-10.77
301.695	18.23
301.829	0.23
301.962	30.23
302.095	9.23
302.228	-4.77
302.362	15.23
302.495	-7.77
302.628	-0.77
302.761	4.23
302.894	2.23
303.027	17.23
303.161	-20.77
303.294	-12.77
303.427	6.23
303.56	-10.77
303.693	1.23
303.826	10.23
303.959	-1.77
304.092	-6.77
304.225	-1.77
304.359	-0.77
304.492	-3.77
304.625	-1.77
304.758	12.23
304.891	-30.77
305.024	5.23
305.157	-12.77
305.29	-4.77
305.423	2.23
305.556	-1.77
305.689	7.23
305.822	-6.77
305.955	10.23
306.088	-6.77
306.221	-12.77
306.354	-5.77
306.487	7.23
306.62	-17.77
306.752	6.23
306.885	1.23
307.018	7.23
307.151	11.23
307.284	24.23
307.417	5.23
307.55	17.23
307.683	-11.77
307.816	26.23
307.948	13.23
308.081	17.23
308.214	21.23
308.347	21.23
308.48	-2.77
308.613	-8.77
308.745	1.23
308.878	3.23
309.011	0.23
309.144	17.23
309.277	7.23
309.409	9.23
309.542	7.23
309.675	23.23
309.808	-1.77
309.94	16.23
310.073	-4.77
310.206	-17.77
310.339	9.23
310.471	-27.77
310.604	15.23
310.737	7.23
310.869	3.23
311.002	7.23
311.135	-8.77
311.267	-19.77
311.4	-0.77
311.533	18.23
311.665	0.23
311.798	4.23
311.93	14.23
312.063	24.23
312.196	44.23
312.328	83.23
312.461	60.23
312.593	18.23
312.726	55.23
312.859	91.23
312.991	169.23
313.124	60.23
313.256	14.23
313.389	22.23
313.521	2.23
313.654	-4.77
313.786	3.23
313.919	-10.77
314.051	8.23
314.184	1.23
314.316	9.23
314.449	-13.77
314.581	-4.77
314.714	11.23
314.846	-1.77
314.978	-11.77
315.111	2.23
315.243	-11.77
315.376	19.23
315.508	11.23
315.641	8.23
315.773	18.23
315.905	6.23
316.038	-6.77
316.17	-13.77
316.302	-6.77
316.435	5.23
316.567	-2.77
316.699	27.23
316.832	1.23
316.964	-5.77
317.096	6.23
317.229	-10.77
317.361	-37.77
317.493	-4.77
317.625	2.23
317.758	12.23
317.89	11.23
318.022	14.23
318.155	2.23
318.287	15.23
318.419	6.23
318.551	14.23
318.683	15.23
318.816	10.23
318.948	-4.77
319.08	6.23
319.212	-4.77
319.344	11.23
319.477	5.23
319.609	34.23
319.741	31.23
319.873	12.23
320.005	-1.77
320.137	-3.77
320.269	13.23
320.401	8.23
320.534	0.23
320.666	-7.77
320.798	-14.77
320.93	-18.77
321.062	-4.77
321.194	-7.77
321.326	8.23
321.458	13.23
321.59	-5.77
321.722	-24.77
321.854	-4.77
321.986	16.23
322.118	27.23
322.25	-15.77
322.382	-2.77
322.514	-0.77
322.646	-18.77
322.778	1.23
322.91	10.23
323.042	-1.77
323.174	-6.77
323.306	-20.77
323.438	-5.77
323.57	10.23
323.702	-7.77
323.834	-1.77
323.966	-10.77
324.097	0.23
324.229	25.23
324.361	11.23
324.493	5.23
324.625	15.23
324.757	8.23
324.889	-4.77
325.021	4.23
325.152	23.23
325.284	27.23
325.416	16.23
325.548	6.23
325.68	9.23
325.811	11.23
325.943	15.23
326.075	4.23
326.207	17.23
326.339	8.23
326.47	-1.77
326.602	9.23
326.734	11.23
326.866	13.23
326.997	-0.77
327.129	-11.77
327.261	-1.77
327.392	7.23
327.524	-8.77
327.656	-10.77
327.787	12.23
327.919	18.23
328.051	17.23
328.182	10.23
328.314	11.23
328.446	3.23
328.577	25.23
328.709	-2.77
328.841	-15.77
328.972	-25.77
329.104	-10.77
329.235	0.23
329.367	1.23
329.499	-10.77
329.63	-6.77
329.762	19.23
329.893	12.23
330.025	7.23
330.156	-9.77
330.288	16.23
330.419	23.23
330.551	6.23
330.683	17.23
330.814	11.23
330.946	25.23
331.077	13.23
331.208	7.23
331.34	12.23
331.471	-0.77
331.603	2.23
331.734	1.23
331.866	10.23
331.997	-0.77
332.129	-12.77
332.26	-17.77
332.392	21.23
332.523	17.23
332.654	-14.77
332.786	-7.77
332.917	-5.77
333.048	18.23
333.18	10.23
333.311	5.23
333.443	-10.77
333.574	5.23
333.705	35.23
333.837	55.23
333.968	129.23
334.099	239.23
334.231	231.23
334.362	38.23
334.493	27.23
334.624	33.23
334.756	8.23
334.887	18.23
335.018	12.23
335.15	22.23
335.281	35.23
335.412	36.23
335.543	19.23
335.675	0.23
335.806	1.23
335.937	9.23
336.068	-2.77
336.199	39.23
336.331	-1.77
336.462	10.23
336.593	4.23
336.724	8.23
336.855	21.23
336.986	20.23
337.118	-1.77
337.249	9.23
337.38	10.23
337.511	15.23
337.642	19.23
337.773	15.23
337.904	28.23
338.035	7.23
338.166	-3.77
338.298	20.23
338.429	1.23
338.56	9.23
338.691	14.23
338.822	29.23
338.953	12.23
339.084	13.23
339.215	17.23
339.346	11.23
339.477	5.23
339.608	0.23
339.739	12.23
339.87	15.23
340.001	26.23
340.132	13.23
340.263	-6.77
340.394	30.23
340.525	1.23
340.656	-1.77
340.787	-8.77
340.918	17.23
341.049	27.23
341.179	17.23
341.31	1.23
341.441	12.23
341.572	30.23
341.703	9.23
341.834	3.23
341.965	5.23
342.096	10.23
342.227	3.23
342.357	25.23
342.488	19.23
342.619	8.23
342.75	22.23
342.881	18.23
343.012	40.23
343.142	31.23
343.273	-1.77
343.404	17.23
343.535	38.23
343.666	38.23
343.796	39.23
343.927	41.23
344.058	29.23
344.189	34.23
344.319	12.23
344.45	14.23
344.581	39.23
344.712	16.23
344.842	18.23
344.973	10.23
345.104	37.23
345.234	23.23
345.365	11.23
345.496	14.23
345.626	25.23
345.757	29.23
345.888	5.23
346.018	27.23
346.149	27.23
346.28	41.23
346.41	38.23
346.541	30.23
346.672	35.23
346.802	39.23
346.933	24.23
347.063	17.23
347.194	26.23
347.325	33.23
347.455	46.23
347.586	23.23
347.716	10.23
347.847	36.23
347.977	39.23
348.108	37.23
348.238	25.23
348.369	39.23
348.499	44.23
348.63	51.23
348.76	49.23
348.891	64.23
349.021	46.23
349.152	59.23
349.282	54.23
349.413	54.23
349.543	60.23
349.674	39.23
349.804	53.23
349.935	35.23
350.065	29.23
350.196	31.23
350.326	24.23
350.456	21.23
350.587	46.23
350.717	22.23
350.848	24.23
350.978	42.23
351.108	23.23
351.239	34.23
351.369	39.23
351.499	28.23
351.63	18.23
351.76	25.23
351.89	36.23
352.021	30.23
352.151	14.23
352.281	47.23
352.412	32.23
352.542	13.23
352.672	14.23
352.803	18.23
352.933	19.23
353.063	29.23
353.193	34.23
353.324	10.23
353.454	15.23
353.584	39.23
353.714	11.23
353.845	16.23
353.975	8.23
354.105	2.23
354.235	12.23
354.365	23.23
354.496	23.23
354.626	40.23
354.756	29.23
354.886	8.23
355.016	16.23
355.146	30.23
355.277	39.23
355.407	15.23
355.537	22.23
355.667	44.23
355.797	21.23
355.927	13.23
356.057	20.23
356.187	33.23
356.318	18.23
356.448	49.23
356.578	33.23
356.708	55.23
356.838	31.23
356.968	20.23
357.098	39.23
357.228	25.23
357.358	10.23
357.488	19.23
357.618	61.23
357.748	44.23
357.878	39.23
358.008	31.23
358.138	26.23
358.268	28.23
358.398	28.23
358.528	22.23
358.658	27.23
358.788	2.23
358.918	30.23
359.048	15.23
359.178	43.23
359.308	37.23
359.438	51.23
359.568	36.23
359.698	31.23
359.827	18.23
359.957	31.23
360.087	25.23
360.217	21.23
360.347	22.23
360.477	57.23
360.607	11.23
360.737	35.23
360.866	25.23
360.996	10.23
361.126	5.23
361.256	46.23
361.386	47.23
361.516	46.23
361.645	29.23
361.775	29.23
361.905	16.23
362.035	49.23
362.165	45.23
362.294	35.23
362.424	35.23
362.554	34.23
362.684	20.23
362.813	41.23
362.943	29.23
363.073	37.23
363.203	61.23
363.332	52.23
363.462	84.23
363.592	105.23
363.721	122.23
363.851	165.23
363.981	185.23
364.111	257.23
364.24	330.23
364.37	510.23
364.5	890.23
364.629	1867.23
364.759	3937.23
364.888	6426.23
365.018	9557.23
365.148	14889.23
365.277	13260.23
365.407	4829.23
365.537	3129.23
365.666	4156.23
365.796	1873.23
365.925	816.23
366.055	748.23
366.184	1060.23
366.314	1426.23
366.444	2510.23
366.573	2183.23
366.703	682.23
366.832	221.23
366.962	119.23
367.091	95.23
367.221	85.23
367.35	58.23
367.48	104.23
367.609	53.23
367.739	61.23
367.868	37.23
367.998	56.23
368.127	34.23
368.257	56.23
368.386	56.23
368.516	61.23
368.645	48.23
368.775	57.23
368.904	31.23
369.033	41.23
369.163	27.23
369.292	49.23
369.422	33.23
369.551	43.23
369.68	32.23
369.81	24.23
369.939	35.23
370.069	34.23
370.198	39.23
370.327	22.23
370.457	37.23
370.586	31.23
370.715	16.23
370.845	28.23
370.974	54.23
371.103	40.23
371.233	58.23
371.362	46.23
371.491	22.23
371.621	63.23
371.75	49.23
371.879	48.23
372.008	48.23
372.138	39.23
372.267	58.23
372.396	69.23
372.525	26.23
372.655	38.23
372.784	20.23
372.913	15.23
373.042	16.23
373.172	39.23
373.301	17.23
373.43	15.23
373.559	19.23
373.688	10.23
373.818	28.23
373.947	28.23
374.076	19.23
374.205	30.23
374.334	1.23
374.463	10.23
374.593	28.23
374.722	24.23
374.851	33.23
374.98	-4.77
375.109	9.23
375.238	32.23
375.367	41.23
375.496	8.23
375.625	8.23
375.755	37.23
375.884	38.23
376.013	34.23
376.142	6.23
376.271	23.23
376.4	15.23
376.529	24.23
376.658	22.23
376.787	21.23
376.916	7.23
377.045	8.23
377.174	23.23
377.303	25.23
377.432	34.23
377.561	26.23
377.69	16.23
377.819	41.23
377.948	30.23
378.077	16.23
378.206	18.23
378.335	25.23
378.464	19.23
378.593	22.23
378.722	5.23
378.851	14.23
378.98	25.23
379.108	-2.77
379.237	-1.77
379.366	22.23
379.495	24.23
379.624	21.23
379.753	14.23
379.882	6.23
380.011	-3.77
380.14	-18.77
380.268	9.23
380.397	-5.77
380.526	24.23
380.655	8.23
380.784	-0.77
380.913	1.23
381.041	-2.77
381.17	-9.77
381.299	31.23
381.428	26.23
381.557	17.23
381.685	8.23
381.814	15.23
381.943	15.23
382.072	1.23
382.2	12.23
382.329	3.23
382.458	21.23
382.587	29.23
382.715	26.23
382.844	10.23
382.973	20.23
383.102	11.23
383.23	21.23
383.359	14.23
383.488	23.23
383.616	8.23
383.745	-4.77
383.874	19.23
384.003	8.23
384.131	-8.77
384.26	22.23
384.389	44.23
384.517	14.23
384.646	7.23
384.774	1.23
384.903	21.23
385.032	24.23
385.16	20.23
385.289	24.23
385.418	26.23
385.546	3.23
385.675	22.23
385.803	11.23
385.932	22.23
386.06	5.23
386.189	14.23
386.318	13.23
386.446	20.23
386.575	24.23
386.703	28.23
386.832	15.23
386.96	-6.77
387.089	24.23
387.217	14.23
387.346	27.23
387.474	15.23
387.603	11.23
387.731	31.23
387.86	34.23
387.988	18.23
388.117	39.23
388.245	17.23
388.374	6.23
388.502	29.23
388.631	-7.77
388.759	15.23
388.888	16.23
389.016	12.23
389.144	20.23
389.273	16.23
389.401	8.23
389.53	9.23
389.658	32.23
389.786	0.23
389.915	5.23
390.043	21.23
390.172	33.23
390.3	33.23
390.428	25.23
390.557	22.23
390.685	32.23
390.813	51.23
390.942	18.23
391.07	18.23
391.198	12.23
391.327	10.23
391.455	23.23
391.583	34.23
391.712	34.23
391.84	46.23
391.968	26.23
392.096	23.23
392.225	18.23
392.353	17.23
392.481	10.23
392.609	28.23
392.738	23.23
392.866	42.23
392.994	7.23
393.122	31.23
393.251	27.23
393.379	23.23
393.507	-7.77
393.635	26.23
393.764	38.23
393.892	22.23
394.02	13.23
394.148	21.23
394.276	28.23
394.404	40.23
394.533	20.23
394.661	26.23
394.789	22.23
394.917	29.23
395.045	9.23
395.173	9.23
395.302	31.23
395.43	39.23
395.558	25.23
395.686	26.23
395.814	30.23
395.942	30.23
396.07	18.23
396.198	36.23
396.326	34.23
396.454	43.23
396.582	48.23
396.711	25.23
396.839	28.23
396.967	30.23
397.095	11.23
397.223	43.23
397.351	57.23
397.479	45.23
397.607	33.23
397.735	60.23
397.863	69.23
397.991	64.23
398.119	35.23
398.247	42.23
398.375	53.23
398.503	59.23
398.631	56.23
398.759	60.23
398.887	44.23
399.015	42.23
399.143	44.23
399.271	65.23
399.399	79.23
399.526	61.23
399.654	78.23
399.782	70.23
399.91	94.23
400.038	102.23
400.166	91.23
400.294	92.23
400.422	79.23
400.55	109.23
400.678	111.23
400.805	105.23
400.933	107.23
401.061	117.23
401.189	120.23
401.317	153.23
401.445	121.23
401.573	78.23
401.7	55.23
401.828	55.23
401.956	48.23
402.084	31.23
402.212	38.23
402.34	38.23
402.467	39.23
402.595	32.23
402.723	35.23
402.851	65.23
402.978	59.23
403.106	81.23
403.234	95.23
403.362	104.23
403.489	116.23
403.617	142.23
403.745	188.23
403.873	286.23
404	566.23
404.128	1467.23
404.256	4035.23
404.384	5227.23
404.511	5558.23
404.639	7291.23
404.767	11705.23
404.894	14760.23
405.022	4997.23
405.15	1323.23
405.277	438.23
405.405	246.23
405.533	135.23
405.66	98.23
405.788	54.23
405.916	69.23
406.043	30.23
406.171	70.23
406.299	51.23
406.426	64.23
406.554	52.23
406.681	73.23
406.809	41.23
406.937	70.23
407.064	66.23
407.192	117.23
407.319	289.23
407.447	536.23
407.574	548.23
407.702	660.23
407.83	872.23
407.957	1641.23
408.085	940.23
408.212	283.23
408.34	96.23
408.467	40.23
408.595	68.23
408.722	59.23
408.85	53.23
408.977	22.23
409.105	37.23
409.232	23.23
409.36	28.23
409.487	24.23
409.615	20.23
409.742	45.23
409.87	33.23
409.997	36.23
410.125	39.23
410.252	43.23
410.379	36.23
410.507	37.23
410.634	24.23
410.762	34.23
410.889	35.23
411.017	32.23
411.144	37.23
411.271	19.23
411.399	31.23
411.526	27.23
411.653	33.23
411.781	29.23
411.908	15.23
412.036	34.23
412.163	30.23
412.29	49.23
412.418	33.23
412.545	37.23
412.672	24.23
412.8	49.23
412.927	30.23
413.054	52.23
413.182	25.23
413.309	31.23
413.436	10.23
413.564	15.23
413.691	43.23
413.818	32.23
413.945	21.23
414.073	13.23
414.2	39.23
414.327	28.23
414.454	33.23
414.582	19.23
414.709	16.23
414.836	13.23
414.963	17.23
415.091	30.23
415.218	17.23
415.345	40.23
415.472	25.23
415.6	21.23
415.727	35.23
415.854	24.23
415.981	11.23
416.108	23.23
416.236	35.23
416.363	26.23
416.49	37.23
416.617	37.23
416.744	36.23
416.871	29.23
416.998	31.23
417.126	24.23
417.253	16.23
417.38	33.23
417.507	38.23
417.634	39.23
417.761	46.23
417.888	28.23
418.015	35.23
418.143	17.23
418.27	42.23
418.397	34.23
418.524	14.23
418.651	13.23
418.778	32.23
418.905	64.23
419.032	53.23
419.159	28.23
419.286	62.23
419.413	45.23
419.54	57.23
419.667	49.23
419.794	37.23
419.921	41.23
420.048	60.23
420.175	61.23
420.302	40.23
420.429	54.23
420.556	71.23
420.683	64.23
420.81	60.23
420.937	69.23
421.064	67.23
421.191	80.23
421.318	74.23
421.445	89.23
421.572	41.23
421.699	47.23
421.826	47.23
421.953	38.23
422.08	26.23
422.207	14.23
422.334	6.23
422.461	33.23
422.588	5.23
422.714	13.23
422.841	35.23
422.968	35.23
423.095	23.23
423.222	3.23
423.349	23.23
423.476	28.23
423.603	13.23
423.729	9.23
423.856	9.23
423.983	24.23
424.11	5.23
424.237	16.23
424.364	32.23
424.491	15.23
424.617	1.23
424.744	5.23
424.871	19.23
424.998	19.23
425.125	11.23
425.251	15.23
425.378	9.23
425.505	25.23
425.632	28.23
425.758	19.23
425.885	29.23
426.012	22.23
426.139	22.23
426.266	15.23
426.392	11.23
426.519	27.23
426.646	21.23
426.772	35.23
426.899	5.23
427.026	23.23
427.153	14.23
427.279	39.23
427.406	17.23
427.533	14.23
427.659	12.23
427.786	0.23
427.913	12.23
428.039	15.23
428.166	11.23
428.293	31.23
428.419	45.23
428.546	13.23
428.673	3.23
428.799	11.23
428.926	3.23
429.053	31.23
429.179	38.23
429.306	32.23
429.433	29.23
429.559	36.23
429.686	8.23
429.812	17.23
429.939	15.23
430.066	19.23
430.192	7.23
430.319	30.23
430.445	17.23
430.572	22.23
430.699	5.23
430.825	12.23
430.952	33.23
431.078	18.23
431.205	26.23
431.331	24.23
431.458	31.23
431.584	35.23
431.711	26.23
431.837	21.23
431.964	30.23
432.09	34.23
432.217	31.23
432.343	22.23
432.47	48.23
432.596	24.23
432.723	15.23
432.849	10.23
432.976	39.23
433.102	26.23
433.229	31.23
433.355	67.23
433.482	90.23
433.608	94.23
433.735	98.23
433.861	129.23
433.987	167.23
434.114	189.23
434.24	189.23
434.367	205.23
434.493	230.23
434.62	274.23
434.746	373.23
434.872	649.23
434.999	857.23
435.125	1774.23
435.252	5653.23
435.378	13564.23
435.504	15285.23
435.631	15481.23
435.757	15684.23
435.883	15684.23
436.01	15684.23
436.136	15684.23
436.262	15684.23
436.389	3609.23
436.515	2782.23
436.641	901.23
436.768	669.23
436.894	418.23
437.02	403.23
437.147	308.23
437.273	291.23
437.399	222.23
437.526	238.23
437.652	175.23
437.778	205.23
437.904	155.23
438.031	165.23
438.157	138.23
438.283	147.23
438.409	122.23
438.536	131.23
438.662	125.23
438.788	116.23
438.914	115.23
439.041	111.23
439.167	107.23
439.293	118.23
439.419	84.23
439.546	87.23
439.672	79.23
439.798	98.23
439.924	77.23
440.05	93.23
440.177	91.23
440.303	73.23
440.429	61.23
440.555	66.23
440.681	69.23
440.807	90.23
440.934	41.23
441.06	58.23
441.186	66.23
441.312	70.23
441.438	71.23
441.564	71.23
441.69	67.23
441.816	66.23
441.943	45.23
442.069	67.23
442.195	40.23
442.321	53.23
442.447	47.23
442.573	58.23
442.699	50.23
442.825	41.23
442.951	47.23
443.077	64.23
443.203	36.23
443.33	47.23
443.456	36.23
443.582	42.23
443.708	45.23
443.834	65.23
443.96	46.23
444.086	34.23
444.212	63.23
444.338	66.23
444.464	51.23
444.59	63.23
444.716	47.23
444.842	49.23
444.968	23.23
445.094	52.23
445.22	53.23
445.346	39.23
445.472	47.23
445.598	19.23
445.724	23.23
445.85	43.23
445.976	53.23
446.102	44.23
446.228	42.23
446.354	36.23
446.48	16.23
446.605	40.23
446.731	44.23
446.857	31.23
446.983	40.23
447.109	1.23
447.235	25.23
447.361	22.23
447.487	50.23
447.613	37.23
447.739	27.23
447.865	22.23
447.99	43.23
448.116	22.23
448.242	27.23
448.368	19.23
448.494	35.23
448.62	36.23
448.746	33.23
448.872	35.23
448.997	17.23
449.123	18.23
449.249	54.23
449.375	44.23
449.501	12.23
449.627	20.23
449.752	46.23
449.878	13.23
450.004	21.23
450.13	31.23
450.256	23.23
450.381	28.23
450.507	7.23
450.633	21.23
450.759	36.23
450.884	15.23
451.01	31.23
451.136	46.23
451.262	29.23
451.388	26.23
451.513	17.23
451.639	44.23
451.765	40.23
451.89	46.23
452.016	28.23
452.142	25.23
452.268	38.23
452.393	28.23
452.519	19.23
452.645	15.23
452.771	16.23
452.896	6.23
453.022	27.23
453.148	29.23
453.273	31.23
453.399	28.23
453.525	10.23
453.65	16.23
453.776	33.23
453.902	27.23
454.027	44.23
454.153	32.23
454.279	14.23
454.404	12.23
454.53	48.23
454.656	45.23
454.781	23.23
454.907	8.23
455.032	23.23
455.158	44.23
455.284	39.23
455.409	27.23
455.535	27.23
455.66	35.23
455.786	30.23
455.912	45.23
456.037	-10.77
456.163	40.23
456.288	41.23
456.414	11.23
456.539	8.23
456.665	24.23
456.791	28.23
456.916	10.23
457.042	24.23
457.167	15.23
457.293	23.23
457.418	19.23
457.544	13.23
457.669	38.23
457.795	12.23
457.92	14.23
458.046	25.23
458.171	21.23
458.297	23.23
458.422	15.23
458.548	7.23
458.673	41.23
458.799	27.23
458.924	9.23
459.05	11.23
459.175	-2.77
459.301	17.23
459.426	31.23
459.552	21.23
459.677	14.23
459.803	34.23
459.928	29.23
460.053	42.23
460.179	25.23
460.304	19.23
460.43	10.23
460.555	14.23
460.681	22.23
460.806	23.23
460.931	25.23
461.057	37.23
461.182	13.23
461.308	47.23
461.433	32.23
461.558	21.23
461.684	25.23
461.809	45.23
461.934	40.23
462.06	25.23
462.185	-7.77
462.311	21.23
462.436	28.23
462.561	26.23
462.687	29.23
462.812	38.23
462.937	16.23
463.063	10.23
463.188	7.23
463.313	35.23
463.439	16.23
463.564	18.23
463.689	15.23
463.814	28.23
463.94	22.23
464.065	40.23
464.19	29.23
464.316	23.23
464.441	19.23
464.566	19.23
464.692	32.23
464.817	30.23
464.942	11.23
465.067	19.23
465.193	-10.77
465.318	2.23
465.443	10.23
465.568	18.23
465.694	21.23
465.819	30.23
465.944	18.23
466.069	26.23
466.194	41.23
466.32	34.23
466.445	14.23
466.57	30.23
466.695	41.23
466.82	29.23
466.946	46.23
467.071	34.23
467.196	22.23
467.321	30.23
467.446	19.23
467.572	49.23
467.697	33.23
467.822	46.23
467.947	31.23
468.072	25.23
468.197	24.23
468.323	27.23
468.448	22.23
468.573	21.23
468.698	1.23
468.823	31.23
468.948	40.23
469.073	40.23
469.198	44.23
469.324	41.23
469.449	19.23
469.574	56.23
469.699	38.23
469.824	40.23
469.949	33.23
470.074	40.23
470.199	62.23
470.324	32.23
470.449	44.23
470.574	32.23
470.7	26.23
470.825	53.23
470.95	55.23
471.075	21.23
471.2	46.23
471.325	40.23
471.45	43.23
471.575	21.23
471.7	40.23
471.825	22.23
471.95	30.23
472.075	20.23
472.2	35.23
472.325	38.23
472.45	30.23
472.575	35.23
472.7	18.23
472.825	37.23
472.95	33.23
473.075	25.23
473.2	37.23
473.325	41.23
473.45	17.23
473.575	21.23
473.7	49.23
473.825	17.23
473.95	30.23
474.075	35.23
474.2	19.23
474.325	19.23
474.45	19.23
474.574	20.23
474.699	35.23
474.824	36.23
474.949	15.23
475.074	-0.77
475.199	26.23
475.324	17.23
475.449	16.23
475.574	13.23
475.699	25.23
475.824	3.23
475.949	25.23
476.073	10.23
476.198	25.23
476.323	34.23
476.448	23.23
476.573	4.23
476.698	14.23
476.823	36.23
476.947	33.23
477.072	5.23
477.197	21.23
477.322	11.23
477.447	7.23
477.572	32.23
477.697	15.23
477.821	25.23
477.946	28.23
478.071	26.23
478.196	34.23
478.321	28.23
478.445	7.23
478.57	15.23
478.695	9.23
478.82	16.23
478.945	28.23
479.069	11.23
479.194	13.23
479.319	30.23
479.444	24.23
479.569	18.23
479.693	23.23
479.818	22.23
479.943	29.23
480.068	6.23
480.192	18.23
480.317	41.23
480.442	24.23
480.567	9.23
480.691	21.23
480.816	-0.77
480.941	3.23
481.066	20.23
481.19	18.23
481.315	23.23
481.44	32.23
481.564	-16.77
481.689	18.23
481.814	12.23
481.938	17.23
482.063	13.23
482.188	30.23
482.313	33.23
482.437	14.23
482.562	25.23
482.687	29.23
482.811	-2.77
482.936	27.23
483.061	15.23
483.185	9.23
483.31	19.23
483.435	8.23
483.559	2.23
483.684	31.23
483.808	39.23
483.933	26.23
484.058	34.23
484.182	7.23
484.307	12.23
484.432	32.23
484.556	30.23
484.681	6.23
484.805	19.23
484.93	30.23
485.055	28.23
485.179	52.23
485.304	38.23
485.428	28.23
485.553	18.23
485.678	23.23
485.802	19.23
485.927	32.23
486.051	38.23
486.176	18.23
486.3	10.23
486.425	17.23
486.549	25.23
486.674	35.23
486.799	27.23
486.923	30.23
487.048	13.23
487.172	20.23
487.297	19.23
487.421	38.23
487.546	29.23
487.67	30.23
487.795	14.23
487.919	24.23
488.044	35.23
488.168	28.23
488.293	15.23
488.417	5.23
488.542	21.23
488.666	8.23
488.791	24.23
488.915	22.23
489.04	38.23
489.164	23.23
489.289	37.23
489.413	7.23
489.538	20.23
489.662	29.23
489.786	24.23
489.911	23.23
490.035	23.23
490.16	17.23
490.284	19.23
490.409	0.23
490.533	13.23
490.658	50.23
490.782	26.23
490.906	52.23
491.031	98.23
491.155	149.23
491.28	149.23
491.404	157.23
491.528	271.23
491.653	189.23
491.777	77.23
491.902	34.23
492.026	41.23
492.15	37.23
492.275	34.23
492.399	26.23
492.524	13.23
492.648	22.23
492.772	23.23
492.897	20.23
493.021	6.23
493.145	25.23
493.27	22.23
493.394	14.23
493.518	17.23
493.643	0.23
493.767	28.23
493.891	8.23
494.016	5.23
494.14	13.23
494.264	14.23
494.389	32.23
494.513	-4.77
494.637	6.23
494.762	27.23
494.886	39.23
495.01	29.23
495.134	11.23
495.259	17.23
495.383	13.23
495.507	21.23
495.632	45.23
495.756	49.23
495.88	24.23
496.004	10.23
496.129	1.23
496.253	26.23
496.377	12.23
496.501	18.23
496.626	9.23
496.75	22.23
496.874	21.23
496.998	24.23
497.123	24.23
497.247	39.23
497.371	25.23
497.495	13.23
497.62	17.23
497.744	7.23
497.868	13.23
497.992	24.23
498.116	15.23
498.241	18.23
498.365	11.23
498.489	9.23
498.613	44.23
498.737	31.23
498.862	25.23
498.986	4.23
499.11	35.23
499.234	10.23
499.358	6.23
499.482	25.23
499.607	24.23
499.731	35.23
499.855	43.23
499.979	5.23
500.103	11.23
500.227	31.23
500.351	34.23
500.476	-11.77
500.6	14.23
500.724	27.23
500.848	13.23
500.972	39.23
501.096	14.23
501.22	42.23
501.344	6.23
501.469	18.23
501.593	11.23
501.717	15.23
501.841	16.23
501.965	33.23
502.089	6.23
502.213	39.23
502.337	26.23
502.461	11.23
502.585	25.23
502.709	30.23
502.834	22.23
502.958	30.23
503.082	21.23
503.206	21.23
503.33	32.23
503.454	20.23
503.578	29.23
503.702	20.23
503.826	15.23
503.95	18.23
504.074	12.23
504.198	5.23
504.322	18.23
504.446	22.23
504.57	13.23
504.694	25.23
504.818	22.23
504.942	27.23
505.066	15.23
505.19	14.23
505.314	9.23
505.438	32.23
505.562	16.23
505.686	19.23
505.81	-3.77
505.934	13.23
506.058	21.23
506.182	25.23
506.306	34.23
506.43	1.23
506.554	12.23
506.678	30.23
506.802	6.23
506.926	18.23
507.05	34.23
507.174	30.23
507.298	26.23
507.422	28.23
507.546	39.23
507.67	35.23
507.794	15.23
507.918	34.23
508.042	4.23
508.165	23.23
508.289	20.23
508.413	19.23
508.537	5.23
508.661	31.23
508.785	28.23
508.909	26.23
509.033	25.23
509.157	35.23
509.281	19.23
509.405	13.23
509.528	48.23
509.652	34.23
509.776	26.23
509.9	40.23
510.024	26.23
510.148	31.23
510.272	27.23
510.396	22.23
510.519	18.23
510.643	41.23
510.767	25.23
510.891	50.23
511.015	33.23
511.139	35.23
511.263	46.23
511.386	31.23
511.51	44.23
511.634	30.23
511.758	57.23
511.882	27.23
512.006	25.23
512.129	59.23
512.253	85.23
512.377	84.23
512.501	79.23
512.625	86.23
512.748	72.23
512.872	62.23
512.996	50.23
513.12	57.23
513.244	53.23
513.367	55.23
513.491	55.23
513.615	66.23
513.739	68.23
513.862	90.23
513.986	87.23
514.11	100.23
514.234	85.23
514.358	118.23
514.481	101.23
514.605	104.23
514.729	95.23
514.853	105.23
514.976	74.23
515.1	99.23
515.224	102.23
515.348	93.23
515.471	82.23
515.595	81.23
515.719	125.23
515.842	204.23
515.966	259.23
516.09	302.23
516.214	273.23
516.337	291.23
516.461	225.23
516.585	73.23
516.708	45.23
516.832	33.23
516.956	28.23
517.08	25.23
517.203	-5.77
517.327	23.23
517.451	35.23
517.574	37.23
517.698	9.23
517.822	10.23
517.945	21.23
518.069	25.23
518.193	48.23
518.316	26.23
518.44	16.23
518.564	21.23
518.687	11.23
518.811	26.23
518.935	30.23
519.058	-1.77
519.182	25.23
519.306	28.23
519.429	19.23
519.553	57.23
519.676	31.23
519.8	10.23
519.924	11.23
520.047	20.23
520.171	26.23
520.294	18.23
520.418	19.23
520.542	22.23
520.665	21.23
520.789	15.23
520.913	10.23
521.036	21.23
521.16	-3.77
521.283	11.23
521.407	15.23
521.53	7.23
521.654	-2.77
521.778	39.23
521.901	19.23
522.025	19.23
522.148	16.23
522.272	34.23
522.395	25.23
522.519	23.23
522.643	23.23
522.766	18.23
522.89	19.23
523.013	30.23
523.137	9.23
523.26	2.23
523.384	16.23
523.507	16.23
523.631	21.23
523.754	10.23
523.878	18.23
524.002	17.23
524.125	15.23
524.249	-3.77
524.372	22.23
524.496	15.23
524.619	14.23
524.743	9.23
524.866	-0.77
524.99	23.23
525.113	-5.77
525.237	22.23
525.36	7.23
525.484	27.23
525.607	12.23
525.731	3.23
525.854	22.23
525.978	25.23
526.101	2.23
526.224	-5.77
526.348	16.23
526.471	21.23
526.595	26.23
526.718	14.23
526.842	-4.77
526.965	31.23
527.089	8.23
527.212	25.23
527.336	10.23
527.459	15.23
527.582	9.23
527.706	6.23
527.829	13.23
527.953	7.23
528.076	0.23
528.2	2.23
528.323	22.23
528.446	22.23
528.57	26.23
528.693	24.23
528.817	9.23
528.94	14.23
529.064	31.23
529.187	1.23
529.31	7.23
529.434	-2.77
529.557	6.23
529.68	15.23
529.804	23.23
529.927	18.23
530.051	7.23
530.174	12.23
530.297	24.23
530.421	21.23
530.544	36.23
530.668	25.23
530.791	-1.77
530.914	26.23
531.038	19.23
531.161	28.23
531.284	17.23
531.408	30.23
531.531	12.23
531.654	7.23
531.778	6.23
531.901	10.23
532.024	14.23
532.148	7.23
532.271	25.23
532.394	-2.77
532.518	9.23
532.641	31.23
532.764	21.23
532.888	4.23
533.011	-1.77
533.134	-2.77
533.258	30.23
533.381	13.23
533.504	10.23
533.628	13.23
533.751	23.23
533.874	10.23
533.997	20.23
534.121	19.23
534.244	2.23
534.367	2.23
534.491	11.23
534.614	18.23
534.737	11.23
534.86	26.23
534.984	17.23
535.107	9.23
535.23	17.23
535.354	14.23
535.477	1.23
535.6	25.23
535.723	14.23
535.847	18.23
535.97	5.23
536.093	6.23
536.216	10.23
536.34	29.23
536.463	12.23
536.586	23.23
536.709	21.23
536.833	18.23
536.956	15.23
537.079	13.23
537.202	27.23
537.325	13.23
537.449	15.23
537.572	42.23
537.695	18.23
537.818	21.23
537.941	20.23
538.065	15.23
538.188	9.23
538.311	15.23
538.434	15.23
538.558	23.23
538.681	30.23
538.804	25.23
538.927	30.23
539.05	15.23
539.173	9.23
539.297	9.23
539.42	-9.77
539.543	-9.77
539.666	15.23
539.789	28.23
539.913	16.23
540.036	15.23
540.159	10.23
540.282	7.23
540.405	17.23
540.528	8.23
540.651	29.23
540.775	19.23
540.898	28.23
541.021	31.23
541.144	31.23
541.267	39.23
541.39	24.23
541.513	38.23
541.637	20.23
541.76	23.23
541.883	49.23
542.006	43.23
542.129	47.23
542.252	23.23
542.375	28.23
542.498	27.23
542.622	44.23
542.745	42.23
542.868	47.23
542.991	61.23
543.114	64.23
543.237	42.23
543.36	65.23
543.483	60.23
543.606	55.23
543.73	80.23
543.853	87.23
543.976	91.23
544.099	122.23
544.222	123.23
544.345	146.23
544.468	175.23
544.591	225.23
544.714	270.23
544.837	337.23
544.96	460.23
545.083	673.23
545.206	1108.23
545.329	2490.23
545.453	11240.23
545.576	15301.23
545.699	15684.23
545.822	15684.23
545.945	15684.23
546.068	15684.23
546.191	15684.23
546.314	15684.23
546.437	15684.23
546.56	15684.23
546.683	15684.23
546.806	15684.23
546.929	15684.23
547.052	15684.23
547.175	15684.23
547.298	15684.23
547.421	15684.23
547.544	15684.23
547.667	4243.23
547.79	5418.23
547.913	1537.23
548.036	1021.23
548.159	675.23
548.282	695.23
548.405	507.23
548.528	523.23
548.651	412.23
548.774	418.23
548.897	379.23
549.02	391.23
549.143	328.23
549.266	302.23
549.389	278.23
549.512	263.23
549.635	252.23
549.758	238.23
549.881	221.23
550.004	228.23
550.127	197.23
550.25	206.23
550.373	198.23
550.496	185.23
550.619	142.23
550.742	153.23
550.865	153.23
550.988	178.23
551.111	140.23
551.234	145.23
551.356	124.23
551.479	133.23
551.602	142.23
551.725	142.23
551.848	143.23
551.971	141.23
552.094	130.23
552.217	127.23
552.34	100.23
552.463	98.23
552.586	110.23
552.709	115.23
552.832	106.23
552.955	107.23
553.077	108.23
553.2	84.23
553.323	77.23
553.446	97.23
553.569	90.23
553.692	95.23
553.815	94.23
553.938	112.23
554.061	119.23
554.184	105.23
554.306	79.23
554.429	92.23
554.552	75.23
554.675	63.23
554.798	77.23
554.921	99.23
555.044	65.23
555.167	65.23
555.29	66.23
555.412	71.23
555.535	86.23
555.658	57.23
555.781	75.23
555.904	74.23
556.027	82.23
556.15	94.23
556.272	58.23
556.395	94.23
556.518	68.23
556.641	53.23
556.764	82.23
556.887	76.23
557.01	62.23
557.132	66.23
557.255	58.23
557.378	58.23
557.501	63.23
557.624	61.23
557.747	71.23
557.869	82.23
557.992	72.23
558.115	95.23
558.238	85.23
558.361	94.23
558.483	103.23
558.606	79.23
558.729	46.23
558.852	70.23
558.975	41.23
559.098	61.23
559.22	47.23
559.343	50.23
559.466	51.23
559.589	57.23
559.712	47.23
559.834	61.23
559.957	58.23
560.08	58.23
560.203	56.23
560.325	70.23
560.448	52.23
560.571	44.23
560.694	48.23
560.817	63.23
560.939	60.23
561.062	56.23
561.185	63.23
561.308	62.23
561.43	53.23
561.553	61.23
561.676	68.23
561.799	64.23
561.921	51.23
562.044	52.23
562.167	49.23
562.29	80.23
562.413	66.23
562.535	63.23
562.658	52.23
562.781	48.23
562.903	69.23
563.026	102.23
563.149	139.23
563.272	118.23
563.394	119.23
563.517	89.23
563.64	68.23
563.763	37.23
563.885	43.23
564.008	75.23
564.131	46.23
564.254	28.23
564.376	37.23
564.499	16.23
564.622	33.23
564.744	46.23
564.867	35.23
564.99	37.23
565.113	33.23
565.235	49.23
565.358	40.23
565.481	26.23
565.603	33.23
565.726	48.23
565.849	57.23
565.971	46.23
566.094	35.23
566.217	24.23
566.34	32.23
566.462	39.23
566.585	36.23
566.708	47.23
566.83	34.23
566.953	46.23
567.076	22.23
567.198	34.23
567.321	17.23
567.444	25.23
567.566	26.23
567.689	17.23
567.812	26.23
567.934	37.23
568.057	31.23
568.18	35.23
568.302	19.23
568.425	20.23
568.548	37.23
568.67	23.23
568.793	34.23
568.916	25.23
569.038	23.23
569.161	23.23
569.283	37.23
569.406	29.23
569.529	22.23
569.651	30.23
569.774	22.23
569.897	41.23
570.019	47.23
570.142	44.23
570.265	25.23
570.387	26.23
570.51	33.23
570.632	61.23
570.755	22.23
570.878	40.23
571	58.23
571.123	30.23
571.246	27.23
571.368	43.23
571.491	41.23
571.613	11.23
571.736	19.23
571.859	29.23
571.981	18.23
572.104	7.23
572.226	40.23
572.349	30.23
572.472	50.23
572.594	57.23
572.717	40.23
572.839	19.23
572.962	33.23
573.085	32.23
573.207	46.23
573.33	35.23
573.452	34.23
573.575	39.23
573.697	29.23
573.82	28.23
573.943	39.23
574.065	40.23
574.188	19.23
574.31	43.23
574.433	24.23
574.555	53.23
574.678	43.23
574.801	55.23
574.923	26.23
575.046	35.23
575.168	30.23
575.291	38.23
575.413	50.23
575.536	32.23
575.659	55.23
575.781	56.23
575.904	64.23
576.026	83.23
576.149	79.23
576.271	137.23
576.394	213.23
576.516	535.23
576.639	3757.23
576.761	10350.23
576.884	8970.23
577.007	8960.23
577.129	8206.23
577.252	3822.23
577.374	1370.23
577.497	539.23
577.619	300.23
577.742	187.23
577.864	162.23
577.987	126.23
578.109	141.23
578.232	134.23
578.354	157.23
578.477	194.23
578.599	406.23
578.722	2013.23
578.844	9213.23
578.967	10025.23
579.089	8954.23
579.212	9202.23
579.334	5324.23
579.457	1968.23
579.579	731.23
579.702	327.23
579.824	208.23
579.947	135.23
580.069	106.23
580.192	71.23
580.314	115.23
580.437	69.23
580.559	85.23
580.682	63.23
580.804	77.23
580.927	65.23
581.049	80.23
581.172	53.23
581.294	57.23
581.417	43.23
581.539	43.23
581.662	51.23
581.784	41.23
581.907	49.23
582.029	51.23
582.152	21.23
582.274	59.23
582.396	39.23
582.519	45.23
582.641	37.23
582.764	32.23
582.886	45.23
583.009	34.23
583.131	30.23
583.254	66.23
583.376	32.23
583.499	41.23
583.621	26.23
583.743	45.23
583.866	55.23
583.988	33.23
584.111	34.23
584.233	37.23
584.356	37.23
584.478	38.23
584.601	6.23
584.723	17.23
584.845	38.23
584.968	29.23
585.09	17.23
585.213	36.23
585.335	13.23
585.458	33.23
585.58	26.23
585.702	47.23
585.825	46.23
585.947	22.23
586.07	13.23
586.192	7.23
586.315	32.23
586.437	25.23
586.559	14.23
586.682	5.23
586.804	35.23
586.927	15.23
587.049	29.23
587.171	38.23
587.294	40.23
587.416	50.23
587.539	18.23
587.661	26.23
587.783	23.23
587.906	22.23
588.028	34.23
588.151	17.23
588.273	44.23
588.395	32.23
588.518	28.23
588.64	10.23
588.763	48.23
588.885	25.23
589.007	48.23
589.13	5.23
589.252	16.23
589.375	29.23
589.497	7.23
589.619	39.23
589.742	31.23
589.864	40.23
589.986	29.23
590.109	15.23
590.231	30.23
590.354	31.23
590.476	11.23
590.598	28.23
590.721	22.23
590.843	25.23
590.965	21.23
591.088	23.23
591.21	19.23
591.332	23.23
591.455	10.23
591.577	11.23
591.7	43.23
591.822	17.23
591.944	42.23
592.067	35.23
592.189	35.23
592.311	36.23
592.434	16.23
592.556	33.23
592.678	19.23
592.801	20.23
592.923	17.23
593.045	22.23
593.168	21.23
593.29	25.23
593.412	32.23
593.535	14.23
593.657	9.23
593.779	31.23
593.902	13.23
594.024	22.23
594.146	37.23
594.269	20.23
594.391	17.23
594.513	32.23
594.636	31.23
594.758	10.23
594.88	43.23
595.003	32.23
595.125	27.23
595.247	22.23
595.37	25.23
595.492	19.23
595.614	56.23
595.737	33.23
595.859	23.23
595.981	17.23
596.104	23.23
596.226	31.23
596.348	19.23
596.471	34.23
596.593	23.23
596.715	13.23
596.838	18.23
596.96	11.23
597.082	38.23
597.204	17.23
597.327	35.23
597.449	10.23
597.571	18.23
597.694	34.23
597.816	25.23
597.938	30.23
598.061	15.23
598.183	17.23
598.305	37.23
598.427	28.23
598.55	24.23
598.672	39.23
598.794	41.23
598.917	25.23
599.039	25.23
599.161	43.23
599.283	15.23
599.406	49.23
599.528	33.23
599.65	46.23
599.773	25.23
599.895	43.23
600.017	25.23
600.139	9.23
600.262	11.23
600.384	14.23
600.506	25.23
600.628	41.23
600.751	47.23
600.873	32.23
600.995	13.23
601.118	29.23
601.24	17.23
601.362	39.23
601.484	30.23
601.607	34.23
601.729	21.23
601.851	16.23
601.973	29.23
602.096	25.23
602.218	22.23
602.34	15.23
602.462	39.23
602.585	18.23
602.707	16.23
602.829	33.23
602.951	5.23
603.074	2.23
603.196	26.23
603.318	10.23
603.44	25.23
603.563	29.23
603.685	10.23
603.807	23.23
603.929	21.23
604.052	24.23
604.174	19.23
604.296	25.23
604.418	40.23
604.541	35.23
604.663	23.23
604.785	21.23
604.907	16.23
605.03	3.23
605.152	37.23
605.274	21.23
605.396	17.23
605.519	14.23
605.641	17.23
605.763	17.23
605.885	30.23
606.008	23.23
606.13	22.23
606.252	26.23
606.374	13.23
606.496	7.23
606.619	29.23
606.741	15.23
606.863	35.23
606.985	43.23
607.108	32.23
607.23	5.23
607.352	39.23
607.474	25.23
607.596	10.23
607.719	19.23
607.841	44.23
607.963	11.23
608.085	13.23
608.207	40.23
608.33	26.23
608.452	22.23
608.574	23.23
608.696	34.23
608.819	31.23
608.941	23.23
609.063	28.23
609.185	21.23
609.307	0.23
609.43	41.23
609.552	34.23
609.674	-1.77
609.796	21.23
609.918	21.23
610.041	17.23
610.163	12.23
610.285	13.23
610.407	25.23
610.529	26.23
610.652	16.23
610.774	31.23
610.896	27.23
611.018	32.23
611.14	23.23
611.263	18.23
611.385	13.23
611.507	26.23
611.629	14.23
611.751	32.23
611.873	35.23
611.996	34.23
612.118	34.23
612.24	25.23
612.362	21.23
612.484	39.23
612.607	50.23
612.729	59.23
612.851	23.23
612.973	16.23
613.095	-5.77
613.218	25.23
613.34	23.23
613.462	36.23
613.584	38.23
613.706	24.23
613.828	40.23
613.951	-0.77
614.073	7.23
614.195	0.23
614.317	36.23
614.439	26.23
614.561	25.23
614.684	15.23
614.806	30.23
614.928	27.23
615.05	44.23
615.172	32.23
615.294	10.23
615.417	15.23
615.539	9.23
615.661	11.23
615.783	34.23
615.905	16.23
616.027	5.23
616.15	21.23
616.272	29.23
616.394	14.23
616.516	12.23
616.638	26.23
616.76	17.23
616.883	24.23
617.005	10.23
617.127	7.23
617.249	29.23
617.371	36.23
617.493	33.23
617.615	34.23
617.738	23.23
617.86	27.23
617.982	15.23
618.104	27.23
618.226	0.23
618.348	9.23
618.471	36.23
618.593	34.23
618.715	-4.77
618.837	15.23
618.959	26.23
619.081	35.23
619.203	30.23
619.326	24.23
619.448	41.23
619.57	28.23
619.692	36.23
619.814	32.23
619.936	37.23
620.058	18.23
620.181	30.23
620.303	14.23
620.425	26.23
620.547	12.23
620.669	5.23
620.791	26.23
620.913	12.23
621.036	19.23
621.158	10.23
621.28	16.23
621.402	-2.77
621.524	9.23
621.646	34.23
621.768	14.23
621.891	15.23
622.013	17.23
622.135	-0.77
622.257	5.23
622.379	1.23
622.501	10.23
622.623	34.23
622.745	23.23
622.868	21.23
622.99	11.23
623.112	18.23
623.234	2.23
623.356	13.23
623.478	-1.77
623.6	11.23
623.722	3.23
623.845	18.23
623.967	4.23
624.089	29.23
624.211	22.23
624.333	19.23
624.455	14.23
624.577	23.23
624.699	32.23
624.822	15.23
624.944	9.23
625.066	25.23
625.188	10.23
625.31	32.23
625.432	31.23
625.554	24.23
625.676	58.23
625.799	1.23
625.921	20.23
626.043	26.23
626.165	25.23
626.287	5.23
626.409	35.23
626.531	15.23
626.653	15.23
626.775	15.23
626.898	29.23
627.02	29.23
627.142	44.23
627.264	32.23
627.386	-3.77
627.508	21.23
627.63	6.23
627.752	24.23
627.874	18.23
627.997	23.23
628.119	26.23
628.241	7.23
628.363	24.23
628.485	27.23
628.607	12.23
628.729	8.23
628.851	4.23
628.973	2.23
629.096	-12.77
629.218	3.23
629.34	28.23
629.462	18.23
629.584	11.23
629.706	5.23
629.828	22.23
629.95	14.23
630.072	13.23
630.195	16.23
630.317	21.23
630.439	-2.77
630.561	21.23
630.683	15.23
630.805	24.23
630.927	15.23
631.049	17.23
631.171	3.23
631.293	17.23
631.416	19.23
631.538	25.23
631.66	18.23
631.782	28.23
631.904	21.23
632.026	7.23
632.148	28.23
632.27	8.23
632.392	11.23
632.514	17.23
632.637	20.23
632.759	13.23
632.881	-0.77
633.003	18.23
633.125	1.23
633.247	15.23
633.369	16.23
633.491	5.23
633.613	21.23
633.735	17.23
633.858	24.23
633.98	11.23
634.102	11.23
634.224	10.23
634.346	0.23
634.468	28.23
634.59	24.23
634.712	22.23
634.834	23.23
634.956	11.23
635.078	-7.77
635.201	-4.77
635.323	17.23
635.445	-6.77
635.567	-8.77
635.689	13.23
635.811	11.23
635.933	18.23
636.055	8.23
636.177	17.23
636.299	25.23
636.421	-1.77
636.544	-0.77
636.666	26.23
636.788	14.23
636.91	32.23
637.032	7.23
637.154	14.23
637.276	35.23
637.398	24.23
637.52	16.23
637.642	16.23
637.764	24.23
637.887	27.23
638.009	22.23
638.131	20.23
638.253	10.23
638.375	27.23
638.497	12.23
638.619	7.23
638.741	17.23
638.863	1.23
638.985	10.23
639.107	18.23
639.23	0.23
639.352	21.23
639.474	3.23
639.596	17.23
639.718	7.23
639.84	20.23
639.962	41.23
640.084	21.23
640.206	37.23
640.328	20.23
640.45	45.23
640.573	8.23
640.695	1.23
640.817	6.23
640.939	14.23
641.061	10.23
641.183	13.23
641.305	1.23
641.427	19.23
641.549	13.23
641.671	20.23
641.793	17.23
641.915	26.23
642.038	7.23
642.16	14.23
642.282	12.23
642.404	14.23
642.526	28.23
642.648	11.23
642.77	10.23
642.892	15.23
643.014	19.23
643.136	16.23
643.258	13.23
643.381	27.23
643.503	24.23
643.625	19.23
643.747	10.23
643.869	14.23
643.991	17.23
644.113	10.23
644.235	8.23
644.357	16.23
644.479	21.23
644.601	21.23
644.723	1.23
644.846	9.23
644.968	1.23
645.09	11.23
645.212	-8.77
645.334	30.23
645.456	27.23
645.578	11.23
645.7	18.23
645.822	28.23
645.944	1.23
646.066	8.23
646.188	14.23
646.311	18.23
646.433	1.23
646.555	35.23
646.677	16.23
646.799	18.23
646.921	25.23
647.043	33.23
647.165	-1.77
647.287	-2.77
647.409	14.23
647.531	39.23
647.654	-14.77
647.776	2.23
647.898	23.23
648.02	19.23
648.142	10.23
648.264	30.23
648.386	-5.77
648.508	1.23
648.63	13.23
648.752	21.23
648.874	21.23
648.997	23.23
649.119	41.23
649.241	12.23
649.363	32.23
649.485	14.23
649.607	11.23
649.729	7.23
649.851	11.23
649.973	13.23
650.095	24.23
650.217	17.23
650.34	2.23
650.462	21.23
650.584	18.23
650.706	19.23
650.828	18.23
650.95	-1.77
651.072	12.23
651.194	0.23
651.316	10.23
651.438	21.23
651.56	-3.77
651.683	-10.77
651.805	9.23
651.927	-1.77
652.049	6.23
652.171	23.23
652.293	10.23
652.415	1.23
652.537	-4.77
652.659	-1.77
652.781	16.23
652.903	20.23
653.026	37.23
653.148	22.23
653.27	23.23
653.392	19.23
653.514	6.23
653.636	13.23
653.758	-6.77
653.88	5.23
654.002	-10.77
654.124	7.23
654.247	9.23
654.369	20.23
654.491	7.23
654.613	7.23
654.735	-7.77
654.857	13.23
654.979	3.23
655.101	12.23
655.223	35.23
655.345	18.23
655.468	17.23
655.59	6.23
655.712	27.23
655.834	11.23
655.956	23.23
656.078	15.23
656.2	6.23
656.322	12.23
656.444	-4.77
656.566	6.23
656.689	14.23
656.811	6.23
656.933	19.23
657.055	-7.77
657.177	1.23
657.299	18.23
657.421	8.23
657.543	11.23
657.665	2.23
657.787	6.23
657.91	1.23
658.032	13.23
658.154	11.23
658.276	0.23
658.398	5.23
658.52	18.23
658.642	7.23
658.764	5.23
658.886	-6.77
659.009	23.23
659.131	35.23
659.253	21.23
659.375	21.23
659.497	16.23
659.619	26.23
659.741	14.23
659.863	11.23
659.985	22.23
660.108	19.23
660.23	-0.77
660.352	2.23
660.474	16.23
660.596	5.23
660.718	4.23
660.84	4.23
660.962	-2.77
661.084	2.23
661.207	-8.77
661.329	7.23
661.451	-0.77
661.573	5.23
661.695	34.23
661.817	17.23
661.939	3.23
662.061	19.23
662.184	13.23
662.306	9.23
662.428	15.23
662.55	32.23
662.672	-1.77
662.794	30.23
662.916	10.23
663.038	2.23
663.161	23.23
663.283	13.23
663.405	16.23
663.527	9.23
663.649	2.23
663.771	-0.77
663.893	23.23
664.015	3.23
664.138	10.23
664.26	17.23
664.382	22.23
664.504	13.23
664.626	0.23
664.748	1.23
664.87	-0.77
664.992	34.23
665.115	27.23
665.237	19.23
665.359	-0.77
665.481	16.23
665.603	18.23
665.725	-3.77
665.847	2.23
665.97	20.23
666.092	7.23
666.214	18.23
666.336	2.23
666.458	11.23
666.58	10.23
666.702	-1.77
666.825	1.23
666.947	7.23
667.069	19.23
667.191	5.23
667.313	14.23
667.435	21.23
667.557	8.23
667.68	12.23
667.802	-5.77
667.924	8.23
668.046	18.23
668.168	-5.77
668.29	7.23
668.412	6.23
668.535	15.23
668.657	8.23
668.779	-1.77
668.901	14.23
669.023	25.23
669.145	11.23
669.267	23.23
669.39	27.23
669.512	11.23
669.634	7.23
669.756	2.23
669.878	1.23
670	24.23
670.123	15.23
670.245	21.23
670.367	19.23
670.489	31.23
670.611	9.23
670.733	5.23
670.856	14.23
670.978	10.23
671.1	13.23
671.222	21.23
671.344	13.23
671.466	5.23
671.589	5.23
671.711	14.23
671.833	13.23
671.955	10.23
672.077	-5.77
672.199	21.23
672.322	7.23
672.444	16.23
672.566	9.23
672.688	21.23
672.81	13.23
672.932	28.23
673.055	19.23
673.177	0.23
673.299	18.23
673.421	-1.77
673.543	13.23
673.665	26.23
673.788	23.23
673.91	2.23
674.032	-20.77
674.154	9.23
674.276	21.23
674.399	-8.77
674.521	-5.77
674.643	4.23
674.765	9.23
674.887	15.23
675.009	8.23
675.132	13.23
675.254	3.23
675.376	11.23
675.498	9.23
675.62	3.23
675.743	17.23
675.865	35.23
675.987	17.23
676.109	7.23
676.231	15.23
676.354	23.23
676.476	3.23
676.598	31.23
676.72	4.23
676.842	28.23
676.965	13.23
677.087	8.23
677.209	9.23
677.331	12.23
677.453	-14.77
677.576	2.23
677.698	24.23
677.82	7.23
677.942	-5.77
678.064	1.23
678.187	13.23
678.309	-6.77
678.431	-1.77
678.553	2.23
678.675	41.23
678.798	31.23
678.92	14.23
679.042	6.23
679.164	19.23
679.286	32.23
679.409	-1.77
679.531	-1.77
679.653	-0.77
679.775	2.23
679.898	6.23
680.02	-2.77
680.142	7.23
680.264	-12.77
680.386	0.23
680.509	15.23
680.631	24.23
680.753	22.23
680.875	6.23
680.998	6.23
681.12	-7.77
681.242	5.23
681.364	3.23
681.486	21.23
681.609	9.23
681.731	-11.77
681.853	14.23
681.975	5.23
682.098	17.23
682.22	25.23
682.342	6.23
682.464	14.23
682.587	18.23
682.709	3.23
682.831	-7.77
682.953	2.23
683.076	-0.77
683.198	6.23
683.32	14.23
683.442	5.23
683.565	23.23
683.687	15.23
683.809	5.23
683.931	-10.77
684.054	6.23
684.176	26.23
684.298	3.23
684.42	18.23
684.543	21.23
684.665	3.23
684.787	1.23
684.909	5.23
685.032	25.23
685.154	-1.77
685.276	6.23
685.398	-1.77
685.521	-6.77
685.643	18.23
685.765	36.23
685.887	26.23
686.01	5.23
686.132	6.23
686.254	12.23
686.377	7.23
686.499	27.23
686.621	26.23
686.743	6.23
686.866	9.23
686.988	40.23
687.11	28.23
687.232	16.23
687.355	1.23
687.477	11.23
687.599	15.23
687.722	9.23
687.844	13.23
687.966	24.23
688.088	0.23
688.211	26.23
688.333	17.23
688.455	7.23
688.578	24.23
688.7	34.23
688.822	15.23
688.944	-2.77
689.067	44.23
689.189	3.23
689.311	-18.77
689.434	10.23
689.556	0.23
689.678	24.23
689.801	-11.77
689.923	19.23
690.045	40.23
690.167	26.23
690.29	37.23
690.412	24.23
690.534	23.23
690.657	6.23
690.779	2.23
690.901	18.23
691.024	9.23
691.146	14.23
691.268	-7.77
691.391	16.23
691.513	23.23
691.635	16.23
691.758	9.23
691.88	25.23
692.002	14.23
692.125	-1.77
692.247	3.23
692.369	18.23
692.492	2.23
692.614	5.23
692.736	-12.77
692.859	1.23
692.981	14.23
693.103	16.23
693.226	21.23
693.348	50.23
693.47	16.23
693.593	31.23
693.715	28.23
693.837	36.23
693.96	10.23
694.082	6.23
694.204	15.23
694.327	29.23
694.449	10.23
694.571	26.23
694.694	8.23
694.816	18.23
694.938	5.23
695.061	-1.77
695.183	18.23
695.305	27.23
695.428	21.23
695.55	2.23
695.672	-6.77
695.795	19.23
695.917	30.23
696.04	23.23
696.162	6.23
696.284	11.23
696.407	26.23
696.529	26.23
696.651	45.23
696.774	24.23
696.896	24.23
697.019	-0.77
697.141	2.23
697.263	11.23
697.386	12.23
697.508	7.23
697.63	12.23
697.753	10.23
697.875	7.23
697.998	13.23
698.12	9.23
698.242	18.23
698.365	25.23
698.487	5.23
698.61	22.23
698.732	5.23
698.854	8.23
698.977	12.23
699.099	17.23
699.221	0.23
699.344	26.23
699.466	21.23
699.589	1.23
699.711	-5.77
699.834	6.23
699.956	18.23
700.078	3.23
700.201	-10.77
700.323	21.23
700.446	8.23
700.568	-0.77
700.69	17.23
700.813	29.23
700.935	21.23
701.058	4.23
701.18	14.23
701.302	26.23
701.425	8.23
701.547	18.23
701.67	12.23
701.792	5.23
701.915	-4.77
702.037	12.23
702.159	7.23
702.282	19.23
702.404	9.23
702.527	19.23
702.649	46.23
702.772	21.23
702.894	19.23
703.017	6.23
703.139	18.23
703.261	9.23
703.384	11.23
703.506	-13.77
703.629	-2.77
703.751	9.23
703.874	16.23
703.996	-0.77
704.119	-8.77
704.241	2.23
704.364	5.23
704.486	7.23
704.608	18.23
704.731	-0.77
704.853	9.23
704.976	-6.77
705.098	14.23
705.221	2.23
705.343	-4.77
705.466	15.23
705.588	13.23
705.711	11.23
705.833	25.23
705.956	15.23
706.078	25.23
706.201	6.23
706.323	21.23
706.446	1.23
