Data from LowRes_mercury_15_20_11_07_2024_HR4C61881__35__15-23-35-771.txt Node

Date: Thu Nov 07 15:23:35 EST 2024
User: crc00042
Spectrometer: HR4C6188
Trigger mode: 4
Integration Time (sec): 1.000000E-1
Scans to average: 1
Electric dark correction enabled: true
Nonlinearity correction enabled: false
Boxcar width: 0
XAxis mode: Wavelengths
Number of Pixels in Spectrum: 3648
>>>>>Begin Spectral Data<<<<<
245.66	-72.38
245.797	-72.38
245.934	-72.38
246.071	-69.38
246.208	3.62
246.344	8.62
246.481	-13.38
246.618	3.62
246.755	5.62
246.892	11.62
247.029	-12.38
247.165	-15.38
247.302	23.62
247.439	-2.38
247.576	2.62
247.713	-23.38
247.849	21.62
247.986	-10.38
248.123	-7.38
248.26	4.62
248.396	-2.38
248.533	11.62
248.67	-3.38
248.806	14.62
248.943	-14.38
249.08	-4.38
249.216	14.62
249.353	-13.38
249.49	-11.38
249.626	-6.38
249.763	-0.38
249.9	-5.38
250.036	8.62
250.173	14.62
250.309	6.62
250.446	11.62
250.582	-12.38
250.719	-23.38
250.856	-8.38
250.992	-15.38
251.129	8.62
251.265	0.62
251.402	-19.38
251.538	-9.38
251.675	-8.38
251.811	13.62
251.948	18.62
252.084	4.62
252.221	5.62
252.357	0.62
252.493	19.62
252.63	-1.38
252.766	12.62
252.903	0.62
253.039	-15.38
253.175	0.62
253.312	-1.38
253.448	-9.38
253.585	-15.38
253.721	5.62
253.857	-5.38
253.994	2.62
254.13	-8.38
254.266	3.62
254.403	1.62
254.539	14.62
254.675	10.62
254.811	-6.38
254.948	7.62
255.084	-17.38
255.22	-15.38
255.356	7.62
255.493	4.62
255.629	-4.38
255.765	3.62
255.901	13.62
256.037	-4.38
256.174	-2.38
256.31	5.62
256.446	-6.38
256.582	-1.38
256.718	10.62
256.854	12.62
256.991	6.62
257.127	14.62
257.263	-1.38
257.399	8.62
257.535	-18.38
257.671	-2.38
257.807	-16.38
257.943	2.62
258.079	-8.38
258.215	-9.38
258.351	20.62
258.487	6.62
258.623	20.62
258.759	8.62
258.895	-20.38
259.031	-17.38
259.167	-20.38
259.303	8.62
259.439	13.62
259.575	-4.38
259.711	-3.38
259.847	-5.38
259.983	0.62
260.119	1.62
260.255	-0.38
260.391	11.62
260.527	7.62
260.663	18.62
260.799	7.62
260.934	-9.38
261.07	5.62
261.206	-9.38
261.342	-25.38
261.478	11.62
261.614	30.62
261.749	4.62
261.885	-4.38
262.021	7.62
262.157	10.62
262.293	9.62
262.428	2.62
262.564	14.62
262.7	21.62
262.836	-9.38
262.971	16.62
263.107	7.62
263.243	17.62
263.378	9.62
263.514	-14.38
263.65	13.62
263.785	-15.38
263.921	-11.38
264.057	-9.38
264.192	0.62
264.328	20.62
264.464	-12.38
264.599	10.62
264.735	14.62
264.871	-6.38
265.006	5.62
265.142	-12.38
265.277	-1.38
265.413	10.62
265.548	1.62
265.684	15.62
265.819	-10.38
265.955	-12.38
266.091	-10.38
266.226	-11.38
266.362	-9.38
266.497	-10.38
266.633	-12.38
266.768	-0.38
266.903	21.62
267.039	20.62
267.174	31.62
267.31	3.62
267.445	-19.38
267.581	-3.38
267.716	13.62
267.851	16.62
267.987	3.62
268.122	4.62
268.258	8.62
268.393	-0.38
268.528	12.62
268.664	0.62
268.799	-12.38
268.934	11.62
269.07	-20.38
269.205	7.62
269.34	10.62
269.476	19.62
269.611	-6.38
269.746	24.62
269.881	6.62
270.017	10.62
270.152	-2.38
270.287	-5.38
270.422	27.62
270.558	8.62
270.693	18.62
270.828	9.62
270.963	-3.38
271.098	-4.38
271.234	-1.38
271.369	17.62
271.504	-10.38
271.639	4.62
271.774	-5.38
271.909	11.62
272.045	-15.38
272.18	-12.38
272.315	4.62
272.45	13.62
272.585	-3.38
272.72	-1.38
272.855	6.62
272.99	22.62
273.125	-4.38
273.26	6.62
273.395	23.62
273.53	-1.38
273.665	5.62
273.8	-0.38
273.935	6.62
274.07	19.62
274.205	3.62
274.34	-7.38
274.475	-7.38
274.61	5.62
274.745	6.62
274.88	-2.38
275.015	-15.38
275.15	1.62
275.285	3.62
275.42	14.62
275.555	22.62
275.69	8.62
275.825	3.62
275.959	-3.38
276.094	2.62
276.229	11.62
276.364	-3.38
276.499	-5.38
276.634	3.62
276.768	3.62
276.903	5.62
277.038	5.62
277.173	3.62
277.308	-14.38
277.442	-2.38
277.577	9.62
277.712	4.62
277.847	-12.38
277.981	0.62
278.116	-27.38
278.251	-3.38
278.386	2.62
278.52	11.62
278.655	-5.38
278.79	13.62
278.924	11.62
279.059	18.62
279.194	-0.38
279.328	39.62
279.463	14.62
279.598	10.62
279.732	17.62
279.867	20.62
280.001	18.62
280.136	2.62
280.271	6.62
280.405	20.62
280.54	-8.38
280.674	3.62
280.809	14.62
280.943	0.62
281.078	2.62
281.213	13.62
281.347	21.62
281.482	5.62
281.616	-14.38
281.751	-9.38
281.885	-9.38
282.02	-10.38
282.154	0.62
282.288	-20.38
282.423	-11.38
282.557	-2.38
282.692	20.62
282.826	4.62
282.961	12.62
283.095	-12.38
283.229	-16.38
283.364	-12.38
283.498	4.62
283.633	-3.38
283.767	0.62
283.901	4.62
284.036	0.62
284.17	-15.38
284.304	1.62
284.439	6.62
284.573	-6.38
284.707	3.62
284.842	-5.38
284.976	-9.38
285.11	-11.38
285.244	2.62
285.379	42.62
285.513	-5.38
285.647	16.62
285.781	19.62
285.916	28.62
286.05	-12.38
286.184	11.62
286.318	10.62
286.453	-5.38
286.587	-18.38
286.721	-16.38
286.855	10.62
286.989	27.62
287.123	-6.38
287.258	-6.38
287.392	11.62
287.526	9.62
287.66	-3.38
287.794	-4.38
287.928	-18.38
288.062	19.62
288.196	9.62
288.33	8.62
288.464	11.62
288.598	2.62
288.733	5.62
288.867	13.62
289.001	7.62
289.135	6.62
289.269	-11.38
289.403	4.62
289.537	-0.38
289.671	6.62
289.805	-15.38
289.939	13.62
290.073	13.62
290.207	6.62
290.34	13.62
290.474	15.62
290.608	7.62
290.742	-1.38
290.876	6.62
291.01	14.62
291.144	31.62
291.278	13.62
291.412	-17.38
291.546	12.62
291.679	-7.38
291.813	6.62
291.947	12.62
292.081	-10.38
292.215	6.62
292.349	1.62
292.482	-2.38
292.616	-6.38
292.75	3.62
292.884	3.62
293.018	-3.38
293.151	-15.38
293.285	-1.38
293.419	-2.38
293.553	0.62
293.686	-10.38
293.82	9.62
293.954	16.62
294.088	28.62
294.221	-4.38
294.355	-3.38
294.489	-16.38
294.622	-4.38
294.756	-6.38
294.89	16.62
295.023	12.62
295.157	15.62
295.291	7.62
295.424	18.62
295.558	9.62
295.691	-7.38
295.825	-10.38
295.959	7.62
296.092	-16.38
296.226	7.62
296.359	2.62
296.493	12.62
296.627	-3.38
296.76	-1.38
296.894	-2.38
297.027	1.62
297.161	-6.38
297.294	-7.38
297.428	20.62
297.561	19.62
297.695	-13.38
297.828	-1.38
297.962	-3.38
298.095	-4.38
298.229	-3.38
298.362	-6.38
298.495	-22.38
298.629	-8.38
298.762	-5.38
298.896	-7.38
299.029	-25.38
299.162	10.62
299.296	7.62
299.429	-10.38
299.563	11.62
299.696	0.62
299.829	2.62
299.963	14.62
300.096	18.62
300.229	0.62
300.363	-2.38
300.496	19.62
300.629	-10.38
300.763	-6.38
300.896	5.62
301.029	7.62
301.162	-0.38
301.296	5.62
301.429	2.62
301.562	-33.38
301.695	-4.38
301.829	-2.38
301.962	9.62
302.095	2.62
302.228	-13.38
302.362	-6.38
302.495	4.62
302.628	21.62
302.761	0.62
302.894	-0.38
303.027	12.62
303.161	-6.38
303.294	-8.38
303.427	-18.38
303.56	-8.38
303.693	18.62
303.826	1.62
303.959	-17.38
304.092	7.62
304.225	-9.38
304.359	-1.38
304.492	3.62
304.625	-3.38
304.758	13.62
304.891	-19.38
305.024	-4.38
305.157	-10.38
305.29	-15.38
305.423	7.62
305.556	6.62
305.689	13.62
305.822	9.62
305.955	-12.38
306.088	-16.38
306.221	-4.38
306.354	-3.38
306.487	0.62
306.62	-12.38
306.752	-9.38
306.885	-3.38
307.018	-15.38
307.151	-7.38
307.284	9.62
307.417	-11.38
307.55	12.62
307.683	1.62
307.816	29.62
307.948	-6.38
308.081	6.62
308.214	6.62
308.347	14.62
308.48	-10.38
308.613	-11.38
308.745	13.62
308.878	-5.38
309.011	-6.38
309.144	12.62
309.277	4.62
309.409	22.62
309.542	5.62
309.675	8.62
309.808	14.62
309.94	20.62
310.073	-17.38
310.206	-3.38
310.339	5.62
310.471	2.62
310.604	10.62
310.737	-9.38
310.869	15.62
311.002	18.62
311.135	6.62
311.267	-21.38
311.4	-6.38
311.533	15.62
311.665	-2.38
311.798	3.62
311.93	5.62
312.063	19.62
312.196	46.62
312.328	86.62
312.461	56.62
312.593	32.62
312.726	28.62
312.859	91.62
312.991	156.62
313.124	50.62
313.256	27.62
313.389	2.62
313.521	-3.38
313.654	3.62
313.786	-11.38
313.919	-11.38
314.051	-24.38
314.184	5.62
314.316	7.62
314.449	-17.38
314.581	-9.38
314.714	6.62
314.846	5.62
314.978	-10.38
315.111	-16.38
315.243	-2.38
315.376	9.62
315.508	12.62
315.641	5.62
315.773	14.62
315.905	19.62
316.038	-9.38
316.17	-5.38
316.302	13.62
316.435	8.62
316.567	2.62
316.699	24.62
316.832	-15.38
316.964	6.62
317.096	-1.38
317.229	-13.38
317.361	-24.38
317.493	3.62
317.625	-17.38
317.758	2.62
317.89	16.62
318.022	5.62
318.155	5.62
318.287	-2.38
318.419	-9.38
318.551	14.62
318.683	11.62
318.816	2.62
318.948	4.62
319.08	-3.38
319.212	-5.38
319.344	6.62
319.477	11.62
319.609	4.62
319.741	10.62
319.873	-1.38
320.005	1.62
320.137	-9.38
320.269	18.62
320.401	12.62
320.534	-16.38
320.666	-18.38
320.798	-13.38
320.93	-3.38
321.062	-11.38
321.194	3.62
321.326	8.62
321.458	-0.38
321.59	1.62
321.722	-10.38
321.854	-13.38
321.986	-7.38
322.118	-7.38
322.25	-31.38
322.382	5.62
322.514	-5.38
322.646	-20.38
322.778	26.62
322.91	-3.38
323.042	15.62
323.174	8.62
323.306	-3.38
323.438	-9.38
323.57	-8.38
323.702	5.62
323.834	8.62
323.966	-24.38
324.097	0.62
324.229	8.62
324.361	10.62
324.493	5.62
324.625	-18.38
324.757	-6.38
324.889	8.62
325.021	-2.38
325.152	8.62
325.284	25.62
325.416	-1.38
325.548	15.62
325.68	-9.38
325.811	16.62
325.943	-0.38
326.075	4.62
326.207	8.62
326.339	2.62
326.47	19.62
326.602	20.62
326.734	4.62
326.866	4.62
326.997	2.62
327.129	8.62
327.261	2.62
327.392	-0.38
327.524	3.62
327.656	-5.38
327.787	3.62
327.919	14.62
328.051	20.62
328.182	34.62
328.314	3.62
328.446	-6.38
328.577	21.62
328.709	15.62
328.841	0.62
328.972	-10.38
329.104	-7.38
329.235	12.62
329.367	-11.38
329.499	-26.38
329.63	5.62
329.762	14.62
329.893	3.62
330.025	5.62
330.156	-1.38
330.288	13.62
330.419	18.62
330.551	33.62
330.683	16.62
330.814	-10.38
330.946	6.62
331.077	-9.38
331.208	-3.38
331.34	-12.38
331.471	-20.38
331.603	5.62
331.734	-3.38
331.866	22.62
331.997	7.62
332.129	-0.38
332.26	0.62
332.392	16.62
332.523	10.62
332.654	-6.38
332.786	-6.38
332.917	14.62
333.048	13.62
333.18	29.62
333.311	2.62
333.443	11.62
333.574	7.62
333.705	24.62
333.837	47.62
333.968	112.62
334.099	240.62
334.231	201.62
334.362	62.62
334.493	25.62
334.624	-8.38
334.756	14.62
334.887	3.62
335.018	5.62
335.15	5.62
335.281	-7.38
335.412	16.62
335.543	15.62
335.675	3.62
335.806	17.62
335.937	-4.38
336.068	9.62
336.199	31.62
336.331	4.62
336.462	8.62
336.593	15.62
336.724	-4.38
336.855	12.62
336.986	19.62
337.118	37.62
337.249	23.62
337.38	9.62
337.511	-1.38
337.642	17.62
337.773	9.62
337.904	11.62
338.035	21.62
338.166	24.62
338.298	3.62
338.429	-9.38
338.56	11.62
338.691	30.62
338.822	20.62
338.953	1.62
339.084	14.62
339.215	22.62
339.346	17.62
339.477	17.62
339.608	13.62
339.739	14.62
339.87	24.62
340.001	-1.38
340.132	11.62
340.263	5.62
340.394	38.62
340.525	-0.38
340.656	6.62
340.787	-6.38
340.918	40.62
341.049	6.62
341.179	15.62
341.31	4.62
341.441	17.62
341.572	4.62
341.703	19.62
341.834	-10.38
341.965	25.62
342.096	28.62
342.227	2.62
342.357	3.62
342.488	12.62
342.619	-0.38
342.75	-2.38
342.881	3.62
343.012	14.62
343.142	49.62
343.273	11.62
343.404	20.62
343.535	56.62
343.666	21.62
343.796	38.62
343.927	21.62
344.058	34.62
344.189	27.62
344.319	25.62
344.45	13.62
344.581	25.62
344.712	10.62
344.842	23.62
344.973	21.62
345.104	39.62
345.234	15.62
345.365	24.62
345.496	5.62
345.626	32.62
345.757	26.62
345.888	10.62
346.018	24.62
346.149	34.62
346.28	49.62
346.41	3.62
346.541	19.62
346.672	25.62
346.802	36.62
346.933	38.62
347.063	10.62
347.194	14.62
347.325	22.62
347.455	42.62
347.586	30.62
347.716	0.62
347.847	42.62
347.977	34.62
348.108	46.62
348.238	62.62
348.369	26.62
348.499	38.62
348.63	52.62
348.76	49.62
348.891	46.62
349.021	50.62
349.152	47.62
349.282	51.62
349.413	42.62
349.543	79.62
349.674	28.62
349.804	44.62
349.935	27.62
350.065	40.62
350.196	14.62
350.326	28.62
350.456	22.62
350.587	27.62
350.717	17.62
350.848	36.62
350.978	18.62
351.108	-3.38
351.239	30.62
351.369	45.62
351.499	33.62
351.63	19.62
351.76	18.62
351.89	17.62
352.021	20.62
352.151	13.62
352.281	14.62
352.412	25.62
352.542	20.62
352.672	10.62
352.803	26.62
352.933	13.62
353.063	12.62
353.193	11.62
353.324	33.62
353.454	14.62
353.584	35.62
353.714	10.62
353.845	6.62
353.975	21.62
354.105	24.62
354.235	33.62
354.365	10.62
354.496	10.62
354.626	25.62
354.756	22.62
354.886	19.62
355.016	31.62
355.146	35.62
355.277	29.62
355.407	24.62
355.537	17.62
355.667	25.62
355.797	18.62
355.927	1.62
356.057	30.62
356.187	19.62
356.318	50.62
356.448	25.62
356.578	31.62
356.708	42.62
356.838	35.62
356.968	21.62
357.098	26.62
357.228	30.62
357.358	4.62
357.488	25.62
357.618	53.62
357.748	42.62
357.878	31.62
358.008	22.62
358.138	10.62
358.268	0.62
358.398	37.62
358.528	15.62
358.658	20.62
358.788	32.62
358.918	39.62
359.048	22.62
359.178	28.62
359.308	16.62
359.438	69.62
359.568	29.62
359.698	28.62
359.827	31.62
359.957	27.62
360.087	24.62
360.217	15.62
360.347	28.62
360.477	27.62
360.607	7.62
360.737	22.62
360.866	5.62
360.996	5.62
361.126	0.62
361.256	31.62
361.386	41.62
361.516	23.62
361.645	7.62
361.775	32.62
361.905	14.62
362.035	32.62
362.165	27.62
362.294	50.62
362.424	48.62
362.554	61.62
362.684	26.62
362.813	33.62
362.943	46.62
363.073	50.62
363.203	72.62
363.332	67.62
363.462	79.62
363.592	87.62
363.721	130.62
363.851	163.62
363.981	187.62
364.111	259.62
364.24	314.62
364.37	471.62
364.5	886.62
364.629	1816.62
364.759	3916.62
364.888	6362.62
365.018	9526.62
365.148	14855.62
365.277	13064.62
365.407	4804.62
365.537	3135.62
365.666	4102.62
365.796	1869.62
365.925	807.62
366.055	790.62
366.184	1071.62
366.314	1400.62
366.444	2503.62
366.573	2145.62
366.703	652.62
366.832	231.62
366.962	124.62
367.091	78.62
367.221	63.62
367.35	40.62
367.48	90.62
367.609	31.62
367.739	50.62
367.868	28.62
367.998	43.62
368.127	52.62
368.257	56.62
368.386	64.62
368.516	49.62
368.645	22.62
368.775	23.62
368.904	35.62
369.033	28.62
369.163	25.62
369.292	54.62
369.422	55.62
369.551	49.62
369.68	30.62
369.81	38.62
369.939	28.62
370.069	45.62
370.198	40.62
370.327	8.62
370.457	21.62
370.586	32.62
370.715	28.62
370.845	31.62
370.974	28.62
371.103	53.62
371.233	42.62
371.362	55.62
371.491	27.62
371.621	48.62
371.75	42.62
371.879	30.62
372.008	49.62
372.138	48.62
372.267	51.62
372.396	46.62
372.525	48.62
372.655	30.62
372.784	32.62
372.913	21.62
373.042	30.62
373.172	26.62
373.301	8.62
373.43	-4.38
373.559	12.62
373.688	35.62
373.818	36.62
373.947	35.62
374.076	5.62
374.205	18.62
374.334	5.62
374.463	4.62
374.593	30.62
374.722	19.62
374.851	19.62
374.98	20.62
375.109	28.62
375.238	43.62
375.367	37.62
375.496	11.62
375.625	7.62
375.755	22.62
375.884	23.62
376.013	43.62
376.142	16.62
376.271	8.62
376.4	18.62
376.529	17.62
376.658	25.62
376.787	29.62
376.916	17.62
377.045	7.62
377.174	20.62
377.303	14.62
377.432	39.62
377.561	57.62
377.69	9.62
377.819	32.62
377.948	18.62
378.077	12.62
378.206	-0.38
378.335	0.62
378.464	17.62
378.593	17.62
378.722	1.62
378.851	20.62
378.98	11.62
379.108	6.62
379.237	-3.38
379.366	1.62
379.495	31.62
379.624	14.62
379.753	30.62
379.882	-9.38
380.011	13.62
380.14	-0.38
380.268	7.62
380.397	18.62
380.526	28.62
380.655	28.62
380.784	-7.38
380.913	20.62
381.041	-20.38
381.17	-11.38
381.299	9.62
381.428	17.62
381.557	15.62
381.685	-6.38
381.814	13.62
381.943	-1.38
382.072	-2.38
382.2	5.62
382.329	25.62
382.458	20.62
382.587	30.62
382.715	31.62
382.844	27.62
382.973	32.62
383.102	12.62
383.23	5.62
383.359	6.62
383.488	40.62
383.616	12.62
383.745	1.62
383.874	-0.38
384.003	18.62
384.131	0.62
384.26	-2.38
384.389	28.62
384.517	16.62
384.646	-6.38
384.774	16.62
384.903	25.62
385.032	20.62
385.16	31.62
385.289	31.62
385.418	12.62
385.546	15.62
385.675	10.62
385.803	27.62
385.932	28.62
386.06	23.62
386.189	12.62
386.318	16.62
386.446	21.62
386.575	21.62
386.703	34.62
386.832	20.62
386.96	7.62
387.089	40.62
387.217	26.62
387.346	5.62
387.474	19.62
387.603	26.62
387.731	6.62
387.86	25.62
387.988	38.62
388.117	29.62
388.245	23.62
388.374	17.62
388.502	6.62
388.631	11.62
388.759	26.62
388.888	28.62
389.016	7.62
389.144	14.62
389.273	4.62
389.401	5.62
389.53	8.62
389.658	15.62
389.786	-7.38
389.915	0.62
390.043	9.62
390.172	25.62
390.3	37.62
390.428	32.62
390.557	16.62
390.685	32.62
390.813	45.62
390.942	28.62
391.07	10.62
391.198	15.62
391.327	6.62
391.455	16.62
391.583	32.62
391.712	13.62
391.84	2.62
391.968	26.62
392.096	18.62
392.225	6.62
392.353	28.62
392.481	23.62
392.609	40.62
392.738	40.62
392.866	16.62
392.994	5.62
393.122	38.62
393.251	20.62
393.379	5.62
393.507	8.62
393.635	16.62
393.764	31.62
393.892	20.62
394.02	14.62
394.148	28.62
394.276	23.62
394.404	34.62
394.533	21.62
394.661	31.62
394.789	38.62
394.917	37.62
395.045	8.62
395.173	6.62
395.302	15.62
395.43	25.62
395.558	41.62
395.686	31.62
395.814	36.62
395.942	25.62
396.07	34.62
396.198	46.62
396.326	30.62
396.454	34.62
396.582	23.62
396.711	19.62
396.839	43.62
396.967	26.62
397.095	14.62
397.223	29.62
397.351	28.62
397.479	35.62
397.607	41.62
397.735	43.62
397.863	42.62
397.991	42.62
398.119	47.62
398.247	37.62
398.375	54.62
398.503	45.62
398.631	41.62
398.759	69.62
398.887	71.62
399.015	38.62
399.143	60.62
399.271	65.62
399.399	72.62
399.526	64.62
399.654	73.62
399.782	47.62
399.91	105.62
400.038	89.62
400.166	74.62
400.294	86.62
400.422	50.62
400.55	104.62
400.678	112.62
400.805	107.62
400.933	94.62
401.061	109.62
401.189	105.62
401.317	135.62
401.445	111.62
401.573	69.62
401.7	48.62
401.828	59.62
401.956	55.62
402.084	55.62
402.212	17.62
402.34	24.62
402.467	37.62
402.595	30.62
402.723	35.62
402.851	52.62
402.978	52.62
403.106	61.62
403.234	85.62
403.362	115.62
403.489	119.62
403.617	150.62
403.745	212.62
403.873	286.62
404	558.62
404.128	1478.62
404.256	3976.62
404.384	5115.62
404.511	5516.62
404.639	7273.62
404.767	11544.62
404.894	14690.62
405.022	5023.62
405.15	1323.62
405.277	407.62
405.405	243.62
405.533	132.62
405.66	112.62
405.788	60.62
405.916	60.62
406.043	33.62
406.171	55.62
406.299	41.62
406.426	58.62
406.554	57.62
406.681	59.62
406.809	44.62
406.937	59.62
407.064	57.62
407.192	121.62
407.319	308.62
407.447	512.62
407.574	537.62
407.702	637.62
407.83	874.62
407.957	1622.62
408.085	952.62
408.212	275.62
408.34	86.62
408.467	44.62
408.595	38.62
408.722	66.62
408.85	54.62
408.977	31.62
409.105	50.62
409.232	47.62
409.36	32.62
409.487	25.62
409.615	32.62
409.742	28.62
409.87	22.62
409.997	39.62
410.125	28.62
410.252	40.62
410.379	33.62
410.507	28.62
410.634	32.62
410.762	24.62
410.889	28.62
411.017	39.62
411.144	36.62
411.271	20.62
411.399	24.62
411.526	32.62
411.653	40.62
411.781	46.62
411.908	29.62
412.036	31.62
412.163	53.62
412.29	25.62
412.418	29.62
412.545	51.62
412.672	19.62
412.8	57.62
412.927	36.62
413.054	48.62
413.182	35.62
413.309	28.62
413.436	13.62
413.564	30.62
413.691	21.62
413.818	31.62
413.945	18.62
414.073	26.62
414.2	25.62
414.327	30.62
414.454	11.62
414.582	19.62
414.709	21.62
414.836	32.62
414.963	22.62
415.091	53.62
415.218	26.62
415.345	17.62
415.472	26.62
415.6	16.62
415.727	26.62
415.854	18.62
415.981	19.62
416.108	17.62
416.236	12.62
416.363	8.62
416.49	13.62
416.617	39.62
416.744	46.62
416.871	31.62
416.998	30.62
417.126	6.62
417.253	22.62
417.38	17.62
417.507	21.62
417.634	42.62
417.761	55.62
417.888	29.62
418.015	17.62
418.143	28.62
418.27	37.62
418.397	22.62
418.524	28.62
418.651	13.62
418.778	31.62
418.905	46.62
419.032	36.62
419.159	45.62
419.286	43.62
419.413	41.62
419.54	53.62
419.667	41.62
419.794	30.62
419.921	34.62
420.048	55.62
420.175	57.62
420.302	31.62
420.429	55.62
420.556	39.62
420.683	37.62
420.81	52.62
420.937	67.62
421.064	76.62
421.191	70.62
421.318	66.62
421.445	72.62
421.572	54.62
421.699	48.62
421.826	44.62
421.953	30.62
422.08	30.62
422.207	31.62
422.334	9.62
422.461	32.62
422.588	13.62
422.714	27.62
422.841	37.62
422.968	37.62
423.095	3.62
423.222	21.62
423.349	30.62
423.476	28.62
423.603	4.62
423.729	-6.38
423.856	11.62
423.983	23.62
424.11	4.62
424.237	31.62
424.364	35.62
424.491	29.62
424.617	5.62
424.744	3.62
424.871	31.62
424.998	7.62
425.125	16.62
425.251	28.62
425.378	23.62
425.505	24.62
425.632	25.62
425.758	18.62
425.885	19.62
426.012	37.62
426.139	24.62
426.266	15.62
426.392	28.62
426.519	38.62
426.646	25.62
426.772	18.62
426.899	24.62
427.026	28.62
427.153	27.62
427.279	38.62
427.406	26.62
427.533	20.62
427.659	31.62
427.786	29.62
427.913	49.62
428.039	21.62
428.166	13.62
428.293	26.62
428.419	37.62
428.546	35.62
428.673	28.62
428.799	10.62
428.926	5.62
429.053	38.62
429.179	45.62
429.306	32.62
429.433	54.62
429.559	44.62
429.686	9.62
429.812	5.62
429.939	29.62
430.066	23.62
430.192	12.62
430.319	23.62
430.445	17.62
430.572	31.62
430.699	19.62
430.825	25.62
430.952	25.62
431.078	42.62
431.205	36.62
431.331	23.62
431.458	31.62
431.584	48.62
431.711	10.62
431.837	26.62
431.964	25.62
432.09	31.62
432.217	0.62
432.343	30.62
432.47	41.62
432.596	28.62
432.723	13.62
432.849	7.62
432.976	28.62
433.102	25.62
433.229	37.62
433.355	67.62
433.482	77.62
433.608	96.62
433.735	102.62
433.861	111.62
433.987	150.62
434.114	185.62
434.24	156.62
434.367	227.62
434.493	201.62
434.62	289.62
434.746	393.62
434.872	616.62
434.999	855.62
435.125	1759.62
435.252	5583.62
435.378	13452.62
435.504	15234.62
435.631	15442.62
435.757	15681.62
435.883	15681.62
436.01	15681.62
436.136	15681.62
436.262	15681.62
436.389	3542.62
436.515	2492.62
436.641	847.62
436.768	655.62
436.894	408.62
437.02	380.62
437.147	294.62
437.273	280.62
437.399	208.62
437.526	256.62
437.652	181.62
437.778	179.62
437.904	162.62
438.031	189.62
438.157	142.62
438.283	150.62
438.409	114.62
438.536	124.62
438.662	131.62
438.788	143.62
438.914	120.62
439.041	104.62
439.167	108.62
439.293	96.62
439.419	87.62
439.546	110.62
439.672	78.62
439.798	83.62
439.924	67.62
440.05	94.62
440.177	70.62
440.303	73.62
440.429	60.62
440.555	85.62
440.681	48.62
440.807	51.62
440.934	62.62
441.06	66.62
441.186	50.62
441.312	81.62
441.438	59.62
441.564	66.62
441.69	71.62
441.816	54.62
441.943	40.62
442.069	57.62
442.195	51.62
442.321	62.62
442.447	31.62
442.573	37.62
442.699	25.62
442.825	31.62
442.951	45.62
443.077	41.62
443.203	56.62
443.33	41.62
443.456	20.62
443.582	42.62
443.708	51.62
443.834	40.62
443.96	49.62
444.086	47.62
444.212	60.62
444.338	58.62
444.464	55.62
444.59	39.62
444.716	42.62
444.842	38.62
444.968	23.62
445.094	37.62
445.22	26.62
445.346	8.62
445.472	50.62
445.598	40.62
445.724	18.62
445.85	51.62
445.976	33.62
446.102	36.62
446.228	53.62
446.354	45.62
446.48	28.62
446.605	35.62
446.731	41.62
446.857	31.62
446.983	47.62
447.109	36.62
447.235	37.62
447.361	27.62
447.487	32.62
447.613	43.62
447.739	47.62
447.865	28.62
447.99	30.62
448.116	38.62
448.242	39.62
448.368	35.62
448.494	26.62
448.62	29.62
448.746	35.62
448.872	36.62
448.997	27.62
449.123	8.62
449.249	37.62
449.375	47.62
449.501	24.62
449.627	43.62
449.752	68.62
449.878	15.62
450.004	13.62
450.13	31.62
450.256	34.62
450.381	45.62
450.507	30.62
450.633	15.62
450.759	38.62
450.884	17.62
451.01	29.62
451.136	22.62
451.262	24.62
451.388	14.62
451.513	16.62
451.639	24.62
451.765	30.62
451.89	20.62
452.016	49.62
452.142	24.62
452.268	20.62
452.393	34.62
452.519	11.62
452.645	26.62
452.771	33.62
452.896	8.62
453.022	22.62
453.148	30.62
453.273	30.62
453.399	14.62
453.525	33.62
453.65	18.62
453.776	39.62
453.902	27.62
454.027	19.62
454.153	42.62
454.279	33.62
454.404	19.62
454.53	51.62
454.656	47.62
454.781	18.62
454.907	19.62
455.032	27.62
455.158	38.62
455.284	32.62
455.409	44.62
455.535	28.62
455.66	33.62
455.786	45.62
455.912	39.62
456.037	12.62
456.163	24.62
456.288	33.62
456.414	9.62
456.539	19.62
456.665	33.62
456.791	21.62
456.916	24.62
457.042	34.62
457.167	9.62
457.293	26.62
457.418	18.62
457.544	25.62
457.669	28.62
457.795	29.62
457.92	11.62
458.046	34.62
458.171	19.62
458.297	28.62
458.422	19.62
458.548	10.62
458.673	17.62
458.799	14.62
458.924	8.62
459.05	10.62
459.175	7.62
459.301	15.62
459.426	36.62
459.552	23.62
459.677	21.62
459.803	54.62
459.928	34.62
460.053	19.62
460.179	26.62
460.304	47.62
460.43	5.62
460.555	14.62
460.681	11.62
460.806	15.62
460.931	19.62
461.057	30.62
461.182	22.62
461.308	21.62
461.433	22.62
461.558	33.62
461.684	34.62
461.809	36.62
461.934	26.62
462.06	16.62
462.185	15.62
462.311	26.62
462.436	41.62
462.561	18.62
462.687	21.62
462.812	24.62
462.937	13.62
463.063	-0.38
463.188	7.62
463.313	6.62
463.439	20.62
463.564	14.62
463.689	7.62
463.814	20.62
463.94	23.62
464.065	35.62
464.19	43.62
464.316	15.62
464.441	15.62
464.566	13.62
464.692	26.62
464.817	26.62
464.942	25.62
465.067	11.62
465.193	-5.38
465.318	5.62
465.443	34.62
465.568	28.62
465.694	31.62
465.819	42.62
465.944	37.62
466.069	37.62
466.194	34.62
466.32	15.62
466.445	30.62
466.57	20.62
466.695	28.62
466.82	39.62
466.946	38.62
467.071	32.62
467.196	25.62
467.321	46.62
467.446	26.62
467.572	29.62
467.697	37.62
467.822	42.62
467.947	48.62
468.072	23.62
468.197	24.62
468.323	16.62
468.448	27.62
468.573	11.62
468.698	29.62
468.823	39.62
468.948	38.62
469.073	29.62
469.198	45.62
469.324	42.62
469.449	22.62
469.574	30.62
469.699	54.62
469.824	21.62
469.949	28.62
470.074	20.62
470.199	52.62
470.324	38.62
470.449	55.62
470.574	27.62
470.7	34.62
470.825	28.62
470.95	51.62
471.075	41.62
471.2	37.62
471.325	34.62
471.45	46.62
471.575	14.62
471.7	21.62
471.825	28.62
471.95	19.62
472.075	23.62
472.2	29.62
472.325	33.62
472.45	12.62
472.575	23.62
472.7	28.62
472.825	39.62
472.95	23.62
473.075	32.62
473.2	27.62
473.325	42.62
473.45	41.62
473.575	29.62
473.7	40.62
473.825	20.62
473.95	28.62
474.075	25.62
474.2	15.62
474.325	12.62
474.45	44.62
474.574	22.62
474.699	9.62
474.824	27.62
474.949	42.62
475.074	3.62
475.199	21.62
475.324	22.62
475.449	7.62
475.574	15.62
475.699	7.62
475.824	3.62
475.949	16.62
476.073	20.62
476.198	12.62
476.323	32.62
476.448	27.62
476.573	14.62
476.698	27.62
476.823	30.62
476.947	17.62
477.072	11.62
477.197	23.62
477.322	7.62
477.447	2.62
477.572	23.62
477.697	26.62
477.821	16.62
477.946	19.62
478.071	15.62
478.196	30.62
478.321	26.62
478.445	0.62
478.57	12.62
478.695	6.62
478.82	32.62
478.945	15.62
479.069	12.62
479.194	15.62
479.319	4.62
479.444	4.62
479.569	14.62
479.693	31.62
479.818	18.62
479.943	34.62
480.068	20.62
480.192	28.62
480.317	12.62
480.442	36.62
480.567	5.62
480.691	24.62
480.816	20.62
480.941	6.62
481.066	20.62
481.19	52.62
481.315	33.62
481.44	33.62
481.564	10.62
481.689	22.62
481.814	16.62
481.938	32.62
482.063	3.62
482.188	8.62
482.313	13.62
482.437	9.62
482.562	-0.38
482.687	10.62
482.811	18.62
482.936	3.62
483.061	8.62
483.185	18.62
483.31	16.62
483.435	18.62
483.559	14.62
483.684	18.62
483.808	36.62
483.933	15.62
484.058	6.62
484.182	0.62
484.307	14.62
484.432	23.62
484.556	9.62
484.681	2.62
484.805	9.62
484.93	8.62
485.055	31.62
485.179	49.62
485.304	40.62
485.428	35.62
485.553	20.62
485.678	22.62
485.802	23.62
485.927	44.62
486.051	29.62
486.176	19.62
486.3	-0.38
486.425	18.62
486.549	18.62
486.674	48.62
486.799	23.62
486.923	18.62
487.048	26.62
487.172	12.62
487.297	22.62
487.421	22.62
487.546	2.62
487.67	17.62
487.795	10.62
487.919	27.62
488.044	21.62
488.168	14.62
488.293	13.62
488.417	14.62
488.542	27.62
488.666	34.62
488.791	34.62
488.915	21.62
489.04	26.62
489.164	40.62
489.289	28.62
489.413	9.62
489.538	12.62
489.662	22.62
489.786	10.62
489.911	26.62
490.035	8.62
490.16	6.62
490.284	-7.38
490.409	-4.38
490.533	26.62
490.658	27.62
490.782	30.62
490.906	43.62
491.031	99.62
491.155	116.62
491.28	142.62
491.404	164.62
491.528	239.62
491.653	157.62
491.777	58.62
491.902	29.62
492.026	29.62
492.15	39.62
492.275	30.62
492.399	28.62
492.524	7.62
492.648	28.62
492.772	11.62
492.897	23.62
493.021	8.62
493.145	32.62
493.27	36.62
493.394	18.62
493.518	11.62
493.643	20.62
493.767	20.62
493.891	3.62
494.016	15.62
494.14	15.62
494.264	24.62
494.389	32.62
494.513	23.62
494.637	12.62
494.762	10.62
494.886	44.62
495.01	20.62
495.134	18.62
495.259	26.62
495.383	11.62
495.507	24.62
495.632	30.62
495.756	44.62
495.88	33.62
496.004	39.62
496.129	12.62
496.253	26.62
496.377	27.62
496.501	37.62
496.626	10.62
496.75	21.62
496.874	29.62
496.998	11.62
497.123	34.62
497.247	20.62
497.371	27.62
497.495	25.62
497.62	11.62
497.744	26.62
497.868	14.62
497.992	19.62
498.116	12.62
498.241	20.62
498.365	7.62
498.489	11.62
498.613	36.62
498.737	15.62
498.862	24.62
498.986	18.62
499.11	20.62
499.234	12.62
499.358	13.62
499.482	25.62
499.607	30.62
499.731	30.62
499.855	33.62
499.979	10.62
500.103	32.62
500.227	23.62
500.351	37.62
500.476	14.62
500.6	23.62
500.724	15.62
500.848	18.62
500.972	11.62
501.096	31.62
501.22	33.62
501.344	20.62
501.469	9.62
501.593	18.62
501.717	34.62
501.841	8.62
501.965	22.62
502.089	15.62
502.213	29.62
502.337	14.62
502.461	14.62
502.585	14.62
502.709	23.62
502.834	4.62
502.958	11.62
503.082	15.62
503.206	21.62
503.33	31.62
503.454	19.62
503.578	18.62
503.702	18.62
503.826	23.62
503.95	44.62
504.074	19.62
504.198	8.62
504.322	16.62
504.446	20.62
504.57	24.62
504.694	26.62
504.818	18.62
504.942	32.62
505.066	13.62
505.19	20.62
505.314	13.62
505.438	15.62
505.562	24.62
505.686	30.62
505.81	6.62
505.934	26.62
506.058	22.62
506.182	18.62
506.306	19.62
506.43	16.62
506.554	14.62
506.678	22.62
506.802	10.62
506.926	33.62
507.05	38.62
507.174	30.62
507.298	16.62
507.422	33.62
507.546	41.62
507.67	32.62
507.794	13.62
507.918	18.62
508.042	22.62
508.165	0.62
508.289	18.62
508.413	23.62
508.537	12.62
508.661	9.62
508.785	24.62
508.909	27.62
509.033	19.62
509.157	30.62
509.281	36.62
509.405	26.62
509.528	36.62
509.652	28.62
509.776	30.62
509.9	52.62
510.024	45.62
510.148	47.62
510.272	21.62
510.396	43.62
510.519	20.62
510.643	40.62
510.767	42.62
510.891	59.62
511.015	41.62
511.139	59.62
511.263	64.62
511.386	36.62
511.51	32.62
511.634	42.62
511.758	35.62
511.882	28.62
512.006	38.62
512.129	51.62
512.253	85.62
512.377	69.62
512.501	70.62
512.625	80.62
512.748	79.62
512.872	68.62
512.996	46.62
513.12	48.62
513.244	39.62
513.367	69.62
513.491	66.62
513.615	72.62
513.739	86.62
513.862	83.62
513.986	86.62
514.11	87.62
514.234	91.62
514.358	102.62
514.481	113.62
514.605	101.62
514.729	104.62
514.853	117.62
514.976	113.62
515.1	84.62
515.224	111.62
515.348	88.62
515.471	70.62
515.595	116.62
515.719	126.62
515.842	206.62
515.966	268.62
516.09	279.62
516.214	324.62
516.337	346.62
516.461	221.62
516.585	98.62
516.708	47.62
516.832	15.62
516.956	21.62
517.08	11.62
517.203	6.62
517.327	6.62
517.451	35.62
517.574	26.62
517.698	14.62
517.822	5.62
517.945	13.62
518.069	31.62
518.193	45.62
518.316	27.62
518.44	9.62
518.564	12.62
518.687	5.62
518.811	9.62
518.935	46.62
519.058	20.62
519.182	12.62
519.306	10.62
519.429	9.62
519.553	36.62
519.676	7.62
519.8	12.62
519.924	16.62
520.047	7.62
520.171	-2.38
520.294	10.62
520.418	35.62
520.542	11.62
520.665	19.62
520.789	21.62
520.913	0.62
521.036	15.62
521.16	2.62
521.283	18.62
521.407	11.62
521.53	-2.38
521.654	2.62
521.778	42.62
521.901	11.62
522.025	23.62
522.148	10.62
522.272	17.62
522.395	12.62
522.519	22.62
522.643	21.62
522.766	23.62
522.89	22.62
523.013	21.62
523.137	-0.38
523.26	16.62
523.384	21.62
523.507	0.62
523.631	13.62
523.754	13.62
523.878	17.62
524.002	16.62
524.125	7.62
524.249	-5.38
524.372	12.62
524.496	11.62
524.619	26.62
524.743	8.62
524.866	2.62
524.99	16.62
525.113	11.62
525.237	32.62
525.36	23.62
525.484	13.62
525.607	10.62
525.731	3.62
525.854	26.62
525.978	26.62
526.101	6.62
526.224	19.62
526.348	7.62
526.471	18.62
526.595	19.62
526.718	21.62
526.842	8.62
526.965	32.62
527.089	17.62
527.212	-1.38
527.336	25.62
527.459	19.62
527.582	-6.38
527.706	25.62
527.829	15.62
527.953	24.62
528.076	-8.38
528.2	4.62
528.323	26.62
528.446	34.62
528.57	22.62
528.693	32.62
528.817	15.62
528.94	8.62
529.064	34.62
529.187	23.62
529.31	25.62
529.434	10.62
529.557	4.62
529.68	15.62
529.804	9.62
529.927	30.62
530.051	15.62
530.174	7.62
530.297	-1.38
530.421	26.62
530.544	12.62
530.668	3.62
530.791	-8.38
530.914	25.62
531.038	11.62
531.161	22.62
531.284	17.62
531.408	26.62
531.531	15.62
531.654	19.62
531.778	27.62
531.901	5.62
532.024	19.62
532.148	12.62
532.271	17.62
532.394	21.62
532.518	17.62
532.641	21.62
532.764	34.62
532.888	12.62
533.011	7.62
533.134	10.62
533.258	23.62
533.381	2.62
533.504	20.62
533.628	1.62
533.751	21.62
533.874	20.62
533.997	7.62
534.121	-0.38
534.244	9.62
534.367	6.62
534.491	20.62
534.614	16.62
534.737	11.62
534.86	21.62
534.984	13.62
535.107	6.62
535.23	15.62
535.354	11.62
535.477	3.62
535.6	14.62
535.723	34.62
535.847	30.62
535.97	10.62
536.093	8.62
536.216	8.62
536.34	26.62
536.463	-0.38
536.586	20.62
536.709	16.62
536.833	34.62
536.956	25.62
537.079	26.62
537.202	14.62
537.325	12.62
537.449	18.62
537.572	22.62
537.695	7.62
537.818	21.62
537.941	16.62
538.065	12.62
538.188	19.62
538.311	36.62
538.434	27.62
538.558	22.62
538.681	27.62
538.804	18.62
538.927	32.62
539.05	12.62
539.173	0.62
539.297	-3.38
539.42	12.62
539.543	29.62
539.666	32.62
539.789	46.62
539.913	11.62
540.036	14.62
540.159	32.62
540.282	26.62
540.405	13.62
540.528	8.62
540.651	23.62
540.775	29.62
540.898	27.62
541.021	18.62
541.144	15.62
541.267	22.62
541.39	35.62
541.513	35.62
541.637	25.62
541.76	36.62
541.883	45.62
542.006	47.62
542.129	54.62
542.252	25.62
542.375	34.62
542.498	27.62
542.622	46.62
542.745	44.62
542.868	41.62
542.991	62.62
543.114	48.62
543.237	56.62
543.36	69.62
543.483	66.62
543.606	66.62
543.73	91.62
543.853	75.62
543.976	74.62
544.099	110.62
544.222	121.62
544.345	141.62
544.468	172.62
544.591	225.62
544.714	253.62
544.837	353.62
544.96	440.62
545.083	652.62
545.206	1067.62
545.329	2460.62
545.453	11044.62
545.576	15267.62
545.699	15681.62
545.822	15681.62
545.945	15681.62
546.068	15681.62
546.191	15681.62
546.314	15681.62
546.437	15681.62
546.56	15681.62
546.683	15681.62
546.806	15681.62
546.929	15681.62
547.052	15681.62
547.175	15681.62
547.298	15681.62
547.421	15681.62
547.544	15681.62
547.667	3844.62
547.79	3702.62
547.913	1247.62
548.036	956.62
548.159	664.62
548.282	677.62
548.405	488.62
548.528	501.62
548.651	399.62
548.774	394.62
548.897	332.62
549.02	348.62
549.143	323.62
549.266	302.62
549.389	270.62
549.512	250.62
549.635	252.62
549.758	260.62
549.881	202.62
550.004	207.62
550.127	183.62
550.25	194.62
550.373	167.62
550.496	176.62
550.619	159.62
550.742	151.62
550.865	118.62
550.988	164.62
551.111	153.62
551.234	141.62
551.356	128.62
551.479	111.62
551.602	133.62
551.725	150.62
551.848	142.62
551.971	149.62
552.094	124.62
552.217	119.62
552.34	113.62
552.463	112.62
552.586	103.62
552.709	105.62
552.832	107.62
552.955	126.62
553.077	110.62
553.2	92.62
553.323	70.62
553.446	114.62
553.569	95.62
553.692	101.62
553.815	105.62
553.938	110.62
554.061	94.62
554.184	94.62
554.306	91.62
554.429	83.62
554.552	72.62
554.675	73.62
554.798	83.62
554.921	72.62
555.044	66.62
555.167	68.62
555.29	59.62
555.412	64.62
555.535	67.62
555.658	88.62
555.781	79.62
555.904	58.62
556.027	74.62
556.15	69.62
556.272	55.62
556.395	88.62
556.518	68.62
556.641	75.62
556.764	82.62
556.887	84.62
557.01	65.62
557.132	53.62
557.255	62.62
557.378	58.62
557.501	68.62
557.624	70.62
557.747	74.62
557.869	75.62
557.992	73.62
558.115	107.62
558.238	86.62
558.361	92.62
558.483	107.62
558.606	78.62
558.729	44.62
558.852	72.62
558.975	67.62
559.098	55.62
559.22	36.62
559.343	46.62
559.466	37.62
559.589	46.62
559.712	56.62
559.834	41.62
559.957	38.62
560.08	47.62
560.203	57.62
560.325	69.62
560.448	53.62
560.571	46.62
560.694	51.62
560.817	70.62
560.939	62.62
561.062	61.62
561.185	52.62
561.308	68.62
561.43	64.62
561.553	66.62
561.676	49.62
561.799	74.62
561.921	52.62
562.044	46.62
562.167	50.62
562.29	80.62
562.413	76.62
562.535	69.62
562.658	34.62
562.781	51.62
562.903	70.62
563.026	103.62
563.149	147.62
563.272	125.62
563.394	112.62
563.517	104.62
563.64	67.62
563.763	48.62
563.885	40.62
564.008	45.62
564.131	30.62
564.254	23.62
564.376	14.62
564.499	34.62
564.622	33.62
564.744	43.62
564.867	20.62
564.99	38.62
565.113	52.62
565.235	39.62
565.358	23.62
565.481	30.62
565.603	22.62
565.726	29.62
565.849	40.62
565.971	44.62
566.094	24.62
566.217	28.62
566.34	26.62
566.462	41.62
566.585	34.62
566.708	42.62
566.83	23.62
566.953	43.62
567.076	35.62
567.198	32.62
567.321	17.62
567.444	40.62
567.566	34.62
567.689	30.62
567.812	33.62
567.934	22.62
568.057	29.62
568.18	26.62
568.302	26.62
568.425	24.62
568.548	12.62
568.67	29.62
568.793	32.62
568.916	19.62
569.038	24.62
569.161	23.62
569.283	28.62
569.406	36.62
569.529	16.62
569.651	20.62
569.774	24.62
569.897	31.62
570.019	16.62
570.142	24.62
570.265	36.62
570.387	27.62
570.51	40.62
570.632	33.62
570.755	30.62
570.878	20.62
571	34.62
571.123	22.62
571.246	35.62
571.368	15.62
571.491	10.62
571.613	14.62
571.736	15.62
571.859	41.62
571.981	29.62
572.104	22.62
572.226	39.62
572.349	31.62
572.472	39.62
572.594	33.62
572.717	22.62
572.839	22.62
572.962	14.62
573.085	29.62
573.207	24.62
573.33	44.62
573.452	35.62
573.575	41.62
573.697	35.62
573.82	36.62
573.943	27.62
574.065	30.62
574.188	32.62
574.31	43.62
574.433	28.62
574.555	42.62
574.678	43.62
574.801	24.62
574.923	18.62
575.046	43.62
575.168	46.62
575.291	43.62
575.413	49.62
575.536	50.62
575.659	59.62
575.781	38.62
575.904	35.62
576.026	69.62
576.149	83.62
576.271	104.62
576.394	195.62
576.516	539.62
576.639	3639.62
576.761	10322.62
576.884	8894.62
577.007	8818.62
577.129	8060.62
577.252	3754.62
577.374	1319.62
577.497	512.62
577.619	262.62
577.742	163.62
577.864	156.62
577.987	118.62
578.109	131.62
578.232	138.62
578.354	150.62
578.477	188.62
578.599	399.62
578.722	1992.62
578.844	9151.62
578.967	9925.62
579.089	8794.62
579.212	9120.62
579.334	5328.62
579.457	1951.62
579.579	747.62
579.702	313.62
579.824	201.62
579.947	107.62
580.069	96.62
580.192	86.62
580.314	92.62
580.437	68.62
580.559	97.62
580.682	66.62
580.804	72.62
580.927	67.62
581.049	63.62
581.172	47.62
581.294	53.62
581.417	58.62
581.539	33.62
581.662	43.62
581.784	29.62
581.907	51.62
582.029	47.62
582.152	17.62
582.274	40.62
582.396	46.62
582.519	40.62
582.641	18.62
582.764	36.62
582.886	36.62
583.009	20.62
583.131	32.62
583.254	32.62
583.376	49.62
583.499	54.62
583.621	35.62
583.743	35.62
583.866	17.62
583.988	24.62
584.111	45.62
584.233	43.62
584.356	42.62
584.478	37.62
584.601	18.62
584.723	18.62
584.845	42.62
584.968	19.62
585.09	19.62
585.213	43.62
585.335	20.62
585.458	32.62
585.58	32.62
585.702	40.62
585.825	36.62
585.947	43.62
586.07	22.62
586.192	11.62
586.315	26.62
586.437	24.62
586.559	30.62
586.682	12.62
586.804	22.62
586.927	16.62
587.049	18.62
587.171	43.62
587.294	12.62
587.416	45.62
587.539	13.62
587.661	7.62
587.783	4.62
587.906	32.62
588.028	41.62
588.151	28.62
588.273	40.62
588.395	27.62
588.518	18.62
588.64	34.62
588.763	36.62
588.885	28.62
589.007	32.62
589.13	11.62
589.252	5.62
589.375	22.62
589.497	43.62
589.619	34.62
589.742	33.62
589.864	35.62
589.986	40.62
590.109	22.62
590.231	16.62
590.354	18.62
590.476	14.62
590.598	15.62
590.721	18.62
590.843	21.62
590.965	20.62
591.088	41.62
591.21	30.62
591.332	29.62
591.455	31.62
591.577	8.62
591.7	21.62
591.822	19.62
591.944	20.62
592.067	24.62
592.189	34.62
592.311	22.62
592.434	14.62
592.556	35.62
592.678	23.62
592.801	12.62
592.923	22.62
593.045	22.62
593.168	24.62
593.29	14.62
593.412	30.62
593.535	20.62
593.657	16.62
593.779	29.62
593.902	24.62
594.024	38.62
594.146	28.62
594.269	39.62
594.391	27.62
594.513	32.62
594.636	8.62
594.758	24.62
594.88	24.62
595.003	23.62
595.125	19.62
595.247	34.62
595.37	40.62
595.492	24.62
595.614	28.62
595.737	19.62
595.859	23.62
595.981	29.62
596.104	10.62
596.226	13.62
596.348	32.62
596.471	15.62
596.593	31.62
596.715	18.62
596.838	17.62
596.96	12.62
597.082	20.62
597.204	23.62
597.327	27.62
597.449	22.62
597.571	32.62
597.694	10.62
597.816	31.62
597.938	27.62
598.061	-2.38
598.183	21.62
598.305	22.62
598.427	25.62
598.55	10.62
598.672	41.62
598.794	33.62
598.917	18.62
599.039	29.62
599.161	11.62
599.283	14.62
599.406	42.62
599.528	45.62
599.65	53.62
599.773	23.62
599.895	16.62
600.017	22.62
600.139	12.62
600.262	7.62
600.384	24.62
600.506	21.62
600.628	28.62
600.751	36.62
600.873	27.62
600.995	7.62
601.118	25.62
601.24	15.62
601.362	47.62
601.484	30.62
601.607	33.62
601.729	27.62
601.851	31.62
601.973	28.62
602.096	42.62
602.218	31.62
602.34	25.62
602.462	10.62
602.585	23.62
602.707	2.62
602.829	30.62
602.951	8.62
603.074	5.62
603.196	14.62
603.318	-1.38
603.44	19.62
603.563	20.62
603.685	2.62
603.807	22.62
603.929	29.62
604.052	33.62
604.174	23.62
604.296	26.62
604.418	18.62
604.541	48.62
604.663	15.62
604.785	19.62
604.907	26.62
605.03	5.62
605.152	43.62
605.274	7.62
605.396	17.62
605.519	15.62
605.641	22.62
605.763	15.62
605.885	27.62
606.008	16.62
606.13	44.62
606.252	35.62
606.374	20.62
606.496	-2.38
606.619	15.62
606.741	17.62
606.863	46.62
606.985	31.62
607.108	18.62
607.23	8.62
607.352	14.62
607.474	12.62
607.596	22.62
607.719	19.62
607.841	18.62
607.963	23.62
608.085	27.62
608.207	33.62
608.33	15.62
608.452	11.62
608.574	-3.38
608.696	30.62
608.819	18.62
608.941	12.62
609.063	9.62
609.185	15.62
609.307	24.62
609.43	31.62
609.552	35.62
609.674	-0.38
609.796	28.62
609.918	30.62
610.041	35.62
610.163	25.62
610.285	25.62
610.407	5.62
610.529	21.62
610.652	26.62
610.774	26.62
610.896	19.62
611.018	24.62
611.14	10.62
611.263	11.62
611.385	5.62
611.507	31.62
611.629	7.62
611.751	2.62
611.873	42.62
611.996	20.62
612.118	46.62
612.24	12.62
612.362	22.62
612.484	38.62
612.607	56.62
612.729	44.62
612.851	35.62
612.973	17.62
613.095	12.62
613.218	28.62
613.34	38.62
613.462	28.62
613.584	31.62
613.706	48.62
613.828	36.62
613.951	23.62
614.073	25.62
614.195	3.62
614.317	46.62
614.439	34.62
614.561	23.62
614.684	16.62
614.806	19.62
614.928	25.62
615.05	34.62
615.172	32.62
615.294	20.62
615.417	23.62
615.539	18.62
615.661	30.62
615.783	36.62
615.905	25.62
616.027	11.62
616.15	24.62
616.272	32.62
616.394	12.62
616.516	25.62
616.638	21.62
616.76	23.62
616.883	30.62
617.005	16.62
617.127	9.62
617.249	24.62
617.371	20.62
617.493	21.62
617.615	19.62
617.738	20.62
617.86	26.62
617.982	6.62
618.104	12.62
618.226	11.62
618.348	0.62
618.471	20.62
618.593	27.62
618.715	5.62
618.837	29.62
618.959	31.62
619.081	39.62
619.203	26.62
619.326	36.62
619.448	21.62
619.57	34.62
619.692	27.62
619.814	24.62
619.936	24.62
620.058	0.62
620.181	8.62
620.303	20.62
620.425	25.62
620.547	0.62
620.669	22.62
620.791	6.62
620.913	4.62
621.036	6.62
621.158	19.62
621.28	25.62
621.402	9.62
621.524	21.62
621.646	19.62
621.768	19.62
621.891	-3.38
622.013	13.62
622.135	5.62
622.257	7.62
622.379	9.62
622.501	18.62
622.623	18.62
622.745	16.62
622.868	24.62
622.99	15.62
623.112	20.62
623.234	17.62
623.356	18.62
623.478	-0.38
623.6	22.62
623.722	13.62
623.845	13.62
623.967	0.62
624.089	19.62
624.211	14.62
624.333	17.62
624.455	19.62
624.577	26.62
624.699	18.62
624.822	35.62
624.944	28.62
625.066	21.62
625.188	15.62
625.31	22.62
625.432	45.62
625.554	19.62
625.676	54.62
625.799	7.62
625.921	15.62
626.043	29.62
626.165	28.62
626.287	13.62
626.409	24.62
626.531	14.62
626.653	19.62
626.775	26.62
626.898	6.62
627.02	32.62
627.142	23.62
627.264	22.62
627.386	17.62
627.508	34.62
627.63	6.62
627.752	30.62
627.874	21.62
627.997	28.62
628.119	24.62
628.241	30.62
628.363	20.62
628.485	19.62
628.607	23.62
628.729	23.62
628.851	2.62
628.973	32.62
629.096	-2.38
629.218	18.62
629.34	35.62
629.462	7.62
629.584	7.62
629.706	9.62
629.828	25.62
629.95	22.62
630.072	10.62
630.195	12.62
630.317	35.62
630.439	6.62
630.561	20.62
630.683	8.62
630.805	18.62
630.927	23.62
631.049	6.62
631.171	9.62
631.293	23.62
631.416	2.62
631.538	-3.38
631.66	9.62
631.782	12.62
631.904	18.62
632.026	6.62
632.148	27.62
632.27	10.62
632.392	23.62
632.514	7.62
632.637	21.62
632.759	19.62
632.881	11.62
633.003	0.62
633.125	0.62
633.247	0.62
633.369	14.62
633.491	7.62
633.613	30.62
633.735	7.62
633.858	19.62
633.98	8.62
634.102	10.62
634.224	31.62
634.346	6.62
634.468	42.62
634.59	7.62
634.712	8.62
634.834	-5.38
634.956	6.62
635.078	0.62
635.201	6.62
635.323	0.62
635.445	14.62
635.567	-2.38
635.689	32.62
635.811	10.62
635.933	4.62
636.055	24.62
636.177	9.62
636.299	19.62
636.421	25.62
636.544	0.62
636.666	14.62
636.788	9.62
636.91	12.62
637.032	-10.38
637.154	18.62
637.276	38.62
637.398	32.62
637.52	10.62
637.642	32.62
637.764	26.62
637.887	15.62
638.009	29.62
638.131	11.62
638.253	5.62
638.375	32.62
638.497	16.62
638.619	-8.38
638.741	14.62
638.863	-7.38
638.985	-1.38
639.107	10.62
639.23	3.62
639.352	26.62
639.474	13.62
639.596	17.62
639.718	8.62
639.84	23.62
639.962	3.62
640.084	23.62
640.206	17.62
640.328	3.62
640.45	5.62
640.573	2.62
640.695	13.62
640.817	24.62
640.939	28.62
641.061	8.62
641.183	16.62
641.305	19.62
641.427	24.62
641.549	11.62
641.671	5.62
641.793	10.62
641.915	31.62
642.038	10.62
642.16	11.62
642.282	0.62
642.404	-1.38
642.526	26.62
642.648	13.62
642.77	12.62
642.892	8.62
643.014	40.62
643.136	14.62
643.258	10.62
643.381	32.62
643.503	36.62
643.625	19.62
643.747	10.62
643.869	3.62
643.991	25.62
644.113	24.62
644.235	20.62
644.357	21.62
644.479	22.62
644.601	10.62
644.723	12.62
644.846	18.62
644.968	2.62
645.09	13.62
645.212	8.62
645.334	26.62
645.456	12.62
645.578	33.62
645.7	22.62
645.822	-1.38
645.944	15.62
646.066	17.62
646.188	4.62
646.311	21.62
646.433	-3.38
646.555	39.62
646.677	27.62
646.799	14.62
646.921	9.62
647.043	32.62
647.165	16.62
647.287	12.62
647.409	6.62
647.531	21.62
647.654	-8.38
647.776	12.62
647.898	30.62
648.02	11.62
648.142	13.62
648.264	18.62
648.386	0.62
648.508	-4.38
648.63	6.62
648.752	24.62
648.874	6.62
648.997	18.62
649.119	46.62
649.241	8.62
649.363	38.62
649.485	37.62
649.607	8.62
649.729	-2.38
649.851	14.62
649.973	2.62
650.095	18.62
650.217	8.62
650.34	19.62
650.462	37.62
650.584	21.62
650.706	15.62
650.828	14.62
650.95	-3.38
651.072	-2.38
651.194	2.62
651.316	2.62
651.438	6.62
651.56	2.62
651.683	16.62
651.805	20.62
651.927	18.62
652.049	-0.38
652.171	12.62
652.293	13.62
652.415	8.62
652.537	-13.38
652.659	-11.38
652.781	14.62
652.903	21.62
653.026	26.62
653.148	22.62
653.27	28.62
653.392	18.62
653.514	0.62
653.636	6.62
653.758	16.62
653.88	3.62
654.002	1.62
654.124	7.62
654.247	0.62
654.369	13.62
654.491	6.62
654.613	10.62
654.735	4.62
654.857	20.62
654.979	4.62
655.101	10.62
655.223	27.62
655.345	11.62
655.468	16.62
655.59	7.62
655.712	21.62
655.834	0.62
655.956	7.62
656.078	11.62
656.2	13.62
656.322	18.62
656.444	-3.38
656.566	-1.38
656.689	2.62
656.811	6.62
656.933	18.62
657.055	-4.38
657.177	9.62
657.299	-1.38
657.421	10.62
657.543	22.62
657.665	3.62
657.787	25.62
657.91	29.62
658.032	2.62
658.154	-4.38
658.276	26.62
658.398	3.62
658.52	14.62
658.642	27.62
658.764	10.62
658.886	-12.38
659.009	5.62
659.131	16.62
659.253	16.62
659.375	13.62
659.497	13.62
659.619	23.62
659.741	-1.38
659.863	-10.38
659.985	0.62
660.108	25.62
660.23	6.62
660.352	10.62
660.474	-0.38
660.596	23.62
660.718	34.62
660.84	28.62
660.962	16.62
661.084	-4.38
661.207	18.62
661.329	27.62
661.451	12.62
661.573	10.62
661.695	6.62
661.817	19.62
661.939	17.62
662.061	34.62
662.184	2.62
662.306	10.62
662.428	7.62
662.55	26.62
662.672	10.62
662.794	7.62
662.916	6.62
663.038	20.62
663.161	19.62
663.283	21.62
663.405	13.62
663.527	-3.38
663.649	19.62
663.771	8.62
663.893	3.62
664.015	12.62
664.138	6.62
664.26	15.62
664.382	15.62
664.504	4.62
664.626	6.62
664.748	8.62
664.87	-0.38
664.992	25.62
665.115	15.62
665.237	21.62
665.359	9.62
665.481	5.62
665.603	2.62
665.725	-1.38
665.847	-4.38
665.97	5.62
666.092	5.62
666.214	3.62
666.336	16.62
666.458	14.62
666.58	9.62
666.702	11.62
666.825	-13.38
666.947	-14.38
667.069	-2.38
667.191	4.62
667.313	2.62
667.435	7.62
667.557	3.62
667.68	-5.38
667.802	-8.38
667.924	-5.38
668.046	7.62
668.168	19.62
668.29	34.62
668.412	3.62
668.535	20.62
668.657	14.62
668.779	13.62
668.901	10.62
669.023	15.62
669.145	10.62
669.267	13.62
669.39	-4.38
669.512	10.62
669.634	-3.38
669.756	-0.38
669.878	6.62
670	9.62
670.123	-5.38
670.245	29.62
670.367	9.62
670.489	30.62
670.611	13.62
670.733	-1.38
670.856	8.62
670.978	28.62
671.1	4.62
671.222	15.62
671.344	6.62
671.466	17.62
671.589	12.62
671.711	24.62
671.833	6.62
671.955	10.62
672.077	18.62
672.199	35.62
672.322	34.62
672.444	7.62
672.566	2.62
672.688	2.62
672.81	19.62
672.932	40.62
673.055	4.62
673.177	-0.38
673.299	13.62
673.421	-7.38
673.543	2.62
673.665	22.62
673.788	25.62
673.91	5.62
674.032	-7.38
674.154	9.62
674.276	0.62
674.399	0.62
674.521	11.62
674.643	0.62
674.765	6.62
674.887	8.62
675.009	-0.38
675.132	-3.38
675.254	5.62
675.376	21.62
675.498	1.62
675.62	26.62
675.743	7.62
675.865	16.62
675.987	1.62
676.109	10.62
676.231	6.62
676.354	9.62
676.476	-1.38
676.598	21.62
676.72	9.62
676.842	18.62
676.965	0.62
677.087	6.62
677.209	10.62
677.331	8.62
677.453	10.62
677.576	10.62
677.698	10.62
677.82	27.62
677.942	9.62
678.064	10.62
678.187	11.62
678.309	-0.38
678.431	0.62
678.553	-2.38
678.675	24.62
678.798	31.62
678.92	2.62
679.042	3.62
679.164	-6.38
679.286	25.62
679.409	2.62
679.531	-7.38
679.653	14.62
679.775	17.62
679.898	10.62
680.02	6.62
680.142	-1.38
680.264	12.62
680.386	9.62
680.509	7.62
680.631	17.62
680.753	22.62
680.875	9.62
680.998	9.62
681.12	12.62
681.242	23.62
681.364	0.62
681.486	-2.38
681.609	-8.38
681.731	2.62
681.853	9.62
681.975	-0.38
682.098	9.62
682.22	24.62
682.342	9.62
682.464	20.62
682.587	2.62
682.709	-5.38
682.831	-0.38
682.953	7.62
683.076	7.62
683.198	-10.38
683.32	-0.38
683.442	5.62
683.565	21.62
683.687	6.62
683.809	10.62
683.931	-10.38
684.054	15.62
684.176	10.62
684.298	8.62
684.42	0.62
684.543	9.62
684.665	14.62
684.787	13.62
684.909	18.62
685.032	14.62
685.154	-9.38
685.276	16.62
685.398	9.62
685.521	-3.38
685.643	0.62
685.765	31.62
685.887	40.62
686.01	19.62
686.132	7.62
686.254	8.62
686.377	11.62
686.499	10.62
686.621	19.62
686.743	8.62
686.866	0.62
686.988	33.62
687.11	14.62
687.232	9.62
687.355	-11.38
687.477	3.62
687.599	22.62
687.722	-17.38
687.844	-0.38
687.966	13.62
688.088	15.62
688.211	32.62
688.333	8.62
688.455	10.62
688.578	9.62
688.7	-3.38
688.822	7.62
688.944	8.62
689.067	55.62
689.189	12.62
689.311	0.62
689.434	7.62
689.556	18.62
689.678	8.62
689.801	-0.38
689.923	12.62
690.045	25.62
690.167	16.62
690.29	28.62
690.412	4.62
690.534	3.62
690.657	10.62
690.779	-5.38
690.901	11.62
691.024	12.62
691.146	0.62
691.268	11.62
691.391	16.62
691.513	19.62
691.635	23.62
691.758	27.62
691.88	25.62
692.002	7.62
692.125	0.62
692.247	18.62
692.369	-3.38
692.492	5.62
692.614	11.62
692.736	-3.38
692.859	12.62
692.981	10.62
693.103	6.62
693.226	-0.38
693.348	11.62
693.47	19.62
693.593	24.62
693.715	22.62
693.837	11.62
693.96	14.62
694.082	5.62
694.204	18.62
694.327	8.62
694.449	-7.38
694.571	3.62
694.694	14.62
694.816	7.62
694.938	-8.38
695.061	3.62
695.183	10.62
695.305	4.62
695.428	14.62
695.55	-5.38
695.672	-0.38
695.795	34.62
695.917	31.62
696.04	2.62
696.162	6.62
696.284	7.62
696.407	14.62
696.529	14.62
696.651	20.62
696.774	1.62
696.896	11.62
697.019	5.62
697.141	17.62
697.263	-3.38
697.386	-1.38
697.508	6.62
697.63	24.62
697.753	25.62
697.875	15.62
697.998	3.62
698.12	10.62
698.242	-3.38
698.365	18.62
698.487	8.62
698.61	6.62
698.732	15.62
698.854	38.62
698.977	-0.38
699.099	23.62
699.221	-5.38
699.344	9.62
699.466	11.62
699.589	11.62
699.711	2.62
699.834	14.62
699.956	10.62
700.078	-8.38
700.201	-3.38
700.323	31.62
700.446	14.62
700.568	21.62
700.69	7.62
700.813	7.62
700.935	18.62
701.058	20.62
701.18	15.62
701.302	21.62
701.425	-1.38
701.547	12.62
701.67	12.62
701.792	3.62
701.915	-5.38
702.037	-15.38
702.159	6.62
702.282	15.62
702.404	-0.38
702.527	23.62
702.649	33.62
702.772	3.62
702.894	2.62
703.017	26.62
703.139	-8.38
703.261	13.62
703.384	12.62
703.506	-1.38
703.629	2.62
703.751	4.62
703.874	1.62
703.996	3.62
704.119	-6.38
704.241	9.62
704.364	-13.38
704.486	16.62
704.608	24.62
704.731	3.62
704.853	19.62
704.976	-3.38
705.098	13.62
705.221	15.62
705.343	11.62
705.466	14.62
705.588	18.62
705.711	7.62
705.833	37.62
705.956	4.62
706.078	2.62
706.201	6.62
706.323	16.62
706.446	6.62
