Data from LowRes_mercury_15_20_11_07_2024_HR4C61881__78__15-23-40-070.txt Node

Date: Thu Nov 07 15:23:40 EST 2024
User: crc00042
Spectrometer: HR4C6188
Trigger mode: 4
Integration Time (sec): 1.000000E-1
Scans to average: 1
Electric dark correction enabled: true
Nonlinearity correction enabled: false
Boxcar width: 0
XAxis mode: Wavelengths
Number of Pixels in Spectrum: 3648
>>>>>Begin Spectral Data<<<<<
245.66	-62.85
245.797	-62.85
245.934	-62.85
246.071	-81.85
246.208	-2.85
246.344	-0.85
246.481	-14.85
246.618	-13.85
246.755	13.15
246.892	18.15
247.029	-11.85
247.165	-5.85
247.302	9.15
247.439	-11.85
247.576	22.15
247.713	-11.85
247.849	21.15
247.986	-12.85
248.123	-11.85
248.26	-22.85
248.396	-15.85
248.533	0.15
248.67	-8.85
248.806	5.15
248.943	-39.85
249.08	-12.85
249.216	10.15
249.353	-17.85
249.49	-15.85
249.626	-0.85
249.763	-11.85
249.9	-21.85
250.036	-14.85
250.173	-13.85
250.309	-3.85
250.446	-5.85
250.582	-22.85
250.719	-2.85
250.856	-14.85
250.992	-27.85
251.129	-9.85
251.265	-11.85
251.402	-13.85
251.538	9.15
251.675	-12.85
251.811	-1.85
251.948	9.15
252.084	-1.85
252.221	-11.85
252.357	-21.85
252.493	6.15
252.63	-1.85
252.766	8.15
252.903	-13.85
253.039	-11.85
253.175	-2.85
253.312	1.15
253.448	-25.85
253.585	-20.85
253.721	8.15
253.857	-7.85
253.994	4.15
254.13	0.15
254.266	13.15
254.403	-9.85
254.539	-0.85
254.675	1.15
254.811	-10.85
254.948	-7.85
255.084	-4.85
255.22	-10.85
255.356	-1.85
255.493	1.15
255.629	-11.85
255.765	-5.85
255.901	4.15
256.037	-1.85
256.174	19.15
256.31	-12.85
256.446	-18.85
256.582	-2.85
256.718	7.15
256.854	9.15
256.991	-18.85
257.127	26.15
257.263	-10.85
257.399	-11.85
257.535	-5.85
257.671	1.15
257.807	9.15
257.943	-2.85
258.079	-30.85
258.215	-8.85
258.351	7.15
258.487	-10.85
258.623	8.15
258.759	-10.85
258.895	5.15
259.031	-25.85
259.167	-19.85
259.303	0.15
259.439	-11.85
259.575	-7.85
259.711	-16.85
259.847	-11.85
259.983	-3.85
260.119	-9.85
260.255	-17.85
260.391	-9.85
260.527	-2.85
260.663	11.15
260.799	-1.85
260.934	-9.85
261.07	-0.85
261.206	-4.85
261.342	-22.85
261.478	5.15
261.614	11.15
261.749	-3.85
261.885	-1.85
262.021	-22.85
262.157	12.15
262.293	-11.85
262.428	-24.85
262.564	-18.85
262.7	-2.85
262.836	6.15
262.971	18.15
263.107	-16.85
263.243	5.15
263.378	6.15
263.514	-23.85
263.65	-5.85
263.785	-26.85
263.921	-12.85
264.057	-8.85
264.192	5.15
264.328	2.15
264.464	-0.85
264.599	5.15
264.735	7.15
264.871	-12.85
265.006	-13.85
265.142	-2.85
265.277	-11.85
265.413	-10.85
265.548	-22.85
265.684	13.15
265.819	-5.85
265.955	-28.85
266.091	-21.85
266.226	-21.85
266.362	-22.85
266.497	-16.85
266.633	-19.85
266.768	5.15
266.903	-2.85
267.039	1.15
267.174	17.15
267.31	-6.85
267.445	-14.85
267.581	-10.85
267.716	-0.85
267.851	10.15
267.987	5.15
268.122	17.15
268.258	-10.85
268.393	-13.85
268.528	0.15
268.664	-17.85
268.799	-26.85
268.934	3.15
269.07	-34.85
269.205	0.15
269.34	21.15
269.476	6.15
269.611	-12.85
269.746	-3.85
269.881	2.15
270.017	7.15
270.152	-11.85
270.287	-4.85
270.422	7.15
270.558	-0.85
270.693	4.15
270.828	-18.85
270.963	-5.85
271.098	-11.85
271.234	-7.85
271.369	4.15
271.504	1.15
271.639	-28.85
271.774	-17.85
271.909	-9.85
272.045	-29.85
272.18	3.15
272.315	-10.85
272.45	6.15
272.585	1.15
272.72	-0.85
272.855	3.15
272.99	18.15
273.125	-9.85
273.26	-20.85
273.395	-12.85
273.53	-5.85
273.665	1.15
273.8	-13.85
273.935	-2.85
274.07	-11.85
274.205	4.15
274.34	-9.85
274.475	-0.85
274.61	11.15
274.745	17.15
274.88	17.15
275.015	-19.85
275.15	-5.85
275.285	2.15
275.42	-3.85
275.555	-5.85
275.69	-5.85
275.825	-19.85
275.959	-8.85
276.094	-9.85
276.229	6.15
276.364	-3.85
276.499	-18.85
276.634	-7.85
276.768	-5.85
276.903	3.15
277.038	6.15
277.173	0.15
277.308	-17.85
277.442	-24.85
277.577	-17.85
277.712	-5.85
277.847	0.15
277.981	8.15
278.116	-10.85
278.251	11.15
278.386	-5.85
278.52	17.15
278.655	8.15
278.79	1.15
278.924	5.15
279.059	6.15
279.194	-10.85
279.328	19.15
279.463	1.15
279.598	10.15
279.732	8.15
279.867	6.15
280.001	5.15
280.136	17.15
280.271	2.15
280.405	-12.85
280.54	-5.85
280.674	-15.85
280.809	23.15
280.943	8.15
281.078	7.15
281.213	10.15
281.347	9.15
281.482	2.15
281.616	2.15
281.751	3.15
281.885	-26.85
282.02	-4.85
282.154	6.15
282.288	-12.85
282.423	-7.85
282.557	-24.85
282.692	6.15
282.826	-8.85
282.961	9.15
283.095	0.15
283.229	-2.85
283.364	-3.85
283.498	-9.85
283.633	4.15
283.767	-3.85
283.901	-13.85
284.036	-0.85
284.17	-2.85
284.304	-9.85
284.439	-6.85
284.573	-5.85
284.707	15.15
284.842	-1.85
284.976	-10.85
285.11	-24.85
285.244	2.15
285.379	44.15
285.513	-15.85
285.647	-2.85
285.781	-12.85
285.916	20.15
286.05	-9.85
286.184	8.15
286.318	10.15
286.453	-14.85
286.587	-14.85
286.721	-13.85
286.855	3.15
286.989	8.15
287.123	0.15
287.258	10.15
287.392	-6.85
287.526	-8.85
287.66	-15.85
287.794	-7.85
287.928	-6.85
288.062	2.15
288.196	-2.85
288.33	1.15
288.464	28.15
288.598	9.15
288.733	3.15
288.867	17.15
289.001	-0.85
289.135	4.15
289.269	-16.85
289.403	-18.85
289.537	-3.85
289.671	0.15
289.805	-17.85
289.939	-27.85
290.073	-19.85
290.207	6.15
290.34	1.15
290.474	-1.85
290.608	-1.85
290.742	-13.85
290.876	-16.85
291.01	-13.85
291.144	25.15
291.278	12.15
291.412	-9.85
291.546	-20.85
291.679	-13.85
291.813	4.15
291.947	-6.85
292.081	8.15
292.215	-8.85
292.349	-2.85
292.482	7.15
292.616	-10.85
292.75	-12.85
292.884	5.15
293.018	-4.85
293.151	-2.85
293.285	1.15
293.419	-17.85
293.553	4.15
293.686	-3.85
293.82	11.15
293.954	15.15
294.088	0.15
294.221	-12.85
294.355	-2.85
294.489	-7.85
294.622	-8.85
294.756	-7.85
294.89	-10.85
295.023	6.15
295.157	4.15
295.291	-2.85
295.424	23.15
295.558	-17.85
295.691	-1.85
295.825	2.15
295.959	1.15
296.092	-6.85
296.226	1.15
296.359	5.15
296.493	7.15
296.627	-7.85
296.76	-10.85
296.894	-13.85
297.027	-12.85
297.161	-0.85
297.294	-26.85
297.428	-10.85
297.561	13.15
297.695	2.15
297.828	-31.85
297.962	-10.85
298.095	-11.85
298.229	-17.85
298.362	0.15
298.495	-5.85
298.629	-8.85
298.762	2.15
298.896	-12.85
299.029	-6.85
299.162	17.15
299.296	-9.85
299.429	0.15
299.563	6.15
299.696	10.15
299.829	-6.85
299.963	19.15
300.096	-10.85
300.229	-17.85
300.363	-2.85
300.496	15.15
300.629	-14.85
300.763	-9.85
300.896	-3.85
301.029	8.15
301.162	-12.85
301.296	-31.85
301.429	-9.85
301.562	-42.85
301.695	0.15
301.829	10.15
301.962	5.15
302.095	-18.85
302.228	-10.85
302.362	15.15
302.495	-15.85
302.628	3.15
302.761	-36.85
302.894	3.15
303.027	15.15
303.161	-14.85
303.294	-16.85
303.427	0.15
303.56	-10.85
303.693	0.15
303.826	-8.85
303.959	0.15
304.092	5.15
304.225	-15.85
304.359	-12.85
304.492	-9.85
304.625	-13.85
304.758	9.15
304.891	-23.85
305.024	-11.85
305.157	-3.85
305.29	-27.85
305.423	-6.85
305.556	2.15
305.689	12.15
305.822	-17.85
305.955	-2.85
306.088	-3.85
306.221	2.15
306.354	-4.85
306.487	-4.85
306.62	-11.85
306.752	-9.85
306.885	13.15
307.018	-11.85
307.151	-0.85
307.284	-7.85
307.417	-10.85
307.55	1.15
307.683	5.15
307.816	5.15
307.948	-0.85
308.081	8.15
308.214	-4.85
308.347	24.15
308.48	-22.85
308.613	-11.85
308.745	-0.85
308.878	-7.85
309.011	-11.85
309.144	0.15
309.277	-11.85
309.409	14.15
309.542	-12.85
309.675	-3.85
309.808	-5.85
309.94	1.15
310.073	-25.85
310.206	-14.85
310.339	3.15
310.471	-19.85
310.604	6.15
310.737	-8.85
310.869	-3.85
311.002	-10.85
311.135	-15.85
311.267	-28.85
311.4	1.15
311.533	24.15
311.665	-19.85
311.798	-7.85
311.93	5.15
312.063	19.15
312.196	41.15
312.328	76.15
312.461	31.15
312.593	27.15
312.726	39.15
312.859	77.15
312.991	159.15
313.124	29.15
313.256	8.15
313.389	10.15
313.521	-9.85
313.654	4.15
313.786	-10.85
313.919	-9.85
314.051	-15.85
314.184	-9.85
314.316	6.15
314.449	-9.85
314.581	-13.85
314.714	-0.85
314.846	-17.85
314.978	-9.85
315.111	5.15
315.243	20.15
315.376	1.15
315.508	2.15
315.641	-9.85
315.773	2.15
315.905	0.15
316.038	-5.85
316.17	-19.85
316.302	5.15
316.435	-11.85
316.567	-7.85
316.699	17.15
316.832	-15.85
316.964	-10.85
317.096	-18.85
317.229	-14.85
317.361	-28.85
317.493	-12.85
317.625	-23.85
317.758	4.15
317.89	13.15
318.022	1.15
318.155	-10.85
318.287	-1.85
318.419	-20.85
318.551	-1.85
318.683	-0.85
318.816	-13.85
318.948	-5.85
319.08	-16.85
319.212	5.15
319.344	-10.85
319.477	1.15
319.609	2.15
319.741	16.15
319.873	-10.85
320.005	-19.85
320.137	-1.85
320.269	-4.85
320.401	-7.85
320.534	-13.85
320.666	-30.85
320.798	-17.85
320.93	-8.85
321.062	-26.85
321.194	-10.85
321.326	12.15
321.458	-9.85
321.59	-35.85
321.722	-19.85
321.854	-28.85
321.986	0.15
322.118	-13.85
322.25	-30.85
322.382	-6.85
322.514	-6.85
322.646	-6.85
322.778	8.15
322.91	-16.85
323.042	-15.85
323.174	1.15
323.306	-12.85
323.438	-36.85
323.57	-11.85
323.702	-5.85
323.834	-5.85
323.966	-15.85
324.097	-15.85
324.229	6.15
324.361	-0.85
324.493	-5.85
324.625	-19.85
324.757	-22.85
324.889	-0.85
325.021	-9.85
325.152	10.15
325.284	27.15
325.416	-9.85
325.548	-1.85
325.68	-3.85
325.811	12.15
325.943	3.15
326.075	-1.85
326.207	22.15
326.339	6.15
326.47	-9.85
326.602	13.15
326.734	15.15
326.866	0.15
326.997	-22.85
327.129	-9.85
327.261	-13.85
327.392	-19.85
327.524	-7.85
327.656	5.15
327.787	14.15
327.919	4.15
328.051	7.15
328.182	14.15
328.314	19.15
328.446	-8.85
328.577	8.15
328.709	14.15
328.841	-13.85
328.972	-12.85
329.104	-29.85
329.235	5.15
329.367	-8.85
329.499	-9.85
329.63	5.15
329.762	0.15
329.893	21.15
330.025	20.15
330.156	-21.85
330.288	-16.85
330.419	8.15
330.551	-1.85
330.683	3.15
330.814	-6.85
330.946	26.15
331.077	-7.85
331.208	-14.85
331.34	-7.85
331.471	-28.85
331.603	-19.85
331.734	-25.85
331.866	4.15
331.997	-5.85
332.129	-11.85
332.26	-23.85
332.392	10.15
332.523	-10.85
332.654	-14.85
332.786	-3.85
332.917	-12.85
333.048	3.15
333.18	16.15
333.311	-4.85
333.443	-9.85
333.574	15.15
333.705	35.15
333.837	41.15
333.968	118.15
334.099	236.15
334.231	186.15
334.362	31.15
334.493	31.15
334.624	18.15
334.756	9.15
334.887	1.15
335.018	-6.85
335.15	5.15
335.281	29.15
335.412	25.15
335.543	-5.85
335.675	-7.85
335.806	-0.85
335.937	4.15
336.068	30.15
336.199	29.15
336.331	5.15
336.462	-11.85
336.593	2.15
336.724	-8.85
336.855	3.15
336.986	-14.85
337.118	-1.85
337.249	7.15
337.38	11.15
337.511	6.15
337.642	-4.85
337.773	1.15
337.904	3.15
338.035	15.15
338.166	5.15
338.298	8.15
338.429	-13.85
338.56	7.15
338.691	8.15
338.822	-1.85
338.953	21.15
339.084	26.15
339.215	9.15
339.346	20.15
339.477	23.15
339.608	-13.85
339.739	-7.85
339.87	1.15
340.001	-4.85
340.132	14.15
340.263	3.15
340.394	42.15
340.525	6.15
340.656	-15.85
340.787	-10.85
340.918	28.15
341.049	19.15
341.179	7.15
341.31	1.15
341.441	10.15
341.572	15.15
341.703	22.15
341.834	3.15
341.965	17.15
342.096	8.15
342.227	6.15
342.357	4.15
342.488	5.15
342.619	-0.85
342.75	3.15
342.881	-9.85
343.012	12.15
343.142	23.15
343.273	5.15
343.404	25.15
343.535	27.15
343.666	19.15
343.796	13.15
343.927	31.15
344.058	29.15
344.189	36.15
344.319	18.15
344.45	16.15
344.581	-1.85
344.712	-13.85
344.842	16.15
344.973	4.15
345.104	18.15
345.234	22.15
345.365	1.15
345.496	31.15
345.626	12.15
345.757	20.15
345.888	18.15
346.018	15.15
346.149	25.15
346.28	25.15
346.41	0.15
346.541	21.15
346.672	22.15
346.802	20.15
346.933	12.15
347.063	11.15
347.194	18.15
347.325	19.15
347.455	34.15
347.586	30.15
347.716	-3.85
347.847	23.15
347.977	19.15
348.108	26.15
348.238	20.15
348.369	44.15
348.499	50.15
348.63	28.15
348.76	40.15
348.891	53.15
349.021	56.15
349.152	34.15
349.282	54.15
349.413	33.15
349.543	43.15
349.674	28.15
349.804	37.15
349.935	12.15
350.065	26.15
350.196	6.15
350.326	31.15
350.456	4.15
350.587	39.15
350.717	23.15
350.848	15.15
350.978	21.15
351.108	-1.85
351.239	17.15
351.369	14.15
351.499	14.15
351.63	22.15
351.76	4.15
351.89	3.15
352.021	16.15
352.151	-2.85
352.281	16.15
352.412	27.15
352.542	13.15
352.672	-0.85
352.803	18.15
352.933	14.15
353.063	27.15
353.193	6.15
353.324	15.15
353.454	30.15
353.584	23.15
353.714	13.15
353.845	26.15
353.975	10.15
354.105	18.15
354.235	21.15
354.365	8.15
354.496	16.15
354.626	19.15
354.756	8.15
354.886	8.15
355.016	4.15
355.146	37.15
355.277	24.15
355.407	3.15
355.537	28.15
355.667	22.15
355.797	10.15
355.927	8.15
356.057	26.15
356.187	14.15
356.318	10.15
356.448	1.15
356.578	17.15
356.708	31.15
356.838	19.15
356.968	8.15
357.098	26.15
357.228	37.15
357.358	21.15
357.488	21.15
357.618	37.15
357.748	35.15
357.878	14.15
358.008	21.15
358.138	8.15
358.268	26.15
358.398	26.15
358.528	-1.85
358.658	10.15
358.788	16.15
358.918	15.15
359.048	26.15
359.178	39.15
359.308	17.15
359.438	30.15
359.568	39.15
359.698	18.15
359.827	17.15
359.957	26.15
360.087	20.15
360.217	1.15
360.347	17.15
360.477	22.15
360.607	6.15
360.737	37.15
360.866	17.15
360.996	13.15
361.126	20.15
361.256	36.15
361.386	52.15
361.516	38.15
361.645	2.15
361.775	36.15
361.905	9.15
362.035	26.15
362.165	31.15
362.294	40.15
362.424	48.15
362.554	26.15
362.684	8.15
362.813	32.15
362.943	42.15
363.073	63.15
363.203	50.15
363.332	80.15
363.462	71.15
363.592	95.15
363.721	102.15
363.851	138.15
363.981	193.15
364.111	258.15
364.24	324.15
364.37	475.15
364.5	861.15
364.629	1823.15
364.759	3837.15
364.888	6268.15
365.018	9362.15
365.148	14796.15
365.277	12888.15
365.407	4740.15
365.537	3133.15
365.666	4055.15
365.796	1820.15
365.925	795.15
366.055	753.15
366.184	1014.15
366.314	1349.15
366.444	2432.15
366.573	2093.15
366.703	667.15
366.832	204.15
366.962	122.15
367.091	73.15
367.221	77.15
367.35	47.15
367.48	71.15
367.609	28.15
367.739	57.15
367.868	25.15
367.998	38.15
368.127	26.15
368.257	39.15
368.386	41.15
368.516	51.15
368.645	19.15
368.775	42.15
368.904	17.15
369.033	31.15
369.163	17.15
369.292	34.15
369.422	43.15
369.551	43.15
369.68	27.15
369.81	38.15
369.939	18.15
370.069	47.15
370.198	25.15
370.327	5.15
370.457	31.15
370.586	33.15
370.715	21.15
370.845	31.15
370.974	29.15
371.103	47.15
371.233	51.15
371.362	57.15
371.491	22.15
371.621	48.15
371.75	22.15
371.879	20.15
372.008	54.15
372.138	32.15
372.267	52.15
372.396	35.15
372.525	29.15
372.655	14.15
372.784	13.15
372.913	25.15
373.042	12.15
373.172	27.15
373.301	-9.85
373.43	1.15
373.559	5.15
373.688	18.15
373.818	25.15
373.947	12.15
374.076	21.15
374.205	25.15
374.334	10.15
374.463	12.15
374.593	24.15
374.722	10.15
374.851	14.15
374.98	11.15
375.109	17.15
375.238	44.15
375.367	41.15
375.496	-10.85
375.625	-20.85
375.755	3.15
375.884	21.15
376.013	30.15
376.142	17.15
376.271	22.15
376.4	5.15
376.529	18.15
376.658	-6.85
376.787	24.15
376.916	18.15
377.045	14.15
377.174	9.15
377.303	16.15
377.432	36.15
377.561	19.15
377.69	1.15
377.819	35.15
377.948	17.15
378.077	7.15
378.206	0.15
378.335	22.15
378.464	0.15
378.593	1.15
378.722	-4.85
378.851	8.15
378.98	30.15
379.108	-7.85
379.237	2.15
379.366	13.15
379.495	39.15
379.624	16.15
379.753	16.15
379.882	32.15
380.011	2.15
380.14	2.15
380.268	13.15
380.397	10.15
380.526	37.15
380.655	-1.85
380.784	-6.85
380.913	4.15
381.041	-7.85
381.17	-20.85
381.299	-18.85
381.428	23.15
381.557	7.15
381.685	7.15
381.814	22.15
381.943	11.15
382.072	-8.85
382.2	10.15
382.329	1.15
382.458	13.15
382.587	29.15
382.715	35.15
382.844	24.15
382.973	12.15
383.102	2.15
383.23	6.15
383.359	-8.85
383.488	19.15
383.616	7.15
383.745	-4.85
383.874	13.15
384.003	21.15
384.131	-8.85
384.26	2.15
384.389	16.15
384.517	0.15
384.646	-12.85
384.774	5.15
384.903	4.15
385.032	26.15
385.16	18.15
385.289	12.15
385.418	-6.85
385.546	13.15
385.675	3.15
385.803	12.15
385.932	37.15
386.06	3.15
386.189	20.15
386.318	14.15
386.446	18.15
386.575	32.15
386.703	20.15
386.832	17.15
386.96	9.15
387.089	29.15
387.217	8.15
387.346	-3.85
387.474	24.15
387.603	28.15
387.731	28.15
387.86	20.15
387.988	9.15
388.117	12.15
388.245	3.15
388.374	14.15
388.502	38.15
388.631	-5.85
388.759	13.15
388.888	-0.85
389.016	-10.85
389.144	25.15
389.273	10.15
389.401	16.15
389.53	21.15
389.658	28.15
389.786	1.15
389.915	-3.85
390.043	-9.85
390.172	-1.85
390.3	24.15
390.428	29.15
390.557	21.15
390.685	42.15
390.813	38.15
390.942	56.15
391.07	20.15
391.198	1.15
391.327	12.15
391.455	5.15
391.583	25.15
391.712	12.15
391.84	26.15
391.968	30.15
392.096	13.15
392.225	13.15
392.353	21.15
392.481	13.15
392.609	11.15
392.738	16.15
392.866	22.15
392.994	12.15
393.122	21.15
393.251	3.15
393.379	-1.85
393.507	-6.85
393.635	14.15
393.764	16.15
393.892	16.15
394.02	7.15
394.148	7.15
394.276	10.15
394.404	56.15
394.533	18.15
394.661	8.15
394.789	20.15
394.917	21.15
395.045	16.15
395.173	8.15
395.302	15.15
395.43	19.15
395.558	41.15
395.686	41.15
395.814	42.15
395.942	6.15
396.07	26.15
396.198	45.15
396.326	26.15
396.454	35.15
396.582	22.15
396.711	7.15
396.839	24.15
396.967	36.15
397.095	25.15
397.223	26.15
397.351	50.15
397.479	37.15
397.607	12.15
397.735	34.15
397.863	49.15
397.991	41.15
398.119	26.15
398.247	37.15
398.375	23.15
398.503	54.15
398.631	46.15
398.759	55.15
398.887	29.15
399.015	21.15
399.143	48.15
399.271	54.15
399.399	51.15
399.526	56.15
399.654	63.15
399.782	56.15
399.91	89.15
400.038	90.15
400.166	76.15
400.294	77.15
400.422	84.15
400.55	105.15
400.678	80.15
400.805	107.15
400.933	109.15
401.061	110.15
401.189	104.15
401.317	144.15
401.445	119.15
401.573	66.15
401.7	46.15
401.828	43.15
401.956	34.15
402.084	38.15
402.212	33.15
402.34	7.15
402.467	42.15
402.595	47.15
402.723	44.15
402.851	50.15
402.978	46.15
403.106	70.15
403.234	85.15
403.362	109.15
403.489	119.15
403.617	154.15
403.745	206.15
403.873	277.15
404	552.15
404.128	1450.15
404.256	3917.15
404.384	5102.15
404.511	5420.15
404.639	7194.15
404.767	11446.15
404.894	14637.15
405.022	4909.15
405.15	1293.15
405.277	414.15
405.405	217.15
405.533	108.15
405.66	92.15
405.788	49.15
405.916	49.15
406.043	34.15
406.171	50.15
406.299	50.15
406.426	43.15
406.554	27.15
406.681	74.15
406.809	43.15
406.937	52.15
407.064	68.15
407.192	128.15
407.319	292.15
407.447	503.15
407.574	539.15
407.702	616.15
407.83	833.15
407.957	1568.15
408.085	925.15
408.212	268.15
408.34	88.15
408.467	56.15
408.595	46.15
408.722	61.15
408.85	44.15
408.977	25.15
409.105	21.15
409.232	39.15
409.36	35.15
409.487	17.15
409.615	24.15
409.742	24.15
409.87	23.15
409.997	33.15
410.125	39.15
410.252	24.15
410.379	5.15
410.507	31.15
410.634	11.15
410.762	25.15
410.889	27.15
411.017	27.15
411.144	22.15
411.271	22.15
411.399	10.15
411.526	18.15
411.653	25.15
411.781	28.15
411.908	30.15
412.036	12.15
412.163	23.15
412.29	26.15
412.418	42.15
412.545	27.15
412.672	6.15
412.8	51.15
412.927	26.15
413.054	45.15
413.182	23.15
413.309	25.15
413.436	9.15
413.564	18.15
413.691	-7.85
413.818	35.15
413.945	4.15
414.073	19.15
414.2	12.15
414.327	26.15
414.454	39.15
414.582	13.15
414.709	10.15
414.836	21.15
414.963	26.15
415.091	28.15
415.218	28.15
415.345	21.15
415.472	1.15
415.6	22.15
415.727	20.15
415.854	27.15
415.981	18.15
416.108	1.15
416.236	19.15
416.363	12.15
416.49	4.15
416.617	21.15
416.744	35.15
416.871	37.15
416.998	23.15
417.126	23.15
417.253	12.15
417.38	21.15
417.507	25.15
417.634	35.15
417.761	26.15
417.888	18.15
418.015	13.15
418.143	34.15
418.27	35.15
418.397	31.15
418.524	32.15
418.651	13.15
418.778	28.15
418.905	40.15
419.032	36.15
419.159	25.15
419.286	37.15
419.413	58.15
419.54	42.15
419.667	29.15
419.794	33.15
419.921	50.15
420.048	46.15
420.175	48.15
420.302	27.15
420.429	61.15
420.556	41.15
420.683	43.15
420.81	42.15
420.937	53.15
421.064	53.15
421.191	61.15
421.318	71.15
421.445	80.15
421.572	37.15
421.699	52.15
421.826	35.15
421.953	16.15
422.08	28.15
422.207	0.15
422.334	9.15
422.461	35.15
422.588	-2.85
422.714	30.15
422.841	33.15
422.968	17.15
423.095	15.15
423.222	-0.85
423.349	13.15
423.476	13.15
423.603	4.15
423.729	7.15
423.856	24.15
423.983	17.15
424.11	8.15
424.237	14.15
424.364	30.15
424.491	21.15
424.617	1.15
424.744	2.15
424.871	16.15
424.998	-3.85
425.125	9.15
425.251	15.15
425.378	5.15
425.505	-3.85
425.632	7.15
425.758	-4.85
425.885	26.15
426.012	18.15
426.139	23.15
426.266	-3.85
426.392	15.15
426.519	21.15
426.646	13.15
426.772	26.15
426.899	-8.85
427.026	12.15
427.153	1.15
427.279	37.15
427.406	34.15
427.533	7.15
427.659	19.15
427.786	21.15
427.913	35.15
428.039	12.15
428.166	13.15
428.293	3.15
428.419	35.15
428.546	14.15
428.673	-2.85
428.799	20.15
428.926	14.15
429.053	44.15
429.179	32.15
429.306	40.15
429.433	35.15
429.559	24.15
429.686	12.15
429.812	17.15
429.939	5.15
430.066	8.15
430.192	16.15
430.319	28.15
430.445	21.15
430.572	25.15
430.699	-4.85
430.825	4.15
430.952	23.15
431.078	16.15
431.205	18.15
431.331	12.15
431.458	37.15
431.584	32.15
431.711	14.15
431.837	34.15
431.964	20.15
432.09	19.15
432.217	-0.85
432.343	20.15
432.47	34.15
432.596	5.15
432.723	8.15
432.849	33.15
432.976	34.15
433.102	27.15
433.229	27.15
433.355	46.15
433.482	90.15
433.608	104.15
433.735	105.15
433.861	92.15
433.987	153.15
434.114	192.15
434.24	174.15
434.367	213.15
434.493	201.15
434.62	282.15
434.746	358.15
434.872	591.15
434.999	821.15
435.125	1734.15
435.252	5561.15
435.378	13382.15
435.504	15216.15
435.631	15392.15
435.757	15675.15
435.883	15675.15
436.01	15675.15
436.136	15675.15
436.262	15675.15
436.389	3480.15
436.515	2129.15
436.641	800.15
436.768	640.15
436.894	397.15
437.02	401.15
437.147	317.15
437.273	288.15
437.399	209.15
437.526	237.15
437.652	177.15
437.778	209.15
437.904	134.15
438.031	152.15
438.157	134.15
438.283	145.15
438.409	102.15
438.536	111.15
438.662	98.15
438.788	117.15
438.914	95.15
439.041	125.15
439.167	125.15
439.293	78.15
439.419	86.15
439.546	94.15
439.672	78.15
439.798	77.15
439.924	81.15
440.05	87.15
440.177	73.15
440.303	48.15
440.429	56.15
440.555	65.15
440.681	47.15
440.807	77.15
440.934	52.15
441.06	64.15
441.186	48.15
441.312	45.15
441.438	49.15
441.564	70.15
441.69	64.15
441.816	57.15
441.943	42.15
442.069	62.15
442.195	38.15
442.321	49.15
442.447	27.15
442.573	29.15
442.699	40.15
442.825	33.15
442.951	27.15
443.077	47.15
443.203	45.15
443.33	37.15
443.456	9.15
443.582	18.15
443.708	23.15
443.834	57.15
443.96	31.15
444.086	32.15
444.212	45.15
444.338	50.15
444.464	40.15
444.59	61.15
444.716	41.15
444.842	40.15
444.968	23.15
445.094	29.15
445.22	25.15
445.346	24.15
445.472	27.15
445.598	17.15
445.724	31.15
445.85	25.15
445.976	33.15
446.102	36.15
446.228	41.15
446.354	44.15
446.48	23.15
446.605	31.15
446.731	17.15
446.857	23.15
446.983	28.15
447.109	13.15
447.235	15.15
447.361	15.15
447.487	17.15
447.613	31.15
447.739	37.15
447.865	19.15
447.99	35.15
448.116	18.15
448.242	21.15
448.368	25.15
448.494	21.15
448.62	17.15
448.746	25.15
448.872	44.15
448.997	19.15
449.123	24.15
449.249	29.15
449.375	51.15
449.501	9.15
449.627	14.15
449.752	33.15
449.878	14.15
450.004	12.15
450.13	19.15
450.256	21.15
450.381	24.15
450.507	18.15
450.633	28.15
450.759	28.15
450.884	21.15
451.01	19.15
451.136	0.15
451.262	25.15
451.388	18.15
451.513	11.15
451.639	27.15
451.765	29.15
451.89	36.15
452.016	27.15
452.142	13.15
452.268	25.15
452.393	31.15
452.519	24.15
452.645	26.15
452.771	20.15
452.896	21.15
453.022	4.15
453.148	36.15
453.273	13.15
453.399	28.15
453.525	-6.85
453.65	4.15
453.776	25.15
453.902	22.15
454.027	29.15
454.153	33.15
454.279	44.15
454.404	16.15
454.53	46.15
454.656	65.15
454.781	17.15
454.907	17.15
455.032	7.15
455.158	45.15
455.284	44.15
455.409	13.15
455.535	6.15
455.66	21.15
455.786	19.15
455.912	39.15
456.037	20.15
456.163	4.15
456.288	19.15
456.414	4.15
456.539	5.15
456.665	31.15
456.791	13.15
456.916	7.15
457.042	19.15
457.167	10.15
457.293	9.15
457.418	12.15
457.544	10.15
457.669	9.15
457.795	1.15
457.92	22.15
458.046	5.15
458.171	27.15
458.297	11.15
458.422	15.15
458.548	1.15
458.673	22.15
458.799	22.15
458.924	1.15
459.05	17.15
459.175	18.15
459.301	12.15
459.426	16.15
459.552	16.15
459.677	12.15
459.803	36.15
459.928	15.15
460.053	0.15
460.179	8.15
460.304	37.15
460.43	9.15
460.555	8.15
460.681	14.15
460.806	25.15
460.931	28.15
461.057	21.15
461.182	15.15
461.308	33.15
461.433	23.15
461.558	-4.85
461.684	14.15
461.809	45.15
461.934	31.15
462.06	29.15
462.185	0.15
462.311	20.15
462.436	13.15
462.561	12.15
462.687	5.15
462.812	2.15
462.937	5.15
463.063	11.15
463.188	-3.85
463.313	24.15
463.439	19.15
463.564	10.15
463.689	19.15
463.814	22.15
463.94	15.15
464.065	17.15
464.19	24.15
464.316	10.15
464.441	-3.85
464.566	3.15
464.692	18.15
464.817	16.15
464.942	15.15
465.067	1.15
465.193	16.15
465.318	13.15
465.443	9.15
465.568	6.15
465.694	34.15
465.819	45.15
465.944	25.15
466.069	14.15
466.194	29.15
466.32	33.15
466.445	13.15
466.57	13.15
466.695	19.15
466.82	37.15
466.946	36.15
467.071	21.15
467.196	7.15
467.321	23.15
467.446	32.15
467.572	25.15
467.697	9.15
467.822	38.15
467.947	24.15
468.072	41.15
468.197	30.15
468.323	15.15
468.448	28.15
468.573	13.15
468.698	30.15
468.823	33.15
468.948	19.15
469.073	16.15
469.198	43.15
469.324	34.15
469.449	25.15
469.574	53.15
469.699	46.15
469.824	34.15
469.949	16.15
470.074	18.15
470.199	41.15
470.324	21.15
470.449	25.15
470.574	13.15
470.7	25.15
470.825	26.15
470.95	54.15
471.075	4.15
471.2	24.15
471.325	49.15
471.45	24.15
471.575	42.15
471.7	34.15
471.825	22.15
471.95	21.15
472.075	16.15
472.2	6.15
472.325	15.15
472.45	27.15
472.575	13.15
472.7	21.15
472.825	23.15
472.95	37.15
473.075	38.15
473.2	20.15
473.325	25.15
473.45	26.15
473.575	35.15
473.7	47.15
473.825	19.15
473.95	11.15
474.075	19.15
474.2	13.15
474.325	2.15
474.45	12.15
474.574	30.15
474.699	22.15
474.824	40.15
474.949	14.15
475.074	-8.85
475.199	19.15
475.324	21.15
475.449	23.15
475.574	23.15
475.699	7.15
475.824	1.15
475.949	10.15
476.073	14.15
476.198	9.15
476.323	26.15
476.448	26.15
476.573	19.15
476.698	23.15
476.823	17.15
476.947	33.15
477.072	38.15
477.197	12.15
477.322	2.15
477.447	4.15
477.572	2.15
477.697	-0.85
477.821	-4.85
477.946	16.15
478.071	28.15
478.196	25.15
478.321	3.15
478.445	4.15
478.57	6.15
478.695	15.15
478.82	29.15
478.945	22.15
479.069	8.15
479.194	24.15
479.319	16.15
479.444	18.15
479.569	-8.85
479.693	24.15
479.818	7.15
479.943	14.15
480.068	14.15
480.192	24.15
480.317	17.15
480.442	11.15
480.567	-0.85
480.691	2.15
480.816	22.15
480.941	13.15
481.066	22.15
481.19	22.15
481.315	32.15
481.44	28.15
481.564	-2.85
481.689	18.15
481.814	5.15
481.938	-10.85
482.063	1.15
482.188	14.15
482.313	5.15
482.437	9.15
482.562	21.15
482.687	15.15
482.811	6.15
482.936	8.15
483.061	20.15
483.185	5.15
483.31	28.15
483.435	18.15
483.559	6.15
483.684	9.15
483.808	27.15
483.933	21.15
484.058	11.15
484.182	25.15
484.307	3.15
484.432	26.15
484.556	1.15
484.681	5.15
484.805	18.15
484.93	17.15
485.055	29.15
485.179	37.15
485.304	29.15
485.428	15.15
485.553	17.15
485.678	17.15
485.802	13.15
485.927	34.15
486.051	29.15
486.176	0.15
486.3	10.15
486.425	19.15
486.549	19.15
486.674	36.15
486.799	5.15
486.923	3.15
487.048	10.15
487.172	14.15
487.297	6.15
487.421	14.15
487.546	18.15
487.67	28.15
487.795	14.15
487.919	11.15
488.044	22.15
488.168	27.15
488.293	18.15
488.417	13.15
488.542	7.15
488.666	23.15
488.791	16.15
488.915	18.15
489.04	28.15
489.164	19.15
489.289	35.15
489.413	12.15
489.538	8.15
489.662	24.15
489.786	8.15
489.911	16.15
490.035	8.15
490.16	12.15
490.284	8.15
490.409	-2.85
490.533	14.15
490.658	38.15
490.782	16.15
490.906	34.15
491.031	91.15
491.155	144.15
491.28	154.15
491.404	150.15
491.528	264.15
491.653	146.15
491.777	63.15
491.902	23.15
492.026	23.15
492.15	41.15
492.275	24.15
492.399	19.15
492.524	0.15
492.648	16.15
492.772	18.15
492.897	15.15
493.021	8.15
493.145	31.15
493.27	20.15
493.394	0.15
493.518	5.15
493.643	0.15
493.767	1.15
493.891	-1.85
494.016	22.15
494.14	18.15
494.264	20.15
494.389	32.15
494.513	8.15
494.637	7.15
494.762	28.15
494.886	13.15
495.01	4.15
495.134	27.15
495.259	23.15
495.383	12.15
495.507	2.15
495.632	30.15
495.756	60.15
495.88	31.15
496.004	22.15
496.129	-10.85
496.253	4.15
496.377	9.15
496.501	26.15
496.626	10.15
496.75	6.15
496.874	18.15
496.998	-7.85
497.123	29.15
497.247	20.15
497.371	18.15
497.495	3.15
497.62	3.15
497.744	12.15
497.868	-1.85
497.992	17.15
498.116	19.15
498.241	18.15
498.365	1.15
498.489	2.15
498.613	25.15
498.737	11.15
498.862	0.15
498.986	-2.85
499.11	16.15
499.234	12.15
499.358	15.15
499.482	4.15
499.607	21.15
499.731	25.15
499.855	18.15
499.979	14.15
500.103	23.15
500.227	26.15
500.351	38.15
500.476	31.15
500.6	5.15
500.724	8.15
500.848	12.15
500.972	29.15
501.096	14.15
501.22	38.15
501.344	10.15
501.469	8.15
501.593	18.15
501.717	39.15
501.841	17.15
501.965	16.15
502.089	19.15
502.213	25.15
502.337	9.15
502.461	5.15
502.585	8.15
502.709	10.15
502.834	23.15
502.958	4.15
503.082	13.15
503.206	17.15
503.33	27.15
503.454	22.15
503.578	12.15
503.702	33.15
503.826	10.15
503.95	28.15
504.074	2.15
504.198	7.15
504.322	22.15
504.446	18.15
504.57	20.15
504.694	19.15
504.818	17.15
504.942	34.15
505.066	17.15
505.19	13.15
505.314	33.15
505.438	36.15
505.562	20.15
505.686	18.15
505.81	2.15
505.934	23.15
506.058	21.15
506.182	30.15
506.306	32.15
506.43	16.15
506.554	27.15
506.678	3.15
506.802	30.15
506.926	21.15
507.05	9.15
507.174	17.15
507.298	22.15
507.422	2.15
507.546	22.15
507.67	32.15
507.794	-14.85
507.918	9.15
508.042	18.15
508.165	2.15
508.289	-6.85
508.413	-0.85
508.537	10.15
508.661	30.15
508.785	17.15
508.909	22.15
509.033	14.15
509.157	22.15
509.281	16.15
509.405	29.15
509.528	35.15
509.652	50.15
509.776	25.15
509.9	41.15
510.024	26.15
510.148	21.15
510.272	32.15
510.396	30.15
510.519	20.15
510.643	32.15
510.767	25.15
510.891	30.15
511.015	38.15
511.139	25.15
511.263	42.15
511.386	40.15
511.51	14.15
511.634	21.15
511.758	33.15
511.882	31.15
512.006	55.15
512.129	44.15
512.253	79.15
512.377	78.15
512.501	94.15
512.625	87.15
512.748	88.15
512.872	71.15
512.996	66.15
513.12	44.15
513.244	47.15
513.367	53.15
513.491	54.15
513.615	55.15
513.739	62.15
513.862	73.15
513.986	88.15
514.11	109.15
514.234	86.15
514.358	110.15
514.481	109.15
514.605	104.15
514.729	105.15
514.853	107.15
514.976	102.15
515.1	95.15
515.224	124.15
515.348	81.15
515.471	88.15
515.595	90.15
515.719	145.15
515.842	220.15
515.966	275.15
516.09	303.15
516.214	310.15
516.337	336.15
516.461	208.15
516.585	79.15
516.708	36.15
516.832	30.15
516.956	27.15
517.08	19.15
517.203	11.15
517.327	19.15
517.451	21.15
517.574	35.15
517.698	11.15
517.822	16.15
517.945	26.15
518.069	22.15
518.193	48.15
518.316	18.15
518.44	10.15
518.564	4.15
518.687	5.15
518.811	2.15
518.935	32.15
519.058	17.15
519.182	4.15
519.306	16.15
519.429	12.15
519.553	22.15
519.676	20.15
519.8	0.15
519.924	-1.85
520.047	9.15
520.171	16.15
520.294	15.15
520.418	27.15
520.542	3.15
520.665	19.15
520.789	20.15
520.913	-7.85
521.036	-11.85
521.16	2.15
521.283	12.15
521.407	3.15
521.53	0.15
521.654	-11.85
521.778	33.15
521.901	17.15
522.025	6.15
522.148	3.15
522.272	-11.85
522.395	-8.85
522.519	5.15
522.643	-2.85
522.766	10.15
522.89	16.15
523.013	8.15
523.137	-2.85
523.26	9.15
523.384	18.15
523.507	6.15
523.631	2.15
523.754	12.15
523.878	1.15
524.002	8.15
524.125	14.15
524.249	14.15
524.372	25.15
524.496	21.15
524.619	27.15
524.743	5.15
524.866	-15.85
524.99	6.15
525.113	0.15
525.237	30.15
525.36	22.15
525.484	10.15
525.607	9.15
525.731	-1.85
525.854	23.15
525.978	30.15
526.101	1.15
526.224	-14.85
526.348	12.15
526.471	6.15
526.595	0.15
526.718	5.15
526.842	5.15
526.965	30.15
527.089	6.15
527.212	23.15
527.336	20.15
527.459	19.15
527.582	2.15
527.706	30.15
527.829	9.15
527.953	20.15
528.076	7.15
528.2	2.15
528.323	23.15
528.446	21.15
528.57	-8.85
528.693	15.15
528.817	7.15
528.94	13.15
529.064	40.15
529.187	7.15
529.31	1.15
529.434	4.15
529.557	-5.85
529.68	0.15
529.804	22.15
529.927	8.15
530.051	-8.85
530.174	-11.85
530.297	12.15
530.421	28.15
530.544	31.15
530.668	15.15
530.791	1.15
530.914	26.15
531.038	12.15
531.161	15.15
531.284	13.15
531.408	15.15
531.531	12.15
531.654	11.15
531.778	16.15
531.901	-6.85
532.024	9.15
532.148	-5.85
532.271	13.15
532.394	-1.85
532.518	20.15
532.641	18.15
532.764	12.15
532.888	6.15
533.011	-12.85
533.134	-9.85
533.258	18.15
533.381	15.15
533.504	2.15
533.628	14.15
533.751	9.15
533.874	1.15
533.997	25.15
534.121	4.15
534.244	-0.85
534.367	15.15
534.491	5.15
534.614	3.15
534.737	18.15
534.86	12.15
534.984	20.15
535.107	14.15
535.23	3.15
535.354	14.15
535.477	7.15
535.6	23.15
535.723	17.15
535.847	-2.85
535.97	-3.85
536.093	5.15
536.216	1.15
536.34	19.15
536.463	14.15
536.586	23.15
536.709	22.15
536.833	25.15
536.956	23.15
537.079	5.15
537.202	20.15
537.325	10.15
537.449	-12.85
537.572	3.15
537.695	4.15
537.818	16.15
537.941	8.15
538.065	5.15
538.188	-3.85
538.311	24.15
538.434	24.15
538.558	10.15
538.681	20.15
538.804	22.15
538.927	1.15
539.05	23.15
539.173	14.15
539.297	4.15
539.42	16.15
539.543	18.15
539.666	28.15
539.789	3.15
539.913	19.15
540.036	24.15
540.159	20.15
540.282	7.15
540.405	2.15
540.528	5.15
540.651	36.15
540.775	10.15
540.898	16.15
541.021	16.15
541.144	3.15
541.267	19.15
541.39	19.15
541.513	22.15
541.637	21.15
541.76	19.15
541.883	23.15
542.006	41.15
542.129	35.15
542.252	29.15
542.375	37.15
542.498	25.15
542.622	23.15
542.745	41.15
542.868	35.15
542.991	56.15
543.114	44.15
543.237	61.15
543.36	53.15
543.483	36.15
543.606	53.15
543.73	82.15
543.853	70.15
543.976	73.15
544.099	117.15
544.222	122.15
544.345	121.15
544.468	165.15
544.591	212.15
544.714	276.15
544.837	340.15
544.96	432.15
545.083	637.15
545.206	1080.15
545.329	2451.15
545.453	10958.15
545.576	15248.15
545.699	15675.15
545.822	15675.15
545.945	15675.15
546.068	15675.15
546.191	15675.15
546.314	15675.15
546.437	15675.15
546.56	15675.15
546.683	15675.15
546.806	15675.15
546.929	15675.15
547.052	15675.15
547.175	15675.15
547.298	15675.15
547.421	15675.15
547.544	15675.15
547.667	3554.15
547.79	3041.15
547.913	1119.15
548.036	912.15
548.159	649.15
548.282	622.15
548.405	480.15
548.528	494.15
548.651	399.15
548.774	408.15
548.897	337.15
549.02	343.15
549.143	325.15
549.266	283.15
549.389	248.15
549.512	256.15
549.635	239.15
549.758	254.15
549.881	201.15
550.004	207.15
550.127	191.15
550.25	183.15
550.373	181.15
550.496	206.15
550.619	167.15
550.742	158.15
550.865	135.15
550.988	152.15
551.111	152.15
551.234	150.15
551.356	118.15
551.479	101.15
551.602	118.15
551.725	123.15
551.848	136.15
551.971	131.15
552.094	122.15
552.217	128.15
552.34	106.15
552.463	91.15
552.586	110.15
552.709	106.15
552.832	104.15
552.955	89.15
553.077	93.15
553.2	102.15
553.323	88.15
553.446	93.15
553.569	83.15
553.692	102.15
553.815	90.15
553.938	96.15
554.061	103.15
554.184	69.15
554.306	73.15
554.429	77.15
554.552	60.15
554.675	57.15
554.798	65.15
554.921	85.15
555.044	69.15
555.167	69.15
555.29	47.15
555.412	48.15
555.535	68.15
555.658	55.15
555.781	56.15
555.904	69.15
556.027	68.15
556.15	60.15
556.272	53.15
556.395	46.15
556.518	77.15
556.641	50.15
556.764	66.15
556.887	51.15
557.01	56.15
557.132	46.15
557.255	65.15
557.378	73.15
557.501	61.15
557.624	68.15
557.747	80.15
557.869	88.15
557.992	79.15
558.115	103.15
558.238	79.15
558.361	91.15
558.483	98.15
558.606	68.15
558.729	52.15
558.852	64.15
558.975	63.15
559.098	49.15
559.22	45.15
559.343	48.15
559.466	44.15
559.589	31.15
559.712	42.15
559.834	49.15
559.957	65.15
560.08	55.15
560.203	56.15
560.325	53.15
560.448	49.15
560.571	39.15
560.694	35.15
560.817	62.15
560.939	51.15
561.062	57.15
561.185	57.15
561.308	49.15
561.43	54.15
561.553	64.15
561.676	56.15
561.799	61.15
561.921	51.15
562.044	51.15
562.167	55.15
562.29	67.15
562.413	57.15
562.535	62.15
562.658	28.15
562.781	54.15
562.903	77.15
563.026	91.15
563.149	136.15
563.272	99.15
563.394	104.15
563.517	92.15
563.64	64.15
563.763	50.15
563.885	62.15
564.008	61.15
564.131	40.15
564.254	28.15
564.376	31.15
564.499	8.15
564.622	25.15
564.744	29.15
564.867	29.15
564.99	24.15
565.113	34.15
565.235	37.15
565.358	32.15
565.481	25.15
565.603	14.15
565.726	28.15
565.849	45.15
565.971	41.15
566.094	21.15
566.217	26.15
566.34	11.15
566.462	27.15
566.585	39.15
566.708	54.15
566.83	44.15
566.953	27.15
567.076	18.15
567.198	31.15
567.321	8.15
567.444	33.15
567.566	19.15
567.689	26.15
567.812	19.15
567.934	27.15
568.057	22.15
568.18	25.15
568.302	10.15
568.425	7.15
568.548	31.15
568.67	43.15
568.793	26.15
568.916	27.15
569.038	23.15
569.161	38.15
569.283	22.15
569.406	25.15
569.529	24.15
569.651	24.15
569.774	21.15
569.897	32.15
570.019	32.15
570.142	31.15
570.265	5.15
570.387	33.15
570.51	34.15
570.632	49.15
570.755	16.15
570.878	15.15
571	15.15
571.123	24.15
571.246	47.15
571.368	24.15
571.491	24.15
571.613	30.15
571.736	9.15
571.859	26.15
571.981	22.15
572.104	5.15
572.226	24.15
572.349	16.15
572.472	16.15
572.594	18.15
572.717	21.15
572.839	5.15
572.962	26.15
573.085	31.15
573.207	35.15
573.33	20.15
573.452	30.15
573.575	38.15
573.697	24.15
573.82	12.15
573.943	27.15
574.065	34.15
574.188	29.15
574.31	38.15
574.433	31.15
574.555	37.15
574.678	26.15
574.801	41.15
574.923	28.15
575.046	28.15
575.168	38.15
575.291	24.15
575.413	40.15
575.536	38.15
575.659	63.15
575.781	53.15
575.904	33.15
576.026	64.15
576.149	86.15
576.271	109.15
576.394	198.15
576.516	513.15
576.639	3640.15
576.761	10021.15
576.884	8704.15
577.007	8772.15
577.129	7992.15
577.252	3743.15
577.374	1288.15
577.497	501.15
577.619	285.15
577.742	159.15
577.864	147.15
577.987	127.15
578.109	128.15
578.232	126.15
578.354	133.15
578.477	194.15
578.599	391.15
578.722	1946.15
578.844	9178.15
578.967	9878.15
579.089	8809.15
579.212	9076.15
579.334	5268.15
579.457	1889.15
579.579	704.15
579.702	311.15
579.824	189.15
579.947	130.15
580.069	114.15
580.192	78.15
580.314	82.15
580.437	68.15
580.559	76.15
580.682	63.15
580.804	55.15
580.927	61.15
581.049	54.15
581.172	57.15
581.294	44.15
581.417	46.15
581.539	45.15
581.662	41.15
581.784	43.15
581.907	44.15
582.029	26.15
582.152	15.15
582.274	23.15
582.396	28.15
582.519	42.15
582.641	21.15
582.764	10.15
582.886	40.15
583.009	29.15
583.131	23.15
583.254	25.15
583.376	35.15
583.499	21.15
583.621	30.15
583.743	38.15
583.866	23.15
583.988	22.15
584.111	19.15
584.233	30.15
584.356	47.15
584.478	39.15
584.601	2.15
584.723	23.15
584.845	18.15
584.968	1.15
585.09	6.15
585.213	22.15
585.335	6.15
585.458	25.15
585.58	20.15
585.702	14.15
585.825	25.15
585.947	17.15
586.07	24.15
586.192	19.15
586.315	38.15
586.437	4.15
586.559	18.15
586.682	5.15
586.804	8.15
586.927	24.15
587.049	27.15
587.171	15.15
587.294	22.15
587.416	21.15
587.539	21.15
587.661	17.15
587.783	17.15
587.906	6.15
588.028	18.15
588.151	26.15
588.273	35.15
588.395	18.15
588.518	10.15
588.64	18.15
588.763	9.15
588.885	27.15
589.007	21.15
589.13	13.15
589.252	-14.85
589.375	8.15
589.497	8.15
589.619	8.15
589.742	17.15
589.864	27.15
589.986	24.15
590.109	13.15
590.231	15.15
590.354	39.15
590.476	6.15
590.598	14.15
590.721	8.15
590.843	12.15
590.965	16.15
591.088	36.15
591.21	2.15
591.332	26.15
591.455	-8.85
591.577	6.15
591.7	15.15
591.822	15.15
591.944	37.15
592.067	25.15
592.189	8.15
592.311	4.15
592.434	16.15
592.556	23.15
592.678	18.15
592.801	17.15
592.923	21.15
593.045	34.15
593.168	26.15
593.29	22.15
593.412	13.15
593.535	12.15
593.657	16.15
593.779	8.15
593.902	19.15
594.024	5.15
594.146	25.15
594.269	28.15
594.391	15.15
594.513	38.15
594.636	8.15
594.758	11.15
594.88	20.15
595.003	29.15
595.125	18.15
595.247	31.15
595.37	32.15
595.492	12.15
595.614	21.15
595.737	30.15
595.859	-2.85
595.981	-1.85
596.104	13.15
596.226	20.15
596.348	29.15
596.471	-3.85
596.593	19.15
596.715	4.15
596.838	21.15
596.96	15.15
597.082	26.15
597.204	21.15
597.327	11.15
597.449	17.15
597.571	16.15
597.694	33.15
597.816	29.15
597.938	5.15
598.061	9.15
598.183	9.15
598.305	32.15
598.427	17.15
598.55	17.15
598.672	14.15
598.794	36.15
598.917	3.15
599.039	13.15
599.161	16.15
599.283	11.15
599.406	31.15
599.528	18.15
599.65	25.15
599.773	25.15
599.895	24.15
600.017	11.15
600.139	23.15
600.262	3.15
600.384	19.15
600.506	21.15
600.628	50.15
600.751	32.15
600.873	13.15
600.995	18.15
601.118	26.15
601.24	22.15
601.362	36.15
601.484	25.15
601.607	26.15
601.729	14.15
601.851	17.15
601.973	18.15
602.096	21.15
602.218	18.15
602.34	16.15
602.462	22.15
602.585	30.15
602.707	18.15
602.829	16.15
602.951	21.15
603.074	12.15
603.196	13.15
603.318	4.15
603.44	30.15
603.563	8.15
603.685	2.15
603.807	27.15
603.929	32.15
604.052	26.15
604.174	20.15
604.296	32.15
604.418	23.15
604.541	29.15
604.663	4.15
604.785	8.15
604.907	16.15
605.03	1.15
605.152	30.15
605.274	17.15
605.396	9.15
605.519	2.15
605.641	13.15
605.763	8.15
605.885	7.15
606.008	11.15
606.13	22.15
606.252	20.15
606.374	-1.85
606.496	-7.85
606.619	28.15
606.741	17.15
606.863	38.15
606.985	17.15
607.108	34.15
607.23	7.15
607.352	17.15
607.474	16.15
607.596	7.15
607.719	-6.85
607.841	12.15
607.963	9.15
608.085	8.15
608.207	32.15
608.33	-0.85
608.452	-3.85
608.574	12.15
608.696	22.15
608.819	25.15
608.941	20.15
609.063	5.15
609.185	14.15
609.307	16.15
609.43	22.15
609.552	16.15
609.674	-3.85
609.796	39.15
609.918	16.15
610.041	27.15
610.163	16.15
610.285	20.15
610.407	27.15
610.529	-3.85
610.652	28.15
610.774	18.15
610.896	10.15
611.018	14.15
611.14	-1.85
611.263	0.15
611.385	7.15
611.507	29.15
611.629	14.15
611.751	12.15
611.873	27.15
611.996	10.15
612.118	29.15
612.24	7.15
612.362	30.15
612.484	37.15
612.607	26.15
612.729	46.15
612.851	25.15
612.973	-1.85
613.095	6.15
613.218	7.15
613.34	19.15
613.462	7.15
613.584	16.15
613.706	9.15
613.828	14.15
613.951	7.15
614.073	27.15
614.195	19.15
614.317	23.15
614.439	8.15
614.561	30.15
614.684	9.15
614.806	27.15
614.928	14.15
615.05	19.15
615.172	31.15
615.294	17.15
615.417	28.15
615.539	2.15
615.661	20.15
615.783	29.15
615.905	2.15
616.027	16.15
616.15	23.15
616.272	10.15
616.394	2.15
616.516	14.15
616.638	19.15
616.76	25.15
616.883	12.15
617.005	8.15
617.127	-3.85
617.249	21.15
617.371	19.15
617.493	15.15
617.615	32.15
617.738	24.15
617.86	21.15
617.982	14.15
618.104	9.15
618.226	-3.85
618.348	-0.85
618.471	16.15
618.593	17.15
618.715	-7.85
618.837	25.15
618.959	26.15
619.081	19.15
619.203	21.15
619.326	21.15
619.448	30.15
619.57	29.15
619.692	25.15
619.814	12.15
619.936	18.15
620.058	23.15
620.181	18.15
620.303	9.15
620.425	7.15
620.547	-11.85
620.669	-1.85
620.791	9.15
620.913	0.15
621.036	8.15
621.158	7.15
621.28	14.15
621.402	-8.85
621.524	7.15
621.646	15.15
621.768	-6.85
621.891	-15.85
622.013	11.15
622.135	14.15
622.257	-1.85
622.379	15.15
622.501	11.15
622.623	22.15
622.745	13.15
622.868	7.15
622.99	-3.85
623.112	13.15
623.234	7.15
623.356	25.15
623.478	12.15
623.6	21.15
623.722	6.15
623.845	28.15
623.967	24.15
624.089	30.15
624.211	12.15
624.333	10.15
624.455	19.15
624.577	10.15
624.699	5.15
624.822	6.15
624.944	6.15
625.066	-8.85
625.188	-3.85
625.31	2.15
625.432	29.15
625.554	7.15
625.676	21.15
625.799	22.15
625.921	16.15
626.043	19.15
626.165	23.15
626.287	14.15
626.409	15.15
626.531	5.15
626.653	15.15
626.775	11.15
626.898	28.15
627.02	29.15
627.142	40.15
627.264	10.15
627.386	16.15
627.508	28.15
627.63	19.15
627.752	9.15
627.874	4.15
627.997	17.15
628.119	14.15
628.241	12.15
628.363	21.15
628.485	23.15
628.607	16.15
628.729	4.15
628.851	-1.85
628.973	0.15
629.096	-15.85
629.218	1.15
629.34	10.15
629.462	14.15
629.584	23.15
629.706	17.15
629.828	14.15
629.95	2.15
630.072	1.15
630.195	-0.85
630.317	20.15
630.439	22.15
630.561	10.15
630.683	0.15
630.805	12.15
630.927	16.15
631.049	11.15
631.171	-4.85
631.293	14.15
631.416	19.15
631.538	9.15
631.66	-3.85
631.782	16.15
631.904	22.15
632.026	7.15
632.148	19.15
632.27	-4.85
632.392	19.15
632.514	5.15
632.637	15.15
632.759	14.15
632.881	0.15
633.003	12.15
633.125	0.15
633.247	5.15
633.369	19.15
633.491	18.15
633.613	12.15
633.735	8.15
633.858	2.15
633.98	-6.85
634.102	-5.85
634.224	-3.85
634.346	-2.85
634.468	-1.85
634.59	16.15
634.712	2.15
634.834	20.15
634.956	4.15
635.078	-2.85
635.201	3.15
635.323	-0.85
635.445	-3.85
635.567	-21.85
635.689	15.15
635.811	-3.85
635.933	13.15
636.055	12.15
636.177	-5.85
636.299	26.15
636.421	-14.85
636.544	-15.85
636.666	8.15
636.788	2.15
636.91	2.15
637.032	-7.85
637.154	-7.85
637.276	27.15
637.398	21.15
637.52	15.15
637.642	9.15
637.764	14.15
637.887	1.15
638.009	0.15
638.131	1.15
638.253	-2.85
638.375	13.15
638.497	23.15
638.619	0.15
638.741	15.15
638.863	-2.85
638.985	-0.85
639.107	7.15
639.23	10.15
639.352	12.15
639.474	2.15
639.596	-6.85
639.718	6.15
639.84	16.15
639.962	7.15
640.084	22.15
640.206	12.15
640.328	-2.85
640.45	20.15
640.573	11.15
640.695	8.15
640.817	0.15
640.939	13.15
641.061	9.15
641.183	6.15
641.305	-3.85
641.427	-2.85
641.549	1.15
641.671	10.15
641.793	18.15
641.915	12.15
642.038	4.15
642.16	2.15
642.282	-4.85
642.404	-1.85
642.526	8.15
642.648	-12.85
642.77	10.15
642.892	15.15
643.014	9.15
643.136	24.15
643.258	1.15
643.381	13.15
643.503	21.15
643.625	7.15
643.747	-3.85
643.869	-11.85
643.991	3.15
644.113	8.15
644.235	8.15
644.357	25.15
644.479	5.15
644.601	1.15
644.723	-2.85
644.846	12.15
644.968	21.15
645.09	11.15
645.212	8.15
645.334	12.15
645.456	17.15
645.578	17.15
645.7	9.15
645.822	12.15
645.944	27.15
646.066	12.15
646.188	-5.85
646.311	12.15
646.433	14.15
646.555	28.15
646.677	13.15
646.799	7.15
646.921	19.15
647.043	20.15
647.165	-5.85
647.287	12.15
647.409	3.15
647.531	32.15
647.654	-10.85
647.776	-5.85
647.898	5.15
648.02	-5.85
648.142	-2.85
648.264	-2.85
648.386	1.15
648.508	2.15
648.63	-4.85
648.752	5.15
648.874	4.15
648.997	13.15
649.119	6.15
649.241	6.15
649.363	22.15
649.485	28.15
649.607	11.15
649.729	-2.85
649.851	16.15
649.973	5.15
650.095	11.15
650.217	-7.85
650.34	0.15
650.462	-3.85
650.584	9.15
650.706	-7.85
650.828	20.15
650.95	-5.85
651.072	13.15
651.194	-1.85
651.316	3.15
651.438	1.15
651.56	2.15
651.683	0.15
651.805	10.15
651.927	8.15
652.049	20.15
652.171	6.15
652.293	5.15
652.415	-1.85
652.537	-5.85
652.659	-22.85
652.781	18.15
652.903	15.15
653.026	28.15
653.148	5.15
653.27	22.15
653.392	5.15
653.514	-3.85
653.636	5.15
653.758	6.15
653.88	-3.85
654.002	-6.85
654.124	8.15
654.247	16.15
654.369	18.15
654.491	6.15
654.613	-5.85
654.735	-17.85
654.857	17.15
654.979	13.15
655.101	12.15
655.223	22.15
655.345	26.15
655.468	23.15
655.59	-1.85
655.712	2.15
655.834	-5.85
655.956	2.15
656.078	7.15
656.2	17.15
656.322	-9.85
656.444	-5.85
656.566	-3.85
656.689	1.15
656.811	-0.85
656.933	12.15
657.055	-19.85
657.177	-9.85
657.299	-6.85
657.421	4.15
657.543	0.15
657.665	-10.85
657.787	1.15
657.91	17.15
658.032	-11.85
658.154	-3.85
658.276	10.15
658.398	1.15
658.52	12.15
658.642	15.15
658.764	14.15
658.886	1.15
659.009	-1.85
659.131	14.15
659.253	5.15
659.375	10.15
659.497	10.15
659.619	-0.85
659.741	-18.85
659.863	-6.85
659.985	-19.85
660.108	0.15
660.23	-5.85
660.352	9.15
660.474	18.15
660.596	12.15
660.718	13.15
660.84	6.15
660.962	4.15
661.084	-10.85
661.207	12.15
661.329	22.15
661.451	1.15
661.573	12.15
661.695	28.15
661.817	20.15
661.939	13.15
662.061	20.15
662.184	-6.85
662.306	-6.85
662.428	10.15
662.55	4.15
662.672	-1.85
662.794	9.15
662.916	7.15
663.038	7.15
663.161	21.15
663.283	12.15
663.405	13.15
663.527	5.15
663.649	6.15
663.771	12.15
663.893	11.15
664.015	2.15
664.138	-9.85
664.26	-2.85
664.382	13.15
664.504	-13.85
664.626	-26.85
664.748	-11.85
664.87	-6.85
664.992	40.15
665.115	19.15
665.237	-0.85
665.359	-9.85
665.481	2.15
665.603	17.15
665.725	4.15
665.847	-10.85
665.97	11.15
666.092	14.15
666.214	4.15
666.336	13.15
666.458	7.15
666.58	-0.85
666.702	-16.85
666.825	3.15
666.947	-3.85
667.069	3.15
667.191	0.15
667.313	4.15
667.435	-19.85
667.557	-2.85
667.68	-0.85
667.802	0.15
667.924	-10.85
668.046	-2.85
668.168	8.15
668.29	15.15
668.412	-2.85
668.535	8.15
668.657	4.15
668.779	-19.85
668.901	-3.85
669.023	12.15
669.145	32.15
669.267	12.15
669.39	6.15
669.512	-3.85
669.634	5.15
669.756	-5.85
669.878	-0.85
670	9.15
670.123	8.15
670.245	12.15
670.367	14.15
670.489	14.15
670.611	4.15
670.733	5.15
670.856	-0.85
670.978	14.15
671.1	7.15
671.222	4.15
671.344	-7.85
671.466	-2.85
671.589	-0.85
671.711	2.15
671.833	1.15
671.955	-11.85
672.077	-1.85
672.199	38.15
672.322	13.15
672.444	-2.85
672.566	4.15
672.688	8.15
672.81	17.15
672.932	19.15
673.055	4.15
673.177	-3.85
673.299	8.15
673.421	-12.85
673.543	-0.85
673.665	15.15
673.788	12.15
673.91	-5.85
674.032	-9.85
674.154	-9.85
674.276	17.15
674.399	-7.85
674.521	8.15
674.643	12.15
674.765	-1.85
674.887	15.15
675.009	1.15
675.132	6.15
675.254	0.15
675.376	13.15
675.498	14.15
675.62	0.15
675.743	13.15
675.865	5.15
675.987	-11.85
676.109	16.15
676.231	12.15
676.354	11.15
676.476	1.15
676.598	9.15
676.72	1.15
676.842	21.15
676.965	-13.85
677.087	-10.85
677.209	13.15
677.331	18.15
677.453	13.15
677.576	10.15
677.698	8.15
677.82	5.15
677.942	4.15
678.064	-13.85
678.187	2.15
678.309	2.15
678.431	14.15
678.553	5.15
678.675	13.15
678.798	9.15
678.92	12.15
679.042	19.15
679.164	-4.85
679.286	9.15
679.409	3.15
679.531	-19.85
679.653	1.15
679.775	0.15
679.898	1.15
680.02	-6.85
680.142	-14.85
680.264	12.15
680.386	-10.85
680.509	13.15
680.631	-1.85
680.753	-7.85
680.875	-8.85
680.998	11.15
681.12	6.15
681.242	12.15
681.364	-17.85
681.486	-6.85
681.609	-18.85
681.731	-18.85
681.853	0.15
681.975	-5.85
682.098	17.15
682.22	18.15
682.342	-7.85
682.464	6.15
682.587	2.15
682.709	-5.85
682.831	-15.85
682.953	-21.85
683.076	1.15
683.198	5.15
683.32	16.15
683.442	5.15
683.565	8.15
683.687	-7.85
683.809	3.15
683.931	-28.85
684.054	7.15
684.176	19.15
684.298	25.15
684.42	-5.85
684.543	-2.85
684.665	1.15
684.787	2.15
684.909	11.15
685.032	-0.85
685.154	-4.85
685.276	5.15
685.398	-0.85
685.521	16.15
685.643	12.15
685.765	-12.85
685.887	17.15
686.01	6.15
686.132	17.15
686.254	-3.85
686.377	6.15
686.499	7.15
686.621	12.15
686.743	10.15
686.866	12.15
686.988	29.15
687.11	29.15
687.232	8.15
687.355	-0.85
687.477	1.15
687.599	21.15
687.722	-9.85
687.844	8.15
687.966	13.15
688.088	15.15
688.211	20.15
688.333	17.15
688.455	0.15
688.578	13.15
688.7	19.15
688.822	-0.85
688.944	-1.85
689.067	36.15
689.189	6.15
689.311	-6.85
689.434	-0.85
689.556	-3.85
689.678	-7.85
689.801	-26.85
689.923	-3.85
690.045	14.15
690.167	14.15
690.29	16.15
690.412	4.15
690.534	-0.85
690.657	-8.85
690.779	-1.85
690.901	14.15
691.024	-0.85
691.146	-13.85
691.268	-11.85
691.391	23.15
691.513	5.15
691.635	10.15
691.758	4.15
691.88	20.15
692.002	17.15
692.125	15.15
692.247	-0.85
692.369	-2.85
692.492	-24.85
692.614	1.15
692.736	9.15
692.859	-10.85
692.981	13.15
693.103	-2.85
693.226	-0.85
693.348	19.15
693.47	20.15
693.593	28.15
693.715	35.15
693.837	21.15
693.96	7.15
694.082	-12.85
694.204	4.15
694.327	13.15
694.449	0.15
694.571	-3.85
694.694	8.15
694.816	11.15
694.938	-3.85
695.061	14.15
695.183	10.15
695.305	3.15
695.428	0.15
695.55	4.15
695.672	-4.85
695.795	2.15
695.917	13.15
696.04	-1.85
696.162	3.15
696.284	12.15
696.407	11.15
696.529	5.15
696.651	18.15
696.774	10.15
696.896	17.15
697.019	10.15
697.141	5.15
697.263	-5.85
697.386	-6.85
697.508	3.15
697.63	2.15
697.753	-5.85
697.875	-2.85
697.998	-9.85
698.12	-7.85
698.242	-3.85
698.365	2.15
698.487	-3.85
698.61	8.15
698.732	0.15
698.854	1.15
698.977	4.15
699.099	3.15
699.221	-3.85
699.344	12.15
699.466	0.15
699.589	13.15
699.711	-1.85
699.834	-14.85
699.956	-10.85
700.078	4.15
700.201	1.15
700.323	19.15
700.446	8.15
700.568	-15.85
700.69	4.15
700.813	9.15
700.935	0.15
701.058	6.15
701.18	6.15
701.302	-7.85
701.425	-7.85
701.547	9.15
701.67	4.15
701.792	-19.85
701.915	-9.85
702.037	-9.85
702.159	-6.85
702.282	3.15
702.404	18.15
702.527	28.15
702.649	28.15
702.772	18.15
702.894	-5.85
703.017	6.15
703.139	2.15
703.261	20.15
703.384	5.15
703.506	-14.85
703.629	-7.85
703.751	-11.85
703.874	6.15
703.996	-2.85
704.119	-27.85
704.241	6.15
704.364	-2.85
704.486	19.15
704.608	10.15
704.731	-5.85
704.853	8.15
704.976	-7.85
705.098	5.15
705.221	-8.85
705.343	-7.85
705.466	13.15
705.588	6.15
705.711	4.15
705.833	8.15
705.956	-3.85
706.078	8.15
706.201	-8.85
706.323	-13.85
706.446	2.15
