Data from LowRes_mercury_15_20_11_07_2024_HR4C61881__62__15-23-38-470.txt Node

Date: Thu Nov 07 15:23:38 EST 2024
User: crc00042
Spectrometer: HR4C6188
Trigger mode: 4
Integration Time (sec): 1.000000E-1
Scans to average: 1
Electric dark correction enabled: true
Nonlinearity correction enabled: false
Boxcar width: 0
XAxis mode: Wavelengths
Number of Pixels in Spectrum: 3648
>>>>>Begin Spectral Data<<<<<
245.66	-80.38
245.797	-80.38
245.934	-80.38
246.071	-71.38
246.208	7.62
246.344	-3.38
246.481	-6.38
246.618	-0.38
246.755	10.62
246.892	-8.38
247.029	-17.38
247.165	-5.38
247.302	9.62
247.439	0.62
247.576	-3.38
247.713	-4.38
247.849	50.62
247.986	-22.38
248.123	-7.38
248.26	-5.38
248.396	-1.38
248.533	-0.38
248.67	0.62
248.806	2.62
248.943	-3.38
249.08	1.62
249.216	9.62
249.353	-9.38
249.49	-0.38
249.626	27.62
249.763	-4.38
249.9	-2.38
250.036	6.62
250.173	4.62
250.309	9.62
250.446	-3.38
250.582	10.62
250.719	-14.38
250.856	2.62
250.992	14.62
251.129	0.62
251.265	-16.38
251.402	-13.38
251.538	4.62
251.675	8.62
251.811	24.62
251.948	7.62
252.084	11.62
252.221	10.62
252.357	-3.38
252.493	39.62
252.63	2.62
252.766	9.62
252.903	2.62
253.039	11.62
253.175	-7.38
253.312	-8.38
253.448	-3.38
253.585	-2.38
253.721	3.62
253.857	-4.38
253.994	10.62
254.13	-3.38
254.266	-7.38
254.403	25.62
254.539	8.62
254.675	-1.38
254.811	5.62
254.948	8.62
255.084	2.62
255.22	-7.38
255.356	-10.38
255.493	11.62
255.629	1.62
255.765	0.62
255.901	13.62
256.037	9.62
256.174	6.62
256.31	-8.38
256.446	-5.38
256.582	-7.38
256.718	21.62
256.854	26.62
256.991	11.62
257.127	21.62
257.263	-8.38
257.399	-14.38
257.535	-9.38
257.671	-6.38
257.807	-1.38
257.943	-16.38
258.079	-7.38
258.215	15.62
258.351	13.62
258.487	5.62
258.623	27.62
258.759	5.62
258.895	5.62
259.031	-5.38
259.167	-15.38
259.303	35.62
259.439	-6.38
259.575	-7.38
259.711	0.62
259.847	-2.38
259.983	8.62
260.119	-3.38
260.255	-10.38
260.391	16.62
260.527	8.62
260.663	8.62
260.799	8.62
260.934	-4.38
261.07	5.62
261.206	-4.38
261.342	-16.38
261.478	28.62
261.614	14.62
261.749	26.62
261.885	-2.38
262.021	8.62
262.157	14.62
262.293	7.62
262.428	5.62
262.564	-2.38
262.7	12.62
262.836	-5.38
262.971	18.62
263.107	13.62
263.243	16.62
263.378	1.62
263.514	-12.38
263.65	10.62
263.785	5.62
263.921	-1.38
264.057	3.62
264.192	-2.38
264.328	16.62
264.464	0.62
264.599	7.62
264.735	15.62
264.871	-2.38
265.006	18.62
265.142	1.62
265.277	8.62
265.413	24.62
265.548	22.62
265.684	29.62
265.819	-6.38
265.955	-9.38
266.091	-28.38
266.226	-9.38
266.362	-3.38
266.497	15.62
266.633	4.62
266.768	-1.38
266.903	10.62
267.039	8.62
267.174	25.62
267.31	-9.38
267.445	-3.38
267.581	-7.38
267.716	29.62
267.851	20.62
267.987	18.62
268.122	22.62
268.258	-21.38
268.393	-10.38
268.528	3.62
268.664	-3.38
268.799	-12.38
268.934	-1.38
269.07	-2.38
269.205	5.62
269.34	21.62
269.476	12.62
269.611	-13.38
269.746	3.62
269.881	20.62
270.017	37.62
270.152	3.62
270.287	2.62
270.422	31.62
270.558	9.62
270.693	17.62
270.828	6.62
270.963	-1.38
271.098	-12.38
271.234	-0.38
271.369	25.62
271.504	17.62
271.639	-1.38
271.774	4.62
271.909	1.62
272.045	-21.38
272.18	15.62
272.315	7.62
272.45	27.62
272.585	0.62
272.72	11.62
272.855	5.62
272.99	10.62
273.125	-9.38
273.26	3.62
273.395	-4.38
273.53	3.62
273.665	13.62
273.8	-3.38
273.935	13.62
274.07	7.62
274.205	21.62
274.34	2.62
274.475	-14.38
274.61	11.62
274.745	-6.38
274.88	22.62
275.015	-7.38
275.15	4.62
275.285	26.62
275.42	-3.38
275.555	-4.38
275.69	0.62
275.825	4.62
275.959	5.62
276.094	5.62
276.229	0.62
276.364	-9.38
276.499	-3.38
276.634	10.62
276.768	17.62
276.903	6.62
277.038	9.62
277.173	9.62
277.308	3.62
277.442	4.62
277.577	8.62
277.712	2.62
277.847	-10.38
277.981	7.62
278.116	-12.38
278.251	17.62
278.386	-0.38
278.52	17.62
278.655	9.62
278.79	10.62
278.924	14.62
279.059	12.62
279.194	-1.38
279.328	26.62
279.463	10.62
279.598	16.62
279.732	6.62
279.867	11.62
280.001	9.62
280.136	-1.38
280.271	19.62
280.405	16.62
280.54	-19.38
280.674	-11.38
280.809	26.62
280.943	0.62
281.078	8.62
281.213	19.62
281.347	4.62
281.482	9.62
281.616	8.62
281.751	12.62
281.885	-0.38
282.02	1.62
282.154	14.62
282.288	-6.38
282.423	-16.38
282.557	-10.38
282.692	6.62
282.826	-4.38
282.961	17.62
283.095	-7.38
283.229	-15.38
283.364	-1.38
283.498	8.62
283.633	-5.38
283.767	8.62
283.901	11.62
284.036	13.62
284.17	-8.38
284.304	-16.38
284.439	-4.38
284.573	4.62
284.707	20.62
284.842	-3.38
284.976	6.62
285.11	-3.38
285.244	8.62
285.379	33.62
285.513	10.62
285.647	11.62
285.781	-0.38
285.916	15.62
286.05	-4.38
286.184	11.62
286.318	8.62
286.453	-6.38
286.587	0.62
286.721	-6.38
286.855	7.62
286.989	9.62
287.123	9.62
287.258	-22.38
287.392	-14.38
287.526	20.62
287.66	-0.38
287.794	4.62
287.928	-6.38
288.062	-5.38
288.196	-7.38
288.33	14.62
288.464	23.62
288.598	5.62
288.733	21.62
288.867	24.62
289.001	3.62
289.135	-0.38
289.269	5.62
289.403	14.62
289.537	9.62
289.671	10.62
289.805	-9.38
289.939	-0.38
290.073	0.62
290.207	24.62
290.34	0.62
290.474	18.62
290.608	-6.38
290.742	-6.38
290.876	6.62
291.01	10.62
291.144	10.62
291.278	9.62
291.412	13.62
291.546	8.62
291.679	-2.38
291.813	4.62
291.947	7.62
292.081	10.62
292.215	4.62
292.349	27.62
292.482	26.62
292.616	3.62
292.75	-9.38
292.884	10.62
293.018	-1.38
293.151	-21.38
293.285	0.62
293.419	-1.38
293.553	-6.38
293.686	-7.38
293.82	20.62
293.954	25.62
294.088	22.62
294.221	-10.38
294.355	-1.38
294.489	-0.38
294.622	1.62
294.756	-6.38
294.89	21.62
295.023	21.62
295.157	15.62
295.291	11.62
295.424	12.62
295.558	12.62
295.691	-4.38
295.825	-9.38
295.959	8.62
296.092	14.62
296.226	3.62
296.359	0.62
296.493	11.62
296.627	-3.38
296.76	17.62
296.894	-5.38
297.027	8.62
297.161	18.62
297.294	1.62
297.428	18.62
297.561	37.62
297.695	-8.38
297.828	-2.38
297.962	9.62
298.095	-2.38
298.229	-13.38
298.362	-3.38
298.495	-21.38
298.629	-5.38
298.762	-7.38
298.896	-0.38
299.029	9.62
299.162	3.62
299.296	5.62
299.429	4.62
299.563	7.62
299.696	9.62
299.829	14.62
299.963	20.62
300.096	3.62
300.229	6.62
300.363	1.62
300.496	10.62
300.629	-3.38
300.763	0.62
300.896	-3.38
301.029	-3.38
301.162	-1.38
301.296	-15.38
301.429	3.62
301.562	-14.38
301.695	12.62
301.829	9.62
301.962	20.62
302.095	6.62
302.228	-2.38
302.362	-18.38
302.495	-29.38
302.628	2.62
302.761	6.62
302.894	-14.38
303.027	10.62
303.161	1.62
303.294	-9.38
303.427	17.62
303.56	-8.38
303.693	6.62
303.826	-4.38
303.959	16.62
304.092	10.62
304.225	4.62
304.359	10.62
304.492	26.62
304.625	9.62
304.758	21.62
304.891	-4.38
305.024	2.62
305.157	-6.38
305.29	-1.38
305.423	6.62
305.556	20.62
305.689	25.62
305.822	-1.38
305.955	20.62
306.088	16.62
306.221	15.62
306.354	1.62
306.487	-15.38
306.62	-7.38
306.752	4.62
306.885	14.62
307.018	23.62
307.151	15.62
307.284	8.62
307.417	-1.38
307.55	15.62
307.683	5.62
307.816	16.62
307.948	-14.38
308.081	20.62
308.214	-3.38
308.347	22.62
308.48	8.62
308.613	-1.38
308.745	25.62
308.878	2.62
309.011	10.62
309.144	0.62
309.277	11.62
309.409	4.62
309.542	-1.38
309.675	17.62
309.808	2.62
309.94	11.62
310.073	-4.38
310.206	-10.38
310.339	-0.38
310.471	-14.38
310.604	14.62
310.737	-6.38
310.869	-4.38
311.002	5.62
311.135	-10.38
311.267	-17.38
311.4	-2.38
311.533	29.62
311.665	5.62
311.798	5.62
311.93	20.62
312.063	38.62
312.196	45.62
312.328	70.62
312.461	59.62
312.593	44.62
312.726	42.62
312.859	120.62
312.991	167.62
313.124	44.62
313.256	9.62
313.389	0.62
313.521	6.62
313.654	-12.38
313.786	-19.38
313.919	3.62
314.051	2.62
314.184	-7.38
314.316	14.62
314.449	-11.38
314.581	-3.38
314.714	4.62
314.846	17.62
314.978	0.62
315.111	-11.38
315.243	-4.38
315.376	-5.38
315.508	-3.38
315.641	-6.38
315.773	6.62
315.905	-10.38
316.038	-8.38
316.17	1.62
316.302	-0.38
316.435	6.62
316.567	-11.38
316.699	20.62
316.832	-10.38
316.964	-1.38
317.096	8.62
317.229	0.62
317.361	-19.38
317.493	-4.38
317.625	-7.38
317.758	3.62
317.89	5.62
318.022	9.62
318.155	-14.38
318.287	-1.38
318.419	6.62
318.551	-0.38
318.683	-5.38
318.816	-20.38
318.948	-15.38
319.08	-4.38
319.212	2.62
319.344	11.62
319.477	0.62
319.609	20.62
319.741	12.62
319.873	7.62
320.005	1.62
320.137	1.62
320.269	12.62
320.401	3.62
320.534	-14.38
320.666	-9.38
320.798	-23.38
320.93	3.62
321.062	6.62
321.194	-17.38
321.326	-12.38
321.458	14.62
321.59	18.62
321.722	2.62
321.854	9.62
321.986	14.62
322.118	11.62
322.25	-10.38
322.382	-3.38
322.514	-3.38
322.646	0.62
322.778	25.62
322.91	-3.38
323.042	-4.38
323.174	-2.38
323.306	-18.38
323.438	-31.38
323.57	-3.38
323.702	11.62
323.834	-15.38
323.966	-19.38
324.097	-0.38
324.229	24.62
324.361	11.62
324.493	5.62
324.625	-8.38
324.757	14.62
324.889	18.62
325.021	12.62
325.152	14.62
325.284	8.62
325.416	-18.38
325.548	17.62
325.68	-6.38
325.811	-0.38
325.943	18.62
326.075	0.62
326.207	7.62
326.339	21.62
326.47	1.62
326.602	16.62
326.734	17.62
326.866	14.62
326.997	-3.38
327.129	-12.38
327.261	-6.38
327.392	-0.38
327.524	-0.38
327.656	10.62
327.787	-3.38
327.919	-2.38
328.051	-7.38
328.182	11.62
328.314	35.62
328.446	7.62
328.577	23.62
328.709	6.62
328.841	0.62
328.972	-8.38
329.104	2.62
329.235	1.62
329.367	2.62
329.499	-2.38
329.63	13.62
329.762	5.62
329.893	6.62
330.025	-0.38
330.156	-1.38
330.288	18.62
330.419	26.62
330.551	16.62
330.683	25.62
330.814	8.62
330.946	15.62
331.077	20.62
331.208	-6.38
331.34	20.62
331.471	-6.38
331.603	8.62
331.734	1.62
331.866	5.62
331.997	11.62
332.129	2.62
332.26	-4.38
332.392	5.62
332.523	-6.38
332.654	-2.38
332.786	13.62
332.917	6.62
333.048	15.62
333.18	33.62
333.311	21.62
333.443	9.62
333.574	13.62
333.705	33.62
333.837	41.62
333.968	141.62
334.099	241.62
334.231	212.62
334.362	51.62
334.493	27.62
334.624	15.62
334.756	1.62
334.887	3.62
335.018	14.62
335.15	30.62
335.281	9.62
335.412	32.62
335.543	26.62
335.675	0.62
335.806	21.62
335.937	9.62
336.068	31.62
336.199	53.62
336.331	4.62
336.462	9.62
336.593	23.62
336.724	16.62
336.855	26.62
336.986	17.62
337.118	10.62
337.249	3.62
337.38	10.62
337.511	18.62
337.642	0.62
337.773	-7.38
337.904	17.62
338.035	12.62
338.166	8.62
338.298	10.62
338.429	5.62
338.56	13.62
338.691	24.62
338.822	3.62
338.953	13.62
339.084	22.62
339.215	30.62
339.346	-6.38
339.477	1.62
339.608	12.62
339.739	3.62
339.87	-0.38
340.001	-4.38
340.132	0.62
340.263	8.62
340.394	11.62
340.525	13.62
340.656	0.62
340.787	-18.38
340.918	23.62
341.049	29.62
341.179	22.62
341.31	23.62
341.441	16.62
341.572	-2.38
341.703	16.62
341.834	-8.38
341.965	12.62
342.096	8.62
342.227	11.62
342.357	13.62
342.488	10.62
342.619	15.62
342.75	32.62
342.881	31.62
343.012	27.62
343.142	26.62
343.273	2.62
343.404	16.62
343.535	38.62
343.666	32.62
343.796	24.62
343.927	45.62
344.058	42.62
344.189	29.62
344.319	31.62
344.45	18.62
344.581	26.62
344.712	16.62
344.842	30.62
344.973	12.62
345.104	25.62
345.234	17.62
345.365	6.62
345.496	14.62
345.626	15.62
345.757	25.62
345.888	9.62
346.018	47.62
346.149	19.62
346.28	29.62
346.41	16.62
346.541	34.62
346.672	26.62
346.802	37.62
346.933	29.62
347.063	18.62
347.194	35.62
347.325	36.62
347.455	39.62
347.586	21.62
347.716	14.62
347.847	18.62
347.977	32.62
348.108	36.62
348.238	34.62
348.369	32.62
348.499	37.62
348.63	36.62
348.76	52.62
348.891	64.62
349.021	61.62
349.152	74.62
349.282	59.62
349.413	49.62
349.543	48.62
349.674	28.62
349.804	31.62
349.935	22.62
350.065	35.62
350.196	14.62
350.326	36.62
350.456	21.62
350.587	32.62
350.717	18.62
350.848	26.62
350.978	30.62
351.108	31.62
351.239	23.62
351.369	-4.38
351.499	14.62
351.63	15.62
351.76	21.62
351.89	21.62
352.021	37.62
352.151	22.62
352.281	24.62
352.412	25.62
352.542	10.62
352.672	30.62
352.803	18.62
352.933	21.62
353.063	3.62
353.193	16.62
353.324	6.62
353.454	27.62
353.584	25.62
353.714	16.62
353.845	24.62
353.975	5.62
354.105	16.62
354.235	24.62
354.365	17.62
354.496	38.62
354.626	37.62
354.756	24.62
354.886	10.62
355.016	35.62
355.146	-0.38
355.277	14.62
355.407	26.62
355.537	21.62
355.667	38.62
355.797	16.62
355.927	14.62
356.057	22.62
356.187	15.62
356.318	27.62
356.448	29.62
356.578	30.62
356.708	41.62
356.838	11.62
356.968	33.62
357.098	23.62
357.228	34.62
357.358	31.62
357.488	12.62
357.618	47.62
357.748	35.62
357.878	24.62
358.008	12.62
358.138	16.62
358.268	15.62
358.398	20.62
358.528	11.62
358.658	33.62
358.788	25.62
358.918	25.62
359.048	34.62
359.178	27.62
359.308	38.62
359.438	45.62
359.568	30.62
359.698	21.62
359.827	24.62
359.957	38.62
360.087	47.62
360.217	14.62
360.347	34.62
360.477	43.62
360.607	5.62
360.737	34.62
360.866	32.62
360.996	15.62
361.126	18.62
361.256	54.62
361.386	45.62
361.516	55.62
361.645	27.62
361.775	34.62
361.905	16.62
362.035	31.62
362.165	42.62
362.294	31.62
362.424	53.62
362.554	47.62
362.684	19.62
362.813	53.62
362.943	62.62
363.073	61.62
363.203	62.62
363.332	74.62
363.462	90.62
363.592	106.62
363.721	121.62
363.851	162.62
363.981	200.62
364.111	252.62
364.24	326.62
364.37	485.62
364.5	828.62
364.629	1805.62
364.759	3846.62
364.888	6288.62
365.018	9467.62
365.148	14834.62
365.277	12982.62
365.407	4744.62
365.537	3106.62
365.666	4034.62
365.796	1824.62
365.925	790.62
366.055	751.62
366.184	1030.62
366.314	1371.62
366.444	2478.62
366.573	2110.62
366.703	673.62
366.832	217.62
366.962	105.62
367.091	88.62
367.221	50.62
367.35	55.62
367.48	80.62
367.609	38.62
367.739	33.62
367.868	29.62
367.998	56.62
368.127	48.62
368.257	41.62
368.386	55.62
368.516	50.62
368.645	30.62
368.775	50.62
368.904	30.62
369.033	22.62
369.163	39.62
369.292	45.62
369.422	34.62
369.551	52.62
369.68	47.62
369.81	36.62
369.939	19.62
370.069	66.62
370.198	38.62
370.327	26.62
370.457	46.62
370.586	39.62
370.715	28.62
370.845	42.62
370.974	33.62
371.103	52.62
371.233	54.62
371.362	54.62
371.491	34.62
371.621	41.62
371.75	60.62
371.879	38.62
372.008	54.62
372.138	59.62
372.267	51.62
372.396	56.62
372.525	28.62
372.655	49.62
372.784	30.62
372.913	39.62
373.042	28.62
373.172	40.62
373.301	17.62
373.43	11.62
373.559	27.62
373.688	18.62
373.818	22.62
373.947	38.62
374.076	0.62
374.205	24.62
374.334	21.62
374.463	25.62
374.593	30.62
374.722	31.62
374.851	32.62
374.98	8.62
375.109	12.62
375.238	26.62
375.367	43.62
375.496	0.62
375.625	-0.38
375.755	17.62
375.884	45.62
376.013	26.62
376.142	-3.38
376.271	8.62
376.4	25.62
376.529	17.62
376.658	13.62
376.787	11.62
376.916	43.62
377.045	30.62
377.174	25.62
377.303	26.62
377.432	42.62
377.561	31.62
377.69	18.62
377.819	34.62
377.948	17.62
378.077	2.62
378.206	-3.38
378.335	0.62
378.464	23.62
378.593	41.62
378.722	-6.38
378.851	22.62
378.98	35.62
379.108	-5.38
379.237	7.62
379.366	24.62
379.495	30.62
379.624	10.62
379.753	17.62
379.882	44.62
380.011	9.62
380.14	9.62
380.268	17.62
380.397	21.62
380.526	30.62
380.655	-1.38
380.784	11.62
380.913	22.62
381.041	14.62
381.17	-0.38
381.299	3.62
381.428	23.62
381.557	32.62
381.685	33.62
381.814	17.62
381.943	30.62
382.072	17.62
382.2	9.62
382.329	14.62
382.458	11.62
382.587	39.62
382.715	35.62
382.844	19.62
382.973	38.62
383.102	10.62
383.23	10.62
383.359	6.62
383.488	18.62
383.616	21.62
383.745	19.62
383.874	13.62
384.003	20.62
384.131	5.62
384.26	2.62
384.389	28.62
384.517	7.62
384.646	10.62
384.774	30.62
384.903	32.62
385.032	26.62
385.16	19.62
385.289	18.62
385.418	18.62
385.546	18.62
385.675	14.62
385.803	16.62
385.932	18.62
386.06	-0.38
386.189	19.62
386.318	32.62
386.446	18.62
386.575	30.62
386.703	38.62
386.832	2.62
386.96	6.62
387.089	46.62
387.217	11.62
387.346	13.62
387.474	3.62
387.603	27.62
387.731	30.62
387.86	29.62
387.988	8.62
388.117	4.62
388.245	5.62
388.374	10.62
388.502	30.62
388.631	21.62
388.759	6.62
388.888	10.62
389.016	9.62
389.144	4.62
389.273	8.62
389.401	32.62
389.53	18.62
389.658	34.62
389.786	-7.38
389.915	-6.38
390.043	11.62
390.172	22.62
390.3	43.62
390.428	45.62
390.557	15.62
390.685	58.62
390.813	52.62
390.942	49.62
391.07	18.62
391.198	26.62
391.327	26.62
391.455	7.62
391.583	33.62
391.712	39.62
391.84	28.62
391.968	35.62
392.096	29.62
392.225	28.62
392.353	40.62
392.481	32.62
392.609	36.62
392.738	29.62
392.866	11.62
392.994	14.62
393.122	46.62
393.251	0.62
393.379	0.62
393.507	-0.38
393.635	34.62
393.764	33.62
393.892	33.62
394.02	9.62
394.148	21.62
394.276	21.62
394.404	34.62
394.533	28.62
394.661	30.62
394.789	37.62
394.917	54.62
395.045	17.62
395.173	29.62
395.302	30.62
395.43	36.62
395.558	32.62
395.686	34.62
395.814	26.62
395.942	22.62
396.07	49.62
396.198	14.62
396.326	24.62
396.454	38.62
396.582	41.62
396.711	24.62
396.839	35.62
396.967	23.62
397.095	22.62
397.223	36.62
397.351	50.62
397.479	53.62
397.607	23.62
397.735	46.62
397.863	72.62
397.991	44.62
398.119	38.62
398.247	44.62
398.375	38.62
398.503	34.62
398.631	66.62
398.759	68.62
398.887	56.62
399.015	42.62
399.143	52.62
399.271	66.62
399.399	66.62
399.526	65.62
399.654	80.62
399.782	65.62
399.91	93.62
400.038	95.62
400.166	72.62
400.294	72.62
400.422	77.62
400.55	106.62
400.678	95.62
400.805	99.62
400.933	112.62
401.061	137.62
401.189	111.62
401.317	144.62
401.445	119.62
401.573	85.62
401.7	51.62
401.828	53.62
401.956	44.62
402.084	38.62
402.212	42.62
402.34	38.62
402.467	46.62
402.595	37.62
402.723	40.62
402.851	69.62
402.978	65.62
403.106	56.62
403.234	86.62
403.362	98.62
403.489	111.62
403.617	163.62
403.745	201.62
403.873	281.62
404	544.62
404.128	1454.62
404.256	3934.62
404.384	5124.62
404.511	5434.62
404.639	7268.62
404.767	11512.62
404.894	14668.62
405.022	4918.62
405.15	1314.62
405.277	413.62
405.405	236.62
405.533	140.62
405.66	107.62
405.788	69.62
405.916	85.62
406.043	49.62
406.171	48.62
406.299	54.62
406.426	67.62
406.554	57.62
406.681	53.62
406.809	42.62
406.937	58.62
407.064	63.62
407.192	128.62
407.319	330.62
407.447	559.62
407.574	576.62
407.702	645.62
407.83	859.62
407.957	1628.62
408.085	948.62
408.212	284.62
408.34	90.62
408.467	60.62
408.595	49.62
408.722	59.62
408.85	45.62
408.977	35.62
409.105	41.62
409.232	35.62
409.36	54.62
409.487	40.62
409.615	39.62
409.742	34.62
409.87	32.62
409.997	25.62
410.125	42.62
410.252	31.62
410.379	36.62
410.507	40.62
410.634	26.62
410.762	44.62
410.889	46.62
411.017	29.62
411.144	36.62
411.271	18.62
411.399	29.62
411.526	38.62
411.653	17.62
411.781	30.62
411.908	22.62
412.036	27.62
412.163	42.62
412.29	39.62
412.418	21.62
412.545	29.62
412.672	32.62
412.8	53.62
412.927	34.62
413.054	42.62
413.182	59.62
413.309	34.62
413.436	12.62
413.564	28.62
413.691	23.62
413.818	40.62
413.945	18.62
414.073	24.62
414.2	26.62
414.327	34.62
414.454	50.62
414.582	33.62
414.709	15.62
414.836	18.62
414.963	29.62
415.091	32.62
415.218	21.62
415.345	48.62
415.472	23.62
415.6	15.62
415.727	26.62
415.854	38.62
415.981	28.62
416.108	29.62
416.236	17.62
416.363	36.62
416.49	36.62
416.617	29.62
416.744	26.62
416.871	44.62
416.998	24.62
417.126	24.62
417.253	26.62
417.38	12.62
417.507	21.62
417.634	22.62
417.761	30.62
417.888	52.62
418.015	35.62
418.143	26.62
418.27	70.62
418.397	35.62
418.524	26.62
418.651	33.62
418.778	32.62
418.905	51.62
419.032	34.62
419.159	38.62
419.286	51.62
419.413	51.62
419.54	47.62
419.667	42.62
419.794	24.62
419.921	39.62
420.048	50.62
420.175	55.62
420.302	50.62
420.429	42.62
420.556	41.62
420.683	49.62
420.81	50.62
420.937	65.62
421.064	62.62
421.191	57.62
421.318	73.62
421.445	58.62
421.572	48.62
421.699	55.62
421.826	37.62
421.953	54.62
422.08	43.62
422.207	30.62
422.334	14.62
422.461	40.62
422.588	17.62
422.714	33.62
422.841	39.62
422.968	39.62
423.095	22.62
423.222	4.62
423.349	13.62
423.476	26.62
423.603	5.62
423.729	11.62
423.856	31.62
423.983	29.62
424.11	21.62
424.237	30.62
424.364	26.62
424.491	21.62
424.617	9.62
424.744	7.62
424.871	24.62
424.998	9.62
425.125	22.62
425.251	38.62
425.378	15.62
425.505	30.62
425.632	23.62
425.758	20.62
425.885	24.62
426.012	35.62
426.139	23.62
426.266	11.62
426.392	13.62
426.519	25.62
426.646	18.62
426.772	16.62
426.899	26.62
427.026	31.62
427.153	7.62
427.279	40.62
427.406	30.62
427.533	23.62
427.659	5.62
427.786	20.62
427.913	38.62
428.039	39.62
428.166	27.62
428.293	18.62
428.419	31.62
428.546	39.62
428.673	12.62
428.799	25.62
428.926	17.62
429.053	55.62
429.179	46.62
429.306	34.62
429.433	37.62
429.559	45.62
429.686	8.62
429.812	13.62
429.939	15.62
430.066	26.62
430.192	26.62
430.319	42.62
430.445	28.62
430.572	16.62
430.699	18.62
430.825	20.62
430.952	6.62
431.078	29.62
431.205	51.62
431.331	30.62
431.458	46.62
431.584	45.62
431.711	18.62
431.837	47.62
431.964	26.62
432.09	28.62
432.217	13.62
432.343	18.62
432.47	51.62
432.596	37.62
432.723	31.62
432.849	32.62
432.976	35.62
433.102	31.62
433.229	33.62
433.355	62.62
433.482	73.62
433.608	102.62
433.735	109.62
433.861	121.62
433.987	145.62
434.114	205.62
434.24	174.62
434.367	201.62
434.493	198.62
434.62	280.62
434.746	392.62
434.872	619.62
434.999	845.62
435.125	1755.62
435.252	5502.62
435.378	13431.62
435.504	15226.62
435.631	15432.62
435.757	15683.62
435.883	15683.62
436.01	15683.62
436.136	15683.62
436.262	15683.62
436.389	3474.62
436.515	2186.62
436.641	807.62
436.768	631.62
436.894	397.62
437.02	394.62
437.147	304.62
437.273	289.62
437.399	219.62
437.526	250.62
437.652	173.62
437.778	201.62
437.904	155.62
438.031	155.62
438.157	147.62
438.283	143.62
438.409	93.62
438.536	123.62
438.662	112.62
438.788	119.62
438.914	101.62
439.041	112.62
439.167	114.62
439.293	110.62
439.419	95.62
439.546	86.62
439.672	74.62
439.798	96.62
439.924	76.62
440.05	88.62
440.177	78.62
440.303	67.62
440.429	63.62
440.555	81.62
440.681	60.62
440.807	76.62
440.934	66.62
441.06	77.62
441.186	37.62
441.312	34.62
441.438	65.62
441.564	66.62
441.69	51.62
441.816	52.62
441.943	62.62
442.069	69.62
442.195	34.62
442.321	70.62
442.447	37.62
442.573	55.62
442.699	48.62
442.825	31.62
442.951	49.62
443.077	54.62
443.203	53.62
443.33	47.62
443.456	37.62
443.582	46.62
443.708	24.62
443.834	52.62
443.96	47.62
444.086	57.62
444.212	54.62
444.338	56.62
444.464	55.62
444.59	43.62
444.716	28.62
444.842	45.62
444.968	25.62
445.094	46.62
445.22	38.62
445.346	23.62
445.472	27.62
445.598	52.62
445.724	43.62
445.85	42.62
445.976	47.62
446.102	36.62
446.228	51.62
446.354	58.62
446.48	25.62
446.605	45.62
446.731	45.62
446.857	22.62
446.983	36.62
447.109	32.62
447.235	39.62
447.361	31.62
447.487	36.62
447.613	30.62
447.739	28.62
447.865	26.62
447.99	24.62
448.116	31.62
448.242	35.62
448.368	32.62
448.494	23.62
448.62	42.62
448.746	39.62
448.872	34.62
448.997	9.62
449.123	44.62
449.249	60.62
449.375	39.62
449.501	17.62
449.627	20.62
449.752	31.62
449.878	31.62
450.004	30.62
450.13	35.62
450.256	24.62
450.381	34.62
450.507	22.62
450.633	42.62
450.759	42.62
450.884	24.62
451.01	35.62
451.136	21.62
451.262	51.62
451.388	34.62
451.513	29.62
451.639	40.62
451.765	41.62
451.89	60.62
452.016	24.62
452.142	24.62
452.268	17.62
452.393	20.62
452.519	23.62
452.645	38.62
452.771	34.62
452.896	31.62
453.022	31.62
453.148	50.62
453.273	27.62
453.399	34.62
453.525	19.62
453.65	26.62
453.776	36.62
453.902	40.62
454.027	51.62
454.153	40.62
454.279	37.62
454.404	26.62
454.53	37.62
454.656	62.62
454.781	45.62
454.907	23.62
455.032	24.62
455.158	32.62
455.284	57.62
455.409	37.62
455.535	31.62
455.66	24.62
455.786	41.62
455.912	21.62
456.037	27.62
456.163	37.62
456.288	31.62
456.414	15.62
456.539	9.62
456.665	41.62
456.791	21.62
456.916	15.62
457.042	29.62
457.167	12.62
457.293	32.62
457.418	32.62
457.544	22.62
457.669	15.62
457.795	25.62
457.92	41.62
458.046	24.62
458.171	22.62
458.297	19.62
458.422	32.62
458.548	12.62
458.673	29.62
458.799	33.62
458.924	24.62
459.05	19.62
459.175	10.62
459.301	40.62
459.426	17.62
459.552	29.62
459.677	2.62
459.803	38.62
459.928	33.62
460.053	28.62
460.179	32.62
460.304	32.62
460.43	15.62
460.555	13.62
460.681	14.62
460.806	26.62
460.931	24.62
461.057	34.62
461.182	9.62
461.308	33.62
461.433	44.62
461.558	22.62
461.684	44.62
461.809	43.62
461.934	23.62
462.06	43.62
462.185	20.62
462.311	27.62
462.436	44.62
462.561	14.62
462.687	9.62
462.812	14.62
462.937	19.62
463.063	9.62
463.188	28.62
463.313	31.62
463.439	30.62
463.564	6.62
463.689	18.62
463.814	36.62
463.94	20.62
464.065	40.62
464.19	50.62
464.316	11.62
464.441	14.62
464.566	26.62
464.692	24.62
464.817	15.62
464.942	34.62
465.067	24.62
465.193	18.62
465.318	25.62
465.443	20.62
465.568	13.62
465.694	10.62
465.819	26.62
465.944	19.62
466.069	29.62
466.194	30.62
466.32	35.62
466.445	18.62
466.57	24.62
466.695	25.62
466.82	37.62
466.946	23.62
467.071	20.62
467.196	18.62
467.321	35.62
467.446	29.62
467.572	42.62
467.697	28.62
467.822	44.62
467.947	50.62
468.072	20.62
468.197	14.62
468.323	12.62
468.448	46.62
468.573	24.62
468.698	32.62
468.823	26.62
468.948	38.62
469.073	39.62
469.198	42.62
469.324	48.62
469.449	36.62
469.574	22.62
469.699	38.62
469.824	41.62
469.949	39.62
470.074	61.62
470.199	67.62
470.324	41.62
470.449	53.62
470.574	21.62
470.7	32.62
470.825	41.62
470.95	43.62
471.075	34.62
471.2	23.62
471.325	37.62
471.45	41.62
471.575	18.62
471.7	37.62
471.825	12.62
471.95	18.62
472.075	18.62
472.2	31.62
472.325	32.62
472.45	16.62
472.575	20.62
472.7	40.62
472.825	36.62
472.95	36.62
473.075	40.62
473.2	40.62
473.325	36.62
473.45	21.62
473.575	35.62
473.7	40.62
473.825	25.62
473.95	31.62
474.075	40.62
474.2	19.62
474.325	9.62
474.45	34.62
474.574	52.62
474.699	54.62
474.824	30.62
474.949	26.62
475.074	11.62
475.199	35.62
475.324	34.62
475.449	17.62
475.574	24.62
475.699	24.62
475.824	21.62
475.949	22.62
476.073	20.62
476.198	20.62
476.323	40.62
476.448	20.62
476.573	8.62
476.698	40.62
476.823	23.62
476.947	31.62
477.072	7.62
477.197	8.62
477.322	30.62
477.447	18.62
477.572	27.62
477.697	14.62
477.821	21.62
477.946	29.62
478.071	34.62
478.196	23.62
478.321	21.62
478.445	22.62
478.57	16.62
478.695	7.62
478.82	35.62
478.945	31.62
479.069	6.62
479.194	18.62
479.319	12.62
479.444	29.62
479.569	14.62
479.693	26.62
479.818	31.62
479.943	41.62
480.068	12.62
480.192	22.62
480.317	16.62
480.442	10.62
480.567	1.62
480.691	28.62
480.816	32.62
480.941	15.62
481.066	18.62
481.19	34.62
481.315	30.62
481.44	31.62
481.564	11.62
481.689	30.62
481.814	21.62
481.938	25.62
482.063	13.62
482.188	1.62
482.313	31.62
482.437	15.62
482.562	-3.38
482.687	20.62
482.811	24.62
482.936	23.62
483.061	33.62
483.185	10.62
483.31	19.62
483.435	37.62
483.559	25.62
483.684	28.62
483.808	46.62
483.933	27.62
484.058	21.62
484.182	21.62
484.307	33.62
484.432	47.62
484.556	4.62
484.681	2.62
484.805	20.62
484.93	11.62
485.055	35.62
485.179	44.62
485.304	29.62
485.428	-3.38
485.553	18.62
485.678	15.62
485.802	18.62
485.927	32.62
486.051	54.62
486.176	12.62
486.3	5.62
486.425	40.62
486.549	21.62
486.674	34.62
486.799	34.62
486.923	16.62
487.048	5.62
487.172	13.62
487.297	22.62
487.421	20.62
487.546	12.62
487.67	29.62
487.795	13.62
487.919	18.62
488.044	21.62
488.168	27.62
488.293	33.62
488.417	22.62
488.542	13.62
488.666	20.62
488.791	30.62
488.915	23.62
489.04	12.62
489.164	29.62
489.289	45.62
489.413	22.62
489.538	14.62
489.662	38.62
489.786	25.62
489.911	24.62
490.035	26.62
490.16	11.62
490.284	16.62
490.409	-3.38
490.533	20.62
490.658	67.62
490.782	28.62
490.906	39.62
491.031	113.62
491.155	147.62
491.28	140.62
491.404	157.62
491.528	265.62
491.653	139.62
491.777	74.62
491.902	9.62
492.026	20.62
492.15	26.62
492.275	36.62
492.399	32.62
492.524	4.62
492.648	22.62
492.772	22.62
492.897	34.62
493.021	18.62
493.145	25.62
493.27	22.62
493.394	22.62
493.518	5.62
493.643	10.62
493.767	35.62
493.891	1.62
494.016	28.62
494.14	20.62
494.264	39.62
494.389	46.62
494.513	24.62
494.637	10.62
494.762	20.62
494.886	36.62
495.01	33.62
495.134	25.62
495.259	17.62
495.383	1.62
495.507	20.62
495.632	19.62
495.756	59.62
495.88	32.62
496.004	25.62
496.129	9.62
496.253	26.62
496.377	24.62
496.501	33.62
496.626	-0.38
496.75	31.62
496.874	35.62
496.998	24.62
497.123	49.62
497.247	22.62
497.371	8.62
497.495	12.62
497.62	12.62
497.744	21.62
497.868	-0.38
497.992	2.62
498.116	12.62
498.241	36.62
498.365	30.62
498.489	15.62
498.613	50.62
498.737	40.62
498.862	24.62
498.986	14.62
499.11	28.62
499.234	17.62
499.358	0.62
499.482	18.62
499.607	2.62
499.731	18.62
499.855	27.62
499.979	25.62
500.103	25.62
500.227	19.62
500.351	15.62
500.476	19.62
500.6	20.62
500.724	17.62
500.848	6.62
500.972	22.62
501.096	34.62
501.22	33.62
501.344	7.62
501.469	17.62
501.593	29.62
501.717	16.62
501.841	31.62
501.965	25.62
502.089	22.62
502.213	22.62
502.337	21.62
502.461	21.62
502.585	8.62
502.709	17.62
502.834	26.62
502.958	11.62
503.082	9.62
503.206	31.62
503.33	45.62
503.454	35.62
503.578	29.62
503.702	29.62
503.826	23.62
503.95	37.62
504.074	37.62
504.198	26.62
504.322	6.62
504.446	16.62
504.57	10.62
504.694	33.62
504.818	22.62
504.942	30.62
505.066	23.62
505.19	24.62
505.314	42.62
505.438	40.62
505.562	22.62
505.686	29.62
505.81	21.62
505.934	15.62
506.058	38.62
506.182	23.62
506.306	13.62
506.43	13.62
506.554	16.62
506.678	-1.38
506.802	1.62
506.926	26.62
507.05	35.62
507.174	32.62
507.298	34.62
507.422	5.62
507.546	34.62
507.67	36.62
507.794	17.62
507.918	22.62
508.042	20.62
508.165	7.62
508.289	26.62
508.413	16.62
508.537	11.62
508.661	41.62
508.785	24.62
508.909	22.62
509.033	33.62
509.157	32.62
509.281	26.62
509.405	25.62
509.528	53.62
509.652	68.62
509.776	39.62
509.9	50.62
510.024	36.62
510.148	37.62
510.272	52.62
510.396	38.62
510.519	32.62
510.643	41.62
510.767	37.62
510.891	39.62
511.015	27.62
511.139	39.62
511.263	56.62
511.386	40.62
511.51	18.62
511.634	32.62
511.758	38.62
511.882	32.62
512.006	58.62
512.129	52.62
512.253	98.62
512.377	85.62
512.501	91.62
512.625	86.62
512.748	84.62
512.872	58.62
512.996	73.62
513.12	61.62
513.244	41.62
513.367	77.62
513.491	72.62
513.615	66.62
513.739	72.62
513.862	80.62
513.986	87.62
514.11	89.62
514.234	91.62
514.358	126.62
514.481	120.62
514.605	111.62
514.729	117.62
514.853	129.62
514.976	109.62
515.1	98.62
515.224	110.62
515.348	111.62
515.471	92.62
515.595	109.62
515.719	130.62
515.842	221.62
515.966	287.62
516.09	304.62
516.214	309.62
516.337	335.62
516.461	237.62
516.585	95.62
516.708	49.62
516.832	26.62
516.956	26.62
517.08	40.62
517.203	17.62
517.327	11.62
517.451	36.62
517.574	35.62
517.698	10.62
517.822	21.62
517.945	12.62
518.069	14.62
518.193	32.62
518.316	41.62
518.44	14.62
518.564	9.62
518.687	20.62
518.811	16.62
518.935	28.62
519.058	14.62
519.182	14.62
519.306	12.62
519.429	15.62
519.553	45.62
519.676	-2.38
519.8	12.62
519.924	14.62
520.047	28.62
520.171	29.62
520.294	20.62
520.418	23.62
520.542	19.62
520.665	31.62
520.789	26.62
520.913	16.62
521.036	2.62
521.16	2.62
521.283	28.62
521.407	21.62
521.53	17.62
521.654	4.62
521.778	26.62
521.901	33.62
522.025	16.62
522.148	13.62
522.272	27.62
522.395	29.62
522.519	30.62
522.643	16.62
522.766	8.62
522.89	16.62
523.013	46.62
523.137	15.62
523.26	15.62
523.384	24.62
523.507	27.62
523.631	12.62
523.754	17.62
523.878	24.62
524.002	33.62
524.125	5.62
524.249	13.62
524.372	26.62
524.496	22.62
524.619	40.62
524.743	14.62
524.866	14.62
524.99	21.62
525.113	20.62
525.237	30.62
525.36	5.62
525.484	6.62
525.607	11.62
525.731	1.62
525.854	20.62
525.978	35.62
526.101	19.62
526.224	7.62
526.348	29.62
526.471	20.62
526.595	8.62
526.718	13.62
526.842	16.62
526.965	35.62
527.089	17.62
527.212	39.62
527.336	29.62
527.459	28.62
527.582	18.62
527.706	29.62
527.829	19.62
527.953	23.62
528.076	1.62
528.2	10.62
528.323	23.62
528.446	20.62
528.57	17.62
528.693	17.62
528.817	2.62
528.94	11.62
529.064	26.62
529.187	14.62
529.31	10.62
529.434	21.62
529.557	13.62
529.68	10.62
529.804	13.62
529.927	22.62
530.051	27.62
530.174	-2.38
530.297	24.62
530.421	30.62
530.544	26.62
530.668	12.62
530.791	14.62
530.914	35.62
531.038	32.62
531.161	22.62
531.284	19.62
531.408	5.62
531.531	18.62
531.654	20.62
531.778	24.62
531.901	3.62
532.024	14.62
532.148	10.62
532.271	16.62
532.394	14.62
532.518	18.62
532.641	15.62
532.764	34.62
532.888	12.62
533.011	4.62
533.134	-4.38
533.258	28.62
533.381	14.62
533.504	21.62
533.628	22.62
533.751	13.62
533.874	13.62
533.997	28.62
534.121	-4.38
534.244	20.62
534.367	11.62
534.491	8.62
534.614	-1.38
534.737	2.62
534.86	26.62
534.984	8.62
535.107	27.62
535.23	29.62
535.354	15.62
535.477	17.62
535.6	4.62
535.723	16.62
535.847	11.62
535.97	5.62
536.093	14.62
536.216	7.62
536.34	17.62
536.463	8.62
536.586	28.62
536.709	10.62
536.833	9.62
536.956	12.62
537.079	11.62
537.202	24.62
537.325	8.62
537.449	11.62
537.572	21.62
537.695	12.62
537.818	20.62
537.941	8.62
538.065	9.62
538.188	31.62
538.311	17.62
538.434	14.62
538.558	19.62
538.681	21.62
538.804	39.62
538.927	29.62
539.05	29.62
539.173	12.62
539.297	18.62
539.42	16.62
539.543	18.62
539.666	50.62
539.789	39.62
539.913	25.62
540.036	20.62
540.159	30.62
540.282	12.62
540.405	27.62
540.528	30.62
540.651	45.62
540.775	26.62
540.898	33.62
541.021	24.62
541.144	45.62
541.267	36.62
541.39	28.62
541.513	36.62
541.637	35.62
541.76	27.62
541.883	25.62
542.006	48.62
542.129	44.62
542.252	41.62
542.375	28.62
542.498	55.62
542.622	52.62
542.745	60.62
542.868	46.62
542.991	69.62
543.114	51.62
543.237	60.62
543.36	80.62
543.483	66.62
543.606	77.62
543.73	78.62
543.853	67.62
543.976	70.62
544.099	104.62
544.222	113.62
544.345	136.62
544.468	175.62
544.591	236.62
544.714	265.62
544.837	353.62
544.96	444.62
545.083	666.62
545.206	1089.62
545.329	2436.62
545.453	10988.62
545.576	15264.62
545.699	15683.62
545.822	15683.62
545.945	15683.62
546.068	15683.62
546.191	15683.62
546.314	15683.62
546.437	15683.62
546.56	15683.62
546.683	15683.62
546.806	15683.62
546.929	15683.62
547.052	15683.62
547.175	15683.62
547.298	15683.62
547.421	15683.62
547.544	15683.62
547.667	3626.62
547.79	3032.62
547.913	1157.62
548.036	932.62
548.159	649.62
548.282	627.62
548.405	489.62
548.528	502.62
548.651	404.62
548.774	413.62
548.897	341.62
549.02	357.62
549.143	309.62
549.266	314.62
549.389	265.62
549.512	261.62
549.635	264.62
549.758	253.62
549.881	218.62
550.004	205.62
550.127	196.62
550.25	198.62
550.373	168.62
550.496	190.62
550.619	154.62
550.742	138.62
550.865	134.62
550.988	158.62
551.111	155.62
551.234	156.62
551.356	125.62
551.479	134.62
551.602	138.62
551.725	139.62
551.848	140.62
551.971	135.62
552.094	128.62
552.217	119.62
552.34	110.62
552.463	116.62
552.586	92.62
552.709	103.62
552.832	88.62
552.955	114.62
553.077	107.62
553.2	100.62
553.323	77.62
553.446	85.62
553.569	89.62
553.692	100.62
553.815	92.62
553.938	102.62
554.061	105.62
554.184	85.62
554.306	89.62
554.429	83.62
554.552	75.62
554.675	75.62
554.798	84.62
554.921	91.62
555.044	49.62
555.167	59.62
555.29	54.62
555.412	62.62
555.535	72.62
555.658	85.62
555.781	73.62
555.904	82.62
556.027	92.62
556.15	69.62
556.272	81.62
556.395	80.62
556.518	57.62
556.641	71.62
556.764	78.62
556.887	69.62
557.01	54.62
557.132	59.62
557.255	61.62
557.378	64.62
557.501	63.62
557.624	60.62
557.747	65.62
557.869	60.62
557.992	83.62
558.115	107.62
558.238	97.62
558.361	90.62
558.483	95.62
558.606	69.62
558.729	41.62
558.852	75.62
558.975	69.62
559.098	61.62
559.22	50.62
559.343	56.62
559.466	43.62
559.589	63.62
559.712	53.62
559.834	60.62
559.957	50.62
560.08	56.62
560.203	55.62
560.325	68.62
560.448	78.62
560.571	65.62
560.694	49.62
560.817	69.62
560.939	68.62
561.062	51.62
561.185	75.62
561.308	74.62
561.43	47.62
561.553	49.62
561.676	60.62
561.799	62.62
561.921	64.62
562.044	66.62
562.167	54.62
562.29	84.62
562.413	66.62
562.535	70.62
562.658	33.62
562.781	56.62
562.903	54.62
563.026	92.62
563.149	145.62
563.272	130.62
563.394	132.62
563.517	107.62
563.64	70.62
563.763	48.62
563.885	42.62
564.008	56.62
564.131	33.62
564.254	33.62
564.376	32.62
564.499	33.62
564.622	27.62
564.744	52.62
564.867	29.62
564.99	39.62
565.113	41.62
565.235	42.62
565.358	36.62
565.481	33.62
565.603	39.62
565.726	25.62
565.849	42.62
565.971	39.62
566.094	20.62
566.217	34.62
566.34	34.62
566.462	41.62
566.585	51.62
566.708	47.62
566.83	47.62
566.953	53.62
567.076	56.62
567.198	48.62
567.321	36.62
567.444	28.62
567.566	18.62
567.689	10.62
567.812	28.62
567.934	40.62
568.057	35.62
568.18	42.62
568.302	42.62
568.425	39.62
568.548	31.62
568.67	38.62
568.793	26.62
568.916	36.62
569.038	35.62
569.161	33.62
569.283	24.62
569.406	34.62
569.529	17.62
569.651	17.62
569.774	24.62
569.897	31.62
570.019	51.62
570.142	40.62
570.265	34.62
570.387	31.62
570.51	39.62
570.632	23.62
570.755	33.62
570.878	25.62
571	58.62
571.123	47.62
571.246	38.62
571.368	24.62
571.491	31.62
571.613	11.62
571.736	12.62
571.859	32.62
571.981	18.62
572.104	28.62
572.226	31.62
572.349	24.62
572.472	37.62
572.594	36.62
572.717	40.62
572.839	30.62
572.962	35.62
573.085	42.62
573.207	34.62
573.33	13.62
573.452	32.62
573.575	43.62
573.697	26.62
573.82	33.62
573.943	25.62
574.065	29.62
574.188	31.62
574.31	37.62
574.433	34.62
574.555	53.62
574.678	38.62
574.801	37.62
574.923	30.62
575.046	32.62
575.168	38.62
575.291	43.62
575.413	48.62
575.536	44.62
575.659	52.62
575.781	39.62
575.904	49.62
576.026	86.62
576.149	109.62
576.271	145.62
576.394	209.62
576.516	524.62
576.639	3660.62
576.761	10210.62
576.884	8791.62
577.007	8801.62
577.129	8022.62
577.252	3775.62
577.374	1332.62
577.497	512.62
577.619	296.62
577.742	166.62
577.864	139.62
577.987	158.62
578.109	125.62
578.232	128.62
578.354	159.62
578.477	206.62
578.599	400.62
578.722	1972.62
578.844	9077.62
578.967	9881.62
579.089	8794.62
579.212	9166.62
579.334	5285.62
579.457	1920.62
579.579	710.62
579.702	313.62
579.824	199.62
579.947	125.62
580.069	116.62
580.192	94.62
580.314	106.62
580.437	68.62
580.559	95.62
580.682	60.62
580.804	66.62
580.927	55.62
581.049	57.62
581.172	41.62
581.294	50.62
581.417	48.62
581.539	39.62
581.662	43.62
581.784	43.62
581.907	58.62
582.029	45.62
582.152	25.62
582.274	45.62
582.396	43.62
582.519	50.62
582.641	9.62
582.764	40.62
582.886	42.62
583.009	43.62
583.131	43.62
583.254	34.62
583.376	61.62
583.499	36.62
583.621	34.62
583.743	53.62
583.866	32.62
583.988	30.62
584.111	34.62
584.233	49.62
584.356	59.62
584.478	49.62
584.601	26.62
584.723	24.62
584.845	55.62
584.968	43.62
585.09	10.62
585.213	31.62
585.335	11.62
585.458	30.62
585.58	37.62
585.702	31.62
585.825	34.62
585.947	22.62
586.07	2.62
586.192	6.62
586.315	39.62
586.437	35.62
586.559	13.62
586.682	21.62
586.804	31.62
586.927	36.62
587.049	24.62
587.171	50.62
587.294	42.62
587.416	57.62
587.539	31.62
587.661	28.62
587.783	40.62
587.906	33.62
588.028	44.62
588.151	30.62
588.273	42.62
588.395	26.62
588.518	27.62
588.64	29.62
588.763	41.62
588.885	26.62
589.007	50.62
589.13	19.62
589.252	31.62
589.375	42.62
589.497	33.62
589.619	33.62
589.742	36.62
589.864	51.62
589.986	41.62
590.109	21.62
590.231	17.62
590.354	35.62
590.476	3.62
590.598	10.62
590.721	12.62
590.843	51.62
590.965	23.62
591.088	34.62
591.21	24.62
591.332	19.62
591.455	13.62
591.577	9.62
591.7	22.62
591.822	24.62
591.944	17.62
592.067	25.62
592.189	48.62
592.311	24.62
592.434	40.62
592.556	33.62
592.678	20.62
592.801	31.62
592.923	29.62
593.045	24.62
593.168	18.62
593.29	6.62
593.412	32.62
593.535	16.62
593.657	20.62
593.779	25.62
593.902	43.62
594.024	23.62
594.146	26.62
594.269	18.62
594.391	17.62
594.513	39.62
594.636	34.62
594.758	15.62
594.88	32.62
595.003	35.62
595.125	32.62
595.247	24.62
595.37	47.62
595.492	21.62
595.614	40.62
595.737	26.62
595.859	24.62
595.981	25.62
596.104	22.62
596.226	20.62
596.348	18.62
596.471	28.62
596.593	27.62
596.715	24.62
596.838	33.62
596.96	17.62
597.082	30.62
597.204	19.62
597.327	23.62
597.449	23.62
597.571	33.62
597.694	39.62
597.816	36.62
597.938	14.62
598.061	11.62
598.183	26.62
598.305	33.62
598.427	20.62
598.55	21.62
598.672	37.62
598.794	28.62
598.917	20.62
599.039	26.62
599.161	27.62
599.283	34.62
599.406	19.62
599.528	28.62
599.65	46.62
599.773	42.62
599.895	36.62
600.017	16.62
600.139	28.62
600.262	24.62
600.384	38.62
600.506	39.62
600.628	52.62
600.751	34.62
600.873	36.62
600.995	37.62
601.118	37.62
601.24	15.62
601.362	46.62
601.484	50.62
601.607	55.62
601.729	48.62
601.851	21.62
601.973	12.62
602.096	29.62
602.218	33.62
602.34	31.62
602.462	33.62
602.585	15.62
602.707	13.62
602.829	31.62
602.951	19.62
603.074	17.62
603.196	46.62
603.318	15.62
603.44	36.62
603.563	19.62
603.685	8.62
603.807	27.62
603.929	22.62
604.052	36.62
604.174	32.62
604.296	30.62
604.418	30.62
604.541	52.62
604.663	25.62
604.785	4.62
604.907	18.62
605.03	-0.38
605.152	52.62
605.274	-9.38
605.396	16.62
605.519	34.62
605.641	15.62
605.763	16.62
605.885	13.62
606.008	9.62
606.13	26.62
606.252	23.62
606.374	15.62
606.496	17.62
606.619	26.62
606.741	20.62
606.863	28.62
606.985	23.62
607.108	26.62
607.23	33.62
607.352	10.62
607.474	22.62
607.596	37.62
607.719	20.62
607.841	14.62
607.963	13.62
608.085	38.62
608.207	41.62
608.33	16.62
608.452	16.62
608.574	21.62
608.696	29.62
608.819	31.62
608.941	37.62
609.063	34.62
609.185	15.62
609.307	22.62
609.43	37.62
609.552	16.62
609.674	13.62
609.796	22.62
609.918	32.62
610.041	22.62
610.163	26.62
610.285	22.62
610.407	22.62
610.529	13.62
610.652	28.62
610.774	32.62
610.896	8.62
611.018	20.62
611.14	29.62
611.263	23.62
611.385	18.62
611.507	36.62
611.629	16.62
611.751	24.62
611.873	37.62
611.996	25.62
612.118	53.62
612.24	28.62
612.362	31.62
612.484	47.62
612.607	45.62
612.729	56.62
612.851	37.62
612.973	21.62
613.095	8.62
613.218	26.62
613.34	27.62
613.462	28.62
613.584	18.62
613.706	12.62
613.828	48.62
613.951	30.62
614.073	12.62
614.195	15.62
614.317	32.62
614.439	11.62
614.561	31.62
614.684	12.62
614.806	40.62
614.928	37.62
615.05	24.62
615.172	46.62
615.294	30.62
615.417	31.62
615.539	18.62
615.661	17.62
615.783	43.62
615.905	30.62
616.027	16.62
616.15	29.62
616.272	9.62
616.394	17.62
616.516	24.62
616.638	22.62
616.76	24.62
616.883	27.62
617.005	19.62
617.127	19.62
617.249	38.62
617.371	42.62
617.493	26.62
617.615	37.62
617.738	31.62
617.86	36.62
617.982	29.62
618.104	24.62
618.226	42.62
618.348	14.62
618.471	14.62
618.593	31.62
618.715	10.62
618.837	14.62
618.959	13.62
619.081	21.62
619.203	11.62
619.326	24.62
619.448	30.62
619.57	39.62
619.692	27.62
619.814	38.62
619.936	35.62
620.058	28.62
620.181	34.62
620.303	18.62
620.425	18.62
620.547	11.62
620.669	0.62
620.791	20.62
620.913	1.62
621.036	2.62
621.158	15.62
621.28	29.62
621.402	-1.38
621.524	15.62
621.646	5.62
621.768	4.62
621.891	13.62
622.013	4.62
622.135	14.62
622.257	8.62
622.379	22.62
622.501	16.62
622.623	19.62
622.745	18.62
622.868	24.62
622.99	9.62
623.112	12.62
623.234	11.62
623.356	33.62
623.478	16.62
623.6	22.62
623.722	16.62
623.845	10.62
623.967	22.62
624.089	31.62
624.211	14.62
624.333	16.62
624.455	19.62
624.577	22.62
624.699	23.62
624.822	24.62
624.944	13.62
625.066	22.62
625.188	19.62
625.31	26.62
625.432	25.62
625.554	2.62
625.676	56.62
625.799	25.62
625.921	14.62
626.043	15.62
626.165	10.62
626.287	12.62
626.409	30.62
626.531	32.62
626.653	18.62
626.775	18.62
626.898	29.62
627.02	34.62
627.142	34.62
627.264	10.62
627.386	29.62
627.508	22.62
627.63	7.62
627.752	22.62
627.874	20.62
627.997	18.62
628.119	24.62
628.241	26.62
628.363	30.62
628.485	26.62
628.607	20.62
628.729	2.62
628.851	2.62
628.973	25.62
629.096	8.62
629.218	8.62
629.34	19.62
629.462	4.62
629.584	19.62
629.706	21.62
629.828	12.62
629.95	19.62
630.072	12.62
630.195	22.62
630.317	18.62
630.439	13.62
630.561	27.62
630.683	18.62
630.805	40.62
630.927	22.62
631.049	22.62
631.171	6.62
631.293	25.62
631.416	28.62
631.538	17.62
631.66	20.62
631.782	10.62
631.904	46.62
632.026	13.62
632.148	18.62
632.27	4.62
632.392	7.62
632.514	4.62
632.637	-6.38
632.759	-1.38
632.881	6.62
633.003	5.62
633.125	22.62
633.247	26.62
633.369	16.62
633.491	24.62
633.613	33.62
633.735	6.62
633.858	20.62
633.98	19.62
634.102	4.62
634.224	20.62
634.346	-5.38
634.468	16.62
634.59	10.62
634.712	12.62
634.834	10.62
634.956	-3.38
635.078	-6.38
635.201	5.62
635.323	9.62
635.445	11.62
635.567	-3.38
635.689	23.62
635.811	5.62
635.933	15.62
636.055	14.62
636.177	16.62
636.299	26.62
636.421	12.62
636.544	10.62
636.666	31.62
636.788	21.62
636.91	13.62
637.032	5.62
637.154	14.62
637.276	42.62
637.398	31.62
637.52	21.62
637.642	32.62
637.764	14.62
637.887	20.62
638.009	20.62
638.131	26.62
638.253	13.62
638.375	33.62
638.497	13.62
638.619	-10.38
638.741	14.62
638.863	13.62
638.985	7.62
639.107	10.62
639.23	20.62
639.352	39.62
639.474	19.62
639.596	13.62
639.718	9.62
639.84	0.62
639.962	14.62
640.084	16.62
640.206	20.62
640.328	0.62
640.45	10.62
640.573	13.62
640.695	19.62
640.817	20.62
640.939	20.62
641.061	12.62
641.183	3.62
641.305	14.62
641.427	8.62
641.549	22.62
641.671	26.62
641.793	2.62
641.915	24.62
642.038	4.62
642.16	7.62
642.282	4.62
642.404	9.62
642.526	20.62
642.648	30.62
642.77	26.62
642.892	14.62
643.014	17.62
643.136	28.62
643.258	13.62
643.381	34.62
643.503	21.62
643.625	23.62
643.747	-8.38
643.869	-3.38
643.991	10.62
644.113	18.62
644.235	24.62
644.357	21.62
644.479	32.62
644.601	-0.38
644.723	9.62
644.846	12.62
644.968	9.62
645.09	15.62
645.212	1.62
645.334	16.62
645.456	29.62
645.578	17.62
645.7	20.62
645.822	27.62
645.944	15.62
646.066	6.62
646.188	1.62
646.311	29.62
646.433	0.62
646.555	43.62
646.677	9.62
646.799	25.62
646.921	26.62
647.043	32.62
647.165	4.62
647.287	12.62
647.409	8.62
647.531	24.62
647.654	-9.38
647.776	22.62
647.898	17.62
648.02	0.62
648.142	1.62
648.264	8.62
648.386	18.62
648.508	9.62
648.63	9.62
648.752	12.62
648.874	-0.38
648.997	-2.38
649.119	22.62
649.241	31.62
649.363	41.62
649.485	30.62
649.607	6.62
649.729	6.62
649.851	16.62
649.973	18.62
650.095	8.62
650.217	4.62
650.34	-1.38
650.462	21.62
650.584	24.62
650.706	28.62
650.828	31.62
650.95	4.62
651.072	24.62
651.194	-0.38
651.316	13.62
651.438	20.62
651.56	0.62
651.683	0.62
651.805	21.62
651.927	27.62
652.049	9.62
652.171	11.62
652.293	22.62
652.415	19.62
652.537	12.62
652.659	22.62
652.781	15.62
652.903	12.62
653.026	28.62
653.148	26.62
653.27	14.62
653.392	21.62
653.514	7.62
653.636	7.62
653.758	12.62
653.88	4.62
654.002	10.62
654.124	4.62
654.247	14.62
654.369	29.62
654.491	14.62
654.613	3.62
654.735	11.62
654.857	20.62
654.979	25.62
655.101	14.62
655.223	30.62
655.345	16.62
655.468	26.62
655.59	6.62
655.712	9.62
655.834	0.62
655.956	22.62
656.078	20.62
656.2	6.62
656.322	9.62
656.444	-4.38
656.566	14.62
656.689	2.62
656.811	12.62
656.933	18.62
657.055	-1.38
657.177	24.62
657.299	6.62
657.421	12.62
657.543	15.62
657.665	23.62
657.787	13.62
657.91	9.62
658.032	9.62
658.154	9.62
658.276	4.62
658.398	-15.38
658.52	13.62
658.642	13.62
658.764	21.62
658.886	4.62
659.009	22.62
659.131	27.62
659.253	27.62
659.375	4.62
659.497	-7.38
659.619	22.62
659.741	8.62
659.863	17.62
659.985	10.62
660.108	8.62
660.23	8.62
660.352	2.62
660.474	6.62
660.596	13.62
660.718	2.62
660.84	21.62
660.962	18.62
661.084	-2.38
661.207	4.62
661.329	-4.38
661.451	8.62
661.573	-18.38
661.695	9.62
661.817	35.62
661.939	41.62
662.061	15.62
662.184	11.62
662.306	21.62
662.428	12.62
662.55	31.62
662.672	3.62
662.794	9.62
662.916	11.62
663.038	5.62
663.161	31.62
663.283	12.62
663.405	24.62
663.527	1.62
663.649	29.62
663.771	27.62
663.893	0.62
664.015	4.62
664.138	4.62
664.26	2.62
664.382	5.62
664.504	-9.38
664.626	8.62
664.748	22.62
664.87	0.62
664.992	16.62
665.115	21.62
665.237	9.62
665.359	-3.38
665.481	1.62
665.603	11.62
665.725	4.62
665.847	-8.38
665.97	0.62
666.092	10.62
666.214	17.62
666.336	14.62
666.458	31.62
666.58	11.62
666.702	-0.38
666.825	6.62
666.947	-17.38
667.069	14.62
667.191	10.62
667.313	19.62
667.435	5.62
667.557	-11.38
667.68	7.62
667.802	0.62
667.924	12.62
668.046	18.62
668.168	18.62
668.29	28.62
668.412	10.62
668.535	22.62
668.657	3.62
668.779	-1.38
668.901	9.62
669.023	17.62
669.145	-2.38
669.267	18.62
669.39	14.62
669.512	6.62
669.634	1.62
669.756	-0.38
669.878	5.62
670	12.62
670.123	1.62
670.245	33.62
670.367	14.62
670.489	14.62
670.611	8.62
670.733	8.62
670.856	17.62
670.978	11.62
671.1	22.62
671.222	23.62
671.344	16.62
671.466	13.62
671.589	13.62
671.711	9.62
671.833	-10.38
671.955	-1.38
672.077	2.62
672.199	14.62
672.322	33.62
672.444	14.62
672.566	12.62
672.688	9.62
672.81	13.62
672.932	22.62
673.055	13.62
673.177	5.62
673.299	17.62
673.421	5.62
673.543	7.62
673.665	19.62
673.788	24.62
673.91	-1.38
674.032	-9.38
674.154	16.62
674.276	23.62
674.399	-4.38
674.521	20.62
674.643	17.62
674.765	5.62
674.887	30.62
675.009	-5.38
675.132	-2.38
675.254	4.62
675.376	9.62
675.498	23.62
675.62	29.62
675.743	9.62
675.865	24.62
675.987	6.62
676.109	8.62
676.231	18.62
676.354	32.62
676.476	8.62
676.598	8.62
676.72	11.62
676.842	15.62
676.965	3.62
677.087	26.62
677.209	25.62
677.331	13.62
677.453	14.62
677.576	11.62
677.698	8.62
677.82	12.62
677.942	3.62
678.064	10.62
678.187	13.62
678.309	29.62
678.431	8.62
678.553	12.62
678.675	21.62
678.798	12.62
678.92	8.62
679.042	27.62
679.164	8.62
679.286	20.62
679.409	6.62
679.531	-12.38
679.653	4.62
679.775	-1.38
679.898	14.62
680.02	10.62
680.142	4.62
680.264	21.62
680.386	9.62
680.509	23.62
680.631	34.62
680.753	5.62
680.875	-4.38
680.998	22.62
681.12	12.62
681.242	7.62
681.364	1.62
681.486	0.62
681.609	4.62
681.731	-6.38
681.853	12.62
681.975	-10.38
682.098	8.62
682.22	32.62
682.342	6.62
682.464	8.62
682.587	-3.38
682.709	-0.38
682.831	-11.38
682.953	17.62
683.076	8.62
683.198	18.62
683.32	0.62
683.442	4.62
683.565	8.62
683.687	6.62
683.809	4.62
683.931	0.62
684.054	16.62
684.176	9.62
684.298	20.62
684.42	7.62
684.543	14.62
684.665	-0.38
684.787	5.62
684.909	-9.38
685.032	21.62
685.154	-5.38
685.276	9.62
685.398	15.62
685.521	10.62
685.643	21.62
685.765	1.62
685.887	25.62
686.01	30.62
686.132	12.62
686.254	10.62
686.377	14.62
686.499	17.62
686.621	13.62
686.743	16.62
686.866	20.62
686.988	36.62
687.11	28.62
687.232	22.62
687.355	0.62
687.477	6.62
687.599	12.62
687.722	14.62
687.844	2.62
687.966	11.62
688.088	6.62
688.211	30.62
688.333	8.62
688.455	6.62
688.578	20.62
688.7	6.62
688.822	15.62
688.944	2.62
689.067	27.62
689.189	19.62
689.311	12.62
689.434	10.62
689.556	15.62
689.678	-1.38
689.801	2.62
689.923	34.62
690.045	24.62
690.167	34.62
690.29	31.62
690.412	6.62
690.534	2.62
690.657	0.62
690.779	25.62
690.901	14.62
691.024	4.62
691.146	8.62
691.268	4.62
691.391	20.62
691.513	9.62
691.635	14.62
691.758	22.62
691.88	16.62
692.002	4.62
692.125	12.62
692.247	19.62
692.369	1.62
692.492	-3.38
692.614	9.62
692.736	-4.38
692.859	1.62
692.981	-2.38
693.103	6.62
693.226	6.62
693.348	10.62
693.47	13.62
693.593	30.62
693.715	33.62
693.837	24.62
693.96	20.62
694.082	5.62
694.204	26.62
694.327	10.62
694.449	1.62
694.571	20.62
694.694	21.62
694.816	23.62
694.938	18.62
695.061	14.62
695.183	14.62
695.305	12.62
695.428	26.62
695.55	-0.38
695.672	-10.38
695.795	23.62
695.917	29.62
696.04	8.62
696.162	4.62
696.284	-8.38
696.407	6.62
696.529	27.62
696.651	46.62
696.774	4.62
696.896	18.62
697.019	4.62
697.141	4.62
697.263	13.62
697.386	6.62
697.508	-1.38
697.63	21.62
697.753	4.62
697.875	-5.38
697.998	0.62
698.12	9.62
698.242	9.62
698.365	9.62
698.487	6.62
698.61	20.62
698.732	16.62
698.854	21.62
698.977	0.62
699.099	24.62
699.221	2.62
699.344	0.62
699.466	34.62
699.589	36.62
699.711	0.62
699.834	-8.38
699.956	18.62
700.078	18.62
700.201	-0.38
700.323	18.62
700.446	9.62
700.568	23.62
700.69	17.62
700.813	12.62
700.935	-0.38
701.058	8.62
701.18	5.62
701.302	20.62
701.425	7.62
701.547	0.62
701.67	5.62
701.792	19.62
701.915	1.62
702.037	3.62
702.159	18.62
702.282	20.62
702.404	1.62
702.527	22.62
702.649	27.62
702.772	11.62
702.894	5.62
703.017	18.62
703.139	12.62
703.261	26.62
703.384	31.62
703.506	0.62
703.629	9.62
703.751	9.62
703.874	5.62
703.996	3.62
704.119	-1.38
704.241	11.62
704.364	-2.38
704.486	4.62
704.608	22.62
704.731	12.62
704.853	2.62
704.976	16.62
705.098	16.62
705.221	21.62
705.343	25.62
705.466	26.62
705.588	21.62
705.711	9.62
705.833	23.62
705.956	9.62
706.078	6.62
706.201	16.62
706.323	14.62
706.446	-5.38
