Data from HighRes_mercury_15_13_11_07_2024_HR4C61891__81__15-14-31-284.txt Node

Date: Thu Nov 07 15:14:31 EST 2024
User: crc00042
Spectrometer: HR4C6189
Trigger mode: 4
Integration Time (sec): 1.000000E-1
Scans to average: 1
Electric dark correction enabled: true
Nonlinearity correction enabled: false
Boxcar width: 0
XAxis mode: Wavelengths
Number of Pixels in Spectrum: 3648
>>>>>Begin Spectral Data<<<<<
639.567	-43.46
639.602	-43.46
639.636	-43.46
639.67	-36.46
639.704	-16.46
639.738	-9.46
639.773	20.54
639.807	-18.46
639.841	-6.46
639.875	3.54
639.909	-10.46
639.943	-0.46
639.978	6.54
640.012	0.54
640.046	4.54
640.08	12.54
640.114	3.54
640.148	-6.46
640.182	-15.46
640.217	-3.46
640.251	7.54
640.285	1.54
640.319	-19.46
640.353	3.54
640.387	0.54
640.421	2.54
640.455	-3.46
640.49	-11.46
640.524	-13.46
640.558	9.54
640.592	2.54
640.626	-3.46
640.66	2.54
640.694	-9.46
640.728	-7.46
640.762	10.54
640.796	18.54
640.83	3.54
640.865	-3.46
640.899	-4.46
640.933	-1.46
640.967	3.54
641.001	4.54
641.035	-5.46
641.069	6.54
641.103	-10.46
641.137	12.54
641.171	-6.46
641.205	7.54
641.239	0.54
641.273	9.54
641.307	-0.46
641.341	12.54
641.375	6.54
641.409	-1.46
641.443	-8.46
641.477	-1.46
641.511	7.54
641.545	3.54
641.579	3.54
641.614	10.54
641.648	5.54
641.682	-23.46
641.716	8.54
641.75	14.54
641.784	6.54
641.818	-4.46
641.852	8.54
641.886	2.54
641.919	27.54
641.953	-9.46
641.987	-6.46
642.021	-8.46
642.055	-0.46
642.089	-4.46
642.123	-0.46
642.157	-12.46
642.191	-8.46
642.225	-0.46
642.259	-6.46
642.293	18.54
642.327	1.54
642.361	-3.46
642.395	-11.46
642.429	6.54
642.463	-1.46
642.497	7.54
642.531	-0.46
642.565	5.54
642.599	3.54
642.633	-13.46
642.666	9.54
642.7	15.54
642.734	4.54
642.768	-11.46
642.802	16.54
642.836	1.54
642.87	-1.46
642.904	2.54
642.938	-1.46
642.972	-2.46
643.005	10.54
643.039	12.54
643.073	5.54
643.107	11.54
643.141	3.54
643.175	-16.46
643.209	-1.46
643.243	8.54
643.276	5.54
643.31	6.54
643.344	-13.46
643.378	3.54
643.412	10.54
643.446	2.54
643.48	-11.46
643.513	8.54
643.547	-2.46
643.581	8.54
643.615	28.54
643.649	3.54
643.683	4.54
643.716	-0.46
643.75	6.54
643.784	-14.46
643.818	8.54
643.852	-10.46
643.886	-1.46
643.919	-2.46
643.953	-2.46
643.987	-1.46
644.021	20.54
644.055	17.54
644.088	-4.46
644.122	-6.46
644.156	-0.46
644.19	1.54
644.224	-1.46
644.257	-0.46
644.291	4.54
644.325	6.54
644.359	-3.46
644.392	10.54
644.426	4.54
644.46	-5.46
644.494	-0.46
644.527	-4.46
644.561	-0.46
644.595	-3.46
644.629	-28.46
644.662	6.54
644.696	3.54
644.73	-15.46
644.764	3.54
644.797	9.54
644.831	11.54
644.865	12.54
644.899	10.54
644.932	20.54
644.966	-0.46
645	0.54
645.033	28.54
645.067	-0.46
645.101	2.54
645.135	-8.46
645.168	-9.46
645.202	2.54
645.236	7.54
645.269	12.54
645.303	-13.46
645.337	-25.46
645.37	-6.46
645.404	8.54
645.438	-0.46
645.471	-1.46
645.505	12.54
645.539	5.54
645.572	-8.46
645.606	-3.46
645.64	-0.46
645.673	-2.46
645.707	18.54
645.741	15.54
645.774	-3.46
645.808	4.54
645.842	0.54
645.875	9.54
645.909	-7.46
645.943	-16.46
645.976	-17.46
646.01	6.54
646.043	28.54
646.077	20.54
646.111	10.54
646.144	8.54
646.178	0.54
646.212	-12.46
646.245	-8.46
646.279	9.54
646.312	18.54
646.346	14.54
646.38	3.54
646.413	16.54
646.447	7.54
646.48	-6.46
646.514	20.54
646.547	5.54
646.581	-3.46
646.615	5.54
646.648	5.54
646.682	12.54
646.715	-6.46
646.749	4.54
646.782	-10.46
646.816	-9.46
646.85	7.54
646.883	10.54
646.917	5.54
646.95	3.54
646.984	-1.46
647.017	8.54
647.051	-6.46
647.084	0.54
647.118	-0.46
647.151	-2.46
647.185	0.54
647.218	-5.46
647.252	4.54
647.285	0.54
647.319	-18.46
647.353	3.54
647.386	17.54
647.42	-2.46
647.453	2.54
647.487	2.54
647.52	7.54
647.553	7.54
647.587	4.54
647.62	-13.46
647.654	-4.46
647.687	5.54
647.721	22.54
647.754	9.54
647.788	-14.46
647.821	-7.46
647.855	6.54
647.888	8.54
647.922	18.54
647.955	5.54
647.989	8.54
648.022	0.54
648.055	10.54
648.089	0.54
648.122	31.54
648.156	0.54
648.189	-0.46
648.223	3.54
648.256	19.54
648.29	4.54
648.323	-3.46
648.356	17.54
648.39	14.54
648.423	-2.46
648.457	-16.46
648.49	-9.46
648.523	14.54
648.557	13.54
648.59	-11.46
648.624	15.54
648.657	-8.46
648.69	28.54
648.724	18.54
648.757	17.54
648.791	6.54
648.824	2.54
648.857	32.54
648.891	12.54
648.924	14.54
648.957	12.54
648.991	-7.46
649.024	7.54
649.057	-4.46
649.091	0.54
649.124	10.54
649.158	7.54
649.191	23.54
649.224	16.54
649.258	11.54
649.291	-3.46
649.324	-0.46
649.358	3.54
649.391	3.54
649.424	14.54
649.458	2.54
649.491	-4.46
649.524	3.54
649.557	-15.46
649.591	-2.46
649.624	14.54
649.657	-9.46
649.691	6.54
649.724	3.54
649.757	-1.46
649.791	-11.46
649.824	13.54
649.857	15.54
649.89	-0.46
649.924	-7.46
649.957	-6.46
649.99	-16.46
650.023	2.54
650.057	3.54
650.09	3.54
650.123	6.54
650.157	31.54
650.19	23.54
650.223	1.54
650.256	-11.46
650.29	-4.46
650.323	-4.46
650.356	7.54
650.389	9.54
650.423	-8.46
650.456	0.54
650.489	13.54
650.522	3.54
650.555	18.54
650.589	24.54
650.622	6.54
650.655	4.54
650.688	13.54
650.721	-2.46
650.755	4.54
650.788	-0.46
650.821	-3.46
650.854	-7.46
650.887	5.54
650.921	-2.46
650.954	-4.46
650.987	-2.46
651.02	3.54
651.053	-16.46
651.087	-15.46
651.12	16.54
651.153	4.54
651.186	-2.46
651.219	-8.46
651.252	12.54
651.286	0.54
651.319	-16.46
651.352	-23.46
651.385	3.54
651.418	-6.46
651.451	1.54
651.484	-2.46
651.518	-12.46
651.551	15.54
651.584	-5.46
651.617	-2.46
651.65	3.54
651.683	16.54
651.716	-11.46
651.749	-6.46
651.783	-6.46
651.816	-0.46
651.849	-0.46
651.882	9.54
651.915	-7.46
651.948	22.54
651.981	-7.46
652.014	-6.46
652.047	-1.46
652.08	-5.46
652.114	-1.46
652.147	-1.46
652.18	0.54
652.213	14.54
652.246	-2.46
652.279	-8.46
652.312	8.54
652.345	-10.46
652.378	3.54
652.411	17.54
652.444	13.54
652.477	-3.46
652.51	-1.46
652.543	-7.46
652.576	7.54
652.609	1.54
652.642	6.54
652.675	16.54
652.709	0.54
652.742	-9.46
652.775	0.54
652.808	3.54
652.841	-7.46
652.874	1.54
652.907	11.54
652.94	3.54
652.973	-8.46
653.006	-2.46
653.039	-1.46
653.072	16.54
653.105	-2.46
653.138	-19.46
653.171	-9.46
653.204	-13.46
653.237	-4.46
653.27	-0.46
653.303	10.54
653.336	-5.46
653.368	-9.46
653.401	6.54
653.434	-5.46
653.467	4.54
653.5	-10.46
653.533	-18.46
653.566	-14.46
653.599	-1.46
653.632	-4.46
653.665	-13.46
653.698	-8.46
653.731	-0.46
653.764	5.54
653.797	-4.46
653.83	2.54
653.863	21.54
653.896	-11.46
653.929	-1.46
653.961	5.54
653.994	0.54
654.027	-1.46
654.06	0.54
654.093	7.54
654.126	-1.46
654.159	-3.46
654.192	13.54
654.225	-4.46
654.258	-10.46
654.29	-2.46
654.323	7.54
654.356	-11.46
654.389	5.54
654.422	0.54
654.455	-3.46
654.488	-10.46
654.521	-19.46
654.553	-6.46
654.586	0.54
654.619	-4.46
654.652	-6.46
654.685	20.54
654.718	-3.46
654.751	-3.46
654.783	0.54
654.816	18.54
654.849	2.54
654.882	-12.46
654.915	-3.46
654.948	-4.46
654.98	-11.46
655.013	-15.46
655.046	-9.46
655.079	-16.46
655.112	-3.46
655.144	-7.46
655.177	1.54
655.21	15.54
655.243	13.54
655.276	-4.46
655.308	-6.46
655.341	-33.46
655.374	0.54
655.407	-3.46
655.44	1.54
655.472	19.54
655.505	-3.46
655.538	1.54
655.571	4.54
655.603	-23.46
655.636	-0.46
655.669	-1.46
655.702	4.54
655.734	-0.46
655.767	-14.46
655.8	7.54
655.833	17.54
655.865	2.54
655.898	-16.46
655.931	-0.46
655.964	-7.46
655.996	-5.46
656.029	12.54
656.062	2.54
656.095	-4.46
656.127	-7.46
656.16	2.54
656.193	-1.46
656.225	16.54
656.258	8.54
656.291	-3.46
656.324	-26.46
656.356	5.54
656.389	-3.46
656.422	13.54
656.454	-19.46
656.487	-1.46
656.52	-5.46
656.552	-5.46
656.585	8.54
656.618	16.54
656.65	17.54
656.683	7.54
656.716	6.54
656.748	-8.46
656.781	-1.46
656.814	-9.46
656.846	5.54
656.879	-2.46
656.912	8.54
656.944	-15.46
656.977	-12.46
657.01	10.54
657.042	12.54
657.075	8.54
657.108	-12.46
657.14	0.54
657.173	10.54
657.205	8.54
657.238	-3.46
657.271	0.54
657.303	1.54
657.336	0.54
657.369	-8.46
657.401	-13.46
657.434	-16.46
657.466	-7.46
657.499	1.54
657.532	-2.46
657.564	17.54
657.597	-13.46
657.629	3.54
657.662	3.54
657.694	3.54
657.727	1.54
657.76	7.54
657.792	-12.46
657.825	-3.46
657.857	-1.46
657.89	-11.46
657.922	2.54
657.955	-15.46
657.987	-4.46
658.02	6.54
658.053	5.54
658.085	-2.46
658.118	-5.46
658.15	9.54
658.183	17.54
658.215	-0.46
658.248	1.54
658.28	-8.46
658.313	-3.46
658.345	9.54
658.378	10.54
658.41	-21.46
658.443	11.54
658.475	-2.46
658.508	-7.46
658.54	-7.46
658.573	-8.46
658.605	8.54
658.638	-5.46
658.67	1.54
658.703	-3.46
658.735	-21.46
658.768	6.54
658.8	-15.46
658.833	20.54
658.865	1.54
658.898	-15.46
658.93	-8.46
658.963	0.54
658.995	-19.46
659.028	13.54
659.06	3.54
659.092	0.54
659.125	-1.46
659.157	10.54
659.19	8.54
659.222	-10.46
659.255	-3.46
659.287	-8.46
659.32	-12.46
659.352	-1.46
659.384	-0.46
659.417	-6.46
659.449	2.54
659.482	5.54
659.514	-9.46
659.546	-7.46
659.579	-20.46
659.611	10.54
659.644	-4.46
659.676	-6.46
659.708	-5.46
659.741	2.54
659.773	13.54
659.806	12.54
659.838	2.54
659.87	11.54
659.903	0.54
659.935	9.54
659.967	27.54
660	8.54
660.032	-11.46
660.065	7.54
660.097	6.54
660.129	6.54
660.162	-9.46
660.194	4.54
660.226	12.54
660.259	-10.46
660.291	-22.46
660.323	2.54
660.356	15.54
660.388	-14.46
660.42	1.54
660.453	0.54
660.485	8.54
660.517	19.54
660.55	4.54
660.582	-0.46
660.614	0.54
660.647	-9.46
660.679	-32.46
660.711	-3.46
660.743	-19.46
660.776	-5.46
660.808	0.54
660.84	-9.46
660.873	6.54
660.905	-6.46
660.937	2.54
660.969	-1.46
661.002	-5.46
661.034	6.54
661.066	6.54
661.099	12.54
661.131	8.54
661.163	-0.46
661.195	-3.46
661.228	-2.46
661.26	-12.46
661.292	-2.46
661.324	-1.46
661.357	21.54
661.389	3.54
661.421	2.54
661.453	-6.46
661.485	16.54
661.518	4.54
661.55	-17.46
661.582	-8.46
661.614	-1.46
661.647	-1.46
661.679	3.54
661.711	14.54
661.743	-4.46
661.775	-5.46
661.808	17.54
661.84	-11.46
661.872	7.54
661.904	4.54
661.936	-0.46
661.969	-15.46
662.001	2.54
662.033	22.54
662.065	-8.46
662.097	22.54
662.129	24.54
662.162	-6.46
662.194	15.54
662.226	-10.46
662.258	5.54
662.29	-3.46
662.322	-10.46
662.355	-17.46
662.387	18.54
662.419	17.54
662.451	7.54
662.483	8.54
662.515	5.54
662.547	10.54
662.58	7.54
662.612	-6.46
662.644	-10.46
662.676	5.54
662.708	8.54
662.74	-5.46
662.772	5.54
662.804	10.54
662.836	5.54
662.869	2.54
662.901	20.54
662.933	8.54
662.965	4.54
662.997	1.54
663.029	0.54
663.061	-0.46
663.093	0.54
663.125	9.54
663.157	-1.46
663.189	-4.46
663.221	15.54
663.254	5.54
663.286	9.54
663.318	-8.46
663.35	-4.46
663.382	0.54
663.414	6.54
663.446	-10.46
663.478	2.54
663.51	19.54
663.542	0.54
663.574	0.54
663.606	9.54
663.638	-25.46
663.67	-11.46
663.702	-4.46
663.734	-4.46
663.766	5.54
663.798	-6.46
663.83	1.54
663.862	8.54
663.894	-19.46
663.926	-5.46
663.958	-8.46
663.99	-4.46
664.022	-6.46
664.054	5.54
664.086	4.54
664.118	-9.46
664.15	3.54
664.182	2.54
664.214	-11.46
664.246	22.54
664.278	6.54
664.31	14.54
664.342	-11.46
664.374	7.54
664.406	1.54
664.438	-0.46
664.47	7.54
664.502	-19.46
664.534	-3.46
664.566	-12.46
664.598	-0.46
664.63	-18.46
664.662	0.54
664.693	-16.46
664.725	-12.46
664.757	6.54
664.789	-6.46
664.821	-1.46
664.853	-1.46
664.885	-8.46
664.917	-1.46
664.949	14.54
664.981	18.54
665.013	1.54
665.045	-9.46
665.076	-9.46
665.108	7.54
665.14	8.54
665.172	0.54
665.204	1.54
665.236	2.54
665.268	7.54
665.3	1.54
665.331	-2.46
665.363	5.54
665.395	-0.46
665.427	-4.46
665.459	9.54
665.491	2.54
665.523	-7.46
665.555	-14.46
665.586	8.54
665.618	-8.46
665.65	-24.46
665.682	-4.46
665.714	-3.46
665.746	-11.46
665.777	9.54
665.809	-14.46
665.841	-6.46
665.873	11.54
665.905	4.54
665.937	-4.46
665.968	-5.46
666	-12.46
666.032	-0.46
666.064	-2.46
666.096	-1.46
666.127	3.54
666.159	4.54
666.191	8.54
666.223	1.54
666.255	13.54
666.286	-6.46
666.318	4.54
666.35	15.54
666.382	0.54
666.413	0.54
666.445	-5.46
666.477	-2.46
666.509	0.54
666.54	11.54
666.572	-10.46
666.604	4.54
666.636	-3.46
666.667	14.54
666.699	12.54
666.731	8.54
666.763	9.54
666.794	4.54
666.826	9.54
666.858	-17.46
666.89	-1.46
666.921	1.54
666.953	9.54
666.985	10.54
667.017	11.54
667.048	-3.46
667.08	1.54
667.112	-0.46
667.143	-2.46
667.175	1.54
667.207	-1.46
667.238	6.54
667.27	-2.46
667.302	2.54
667.334	-15.46
667.365	29.54
667.397	6.54
667.429	-11.46
667.46	8.54
667.492	12.54
667.524	-0.46
667.555	-9.46
667.587	-3.46
667.619	-7.46
667.65	-15.46
667.682	6.54
667.714	9.54
667.745	-1.46
667.777	-9.46
667.808	16.54
667.84	12.54
667.872	8.54
667.903	2.54
667.935	-15.46
667.967	-2.46
667.998	-7.46
668.03	6.54
668.061	3.54
668.093	0.54
668.125	13.54
668.156	14.54
668.188	-3.46
668.22	-2.46
668.251	-0.46
668.283	12.54
668.314	14.54
668.346	10.54
668.377	5.54
668.409	6.54
668.441	11.54
668.472	21.54
668.504	3.54
668.535	3.54
668.567	1.54
668.599	0.54
668.63	-17.46
668.662	-13.46
668.693	5.54
668.725	8.54
668.756	3.54
668.788	-4.46
668.819	-2.46
668.851	-2.46
668.882	-0.46
668.914	-3.46
668.946	-1.46
668.977	5.54
669.009	1.54
669.04	-17.46
669.072	8.54
669.103	-13.46
669.135	9.54
669.166	10.54
669.198	3.54
669.229	7.54
669.261	4.54
669.292	-6.46
669.324	8.54
669.355	-2.46
669.387	-26.46
669.418	-1.46
669.45	-14.46
669.481	-1.46
669.513	11.54
669.544	6.54
669.576	4.54
669.607	6.54
669.639	11.54
669.67	-12.46
669.701	9.54
669.733	5.54
669.764	6.54
669.796	1.54
669.827	-17.46
669.859	-4.46
669.89	0.54
669.922	13.54
669.953	14.54
669.985	26.54
670.016	10.54
670.047	23.54
670.079	1.54
670.11	-0.46
670.142	8.54
670.173	8.54
670.204	-12.46
670.236	0.54
670.267	-6.46
670.299	-5.46
670.33	-3.46
670.362	16.54
670.393	1.54
670.424	3.54
670.456	-22.46
670.487	-8.46
670.518	-2.46
670.55	-0.46
670.581	-0.46
670.613	6.54
670.644	-7.46
670.675	-2.46
670.707	-3.46
670.738	5.54
670.769	5.54
670.801	-0.46
670.832	-0.46
670.864	-7.46
670.895	-9.46
670.926	-5.46
670.958	-4.46
670.989	-0.46
671.02	-7.46
671.052	7.54
671.083	6.54
671.114	8.54
671.146	3.54
671.177	1.54
671.208	-10.46
671.24	-20.46
671.271	7.54
671.302	0.54
671.333	-10.46
671.365	-16.46
671.396	-2.46
671.427	7.54
671.459	14.54
671.49	13.54
671.521	9.54
671.553	-4.46
671.584	17.54
671.615	-9.46
671.646	6.54
671.678	5.54
671.709	-23.46
671.74	-28.46
671.771	-1.46
671.803	-2.46
671.834	6.54
671.865	7.54
671.896	1.54
671.928	3.54
671.959	-3.46
671.99	-1.46
672.021	-2.46
672.053	-7.46
672.084	8.54
672.115	9.54
672.146	-7.46
672.178	-10.46
672.209	-7.46
672.24	1.54
672.271	6.54
672.303	0.54
672.334	-0.46
672.365	-12.46
672.396	1.54
672.427	12.54
672.459	17.54
672.49	14.54
672.521	3.54
672.552	3.54
672.583	7.54
672.615	3.54
672.646	0.54
672.677	16.54
672.708	12.54
672.739	6.54
672.77	14.54
672.802	7.54
672.833	2.54
672.864	3.54
672.895	-0.46
672.926	-4.46
672.957	5.54
672.989	-1.46
673.02	-2.46
673.051	0.54
673.082	7.54
673.113	-8.46
673.144	-0.46
673.175	13.54
673.206	0.54
673.238	-7.46
673.269	10.54
673.3	-1.46
673.331	5.54
673.362	-9.46
673.393	-3.46
673.424	26.54
673.455	17.54
673.487	11.54
673.518	6.54
673.549	-0.46
673.58	15.54
673.611	-1.46
673.642	-3.46
673.673	-5.46
673.704	-3.46
673.735	-11.46
673.766	2.54
673.797	6.54
673.828	-6.46
673.86	2.54
673.891	-6.46
673.922	11.54
673.953	-7.46
673.984	-7.46
674.015	-1.46
674.046	7.54
674.077	1.54
674.108	4.54
674.139	-4.46
674.17	-8.46
674.201	-4.46
674.232	-4.46
674.263	-14.46
674.294	-13.46
674.325	-3.46
674.356	2.54
674.387	17.54
674.418	4.54
674.449	-16.46
674.48	-16.46
674.511	-2.46
674.542	0.54
674.573	-3.46
674.604	2.54
674.635	-0.46
674.666	9.54
674.697	-6.46
674.728	-4.46
674.759	1.54
674.79	-8.46
674.821	-1.46
674.852	14.54
674.883	-9.46
674.914	-4.46
674.945	2.54
674.976	3.54
675.007	-9.46
675.038	3.54
675.069	-3.46
675.1	1.54
675.131	-11.46
675.162	-22.46
675.193	-2.46
675.224	-6.46
675.254	0.54
675.285	7.54
675.316	1.54
675.347	-7.46
675.378	-5.46
675.409	-10.46
675.44	14.54
675.471	3.54
675.502	-7.46
675.533	-4.46
675.564	-0.46
675.595	-4.46
675.625	20.54
675.656	1.54
675.687	-7.46
675.718	-10.46
675.749	-0.46
675.78	5.54
675.811	2.54
675.842	0.54
675.873	-14.46
675.903	-12.46
675.934	-0.46
675.965	0.54
675.996	3.54
676.027	5.54
676.058	-14.46
676.089	-10.46
676.119	-5.46
676.15	-4.46
676.181	-11.46
676.212	-9.46
676.243	15.54
676.274	-4.46
676.304	1.54
676.335	-2.46
676.366	-20.46
676.397	-27.46
676.428	18.54
676.459	13.54
676.489	4.54
676.52	17.54
676.551	2.54
676.582	-11.46
676.613	6.54
676.643	-26.46
676.674	-4.46
676.705	1.54
676.736	5.54
676.767	22.54
676.797	1.54
676.828	2.54
676.859	1.54
676.89	-1.46
676.92	3.54
676.951	2.54
676.982	-2.46
677.013	4.54
677.044	8.54
677.074	23.54
677.105	-13.46
677.136	10.54
677.167	-3.46
677.197	10.54
677.228	-4.46
677.259	-2.46
677.289	-7.46
677.32	-24.46
677.351	-5.46
677.382	-4.46
677.412	-10.46
677.443	19.54
677.474	13.54
677.505	-6.46
677.535	-0.46
677.566	-3.46
677.597	-5.46
677.627	1.54
677.658	-1.46
677.689	-5.46
677.72	-0.46
677.75	-15.46
677.781	5.54
677.812	14.54
677.842	17.54
677.873	4.54
677.904	-7.46
677.934	-4.46
677.965	-1.46
677.996	-15.46
678.026	-25.46
678.057	-8.46
678.088	-0.46
678.118	-2.46
678.149	-6.46
678.18	0.54
678.21	-2.46
678.241	4.54
678.272	-2.46
678.302	-0.46
678.333	7.54
678.363	6.54
678.394	-13.46
678.425	0.54
678.455	18.54
678.486	10.54
678.517	-1.46
678.547	2.54
678.578	2.54
678.608	-26.46
678.639	-3.46
678.67	15.54
678.7	1.54
678.731	2.54
678.761	-9.46
678.792	3.54
678.823	19.54
678.853	5.54
678.884	-14.46
678.914	-11.46
678.945	-2.46
678.975	-11.46
679.006	-2.46
679.037	-2.46
679.067	6.54
679.098	0.54
679.128	-3.46
679.159	-2.46
679.189	-0.46
679.22	-6.46
679.25	14.54
679.281	-3.46
679.312	-5.46
679.342	-3.46
679.373	12.54
679.403	-3.46
679.434	6.54
679.464	-9.46
679.495	10.54
679.525	-0.46
679.556	-3.46
679.586	17.54
679.617	10.54
679.647	4.54
679.678	8.54
679.708	-7.46
679.739	-11.46
679.769	3.54
679.8	-5.46
679.83	3.54
679.861	2.54
679.891	-0.46
679.922	-17.46
679.952	3.54
679.983	20.54
680.013	-3.46
680.044	2.54
680.074	5.54
680.105	5.54
680.135	4.54
680.165	2.54
680.196	-4.46
680.226	3.54
680.257	10.54
680.287	2.54
680.318	5.54
680.348	-3.46
680.379	23.54
680.409	11.54
680.439	4.54
680.47	-1.46
680.5	-5.46
680.531	-8.46
680.561	2.54
680.592	-3.46
680.622	7.54
680.652	-10.46
680.683	6.54
680.713	4.54
680.744	1.54
680.774	-7.46
680.804	14.54
680.835	2.54
680.865	-5.46
680.896	13.54
680.926	7.54
680.956	-3.46
680.987	-7.46
681.017	-8.46
681.047	-0.46
681.078	-16.46
681.108	-1.46
681.139	5.54
681.169	1.54
681.199	-9.46
681.23	13.54
681.26	-3.46
681.29	15.54
681.321	-6.46
681.351	7.54
681.381	-0.46
681.412	8.54
681.442	20.54
681.472	6.54
681.503	-2.46
681.533	-1.46
681.563	-0.46
681.594	7.54
681.624	1.54
681.654	-18.46
681.685	-15.46
681.715	-3.46
681.745	-5.46
681.775	-3.46
681.806	17.54
681.836	-4.46
681.866	-7.46
681.897	-6.46
681.927	-2.46
681.957	-33.46
681.987	-2.46
682.018	-8.46
682.048	8.54
682.078	3.54
682.109	19.54
682.139	18.54
682.169	17.54
682.199	-1.46
682.23	-13.46
682.26	-11.46
682.29	-3.46
682.32	-11.46
682.351	3.54
682.381	0.54
682.411	-2.46
682.441	4.54
682.472	-8.46
682.502	-1.46
682.532	-5.46
682.562	2.54
682.592	1.54
682.623	9.54
682.653	12.54
682.683	-1.46
682.713	7.54
682.743	-17.46
682.774	-29.46
682.804	-6.46
682.834	8.54
682.864	1.54
682.894	1.54
682.925	-11.46
682.955	-0.46
682.985	-5.46
683.015	-2.46
683.045	17.54
683.076	-16.46
683.106	-11.46
683.136	0.54
683.166	6.54
683.196	-4.46
683.226	-14.46
683.257	-7.46
683.287	2.54
683.317	-2.46
683.347	-8.46
683.377	1.54
683.407	2.54
683.437	4.54
683.468	12.54
683.498	-10.46
683.528	-1.46
683.558	-1.46
683.588	4.54
683.618	-1.46
683.648	1.54
683.678	2.54
683.708	14.54
683.739	7.54
683.769	-3.46
683.799	-8.46
683.829	-13.46
683.859	4.54
683.889	19.54
683.919	-0.46
683.949	14.54
683.979	5.54
684.009	3.54
684.039	4.54
684.07	3.54
684.1	7.54
684.13	-3.46
684.16	8.54
684.19	-0.46
684.22	-14.46
684.25	-4.46
684.28	-10.46
684.31	-0.46
684.34	-2.46
684.37	1.54
684.4	-22.46
684.43	-2.46
684.46	4.54
684.49	7.54
684.52	9.54
684.55	21.54
684.58	1.54
684.61	-3.46
684.64	2.54
684.67	12.54
684.7	1.54
684.73	4.54
684.76	-4.46
684.79	-6.46
684.82	-8.46
684.85	-3.46
684.88	-5.46
684.91	0.54
684.94	0.54
684.97	-8.46
685	-7.46
685.03	-21.46
685.06	-34.46
685.09	-8.46
685.12	5.54
685.15	-15.46
685.18	0.54
685.21	5.54
685.24	-3.46
685.27	7.54
685.3	-0.46
685.33	-2.46
685.36	5.54
685.39	-6.46
685.42	-3.46
685.45	-6.46
685.48	-6.46
685.51	-0.46
685.54	18.54
685.569	7.54
685.599	5.54
685.629	-7.46
685.659	-11.46
685.689	-14.46
685.719	-8.46
685.749	-7.46
685.779	-3.46
685.809	7.54
685.839	5.54
685.869	7.54
685.898	2.54
685.928	-17.46
685.958	-1.46
685.988	11.54
686.018	2.54
686.048	-2.46
686.078	5.54
686.108	20.54
686.137	-18.46
686.167	6.54
686.197	-10.46
686.227	-1.46
686.257	21.54
686.287	21.54
686.317	10.54
686.346	3.54
686.376	-3.46
686.406	3.54
686.436	13.54
686.466	13.54
686.496	18.54
686.525	4.54
686.555	-5.46
686.585	7.54
686.615	37.54
686.645	6.54
686.675	-5.46
686.704	6.54
686.734	9.54
686.764	-11.46
686.794	-0.46
686.824	-4.46
686.853	4.54
686.883	27.54
686.913	7.54
686.943	7.54
686.973	-6.46
687.002	-14.46
687.032	4.54
687.062	-4.46
687.092	11.54
687.121	-2.46
687.151	-4.46
687.181	-7.46
687.211	1.54
687.24	-3.46
687.27	0.54
687.3	2.54
687.33	2.54
687.359	-8.46
687.389	1.54
687.419	0.54
687.449	-11.46
687.478	0.54
687.508	17.54
687.538	8.54
687.568	0.54
687.597	-2.46
687.627	3.54
687.657	4.54
687.686	-10.46
687.716	15.54
687.746	-2.46
687.776	-18.46
687.805	17.54
687.835	-0.46
687.865	11.54
687.894	7.54
687.924	-12.46
687.954	-8.46
687.983	-1.46
688.013	5.54
688.043	-7.46
688.072	-12.46
688.102	8.54
688.132	-9.46
688.161	10.54
688.191	-10.46
688.221	2.54
688.25	-13.46
688.28	21.54
688.31	3.54
688.339	2.54
688.369	-7.46
688.399	-14.46
688.428	3.54
688.458	-11.46
688.488	-3.46
688.517	7.54
688.547	2.54
688.576	35.54
688.606	22.54
688.636	-14.46
688.665	-1.46
688.695	8.54
688.725	18.54
688.754	18.54
688.784	23.54
688.813	3.54
688.843	11.54
688.873	-6.46
688.902	-12.46
688.932	-7.46
688.961	15.54
688.991	14.54
689.02	9.54
689.05	-10.46
689.08	7.54
689.109	20.54
689.139	1.54
689.168	13.54
689.198	0.54
689.227	7.54
689.257	5.54
689.287	-2.46
689.316	3.54
689.346	3.54
689.375	-1.46
689.405	10.54
689.434	8.54
689.464	16.54
689.493	1.54
689.523	0.54
689.552	-1.46
689.582	7.54
689.611	-2.46
689.641	16.54
689.67	6.54
689.7	7.54
689.73	6.54
689.759	-0.46
689.789	16.54
689.818	-9.46
689.848	-24.46
689.877	9.54
689.906	-11.46
689.936	10.54
689.965	1.54
689.995	7.54
690.024	13.54
690.054	-3.46
690.083	-0.46
690.113	11.54
690.142	-4.46
690.172	-5.46
690.201	-4.46
690.231	1.54
690.26	-4.46
690.29	-2.46
690.319	1.54
690.348	-9.46
690.378	7.54
690.407	8.54
690.437	8.54
690.466	-5.46
690.496	-5.46
690.525	13.54
690.555	-0.46
690.584	1.54
690.613	-11.46
690.643	1.54
690.672	-8.46
690.702	1.54
690.731	-3.46
690.76	18.54
690.79	38.54
690.819	44.54
690.849	29.54
690.878	23.54
690.907	21.54
690.937	13.54
690.966	14.54
690.996	-0.46
691.025	-0.46
691.054	7.54
691.084	2.54
691.113	4.54
691.142	7.54
691.172	8.54
691.201	16.54
691.23	5.54
691.26	17.54
691.289	3.54
691.319	-23.46
691.348	-1.46
691.377	20.54
691.407	0.54
691.436	1.54
691.465	-3.46
691.495	-7.46
691.524	-7.46
691.553	-3.46
691.583	-10.46
691.612	-1.46
691.641	-2.46
691.67	-4.46
691.7	9.54
691.729	-8.46
691.758	4.54
691.788	-5.46
691.817	9.54
691.846	9.54
691.876	6.54
691.905	13.54
691.934	-11.46
691.963	34.54
691.993	9.54
692.022	-16.46
692.051	3.54
692.081	2.54
692.11	16.54
692.139	8.54
692.168	8.54
692.198	18.54
692.227	-10.46
692.256	-2.46
692.285	-4.46
692.315	-5.46
692.344	10.54
692.373	13.54
692.402	-10.46
692.432	-11.46
692.461	0.54
692.49	7.54
692.519	-4.46
692.548	0.54
692.578	12.54
692.607	-3.46
692.636	-5.46
692.665	8.54
692.694	3.54
692.724	5.54
692.753	-0.46
692.782	19.54
692.811	-13.46
692.84	0.54
692.87	1.54
692.899	8.54
692.928	-8.46
692.957	-11.46
692.986	0.54
693.016	22.54
693.045	13.54
693.074	6.54
693.103	1.54
693.132	3.54
693.161	9.54
693.191	8.54
693.22	-2.46
693.249	-3.46
693.278	-2.46
693.307	1.54
693.336	-8.46
693.365	-6.46
693.395	-7.46
693.424	4.54
693.453	8.54
693.482	-4.46
693.511	9.54
693.54	13.54
693.569	11.54
693.598	1.54
693.628	22.54
693.657	12.54
693.686	17.54
693.715	27.54
693.744	24.54
693.773	25.54
693.802	0.54
693.831	0.54
693.86	14.54
693.889	0.54
693.919	23.54
693.948	12.54
693.977	0.54
694.006	6.54
694.035	-5.46
694.064	-13.46
694.093	3.54
694.122	-8.46
694.151	-0.46
694.18	-0.46
694.209	19.54
694.238	6.54
694.267	3.54
694.296	3.54
694.325	22.54
694.354	19.54
694.383	5.54
694.412	-9.46
694.441	-8.46
694.471	8.54
694.5	-15.46
694.529	-7.46
694.558	12.54
694.587	0.54
694.616	0.54
694.645	5.54
694.674	18.54
694.703	-0.46
694.732	2.54
694.761	4.54
694.79	15.54
694.819	-9.46
694.848	-11.46
694.877	20.54
694.906	19.54
694.935	-6.46
694.963	22.54
694.992	7.54
695.021	-3.46
695.05	8.54
695.079	8.54
695.108	0.54
695.137	10.54
695.166	-8.46
695.195	0.54
695.224	7.54
695.253	21.54
695.282	16.54
695.311	-1.46
695.34	4.54
695.369	16.54
695.398	16.54
695.427	33.54
695.456	14.54
695.485	12.54
695.513	-1.46
695.542	-2.46
695.571	-0.46
695.6	25.54
695.629	13.54
695.658	-4.46
695.687	-5.46
695.716	-2.46
695.745	20.54
695.774	7.54
695.802	-18.46
695.831	4.54
695.86	12.54
695.889	15.54
695.918	8.54
695.947	-6.46
695.976	-5.46
696.005	-12.46
696.033	10.54
696.062	7.54
696.091	16.54
696.12	2.54
696.149	11.54
696.178	5.54
696.207	0.54
696.235	-7.46
696.264	1.54
696.293	-1.46
696.322	-5.46
696.351	3.54
696.38	-1.46
696.408	7.54
696.437	-3.46
696.466	14.54
696.495	28.54
696.524	24.54
696.553	17.54
696.581	-3.46
696.61	-2.46
696.639	8.54
696.668	13.54
696.697	6.54
696.725	5.54
696.754	5.54
696.783	-9.46
696.812	2.54
696.84	8.54
696.869	11.54
696.898	5.54
696.927	4.54
696.956	19.54
696.984	-8.46
697.013	4.54
697.042	-0.46
697.071	16.54
697.099	8.54
697.128	16.54
697.157	2.54
697.186	-13.46
697.214	8.54
697.243	2.54
697.272	-11.46
697.301	23.54
697.329	3.54
697.358	9.54
697.387	24.54
697.415	6.54
697.444	-3.46
697.473	6.54
697.502	8.54
697.53	4.54
697.559	10.54
697.588	19.54
697.616	8.54
697.645	-9.46
697.674	16.54
697.703	7.54
697.731	25.54
697.76	-1.46
697.789	-2.46
697.817	-12.46
697.846	12.54
697.875	3.54
697.903	18.54
697.932	19.54
697.961	10.54
697.989	17.54
698.018	-9.46
698.047	10.54
698.075	10.54
698.104	15.54
698.133	0.54
698.161	-16.46
698.19	-0.46
698.218	-19.46
698.247	19.54
698.276	-4.46
698.304	2.54
698.333	10.54
698.362	13.54
698.39	10.54
698.419	28.54
698.447	-4.46
698.476	4.54
698.505	12.54
698.533	10.54
698.562	2.54
698.591	-16.46
698.619	-3.46
698.648	18.54
698.676	8.54
698.705	9.54
698.733	-4.46
698.762	7.54
698.791	3.54
698.819	-1.46
698.848	-12.46
698.876	19.54
698.905	12.54
698.933	19.54
698.962	2.54
698.991	1.54
699.019	9.54
699.048	-8.46
699.076	5.54
699.105	-19.46
699.133	1.54
699.162	8.54
699.19	20.54
699.219	12.54
699.248	-1.46
699.276	10.54
699.305	-0.46
699.333	10.54
699.362	5.54
699.39	17.54
699.419	-15.46
699.447	4.54
699.476	10.54
699.504	3.54
699.533	-7.46
699.561	-9.46
699.59	7.54
699.618	17.54
699.647	7.54
699.675	-3.46
699.704	16.54
699.732	1.54
699.761	-9.46
699.789	0.54
699.818	15.54
699.846	-0.46
699.874	-7.46
699.903	-6.46
699.931	-8.46
699.96	-0.46
699.988	-12.46
700.017	-7.46
700.045	6.54
700.074	-3.46
700.102	-2.46
700.13	-1.46
700.159	14.54
700.187	13.54
700.216	-0.46
700.244	-4.46
700.273	-12.46
700.301	-2.46
700.329	2.54
700.358	17.54
700.386	-1.46
700.415	7.54
700.443	0.54
700.472	-1.46
700.5	6.54
700.528	21.54
700.557	4.54
700.585	-15.46
700.614	-2.46
700.642	9.54
700.67	-0.46
700.699	7.54
700.727	8.54
700.755	-1.46
700.784	-4.46
700.812	-4.46
700.841	13.54
700.869	-0.46
700.897	-14.46
700.926	3.54
700.954	1.54
700.982	-4.46
701.011	-8.46
701.039	9.54
701.067	7.54
701.096	10.54
701.124	-26.46
701.152	-3.46
701.181	7.54
701.209	-13.46
701.237	-1.46
701.266	-1.46
701.294	-4.46
701.322	1.54
701.351	10.54
701.379	-3.46
701.407	-3.46
701.435	17.54
701.464	25.54
701.492	17.54
701.52	-5.46
701.549	4.54
701.577	-17.46
701.605	-2.46
701.634	-10.46
701.662	11.54
701.69	-7.46
701.718	-0.46
701.747	7.54
701.775	4.54
701.803	-15.46
701.831	7.54
701.86	-4.46
701.888	0.54
701.916	-10.46
701.944	6.54
701.973	-10.46
702.001	-17.46
702.029	-3.46
702.057	-7.46
702.086	-6.46
702.114	-10.46
702.142	-10.46
702.17	-7.46
702.199	4.54
702.227	5.54
702.255	1.54
702.283	-0.46
702.311	19.54
702.34	-3.46
702.368	1.54
702.396	19.54
702.424	4.54
702.452	-6.46
702.481	-5.46
702.509	-4.46
702.537	-4.46
702.565	11.54
702.593	-7.46
702.621	0.54
702.65	9.54
702.678	15.54
702.706	12.54
702.734	-3.46
702.762	12.54
702.79	19.54
702.819	-2.46
702.847	4.54
702.875	9.54
702.903	7.54
702.931	-7.46
702.959	9.54
702.988	16.54
703.016	-16.46
703.044	-20.46
703.072	-7.46
703.1	-7.46
703.128	-8.46
703.156	5.54
703.184	1.54
703.212	5.54
703.241	0.54
703.269	-2.46
703.297	-4.46
703.325	3.54
703.353	-1.46
703.381	-3.46
703.409	15.54
703.437	1.54
703.465	10.54
703.493	-3.46
703.522	3.54
703.55	-2.46
703.578	-6.46
703.606	-2.46
703.634	5.54
703.662	-8.46
703.69	3.54
703.718	10.54
703.746	12.54
703.774	6.54
703.802	12.54
703.83	-17.46
703.858	-5.46
703.886	10.54
703.914	-0.46
703.942	18.54
703.97	3.54
703.998	-18.46
704.027	5.54
704.055	3.54
704.083	-0.46
704.111	-9.46
704.139	-0.46
704.167	-2.46
704.195	6.54
704.223	1.54
704.251	-8.46
704.279	5.54
704.307	5.54
704.335	-4.46
704.363	13.54
704.391	-4.46
704.419	-2.46
704.447	0.54
704.475	-3.46
704.503	-6.46
704.531	5.54
704.558	-3.46
704.586	9.54
704.614	4.54
704.642	10.54
704.67	-17.46
704.698	-16.46
704.726	16.54
704.754	-8.46
704.782	0.54
704.81	-6.46
704.838	12.54
704.866	1.54
704.894	-16.46
704.922	-23.46
704.95	10.54
704.978	3.54
705.006	-19.46
705.034	5.54
705.061	-15.46
705.089	-5.46
705.117	-17.46
705.145	-3.46
705.173	7.54
705.201	-8.46
705.229	7.54
705.257	7.54
705.285	2.54
705.313	0.54
705.34	-6.46
705.368	-14.46
705.396	9.54
705.424	3.54
705.452	-11.46
705.48	-6.46
705.508	-4.46
705.536	-0.46
705.563	-8.46
705.591	3.54
705.619	7.54
705.647	-13.46
705.675	-3.46
705.703	-5.46
705.731	-3.46
705.758	15.54
705.786	2.54
705.814	10.54
705.842	-12.46
705.87	6.54
705.898	23.54
705.925	-10.46
705.953	9.54
705.981	-11.46
706.009	-4.46
706.037	-2.46
706.065	-6.46
706.092	-6.46
706.12	-1.46
706.148	5.54
706.176	-7.46
706.204	-5.46
706.231	-0.46
706.259	-25.46
706.287	-14.46
706.315	16.54
706.342	5.54
706.37	1.54
706.398	12.54
706.426	-3.46
706.454	-3.46
706.481	-7.46
706.509	3.54
706.537	-2.46
706.565	6.54
706.592	7.54
706.62	-7.46
706.648	23.54
706.676	3.54
706.703	20.54
706.731	-4.46
706.759	-3.46
706.787	3.54
706.814	0.54
706.842	-0.46
706.87	2.54
706.897	-7.46
706.925	-11.46
706.953	15.54
706.981	16.54
707.008	10.54
707.036	7.54
707.064	3.54
707.091	-28.46
707.119	7.54
707.147	6.54
707.174	-18.46
707.202	10.54
707.23	-18.46
707.258	-0.46
707.285	-7.46
707.313	-12.46
707.341	-12.46
707.368	-15.46
707.396	-2.46
707.424	20.54
707.451	8.54
707.479	-2.46
707.507	5.54
707.534	-18.46
707.562	7.54
707.59	-12.46
707.617	-4.46
707.645	-2.46
707.672	0.54
707.7	2.54
707.728	-11.46
707.755	-3.46
707.783	3.54
707.811	4.54
707.838	-10.46
707.866	10.54
707.893	-3.46
707.921	-6.46
707.949	2.54
707.976	6.54
708.004	-2.46
708.031	-9.46
708.059	-10.46
708.087	-5.46
708.114	-10.46
708.142	-9.46
708.169	-7.46
708.197	-14.46
708.225	-8.46
708.252	-4.46
708.28	20.54
708.307	-8.46
708.335	-22.46
708.362	-1.46
708.39	-9.46
708.418	-16.46
708.445	-1.46
708.473	-4.46
708.5	-0.46
708.528	11.54
708.555	-14.46
708.583	2.54
708.61	-3.46
708.638	5.54
708.665	-10.46
708.693	8.54
708.72	5.54
708.748	-16.46
708.776	-14.46
708.803	19.54
708.831	20.54
708.858	3.54
708.886	-3.46
708.913	-5.46
708.941	-7.46
708.968	3.54
708.996	0.54
709.023	13.54
709.051	-10.46
709.078	3.54
709.105	4.54
709.133	-0.46
709.16	27.54
709.188	11.54
709.215	-0.46
709.243	3.54
709.27	-11.46
709.298	-15.46
709.325	-15.46
709.353	11.54
709.38	3.54
709.408	6.54
709.435	-5.46
709.462	-0.46
709.49	4.54
709.517	0.54
709.545	2.54
709.572	16.54
709.6	2.54
709.627	1.54
709.655	-6.46
709.682	-0.46
709.709	-0.46
709.737	2.54
709.764	-14.46
709.792	11.54
709.819	5.54
709.846	6.54
709.874	3.54
709.901	4.54
709.929	9.54
709.956	7.54
709.983	-12.46
710.011	5.54
710.038	-15.46
710.066	3.54
710.093	5.54
710.12	22.54
710.148	-1.46
710.175	7.54
710.202	-15.46
710.23	-10.46
710.257	-4.46
710.284	0.54
710.312	-8.46
710.339	8.54
710.366	15.54
710.394	-12.46
710.421	11.54
710.448	9.54
710.476	-24.46
710.503	-8.46
710.53	13.54
710.558	7.54
710.585	8.54
710.612	-5.46
710.64	-8.46
710.667	-11.46
710.694	-11.46
710.722	1.54
710.749	-4.46
710.776	-6.46
710.804	8.54
710.831	-5.46
710.858	9.54
710.885	10.54
710.913	1.54
710.94	7.54
710.967	-1.46
710.995	6.54
711.022	14.54
711.049	5.54
711.076	-17.46
711.104	-5.46
711.131	-16.46
711.158	-0.46
711.185	-3.46
711.213	-14.46
711.24	-1.46
711.267	1.54
711.294	-0.46
711.322	1.54
711.349	-8.46
711.376	4.54
711.403	18.54
711.431	0.54
711.458	-1.46
711.485	0.54
711.512	3.54
711.54	-0.46
711.567	-2.46
711.594	-12.46
711.621	1.54
711.648	4.54
711.676	8.54
711.703	2.54
711.73	-2.46
711.757	-9.46
711.784	3.54
711.812	1.54
711.839	1.54
711.866	-6.46
711.893	-20.46
711.92	5.54
711.947	0.54
711.975	7.54
712.002	-1.46
712.029	20.54
712.056	-0.46
712.083	10.54
712.11	-10.46
712.138	-9.46
712.165	7.54
712.192	-2.46
712.219	-12.46
712.246	-9.46
712.273	-8.46
712.3	-5.46
712.328	-8.46
712.355	0.54
712.382	-3.46
712.409	17.54
712.436	-19.46
712.463	11.54
712.49	35.54
712.517	7.54
712.544	-7.46
712.572	-11.46
712.599	-12.46
712.626	-0.46
712.653	-5.46
712.68	8.54
712.707	0.54
712.734	2.54
712.761	-4.46
712.788	-3.46
712.815	-2.46
712.842	13.54
712.87	6.54
712.897	-8.46
712.924	-17.46
712.951	-2.46
712.978	-0.46
713.005	10.54
713.032	9.54
713.059	-3.46
713.086	-8.46
713.113	-23.46
713.14	-10.46
713.167	-3.46
713.194	9.54
713.221	-0.46
713.248	19.54
713.275	1.54
713.302	-4.46
713.329	1.54
713.356	-3.46
713.383	5.54
713.41	11.54
713.437	-2.46
713.464	-7.46
713.491	11.54
713.518	-3.46
713.545	-11.46
713.572	-11.46
713.599	20.54
713.626	-5.46
713.653	21.54
713.68	5.54
713.707	-1.46
713.734	-6.46
713.761	-15.46
713.788	1.54
713.815	9.54
713.842	2.54
713.869	2.54
713.896	4.54
713.923	-9.46
713.95	3.54
713.977	-17.46
714.004	-6.46
714.031	-0.46
714.058	-11.46
714.085	-14.46
714.112	9.54
714.139	-1.46
714.165	-4.46
714.192	-3.46
714.219	-0.46
714.246	-4.46
714.273	8.54
714.3	-12.46
714.327	-2.46
714.354	26.54
714.381	-23.46
714.408	-1.46
714.435	-20.46
714.461	12.54
714.488	7.54
714.515	-10.46
714.542	-7.46
714.569	-8.46
714.596	-7.46
714.623	-2.46
714.65	-16.46
714.677	5.54
714.703	8.54
714.73	6.54
714.757	-1.46
714.784	-0.46
714.811	-7.46
714.838	1.54
714.865	-11.46
714.891	11.54
714.918	4.54
714.945	-18.46
714.972	-4.46
714.999	16.54
715.026	-9.46
715.052	25.54
715.079	-15.46
715.106	0.54
715.133	-0.46
715.16	2.54
715.187	-3.46
715.213	6.54
715.24	-12.46
715.267	8.54
715.294	3.54
715.321	2.54
715.347	0.54
715.374	4.54
715.401	-10.46
715.428	-0.46
715.455	10.54
715.481	-7.46
715.508	20.54
715.535	-10.46
715.562	12.54
715.588	4.54
715.615	-2.46
715.642	15.54
715.669	8.54
715.695	-14.46
715.722	-0.46
715.749	15.54
715.776	19.54
715.802	-2.46
715.829	-0.46
715.856	8.54
715.883	3.54
715.909	-1.46
715.936	-10.46
715.963	-2.46
715.99	-14.46
716.016	1.54
716.043	-16.46
716.07	-2.46
716.096	-8.46
716.123	-17.46
716.15	-1.46
716.177	13.54
716.203	0.54
716.23	-1.46
716.257	7.54
716.283	10.54
716.31	-7.46
716.337	9.54
716.363	5.54
716.39	15.54
716.417	21.54
716.443	3.54
716.47	15.54
716.497	3.54
716.523	-3.46
716.55	2.54
716.577	17.54
716.603	-15.46
716.63	4.54
716.657	13.54
716.683	-4.46
716.71	-3.46
716.737	0.54
716.763	1.54
716.79	-6.46
716.817	14.54
716.843	9.54
716.87	10.54
716.897	9.54
716.923	21.54
716.95	-9.46
716.976	1.54
717.003	-6.46
717.03	6.54
717.056	0.54
717.083	-4.46
717.109	9.54
717.136	9.54
717.163	-5.46
717.189	10.54
717.216	20.54
717.242	-7.46
717.269	1.54
717.296	9.54
717.322	9.54
717.349	14.54
717.375	5.54
717.402	2.54
717.428	-5.46
717.455	-3.46
717.481	21.54
717.508	17.54
717.535	0.54
717.561	-6.46
717.588	15.54
717.614	-6.46
717.641	8.54
717.667	-2.46
717.694	1.54
717.72	-8.46
717.747	-3.46
717.773	-10.46
717.8	5.54
717.826	-4.46
717.853	-0.46
717.88	6.54
717.906	12.54
717.933	6.54
717.959	11.54
717.986	-6.46
718.012	-4.46
718.039	16.54
718.065	4.54
718.092	4.54
718.118	-14.46
718.144	-4.46
718.171	3.54
718.197	17.54
718.224	2.54
718.25	7.54
718.277	20.54
718.303	11.54
718.33	2.54
718.356	-16.46
718.383	-16.46
718.409	1.54
718.436	-0.46
718.462	-10.46
718.489	-9.46
718.515	3.54
718.541	18.54
718.568	4.54
718.594	1.54
718.621	4.54
718.647	4.54
718.674	-0.46
718.7	1.54
718.726	-8.46
718.753	-11.46
718.779	7.54
718.806	-9.46
718.832	-16.46
718.858	4.54
718.885	-2.46
718.911	-6.46
718.938	12.54
718.964	-14.46
718.99	6.54
719.017	1.54
719.043	5.54
719.07	10.54
719.096	-13.46
719.122	-1.46
719.149	-8.46
719.175	-1.46
719.201	3.54
719.228	7.54
719.254	-5.46
719.281	-3.46
719.307	-13.46
719.333	-3.46
719.36	20.54
719.386	-5.46
719.412	-1.46
719.439	-11.46
719.465	-19.46
719.491	-5.46
719.518	4.54
719.544	0.54
719.57	4.54
719.597	-4.46
719.623	-10.46
719.649	3.54
719.675	1.54
719.702	12.54
719.728	3.54
719.754	-7.46
719.781	-7.46
719.807	3.54
719.833	2.54
719.86	-2.46
719.886	-1.46
719.912	3.54
719.938	-11.46
719.965	-2.46
719.991	3.54
720.017	3.54
720.044	-12.46
720.07	17.54
720.096	6.54
720.122	8.54
720.149	0.54
720.175	26.54
720.201	1.54
720.227	-7.46
720.254	1.54
720.28	-5.46
720.306	-3.46
720.332	-6.46
720.359	2.54
720.385	7.54
720.411	-7.46
720.437	-5.46
720.463	-0.46
720.49	7.54
720.516	-10.46
720.542	-10.46
720.568	-4.46
720.595	-6.46
720.621	14.54
720.647	16.54
720.673	21.54
720.699	-4.46
720.725	-5.46
720.752	-9.46
720.778	15.54
720.804	12.54
720.83	-5.46
720.856	15.54
720.883	3.54
720.909	1.54
720.935	6.54
720.961	-3.46
720.987	-0.46
721.013	9.54
721.04	-8.46
721.066	-9.46
721.092	-1.46
721.118	-7.46
721.144	-0.46
721.17	-14.46
721.196	1.54
721.223	-20.46
721.249	4.54
721.275	21.54
721.301	6.54
721.327	3.54
721.353	11.54
721.379	-9.46
721.405	16.54
721.432	4.54
721.458	-1.46
721.484	11.54
721.51	-16.46
721.536	8.54
721.562	10.54
721.588	-14.46
721.614	-5.46
721.64	-2.46
721.666	1.54
721.693	-24.46
721.719	-8.46
721.745	-6.46
721.771	-0.46
721.797	19.54
721.823	6.54
721.849	12.54
721.875	7.54
721.901	5.54
721.927	16.54
721.953	-2.46
721.979	10.54
722.005	16.54
722.031	3.54
722.057	1.54
722.083	18.54
722.109	11.54
722.135	6.54
722.161	0.54
722.187	-16.46
722.214	-24.46
722.24	7.54
722.266	-3.46
722.292	11.54
722.318	6.54
722.344	-4.46
722.37	4.54
722.396	8.54
722.422	-11.46
722.448	0.54
722.474	-18.46
722.5	16.54
722.526	6.54
722.552	-7.46
722.578	-4.46
722.603	21.54
722.629	-9.46
722.655	0.54
722.681	-5.46
722.707	14.54
722.733	-12.46
722.759	-4.46
722.785	13.54
722.811	-8.46
722.837	-4.46
722.863	17.54
722.889	27.54
722.915	-7.46
722.941	-1.46
722.967	10.54
722.993	7.54
723.019	6.54
723.045	3.54
723.071	-8.46
723.097	1.54
723.122	6.54
723.148	-3.46
723.174	-3.46
723.2	-1.46
723.226	-28.46
723.252	-7.46
723.278	1.54
723.304	-9.46
723.33	3.54
723.356	-5.46
723.381	-13.46
723.407	-16.46
723.433	3.54
723.459	-9.46
723.485	3.54
723.511	10.54
723.537	-0.46
723.563	-2.46
723.588	5.54
723.614	11.54
723.64	-4.46
723.666	13.54
723.692	0.54
723.718	-9.46
723.744	-7.46
723.769	-3.46
723.795	-6.46
723.821	1.54
723.847	-10.46
723.873	4.54
723.899	0.54
723.924	-15.46
723.95	1.54
723.976	-3.46
724.002	-8.46
724.028	-13.46
724.053	-19.46
724.079	-6.46
724.105	-8.46
724.131	-5.46
724.157	5.54
724.182	13.54
724.208	-1.46
724.234	-2.46
724.26	-3.46
724.286	6.54
724.311	-5.46
724.337	1.54
724.363	-6.46
724.389	6.54
724.415	2.54
724.44	15.54
724.466	12.54
724.492	2.54
724.518	-7.46
724.543	-19.46
724.569	-4.46
724.595	1.54
724.621	-6.46
724.646	0.54
724.672	5.54
724.698	-15.46
724.723	-3.46
724.749	9.54
724.775	21.54
724.801	3.54
724.826	-23.46
724.852	2.54
724.878	4.54
724.904	-22.46
724.929	-0.46
724.955	-3.46
724.981	0.54
725.006	4.54
725.032	-3.46
725.058	2.54
725.083	4.54
725.109	-3.46
725.135	11.54
725.161	-9.46
725.186	-26.46
725.212	-9.46
725.238	6.54
725.263	-3.46
725.289	-11.46
725.315	-10.46
725.34	-6.46
725.366	7.54
725.392	-6.46
725.417	-20.46
725.443	-3.46
725.468	-6.46
725.494	5.54
725.52	19.54
725.545	-4.46
725.571	-11.46
725.597	-1.46
725.622	3.54
725.648	-11.46
725.674	4.54
725.699	-8.46
725.725	12.54
725.75	27.54
725.776	-6.46
725.802	8.54
725.827	3.54
725.853	2.54
725.878	3.54
725.904	1.54
725.93	-15.46
725.955	-24.46
725.981	-11.46
726.006	-7.46
726.032	19.54
726.057	-0.46
726.083	-2.46
726.109	2.54
726.134	0.54
726.16	-3.46
726.185	-8.46
726.211	-3.46
726.236	1.54
726.262	-3.46
726.288	-7.46
726.313	-0.46
726.339	15.54
726.364	5.54
726.39	14.54
726.415	-3.46
726.441	3.54
726.466	-4.46
726.492	-12.46
726.517	-1.46
726.543	-4.46
726.568	-10.46
726.594	3.54
726.619	1.54
726.645	0.54
726.67	21.54
726.696	9.54
726.721	0.54
726.747	-10.46
726.772	6.54
726.798	1.54
726.823	5.54
726.849	2.54
726.874	-1.46
726.9	35.54
726.925	14.54
726.951	-10.46
726.976	13.54
727.002	-4.46
727.027	-13.46
727.053	12.54
727.078	-3.46
727.104	-15.46
727.129	-33.46
727.155	-2.46
727.18	7.54
727.205	-4.46
727.231	-2.46
727.256	13.54
727.282	12.54
727.307	18.54
727.333	-4.46
727.358	-1.46
727.383	-15.46
727.409	2.54
727.434	15.54
727.46	3.54
727.485	7.54
727.511	-7.46
727.536	-6.46
727.561	-12.46
727.587	-2.46
727.612	-3.46
727.637	16.54
727.663	0.54
727.688	-3.46
727.714	1.54
727.739	-5.46
727.764	-4.46
727.79	3.54
727.815	10.54
727.841	8.54
727.866	-3.46
727.891	-9.46
727.917	-15.46
727.942	-7.46
727.967	-0.46
727.993	-15.46
728.018	-1.46
728.043	2.54
728.069	-4.46
728.094	11.54
728.119	2.54
728.145	17.54
728.17	-11.46
728.195	4.54
728.221	15.54
728.246	-6.46
728.271	-14.46
728.297	2.54
728.322	11.54
728.347	8.54
728.373	-2.46
728.398	-4.46
728.423	-6.46
728.448	9.54
728.474	13.54
728.499	8.54
728.524	-14.46
728.55	-1.46
728.575	5.54
728.6	16.54
728.625	0.54
728.651	-7.46
728.676	9.54
728.701	1.54
728.727	-3.46
728.752	-10.46
728.777	9.54
728.802	1.54
728.828	13.54
728.853	7.54
728.878	-1.46
728.903	-10.46
728.929	-10.46
728.954	-7.46
728.979	7.54
729.004	-8.46
729.03	-7.46
729.055	9.54
729.08	-3.46
729.105	1.54
729.13	17.54
729.156	10.54
729.181	-3.46
729.206	-12.46
729.231	-21.46
729.256	-0.46
729.282	1.54
729.307	-8.46
729.332	-11.46
729.357	0.54
729.382	-3.46
729.408	4.54
729.433	1.54
729.458	7.54
729.483	2.54
729.508	19.54
729.533	2.54
729.559	4.54
729.584	-4.46
729.609	-7.46
729.634	16.54
729.659	14.54
729.684	-6.46
729.71	6.54
729.735	13.54
729.76	1.54
729.785	11.54
729.81	12.54
729.835	-12.46
729.86	-4.46
729.886	16.54
729.911	7.54
729.936	8.54
729.961	23.54
729.986	14.54
730.011	56.54
730.036	198.54
730.061	989.54
730.086	2672.54
730.112	3417.54
730.137	2791.54
730.162	2125.54
730.187	1630.54
730.212	1247.54
730.237	803.54
730.262	453.54
730.287	247.54
730.312	133.54
730.337	78.54
730.362	68.54
730.387	31.54
730.413	19.54
730.438	10.54
730.463	9.54
730.488	21.54
730.513	-3.46
730.538	12.54
730.563	25.54
730.588	29.54
730.613	6.54
730.638	15.54
730.663	5.54
730.688	12.54
730.713	6.54
730.738	18.54
730.763	5.54
730.788	-19.46
730.813	14.54
730.838	10.54
730.863	9.54
730.888	1.54
730.913	-5.46
730.938	-5.46
730.963	13.54
730.988	115.54
731.013	399.54
731.038	591.54
731.063	577.54
731.088	456.54
731.113	352.54
731.138	275.54
731.163	179.54
731.188	111.54
731.213	62.54
731.238	53.54
731.263	20.54
731.288	1.54
731.313	1.54
731.338	3.54
731.363	8.54
731.388	-2.46
731.413	7.54
731.438	20.54
731.463	4.54
731.487	4.54
731.512	4.54
731.537	-3.46
731.562	12.54
731.587	3.54
731.612	-5.46
731.637	-3.46
731.662	-8.46
731.687	-3.46
731.712	-18.46
731.737	2.54
731.762	-9.46
731.786	-6.46
731.811	-3.46
731.836	16.54
731.861	-3.46
731.886	2.54
731.911	15.54
731.936	7.54
731.961	8.54
731.986	0.54
732.01	15.54
732.035	-8.46
732.06	1.54
732.085	-10.46
732.11	-7.46
732.135	-9.46
732.16	-5.46
732.184	4.54
732.209	-2.46
732.234	-3.46
732.259	-6.46
732.284	-0.46
732.309	-6.46
732.334	-10.46
732.358	2.54
732.383	1.54
732.408	11.54
732.433	-9.46
732.458	-6.46
732.482	14.54
732.507	-3.46
732.532	8.54
732.557	20.54
732.582	14.54
732.607	27.54
732.631	59.54
732.656	72.54
732.681	143.54
732.706	337.54
732.73	447.54
732.755	394.54
732.78	304.54
732.805	244.54
732.83	167.54
732.854	136.54
732.879	93.54
732.904	39.54
732.929	19.54
732.953	11.54
732.978	16.54
733.003	-7.46
733.028	-11.46
733.052	3.54
733.077	3.54
733.102	8.54
733.127	-12.46
733.151	10.54
733.176	-7.46
733.201	2.54
733.226	-15.46
733.25	-3.46
733.275	-6.46
733.3	-4.46
733.324	6.54
733.349	12.54
733.374	11.54
733.399	-10.46
733.423	-1.46
733.448	-6.46
733.473	0.54
733.497	8.54
733.522	4.54
733.547	9.54
733.571	2.54
733.596	4.54
733.621	7.54
733.646	-4.46
733.67	-2.46
733.695	-4.46
733.72	-14.46
733.744	21.54
733.769	3.54
733.794	12.54
733.818	-9.46
733.843	-0.46
733.867	-5.46
733.892	-10.46
733.917	-10.46
733.941	-7.46
733.966	-12.46
733.991	12.54
734.015	13.54
734.04	4.54
734.065	-2.46
734.089	4.54
734.114	3.54
734.138	8.54
734.163	-7.46
734.188	9.54
734.212	14.54
734.237	8.54
734.261	15.54
734.286	-11.46
734.311	-3.46
734.335	-5.46
734.36	-2.46
734.384	-12.46
734.409	7.54
734.434	-8.46
734.458	3.54
734.483	9.54
734.507	-1.46
734.532	-5.46
734.556	7.54
734.581	-7.46
734.606	1.54
734.63	-8.46
734.655	-4.46
734.679	-2.46
734.704	13.54
734.728	9.54
734.753	-10.46
734.777	-3.46
734.802	4.54
734.826	7.54
734.851	-6.46
734.876	8.54
734.9	12.54
734.925	12.54
734.949	9.54
734.974	14.54
734.998	5.54
735.023	-22.46
735.047	-25.46
735.072	14.54
735.096	3.54
735.121	-10.46
735.145	-9.46
735.17	-2.46
735.194	14.54
735.219	-1.46
735.243	8.54
735.268	6.54
735.292	27.54
735.317	10.54
735.341	-4.46
735.365	-15.46
735.39	-0.46
735.414	7.54
735.439	7.54
735.463	-2.46
735.488	5.54
735.512	-4.46
735.537	-4.46
735.561	-14.46
735.586	-8.46
735.61	-1.46
735.634	-9.46
735.659	0.54
735.683	1.54
735.708	-3.46
735.732	-5.46
735.757	-16.46
735.781	-9.46
735.805	9.54
735.83	-12.46
735.854	-4.46
735.879	-4.46
735.903	9.54
735.927	3.54
735.952	2.54
735.976	-0.46
736.001	-12.46
736.025	-5.46
736.049	0.54
736.074	4.54
736.098	-7.46
736.123	21.54
736.147	9.54
736.171	-2.46
736.196	7.54
736.22	-4.46
736.244	-7.46
736.269	10.54
736.293	-13.46
736.317	-5.46
736.342	4.54
736.366	16.54
736.39	5.54
736.415	9.54
736.439	7.54
736.463	9.54
736.488	13.54
736.512	11.54
736.536	11.54
736.561	19.54
736.585	-8.46
736.609	16.54
736.634	5.54
736.658	-3.46
736.682	-14.46
736.707	-16.46
736.731	-12.46
736.755	8.54
736.78	21.54
736.804	18.54
736.828	6.54
736.852	-6.46
736.877	-2.46
736.901	8.54
736.925	-6.46
736.949	11.54
736.974	-12.46
736.998	-20.46
737.022	-0.46
737.047	12.54
737.071	-2.46
737.095	9.54
737.119	28.54
737.144	8.54
737.168	-3.46
737.192	1.54
737.216	14.54
737.241	11.54
737.265	-6.46
737.289	-6.46
737.313	-7.46
737.337	4.54
737.362	7.54
737.386	6.54
737.41	-3.46
737.434	0.54
737.459	8.54
737.483	8.54
737.507	12.54
737.531	18.54
737.555	16.54
737.58	2.54
737.604	5.54
737.628	-12.46
737.652	-14.46
737.676	-9.46
737.701	12.54
737.725	7.54
737.749	11.54
737.773	6.54
737.797	-7.46
737.821	-11.46
737.846	-3.46
737.87	19.54
737.894	-0.46
737.918	-0.46
737.942	7.54
737.966	10.54
737.99	3.54
738.015	0.54
738.039	7.54
738.063	5.54
738.087	4.54
738.111	8.54
738.135	13.54
738.159	1.54
738.184	1.54
738.208	0.54
738.232	8.54
738.256	11.54
738.28	-1.46
738.304	12.54
738.328	-2.46
738.352	7.54
738.376	-3.46
738.4	1.54
738.425	-0.46
738.449	7.54
738.473	14.54
738.497	0.54
738.521	20.54
738.545	-1.46
738.569	7.54
738.593	2.54
738.617	0.54
738.641	-3.46
738.665	-0.46
738.689	5.54
738.713	0.54
738.737	17.54
738.762	12.54
738.786	4.54
738.81	-12.46
738.834	16.54
738.858	-5.46
738.882	3.54
738.906	-0.46
738.93	-2.46
738.954	-3.46
738.978	8.54
739.002	-2.46
739.026	15.54
739.05	1.54
739.074	-6.46
739.098	13.54
739.122	12.54
739.146	9.54
739.17	29.54
739.194	-1.46
739.218	-26.46
739.242	3.54
739.266	-9.46
739.29	0.54
739.314	7.54
739.338	13.54
739.362	-8.46
739.386	-0.46
739.41	4.54
739.434	-14.46
739.458	14.54
739.482	6.54
739.506	3.54
739.53	-17.46
739.554	6.54
739.577	-10.46
739.601	3.54
739.625	-6.46
739.649	2.54
739.673	-3.46
739.697	13.54
739.721	-10.46
739.745	11.54
739.769	1.54
739.793	4.54
739.817	13.54
739.841	-1.46
739.865	-0.46
739.889	-24.46
739.912	7.54
739.936	-7.46
739.96	-5.46
739.984	1.54
740.008	-8.46
740.032	-10.46
740.056	-8.46
740.08	2.54
740.104	-5.46
740.127	9.54
740.151	2.54
740.175	2.54
740.199	17.54
740.223	40.54
740.247	6.54
740.271	-2.46
740.295	-8.46
740.318	-6.46
740.342	-1.46
740.366	4.54
740.39	1.54
740.414	-14.46
740.438	-0.46
740.461	8.54
740.485	11.54
740.509	-4.46
740.533	14.54
740.557	-5.46
740.581	12.54
740.604	-12.46
740.628	20.54
740.652	15.54
740.676	5.54
740.7	18.54
740.723	-22.46
740.747	1.54
740.771	-3.46
740.795	-7.46
740.819	9.54
740.842	6.54
740.866	19.54
740.89	10.54
740.914	-9.46
740.938	-11.46
740.961	4.54
740.985	-0.46
741.009	1.54
741.033	6.54
741.056	4.54
741.08	-8.46
741.104	-6.46
741.128	3.54
741.151	-1.46
741.175	-5.46
741.199	9.54
741.223	12.54
741.246	0.54
741.27	1.54
741.294	-2.46
741.318	-6.46
741.341	-2.46
741.365	0.54
741.389	10.54
741.413	12.54
741.436	8.54
741.46	16.54
741.484	18.54
741.507	3.54
741.531	27.54
741.555	17.54
741.579	11.54
741.602	21.54
741.626	8.54
741.65	8.54
741.673	14.54
741.697	-7.46
741.721	0.54
741.744	-10.46
741.768	-6.46
741.792	-6.46
741.815	1.54
741.839	16.54
741.863	15.54
741.886	27.54
741.91	16.54
741.934	-4.46
741.957	-13.46
741.981	11.54
742.005	9.54
742.028	-5.46
742.052	0.54
742.075	15.54
742.099	5.54
742.123	-4.46
742.146	-2.46
742.17	15.54
742.194	-2.46
742.217	-4.46
742.241	-14.46
742.264	-7.46
742.288	20.54
742.312	12.54
742.335	5.54
742.359	-5.46
742.382	11.54
742.406	11.54
742.43	-4.46
742.453	-0.46
742.477	-14.46
742.5	3.54
742.524	6.54
742.548	-5.46
742.571	2.54
742.595	-11.46
742.618	-3.46
742.642	-0.46
742.665	4.54
742.689	-13.46
742.712	0.54
742.736	-3.46
742.76	-9.46
742.783	-4.46
742.807	0.54
742.83	-1.46
742.854	-20.46
742.877	4.54
742.901	-1.46
742.924	-10.46
742.948	10.54
742.971	-0.46
742.995	4.54
743.018	-15.46
743.042	-16.46
743.065	3.54
743.089	-17.46
743.112	-4.46
743.136	-7.46
743.159	-2.46
743.183	-2.46
743.206	3.54
743.23	1.54
743.253	-0.46
743.277	13.54
743.3	-4.46
743.324	0.54
743.347	-12.46
743.371	15.54
743.394	4.54
743.418	13.54
743.441	-3.46
743.465	-4.46
743.488	-1.46
743.512	4.54
743.535	22.54
743.558	8.54
743.582	0.54
743.605	3.54
743.629	5.54
743.652	3.54
743.676	-6.46
743.699	1.54
743.723	10.54
743.746	18.54
743.769	9.54
743.793	0.54
743.816	3.54
743.84	5.54
743.863	-5.46
743.886	-0.46
743.91	9.54
743.933	-10.46
743.957	4.54
743.98	-1.46
744.003	15.54
744.027	1.54
744.05	-5.46
744.074	4.54
744.097	-5.46
744.12	5.54
744.144	-8.46
744.167	-1.46
744.19	0.54
744.214	-8.46
744.237	-3.46
744.26	5.54
744.284	-8.46
744.307	-9.46
744.331	-1.46
744.354	-8.46
744.377	-15.46
744.401	-9.46
744.424	-1.46
744.447	-8.46
744.471	-9.46
