Data from HighRes_mercury_15_13_11_07_2024_HR4C61891__42__15-14-27-386.txt Node

Date: Thu Nov 07 15:14:27 EST 2024
User: crc00042
Spectrometer: HR4C6189
Trigger mode: 4
Integration Time (sec): 1.000000E-1
Scans to average: 1
Electric dark correction enabled: true
Nonlinearity correction enabled: false
Boxcar width: 0
XAxis mode: Wavelengths
Number of Pixels in Spectrum: 3648
>>>>>Begin Spectral Data<<<<<
639.567	-46.54
639.602	-46.54
639.636	-46.54
639.67	-29.54
639.704	-24.54
639.738	-12.54
639.773	2.46
639.807	-6.54
639.841	8.46
639.875	11.46
639.909	12.46
639.943	-19.54
639.978	-11.54
640.012	4.46
640.046	19.46
640.08	18.46
640.114	-13.54
640.148	-13.54
640.182	0.46
640.217	5.46
640.251	10.46
640.285	14.46
640.319	-9.54
640.353	17.46
640.387	15.46
640.421	12.46
640.455	6.46
640.49	-3.54
640.524	4.46
640.558	24.46
640.592	7.46
640.626	8.46
640.66	1.46
640.694	-8.54
640.728	1.46
640.762	14.46
640.796	29.46
640.83	22.46
640.865	-17.54
640.899	2.46
640.933	7.46
640.967	-18.54
641.001	-7.54
641.035	1.46
641.069	-2.54
641.103	-6.54
641.137	4.46
641.171	-9.54
641.205	6.46
641.239	4.46
641.273	9.46
641.307	6.46
641.341	11.46
641.375	11.46
641.409	3.46
641.443	9.46
641.477	16.46
641.511	16.46
641.545	17.46
641.579	0.46
641.614	4.46
641.648	-0.54
641.682	5.46
641.716	26.46
641.75	4.46
641.784	1.46
641.818	4.46
641.852	4.46
641.886	-0.54
641.919	29.46
641.953	2.46
641.987	-12.54
642.021	13.46
642.055	3.46
642.089	18.46
642.123	5.46
642.157	2.46
642.191	-0.54
642.225	-0.54
642.259	-5.54
642.293	10.46
642.327	10.46
642.361	11.46
642.395	27.46
642.429	6.46
642.463	-0.54
642.497	18.46
642.531	14.46
642.565	-15.54
642.599	0.46
642.633	-7.54
642.666	14.46
642.7	15.46
642.734	11.46
642.768	-0.54
642.802	2.46
642.836	11.46
642.87	-0.54
642.904	5.46
642.938	23.46
642.972	13.46
643.005	13.46
643.039	22.46
643.073	0.46
643.107	24.46
643.141	29.46
643.175	18.46
643.209	9.46
643.243	18.46
643.276	23.46
643.31	21.46
643.344	-9.54
643.378	4.46
643.412	-0.54
643.446	11.46
643.48	-16.54
643.513	4.46
643.547	10.46
643.581	2.46
643.615	6.46
643.649	15.46
643.683	11.46
643.716	-2.54
643.75	6.46
643.784	-9.54
643.818	20.46
643.852	-9.54
643.886	10.46
643.919	14.46
643.953	10.46
643.987	-14.54
644.021	12.46
644.055	7.46
644.088	-2.54
644.122	-12.54
644.156	4.46
644.19	5.46
644.224	-3.54
644.257	4.46
644.291	14.46
644.325	2.46
644.359	12.46
644.392	35.46
644.426	25.46
644.46	25.46
644.494	4.46
644.527	10.46
644.561	11.46
644.595	4.46
644.629	-4.54
644.662	-14.54
644.696	25.46
644.73	11.46
644.764	18.46
644.797	-6.54
644.831	18.46
644.865	9.46
644.899	14.46
644.932	21.46
644.966	-0.54
645	18.46
645.033	6.46
645.067	-23.54
645.101	5.46
645.135	-1.54
645.168	0.46
645.202	16.46
645.236	15.46
645.269	23.46
645.303	1.46
645.337	-8.54
645.37	-6.54
645.404	1.46
645.438	-2.54
645.471	4.46
645.505	12.46
645.539	11.46
645.572	-8.54
645.606	6.46
645.64	24.46
645.673	16.46
645.707	18.46
645.741	8.46
645.774	5.46
645.808	18.46
645.842	1.46
645.875	9.46
645.909	2.46
645.943	-5.54
645.976	8.46
646.01	9.46
646.043	7.46
646.077	16.46
646.111	26.46
646.144	15.46
646.178	14.46
646.212	7.46
646.245	-10.54
646.279	0.46
646.312	8.46
646.346	27.46
646.38	12.46
646.413	10.46
646.447	20.46
646.48	-3.54
646.514	10.46
646.547	-2.54
646.581	12.46
646.615	-0.54
646.648	1.46
646.682	1.46
646.715	-8.54
646.749	17.46
646.782	5.46
646.816	-14.54
646.85	9.46
646.883	10.46
646.917	15.46
646.95	4.46
646.984	12.46
647.017	-1.54
647.051	-10.54
647.084	9.46
647.118	-5.54
647.151	-2.54
647.185	7.46
647.218	14.46
647.252	-3.54
647.285	-2.54
647.319	-0.54
647.353	10.46
647.386	18.46
647.42	5.46
647.453	16.46
647.487	3.46
647.52	7.46
647.553	17.46
647.587	18.46
647.62	-1.54
647.654	4.46
647.687	5.46
647.721	12.46
647.754	14.46
647.788	11.46
647.821	9.46
647.855	19.46
647.888	31.46
647.922	33.46
647.955	21.46
647.989	1.46
648.022	3.46
648.055	22.46
648.089	-1.54
648.122	27.46
648.156	10.46
648.189	6.46
648.223	13.46
648.256	23.46
648.29	21.46
648.323	4.46
648.356	10.46
648.39	5.46
648.423	5.46
648.457	14.46
648.49	22.46
648.523	11.46
648.557	-7.54
648.59	-4.54
648.624	9.46
648.657	-6.54
648.69	22.46
648.724	11.46
648.757	21.46
648.791	20.46
648.824	12.46
648.857	34.46
648.891	0.46
648.924	0.46
648.957	7.46
648.991	-9.54
649.024	7.46
649.057	-1.54
649.091	6.46
649.124	15.46
649.158	13.46
649.191	20.46
649.224	2.46
649.258	15.46
649.291	9.46
649.324	0.46
649.358	16.46
649.391	14.46
649.424	11.46
649.458	-13.54
649.491	6.46
649.524	5.46
649.557	6.46
649.591	-2.54
649.624	9.46
649.657	-9.54
649.691	12.46
649.724	9.46
649.757	8.46
649.791	2.46
649.824	22.46
649.857	25.46
649.89	18.46
649.924	0.46
649.957	6.46
649.99	-16.54
650.023	-0.54
650.057	-10.54
650.09	5.46
650.123	20.46
650.157	20.46
650.19	6.46
650.223	-2.54
650.256	-7.54
650.29	-9.54
650.323	1.46
650.356	16.46
650.389	1.46
650.423	1.46
650.456	6.46
650.489	10.46
650.522	9.46
650.555	22.46
650.589	17.46
650.622	11.46
650.655	13.46
650.688	3.46
650.721	-2.54
650.755	6.46
650.788	15.46
650.821	-2.54
650.854	4.46
650.887	-0.54
650.921	1.46
650.954	6.46
650.987	4.46
651.02	8.46
651.053	-7.54
651.087	-8.54
651.12	34.46
651.153	10.46
651.186	-2.54
651.219	-5.54
651.252	10.46
651.286	18.46
651.319	-4.54
651.352	4.46
651.385	12.46
651.418	13.46
651.451	24.46
651.484	11.46
651.518	-4.54
651.551	23.46
651.584	3.46
651.617	24.46
651.65	11.46
651.683	30.46
651.716	3.46
651.749	-13.54
651.783	3.46
651.816	-8.54
651.849	6.46
651.882	9.46
651.915	5.46
651.948	7.46
651.981	-12.54
652.014	-2.54
652.047	-10.54
652.08	3.46
652.114	35.46
652.147	4.46
652.18	-3.54
652.213	30.46
652.246	-2.54
652.279	-0.54
652.312	17.46
652.345	6.46
652.378	18.46
652.411	40.46
652.444	7.46
652.477	9.46
652.51	4.46
652.543	-8.54
652.576	3.46
652.609	-9.54
652.642	-0.54
652.675	9.46
652.709	4.46
652.742	14.46
652.775	0.46
652.808	12.46
652.841	3.46
652.874	3.46
652.907	12.46
652.94	-16.54
652.973	-1.54
653.006	-6.54
653.039	2.46
653.072	6.46
653.105	0.46
653.138	-0.54
653.171	-4.54
653.204	-9.54
653.237	4.46
653.27	-4.54
653.303	16.46
653.336	9.46
653.368	5.46
653.401	0.46
653.434	11.46
653.467	22.46
653.5	-15.54
653.533	-6.54
653.566	2.46
653.599	8.46
653.632	15.46
653.665	0.46
653.698	-3.54
653.731	12.46
653.764	15.46
653.797	-4.54
653.83	18.46
653.863	6.46
653.896	3.46
653.929	-9.54
653.961	16.46
653.994	-4.54
654.027	0.46
654.06	10.46
654.093	23.46
654.126	2.46
654.159	-6.54
654.192	-5.54
654.225	-6.54
654.258	-2.54
654.29	9.46
654.323	11.46
654.356	-2.54
654.389	2.46
654.422	-4.54
654.455	4.46
654.488	2.46
654.521	8.46
654.553	-6.54
654.586	-5.54
654.619	3.46
654.652	3.46
654.685	20.46
654.718	18.46
654.751	23.46
654.783	13.46
654.816	22.46
654.849	3.46
654.882	-10.54
654.915	-13.54
654.948	-8.54
654.98	-11.54
655.013	-16.54
655.046	0.46
655.079	-4.54
655.112	3.46
655.144	-3.54
655.177	-0.54
655.21	13.46
655.243	13.46
655.276	6.46
655.308	0.46
655.341	5.46
655.374	10.46
655.407	0.46
655.44	-5.54
655.472	13.46
655.505	16.46
655.538	-3.54
655.571	15.46
655.603	4.46
655.636	-3.54
655.669	7.46
655.702	10.46
655.734	-1.54
655.767	5.46
655.8	7.46
655.833	14.46
655.865	3.46
655.898	-1.54
655.931	8.46
655.964	8.46
655.996	15.46
656.029	9.46
656.062	1.46
656.095	2.46
656.127	1.46
656.16	5.46
656.193	3.46
656.225	3.46
656.258	6.46
656.291	-3.54
656.324	10.46
656.356	11.46
656.389	6.46
656.422	10.46
656.454	-18.54
656.487	2.46
656.52	18.46
656.552	6.46
656.585	3.46
656.618	8.46
656.65	9.46
656.683	7.46
656.716	3.46
656.748	4.46
656.781	1.46
656.814	8.46
656.846	12.46
656.879	4.46
656.912	4.46
656.944	-9.54
656.977	9.46
657.01	6.46
657.042	21.46
657.075	17.46
657.108	-2.54
657.14	9.46
657.173	11.46
657.205	21.46
657.238	5.46
657.271	25.46
657.303	-7.54
657.336	9.46
657.369	6.46
657.401	7.46
657.434	2.46
657.466	4.46
657.499	7.46
657.532	8.46
657.564	18.46
657.597	-2.54
657.629	20.46
657.662	16.46
657.694	7.46
657.727	4.46
657.76	30.46
657.792	2.46
657.825	6.46
657.857	9.46
657.89	12.46
657.922	15.46
657.955	2.46
657.987	10.46
658.02	19.46
658.053	7.46
658.085	11.46
658.118	10.46
658.15	19.46
658.183	29.46
658.215	7.46
658.248	4.46
658.28	7.46
658.313	23.46
658.345	14.46
658.378	13.46
658.41	5.46
658.443	9.46
658.475	14.46
658.508	7.46
658.54	9.46
658.573	-7.54
658.605	8.46
658.638	2.46
658.67	6.46
658.703	-0.54
658.735	7.46
658.768	-0.54
658.8	-9.54
658.833	25.46
658.865	-1.54
658.898	3.46
658.93	1.46
658.963	-4.54
658.995	-2.54
659.028	21.46
659.06	-0.54
659.092	-16.54
659.125	-7.54
659.157	17.46
659.19	12.46
659.222	6.46
659.255	20.46
659.287	1.46
659.32	-4.54
659.352	6.46
659.384	11.46
659.417	2.46
659.449	19.46
659.482	18.46
659.514	-11.54
659.546	-0.54
659.579	9.46
659.611	7.46
659.644	6.46
659.676	4.46
659.708	8.46
659.741	5.46
659.773	4.46
659.806	18.46
659.838	3.46
659.87	13.46
659.903	-7.54
659.935	16.46
659.967	21.46
660	13.46
660.032	-18.54
660.065	20.46
660.097	10.46
660.129	4.46
660.162	3.46
660.194	5.46
660.226	17.46
660.259	23.46
660.291	27.46
660.323	-2.54
660.356	9.46
660.388	-9.54
660.42	10.46
660.453	15.46
660.485	2.46
660.517	20.46
660.55	20.46
660.582	2.46
660.614	3.46
660.647	7.46
660.679	-9.54
660.711	7.46
660.743	-3.54
660.776	-0.54
660.808	2.46
660.84	6.46
660.873	5.46
660.905	11.46
660.937	15.46
660.969	4.46
661.002	13.46
661.034	24.46
661.066	-13.54
661.099	8.46
661.131	15.46
661.163	5.46
661.195	1.46
661.228	22.46
661.26	1.46
661.292	-2.54
661.324	21.46
661.357	12.46
661.389	8.46
661.421	13.46
661.453	13.46
661.485	15.46
661.518	-7.54
661.55	-1.54
661.582	-15.54
661.614	-0.54
661.647	0.46
661.679	8.46
661.711	12.46
661.743	-3.54
661.775	12.46
661.808	22.46
661.84	-1.54
661.872	6.46
661.904	13.46
661.936	14.46
661.969	2.46
662.001	4.46
662.033	15.46
662.065	6.46
662.097	6.46
662.129	14.46
662.162	11.46
662.194	0.46
662.226	-1.54
662.258	8.46
662.29	-3.54
662.322	-6.54
662.355	-7.54
662.387	21.46
662.419	-2.54
662.451	11.46
662.483	13.46
662.515	6.46
662.547	13.46
662.58	3.46
662.612	1.46
662.644	-24.54
662.676	4.46
662.708	20.46
662.74	5.46
662.772	-1.54
662.804	-0.54
662.836	-1.54
662.869	-6.54
662.901	15.46
662.933	8.46
662.965	15.46
662.997	19.46
663.029	8.46
663.061	0.46
663.093	-10.54
663.125	20.46
663.157	12.46
663.189	7.46
663.221	4.46
663.254	-5.54
663.286	17.46
663.318	-9.54
663.35	4.46
663.382	13.46
663.414	12.46
663.446	11.46
663.478	-12.54
663.51	26.46
663.542	1.46
663.574	14.46
663.606	2.46
663.638	-5.54
663.67	6.46
663.702	11.46
663.734	6.46
663.766	1.46
663.798	-7.54
663.83	5.46
663.862	7.46
663.894	7.46
663.926	-1.54
663.958	12.46
663.99	6.46
664.022	7.46
664.054	9.46
664.086	-2.54
664.118	-5.54
664.15	-0.54
664.182	10.46
664.214	-2.54
664.246	19.46
664.278	10.46
664.31	19.46
664.342	10.46
664.374	7.46
664.406	15.46
664.438	7.46
664.47	9.46
664.502	-8.54
664.534	3.46
664.566	-0.54
664.598	25.46
664.63	-6.54
664.662	10.46
664.693	1.46
664.725	-5.54
664.757	4.46
664.789	-13.54
664.821	21.46
664.853	21.46
664.885	4.46
664.917	6.46
664.949	33.46
664.981	14.46
665.013	1.46
665.045	-12.54
665.076	-3.54
665.108	13.46
665.14	-4.54
665.172	0.46
665.204	4.46
665.236	-1.54
665.268	17.46
665.3	6.46
665.331	-5.54
665.363	22.46
665.395	5.46
665.427	-1.54
665.459	6.46
665.491	3.46
665.523	23.46
665.555	1.46
665.586	10.46
665.618	-2.54
665.65	-2.54
665.682	11.46
665.714	4.46
665.746	-1.54
665.777	-8.54
665.809	-8.54
665.841	-2.54
665.873	5.46
665.905	30.46
665.937	28.46
665.968	2.46
666	9.46
666.032	11.46
666.064	8.46
666.096	-7.54
666.127	17.46
666.159	19.46
666.191	0.46
666.223	6.46
666.255	14.46
666.286	2.46
666.318	-9.54
666.35	30.46
666.382	7.46
666.413	-5.54
666.445	2.46
666.477	-1.54
666.509	2.46
666.54	16.46
666.572	-1.54
666.604	-2.54
666.636	2.46
666.667	13.46
666.699	26.46
666.731	8.46
666.763	-7.54
666.794	-5.54
666.826	7.46
666.858	-1.54
666.89	20.46
666.921	17.46
666.953	6.46
666.985	7.46
667.017	26.46
667.048	5.46
667.08	2.46
667.112	-9.54
667.143	-5.54
667.175	7.46
667.207	-0.54
667.238	5.46
667.27	9.46
667.302	1.46
667.334	2.46
667.365	44.46
667.397	9.46
667.429	-5.54
667.46	5.46
667.492	14.46
667.524	6.46
667.555	7.46
667.587	6.46
667.619	6.46
667.65	3.46
667.682	10.46
667.714	17.46
667.745	7.46
667.777	21.46
667.808	27.46
667.84	22.46
667.872	12.46
667.903	9.46
667.935	9.46
667.967	14.46
667.998	12.46
668.03	16.46
668.061	-4.54
668.093	10.46
668.125	9.46
668.156	5.46
668.188	1.46
668.22	-3.54
668.251	27.46
668.283	11.46
668.314	22.46
668.346	-16.54
668.377	24.46
668.409	11.46
668.441	25.46
668.472	20.46
668.504	11.46
668.535	3.46
668.567	16.46
668.599	7.46
668.63	5.46
668.662	-0.54
668.693	19.46
668.725	11.46
668.756	11.46
668.788	17.46
668.819	3.46
668.851	2.46
668.882	6.46
668.914	0.46
668.946	11.46
668.977	2.46
669.009	9.46
669.04	-13.54
669.072	-2.54
669.103	1.46
669.135	5.46
669.166	6.46
669.198	10.46
669.229	-0.54
669.261	5.46
669.292	-1.54
669.324	5.46
669.355	19.46
669.387	-13.54
669.418	10.46
669.45	-11.54
669.481	14.46
669.513	10.46
669.544	6.46
669.576	2.46
669.607	21.46
669.639	27.46
669.67	-0.54
669.701	12.46
669.733	-5.54
669.764	8.46
669.796	8.46
669.827	11.46
669.859	-3.54
669.89	3.46
669.922	17.46
669.953	-4.54
669.985	-11.54
670.016	24.46
670.047	6.46
670.079	8.46
670.11	18.46
670.142	-1.54
670.173	11.46
670.204	-0.54
670.236	9.46
670.267	-7.54
670.299	3.46
670.33	7.46
670.362	10.46
670.393	-6.54
670.424	10.46
670.456	1.46
670.487	-4.54
670.518	7.46
670.55	13.46
670.581	-3.54
670.613	2.46
670.644	-15.54
670.675	-6.54
670.707	8.46
670.738	6.46
670.769	-0.54
670.801	-9.54
670.832	3.46
670.864	-8.54
670.895	-0.54
670.926	12.46
670.958	0.46
670.989	8.46
671.02	-2.54
671.052	5.46
671.083	3.46
671.114	4.46
671.146	6.46
671.177	2.46
671.208	-4.54
671.24	9.46
671.271	-10.54
671.302	17.46
671.333	-0.54
671.365	-6.54
671.396	-4.54
671.427	9.46
671.459	3.46
671.49	22.46
671.521	9.46
671.553	7.46
671.584	-0.54
671.615	1.46
671.646	4.46
671.678	4.46
671.709	-11.54
671.74	-14.54
671.771	-8.54
671.803	-0.54
671.834	4.46
671.865	14.46
671.896	17.46
671.928	3.46
671.959	3.46
671.99	7.46
672.021	9.46
672.053	1.46
672.084	18.46
672.115	18.46
672.146	-2.54
672.178	-5.54
672.209	6.46
672.24	-8.54
672.271	8.46
672.303	6.46
672.334	4.46
672.365	10.46
672.396	2.46
672.427	13.46
672.459	20.46
672.49	17.46
672.521	5.46
672.552	12.46
672.583	6.46
672.615	6.46
672.646	16.46
672.677	5.46
672.708	-19.54
672.739	4.46
672.77	10.46
672.802	2.46
672.833	-5.54
672.864	7.46
672.895	-2.54
672.926	1.46
672.957	-0.54
672.989	6.46
673.02	7.46
673.051	13.46
673.082	20.46
673.113	11.46
673.144	10.46
673.175	8.46
673.206	-0.54
673.238	-0.54
673.269	11.46
673.3	15.46
673.331	9.46
673.362	13.46
673.393	-6.54
673.424	16.46
673.455	19.46
673.487	1.46
673.518	20.46
673.549	-0.54
673.58	-16.54
673.611	0.46
673.642	1.46
673.673	-19.54
673.704	-7.54
673.735	6.46
673.766	10.46
673.797	-0.54
673.828	-1.54
673.86	-8.54
673.891	-15.54
673.922	-27.54
673.953	-2.54
673.984	-2.54
674.015	9.46
674.046	4.46
674.077	15.46
674.108	-10.54
674.139	5.46
674.17	-2.54
674.201	-9.54
674.232	14.46
674.263	-9.54
674.294	-9.54
674.325	6.46
674.356	0.46
674.387	-3.54
674.418	22.46
674.449	-10.54
674.48	3.46
674.511	7.46
674.542	9.46
674.573	-12.54
674.604	18.46
674.635	5.46
674.666	14.46
674.697	-8.54
674.728	3.46
674.759	1.46
674.79	21.46
674.821	-1.54
674.852	7.46
674.883	-10.54
674.914	9.46
674.945	15.46
674.976	16.46
675.007	4.46
675.038	-5.54
675.069	-6.54
675.1	2.46
675.131	3.46
675.162	-9.54
675.193	-13.54
675.224	5.46
675.254	-9.54
675.285	3.46
675.316	10.46
675.347	5.46
675.378	-4.54
675.409	-2.54
675.44	3.46
675.471	-2.54
675.502	7.46
675.533	6.46
675.564	4.46
675.595	13.46
675.625	28.46
675.656	3.46
675.687	-3.54
675.718	-6.54
675.749	12.46
675.78	-0.54
675.811	8.46
675.842	7.46
675.873	8.46
675.903	10.46
675.934	5.46
675.965	0.46
675.996	-13.54
676.027	2.46
676.058	-13.54
676.089	-3.54
676.119	-0.54
676.15	2.46
676.181	-9.54
676.212	6.46
676.243	5.46
676.274	-9.54
676.304	11.46
676.335	-3.54
676.366	5.46
676.397	-1.54
676.428	5.46
676.459	7.46
676.489	22.46
676.52	14.46
676.551	8.46
676.582	13.46
676.613	17.46
676.643	-2.54
676.674	11.46
676.705	11.46
676.736	15.46
676.767	13.46
676.797	10.46
676.828	12.46
676.859	2.46
676.89	10.46
676.92	20.46
676.951	2.46
676.982	3.46
677.013	-2.54
677.044	20.46
677.074	38.46
677.105	-15.54
677.136	12.46
677.167	11.46
677.197	20.46
677.228	2.46
677.259	6.46
677.289	1.46
677.32	-7.54
677.351	-1.54
677.382	-9.54
677.412	-12.54
677.443	8.46
677.474	3.46
677.505	4.46
677.535	2.46
677.566	8.46
677.597	-20.54
677.627	0.46
677.658	5.46
677.689	2.46
677.72	4.46
677.75	4.46
677.781	12.46
677.812	7.46
677.842	4.46
677.873	7.46
677.904	6.46
677.934	3.46
677.965	12.46
677.996	-23.54
678.026	10.46
678.057	11.46
678.088	4.46
678.118	0.46
678.149	-5.54
678.18	-1.54
678.21	4.46
678.241	0.46
678.272	7.46
678.302	21.46
678.333	15.46
678.363	12.46
678.394	13.46
678.425	4.46
678.455	8.46
678.486	22.46
678.517	13.46
678.547	2.46
678.578	-4.54
678.608	10.46
678.639	13.46
678.67	7.46
678.7	-13.54
678.731	-7.54
678.761	4.46
678.792	10.46
678.823	4.46
678.853	2.46
678.884	-6.54
678.914	3.46
678.945	5.46
678.975	-6.54
679.006	16.46
679.037	-1.54
679.067	8.46
679.098	5.46
679.128	-1.54
679.159	8.46
679.189	18.46
679.22	3.46
679.25	9.46
679.281	-3.54
679.312	14.46
679.342	17.46
679.373	18.46
679.403	7.46
679.434	14.46
679.464	5.46
679.495	1.46
679.525	5.46
679.556	15.46
679.586	18.46
679.617	9.46
679.647	5.46
679.678	-2.54
679.708	-4.54
679.739	7.46
679.769	13.46
679.8	8.46
679.83	9.46
679.861	15.46
679.891	13.46
679.922	-9.54
679.952	14.46
679.983	6.46
680.013	17.46
680.044	7.46
680.074	29.46
680.105	22.46
680.135	9.46
680.165	25.46
680.196	15.46
680.226	20.46
680.257	30.46
680.287	7.46
680.318	1.46
680.348	-15.54
680.379	17.46
680.409	-4.54
680.439	-2.54
680.47	-2.54
680.5	-12.54
680.531	7.46
680.561	11.46
680.592	11.46
680.622	17.46
680.652	6.46
680.683	12.46
680.713	-3.54
680.744	0.46
680.774	-7.54
680.804	11.46
680.835	3.46
680.865	-8.54
680.896	19.46
680.926	15.46
680.956	8.46
680.987	5.46
681.017	-5.54
681.047	9.46
681.078	-9.54
681.108	12.46
681.139	3.46
681.169	6.46
681.199	13.46
681.23	22.46
681.26	5.46
681.29	5.46
681.321	-14.54
681.351	0.46
681.381	5.46
681.412	11.46
681.442	-6.54
681.472	11.46
681.503	6.46
681.533	2.46
681.563	2.46
681.594	-0.54
681.624	1.46
681.654	-5.54
681.685	10.46
681.715	-7.54
681.745	9.46
681.775	6.46
681.806	4.46
681.836	2.46
681.866	5.46
681.897	2.46
681.927	-14.54
681.957	-3.54
681.987	6.46
682.018	8.46
682.048	9.46
682.078	-8.54
682.109	25.46
682.139	15.46
682.169	18.46
682.199	-0.54
682.23	-4.54
682.26	11.46
682.29	-6.54
682.32	9.46
682.351	8.46
682.381	-18.54
682.411	-13.54
682.441	20.46
682.472	9.46
682.502	-4.54
682.532	1.46
682.562	4.46
682.592	3.46
682.623	10.46
682.653	-0.54
682.683	-6.54
682.713	12.46
682.743	3.46
682.774	-5.54
682.804	22.46
682.834	14.46
682.864	11.46
682.894	10.46
682.925	-5.54
682.955	6.46
682.985	-9.54
683.015	7.46
683.045	14.46
683.076	4.46
683.106	6.46
683.136	-1.54
683.166	-11.54
683.196	6.46
683.226	0.46
683.257	-11.54
683.287	-4.54
683.317	-6.54
683.347	7.46
683.377	4.46
683.407	2.46
683.437	4.46
683.468	14.46
683.498	6.46
683.528	6.46
683.558	7.46
683.588	14.46
683.618	1.46
683.648	1.46
683.678	22.46
683.708	18.46
683.739	-1.54
683.769	4.46
683.799	1.46
683.829	8.46
683.859	24.46
683.889	23.46
683.919	0.46
683.949	1.46
683.979	5.46
684.009	-1.54
684.039	-0.54
684.07	1.46
684.1	19.46
684.13	4.46
684.16	0.46
684.19	-17.54
684.22	-6.54
684.25	3.46
684.28	8.46
684.31	37.46
684.34	1.46
684.37	-1.54
684.4	6.46
684.43	-3.54
684.46	6.46
684.49	10.46
684.52	14.46
684.55	26.46
684.58	7.46
684.61	6.46
684.64	29.46
684.67	25.46
684.7	12.46
684.73	14.46
684.76	13.46
684.79	14.46
684.82	-0.54
684.85	-7.54
684.88	3.46
684.91	9.46
684.94	10.46
684.97	-3.54
685	-14.54
685.03	-12.54
685.06	9.46
685.09	3.46
685.12	29.46
685.15	-0.54
685.18	4.46
685.21	20.46
685.24	14.46
685.27	7.46
685.3	13.46
685.33	15.46
685.36	19.46
685.39	2.46
685.42	-0.54
685.45	10.46
685.48	4.46
685.51	8.46
685.54	13.46
685.569	12.46
685.599	15.46
685.629	14.46
685.659	19.46
685.689	-6.54
685.719	13.46
685.749	4.46
685.779	2.46
685.809	14.46
685.839	-3.54
685.869	11.46
685.898	32.46
685.928	11.46
685.958	16.46
685.988	24.46
686.018	4.46
686.048	9.46
686.078	12.46
686.108	19.46
686.137	3.46
686.167	12.46
686.197	-12.54
686.227	5.46
686.257	22.46
686.287	15.46
686.317	6.46
686.346	0.46
686.376	-14.54
686.406	2.46
686.436	1.46
686.466	-6.54
686.496	3.46
686.525	10.46
686.555	1.46
686.585	2.46
686.615	8.46
686.645	11.46
686.675	8.46
686.704	23.46
686.734	19.46
686.764	-4.54
686.794	3.46
686.824	-12.54
686.853	1.46
686.883	14.46
686.913	12.46
686.943	5.46
686.973	13.46
687.002	8.46
687.032	12.46
687.062	-3.54
687.092	18.46
687.121	-12.54
687.151	2.46
687.181	7.46
687.211	30.46
687.24	-2.54
687.27	-3.54
687.3	6.46
687.33	-7.54
687.359	-8.54
687.389	13.46
687.419	6.46
687.449	20.46
687.478	31.46
687.508	16.46
687.538	9.46
687.568	4.46
687.597	-0.54
687.627	2.46
687.657	6.46
687.686	6.46
687.716	26.46
687.746	-3.54
687.776	-6.54
687.805	6.46
687.835	9.46
687.865	22.46
687.894	6.46
687.924	-8.54
687.954	-1.54
687.983	3.46
688.013	30.46
688.043	25.46
688.072	14.46
688.102	-2.54
688.132	2.46
688.161	1.46
688.191	17.46
688.221	22.46
688.25	13.46
688.28	14.46
688.31	-5.54
688.339	11.46
688.369	-5.54
688.399	6.46
688.428	8.46
688.458	12.46
688.488	4.46
688.517	29.46
688.547	8.46
688.576	44.46
688.606	9.46
688.636	2.46
688.665	12.46
688.695	11.46
688.725	11.46
688.754	9.46
688.784	11.46
688.813	7.46
688.843	8.46
688.873	-3.54
688.902	-6.54
688.932	-1.54
688.961	19.46
688.991	19.46
689.02	15.46
689.05	5.46
689.08	18.46
689.109	10.46
689.139	-6.54
689.168	13.46
689.198	8.46
689.227	12.46
689.257	8.46
689.287	4.46
689.316	-5.54
689.346	-6.54
689.375	-7.54
689.405	18.46
689.434	15.46
689.464	31.46
689.493	20.46
689.523	-7.54
689.552	5.46
689.582	3.46
689.611	1.46
689.641	3.46
689.67	3.46
689.7	10.46
689.73	20.46
689.759	14.46
689.789	21.46
689.818	12.46
689.848	2.46
689.877	22.46
689.906	-2.54
689.936	-4.54
689.965	9.46
689.995	24.46
690.024	25.46
690.054	5.46
690.083	10.46
690.113	2.46
690.142	17.46
690.172	14.46
690.201	19.46
690.231	4.46
690.26	16.46
690.29	6.46
690.319	16.46
690.348	-5.54
690.378	5.46
690.407	22.46
690.437	2.46
690.466	9.46
690.496	7.46
690.525	12.46
690.555	7.46
690.584	12.46
690.613	5.46
690.643	4.46
690.672	17.46
690.702	16.46
690.731	2.46
690.76	32.46
690.79	67.46
690.819	47.46
690.849	44.46
690.878	20.46
690.907	22.46
690.937	41.46
690.966	40.46
690.996	19.46
691.025	2.46
691.054	12.46
691.084	7.46
691.113	17.46
691.142	16.46
691.172	10.46
691.201	16.46
691.23	-4.54
691.26	6.46
691.289	-1.54
691.319	3.46
691.348	12.46
691.377	24.46
691.407	3.46
691.436	9.46
691.465	6.46
691.495	5.46
691.524	-0.54
691.553	3.46
691.583	0.46
691.612	18.46
691.641	8.46
691.67	3.46
691.7	18.46
691.729	18.46
691.758	13.46
691.788	24.46
691.817	0.46
691.846	14.46
691.876	14.46
691.905	13.46
691.934	14.46
691.963	11.46
691.993	9.46
692.022	4.46
692.051	2.46
692.081	29.46
692.11	43.46
692.139	24.46
692.168	13.46
692.198	18.46
692.227	16.46
692.256	-0.54
692.285	-0.54
692.315	-7.54
692.344	0.46
692.373	8.46
692.402	-11.54
692.432	-2.54
692.461	-0.54
692.49	2.46
692.519	3.46
692.548	16.46
692.578	9.46
692.607	-1.54
692.636	-1.54
692.665	20.46
692.694	0.46
692.724	12.46
692.753	13.46
692.782	24.46
692.811	4.46
692.84	-11.54
692.87	9.46
692.899	6.46
692.928	-1.54
692.957	19.46
692.986	12.46
693.016	20.46
693.045	3.46
693.074	14.46
693.103	14.46
693.132	26.46
693.161	17.46
693.191	4.46
693.22	-17.54
693.249	12.46
693.278	6.46
693.307	30.46
693.336	-12.54
693.365	-11.54
693.395	2.46
693.424	12.46
693.453	12.46
693.482	3.46
693.511	8.46
693.54	15.46
693.569	13.46
693.598	11.46
693.628	15.46
693.657	18.46
693.686	15.46
693.715	6.46
693.744	18.46
693.773	11.46
693.802	3.46
693.831	17.46
693.86	27.46
693.889	20.46
693.919	5.46
693.948	17.46
693.977	14.46
694.006	1.46
694.035	14.46
694.064	1.46
694.093	16.46
694.122	6.46
694.151	-0.54
694.18	30.46
694.209	30.46
694.238	12.46
694.267	17.46
694.296	7.46
694.325	18.46
694.354	14.46
694.383	1.46
694.412	-1.54
694.441	-2.54
694.471	23.46
694.5	-7.54
694.529	10.46
694.558	28.46
694.587	18.46
694.616	-5.54
694.645	4.46
694.674	15.46
694.703	2.46
694.732	5.46
694.761	4.46
694.79	8.46
694.819	3.46
694.848	-2.54
694.877	20.46
694.906	22.46
694.935	11.46
694.963	22.46
694.992	6.46
695.021	17.46
695.05	8.46
695.079	-0.54
695.108	9.46
695.137	12.46
695.166	15.46
695.195	10.46
695.224	10.46
695.253	8.46
695.282	7.46
695.311	6.46
695.34	16.46
695.369	17.46
695.398	14.46
695.427	19.46
695.456	2.46
695.485	6.46
695.513	-3.54
695.542	9.46
695.571	2.46
695.6	18.46
695.629	0.46
695.658	7.46
695.687	15.46
695.716	6.46
695.745	23.46
695.774	-5.54
695.802	21.46
695.831	18.46
695.86	21.46
695.889	13.46
695.918	2.46
695.947	15.46
695.976	18.46
696.005	19.46
696.033	20.46
696.062	8.46
696.091	3.46
696.12	5.46
696.149	8.46
696.178	25.46
696.207	3.46
696.235	7.46
696.264	21.46
696.293	16.46
696.322	15.46
696.351	24.46
696.38	-2.54
696.408	4.46
696.437	11.46
696.466	18.46
696.495	12.46
696.524	14.46
696.553	11.46
696.581	8.46
696.61	9.46
696.639	16.46
696.668	8.46
696.697	4.46
696.725	22.46
696.754	7.46
696.783	-5.54
696.812	0.46
696.84	2.46
696.869	1.46
696.898	6.46
696.927	11.46
696.956	16.46
696.984	-7.54
697.013	-1.54
697.042	15.46
697.071	21.46
697.099	14.46
697.128	0.46
697.157	10.46
697.186	1.46
697.214	17.46
697.243	2.46
697.272	-8.54
697.301	5.46
697.329	17.46
697.358	-2.54
697.387	12.46
697.415	24.46
697.444	6.46
697.473	2.46
697.502	1.46
697.53	24.46
697.559	17.46
697.588	15.46
697.616	14.46
697.645	9.46
697.674	22.46
697.703	11.46
697.731	20.46
697.76	7.46
697.789	12.46
697.817	-2.54
697.846	19.46
697.875	9.46
697.903	16.46
697.932	13.46
697.961	2.46
697.989	12.46
698.018	3.46
698.047	14.46
698.075	16.46
698.104	-8.54
698.133	0.46
698.161	4.46
698.19	-2.54
698.218	2.46
698.247	15.46
698.276	4.46
698.304	20.46
698.333	19.46
698.362	13.46
698.39	9.46
698.419	15.46
698.447	12.46
698.476	23.46
698.505	18.46
698.533	8.46
698.562	3.46
698.591	-6.54
698.619	-8.54
698.648	6.46
698.676	15.46
698.705	11.46
698.733	7.46
698.762	20.46
698.791	7.46
698.819	12.46
698.848	13.46
698.876	31.46
698.905	5.46
698.933	17.46
698.962	-2.54
698.991	2.46
699.019	18.46
699.048	8.46
699.076	-1.54
699.105	-7.54
699.133	-3.54
699.162	-3.54
699.19	16.46
699.219	10.46
699.248	3.46
699.276	0.46
699.305	4.46
699.333	13.46
699.362	7.46
699.39	19.46
699.419	16.46
699.447	1.46
699.476	5.46
699.504	3.46
699.533	6.46
699.561	-3.54
699.59	4.46
699.618	7.46
699.647	19.46
699.675	6.46
699.704	15.46
699.732	7.46
699.761	35.46
699.789	10.46
699.818	15.46
699.846	-3.54
699.874	4.46
699.903	-5.54
699.931	16.46
699.96	8.46
699.988	-3.54
700.017	14.46
700.045	12.46
700.074	11.46
700.102	3.46
700.13	-1.54
700.159	10.46
700.187	-0.54
700.216	6.46
700.244	-5.54
700.273	-4.54
700.301	-3.54
700.329	14.46
700.358	13.46
700.386	-1.54
700.415	-1.54
700.443	7.46
700.472	1.46
700.5	-8.54
700.528	3.46
700.557	12.46
700.585	12.46
700.614	-9.54
700.642	20.46
700.67	22.46
700.699	22.46
700.727	1.46
700.755	13.46
700.784	-1.54
700.812	17.46
700.841	9.46
700.869	2.46
700.897	4.46
700.926	-1.54
700.954	14.46
700.982	7.46
701.011	5.46
701.039	14.46
701.067	0.46
701.096	27.46
701.124	-10.54
701.152	1.46
701.181	7.46
701.209	-5.54
701.237	2.46
701.266	9.46
701.294	-3.54
701.322	2.46
701.351	16.46
701.379	6.46
701.407	-5.54
701.435	12.46
701.464	2.46
701.492	14.46
701.52	21.46
701.549	18.46
701.577	10.46
701.605	3.46
701.634	8.46
701.662	16.46
701.69	5.46
701.718	-11.54
701.747	16.46
701.775	12.46
701.803	-1.54
701.831	11.46
701.86	-7.54
701.888	-5.54
701.916	-0.54
701.944	12.46
701.973	0.46
702.001	-13.54
702.029	-3.54
702.057	-3.54
702.086	-2.54
702.114	2.46
702.142	-0.54
702.17	-0.54
702.199	10.46
702.227	5.46
702.255	-2.54
702.283	-2.54
702.311	1.46
702.34	6.46
702.368	-3.54
702.396	1.46
702.424	7.46
702.452	-1.54
702.481	3.46
702.509	2.46
702.537	21.46
702.565	26.46
702.593	-4.54
702.621	-3.54
702.65	15.46
702.678	5.46
702.706	10.46
702.734	3.46
702.762	12.46
702.79	19.46
702.819	7.46
702.847	7.46
702.875	4.46
702.903	12.46
702.931	-4.54
702.959	0.46
702.988	5.46
703.016	-8.54
703.044	11.46
703.072	-3.54
703.1	9.46
703.128	4.46
703.156	19.46
703.184	1.46
703.212	37.46
703.241	17.46
703.269	-0.54
703.297	6.46
703.325	-0.54
703.353	-15.54
703.381	-1.54
703.409	-4.54
703.437	2.46
703.465	-4.54
703.493	-3.54
703.522	15.46
703.55	8.46
703.578	5.46
703.606	-11.54
703.634	-9.54
703.662	0.46
703.69	-3.54
703.718	4.46
703.746	26.46
703.774	2.46
703.802	16.46
703.83	5.46
703.858	-3.54
703.886	1.46
703.914	-2.54
703.942	40.46
703.97	0.46
703.998	-8.54
704.027	14.46
704.055	18.46
704.083	14.46
704.111	-3.54
704.139	-12.54
704.167	-14.54
704.195	8.46
704.223	1.46
704.251	1.46
704.279	26.46
704.307	-1.54
704.335	-1.54
704.363	22.46
704.391	3.46
704.419	-0.54
704.447	-0.54
704.475	4.46
704.503	8.46
704.531	11.46
704.558	17.46
704.586	-6.54
704.614	-1.54
704.642	-8.54
704.67	-9.54
704.698	9.46
704.726	13.46
704.754	15.46
704.782	-2.54
704.81	-2.54
704.838	18.46
704.866	16.46
704.894	7.46
704.922	4.46
704.95	20.46
704.978	29.46
705.006	6.46
705.034	13.46
705.061	0.46
705.089	-5.54
705.117	3.46
705.145	9.46
705.173	-0.54
705.201	14.46
705.229	19.46
705.257	-4.54
705.285	17.46
705.313	15.46
705.34	9.46
705.368	-14.54
705.396	-1.54
705.424	6.46
705.452	-17.54
705.48	5.46
705.508	7.46
705.536	7.46
705.563	-0.54
705.591	10.46
705.619	-4.54
705.647	-13.54
705.675	4.46
705.703	13.46
705.731	13.46
705.758	8.46
705.786	6.46
705.814	37.46
705.842	11.46
705.87	11.46
705.898	26.46
705.925	-4.54
705.953	4.46
705.981	-8.54
706.009	2.46
706.037	12.46
706.065	1.46
706.092	-6.54
706.12	-8.54
706.148	-18.54
706.176	5.46
706.204	11.46
706.231	11.46
706.259	-6.54
706.287	2.46
706.315	15.46
706.342	-5.54
706.37	12.46
706.398	4.46
706.426	5.46
706.454	10.46
706.481	5.46
706.509	18.46
706.537	4.46
706.565	10.46
706.592	2.46
706.62	15.46
706.648	-5.54
706.676	-12.54
706.703	4.46
706.731	-6.54
706.759	-7.54
706.787	14.46
706.814	5.46
706.842	2.46
706.87	7.46
706.897	16.46
706.925	-0.54
706.953	14.46
706.981	14.46
707.008	-2.54
707.036	13.46
707.064	-3.54
707.091	-13.54
707.119	14.46
707.147	1.46
707.174	-10.54
707.202	17.46
707.23	-2.54
707.258	6.46
707.285	6.46
707.313	6.46
707.341	-2.54
707.368	-6.54
707.396	5.46
707.424	17.46
707.451	8.46
707.479	15.46
707.507	3.46
707.534	-1.54
707.562	6.46
707.59	-9.54
707.617	-6.54
707.645	-1.54
707.672	-0.54
707.7	6.46
707.728	9.46
707.755	2.46
707.783	1.46
707.811	6.46
707.838	-1.54
707.866	3.46
707.893	2.46
707.921	4.46
707.949	3.46
707.976	16.46
708.004	5.46
708.031	-5.54
708.059	1.46
708.087	-3.54
708.114	-1.54
708.142	4.46
708.169	6.46
708.197	-16.54
708.225	-13.54
708.252	-4.54
708.28	21.46
708.307	8.46
708.335	5.46
708.362	14.46
708.39	-3.54
708.418	-1.54
708.445	2.46
708.473	-4.54
708.5	-6.54
708.528	7.46
708.555	8.46
708.583	-2.54
708.61	3.46
708.638	7.46
708.665	2.46
708.693	9.46
708.72	4.46
708.748	-2.54
708.776	11.46
708.803	11.46
708.831	10.46
708.858	21.46
708.886	1.46
708.913	5.46
708.941	19.46
708.968	33.46
708.996	10.46
709.023	39.46
709.051	1.46
709.078	-2.54
709.105	4.46
709.133	21.46
709.16	-1.54
709.188	12.46
709.215	6.46
709.243	8.46
709.27	-1.54
709.298	-13.54
709.325	-2.54
709.353	6.46
709.38	8.46
709.408	25.46
709.435	1.46
709.462	3.46
709.49	10.46
709.517	-6.54
709.545	6.46
709.572	-0.54
709.6	3.46
709.627	-1.54
709.655	11.46
709.682	7.46
709.709	11.46
709.737	5.46
709.764	8.46
709.792	21.46
709.819	15.46
709.846	1.46
709.874	9.46
709.901	28.46
709.929	8.46
709.956	14.46
709.983	0.46
710.011	-8.54
710.038	-11.54
710.066	1.46
710.093	10.46
710.12	15.46
710.148	11.46
710.175	-3.54
710.202	0.46
710.23	10.46
710.257	2.46
710.284	6.46
710.312	17.46
710.339	3.46
710.366	4.46
710.394	2.46
710.421	10.46
710.448	2.46
710.476	1.46
710.503	6.46
710.53	26.46
710.558	19.46
710.585	39.46
710.612	13.46
710.64	10.46
710.667	2.46
710.694	-4.54
710.722	-5.54
710.749	-17.54
710.776	-18.54
710.804	14.46
710.831	1.46
710.858	22.46
710.885	2.46
710.913	1.46
710.94	11.46
710.967	1.46
710.995	9.46
711.022	-0.54
711.049	10.46
711.076	12.46
711.104	14.46
711.131	-17.54
711.158	-4.54
711.185	25.46
711.213	-6.54
711.24	-12.54
711.267	-2.54
711.294	2.46
711.322	19.46
711.349	6.46
711.376	1.46
711.403	3.46
711.431	14.46
711.458	3.46
711.485	11.46
711.512	12.46
711.54	8.46
711.567	2.46
711.594	-10.54
711.621	8.46
711.648	5.46
711.676	4.46
711.703	6.46
711.73	-14.54
711.757	20.46
711.784	2.46
711.812	-9.54
711.839	-3.54
711.866	-2.54
711.893	-7.54
711.92	9.46
711.947	12.46
711.975	18.46
712.002	5.46
712.029	-1.54
712.056	18.46
712.083	5.46
712.11	-21.54
712.138	-4.54
712.165	23.46
712.192	17.46
712.219	-4.54
712.246	-2.54
712.273	-2.54
712.3	4.46
712.328	-10.54
712.355	-0.54
712.382	6.46
712.409	10.46
712.436	-1.54
712.463	5.46
712.49	31.46
712.517	13.46
712.544	14.46
712.572	10.46
712.599	6.46
712.626	11.46
712.653	2.46
712.68	9.46
712.707	25.46
712.734	18.46
712.761	18.46
712.788	18.46
712.815	5.46
712.842	18.46
712.87	-0.54
712.897	1.46
712.924	1.46
712.951	11.46
712.978	-1.54
713.005	2.46
713.032	6.46
713.059	0.46
713.086	-2.54
713.113	-12.54
713.14	-4.54
713.167	4.46
713.194	13.46
713.221	4.46
713.248	12.46
713.275	-2.54
713.302	-2.54
713.329	16.46
713.356	3.46
713.383	24.46
713.41	6.46
713.437	-7.54
713.464	9.46
713.491	19.46
713.518	-4.54
713.545	6.46
713.572	5.46
713.599	13.46
713.626	4.46
713.653	18.46
713.68	8.46
713.707	11.46
713.734	2.46
713.761	-1.54
713.788	-3.54
713.815	10.46
713.842	4.46
713.869	2.46
713.896	13.46
713.923	14.46
713.95	4.46
713.977	2.46
714.004	-3.54
714.031	2.46
714.058	4.46
714.085	13.46
714.112	30.46
714.139	12.46
714.165	4.46
714.192	-4.54
714.219	21.46
714.246	17.46
714.273	-0.54
714.3	11.46
714.327	10.46
714.354	10.46
714.381	-5.54
714.408	4.46
714.435	14.46
714.461	9.46
714.488	-1.54
714.515	-0.54
714.542	-2.54
714.569	2.46
714.596	-10.54
714.623	-5.54
714.65	-2.54
714.677	8.46
714.703	-4.54
714.73	6.46
714.757	6.46
714.784	7.46
714.811	3.46
714.838	10.46
714.865	4.46
714.891	5.46
714.918	-7.54
714.945	-4.54
714.972	3.46
714.999	14.46
715.026	9.46
715.052	7.46
715.079	6.46
715.106	11.46
715.133	18.46
715.16	2.46
715.187	-0.54
715.213	9.46
715.24	-6.54
715.267	11.46
715.294	-0.54
715.321	-2.54
715.347	2.46
715.374	4.46
715.401	20.46
715.428	2.46
715.455	-2.54
715.481	-7.54
715.508	18.46
715.535	-3.54
715.562	28.46
715.588	21.46
715.615	7.46
715.642	10.46
715.669	25.46
715.695	-3.54
715.722	11.46
715.749	4.46
715.776	15.46
715.802	13.46
715.829	20.46
715.856	4.46
715.883	30.46
715.909	12.46
715.936	28.46
715.963	8.46
715.99	-13.54
716.016	-4.54
716.043	7.46
716.07	0.46
716.096	-4.54
716.123	-8.54
716.15	8.46
716.177	17.46
716.203	8.46
716.23	25.46
716.257	7.46
716.283	3.46
716.31	-1.54
716.337	-10.54
716.363	-10.54
716.39	4.46
716.417	4.46
716.443	10.46
716.47	18.46
716.497	18.46
716.523	22.46
716.55	27.46
716.577	22.46
716.603	9.46
716.63	5.46
716.657	13.46
716.683	-6.54
716.71	-10.54
716.737	-5.54
716.763	-7.54
716.79	-0.54
716.817	14.46
716.843	9.46
716.87	0.46
716.897	6.46
716.923	18.46
716.95	4.46
716.976	-1.54
717.003	-3.54
717.03	15.46
717.056	27.46
717.083	14.46
717.109	9.46
717.136	25.46
717.163	-10.54
717.189	9.46
717.216	9.46
717.242	10.46
717.269	14.46
717.296	9.46
717.322	2.46
717.349	13.46
717.375	8.46
717.402	8.46
717.428	-6.54
717.455	11.46
717.481	3.46
717.508	6.46
717.535	19.46
717.561	-8.54
717.588	-1.54
717.614	8.46
717.641	4.46
717.667	8.46
717.694	3.46
717.72	7.46
717.747	0.46
717.773	3.46
717.8	22.46
717.826	4.46
717.853	11.46
717.88	25.46
717.906	18.46
717.933	-3.54
717.959	4.46
717.986	10.46
718.012	-6.54
718.039	15.46
718.065	9.46
718.092	-3.54
718.118	-2.54
718.144	-17.54
718.171	13.46
718.197	36.46
718.224	1.46
718.25	12.46
718.277	8.46
718.303	1.46
718.33	8.46
718.356	2.46
718.383	-13.54
718.409	13.46
718.436	7.46
718.462	4.46
718.489	-2.54
718.515	4.46
718.541	25.46
718.568	18.46
718.594	9.46
718.621	5.46
718.647	10.46
718.674	7.46
718.7	10.46
718.726	4.46
718.753	6.46
718.779	4.46
718.806	4.46
718.832	5.46
718.858	9.46
718.885	9.46
718.911	7.46
718.938	7.46
718.964	-5.54
718.99	16.46
719.017	7.46
719.043	17.46
719.07	5.46
719.096	0.46
719.122	13.46
719.149	12.46
719.175	17.46
719.201	-3.54
719.228	11.46
719.254	-6.54
719.281	-2.54
719.307	0.46
719.333	9.46
719.36	27.46
719.386	16.46
719.412	27.46
719.439	-7.54
719.465	-2.54
719.491	-3.54
719.518	11.46
719.544	18.46
719.57	10.46
719.597	7.46
719.623	12.46
719.649	9.46
719.675	3.46
719.702	2.46
719.728	17.46
719.754	-6.54
719.781	11.46
719.807	-0.54
719.833	3.46
719.86	-6.54
719.886	6.46
719.912	25.46
719.938	8.46
719.965	-1.54
719.991	17.46
720.017	-3.54
720.044	-12.54
720.07	11.46
720.096	2.46
720.122	0.46
720.149	-0.54
720.175	24.46
720.201	-2.54
720.227	2.46
720.254	6.46
720.28	3.46
720.306	3.46
720.332	15.46
720.359	14.46
720.385	13.46
720.411	4.46
720.437	12.46
720.463	9.46
720.49	2.46
720.516	-12.54
720.542	9.46
720.568	7.46
720.595	23.46
720.621	5.46
720.647	-0.54
720.673	4.46
720.699	12.46
720.725	9.46
720.752	11.46
720.778	11.46
720.804	7.46
720.83	10.46
720.856	0.46
720.883	1.46
720.909	8.46
720.935	23.46
720.961	29.46
720.987	17.46
721.013	2.46
721.04	-9.54
721.066	0.46
721.092	13.46
721.118	6.46
721.144	16.46
721.17	2.46
721.196	-1.54
721.223	-1.54
721.249	-7.54
721.275	20.46
721.301	2.46
721.327	21.46
721.353	-4.54
721.379	9.46
721.405	14.46
721.432	13.46
721.458	-3.54
721.484	10.46
721.51	-11.54
721.536	12.46
721.562	-5.54
721.588	17.46
721.614	1.46
721.64	14.46
721.666	-2.54
721.693	2.46
721.719	-9.54
721.745	-4.54
721.771	-2.54
721.797	8.46
721.823	12.46
721.849	14.46
721.875	17.46
721.901	13.46
721.927	-1.54
721.953	11.46
721.979	20.46
722.005	29.46
722.031	-1.54
722.057	7.46
722.083	10.46
722.109	9.46
722.135	5.46
722.161	19.46
722.187	9.46
722.214	-5.54
722.24	3.46
722.266	-3.54
722.292	5.46
722.318	13.46
722.344	7.46
722.37	25.46
722.396	34.46
722.422	-6.54
722.448	-1.54
722.474	-11.54
722.5	11.46
722.526	-12.54
722.552	-1.54
722.578	-0.54
722.603	10.46
722.629	-1.54
722.655	-1.54
722.681	-11.54
722.707	2.46
722.733	3.46
722.759	-6.54
722.785	-6.54
722.811	-1.54
722.837	-5.54
722.863	16.46
722.889	7.46
722.915	-4.54
722.941	-1.54
722.967	-1.54
722.993	14.46
723.019	-2.54
723.045	12.46
723.071	2.46
723.097	22.46
723.122	-2.54
723.148	-3.54
723.174	8.46
723.2	6.46
723.226	1.46
723.252	5.46
723.278	0.46
723.304	6.46
723.33	13.46
723.356	3.46
723.381	-1.54
723.407	1.46
723.433	9.46
723.459	-10.54
723.485	4.46
723.511	11.46
723.537	10.46
723.563	1.46
723.588	7.46
723.614	14.46
723.64	-3.54
723.666	9.46
723.692	22.46
723.718	16.46
723.744	2.46
723.769	11.46
723.795	7.46
723.821	6.46
723.847	-8.54
723.873	8.46
723.899	5.46
723.924	2.46
723.95	3.46
723.976	-14.54
724.002	13.46
724.028	5.46
724.053	-6.54
724.079	-13.54
724.105	-5.54
724.131	13.46
724.157	5.46
724.182	8.46
724.208	11.46
724.234	-3.54
724.26	1.46
724.286	8.46
724.311	6.46
724.337	11.46
724.363	1.46
724.389	-16.54
724.415	-4.54
724.44	29.46
724.466	18.46
724.492	-1.54
724.518	14.46
724.543	1.46
724.569	8.46
724.595	6.46
724.621	6.46
724.646	-11.54
724.672	6.46
724.698	-1.54
724.723	2.46
724.749	-9.54
724.775	14.46
724.801	19.46
724.826	-8.54
724.852	-4.54
724.878	-4.54
724.904	-5.54
724.929	-7.54
724.955	1.46
724.981	8.46
725.006	-0.54
725.032	-7.54
725.058	1.46
725.083	-4.54
725.109	3.46
725.135	10.46
725.161	11.46
725.186	7.46
725.212	14.46
725.238	13.46
725.263	14.46
725.289	-4.54
725.315	-3.54
725.34	5.46
725.366	15.46
725.392	8.46
725.417	13.46
725.443	-4.54
725.468	1.46
725.494	12.46
725.52	29.46
725.545	7.46
725.571	-1.54
725.597	2.46
725.622	-1.54
725.648	9.46
725.674	23.46
725.699	-1.54
725.725	13.46
725.75	21.46
725.776	-4.54
725.802	4.46
725.827	1.46
725.853	10.46
725.878	10.46
725.904	16.46
725.93	0.46
725.955	-8.54
725.981	1.46
726.006	3.46
726.032	2.46
726.057	-1.54
726.083	-8.54
726.109	5.46
726.134	23.46
726.16	6.46
726.185	-3.54
726.211	-8.54
726.236	7.46
726.262	18.46
726.288	-0.54
726.313	24.46
726.339	6.46
726.364	7.46
726.39	11.46
726.415	13.46
726.441	10.46
726.466	13.46
726.492	7.46
726.517	20.46
726.543	1.46
726.568	-8.54
726.594	7.46
726.619	17.46
726.645	20.46
726.67	19.46
726.696	6.46
726.721	7.46
726.747	-10.54
726.772	6.46
726.798	-5.54
726.823	7.46
726.849	-1.54
726.874	19.46
726.9	23.46
726.925	5.46
726.951	15.46
726.976	16.46
727.002	2.46
727.027	25.46
727.053	27.46
727.078	3.46
727.104	8.46
727.129	-21.54
727.155	-8.54
727.18	8.46
727.205	19.46
727.231	4.46
727.256	3.46
727.282	5.46
727.307	21.46
727.333	2.46
727.358	-2.54
727.383	-8.54
727.409	-10.54
727.434	20.46
727.46	8.46
727.485	6.46
727.511	21.46
727.536	-12.54
727.561	2.46
727.587	-4.54
727.612	7.46
727.637	-12.54
727.663	-1.54
727.688	1.46
727.714	-12.54
727.739	-2.54
727.764	-3.54
727.79	11.46
727.815	13.46
727.841	13.46
727.866	13.46
727.891	8.46
727.917	-4.54
727.942	-7.54
727.967	-8.54
727.993	-20.54
728.018	19.46
728.043	-1.54
728.069	20.46
728.094	12.46
728.119	10.46
728.145	10.46
728.17	2.46
728.195	17.46
728.221	26.46
728.246	8.46
728.271	10.46
728.297	9.46
728.322	20.46
728.347	5.46
728.373	3.46
728.398	-0.54
728.423	-3.54
728.448	13.46
728.474	10.46
728.499	24.46
728.524	-8.54
728.55	-0.54
728.575	3.46
728.6	-5.54
728.625	6.46
728.651	3.46
728.676	-1.54
728.701	-3.54
728.727	-7.54
728.752	2.46
728.777	20.46
728.802	8.46
728.828	3.46
728.853	-9.54
728.878	1.46
728.903	-6.54
728.929	6.46
728.954	-5.54
728.979	17.46
729.004	-9.54
729.03	11.46
729.055	16.46
729.08	-1.54
729.105	-2.54
729.13	22.46
729.156	14.46
729.181	-10.54
729.206	-2.54
729.231	-8.54
729.256	7.46
729.282	21.46
729.307	-0.54
729.332	-5.54
729.357	1.46
729.382	-1.54
729.408	2.46
729.433	3.46
729.458	3.46
729.483	19.46
729.508	7.46
729.533	11.46
729.559	13.46
729.584	-12.54
729.609	0.46
729.634	14.46
729.659	-3.54
729.684	1.46
729.71	11.46
729.735	8.46
729.76	2.46
729.785	12.46
729.81	19.46
729.835	-5.54
729.86	6.46
729.886	9.46
729.911	12.46
729.936	15.46
729.961	44.46
729.986	28.46
730.011	72.46
730.036	230.46
730.061	1002.46
730.086	2697.46
730.112	3443.46
730.137	2874.46
730.162	2162.46
730.187	1706.46
730.212	1264.46
730.237	828.46
730.262	425.46
730.287	235.46
730.312	154.46
730.337	74.46
730.362	73.46
730.387	45.46
730.413	25.46
730.438	28.46
730.463	21.46
730.488	3.46
730.513	27.46
730.538	12.46
730.563	28.46
730.588	12.46
730.613	23.46
730.638	17.46
730.663	11.46
730.688	18.46
730.713	1.46
730.738	5.46
730.763	5.46
730.788	-1.54
730.813	14.46
730.838	-0.54
730.863	0.46
730.888	3.46
730.913	-7.54
730.938	1.46
730.963	22.46
730.988	106.46
731.013	402.46
731.038	633.46
731.063	628.46
731.088	490.46
731.113	372.46
731.138	265.46
731.163	201.46
731.188	113.46
731.213	66.46
731.238	43.46
731.263	-0.54
731.288	6.46
731.313	19.46
731.338	7.46
731.363	6.46
731.388	6.46
731.413	7.46
731.438	18.46
731.463	7.46
731.487	27.46
731.512	13.46
731.537	-2.54
731.562	-4.54
731.587	25.46
731.612	6.46
731.637	-0.54
731.662	18.46
731.687	3.46
731.712	-0.54
731.737	20.46
731.762	12.46
731.786	15.46
731.811	9.46
731.836	7.46
731.861	2.46
731.886	8.46
731.911	6.46
731.936	18.46
731.961	5.46
731.986	1.46
732.01	1.46
732.035	13.46
732.06	14.46
732.085	11.46
732.11	-2.54
732.135	-8.54
732.16	10.46
732.184	4.46
732.209	13.46
732.234	11.46
732.259	-0.54
732.284	3.46
732.309	3.46
732.334	1.46
732.358	-12.54
732.383	-6.54
732.408	-3.54
732.433	16.46
732.458	7.46
732.482	2.46
732.507	-2.54
732.532	3.46
732.557	15.46
732.582	17.46
732.607	14.46
732.631	59.46
732.656	92.46
732.681	156.46
732.706	369.46
732.73	473.46
732.755	395.46
732.78	310.46
732.805	243.46
732.83	187.46
732.854	148.46
732.879	97.46
732.904	52.46
732.929	29.46
732.953	18.46
732.978	22.46
733.003	16.46
733.028	13.46
733.052	21.46
733.077	9.46
733.102	22.46
733.127	4.46
733.151	7.46
733.176	-2.54
733.201	-5.54
733.226	-8.54
733.25	6.46
733.275	5.46
733.3	3.46
733.324	21.46
733.349	11.46
733.374	13.46
733.399	9.46
733.423	2.46
733.448	8.46
733.473	-2.54
733.497	2.46
733.522	6.46
733.547	17.46
733.571	33.46
733.596	-7.54
733.621	26.46
733.646	5.46
733.67	12.46
733.695	-10.54
733.72	21.46
733.744	22.46
733.769	11.46
733.794	33.46
733.818	8.46
733.843	0.46
733.867	-5.54
733.892	4.46
733.917	16.46
733.941	16.46
733.966	-7.54
733.991	5.46
734.015	16.46
734.04	21.46
734.065	23.46
734.089	24.46
734.114	7.46
734.138	12.46
734.163	9.46
734.188	23.46
734.212	26.46
734.237	16.46
734.261	3.46
734.286	-6.54
734.311	-3.54
734.335	12.46
734.36	-0.54
734.384	-3.54
734.409	11.46
734.434	8.46
734.458	-1.54
734.483	-1.54
734.507	-12.54
734.532	2.46
734.556	8.46
734.581	18.46
734.606	12.46
734.63	1.46
734.655	10.46
734.679	1.46
734.704	3.46
734.728	14.46
734.753	-2.54
734.777	8.46
734.802	5.46
734.826	11.46
734.851	2.46
734.876	28.46
734.9	13.46
734.925	19.46
734.949	9.46
734.974	3.46
734.998	10.46
735.023	-5.54
735.047	3.46
735.072	30.46
735.096	4.46
735.121	1.46
735.145	4.46
735.17	-4.54
735.194	13.46
735.219	-5.54
735.243	-4.54
735.268	-2.54
735.292	10.46
735.317	11.46
735.341	17.46
735.365	-11.54
735.39	7.46
735.414	12.46
735.439	-0.54
735.463	15.46
735.488	21.46
735.512	15.46
735.537	5.46
735.561	-4.54
735.586	7.46
735.61	14.46
735.634	-3.54
735.659	1.46
735.683	32.46
735.708	8.46
735.732	0.46
735.757	0.46
735.781	7.46
735.805	11.46
735.83	4.46
735.854	1.46
735.879	-19.54
735.903	12.46
735.927	9.46
735.952	-1.54
735.976	6.46
736.001	-6.54
736.025	-14.54
736.049	7.46
736.074	-3.54
736.098	13.46
736.123	4.46
736.147	-4.54
736.171	-3.54
736.196	13.46
736.22	-1.54
736.244	17.46
736.269	-0.54
736.293	1.46
736.317	-1.54
736.342	23.46
736.366	28.46
736.39	9.46
736.415	-0.54
736.439	3.46
736.463	20.46
736.488	6.46
736.512	15.46
736.536	5.46
736.561	21.46
736.585	-3.54
736.609	12.46
736.634	3.46
736.658	2.46
736.682	1.46
736.707	2.46
736.731	-7.54
736.755	-6.54
736.78	7.46
736.804	7.46
736.828	1.46
736.852	-4.54
736.877	16.46
736.901	9.46
736.925	3.46
736.949	-0.54
736.974	-1.54
736.998	3.46
737.022	1.46
737.047	-4.54
737.071	4.46
737.095	25.46
737.119	37.46
737.144	14.46
737.168	-7.54
737.192	5.46
737.216	27.46
737.241	6.46
737.265	1.46
737.289	-3.54
737.313	4.46
737.337	11.46
737.362	-6.54
737.386	11.46
737.41	5.46
737.434	9.46
737.459	2.46
737.483	22.46
737.507	17.46
737.531	9.46
737.555	-1.54
737.58	17.46
737.604	24.46
737.628	-11.54
737.652	6.46
737.676	10.46
737.701	5.46
737.725	24.46
737.749	23.46
737.773	4.46
737.797	2.46
737.821	10.46
737.846	10.46
737.87	30.46
737.894	-5.54
737.918	8.46
737.942	-4.54
737.966	13.46
737.99	-1.54
738.015	3.46
738.039	10.46
738.063	-1.54
738.087	31.46
738.111	12.46
738.135	28.46
738.159	14.46
738.184	-3.54
738.208	12.46
738.232	1.46
738.256	19.46
738.28	22.46
738.304	24.46
738.328	13.46
738.352	10.46
738.376	3.46
738.4	14.46
738.425	11.46
738.449	9.46
738.473	15.46
738.497	19.46
738.521	7.46
738.545	17.46
738.569	21.46
738.593	20.46
738.617	4.46
738.641	6.46
738.665	21.46
738.689	24.46
738.713	3.46
738.737	1.46
738.762	1.46
738.786	13.46
738.81	-7.54
738.834	26.46
738.858	2.46
738.882	6.46
738.906	-2.54
738.93	11.46
738.954	13.46
738.978	6.46
739.002	-4.54
739.026	20.46
739.05	16.46
739.074	6.46
739.098	33.46
739.122	26.46
739.146	19.46
739.17	24.46
739.194	17.46
739.218	3.46
739.242	9.46
739.266	2.46
739.29	23.46
739.314	20.46
739.338	14.46
739.362	13.46
739.386	11.46
739.41	2.46
739.434	-7.54
739.458	21.46
739.482	14.46
739.506	18.46
739.53	15.46
739.554	8.46
739.577	9.46
739.601	19.46
739.625	-3.54
739.649	-0.54
739.673	-5.54
739.697	12.46
739.721	8.46
739.745	11.46
739.769	22.46
739.793	4.46
739.817	11.46
739.841	-1.54
739.865	15.46
739.889	7.46
739.912	16.46
739.936	13.46
739.96	2.46
739.984	31.46
740.008	12.46
740.032	-1.54
740.056	2.46
740.08	7.46
740.104	-8.54
740.127	2.46
740.151	10.46
740.175	10.46
740.199	21.46
740.223	40.46
740.247	19.46
740.271	7.46
740.295	10.46
740.318	-13.54
740.342	2.46
740.366	18.46
740.39	22.46
740.414	-4.54
740.438	8.46
740.461	-3.54
740.485	6.46
740.509	-1.54
740.533	12.46
740.557	9.46
740.581	0.46
740.604	-1.54
740.628	15.46
740.652	22.46
740.676	-2.54
740.7	12.46
740.723	1.46
740.747	2.46
740.771	-4.54
740.795	-8.54
740.819	12.46
740.842	14.46
740.866	21.46
740.89	9.46
740.914	1.46
740.938	0.46
740.961	9.46
740.985	1.46
741.009	6.46
741.033	5.46
741.056	-1.54
741.08	1.46
741.104	0.46
741.128	9.46
741.151	20.46
741.175	14.46
741.199	16.46
741.223	7.46
741.246	-3.54
741.27	13.46
741.294	11.46
741.318	0.46
741.341	-7.54
741.365	6.46
741.389	9.46
741.413	14.46
741.436	21.46
741.46	7.46
741.484	9.46
741.507	1.46
741.531	12.46
741.555	22.46
741.579	9.46
741.602	5.46
741.626	34.46
741.65	7.46
741.673	10.46
741.697	29.46
741.721	10.46
741.744	-4.54
741.768	-4.54
741.792	3.46
741.815	4.46
741.839	15.46
741.863	18.46
741.886	7.46
741.91	10.46
741.934	12.46
741.957	-8.54
741.981	15.46
742.005	3.46
742.028	3.46
742.052	-2.54
742.075	3.46
742.099	17.46
742.123	7.46
742.146	-9.54
742.17	5.46
742.194	-0.54
742.217	8.46
742.241	11.46
742.264	13.46
742.288	33.46
742.312	15.46
742.335	-1.54
742.359	2.46
742.382	12.46
742.406	27.46
742.43	5.46
742.453	11.46
742.477	-2.54
742.5	1.46
742.524	3.46
742.548	-3.54
742.571	7.46
742.595	7.46
742.618	1.46
742.642	-12.54
742.665	22.46
742.689	3.46
742.712	1.46
742.736	-0.54
742.76	23.46
742.783	19.46
742.807	22.46
742.83	25.46
742.854	6.46
742.877	1.46
742.901	3.46
742.924	5.46
742.948	9.46
742.971	9.46
742.995	-6.54
743.018	-6.54
743.042	-0.54
743.065	15.46
743.089	1.46
743.112	1.46
743.136	2.46
743.159	-1.54
743.183	3.46
743.206	2.46
743.23	3.46
743.253	8.46
743.277	10.46
743.3	3.46
743.324	0.46
743.347	-0.54
743.371	33.46
743.394	13.46
743.418	24.46
743.441	9.46
743.465	5.46
743.488	6.46
743.512	-12.54
743.535	-4.54
743.558	5.46
743.582	7.46
743.605	18.46
743.629	22.46
743.652	8.46
743.676	11.46
743.699	21.46
743.723	2.46
743.746	26.46
743.769	7.46
743.793	10.46
743.816	-5.54
743.84	16.46
743.863	-1.54
743.886	6.46
743.91	27.46
743.933	25.46
743.957	8.46
743.98	-0.54
744.003	5.46
744.027	20.46
744.05	-0.54
744.074	-8.54
744.097	-1.54
744.12	-7.54
744.144	-5.54
744.167	12.46
744.19	-2.54
744.214	5.46
744.237	-1.54
744.26	-0.54
744.284	1.46
744.307	-11.54
744.331	-8.54
744.354	-4.54
744.377	-2.54
744.401	7.46
744.424	6.46
744.447	1.46
744.471	2.46
