Data from HighRes_mercury_15_13_11_07_2024_HR4C61891__8__15-14-23-986.txt Node

Date: Thu Nov 07 15:14:23 EST 2024
User: crc00042
Spectrometer: HR4C6189
Trigger mode: 4
Integration Time (sec): 1.000000E-1
Scans to average: 1
Electric dark correction enabled: true
Nonlinearity correction enabled: false
Boxcar width: 0
XAxis mode: Wavelengths
Number of Pixels in Spectrum: 3648
>>>>>Begin Spectral Data<<<<<
639.567	-67
639.602	-67
639.636	-67
639.67	-36
639.704	-3
639.738	1
639.773	10
639.807	-7
639.841	5
639.875	22
639.909	5
639.943	-22
639.978	7
640.012	-7
640.046	-10
640.08	6
640.114	-6
640.148	-4
640.182	-10
640.217	-1
640.251	29
640.285	11
640.319	-6
640.353	-4
640.387	2
640.421	-19
640.455	-7
640.49	0
640.524	-11
640.558	11
640.592	9
640.626	15
640.66	14
640.694	-6
640.728	9
640.762	-8
640.796	10
640.83	15
640.865	8
640.899	-2
640.933	8
640.967	3
641.001	6
641.035	5
641.069	-6
641.103	-2
641.137	5
641.171	-3
641.205	-4
641.239	6
641.273	11
641.307	0
641.341	8
641.375	-7
641.409	-4
641.443	3
641.477	5
641.511	12
641.545	0
641.579	13
641.614	14
641.648	17
641.682	-1
641.716	8
641.75	22
641.784	5
641.818	1
641.852	-2
641.886	1
641.919	18
641.953	12
641.987	-10
642.021	2
642.055	19
642.089	15
642.123	9
642.157	8
642.191	-7
642.225	5
642.259	0
642.293	11
642.327	-11
642.361	2
642.395	21
642.429	11
642.463	7
642.497	22
642.531	11
642.565	-18
642.599	-1
642.633	3
642.666	2
642.7	-2
642.734	-1
642.768	2
642.802	15
642.836	17
642.87	12
642.904	5
642.938	26
642.972	2
643.005	6
643.039	29
643.073	11
643.107	13
643.141	8
643.175	13
643.209	12
643.243	1
643.276	24
643.31	15
643.344	10
643.378	18
643.412	21
643.446	11
643.48	7
643.513	6
643.547	-7
643.581	11
643.615	13
643.649	13
643.683	21
643.716	-13
643.75	1
643.784	-10
643.818	16
643.852	-4
643.886	10
643.919	17
643.953	9
643.987	11
644.021	39
644.055	16
644.088	2
644.122	-6
644.156	2
644.19	9
644.224	15
644.257	12
644.291	22
644.325	13
644.359	18
644.392	31
644.426	21
644.46	8
644.494	9
644.527	-2
644.561	4
644.595	-2
644.629	-5
644.662	1
644.696	10
644.73	13
644.764	0
644.797	4
644.831	6
644.865	8
644.899	-6
644.932	19
644.966	8
645	15
645.033	29
645.067	19
645.101	21
645.135	4
645.168	-7
645.202	-9
645.236	-7
645.269	19
645.303	-12
645.337	7
645.37	-6
645.404	14
645.438	6
645.471	-4
645.505	6
645.539	9
645.572	3
645.606	8
645.64	13
645.673	36
645.707	18
645.741	6
645.774	-7
645.808	22
645.842	-16
645.875	2
645.909	1
645.943	5
645.976	-4
646.01	-1
646.043	16
646.077	24
646.111	13
646.144	18
646.178	7
646.212	-7
646.245	-7
646.279	0
646.312	14
646.346	5
646.38	10
646.413	11
646.447	7
646.48	3
646.514	6
646.547	13
646.581	4
646.615	2
646.648	-11
646.682	8
646.715	1
646.749	23
646.782	15
646.816	18
646.85	20
646.883	5
646.917	4
646.95	-1
646.984	8
647.017	13
647.051	8
647.084	4
647.118	5
647.151	-18
647.185	1
647.218	-7
647.252	7
647.285	-8
647.319	-2
647.353	-3
647.386	12
647.42	4
647.453	-10
647.487	9
647.52	5
647.553	14
647.587	1
647.62	-6
647.654	-1
647.687	12
647.721	-2
647.754	10
647.788	-4
647.821	6
647.855	12
647.888	30
647.922	7
647.955	21
647.989	14
648.022	15
648.055	-4
648.089	5
648.122	23
648.156	-4
648.189	7
648.223	8
648.256	8
648.29	10
648.323	-2
648.356	9
648.39	5
648.423	3
648.457	-6
648.49	0
648.523	10
648.557	3
648.59	-1
648.624	-4
648.657	13
648.69	29
648.724	18
648.757	15
648.791	21
648.824	7
648.857	21
648.891	10
648.924	14
648.957	22
648.991	1
649.024	2
649.057	9
649.091	4
649.124	28
649.158	18
649.191	28
649.224	5
649.258	16
649.291	0
649.324	11
649.358	3
649.391	0
649.424	14
649.458	7
649.491	12
649.524	-5
649.557	1
649.591	-10
649.624	3
649.657	-23
649.691	3
649.724	6
649.757	19
649.791	2
649.824	16
649.857	14
649.89	0
649.924	-18
649.957	4
649.99	-2
650.023	1
650.057	7
650.09	2
650.123	-1
650.157	2
650.19	25
650.223	-7
650.256	-3
650.29	4
650.323	9
650.356	8
650.389	-5
650.423	-4
650.456	-6
650.489	-6
650.522	1
650.555	31
650.589	10
650.622	5
650.655	13
650.688	9
650.721	4
650.755	18
650.788	18
650.821	23
650.854	14
650.887	17
650.921	-2
650.954	7
650.987	-1
651.02	-9
651.053	-20
651.087	-5
651.12	20
651.153	1
651.186	-8
651.219	6
651.252	8
651.286	7
651.319	4
651.352	16
651.385	3
651.418	6
651.451	0
651.484	1
651.518	-9
651.551	20
651.584	1
651.617	30
651.65	2
651.683	22
651.716	7
651.749	-12
651.783	11
651.816	6
651.849	6
651.882	13
651.915	3
651.948	18
651.981	3
652.014	-6
652.047	2
652.08	-2
652.114	0
652.147	13
652.18	10
652.213	45
652.246	14
652.279	-23
652.312	4
652.345	-1
652.378	15
652.411	0
652.444	-1
652.477	-6
652.51	-2
652.543	-6
652.576	11
652.609	-10
652.642	10
652.675	21
652.709	2
652.742	17
652.775	5
652.808	16
652.841	6
652.874	4
652.907	6
652.94	7
652.973	-4
653.006	-9
653.039	5
653.072	16
653.105	-1
653.138	-1
653.171	-12
653.204	-9
653.237	11
653.27	8
653.303	16
653.336	23
653.368	-14
653.401	8
653.434	-16
653.467	10
653.5	8
653.533	10
653.566	10
653.599	10
653.632	22
653.665	4
653.698	3
653.731	3
653.764	4
653.797	0
653.83	8
653.863	4
653.896	6
653.929	4
653.961	7
653.994	3
654.027	1
654.06	19
654.093	15
654.126	10
654.159	-5
654.192	15
654.225	-4
654.258	-6
654.29	0
654.323	13
654.356	1
654.389	3
654.422	11
654.455	8
654.488	0
654.521	-7
654.553	0
654.586	15
654.619	2
654.652	-2
654.685	19
654.718	22
654.751	19
654.783	3
654.816	13
654.849	7
654.882	-8
654.915	-4
654.948	3
654.98	-18
655.013	-12
655.046	0
655.079	-8
655.112	17
655.144	-1
655.177	11
655.21	24
655.243	17
655.276	1
655.308	14
655.341	-13
655.374	28
655.407	5
655.44	3
655.472	4
655.505	10
655.538	6
655.571	9
655.603	9
655.636	2
655.669	14
655.702	-4
655.734	-8
655.767	14
655.8	5
655.833	-3
655.865	12
655.898	-6
655.931	1
655.964	4
655.996	-1
656.029	3
656.062	5
656.095	-9
656.127	6
656.16	14
656.193	7
656.225	9
656.258	7
656.291	-5
656.324	25
656.356	13
656.389	28
656.422	14
656.454	-2
656.487	9
656.52	2
656.552	-5
656.585	25
656.618	20
656.65	12
656.683	-12
656.716	10
656.748	5
656.781	0
656.814	-11
656.846	19
656.879	9
656.912	-1
656.944	-4
656.977	-1
657.01	-2
657.042	10
657.075	2
657.108	-11
657.14	9
657.173	22
657.205	35
657.238	8
657.271	18
657.303	0
657.336	6
657.369	4
657.401	7
657.434	3
657.466	1
657.499	10
657.532	5
657.564	10
657.597	-3
657.629	-4
657.662	1
657.694	-6
657.727	-7
657.76	11
657.792	-9
657.825	3
657.857	10
657.89	-1
657.922	9
657.955	-9
657.987	-6
658.02	5
658.053	2
658.085	20
658.118	23
658.15	19
658.183	29
658.215	26
658.248	-7
658.28	-12
658.313	6
658.345	14
658.378	2
658.41	13
658.443	14
658.475	8
658.508	-18
658.54	13
658.573	-5
658.605	14
658.638	-7
658.67	5
658.703	8
658.735	-2
658.768	15
658.8	-3
658.833	11
658.865	5
658.898	-7
658.93	4
658.963	0
658.995	-20
659.028	7
659.06	6
659.092	8
659.125	2
659.157	-4
659.19	-10
659.222	2
659.255	-2
659.287	4
659.32	0
659.352	7
659.384	18
659.417	8
659.449	12
659.482	13
659.514	-15
659.546	13
659.579	-2
659.611	10
659.644	3
659.676	-3
659.708	-12
659.741	7
659.773	-4
659.806	11
659.838	4
659.87	-13
659.903	-3
659.935	-6
659.967	20
660	22
660.032	-4
660.065	17
660.097	6
660.129	-3
660.162	-21
660.194	10
660.226	20
660.259	9
660.291	2
660.323	-4
660.356	2
660.388	4
660.42	6
660.453	23
660.485	27
660.517	27
660.55	31
660.582	14
660.614	2
660.647	-6
660.679	-13
660.711	8
660.743	3
660.776	4
660.808	8
660.84	19
660.873	2
660.905	1
660.937	-3
660.969	-14
661.002	12
661.034	12
661.066	11
661.099	7
661.131	10
661.163	24
661.195	-2
661.228	15
661.26	1
661.292	1
661.324	-2
661.357	6
661.389	3
661.421	19
661.453	6
661.485	10
661.518	15
661.55	-5
661.582	-11
661.614	2
661.647	5
661.679	-4
661.711	2
661.743	-7
661.775	-10
661.808	26
661.84	5
661.872	6
661.904	-7
661.936	-12
661.969	-9
662.001	-4
662.033	5
662.065	-17
662.097	21
662.129	9
662.162	5
662.194	10
662.226	8
662.258	9
662.29	8
662.322	-9
662.355	-13
662.387	30
662.419	14
662.451	19
662.483	23
662.515	-9
662.547	3
662.58	-4
662.612	-14
662.644	-9
662.676	1
662.708	9
662.74	-1
662.772	11
662.804	7
662.836	7
662.869	0
662.901	15
662.933	12
662.965	23
662.997	8
663.029	-18
663.061	9
663.093	-13
663.125	0
663.157	6
663.189	-12
663.221	5
663.254	-16
663.286	-2
663.318	-4
663.35	2
663.382	5
663.414	6
663.446	5
663.478	5
663.51	31
663.542	-9
663.574	-10
663.606	11
663.638	-15
663.67	8
663.702	-8
663.734	-4
663.766	6
663.798	-5
663.83	5
663.862	13
663.894	8
663.926	10
663.958	6
663.99	-4
664.022	3
664.054	-2
664.086	4
664.118	2
664.15	-23
664.182	-3
664.214	3
664.246	15
664.278	1
664.31	14
664.342	-17
664.374	5
664.406	6
664.438	-4
664.47	17
664.502	-5
664.534	4
664.566	6
664.598	2
664.63	0
664.662	-7
664.693	1
664.725	-1
664.757	-3
664.789	-7
664.821	-2
664.853	8
664.885	5
664.917	1
664.949	25
664.981	29
665.013	6
665.045	4
665.076	4
665.108	12
665.14	-2
665.172	-3
665.204	-1
665.236	4
665.268	12
665.3	4
665.331	-9
665.363	1
665.395	7
665.427	-7
665.459	5
665.491	0
665.523	20
665.555	10
665.586	3
665.618	-12
665.65	-12
665.682	11
665.714	-5
665.746	-13
665.777	9
665.809	4
665.841	9
665.873	-4
665.905	24
665.937	15
665.968	15
666	-21
666.032	-10
666.064	3
666.096	14
666.127	0
666.159	21
666.191	13
666.223	-1
666.255	9
666.286	9
666.318	13
666.35	9
666.382	15
666.413	7
666.445	-3
666.477	-21
666.509	-6
666.54	22
666.572	16
666.604	-3
666.636	8
666.667	9
666.699	14
666.731	4
666.763	3
666.794	9
666.826	4
666.858	-8
666.89	16
666.921	5
666.953	-2
666.985	25
667.017	26
667.048	14
667.08	1
667.112	-6
667.143	1
667.175	5
667.207	-2
667.238	7
667.27	2
667.302	-8
667.334	2
667.365	23
667.397	13
667.429	19
667.46	19
667.492	27
667.524	2
667.555	0
667.587	0
667.619	-1
667.65	-3
667.682	3
667.714	5
667.745	9
667.777	11
667.808	18
667.84	-4
667.872	12
667.903	30
667.935	0
667.967	-1
667.998	6
668.03	1
668.061	-4
668.093	6
668.125	11
668.156	7
668.188	1
668.22	-3
668.251	22
668.283	16
668.314	26
668.346	9
668.377	17
668.409	22
668.441	29
668.472	18
668.504	13
668.535	13
668.567	11
668.599	4
668.63	4
668.662	24
668.693	18
668.725	9
668.756	13
668.788	8
668.819	5
668.851	13
668.882	22
668.914	-1
668.946	1
668.977	0
669.009	4
669.04	0
669.072	11
669.103	17
669.135	1
669.166	-7
669.198	14
669.229	-4
669.261	16
669.292	-8
669.324	4
669.355	1
669.387	-14
669.418	2
669.45	-11
669.481	3
669.513	4
669.544	21
669.576	-3
669.607	9
669.639	11
669.67	-10
669.701	7
669.733	-2
669.764	1
669.796	4
669.827	1
669.859	9
669.89	4
669.922	15
669.953	5
669.985	9
670.016	21
670.047	-7
670.079	-14
670.11	12
670.142	11
670.173	-4
670.204	4
670.236	0
670.267	-2
670.299	27
670.33	14
670.362	6
670.393	2
670.424	3
670.456	-7
670.487	2
670.518	3
670.55	3
670.581	5
670.613	10
670.644	-12
670.675	-7
670.707	-6
670.738	-6
670.769	2
670.801	-11
670.832	8
670.864	2
670.895	2
670.926	-16
670.958	2
670.989	-3
671.02	10
671.052	21
671.083	13
671.114	1
671.146	-2
671.177	16
671.208	4
671.24	2
671.271	11
671.302	19
671.333	0
671.365	14
671.396	0
671.427	11
671.459	15
671.49	7
671.521	2
671.553	-14
671.584	18
671.615	6
671.646	-7
671.678	5
671.709	-18
671.74	-7
671.771	3
671.803	-4
671.834	-2
671.865	-6
671.896	6
671.928	4
671.959	8
671.99	5
672.021	-2
672.053	-10
672.084	11
672.115	5
672.146	-9
672.178	-14
672.209	1
672.24	7
672.271	25
672.303	11
672.334	20
672.365	1
672.396	17
672.427	14
672.459	12
672.49	18
672.521	17
672.552	4
672.583	7
672.615	5
672.646	17
672.677	-16
672.708	3
672.739	16
672.77	9
672.802	2
672.833	-10
672.864	14
672.895	10
672.926	1
672.957	6
672.989	10
673.02	15
673.051	13
673.082	22
673.113	5
673.144	5
673.175	14
673.206	-13
673.238	6
673.269	17
673.3	3
673.331	13
673.362	11
673.393	-3
673.424	7
673.455	9
673.487	10
673.518	12
673.549	2
673.58	16
673.611	9
673.642	1
673.673	-18
673.704	8
673.735	10
673.766	6
673.797	-10
673.828	2
673.86	12
673.891	-9
673.922	-8
673.953	-6
673.984	12
674.015	3
674.046	-3
674.077	12
674.108	-1
674.139	-12
674.17	-2
674.201	-10
674.232	-18
674.263	-10
674.294	4
674.325	3
674.356	14
674.387	20
674.418	18
674.449	-10
674.48	-7
674.511	-11
674.542	9
674.573	2
674.604	27
674.635	-8
674.666	19
674.697	10
674.728	15
674.759	2
674.79	-8
674.821	8
674.852	23
674.883	-8
674.914	11
674.945	11
674.976	12
675.007	-9
675.038	-7
675.069	-15
675.1	8
675.131	13
675.162	0
675.193	4
675.224	-13
675.254	5
675.285	3
675.316	10
675.347	-10
675.378	-10
675.409	14
675.44	14
675.471	11
675.502	-2
675.533	7
675.564	20
675.595	-2
675.625	14
675.656	10
675.687	2
675.718	0
675.749	9
675.78	9
675.811	14
675.842	-9
675.873	5
675.903	0
675.934	-1
675.965	5
675.996	6
676.027	2
676.058	3
676.089	-4
676.119	6
676.15	-3
676.181	4
676.212	-11
676.243	10
676.274	2
676.304	24
676.335	-13
676.366	7
676.397	9
676.428	6
676.459	5
676.489	15
676.52	5
676.551	5
676.582	5
676.613	6
676.643	-8
676.674	13
676.705	4
676.736	-10
676.767	10
676.797	3
676.828	-12
676.859	2
676.89	-5
676.92	9
676.951	4
676.982	12
677.013	0
677.044	13
677.074	27
677.105	-5
677.136	11
677.167	1
677.197	2
677.228	6
677.259	-4
677.289	6
677.32	-12
677.351	-9
677.382	-5
677.412	-18
677.443	-10
677.474	4
677.505	0
677.535	14
677.566	0
677.597	-10
677.627	-1
677.658	9
677.689	1
677.72	10
677.75	6
677.781	19
677.812	1
677.842	-4
677.873	-9
677.904	-8
677.934	16
677.965	3
677.996	-22
678.026	-1
678.057	15
678.088	8
678.118	-7
678.149	0
678.18	3
678.21	4
678.241	-5
678.272	-9
678.302	-15
678.333	3
678.363	8
678.394	9
678.425	9
678.455	12
678.486	10
678.517	1
678.547	2
678.578	-19
678.608	-9
678.639	7
678.67	1
678.7	-2
678.731	11
678.761	6
678.792	21
678.823	8
678.853	-1
678.884	-12
678.914	5
678.945	0
678.975	-11
679.006	13
679.037	-15
679.067	29
679.098	-4
679.128	-11
679.159	3
679.189	4
679.22	3
679.25	13
679.281	11
679.312	-2
679.342	-4
679.373	20
679.403	-5
679.434	0
679.464	10
679.495	6
679.525	9
679.556	3
679.586	-7
679.617	11
679.647	2
679.678	-7
679.708	-4
679.739	-14
679.769	-8
679.8	-2
679.83	4
679.861	6
679.891	4
679.922	-8
679.952	1
679.983	12
680.013	-3
680.044	-7
680.074	11
680.105	20
680.135	4
680.165	3
680.196	14
680.226	5
680.257	15
680.287	12
680.318	-3
680.348	6
680.379	13
680.409	-1
680.439	-2
680.47	8
680.5	7
680.531	-6
680.561	5
680.592	5
680.622	12
680.652	10
680.683	27
680.713	0
680.744	5
680.774	5
680.804	20
680.835	-10
680.865	-17
680.896	7
680.926	19
680.956	4
680.987	12
681.017	5
681.047	11
681.078	4
681.108	-3
681.139	-11
681.169	2
681.199	-3
681.23	3
681.26	6
681.29	-3
681.321	-6
681.351	3
681.381	-24
681.412	2
681.442	-6
681.472	16
681.503	25
681.533	1
681.563	-4
681.594	-6
681.624	-11
681.654	-11
681.685	-4
681.715	8
681.745	-2
681.775	7
681.806	-7
681.836	6
681.866	-1
681.897	4
681.927	2
681.957	-6
681.987	9
682.018	14
682.048	12
682.078	9
682.109	32
682.139	8
682.169	1
682.199	0
682.23	-21
682.26	-10
682.29	1
682.32	7
682.351	-1
682.381	-10
682.411	6
682.441	-15
682.472	-7
682.502	-11
682.532	19
682.562	15
682.592	22
682.623	18
682.653	6
682.683	-2
682.713	4
682.743	3
682.774	-1
682.804	5
682.834	36
682.864	4
682.894	-1
682.925	-1
682.955	8
682.985	14
683.015	6
683.045	20
683.076	1
683.106	1
683.136	-7
683.166	-3
683.196	1
683.226	-14
683.257	-10
683.287	-13
683.317	-6
683.347	-2
683.377	1
683.407	19
683.437	22
683.468	8
683.498	-11
683.528	21
683.558	14
683.588	-5
683.618	-2
683.648	1
683.678	8
683.708	19
683.739	10
683.769	0
683.799	5
683.829	7
683.859	7
683.889	13
683.919	15
683.949	-1
683.979	15
684.009	3
684.039	-2
684.07	1
684.1	24
684.13	12
684.16	1
684.19	-16
684.22	5
684.25	6
684.28	-3
684.31	34
684.34	16
684.37	5
684.4	-4
684.43	-2
684.46	0
684.49	2
684.52	18
684.55	17
684.58	4
684.61	5
684.64	11
684.67	17
684.7	-5
684.73	1
684.76	-9
684.79	14
684.82	-2
684.85	0
684.88	14
684.91	16
684.94	3
684.97	-13
685	-8
685.03	-11
685.06	3
685.09	8
685.12	28
685.15	-4
685.18	21
685.21	-11
685.24	16
685.27	16
685.3	2
685.33	7
685.36	2
685.39	16
685.42	1
685.45	14
685.48	5
685.51	-9
685.54	6
685.569	11
685.599	13
685.629	15
685.659	2
685.689	-10
685.719	4
685.749	11
685.779	12
685.809	12
685.839	22
685.869	24
685.898	17
685.928	0
685.958	6
685.988	12
686.018	1
686.048	0
686.078	20
686.108	15
686.137	7
686.167	18
686.197	-4
686.227	11
686.257	22
686.287	20
686.317	3
686.346	0
686.376	-1
686.406	-6
686.436	8
686.466	-2
686.496	10
686.525	12
686.555	8
686.585	20
686.615	21
686.645	20
686.675	-1
686.704	5
686.734	8
686.764	-11
686.794	-4
686.824	-3
686.853	1
686.883	21
686.913	20
686.943	8
686.973	-5
687.002	-6
687.032	7
687.062	1
687.092	4
687.121	1
687.151	3
687.181	4
687.211	19
687.24	12
687.27	-4
687.3	0
687.33	7
687.359	2
687.389	9
687.419	10
687.449	6
687.478	10
687.508	10
687.538	11
687.568	17
687.597	-3
687.627	10
687.657	9
687.686	14
687.716	15
687.746	-7
687.776	3
687.805	9
687.835	5
687.865	10
687.894	12
687.924	-5
687.954	-4
687.983	-1
688.013	5
688.043	12
688.072	-3
688.102	22
688.132	8
688.161	2
688.191	5
688.221	20
688.25	-9
688.28	0
688.31	8
688.339	-4
688.369	-1
688.399	-4
688.428	11
688.458	9
688.488	-5
688.517	3
688.547	30
688.576	35
688.606	16
688.636	-4
688.665	0
688.695	19
688.725	5
688.754	18
688.784	9
688.813	21
688.843	13
688.873	4
688.902	0
688.932	-8
688.961	12
688.991	15
689.02	18
689.05	5
689.08	32
689.109	11
689.139	-3
689.168	-10
689.198	3
689.227	5
689.257	8
689.287	9
689.316	7
689.346	-8
689.375	0
689.405	4
689.434	7
689.464	4
689.493	-1
689.523	8
689.552	-1
689.582	8
689.611	-7
689.641	9
689.67	5
689.7	-20
689.73	18
689.759	9
689.789	13
689.818	4
689.848	1
689.877	5
689.906	0
689.936	-2
689.965	27
689.995	6
690.024	25
690.054	14
690.083	5
690.113	15
690.142	7
690.172	13
690.201	17
690.231	-1
690.26	8
690.29	6
690.319	12
690.348	5
690.378	20
690.407	11
690.437	-2
690.466	15
690.496	5
690.525	4
690.555	-4
690.584	13
690.613	2
690.643	11
690.672	-1
690.702	2
690.731	2
690.76	28
690.79	52
690.819	58
690.849	38
690.878	17
690.907	41
690.937	23
690.966	20
690.996	6
691.025	7
691.054	8
691.084	21
691.113	17
691.142	5
691.172	3
691.201	16
691.23	21
691.26	12
691.289	2
691.319	12
691.348	5
691.377	20
691.407	16
691.436	30
691.465	-3
691.495	9
691.524	5
691.553	8
691.583	9
691.612	13
691.641	9
691.67	2
691.7	6
691.729	3
691.758	3
691.788	6
691.817	4
691.846	3
691.876	13
691.905	10
691.934	-3
691.963	8
691.993	3
692.022	-4
692.051	-11
692.081	1
692.11	14
692.139	6
692.168	2
692.198	29
692.227	27
692.256	13
692.285	-6
692.315	6
692.344	21
692.373	12
692.402	-11
692.432	-5
692.461	15
692.49	12
692.519	18
692.548	19
692.578	14
692.607	0
692.636	7
692.665	15
692.694	-7
692.724	-1
692.753	20
692.782	28
692.811	7
692.84	7
692.87	13
692.899	6
692.928	14
692.957	24
692.986	21
693.016	17
693.045	11
693.074	14
693.103	-4
693.132	8
693.161	4
693.191	7
693.22	6
693.249	-2
693.278	9
693.307	20
693.336	-6
693.365	4
693.395	6
693.424	0
693.453	28
693.482	10
693.511	8
693.54	-3
693.569	7
693.598	2
693.628	15
693.657	27
693.686	20
693.715	21
693.744	15
693.773	19
693.802	8
693.831	-8
693.86	13
693.889	-12
693.919	1
693.948	8
693.977	16
694.006	-6
694.035	2
694.064	-12
694.093	25
694.122	7
694.151	-6
694.18	17
694.209	30
694.238	13
694.267	29
694.296	21
694.325	11
694.354	12
694.383	6
694.412	6
694.441	9
694.471	-10
694.5	-14
694.529	15
694.558	37
694.587	10
694.616	17
694.645	12
694.674	20
694.703	27
694.732	6
694.761	22
694.79	14
694.819	-3
694.848	3
694.877	15
694.906	29
694.935	4
694.963	17
694.992	11
695.021	19
695.05	16
695.079	1
695.108	19
695.137	43
695.166	7
695.195	-4
695.224	14
695.253	3
695.282	23
695.311	14
695.34	-8
695.369	11
695.398	20
695.427	13
695.456	0
695.485	19
695.513	17
695.542	6
695.571	5
695.6	17
695.629	4
695.658	4
695.687	17
695.716	14
695.745	18
695.774	6
695.802	-7
695.831	4
695.86	20
695.889	18
695.918	9
695.947	8
695.976	12
696.005	12
696.033	18
696.062	19
696.091	18
696.12	13
696.149	28
696.178	7
696.207	12
696.235	-6
696.264	9
696.293	17
696.322	5
696.351	21
696.38	6
696.408	11
696.437	6
696.466	2
696.495	11
696.524	20
696.553	13
696.581	12
696.61	20
696.639	14
696.668	19
696.697	13
696.725	17
696.754	19
696.783	0
696.812	7
696.84	17
696.869	3
696.898	1
696.927	5
696.956	22
696.984	0
697.013	9
697.042	13
697.071	-3
697.099	18
697.128	16
697.157	17
697.186	6
697.214	14
697.243	3
697.272	10
697.301	15
697.329	15
697.358	2
697.387	41
697.415	15
697.444	11
697.473	10
697.502	3
697.53	3
697.559	10
697.588	12
697.616	10
697.645	1
697.674	10
697.703	-8
697.731	17
697.76	6
697.789	10
697.817	27
697.846	27
697.875	9
697.903	30
697.932	14
697.961	-3
697.989	7
698.018	19
698.047	11
698.075	14
698.104	-6
698.133	6
698.161	-6
698.19	1
698.218	10
698.247	6
698.276	2
698.304	6
698.333	2
698.362	9
698.39	5
698.419	-9
698.447	-6
698.476	11
698.505	30
698.533	0
698.562	2
698.591	-7
698.619	-14
698.648	-3
698.676	7
698.705	4
698.733	0
698.762	18
698.791	13
698.819	5
698.848	8
698.876	1
698.905	-10
698.933	15
698.962	22
698.991	9
699.019	0
699.048	9
699.076	14
699.105	1
699.133	13
699.162	4
699.19	25
699.219	31
699.248	4
699.276	20
699.305	-5
699.333	15
699.362	12
699.39	25
699.419	-4
699.447	23
699.476	17
699.504	0
699.533	1
699.561	-16
699.59	4
699.618	5
699.647	6
699.675	-8
699.704	16
699.732	14
699.761	18
699.789	21
699.818	16
699.846	-7
699.874	0
699.903	9
699.931	6
699.96	12
699.988	5
700.017	-2
700.045	8
700.074	1
700.102	0
700.13	10
700.159	18
700.187	9
700.216	1
700.244	1
700.273	7
700.301	6
700.329	19
700.358	3
700.386	2
700.415	3
700.443	7
700.472	8
700.5	16
700.528	6
700.557	6
700.585	-5
700.614	6
700.642	19
700.67	18
700.699	11
700.727	12
700.755	9
700.784	17
700.812	14
700.841	14
700.869	10
700.897	-9
700.926	-12
700.954	-5
700.982	14
701.011	6
701.039	10
701.067	-7
701.096	7
701.124	-5
701.152	17
701.181	2
701.209	2
701.237	7
701.266	12
701.294	-2
701.322	1
701.351	-3
701.379	14
701.407	4
701.435	9
701.464	10
701.492	25
701.52	18
701.549	21
701.577	10
701.605	0
701.634	-3
701.662	16
701.69	-8
701.718	-17
701.747	6
701.775	4
701.803	-8
701.831	7
701.86	12
701.888	0
701.916	8
701.944	-6
701.973	3
702.001	-13
702.029	1
702.057	3
702.086	6
702.114	-7
702.142	15
702.17	6
702.199	-14
702.227	0
702.255	0
702.283	4
702.311	5
702.34	-6
702.368	2
702.396	-7
702.424	5
702.452	5
702.481	-4
702.509	5
702.537	12
702.565	24
702.593	-11
702.621	10
702.65	15
702.678	14
702.706	8
702.734	-8
702.762	15
702.79	9
702.819	12
702.847	8
702.875	11
702.903	8
702.931	8
702.959	16
702.988	10
703.016	0
703.044	-4
703.072	0
703.1	-12
703.128	-12
703.156	9
703.184	7
703.212	13
703.241	14
703.269	-3
703.297	10
703.325	20
703.353	1
703.381	7
703.409	4
703.437	1
703.465	-9
703.493	-6
703.522	8
703.55	13
703.578	3
703.606	3
703.634	12
703.662	3
703.69	4
703.718	18
703.746	21
703.774	5
703.802	27
703.83	-3
703.858	23
703.886	5
703.914	13
703.942	11
703.97	0
703.998	1
704.027	26
704.055	5
704.083	10
704.111	-4
704.139	14
704.167	5
704.195	12
704.223	-6
704.251	4
704.279	-2
704.307	3
704.335	-1
704.363	11
704.391	3
704.419	1
704.447	-15
704.475	8
704.503	-6
704.531	10
704.558	5
704.586	-3
704.614	5
704.642	10
704.67	-14
704.698	3
704.726	1
704.754	-1
704.782	9
704.81	0
704.838	20
704.866	2
704.894	-19
704.922	-3
704.95	6
704.978	16
705.006	0
705.034	13
705.061	-12
705.089	6
705.117	-14
705.145	0
705.173	8
705.201	5
705.229	3
705.257	9
705.285	13
705.313	9
705.34	2
705.368	2
705.396	14
705.424	13
705.452	5
705.48	16
705.508	-10
705.536	2
705.563	1
705.591	1
705.619	7
705.647	-12
705.675	5
705.703	16
705.731	11
705.758	5
705.786	2
705.814	26
705.842	10
705.87	4
705.898	13
705.925	-2
705.953	18
705.981	-11
706.009	9
706.037	15
706.065	8
706.092	-4
706.12	4
706.148	-8
706.176	5
706.204	2
706.231	-2
706.259	-12
706.287	8
706.315	1
706.342	-1
706.37	-7
706.398	-4
706.426	2
706.454	-5
706.481	20
706.509	8
706.537	9
706.565	-10
706.592	26
706.62	-13
706.648	6
706.676	-8
706.703	11
706.731	13
706.759	-6
706.787	1
706.814	-12
706.842	-2
706.87	-12
706.897	7
706.925	8
706.953	27
706.981	12
707.008	6
707.036	19
707.064	9
707.091	-17
707.119	4
707.147	12
707.174	0
707.202	7
707.23	0
707.258	4
707.285	-21
707.313	-11
707.341	-11
707.368	5
707.396	2
707.424	22
707.451	3
707.479	13
707.507	15
707.534	-7
707.562	-5
707.59	-4
707.617	-3
707.645	4
707.672	-8
707.7	1
707.728	15
707.755	3
707.783	-4
707.811	9
707.838	-2
707.866	5
707.893	11
707.921	-4
707.949	-2
707.976	9
708.004	22
708.031	-2
708.059	6
708.087	7
708.114	-3
708.142	-3
708.169	4
708.197	-4
708.225	-4
708.252	9
708.28	12
708.307	-1
708.335	16
708.362	0
708.39	0
708.418	8
708.445	-5
708.473	-8
708.5	-7
708.528	-8
708.555	0
708.583	10
708.61	-2
708.638	18
708.665	-1
708.693	0
708.72	0
708.748	-11
708.776	0
708.803	23
708.831	16
708.858	10
708.886	5
708.913	1
708.941	6
708.968	8
708.996	-12
709.023	18
709.051	-5
709.078	-15
709.105	1
709.133	6
709.16	0
709.188	10
709.215	17
709.243	11
709.27	-7
709.298	3
709.325	5
709.353	8
709.38	20
709.408	2
709.435	0
709.462	-8
709.49	-7
709.517	-7
709.545	5
709.572	4
709.6	1
709.627	22
709.655	-8
709.682	-12
709.709	-6
709.737	5
709.764	-11
709.792	1
709.819	-2
709.846	-3
709.874	12
709.901	26
709.929	33
709.956	25
709.983	-3
710.011	-21
710.038	-5
710.066	6
710.093	11
710.12	21
710.148	-3
710.175	1
710.202	-3
710.23	1
710.257	4
710.284	15
710.312	10
710.339	0
710.366	0
710.394	-2
710.421	-7
710.448	3
710.476	-3
710.503	0
710.53	21
710.558	27
710.585	19
710.612	0
710.64	19
710.667	-6
710.694	-4
710.722	-3
710.749	-2
710.776	-14
710.804	25
710.831	9
710.858	18
710.885	14
710.913	7
710.94	30
710.967	13
710.995	1
711.022	0
711.049	0
711.076	-2
711.104	5
711.131	-11
711.158	0
711.185	13
711.213	5
711.24	6
711.267	-5
711.294	4
711.322	16
711.349	-8
711.376	2
711.403	5
711.431	0
711.458	-3
711.485	8
711.512	10
711.54	-2
711.567	4
711.594	-4
711.621	-13
711.648	10
711.676	15
711.703	11
711.73	-3
711.757	-1
711.784	-5
711.812	7
711.839	2
711.866	4
711.893	-3
711.92	2
711.947	9
711.975	15
712.002	13
712.029	20
712.056	22
712.083	13
712.11	-4
712.138	-5
712.165	-6
712.192	-1
712.219	-2
712.246	-17
712.273	-12
712.3	-6
712.328	10
712.355	5
712.382	0
712.409	20
712.436	-3
712.463	4
712.49	12
712.517	5
712.544	-12
712.572	2
712.599	4
712.626	24
712.653	2
712.68	-12
712.707	4
712.734	15
712.761	6
712.788	16
712.815	12
712.842	18
712.87	-7
712.897	3
712.924	6
712.951	-1
712.978	23
713.005	0
713.032	13
713.059	2
713.086	5
713.113	-1
713.14	-7
713.167	0
713.194	17
713.221	2
713.248	2
713.275	-9
713.302	-6
713.329	10
713.356	22
713.383	16
713.41	16
713.437	-14
713.464	5
713.491	14
713.518	5
713.545	-3
713.572	2
713.599	15
713.626	0
713.653	8
713.68	7
713.707	-14
713.734	15
713.761	8
713.788	8
713.815	2
713.842	3
713.869	-4
713.896	6
713.923	10
713.95	1
713.977	5
714.004	12
714.031	-9
714.058	0
714.085	1
714.112	8
714.139	-12
714.165	-3
714.192	-2
714.219	3
714.246	8
714.273	8
714.3	8
714.327	4
714.354	2
714.381	5
714.408	11
714.435	-12
714.461	15
714.488	20
714.515	-15
714.542	-15
714.569	-10
714.596	0
714.623	-3
714.65	-2
714.677	-6
714.703	7
714.73	4
714.757	-3
714.784	8
714.811	-8
714.838	-4
714.865	-23
714.891	4
714.918	1
714.945	6
714.972	-2
714.999	17
715.026	0
715.052	19
715.079	11
715.106	7
715.133	8
715.16	8
715.187	5
715.213	6
715.24	18
715.267	7
715.294	5
715.321	-12
715.347	-5
715.374	2
715.401	-8
715.428	-8
715.455	-8
715.481	-3
715.508	17
715.535	-1
715.562	21
715.588	22
715.615	-2
715.642	0
715.669	17
715.695	-5
715.722	-13
715.749	-14
715.776	14
715.802	11
715.829	10
715.856	5
715.883	20
715.909	-9
715.936	1
715.963	9
715.99	-3
716.016	12
716.043	14
716.07	12
716.096	-1
716.123	6
716.15	-4
716.177	25
716.203	9
716.23	25
716.257	16
716.283	15
716.31	10
716.337	1
716.363	-4
716.39	-7
716.417	21
716.443	11
716.47	35
716.497	6
716.523	12
716.55	14
716.577	28
716.603	0
716.63	8
716.657	11
716.683	-2
716.71	19
716.737	0
716.763	16
716.79	0
716.817	13
716.843	10
716.87	0
716.897	-11
716.923	19
716.95	-3
716.976	-7
717.003	0
717.03	6
717.056	0
717.083	19
717.109	15
717.136	8
717.163	-10
717.189	17
717.216	-2
717.242	-7
717.269	2
717.296	20
717.322	21
717.349	26
717.375	14
717.402	-8
717.428	-2
717.455	15
717.481	4
717.508	11
717.535	3
717.561	2
717.588	3
717.614	15
717.641	-4
717.667	0
717.694	1
717.72	4
717.747	4
717.773	-7
717.8	1
717.826	0
717.853	8
717.88	4
717.906	10
717.933	6
717.959	5
717.986	10
718.012	-1
718.039	14
718.065	30
718.092	1
718.118	6
718.144	8
718.171	20
718.197	32
718.224	10
718.25	12
718.277	5
718.303	5
718.33	13
718.356	2
718.383	-5
718.409	-10
718.436	-10
718.462	5
718.489	-5
718.515	15
718.541	-8
718.568	-4
718.594	-6
718.621	9
718.647	10
718.674	22
718.7	12
718.726	1
718.753	5
718.779	17
718.806	1
718.832	7
718.858	5
718.885	-14
718.911	4
718.938	-6
718.964	-10
718.99	7
719.017	11
719.043	22
719.07	18
719.096	-15
719.122	1
719.149	4
719.175	8
719.201	-2
719.228	8
719.254	9
719.281	-3
719.307	-5
719.333	8
719.36	20
719.386	5
719.412	3
719.439	-3
719.465	6
719.491	5
719.518	16
719.544	15
719.57	6
719.597	11
719.623	13
719.649	-5
719.675	-12
719.702	10
719.728	9
719.754	-3
719.781	4
719.807	9
719.833	0
719.86	4
719.886	1
719.912	3
719.938	-4
719.965	-6
719.991	17
720.017	0
720.044	-6
720.07	9
720.096	7
720.122	-6
720.149	16
720.175	17
720.201	7
720.227	-4
720.254	11
720.28	14
720.306	5
720.332	1
720.359	9
720.385	-4
720.411	12
720.437	12
720.463	-2
720.49	14
720.516	-3
720.542	1
720.568	4
720.595	13
720.621	8
720.647	11
720.673	10
720.699	3
720.725	-3
720.752	0
720.778	12
720.804	10
720.83	17
720.856	3
720.883	-10
720.909	-8
720.935	13
720.961	27
720.987	13
721.013	4
721.04	0
721.066	2
721.092	6
721.118	7
721.144	9
721.17	0
721.196	11
721.223	-1
721.249	-7
721.275	7
721.301	2
721.327	19
721.353	7
721.379	6
721.405	10
721.432	11
721.458	4
721.484	21
721.51	-6
721.536	11
721.562	-2
721.588	8
721.614	6
721.64	6
721.666	-1
721.693	-11
721.719	3
721.745	0
721.771	11
721.797	11
721.823	8
721.849	23
721.875	17
721.901	22
721.927	14
721.953	24
721.979	17
722.005	12
722.031	14
722.057	7
722.083	13
722.109	14
722.135	25
722.161	25
722.187	10
722.214	5
722.24	3
722.266	9
722.292	16
722.318	12
722.344	-4
722.37	9
722.396	5
722.422	9
722.448	9
722.474	0
722.5	4
722.526	-3
722.552	-10
722.578	-4
722.603	17
722.629	4
722.655	11
722.681	-2
722.707	11
722.733	3
722.759	7
722.785	4
722.811	13
722.837	14
722.863	7
722.889	4
722.915	8
722.941	-8
722.967	5
722.993	18
723.019	9
723.045	1
723.071	3
723.097	-4
723.122	1
723.148	4
723.174	-6
723.2	8
723.226	-3
723.252	2
723.278	5
723.304	2
723.33	19
723.356	-13
723.381	-15
723.407	-10
723.433	4
723.459	2
723.485	2
723.511	14
723.537	-1
723.563	-4
723.588	-1
723.614	12
723.64	-5
723.666	4
723.692	21
723.718	5
723.744	11
723.769	8
723.795	-6
723.821	-1
723.847	1
723.873	10
723.899	4
723.924	3
723.95	1
723.976	-23
724.002	4
724.028	4
724.053	3
724.079	17
724.105	7
724.131	4
724.157	-9
724.182	10
724.208	2
724.234	9
724.26	8
724.286	34
724.311	6
724.337	2
724.363	-6
724.389	20
724.415	13
724.44	8
724.466	-6
724.492	-2
724.518	6
724.543	-11
724.569	28
724.595	7
724.621	1
724.646	-3
724.672	-2
724.698	-11
724.723	1
724.749	-6
724.775	12
724.801	0
724.826	2
724.852	3
724.878	-3
724.904	-7
724.929	13
724.955	-4
724.981	-2
725.006	-5
725.032	2
725.058	8
725.083	-7
725.109	-2
725.135	0
725.161	9
725.186	-4
725.212	6
725.238	1
725.263	10
725.289	-6
725.315	-8
725.34	-4
725.366	1
725.392	4
725.417	-4
725.443	-5
725.468	11
725.494	5
725.52	10
725.545	4
725.571	6
725.597	13
725.622	6
725.648	19
725.674	-2
725.699	11
725.725	8
725.75	37
725.776	-10
725.802	4
725.827	6
725.853	-10
725.878	13
725.904	1
725.93	1
725.955	4
725.981	-6
726.006	-4
726.032	2
726.057	15
726.083	5
726.109	3
726.134	19
726.16	12
726.185	2
726.211	-5
726.236	6
726.262	15
726.288	17
726.313	2
726.339	-1
726.364	2
726.39	9
726.415	3
726.441	9
726.466	2
726.492	0
726.517	-3
726.543	5
726.568	3
726.594	-6
726.619	19
726.645	5
726.67	14
726.696	10
726.721	-14
726.747	-10
726.772	-14
726.798	-3
726.823	17
726.849	8
726.874	14
726.9	26
726.925	16
726.951	7
726.976	8
727.002	13
727.027	19
727.053	11
727.078	-1
727.104	-7
727.129	-11
727.155	10
727.18	0
727.205	2
727.231	10
727.256	-2
727.282	23
727.307	24
727.333	-2
727.358	-3
727.383	-3
727.409	-21
727.434	9
727.46	-6
727.485	10
727.511	12
727.536	-7
727.561	3
727.587	-8
727.612	-5
727.637	-6
727.663	-2
727.688	5
727.714	14
727.739	6
727.764	8
727.79	-1
727.815	1
727.841	18
727.866	10
727.891	5
727.917	-2
727.942	4
727.967	1
727.993	-5
728.018	-4
728.043	3
728.069	14
728.094	1
728.119	-8
728.145	9
728.17	7
728.195	5
728.221	15
728.246	2
728.271	-23
728.297	2
728.322	15
728.347	9
728.373	4
728.398	11
728.423	-2
728.448	-2
728.474	2
728.499	2
728.524	-15
728.55	-5
728.575	4
728.6	8
728.625	10
728.651	26
728.676	0
728.701	5
728.727	3
728.752	-3
728.777	-11
728.802	13
728.828	17
728.853	2
728.878	-7
728.903	7
728.929	-5
728.954	-11
728.979	17
729.004	6
729.03	-14
729.055	10
729.08	1
729.105	-3
729.13	28
729.156	8
729.181	6
729.206	-19
729.231	-6
729.256	-4
729.282	12
729.307	-7
729.332	-5
729.357	5
729.382	3
729.408	12
729.433	25
729.458	6
729.483	6
729.508	24
729.533	7
729.559	6
729.584	-20
729.609	6
729.634	2
729.659	5
729.684	3
729.71	22
729.735	13
729.76	-5
729.785	-10
729.81	19
729.835	1
729.86	10
729.886	20
729.911	7
729.936	21
729.961	30
729.986	12
730.011	70
730.036	200
730.061	1040
730.086	2784
730.112	3456
730.137	2885
730.162	2176
730.187	1710
730.212	1314
730.237	825
730.262	472
730.287	233
730.312	153
730.337	81
730.362	72
730.387	40
730.413	21
730.438	30
730.463	13
730.488	7
730.513	14
730.538	10
730.563	26
730.588	16
730.613	12
730.638	13
730.663	-6
730.688	21
730.713	14
730.738	4
730.763	0
730.788	-12
730.813	9
730.838	10
730.863	9
730.888	1
730.913	4
730.938	7
730.963	25
730.988	117
731.013	421
731.038	676
731.063	624
731.088	479
731.113	353
731.138	272
731.163	212
731.188	115
731.213	70
731.238	52
731.263	26
731.288	6
731.313	16
731.338	-1
731.363	12
731.388	3
731.413	4
731.438	5
731.463	22
731.487	26
731.512	-8
731.537	-4
731.562	6
731.587	7
731.612	-5
731.637	3
731.662	24
731.687	-6
731.712	-21
731.737	9
731.762	14
731.786	12
731.811	5
731.836	25
731.861	3
731.886	-3
731.911	9
731.936	16
731.961	10
731.986	-4
732.01	9
732.035	5
732.06	19
732.085	17
732.11	-4
732.135	-9
732.16	6
732.184	16
732.209	18
732.234	18
732.259	-2
732.284	17
732.309	-3
732.334	8
732.358	-7
732.383	-10
732.408	-3
732.433	9
732.458	10
732.482	10
732.507	-4
732.532	9
732.557	22
732.582	14
732.607	21
732.631	56
732.656	100
732.681	158
732.706	345
732.73	487
732.755	405
732.78	308
732.805	265
732.83	174
732.854	149
732.879	109
732.904	47
732.929	18
732.953	25
732.978	2
733.003	10
733.028	3
733.052	17
733.077	2
733.102	13
733.127	-4
733.151	9
733.176	11
733.201	-1
733.226	-2
733.25	4
733.275	-4
733.3	3
733.324	7
733.349	10
733.374	28
733.399	9
733.423	15
733.448	4
733.473	6
733.497	0
733.522	-12
733.547	20
733.571	32
733.596	4
733.621	9
733.646	-4
733.67	-1
733.695	10
733.72	20
733.744	12
733.769	-3
733.794	29
733.818	5
733.843	2
733.867	-19
733.892	-3
733.917	-7
733.941	4
733.966	-3
733.991	11
734.015	19
734.04	10
734.065	2
734.089	19
734.114	11
734.138	16
734.163	-12
734.188	-8
734.212	14
734.237	4
734.261	4
734.286	-12
734.311	0
734.335	3
734.36	-2
734.384	17
734.409	13
734.434	-5
734.458	10
734.483	8
734.507	-10
734.532	2
734.556	2
734.581	-7
734.606	-12
734.63	0
734.655	6
734.679	1
734.704	-3
734.728	-3
734.753	-3
734.777	9
734.802	9
734.826	0
734.851	5
734.876	25
734.9	8
734.925	11
734.949	-10
734.974	-2
734.998	2
735.023	-5
735.047	-5
735.072	11
735.096	-6
735.121	6
735.145	11
735.17	-3
735.194	39
735.219	-12
735.243	5
735.268	20
735.292	5
735.317	0
735.341	7
735.365	-5
735.39	14
735.414	9
735.439	8
735.463	5
735.488	1
735.512	10
735.537	-4
735.561	3
735.586	0
735.61	4
735.634	-4
735.659	-12
735.683	18
735.708	0
735.732	3
735.757	0
735.781	-12
735.805	-1
735.83	-6
735.854	-3
735.879	0
735.903	20
735.927	9
735.952	9
735.976	5
736.001	0
736.025	-7
736.049	13
736.074	16
736.098	-3
736.123	8
736.147	4
736.171	8
736.196	5
736.22	-1
736.244	4
736.269	17
736.293	0
736.317	4
736.342	0
736.366	22
736.39	12
736.415	10
736.439	4
736.463	5
736.488	15
736.512	1
736.536	6
736.561	13
736.585	12
736.609	11
736.634	7
736.658	14
736.682	-6
736.707	-15
736.731	-7
736.755	9
736.78	23
736.804	19
736.828	10
736.852	-13
736.877	17
736.901	14
736.925	6
736.949	8
736.974	5
736.998	-1
737.022	13
737.047	4
737.071	0
737.095	9
737.119	20
737.144	7
737.168	8
737.192	-9
737.216	-7
737.241	-15
737.265	9
737.289	7
737.313	-8
737.337	5
737.362	8
737.386	-4
737.41	2
737.434	-2
737.459	1
737.483	1
737.507	10
737.531	22
737.555	2
737.58	22
737.604	-12
737.628	-13
737.652	-4
737.676	0
737.701	12
737.725	14
737.749	1
737.773	-3
737.797	-1
737.821	-10
737.846	19
737.87	29
737.894	0
737.918	0
737.942	4
737.966	21
737.99	5
738.015	-3
738.039	17
738.063	-4
738.087	4
738.111	8
738.135	24
738.159	12
738.184	3
738.208	27
738.232	12
738.256	33
738.28	24
738.304	17
738.328	8
738.352	11
738.376	10
738.4	22
738.425	16
738.449	-4
738.473	20
738.497	27
738.521	8
738.545	-2
738.569	0
738.593	17
738.617	15
738.641	7
738.665	-4
738.689	20
738.713	16
738.737	17
738.762	15
738.786	12
738.81	-3
738.834	13
738.858	-7
738.882	12
738.906	4
738.93	10
738.954	18
738.978	19
739.002	11
739.026	33
739.05	8
739.074	8
739.098	12
739.122	20
739.146	6
739.17	7
739.194	8
739.218	-2
739.242	10
739.266	-5
739.29	4
739.314	17
739.338	9
739.362	12
739.386	2
739.41	-5
739.434	5
739.458	30
739.482	18
739.506	1
739.53	1
739.554	31
739.577	2
739.601	16
739.625	1
739.649	-2
739.673	-5
739.697	6
739.721	19
739.745	19
739.769	19
739.793	10
739.817	16
739.841	1
739.865	5
739.889	-4
739.912	14
739.936	-11
739.96	-12
739.984	3
740.008	-10
740.032	4
740.056	-6
740.08	1
740.104	-8
740.127	20
740.151	14
740.175	7
740.199	11
740.223	48
740.247	13
740.271	4
740.295	3
740.318	-11
740.342	-2
740.366	13
740.39	5
740.414	1
740.438	0
740.461	24
740.485	5
740.509	5
740.533	30
740.557	0
740.581	10
740.604	-7
740.628	0
740.652	9
740.676	0
740.7	12
740.723	2
740.747	4
740.771	16
740.795	7
740.819	4
740.842	7
740.866	8
740.89	-2
740.914	-9
740.938	-8
740.961	5
740.985	6
741.009	4
741.033	12
741.056	9
741.08	-3
741.104	-5
741.128	3
741.151	9
741.175	-4
741.199	-3
741.223	0
741.246	-9
741.27	9
741.294	7
741.318	15
741.341	17
741.365	7
741.389	3
741.413	21
741.436	19
741.46	21
741.484	10
741.507	2
741.531	18
741.555	11
741.579	0
741.602	1
741.626	10
741.65	8
741.673	13
741.697	29
741.721	1
741.744	-9
741.768	6
741.792	-4
741.815	6
741.839	19
741.863	24
741.886	18
741.91	20
741.934	-9
741.957	-10
741.981	23
742.005	12
742.028	3
742.052	-2
742.075	-9
742.099	-8
742.123	0
742.146	-6
742.17	8
742.194	-1
742.217	6
742.241	6
742.264	-4
742.288	40
742.312	7
742.335	8
742.359	-3
742.382	19
742.406	20
742.43	8
742.453	12
742.477	-5
742.5	10
742.524	-2
742.548	-6
742.571	-6
742.595	0
742.618	1
742.642	-9
742.665	10
742.689	0
742.712	12
742.736	-2
742.76	3
742.783	-3
742.807	9
742.83	16
742.854	3
742.877	0
742.901	5
742.924	9
742.948	9
742.971	1
742.995	9
743.018	4
743.042	-4
743.065	5
743.089	5
743.112	12
743.136	4
743.159	-7
743.183	10
743.206	18
743.23	-13
743.253	2
743.277	1
743.3	10
743.324	2
743.347	-10
743.371	13
743.394	14
743.418	32
743.441	2
743.465	-2
743.488	0
743.512	1
743.535	11
743.558	12
743.582	6
743.605	12
743.629	12
743.652	15
743.676	-4
743.699	23
743.723	17
743.746	1
743.769	17
743.793	-7
743.816	2
743.84	20
743.863	12
743.886	17
743.91	28
743.933	0
743.957	15
743.98	5
744.003	6
744.027	4
744.05	-4
744.074	-5
744.097	-10
744.12	-5
744.144	-8
744.167	-1
744.19	-6
744.214	-3
744.237	-7
744.26	4
744.284	-4
744.307	-11
744.331	-3
744.354	-14
744.377	-3
744.401	2
744.424	17
744.447	-15
744.471	4
