Data from HighRes_mercury_15_13_11_07_2024_HR4C61891__92__15-14-32-385.txt Node

Date: Thu Nov 07 15:14:32 EST 2024
User: crc00042
Spectrometer: HR4C6189
Trigger mode: 4
Integration Time (sec): 1.000000E-1
Scans to average: 1
Electric dark correction enabled: true
Nonlinearity correction enabled: false
Boxcar width: 0
XAxis mode: Wavelengths
Number of Pixels in Spectrum: 3648
>>>>>Begin Spectral Data<<<<<
639.567	-63.15
639.602	-63.15
639.636	-63.15
639.67	-39.15
639.704	-14.15
639.738	10.85
639.773	1.85
639.807	-23.15
639.841	-10.15
639.875	2.85
639.909	-1.15
639.943	-3.15
639.978	-7.15
640.012	-8.15
640.046	20.85
640.08	12.85
640.114	5.85
640.148	-2.15
640.182	1.85
640.217	-2.15
640.251	39.85
640.285	8.85
640.319	-15.15
640.353	-1.15
640.387	2.85
640.421	-10.15
640.455	-14.15
640.49	-3.15
640.524	-15.15
640.558	-5.15
640.592	15.85
640.626	5.85
640.66	-3.15
640.694	-10.15
640.728	4.85
640.762	2.85
640.796	19.85
640.83	12.85
640.865	-5.15
640.899	21.85
640.933	19.85
640.967	-1.15
641.001	8.85
641.035	8.85
641.069	-7.15
641.103	2.85
641.137	1.85
641.171	-10.15
641.205	17.85
641.239	7.85
641.273	13.85
641.307	8.85
641.341	5.85
641.375	8.85
641.409	2.85
641.443	5.85
641.477	8.85
641.511	22.85
641.545	-1.15
641.579	-3.15
641.614	9.85
641.648	11.85
641.682	-3.15
641.716	25.85
641.75	21.85
641.784	1.85
641.818	4.85
641.852	7.85
641.886	-3.15
641.919	41.85
641.953	8.85
641.987	-2.15
642.021	-0.15
642.055	10.85
642.089	4.85
642.123	-7.15
642.157	-3.15
642.191	-7.15
642.225	9.85
642.259	-6.15
642.293	16.85
642.327	0.85
642.361	6.85
642.395	-4.15
642.429	7.85
642.463	7.85
642.497	8.85
642.531	-6.15
642.565	-6.15
642.599	10.85
642.633	-4.15
642.666	9.85
642.7	21.85
642.734	7.85
642.768	-2.15
642.802	-19.15
642.836	-12.15
642.87	-7.15
642.904	13.85
642.938	-8.15
642.972	-6.15
643.005	-13.15
643.039	8.85
643.073	-15.15
643.107	12.85
643.141	-9.15
643.175	6.85
643.209	1.85
643.243	12.85
643.276	8.85
643.31	-0.15
643.344	2.85
643.378	-10.15
643.412	7.85
643.446	-4.15
643.48	-13.15
643.513	0.85
643.547	-3.15
643.581	-0.15
643.615	2.85
643.649	7.85
643.683	-3.15
643.716	3.85
643.75	17.85
643.784	-8.15
643.818	1.85
643.852	-7.15
643.886	2.85
643.919	2.85
643.953	-9.15
643.987	-1.15
644.021	14.85
644.055	7.85
644.088	0.85
644.122	-3.15
644.156	-4.15
644.19	8.85
644.224	8.85
644.257	12.85
644.291	1.85
644.325	8.85
644.359	1.85
644.392	17.85
644.426	3.85
644.46	-18.15
644.494	-7.15
644.527	-8.15
644.561	0.85
644.595	-2.15
644.629	-20.15
644.662	-1.15
644.696	33.85
644.73	14.85
644.764	10.85
644.797	-12.15
644.831	-12.15
644.865	2.85
644.899	16.85
644.932	18.85
644.966	-0.15
645	11.85
645.033	31.85
645.067	-8.15
645.101	14.85
645.135	15.85
645.168	-0.15
645.202	-18.15
645.236	1.85
645.269	2.85
645.303	6.85
645.337	-17.15
645.37	-2.15
645.404	-2.15
645.438	-4.15
645.471	4.85
645.505	9.85
645.539	-11.15
645.572	-17.15
645.606	-6.15
645.64	-2.15
645.673	9.85
645.707	23.85
645.741	16.85
645.774	1.85
645.808	3.85
645.842	-15.15
645.875	-6.15
645.909	1.85
645.943	-5.15
645.976	9.85
646.01	-1.15
646.043	9.85
646.077	15.85
646.111	5.85
646.144	15.85
646.178	-1.15
646.212	-35.15
646.245	-3.15
646.279	9.85
646.312	7.85
646.346	21.85
646.38	-0.15
646.413	15.85
646.447	11.85
646.48	1.85
646.514	9.85
646.547	5.85
646.581	3.85
646.615	-4.15
646.648	-3.15
646.682	1.85
646.715	1.85
646.749	2.85
646.782	5.85
646.816	-2.15
646.85	-4.15
646.883	3.85
646.917	5.85
646.95	6.85
646.984	1.85
647.017	-4.15
647.051	4.85
647.084	-0.15
647.118	-10.15
647.151	1.85
647.185	4.85
647.218	0.85
647.252	21.85
647.285	-9.15
647.319	-21.15
647.353	-1.15
647.386	38.85
647.42	5.85
647.453	-1.15
647.487	1.85
647.52	-8.15
647.553	3.85
647.587	15.85
647.62	-1.15
647.654	8.85
647.687	15.85
647.721	1.85
647.754	6.85
647.788	-6.15
647.821	-3.15
647.855	15.85
647.888	24.85
647.922	15.85
647.955	6.85
647.989	22.85
648.022	9.85
648.055	-4.15
648.089	0.85
648.122	13.85
648.156	-8.15
648.189	3.85
648.223	24.85
648.256	16.85
648.29	13.85
648.323	12.85
648.356	23.85
648.39	22.85
648.423	3.85
648.457	-6.15
648.49	5.85
648.523	3.85
648.557	-25.15
648.59	3.85
648.624	-0.15
648.657	-7.15
648.69	20.85
648.724	4.85
648.757	25.85
648.791	12.85
648.824	0.85
648.857	24.85
648.891	1.85
648.924	16.85
648.957	30.85
648.991	-6.15
649.024	7.85
649.057	-15.15
649.091	-14.15
649.124	15.85
649.158	6.85
649.191	17.85
649.224	8.85
649.258	1.85
649.291	0.85
649.324	2.85
649.358	1.85
649.391	7.85
649.424	4.85
649.458	15.85
649.491	10.85
649.524	-4.15
649.557	-13.15
649.591	-29.15
649.624	16.85
649.657	2.85
649.691	-3.15
649.724	-6.15
649.757	-7.15
649.791	0.85
649.824	14.85
649.857	7.85
649.89	11.85
649.924	-10.15
649.957	1.85
649.99	-5.15
650.023	2.85
650.057	3.85
650.09	21.85
650.123	-3.15
650.157	12.85
650.19	10.85
650.223	6.85
650.256	-15.15
650.29	-6.15
650.323	-3.15
650.356	12.85
650.389	5.85
650.423	9.85
650.456	9.85
650.489	-1.15
650.522	-11.15
650.555	11.85
650.589	21.85
650.622	-6.15
650.655	16.85
650.688	-1.15
650.721	4.85
650.755	12.85
650.788	13.85
650.821	6.85
650.854	0.85
650.887	0.85
650.921	-20.15
650.954	-2.15
650.987	2.85
651.02	7.85
651.053	-17.15
651.087	-3.15
651.12	30.85
651.153	4.85
651.186	-5.15
651.219	-4.15
651.252	-0.15
651.286	19.85
651.319	6.85
651.352	6.85
651.385	3.85
651.418	0.85
651.451	15.85
651.484	5.85
651.518	-6.15
651.551	14.85
651.584	-12.15
651.617	-4.15
651.65	-3.15
651.683	19.85
651.716	7.85
651.749	-2.15
651.783	-0.15
651.816	1.85
651.849	3.85
651.882	20.85
651.915	11.85
651.948	11.85
651.981	-1.15
652.014	-10.15
652.047	-13.15
652.08	-19.15
652.114	-7.15
652.147	-0.15
652.18	17.85
652.213	6.85
652.246	-11.15
652.279	-4.15
652.312	23.85
652.345	-18.15
652.378	9.85
652.411	14.85
652.444	-1.15
652.477	-7.15
652.51	17.85
652.543	-10.15
652.576	-5.15
652.609	-7.15
652.642	5.85
652.675	9.85
652.709	8.85
652.742	13.85
652.775	-3.15
652.808	8.85
652.841	15.85
652.874	2.85
652.907	-6.15
652.94	-15.15
652.973	-8.15
653.006	1.85
653.039	4.85
653.072	4.85
653.105	18.85
653.138	-8.15
653.171	2.85
653.204	4.85
653.237	-0.15
653.27	5.85
653.303	1.85
653.336	5.85
653.368	0.85
653.401	15.85
653.434	-6.15
653.467	0.85
653.5	-17.15
653.533	-8.15
653.566	-21.15
653.599	13.85
653.632	13.85
653.665	-0.15
653.698	-2.15
653.731	-5.15
653.764	-4.15
653.797	2.85
653.83	10.85
653.863	-15.15
653.896	-4.15
653.929	-9.15
653.961	0.85
653.994	1.85
654.027	-8.15
654.06	5.85
654.093	5.85
654.126	-4.15
654.159	-5.15
654.192	1.85
654.225	-7.15
654.258	5.85
654.29	20.85
654.323	7.85
654.356	-9.15
654.389	6.85
654.422	-20.15
654.455	-3.15
654.488	-11.15
654.521	-6.15
654.553	-5.15
654.586	5.85
654.619	0.85
654.652	-7.15
654.685	19.85
654.718	18.85
654.751	11.85
654.783	1.85
654.816	20.85
654.849	9.85
654.882	-7.15
654.915	4.85
654.948	3.85
654.98	-9.15
655.013	2.85
655.046	-10.15
655.079	-2.15
655.112	14.85
655.144	-13.15
655.177	17.85
655.21	7.85
655.243	5.85
655.276	10.85
655.308	-2.15
655.341	-1.15
655.374	4.85
655.407	-3.15
655.44	-9.15
655.472	5.85
655.505	13.85
655.538	-0.15
655.571	30.85
655.603	-7.15
655.636	-8.15
655.669	0.85
655.702	9.85
655.734	-1.15
655.767	-0.15
655.8	4.85
655.833	6.85
655.865	5.85
655.898	8.85
655.931	0.85
655.964	4.85
655.996	-11.15
656.029	-10.15
656.062	-2.15
656.095	5.85
656.127	-7.15
656.16	-11.15
656.193	-2.15
656.225	-10.15
656.258	2.85
656.291	10.85
656.324	1.85
656.356	14.85
656.389	5.85
656.422	6.85
656.454	0.85
656.487	-0.15
656.52	5.85
656.552	4.85
656.585	2.85
656.618	10.85
656.65	19.85
656.683	13.85
656.716	10.85
656.748	1.85
656.781	1.85
656.814	2.85
656.846	11.85
656.879	4.85
656.912	4.85
656.944	-7.15
656.977	-10.15
657.01	-1.15
657.042	8.85
657.075	5.85
657.108	-17.15
657.14	-1.15
657.173	14.85
657.205	24.85
657.238	-1.15
657.271	13.85
657.303	-16.15
657.336	-7.15
657.369	0.85
657.401	-3.15
657.434	-7.15
657.466	4.85
657.499	0.85
657.532	-15.15
657.564	9.85
657.597	3.85
657.629	0.85
657.662	-13.15
657.694	-1.15
657.727	-15.15
657.76	9.85
657.792	-3.15
657.825	-12.15
657.857	-11.15
657.89	6.85
657.922	4.85
657.955	2.85
657.987	10.85
658.02	16.85
658.053	13.85
658.085	2.85
658.118	-3.15
658.15	-6.15
658.183	17.85
658.215	4.85
658.248	-6.15
658.28	-14.15
658.313	10.85
658.345	10.85
658.378	4.85
658.41	1.85
658.443	18.85
658.475	1.85
658.508	-16.15
658.54	-31.15
658.573	-7.15
658.605	0.85
658.638	6.85
658.67	-7.15
658.703	-0.15
658.735	-2.15
658.768	1.85
658.8	-11.15
658.833	17.85
658.865	-2.15
658.898	7.85
658.93	0.85
658.963	-5.15
658.995	1.85
659.028	1.85
659.06	-18.15
659.092	-8.15
659.125	-13.15
659.157	1.85
659.19	-4.15
659.222	-10.15
659.255	-5.15
659.287	0.85
659.32	-0.15
659.352	-9.15
659.384	2.85
659.417	-3.15
659.449	9.85
659.482	-1.15
659.514	-14.15
659.546	7.85
659.579	0.85
659.611	18.85
659.644	4.85
659.676	-4.15
659.708	-17.15
659.741	1.85
659.773	-6.15
659.806	6.85
659.838	-9.15
659.87	4.85
659.903	-16.15
659.935	2.85
659.967	6.85
660	9.85
660.032	-22.15
660.065	-0.15
660.097	0.85
660.129	6.85
660.162	5.85
660.194	19.85
660.226	-1.15
660.259	-1.15
660.291	-2.15
660.323	1.85
660.356	-9.15
660.388	-3.15
660.42	9.85
660.453	8.85
660.485	24.85
660.517	34.85
660.55	7.85
660.582	9.85
660.614	22.85
660.647	-1.15
660.679	-21.15
660.711	23.85
660.743	-12.15
660.776	-11.15
660.808	-11.15
660.84	-12.15
660.873	4.85
660.905	5.85
660.937	6.85
660.969	0.85
661.002	-4.15
661.034	13.85
661.066	4.85
661.099	7.85
661.131	28.85
661.163	21.85
661.195	5.85
661.228	17.85
661.26	-1.15
661.292	4.85
661.324	-3.15
661.357	-1.15
661.389	1.85
661.421	9.85
661.453	1.85
661.485	14.85
661.518	0.85
661.55	-5.15
661.582	-20.15
661.614	1.85
661.647	10.85
661.679	15.85
661.711	10.85
661.743	-14.15
661.775	1.85
661.808	11.85
661.84	-28.15
661.872	1.85
661.904	-4.15
661.936	2.85
661.969	-9.15
662.001	-11.15
662.033	7.85
662.065	-18.15
662.097	22.85
662.129	-1.15
662.162	3.85
662.194	-0.15
662.226	-1.15
662.258	1.85
662.29	-14.15
662.322	1.85
662.355	-14.15
662.387	30.85
662.419	16.85
662.451	6.85
662.483	-0.15
662.515	-6.15
662.547	-1.15
662.58	5.85
662.612	-1.15
662.644	-15.15
662.676	2.85
662.708	17.85
662.74	-1.15
662.772	4.85
662.804	11.85
662.836	18.85
662.869	2.85
662.901	12.85
662.933	5.85
662.965	16.85
662.997	12.85
663.029	6.85
663.061	-9.15
663.093	-19.15
663.125	1.85
663.157	9.85
663.189	-13.15
663.221	-0.15
663.254	7.85
663.286	1.85
663.318	-2.15
663.35	-10.15
663.382	0.85
663.414	4.85
663.446	2.85
663.478	3.85
663.51	24.85
663.542	0.85
663.574	13.85
663.606	-1.15
663.638	-4.15
663.67	4.85
663.702	-5.15
663.734	-1.15
663.766	-3.15
663.798	-10.15
663.83	2.85
663.862	2.85
663.894	9.85
663.926	-3.15
663.958	3.85
663.99	-4.15
664.022	-16.15
664.054	5.85
664.086	-4.15
664.118	-16.15
664.15	-14.15
664.182	3.85
664.214	2.85
664.246	25.85
664.278	13.85
664.31	1.85
664.342	13.85
664.374	-10.15
664.406	14.85
664.438	0.85
664.47	19.85
664.502	-1.15
664.534	-9.15
664.566	-16.15
664.598	17.85
664.63	-2.15
664.662	0.85
664.693	-4.15
664.725	-12.15
664.757	-12.15
664.789	-7.15
664.821	-3.15
664.853	14.85
664.885	8.85
664.917	4.85
664.949	4.85
664.981	24.85
665.013	0.85
665.045	-8.15
665.076	-24.15
665.108	-4.15
665.14	-7.15
665.172	-7.15
665.204	-0.15
665.236	-5.15
665.268	20.85
665.3	-10.15
665.331	-13.15
665.363	-6.15
665.395	-0.15
665.427	-8.15
665.459	-2.15
665.491	-5.15
665.523	4.85
665.555	5.85
665.586	6.85
665.618	0.85
665.65	-22.15
665.682	5.85
665.714	0.85
665.746	6.85
665.777	9.85
665.809	-15.15
665.841	-8.15
665.873	-12.15
665.905	-1.15
665.937	8.85
665.968	2.85
666	3.85
666.032	2.85
666.064	-2.15
666.096	9.85
666.127	29.85
666.159	25.85
666.191	20.85
666.223	4.85
666.255	5.85
666.286	-8.15
666.318	-2.15
666.35	9.85
666.382	19.85
666.413	4.85
666.445	-8.15
666.477	-12.15
666.509	-10.15
666.54	6.85
666.572	-2.15
666.604	-3.15
666.636	-9.15
666.667	10.85
666.699	5.85
666.731	1.85
666.763	4.85
666.794	6.85
666.826	-6.15
666.858	-25.15
666.89	13.85
666.921	20.85
666.953	16.85
666.985	12.85
667.017	24.85
667.048	-9.15
667.08	-3.15
667.112	-1.15
667.143	-15.15
667.175	0.85
667.207	-8.15
667.238	-5.15
667.27	-18.15
667.302	2.85
667.334	-13.15
667.365	20.85
667.397	-1.15
667.429	-6.15
667.46	17.85
667.492	11.85
667.524	-2.15
667.555	-23.15
667.587	-2.15
667.619	17.85
667.65	-13.15
667.682	4.85
667.714	8.85
667.745	17.85
667.777	1.85
667.808	7.85
667.84	4.85
667.872	8.85
667.903	24.85
667.935	-0.15
667.967	19.85
667.998	10.85
668.03	-2.15
668.061	7.85
668.093	5.85
668.125	12.85
668.156	11.85
668.188	2.85
668.22	-2.15
668.251	-1.15
668.283	10.85
668.314	18.85
668.346	-6.15
668.377	26.85
668.409	18.85
668.441	26.85
668.472	16.85
668.504	13.85
668.535	9.85
668.567	9.85
668.599	2.85
668.63	-11.15
668.662	-6.15
668.693	4.85
668.725	16.85
668.756	13.85
668.788	-0.15
668.819	3.85
668.851	3.85
668.882	-2.15
668.914	-9.15
668.946	3.85
668.977	-18.15
669.009	-4.15
669.04	-10.15
669.072	-1.15
669.103	17.85
669.135	-1.15
669.166	0.85
669.198	-6.15
669.229	9.85
669.261	-5.15
669.292	3.85
669.324	2.85
669.355	8.85
669.387	-13.15
669.418	17.85
669.45	-10.15
669.481	4.85
669.513	7.85
669.544	-10.15
669.576	3.85
669.607	4.85
669.639	6.85
669.67	0.85
669.701	10.85
669.733	-9.15
669.764	-8.15
669.796	11.85
669.827	-1.15
669.859	8.85
669.89	0.85
669.922	17.85
669.953	27.85
669.985	6.85
670.016	13.85
670.047	3.85
670.079	-11.15
670.11	-10.15
670.142	-8.15
670.173	5.85
670.204	0.85
670.236	6.85
670.267	-4.15
670.299	2.85
670.33	5.85
670.362	12.85
670.393	-15.15
670.424	3.85
670.456	-19.15
670.487	-0.15
670.518	26.85
670.55	15.85
670.581	6.85
670.613	10.85
670.644	5.85
670.675	-12.15
670.707	5.85
670.738	-1.15
670.769	-2.15
670.801	-11.15
670.832	3.85
670.864	4.85
670.895	12.85
670.926	-4.15
670.958	7.85
670.989	4.85
671.02	-7.15
671.052	4.85
671.083	-9.15
671.114	-22.15
671.146	3.85
671.177	-6.15
671.208	-4.15
671.24	-14.15
671.271	6.85
671.302	6.85
671.333	-9.15
671.365	-0.15
671.396	2.85
671.427	6.85
671.459	6.85
671.49	4.85
671.521	14.85
671.553	-5.15
671.584	12.85
671.615	-12.15
671.646	5.85
671.678	10.85
671.709	-1.15
671.74	-7.15
671.771	2.85
671.803	-14.15
671.834	-0.15
671.865	-5.15
671.896	10.85
671.928	3.85
671.959	-11.15
671.99	6.85
672.021	-2.15
672.053	-0.15
672.084	18.85
672.115	4.85
672.146	-7.15
672.178	-25.15
672.209	-9.15
672.24	-2.15
672.271	15.85
672.303	9.85
672.334	-11.15
672.365	-9.15
672.396	-1.15
672.427	4.85
672.459	15.85
672.49	25.85
672.521	4.85
672.552	14.85
672.583	2.85
672.615	-1.15
672.646	6.85
672.677	-7.15
672.708	-18.15
672.739	-15.15
672.77	8.85
672.802	5.85
672.833	-13.15
672.864	3.85
672.895	-2.15
672.926	-13.15
672.957	-0.15
672.989	-10.15
673.02	2.85
673.051	-3.15
673.082	26.85
673.113	11.85
673.144	19.85
673.175	5.85
673.206	-8.15
673.238	-0.15
673.269	1.85
673.3	-3.15
673.331	21.85
673.362	-0.15
673.393	13.85
673.424	-7.15
673.455	19.85
673.487	1.85
673.518	11.85
673.549	6.85
673.58	-7.15
673.611	6.85
673.642	1.85
673.673	-20.15
673.704	4.85
673.735	-6.15
673.766	3.85
673.797	-10.15
673.828	3.85
673.86	0.85
673.891	-9.15
673.922	-1.15
673.953	-3.15
673.984	-3.15
674.015	-1.15
674.046	1.85
674.077	-2.15
674.108	-11.15
674.139	-9.15
674.17	-6.15
674.201	-14.15
674.232	11.85
674.263	7.85
674.294	-9.15
674.325	-6.15
674.356	3.85
674.387	-2.15
674.418	-4.15
674.449	-5.15
674.48	-3.15
674.511	10.85
674.542	0.85
674.573	-12.15
674.604	10.85
674.635	13.85
674.666	20.85
674.697	3.85
674.728	-4.15
674.759	-0.15
674.79	-2.15
674.821	-10.15
674.852	-12.15
674.883	-4.15
674.914	6.85
674.945	-7.15
674.976	1.85
675.007	-10.15
675.038	-3.15
675.069	-3.15
675.1	-7.15
675.131	16.85
675.162	0.85
675.193	-0.15
675.224	-18.15
675.254	-2.15
675.285	-11.15
675.316	2.85
675.347	-3.15
675.378	-11.15
675.409	-1.15
675.44	15.85
675.471	12.85
675.502	-8.15
675.533	-2.15
675.564	0.85
675.595	-14.15
675.625	19.85
675.656	10.85
675.687	7.85
675.718	-5.15
675.749	11.85
675.78	3.85
675.811	8.85
675.842	17.85
675.873	-7.15
675.903	-12.15
675.934	-6.15
675.965	-9.15
675.996	-3.15
676.027	-13.15
676.058	2.85
676.089	-5.15
676.119	5.85
676.15	2.85
676.181	0.85
676.212	-9.15
676.243	8.85
676.274	-0.15
676.304	20.85
676.335	1.85
676.366	-5.15
676.397	-1.15
676.428	2.85
676.459	7.85
676.489	2.85
676.52	3.85
676.551	-0.15
676.582	-13.15
676.613	5.85
676.643	-8.15
676.674	20.85
676.705	-6.15
676.736	8.85
676.767	0.85
676.797	15.85
676.828	-10.15
676.859	-10.15
676.89	-1.15
676.92	5.85
676.951	18.85
676.982	-1.15
677.013	-18.15
677.044	12.85
677.074	13.85
677.105	-11.15
677.136	8.85
677.167	15.85
677.197	14.85
677.228	1.85
677.259	-16.15
677.289	7.85
677.32	-14.15
677.351	4.85
677.382	8.85
677.412	-4.15
677.443	2.85
677.474	-7.15
677.505	2.85
677.535	0.85
677.566	11.85
677.597	-2.15
677.627	-11.15
677.658	-10.15
677.689	-9.15
677.72	-5.15
677.75	-3.15
677.781	0.85
677.812	11.85
677.842	0.85
677.873	-12.15
677.904	3.85
677.934	-15.15
677.965	-10.15
677.996	-23.15
678.026	-2.15
678.057	11.85
678.088	-13.15
678.118	2.85
678.149	0.85
678.18	-3.15
678.21	-23.15
678.241	11.85
678.272	10.85
678.302	21.85
678.333	6.85
678.363	-4.15
678.394	-2.15
678.425	-4.15
678.455	13.85
678.486	4.85
678.517	-8.15
678.547	7.85
678.578	-4.15
678.608	-34.15
678.639	-14.15
678.67	8.85
678.7	-7.15
678.731	5.85
678.761	-13.15
678.792	3.85
678.823	12.85
678.853	4.85
678.884	2.85
678.914	5.85
678.945	4.85
678.975	-8.15
679.006	8.85
679.037	-9.15
679.067	21.85
679.098	9.85
679.128	-8.15
679.159	4.85
679.189	24.85
679.22	-15.15
679.25	-11.15
679.281	5.85
679.312	-17.15
679.342	-9.15
679.373	29.85
679.403	-2.15
679.434	5.85
679.464	0.85
679.495	-0.15
679.525	-5.15
679.556	-11.15
679.586	4.85
679.617	18.85
679.647	17.85
679.678	-9.15
679.708	-6.15
679.739	-9.15
679.769	-1.15
679.8	1.85
679.83	-12.15
679.861	5.85
679.891	-7.15
679.922	-6.15
679.952	0.85
679.983	4.85
680.013	4.85
680.044	-4.15
680.074	3.85
680.105	17.85
680.135	3.85
680.165	8.85
680.196	-10.15
680.226	10.85
680.257	7.85
680.287	0.85
680.318	-6.15
680.348	-6.15
680.379	16.85
680.409	16.85
680.439	-2.15
680.47	7.85
680.5	5.85
680.531	2.85
680.561	18.85
680.592	0.85
680.622	11.85
680.652	-8.15
680.683	13.85
680.713	-1.15
680.744	6.85
680.774	0.85
680.804	25.85
680.835	-15.15
680.865	-9.15
680.896	13.85
680.926	7.85
680.956	10.85
680.987	2.85
681.017	-0.15
681.047	4.85
681.078	-10.15
681.108	1.85
681.139	13.85
681.169	2.85
681.199	-8.15
681.23	8.85
681.26	2.85
681.29	0.85
681.321	-12.15
681.351	7.85
681.381	2.85
681.412	-5.15
681.442	-3.15
681.472	25.85
681.503	-3.15
681.533	-1.15
681.563	7.85
681.594	7.85
681.624	7.85
681.654	-3.15
681.685	-7.15
681.715	0.85
681.745	9.85
681.775	-8.15
681.806	17.85
681.836	8.85
681.866	-16.15
681.897	-4.15
681.927	-5.15
681.957	-14.15
681.987	-2.15
682.018	4.85
682.048	8.85
682.078	-0.15
682.109	16.85
682.139	12.85
682.169	-3.15
682.199	-15.15
682.23	-6.15
682.26	4.85
682.29	-9.15
682.32	-11.15
682.351	-6.15
682.381	5.85
682.411	-7.15
682.441	-6.15
682.472	-11.15
682.502	7.85
682.532	9.85
682.562	3.85
682.592	4.85
682.623	13.85
682.653	7.85
682.683	-13.15
682.713	4.85
682.743	-10.15
682.774	5.85
682.804	-3.15
682.834	19.85
682.864	4.85
682.894	-2.15
682.925	2.85
682.955	0.85
682.985	-15.15
683.015	3.85
683.045	22.85
683.076	-21.15
683.106	-4.15
683.136	-9.15
683.166	-1.15
683.196	-9.15
683.226	-12.15
683.257	-15.15
683.287	-11.15
683.317	-0.15
683.347	-9.15
683.377	2.85
683.407	-1.15
683.437	0.85
683.468	12.85
683.498	-17.15
683.528	-2.15
683.558	-16.15
683.588	-4.15
683.618	-3.15
683.648	-19.15
683.678	17.85
683.708	2.85
683.739	-4.15
683.769	4.85
683.799	-2.15
683.829	-0.15
683.859	2.85
683.889	25.85
683.919	-7.15
683.949	-4.15
683.979	-7.15
684.009	-6.15
684.039	-2.15
684.07	-7.15
684.1	5.85
684.13	-7.15
684.16	2.85
684.19	4.85
684.22	12.85
684.25	-8.15
684.28	-10.15
684.31	15.85
684.34	11.85
684.37	-2.15
684.4	6.85
684.43	-0.15
684.46	-1.15
684.49	7.85
684.52	-2.15
684.55	4.85
684.58	-0.15
684.61	8.85
684.64	7.85
684.67	-17.15
684.7	-3.15
684.73	6.85
684.76	-7.15
684.79	3.85
684.82	-13.15
684.85	-9.15
684.88	-10.15
684.91	8.85
684.94	7.85
684.97	-9.15
685	-0.15
685.03	-6.15
685.06	-3.15
685.09	-10.15
685.12	16.85
685.15	-6.15
685.18	4.85
685.21	13.85
685.24	15.85
685.27	11.85
685.3	2.85
685.33	7.85
685.36	-2.15
685.39	-9.15
685.42	-18.15
685.45	-9.15
685.48	-9.15
685.51	-17.15
685.54	18.85
685.569	3.85
685.599	7.85
685.629	8.85
685.659	14.85
685.689	6.85
685.719	-9.15
685.749	-8.15
685.779	7.85
685.809	-1.15
685.839	-0.15
685.869	6.85
685.898	15.85
685.928	7.85
685.958	-6.15
685.988	14.85
686.018	8.85
686.048	-3.15
686.078	7.85
686.108	10.85
686.137	7.85
686.167	-3.15
686.197	-13.15
686.227	-1.15
686.257	40.85
686.287	22.85
686.317	5.85
686.346	-1.15
686.376	-4.15
686.406	-14.15
686.436	6.85
686.466	-9.15
686.496	-5.15
686.525	2.85
686.555	-13.15
686.585	2.85
686.615	25.85
686.645	14.85
686.675	12.85
686.704	-2.15
686.734	-1.15
686.764	6.85
686.794	3.85
686.824	10.85
686.853	14.85
686.883	17.85
686.913	9.85
686.943	-7.15
686.973	-6.15
687.002	4.85
687.032	-0.15
687.062	8.85
687.092	17.85
687.121	-10.15
687.151	2.85
687.181	9.85
687.211	11.85
687.24	-3.15
687.27	2.85
687.3	6.85
687.33	10.85
687.359	-17.15
687.389	10.85
687.419	-8.15
687.449	-10.15
687.478	9.85
687.508	-2.15
687.538	16.85
687.568	18.85
687.597	2.85
687.627	7.85
687.657	-3.15
687.686	3.85
687.716	5.85
687.746	-15.15
687.776	-2.15
687.805	4.85
687.835	5.85
687.865	13.85
687.894	2.85
687.924	-2.15
687.954	15.85
687.983	3.85
688.013	10.85
688.043	17.85
688.072	-3.15
688.102	8.85
688.132	6.85
688.161	-14.15
688.191	1.85
688.221	10.85
688.25	-5.15
688.28	13.85
688.31	0.85
688.339	-0.15
688.369	-12.15
688.399	-11.15
688.428	-15.15
688.458	-2.15
688.488	2.85
688.517	8.85
688.547	2.85
688.576	39.85
688.606	19.85
688.636	-6.15
688.665	2.85
688.695	11.85
688.725	3.85
688.754	14.85
688.784	0.85
688.813	21.85
688.843	10.85
688.873	1.85
688.902	-18.15
688.932	-0.15
688.961	-6.15
688.991	15.85
689.02	29.85
689.05	6.85
689.08	6.85
689.109	6.85
689.139	5.85
689.168	-0.15
689.198	-1.15
689.227	4.85
689.257	8.85
689.287	2.85
689.316	-4.15
689.346	-8.15
689.375	-13.15
689.405	-3.15
689.434	-8.15
689.464	4.85
689.493	-6.15
689.523	-6.15
689.552	-12.15
689.582	3.85
689.611	11.85
689.641	14.85
689.67	1.85
689.7	1.85
689.73	28.85
689.759	-4.15
689.789	19.85
689.818	-2.15
689.848	-5.15
689.877	26.85
689.906	-3.15
689.936	-5.15
689.965	1.85
689.995	11.85
690.024	13.85
690.054	-8.15
690.083	8.85
690.113	-4.15
690.142	1.85
690.172	-11.15
690.201	-2.15
690.231	-11.15
690.26	10.85
690.29	0.85
690.319	9.85
690.348	5.85
690.378	20.85
690.407	13.85
690.437	-3.15
690.466	-3.15
690.496	-0.15
690.525	3.85
690.555	-15.15
690.584	4.85
690.613	-9.15
690.643	11.85
690.672	16.85
690.702	-1.15
690.731	13.85
690.76	34.85
690.79	56.85
690.819	55.85
690.849	30.85
690.878	29.85
690.907	20.85
690.937	25.85
690.966	15.85
690.996	-0.15
691.025	-5.15
691.054	0.85
691.084	10.85
691.113	2.85
691.142	2.85
691.172	8.85
691.201	20.85
691.23	3.85
691.26	17.85
691.289	8.85
691.319	-0.15
691.348	4.85
691.377	1.85
691.407	0.85
691.436	14.85
691.465	0.85
691.495	-10.15
691.524	-16.15
691.553	10.85
691.583	3.85
691.612	6.85
691.641	9.85
691.67	-16.15
691.7	-4.15
691.729	-9.15
691.758	-11.15
691.788	-7.15
691.817	-8.15
691.846	1.85
691.876	8.85
691.905	0.85
691.934	-9.15
691.963	15.85
691.993	-4.15
692.022	-3.15
692.051	-6.15
692.081	12.85
692.11	13.85
692.139	-1.15
692.168	-2.15
692.198	17.85
692.227	9.85
692.256	15.85
692.285	1.85
692.315	-7.15
692.344	1.85
692.373	9.85
692.402	-15.15
692.432	-5.15
692.461	-2.15
692.49	0.85
692.519	6.85
692.548	16.85
692.578	13.85
692.607	1.85
692.636	-1.15
692.665	10.85
692.694	4.85
692.724	14.85
692.753	9.85
692.782	15.85
692.811	-7.15
692.84	-1.15
692.87	3.85
692.899	14.85
692.928	1.85
692.957	5.85
692.986	16.85
693.016	19.85
693.045	13.85
693.074	-3.15
693.103	10.85
693.132	4.85
693.161	13.85
693.191	-3.15
693.22	2.85
693.249	1.85
693.278	-5.15
693.307	6.85
693.336	1.85
693.365	-2.15
693.395	7.85
693.424	-0.15
693.453	10.85
693.482	-1.15
693.511	-1.15
693.54	4.85
693.569	11.85
693.598	4.85
693.628	27.85
693.657	20.85
693.686	16.85
693.715	13.85
693.744	21.85
693.773	17.85
693.802	14.85
693.831	8.85
693.86	23.85
693.889	-11.15
693.919	9.85
693.948	10.85
693.977	18.85
694.006	16.85
694.035	0.85
694.064	-3.15
694.093	-2.15
694.122	-1.15
694.151	6.85
694.18	8.85
694.209	15.85
694.238	4.85
694.267	10.85
694.296	1.85
694.325	22.85
694.354	10.85
694.383	0.85
694.412	2.85
694.441	-13.15
694.471	5.85
694.5	-5.15
694.529	-2.15
694.558	11.85
694.587	18.85
694.616	-1.15
694.645	-2.15
694.674	3.85
694.703	10.85
694.732	3.85
694.761	20.85
694.79	31.85
694.819	-11.15
694.848	9.85
694.877	16.85
694.906	6.85
694.935	9.85
694.963	15.85
694.992	-0.15
695.021	4.85
695.05	3.85
695.079	11.85
695.108	0.85
695.137	16.85
695.166	28.85
695.195	0.85
695.224	9.85
695.253	14.85
695.282	3.85
695.311	15.85
695.34	9.85
695.369	10.85
695.398	-0.15
695.427	23.85
695.456	5.85
695.485	3.85
695.513	-0.15
695.542	9.85
695.571	12.85
695.6	13.85
695.629	13.85
695.658	0.85
695.687	-0.15
695.716	2.85
695.745	16.85
695.774	4.85
695.802	1.85
695.831	20.85
695.86	13.85
695.889	7.85
695.918	10.85
695.947	-4.15
695.976	2.85
696.005	3.85
696.033	11.85
696.062	10.85
696.091	12.85
696.12	7.85
696.149	19.85
696.178	5.85
696.207	16.85
696.235	-1.15
696.264	14.85
696.293	12.85
696.322	13.85
696.351	9.85
696.38	10.85
696.408	24.85
696.437	25.85
696.466	13.85
696.495	14.85
696.524	20.85
696.553	1.85
696.581	23.85
696.61	5.85
696.639	6.85
696.668	12.85
696.697	-8.15
696.725	-6.15
696.754	15.85
696.783	3.85
696.812	4.85
696.84	16.85
696.869	17.85
696.898	4.85
696.927	2.85
696.956	21.85
696.984	-3.15
697.013	0.85
697.042	4.85
697.071	6.85
697.099	26.85
697.128	19.85
697.157	2.85
697.186	11.85
697.214	1.85
697.243	-1.15
697.272	-0.15
697.301	12.85
697.329	-6.15
697.358	4.85
697.387	21.85
697.415	6.85
697.444	13.85
697.473	-1.15
697.502	3.85
697.53	8.85
697.559	-1.15
697.588	7.85
697.616	-0.15
697.645	-5.15
697.674	2.85
697.703	6.85
697.731	5.85
697.76	9.85
697.789	-11.15
697.817	0.85
697.846	26.85
697.875	-2.15
697.903	11.85
697.932	16.85
697.961	-6.15
697.989	28.85
698.018	13.85
698.047	5.85
698.075	16.85
698.104	5.85
698.133	-4.15
698.161	-6.15
698.19	-2.15
698.218	2.85
698.247	12.85
698.276	-9.15
698.304	8.85
698.333	2.85
698.362	4.85
698.39	1.85
698.419	2.85
698.447	8.85
698.476	0.85
698.505	11.85
698.533	10.85
698.562	-0.15
698.591	1.85
698.619	15.85
698.648	12.85
698.676	2.85
698.705	-3.15
698.733	0.85
698.762	1.85
698.791	4.85
698.819	7.85
698.848	-3.15
698.876	-1.15
698.905	13.85
698.933	6.85
698.962	15.85
698.991	11.85
699.019	10.85
699.048	0.85
699.076	5.85
699.105	1.85
699.133	6.85
699.162	10.85
699.19	26.85
699.219	14.85
699.248	-1.15
699.276	-9.15
699.305	-12.15
699.333	13.85
699.362	-0.15
699.39	10.85
699.419	-9.15
699.447	1.85
699.476	4.85
699.504	-5.15
699.533	-2.15
699.561	-18.15
699.59	-1.15
699.618	5.85
699.647	2.85
699.675	14.85
699.704	13.85
699.732	-5.15
699.761	10.85
699.789	-1.15
699.818	11.85
699.846	-5.15
699.874	6.85
699.903	-3.15
699.931	-9.15
699.96	8.85
699.988	0.85
700.017	7.85
700.045	7.85
700.074	-0.15
700.102	1.85
700.13	3.85
700.159	-2.15
700.187	9.85
700.216	-2.15
700.244	-36.15
700.273	-10.15
700.301	-3.15
700.329	14.85
700.358	20.85
700.386	4.85
700.415	-2.15
700.443	3.85
700.472	6.85
700.5	1.85
700.528	25.85
700.557	-4.15
700.585	-5.15
700.614	1.85
700.642	10.85
700.67	26.85
700.699	16.85
700.727	2.85
700.755	0.85
700.784	19.85
700.812	11.85
700.841	3.85
700.869	3.85
700.897	2.85
700.926	8.85
700.954	9.85
700.982	5.85
701.011	21.85
701.039	4.85
701.067	4.85
701.096	-5.15
701.124	-8.15
701.152	0.85
701.181	-10.15
701.209	-17.15
701.237	-0.15
701.266	-0.15
701.294	-0.15
701.322	9.85
701.351	10.85
701.379	5.85
701.407	-2.15
701.435	-1.15
701.464	4.85
701.492	19.85
701.52	5.85
701.549	9.85
701.577	6.85
701.605	-11.15
701.634	14.85
701.662	29.85
701.69	-3.15
701.718	6.85
701.747	10.85
701.775	-3.15
701.803	-17.15
701.831	5.85
701.86	-5.15
701.888	-4.15
701.916	-4.15
701.944	4.85
701.973	5.85
702.001	-6.15
702.029	-1.15
702.057	5.85
702.086	-3.15
702.114	-5.15
702.142	5.85
702.17	-10.15
702.199	-6.15
702.227	3.85
702.255	10.85
702.283	-11.15
702.311	2.85
702.34	-4.15
702.368	-5.15
702.396	-2.15
702.424	-1.15
702.452	-10.15
702.481	-9.15
702.509	-7.15
702.537	12.85
702.565	18.85
702.593	-18.15
702.621	9.85
702.65	7.85
702.678	-1.15
702.706	1.85
702.734	6.85
702.762	2.85
702.79	2.85
702.819	3.85
702.847	-0.15
702.875	16.85
702.903	15.85
702.931	1.85
702.959	10.85
702.988	1.85
703.016	-3.15
703.044	0.85
703.072	4.85
703.1	-8.15
703.128	-9.15
703.156	0.85
703.184	-7.15
703.212	10.85
703.241	-2.15
703.269	-1.15
703.297	11.85
703.325	1.85
703.353	-1.15
703.381	-19.15
703.409	-9.15
703.437	-10.15
703.465	17.85
703.493	-6.15
703.522	2.85
703.55	10.85
703.578	15.85
703.606	-2.15
703.634	6.85
703.662	-8.15
703.69	10.85
703.718	8.85
703.746	12.85
703.774	-2.15
703.802	28.85
703.83	-2.15
703.858	-4.15
703.886	-10.15
703.914	-16.15
703.942	6.85
703.97	6.85
703.998	-5.15
704.027	10.85
704.055	7.85
704.083	3.85
704.111	-3.15
704.139	2.85
704.167	5.85
704.195	10.85
704.223	-15.15
704.251	11.85
704.279	-1.15
704.307	6.85
704.335	0.85
704.363	6.85
704.391	1.85
704.419	-13.15
704.447	-6.15
704.475	5.85
704.503	-3.15
704.531	-8.15
704.558	8.85
704.586	-6.15
704.614	1.85
704.642	-5.15
704.67	-21.15
704.698	-9.15
704.726	5.85
704.754	-9.15
704.782	-6.15
704.81	-23.15
704.838	15.85
704.866	19.85
704.894	-17.15
704.922	7.85
704.95	8.85
704.978	22.85
705.006	-11.15
705.034	-2.15
705.061	-10.15
705.089	-1.15
705.117	-6.15
705.145	14.85
705.173	6.85
705.201	4.85
705.229	11.85
705.257	5.85
705.285	14.85
705.313	15.85
705.34	1.85
705.368	-12.15
705.396	-8.15
705.424	2.85
705.452	-6.15
705.48	-0.15
705.508	2.85
705.536	-1.15
705.563	0.85
705.591	9.85
705.619	-7.15
705.647	-0.15
705.675	-3.15
705.703	-1.15
705.731	5.85
705.758	18.85
705.786	13.85
705.814	30.85
705.842	1.85
705.87	10.85
705.898	22.85
705.925	4.85
705.953	6.85
705.981	-3.15
706.009	-0.15
706.037	9.85
706.065	6.85
706.092	-15.15
706.12	-9.15
706.148	-15.15
706.176	-6.15
706.204	0.85
706.231	4.85
706.259	-6.15
706.287	-1.15
706.315	13.85
706.342	8.85
706.37	10.85
706.398	8.85
706.426	5.85
706.454	17.85
706.481	5.85
706.509	8.85
706.537	0.85
706.565	2.85
706.592	10.85
706.62	-3.15
706.648	5.85
706.676	-6.15
706.703	16.85
706.731	8.85
706.759	-2.15
706.787	1.85
706.814	14.85
706.842	1.85
706.87	-9.15
706.897	-2.15
706.925	-3.15
706.953	14.85
706.981	5.85
707.008	2.85
707.036	12.85
707.064	7.85
707.091	-9.15
707.119	7.85
707.147	-8.15
707.174	-10.15
707.202	9.85
707.23	-7.15
707.258	20.85
707.285	-17.15
707.313	1.85
707.341	-6.15
707.368	-9.15
707.396	6.85
707.424	10.85
707.451	-3.15
707.479	13.85
707.507	-1.15
707.534	-6.15
707.562	-5.15
707.59	-0.15
707.617	0.85
707.645	-2.15
707.672	6.85
707.7	-5.15
707.728	-1.15
707.755	2.85
707.783	-6.15
707.811	1.85
707.838	-3.15
707.866	9.85
707.893	1.85
707.921	-5.15
707.949	-10.15
707.976	-4.15
708.004	-2.15
708.031	-3.15
708.059	-9.15
708.087	1.85
708.114	-3.15
708.142	-7.15
708.169	0.85
708.197	-0.15
708.225	21.85
708.252	4.85
708.28	17.85
708.307	1.85
708.335	1.85
708.362	-11.15
708.39	-10.15
708.418	-5.15
708.445	1.85
708.473	-10.15
708.5	-7.15
708.528	5.85
708.555	-11.15
708.583	-5.15
708.61	-10.15
708.638	8.85
708.665	-9.15
708.693	-12.15
708.72	-10.15
708.748	-12.15
708.776	-14.15
708.803	4.85
708.831	4.85
708.858	9.85
708.886	1.85
708.913	4.85
708.941	-22.15
708.968	9.85
708.996	-0.15
709.023	23.85
709.051	-2.15
709.078	-10.15
709.105	8.85
709.133	2.85
709.16	-16.15
709.188	13.85
709.215	8.85
709.243	3.85
709.27	-4.15
709.298	-3.15
709.325	2.85
709.353	-7.15
709.38	7.85
709.408	24.85
709.435	20.85
709.462	5.85
709.49	-3.15
709.517	-10.15
709.545	-12.15
709.572	9.85
709.6	1.85
709.627	1.85
709.655	-10.15
709.682	-5.15
709.709	-0.15
709.737	-6.15
709.764	-8.15
709.792	13.85
709.819	11.85
709.846	-7.15
709.874	-0.15
709.901	4.85
709.929	22.85
709.956	19.85
709.983	-15.15
710.011	1.85
710.038	0.85
710.066	2.85
710.093	26.85
710.12	-1.15
710.148	-3.15
710.175	-8.15
710.202	8.85
710.23	12.85
710.257	0.85
710.284	7.85
710.312	3.85
710.339	-4.15
710.366	-3.15
710.394	2.85
710.421	2.85
710.448	-2.15
710.476	-18.15
710.503	3.85
710.53	-2.15
710.558	15.85
710.585	14.85
710.612	-2.15
710.64	-7.15
710.667	1.85
710.694	3.85
710.722	3.85
710.749	-1.15
710.776	16.85
710.804	15.85
710.831	11.85
710.858	3.85
710.885	3.85
710.913	-3.15
710.94	18.85
710.967	-5.15
710.995	-2.15
711.022	4.85
711.049	-2.15
711.076	-0.15
711.104	-16.15
711.131	-30.15
711.158	-7.15
711.185	11.85
711.213	-10.15
711.24	-11.15
711.267	-3.15
711.294	-6.15
711.322	8.85
711.349	-2.15
711.376	-10.15
711.403	6.85
711.431	10.85
711.458	16.85
711.485	-14.15
711.512	-0.15
711.54	-2.15
711.567	8.85
711.594	2.85
711.621	5.85
711.648	-4.15
711.676	9.85
711.703	15.85
711.73	-1.15
711.757	5.85
711.784	-5.15
711.812	9.85
711.839	-7.15
711.866	-6.15
711.893	2.85
711.92	13.85
711.947	3.85
711.975	12.85
712.002	2.85
712.029	16.85
712.056	0.85
712.083	24.85
712.11	-18.15
712.138	17.85
712.165	7.85
712.192	-15.15
712.219	-5.15
712.246	6.85
712.273	1.85
712.3	0.85
712.328	-5.15
712.355	-0.15
712.382	-11.15
712.409	15.85
712.436	-14.15
712.463	8.85
712.49	5.85
712.517	5.85
712.544	3.85
712.572	-7.15
712.599	-1.15
712.626	1.85
712.653	2.85
712.68	-22.15
712.707	-1.15
712.734	13.85
712.761	1.85
712.788	9.85
712.815	7.85
712.842	5.85
712.87	7.85
712.897	0.85
712.924	-1.15
712.951	12.85
712.978	12.85
713.005	24.85
713.032	0.85
713.059	-8.15
713.086	-13.15
713.113	-9.15
713.14	-13.15
713.167	11.85
713.194	8.85
713.221	3.85
713.248	13.85
713.275	-10.15
713.302	-10.15
713.329	-3.15
713.356	21.85
713.383	4.85
713.41	4.85
713.437	-7.15
713.464	3.85
713.491	11.85
713.518	-3.15
713.545	-10.15
713.572	-11.15
713.599	1.85
713.626	-5.15
713.653	7.85
713.68	6.85
713.707	-2.15
713.734	25.85
713.761	6.85
713.788	-4.15
713.815	13.85
713.842	15.85
713.869	-3.15
713.896	7.85
713.923	-5.15
713.95	-7.15
713.977	-5.15
714.004	-7.15
714.031	-8.15
714.058	-5.15
714.085	10.85
714.112	1.85
714.139	10.85
714.165	-0.15
714.192	-5.15
714.219	-3.15
714.246	6.85
714.273	11.85
714.3	-2.15
714.327	0.85
714.354	28.85
714.381	-8.15
714.408	-9.15
714.435	2.85
714.461	-6.15
714.488	9.85
714.515	-1.15
714.542	-7.15
714.569	-8.15
714.596	-3.15
714.623	-10.15
714.65	-5.15
714.677	0.85
714.703	-4.15
714.73	5.85
714.757	10.85
714.784	-2.15
714.811	-2.15
714.838	15.85
714.865	-2.15
714.891	3.85
714.918	6.85
714.945	-28.15
714.972	-19.15
714.999	16.85
715.026	-2.15
715.052	14.85
715.079	-5.15
715.106	-8.15
715.133	-14.15
715.16	-3.15
715.187	12.85
715.213	13.85
715.24	-2.15
715.267	2.85
715.294	-22.15
715.321	-1.15
715.347	-0.15
715.374	2.85
715.401	-7.15
715.428	11.85
715.455	-0.15
715.481	-5.15
715.508	10.85
715.535	-8.15
715.562	11.85
715.588	4.85
715.615	8.85
715.642	-8.15
715.669	4.85
715.695	-3.15
715.722	-13.15
715.749	-3.15
715.776	9.85
715.802	1.85
715.829	-6.15
715.856	-4.15
715.883	4.85
715.909	-5.15
715.936	-0.15
715.963	5.85
715.99	2.85
716.016	7.85
716.043	-1.15
716.07	-5.15
716.096	-8.15
716.123	-5.15
716.15	1.85
716.177	-7.15
716.203	-0.15
716.23	17.85
716.257	3.85
716.283	7.85
716.31	-8.15
716.337	6.85
716.363	-1.15
716.39	-7.15
716.417	13.85
716.443	2.85
716.47	9.85
716.497	16.85
716.523	-0.15
716.55	14.85
716.577	18.85
716.603	-2.15
716.63	-0.15
716.657	6.85
716.683	-4.15
716.71	-1.15
716.737	3.85
716.763	4.85
716.79	4.85
716.817	27.85
716.843	8.85
716.87	0.85
716.897	-0.15
716.923	18.85
716.95	-0.15
716.976	-8.15
717.003	7.85
717.03	0.85
717.056	-7.15
717.083	-11.15
717.109	1.85
717.136	23.85
717.163	-0.15
717.189	5.85
717.216	8.85
717.242	-5.15
717.269	-10.15
717.296	4.85
717.322	3.85
717.349	-5.15
717.375	-2.15
717.402	8.85
717.428	6.85
717.455	-3.15
717.481	-7.15
717.508	4.85
717.535	-7.15
717.561	4.85
717.588	6.85
717.614	-8.15
717.641	-3.15
717.667	13.85
717.694	2.85
717.72	-2.15
717.747	-13.15
717.773	-7.15
717.8	-2.15
717.826	5.85
717.853	4.85
717.88	-1.15
717.906	10.85
717.933	-1.15
717.959	8.85
717.986	20.85
718.012	-7.15
718.039	16.85
718.065	1.85
718.092	7.85
718.118	2.85
718.144	-1.15
718.171	14.85
718.197	9.85
718.224	3.85
718.25	-5.15
718.277	14.85
718.303	4.85
718.33	10.85
718.356	-12.15
718.383	-8.15
718.409	4.85
718.436	10.85
718.462	3.85
718.489	-2.15
718.515	-3.15
718.541	18.85
718.568	7.85
718.594	-18.15
718.621	2.85
718.647	2.85
718.674	10.85
718.7	18.85
718.726	6.85
718.753	15.85
718.779	-6.15
718.806	1.85
718.832	0.85
718.858	-13.15
718.885	-14.15
718.911	-6.15
718.938	-2.15
718.964	-7.15
718.99	1.85
719.017	11.85
719.043	-2.15
719.07	22.85
719.096	-10.15
719.122	18.85
719.149	0.85
719.175	7.85
719.201	-8.15
719.228	-9.15
719.254	-2.15
719.281	22.85
719.307	19.85
719.333	-3.15
719.36	17.85
719.386	1.85
719.412	7.85
719.439	-8.15
719.465	-6.15
719.491	-9.15
719.518	4.85
719.544	2.85
719.57	-0.15
719.597	4.85
719.623	6.85
719.649	0.85
719.675	-1.15
719.702	2.85
719.728	14.85
719.754	-1.15
719.781	-8.15
719.807	5.85
719.833	8.85
719.86	4.85
719.886	3.85
719.912	3.85
719.938	-0.15
719.965	-6.15
719.991	18.85
720.017	7.85
720.044	1.85
720.07	2.85
720.096	-2.15
720.122	13.85
720.149	11.85
720.175	21.85
720.201	3.85
720.227	-0.15
720.254	-6.15
720.28	2.85
720.306	-5.15
720.332	-5.15
720.359	19.85
720.385	11.85
720.411	11.85
720.437	15.85
720.463	-1.15
720.49	28.85
720.516	10.85
720.542	6.85
720.568	1.85
720.595	18.85
720.621	7.85
720.647	-2.15
720.673	1.85
720.699	-1.15
720.725	5.85
720.752	6.85
720.778	21.85
720.804	9.85
720.83	3.85
720.856	5.85
720.883	-12.15
720.909	-6.15
720.935	20.85
720.961	5.85
720.987	4.85
721.013	0.85
721.04	-6.15
721.066	-4.15
721.092	-3.15
721.118	7.85
721.144	2.85
721.17	9.85
721.196	5.85
721.223	-8.15
721.249	0.85
721.275	9.85
721.301	2.85
721.327	-6.15
721.353	-0.15
721.379	-2.15
721.405	1.85
721.432	12.85
721.458	-2.15
721.484	6.85
721.51	-2.15
721.536	13.85
721.562	-2.15
721.588	-4.15
721.614	0.85
721.64	0.85
721.666	0.85
721.693	-5.15
721.719	0.85
721.745	-7.15
721.771	0.85
721.797	10.85
721.823	12.85
721.849	8.85
721.875	8.85
721.901	11.85
721.927	-6.15
721.953	7.85
721.979	7.85
722.005	9.85
722.031	-8.15
722.057	19.85
722.083	-3.15
722.109	14.85
722.135	1.85
722.161	7.85
722.187	-2.15
722.214	-18.15
722.24	-10.15
722.266	4.85
722.292	11.85
722.318	0.85
722.344	4.85
722.37	9.85
722.396	10.85
722.422	2.85
722.448	19.85
722.474	4.85
722.5	4.85
722.526	11.85
722.552	-7.15
722.578	-3.15
722.603	8.85
722.629	-6.15
722.655	-4.15
722.681	0.85
722.707	6.85
722.733	7.85
722.759	1.85
722.785	9.85
722.811	4.85
722.837	-6.15
722.863	1.85
722.889	5.85
722.915	-2.15
722.941	2.85
722.967	1.85
722.993	1.85
723.019	-2.15
723.045	18.85
723.071	3.85
723.097	12.85
723.122	11.85
723.148	-8.15
723.174	-3.15
723.2	15.85
723.226	-1.15
723.252	16.85
723.278	-13.15
723.304	-1.15
723.33	16.85
723.356	-6.15
723.381	-13.15
723.407	-14.15
723.433	-6.15
723.459	-6.15
723.485	2.85
723.511	-5.15
723.537	-0.15
723.563	-2.15
723.588	0.85
723.614	25.85
723.64	4.85
723.666	1.85
723.692	-5.15
723.718	-5.15
723.744	-13.15
723.769	-2.15
723.795	-12.15
723.821	2.85
723.847	-10.15
723.873	-4.15
723.899	3.85
723.924	-1.15
723.95	5.85
723.976	-7.15
724.002	1.85
724.028	2.85
724.053	-19.15
724.079	3.85
724.105	-3.15
724.131	-7.15
724.157	-9.15
724.182	-1.15
724.208	-1.15
724.234	6.85
724.26	1.85
724.286	-10.15
724.311	-9.15
724.337	2.85
724.363	15.85
724.389	12.85
724.415	-8.15
724.44	13.85
724.466	-4.15
724.492	-2.15
724.518	4.85
724.543	6.85
724.569	16.85
724.595	-2.15
724.621	4.85
724.646	5.85
724.672	5.85
724.698	1.85
724.723	1.85
724.749	4.85
724.775	2.85
724.801	-1.15
724.826	-23.15
724.852	-1.15
724.878	-25.15
724.904	-11.15
724.929	-3.15
724.955	-12.15
724.981	5.85
725.006	-8.15
725.032	-5.15
725.058	14.85
725.083	6.85
725.109	-4.15
725.135	-0.15
725.161	6.85
725.186	5.85
725.212	-1.15
725.238	8.85
725.263	-5.15
725.289	-6.15
725.315	0.85
725.34	-7.15
725.366	7.85
725.392	-5.15
725.417	-4.15
725.443	-13.15
725.468	3.85
725.494	0.85
725.52	6.85
725.545	-10.15
725.571	-8.15
725.597	-0.15
725.622	-8.15
725.648	-3.15
725.674	15.85
725.699	7.85
725.725	-3.15
725.75	30.85
725.776	-12.15
725.802	1.85
725.827	-3.15
725.853	-0.15
725.878	3.85
725.904	5.85
725.93	-4.15
725.955	-2.15
725.981	-7.15
726.006	4.85
726.032	12.85
726.057	8.85
726.083	-5.15
726.109	-1.15
726.134	6.85
726.16	-8.15
726.185	-3.15
726.211	-6.15
726.236	-16.15
726.262	3.85
726.288	10.85
726.313	6.85
726.339	0.85
726.364	-2.15
726.39	20.85
726.415	1.85
726.441	-2.15
726.466	0.85
726.492	1.85
726.517	-11.15
726.543	-7.15
726.568	-16.15
726.594	-11.15
726.619	4.85
726.645	6.85
726.67	5.85
726.696	20.85
726.721	10.85
726.747	-16.15
726.772	10.85
726.798	8.85
726.823	-0.15
726.849	4.85
726.874	9.85
726.9	19.85
726.925	9.85
726.951	7.85
726.976	10.85
727.002	-1.15
727.027	5.85
727.053	-9.15
727.078	-3.15
727.104	4.85
727.129	-29.15
727.155	-14.15
727.18	5.85
727.205	-1.15
727.231	-13.15
727.256	-13.15
727.282	2.85
727.307	8.85
727.333	8.85
727.358	-7.15
727.383	-14.15
727.409	-5.15
727.434	5.85
727.46	-10.15
727.485	-1.15
727.511	-3.15
727.536	-16.15
727.561	-13.15
727.587	-16.15
727.612	1.85
727.637	3.85
727.663	-23.15
727.688	8.85
727.714	-6.15
727.739	-1.15
727.764	-6.15
727.79	6.85
727.815	11.85
727.841	20.85
727.866	-4.15
727.891	-0.15
727.917	-9.15
727.942	-9.15
727.967	-22.15
727.993	-10.15
728.018	-3.15
728.043	-5.15
728.069	12.85
728.094	10.85
728.119	4.85
728.145	21.85
728.17	1.85
728.195	8.85
728.221	12.85
728.246	1.85
728.271	-1.15
728.297	-7.15
728.322	7.85
728.347	-7.15
728.373	-8.15
728.398	-7.15
728.423	-2.15
728.448	1.85
728.474	-9.15
728.499	-1.15
728.524	-9.15
728.55	-2.15
728.575	-3.15
728.6	-3.15
728.625	-10.15
728.651	9.85
728.676	-1.15
728.701	-2.15
728.727	-2.15
728.752	-15.15
728.777	-13.15
728.802	3.85
728.828	10.85
728.853	15.85
728.878	-1.15
728.903	-12.15
728.929	-10.15
728.954	-1.15
728.979	15.85
729.004	-0.15
729.03	-9.15
729.055	12.85
729.08	-7.15
729.105	-0.15
729.13	9.85
729.156	7.85
729.181	-5.15
729.206	-4.15
729.231	-8.15
729.256	-9.15
729.282	-2.15
729.307	-24.15
729.332	1.85
729.357	-2.15
729.382	-9.15
729.408	1.85
729.433	-3.15
729.458	5.85
729.483	14.85
729.508	5.85
729.533	-4.15
729.559	0.85
729.584	0.85
729.609	13.85
729.634	10.85
729.659	9.85
729.684	15.85
729.71	14.85
729.735	9.85
729.76	4.85
729.785	-5.15
729.81	10.85
729.835	8.85
729.86	-5.15
729.886	4.85
729.911	15.85
729.936	23.85
729.961	30.85
729.986	16.85
730.011	71.85
730.036	222.85
730.061	1016.85
730.086	2665.85
730.112	3391.85
730.137	2825.85
730.162	2097.85
730.187	1662.85
730.212	1281.85
730.237	794.85
730.262	447.85
730.287	244.85
730.312	137.85
730.337	67.85
730.362	55.85
730.387	25.85
730.413	19.85
730.438	10.85
730.463	11.85
730.488	10.85
730.513	8.85
730.538	-6.15
730.563	28.85
730.588	8.85
730.613	15.85
730.638	-3.15
730.663	8.85
730.688	11.85
730.713	10.85
730.738	4.85
730.763	6.85
730.788	-9.15
730.813	-8.15
730.838	6.85
730.863	10.85
730.888	-5.15
730.913	-4.15
730.938	10.85
730.963	21.85
730.988	116.85
731.013	398.85
731.038	637.85
731.063	612.85
731.088	486.85
731.113	379.85
731.138	270.85
731.163	208.85
731.188	105.85
731.213	69.85
731.238	31.85
731.263	6.85
731.288	6.85
731.313	10.85
731.338	10.85
731.363	2.85
731.388	-2.15
731.413	24.85
731.438	12.85
731.463	3.85
731.487	24.85
731.512	10.85
731.537	1.85
731.562	1.85
731.587	2.85
731.612	-3.15
731.637	6.85
731.662	2.85
731.687	-12.15
731.712	-10.15
731.737	9.85
731.762	-2.15
731.786	-3.15
731.811	8.85
731.836	-2.15
731.861	0.85
731.886	-10.15
731.911	-2.15
731.936	8.85
731.961	5.85
731.986	-19.15
732.01	-5.15
732.035	-6.15
732.06	12.85
732.085	-6.15
732.11	5.85
732.135	-23.15
732.16	4.85
732.184	-14.15
732.209	-10.15
732.234	-9.15
732.259	-10.15
732.284	10.85
732.309	-10.15
732.334	8.85
732.358	-6.15
732.383	-14.15
732.408	-5.15
732.433	-3.15
732.458	-0.15
732.482	-3.15
732.507	1.85
732.532	-4.15
732.557	5.85
732.582	-0.15
732.607	10.85
732.631	51.85
732.656	93.85
732.681	143.85
732.706	314.85
732.73	441.85
732.755	398.85
732.78	304.85
732.805	229.85
732.83	163.85
732.854	120.85
732.879	97.85
732.904	45.85
732.929	21.85
732.953	3.85
732.978	1.85
733.003	5.85
733.028	-2.15
733.052	10.85
733.077	-2.15
733.102	4.85
733.127	-13.15
733.151	5.85
733.176	13.85
733.201	-1.15
733.226	-1.15
733.25	-7.15
733.275	-14.15
733.3	-8.15
733.324	16.85
733.349	18.85
733.374	4.85
733.399	-3.15
733.423	-0.15
733.448	-6.15
733.473	-3.15
733.497	6.85
733.522	-20.15
733.547	10.85
733.571	31.85
733.596	-1.15
733.621	5.85
733.646	-1.15
733.67	0.85
733.695	-8.15
733.72	1.85
733.744	7.85
733.769	7.85
733.794	18.85
733.818	-0.15
733.843	-3.15
733.867	-18.15
733.892	-0.15
733.917	8.85
733.941	16.85
733.966	-15.15
733.991	3.85
734.015	16.85
734.04	7.85
734.065	1.85
734.089	7.85
734.114	-11.15
734.138	9.85
734.163	8.85
734.188	4.85
734.212	10.85
734.237	12.85
734.261	-8.15
734.286	-6.15
734.311	1.85
734.335	3.85
734.36	-2.15
734.384	5.85
734.409	4.85
734.434	-9.15
734.458	2.85
734.483	14.85
734.507	-15.15
734.532	-4.15
734.556	14.85
734.581	4.85
734.606	0.85
734.63	0.85
734.655	-6.15
734.679	2.85
734.704	-1.15
734.728	-6.15
734.753	-4.15
734.777	17.85
734.802	-1.15
734.826	-1.15
734.851	-3.15
734.876	15.85
734.9	8.85
734.925	13.85
734.949	-3.15
734.974	-9.15
734.998	-4.15
735.023	-17.15
735.047	-3.15
735.072	-4.15
735.096	0.85
735.121	0.85
735.145	-15.15
735.17	2.85
735.194	-11.15
735.219	-10.15
735.243	6.85
735.268	17.85
735.292	-3.15
735.317	-5.15
735.341	-1.15
735.365	-5.15
735.39	8.85
735.414	12.85
735.439	14.85
735.463	1.85
735.488	7.85
735.512	4.85
735.537	-8.15
735.561	-8.15
735.586	5.85
735.61	5.85
735.634	-5.15
735.659	-0.15
735.683	13.85
735.708	-15.15
735.732	3.85
735.757	8.85
735.781	0.85
735.805	16.85
735.83	5.85
735.854	-9.15
735.879	8.85
735.903	-2.15
735.927	4.85
735.952	8.85
735.976	2.85
736.001	13.85
736.025	-9.15
736.049	-5.15
736.074	10.85
736.098	18.85
736.123	16.85
736.147	9.85
736.171	9.85
736.196	3.85
736.22	-4.15
736.244	2.85
736.269	10.85
736.293	-13.15
736.317	1.85
736.342	10.85
736.366	24.85
736.39	17.85
736.415	8.85
736.439	13.85
736.463	-1.15
736.488	-5.15
736.512	7.85
736.536	20.85
736.561	37.85
736.585	-6.15
736.609	0.85
736.634	7.85
736.658	-0.15
736.682	-6.15
736.707	-22.15
736.731	-17.15
736.755	4.85
736.78	22.85
736.804	1.85
736.828	0.85
736.852	-14.15
736.877	1.85
736.901	5.85
736.925	13.85
736.949	13.85
736.974	0.85
736.998	-1.15
737.022	12.85
737.047	9.85
737.071	3.85
737.095	24.85
737.119	19.85
737.144	6.85
737.168	4.85
737.192	-6.15
737.216	1.85
737.241	-11.15
737.265	-0.15
737.289	-3.15
737.313	6.85
737.337	5.85
737.362	1.85
737.386	-6.15
737.41	-5.15
737.434	10.85
737.459	15.85
737.483	17.85
737.507	15.85
737.531	5.85
737.555	2.85
737.58	22.85
737.604	8.85
737.628	3.85
737.652	-3.15
737.676	-7.15
737.701	10.85
737.725	-6.15
737.749	7.85
737.773	5.85
737.797	-5.15
737.821	0.85
737.846	1.85
737.87	26.85
737.894	16.85
737.918	6.85
737.942	-9.15
737.966	4.85
737.99	1.85
738.015	-8.15
738.039	4.85
738.063	-10.15
738.087	9.85
738.111	17.85
738.135	9.85
738.159	-6.15
738.184	6.85
738.208	4.85
738.232	3.85
738.256	19.85
738.28	13.85
738.304	13.85
738.328	-2.15
738.352	12.85
738.376	9.85
738.4	5.85
738.425	10.85
738.449	13.85
738.473	33.85
738.497	18.85
738.521	15.85
738.545	20.85
738.569	18.85
738.593	11.85
738.617	0.85
738.641	-12.15
738.665	-2.15
738.689	6.85
738.713	2.85
738.737	20.85
738.762	7.85
738.786	5.85
738.81	-15.15
738.834	14.85
738.858	-5.15
738.882	-1.15
738.906	-7.15
738.93	4.85
738.954	8.85
738.978	-2.15
739.002	-6.15
739.026	13.85
739.05	9.85
739.074	1.85
739.098	32.85
739.122	1.85
739.146	2.85
739.17	4.85
739.194	10.85
739.218	-2.15
739.242	0.85
739.266	-7.15
739.29	19.85
739.314	7.85
739.338	-8.15
739.362	9.85
739.386	8.85
739.41	5.85
739.434	-2.15
739.458	12.85
739.482	24.85
739.506	1.85
739.53	-1.15
739.554	10.85
739.577	-3.15
739.601	17.85
739.625	-7.15
739.649	-10.15
739.673	8.85
739.697	-2.15
739.721	1.85
739.745	7.85
739.769	11.85
739.793	7.85
739.817	6.85
739.841	-2.15
739.865	6.85
739.889	-8.15
739.912	8.85
739.936	-0.15
739.96	-0.15
739.984	29.85
740.008	-0.15
740.032	-3.15
740.056	-6.15
740.08	2.85
740.104	5.85
740.127	-1.15
740.151	4.85
740.175	10.85
740.199	5.85
740.223	48.85
740.247	1.85
740.271	2.85
740.295	-9.15
740.318	-17.15
740.342	1.85
740.366	7.85
740.39	21.85
740.414	6.85
740.438	-16.15
740.461	10.85
740.485	12.85
740.509	-6.15
740.533	3.85
740.557	4.85
740.581	-1.15
740.604	-10.15
740.628	6.85
740.652	4.85
740.676	18.85
740.7	16.85
740.723	-3.15
740.747	5.85
740.771	-3.15
740.795	4.85
740.819	1.85
740.842	-0.15
740.866	9.85
740.89	10.85
740.914	6.85
740.938	-5.15
740.961	14.85
740.985	1.85
741.009	-5.15
741.033	15.85
741.056	4.85
741.08	-2.15
741.104	-4.15
741.128	-6.15
741.151	10.85
741.175	14.85
741.199	-1.15
741.223	16.85
741.246	-5.15
741.27	8.85
741.294	6.85
741.318	-8.15
741.341	3.85
741.365	9.85
741.389	8.85
741.413	0.85
741.436	4.85
741.46	-10.15
741.484	10.85
741.507	3.85
741.531	21.85
741.555	13.85
741.579	6.85
741.602	5.85
741.626	14.85
741.65	17.85
741.673	8.85
741.697	6.85
741.721	2.85
741.744	-14.15
741.768	0.85
741.792	8.85
741.815	-8.15
741.839	9.85
741.863	8.85
741.886	14.85
741.91	17.85
741.934	7.85
741.957	-6.15
741.981	16.85
742.005	14.85
742.028	-3.15
742.052	-17.15
742.075	7.85
742.099	7.85
742.123	-15.15
742.146	14.85
742.17	14.85
742.194	-13.15
742.217	-10.15
742.241	-2.15
742.264	7.85
742.288	12.85
742.312	2.85
742.335	17.85
742.359	-13.15
742.382	4.85
742.406	19.85
742.43	4.85
742.453	-14.15
742.477	-9.15
742.5	-11.15
742.524	-1.15
742.548	-6.15
742.571	-6.15
742.595	-1.15
742.618	0.85
742.642	-7.15
742.665	-11.15
742.689	-5.15
742.712	2.85
742.736	1.85
742.76	9.85
742.783	-8.15
742.807	19.85
742.83	9.85
742.854	-9.15
742.877	-9.15
742.901	-0.15
742.924	-11.15
742.948	4.85
742.971	5.85
742.995	14.85
743.018	-6.15
743.042	2.85
743.065	-0.15
743.089	-6.15
743.112	8.85
743.136	4.85
743.159	4.85
743.183	-3.15
743.206	4.85
743.23	13.85
743.253	8.85
743.277	24.85
743.3	1.85
743.324	-0.15
743.347	-1.15
743.371	12.85
743.394	13.85
743.418	22.85
743.441	9.85
743.465	20.85
743.488	-1.15
743.512	-9.15
743.535	-10.15
743.558	8.85
743.582	8.85
743.605	0.85
743.629	-0.15
743.652	2.85
743.676	8.85
743.699	3.85
743.723	0.85
743.746	-19.15
743.769	-19.15
743.793	-8.15
743.816	-12.15
743.84	-3.15
743.863	-4.15
743.886	10.85
743.91	18.85
743.933	1.85
743.957	1.85
743.98	4.85
744.003	10.85
744.027	13.85
744.05	-4.15
744.074	1.85
744.097	-13.15
744.12	-2.15
744.144	0.85
744.167	8.85
744.19	3.85
744.214	4.85
744.237	-1.15
744.26	21.85
744.284	4.85
744.307	-11.15
744.331	1.85
744.354	-3.15
744.377	9.85
744.401	-3.15
744.424	-1.15
744.447	-5.15
744.471	-5.15
