Data from HighRes_mercury_15_13_11_07_2024_HR4C61891__59__15-14-29-086.txt Node

Date: Thu Nov 07 15:14:29 EST 2024
User: crc00042
Spectrometer: HR4C6189
Trigger mode: 4
Integration Time (sec): 1.000000E-1
Scans to average: 1
Electric dark correction enabled: true
Nonlinearity correction enabled: false
Boxcar width: 0
XAxis mode: Wavelengths
Number of Pixels in Spectrum: 3648
>>>>>Begin Spectral Data<<<<<
639.567	-20.08
639.602	-20.08
639.636	-20.08
639.67	-44.08
639.704	-30.08
639.738	0.92
639.773	17.92
639.807	-24.08
639.841	1.92
639.875	20.92
639.909	3.92
639.943	-2.08
639.978	-10.08
640.012	-0.08
640.046	1.92
640.08	8.92
640.114	-12.08
640.148	-8.08
640.182	-13.08
640.217	-4.08
640.251	19.92
640.285	6.92
640.319	-10.08
640.353	-10.08
640.387	4.92
640.421	13.92
640.455	-14.08
640.49	-6.08
640.524	-4.08
640.558	-4.08
640.592	-6.08
640.626	1.92
640.66	14.92
640.694	-5.08
640.728	10.92
640.762	24.92
640.796	9.92
640.83	17.92
640.865	-0.08
640.899	-13.08
640.933	-0.08
640.967	-7.08
641.001	1.92
641.035	4.92
641.069	-11.08
641.103	-7.08
641.137	0.92
641.171	-17.08
641.205	-2.08
641.239	-0.08
641.273	9.92
641.307	15.92
641.341	-2.08
641.375	-4.08
641.409	-0.08
641.443	-5.08
641.477	1.92
641.511	2.92
641.545	-0.08
641.579	-19.08
641.614	3.92
641.648	12.92
641.682	-0.08
641.716	-1.08
641.75	9.92
641.784	-2.08
641.818	2.92
641.852	3.92
641.886	-2.08
641.919	20.92
641.953	-8.08
641.987	-3.08
642.021	-12.08
642.055	4.92
642.089	3.92
642.123	0.92
642.157	3.92
642.191	-5.08
642.225	8.92
642.259	-1.08
642.293	-0.08
642.327	-5.08
642.361	-5.08
642.395	3.92
642.429	5.92
642.463	34.92
642.497	8.92
642.531	2.92
642.565	0.92
642.599	8.92
642.633	-15.08
642.666	-1.08
642.7	18.92
642.734	14.92
642.768	-10.08
642.802	-0.08
642.836	-3.08
642.87	5.92
642.904	-4.08
642.938	3.92
642.972	1.92
643.005	-6.08
643.039	-2.08
643.073	-8.08
643.107	6.92
643.141	3.92
643.175	7.92
643.209	-0.08
643.243	-3.08
643.276	-1.08
643.31	3.92
643.344	-20.08
643.378	-6.08
643.412	-3.08
643.446	-4.08
643.48	-10.08
643.513	10.92
643.547	2.92
643.581	-8.08
643.615	-9.08
643.649	0.92
643.683	5.92
643.716	2.92
643.75	-9.08
643.784	-18.08
643.818	10.92
643.852	-0.08
643.886	-0.08
643.919	8.92
643.953	-2.08
643.987	-7.08
644.021	15.92
644.055	10.92
644.088	-12.08
644.122	-13.08
644.156	-9.08
644.19	-1.08
644.224	-4.08
644.257	-1.08
644.291	-6.08
644.325	-2.08
644.359	14.92
644.392	25.92
644.426	1.92
644.46	-16.08
644.494	0.92
644.527	-3.08
644.561	-7.08
644.595	2.92
644.629	-16.08
644.662	-17.08
644.696	14.92
644.73	2.92
644.764	8.92
644.797	11.92
644.831	7.92
644.865	11.92
644.899	-2.08
644.932	15.92
644.966	-0.08
645	3.92
645.033	6.92
645.067	-25.08
645.101	0.92
645.135	-11.08
645.168	-15.08
645.202	0.92
645.236	12.92
645.269	1.92
645.303	1.92
645.337	-1.08
645.37	-3.08
645.404	0.92
645.438	3.92
645.471	-0.08
645.505	23.92
645.539	2.92
645.572	-11.08
645.606	-14.08
645.64	-14.08
645.673	-3.08
645.707	13.92
645.741	5.92
645.774	-13.08
645.808	19.92
645.842	11.92
645.875	7.92
645.909	-5.08
645.943	-5.08
645.976	-5.08
646.01	-8.08
646.043	-2.08
646.077	1.92
646.111	13.92
646.144	3.92
646.178	8.92
646.212	-27.08
646.245	-1.08
646.279	6.92
646.312	4.92
646.346	6.92
646.38	-12.08
646.413	1.92
646.447	-12.08
646.48	-4.08
646.514	21.92
646.547	-15.08
646.581	-4.08
646.615	-7.08
646.648	-15.08
646.682	-17.08
646.715	0.92
646.749	5.92
646.782	-4.08
646.816	-4.08
646.85	-3.08
646.883	-13.08
646.917	-5.08
646.95	-3.08
646.984	-3.08
647.017	-2.08
647.051	3.92
647.084	8.92
647.118	-10.08
647.151	7.92
647.185	1.92
647.218	-8.08
647.252	6.92
647.285	-10.08
647.319	-12.08
647.353	-3.08
647.386	16.92
647.42	-9.08
647.453	0.92
647.487	-4.08
647.52	-3.08
647.553	-0.08
647.587	-12.08
647.62	-8.08
647.654	-2.08
647.687	-0.08
647.721	4.92
647.754	2.92
647.788	-4.08
647.821	-12.08
647.855	0.92
647.888	6.92
647.922	9.92
647.955	0.92
647.989	-7.08
648.022	3.92
648.055	8.92
648.089	-2.08
648.122	30.92
648.156	9.92
648.189	-11.08
648.223	-4.08
648.256	5.92
648.29	-7.08
648.323	6.92
648.356	-8.08
648.39	1.92
648.423	3.92
648.457	-9.08
648.49	3.92
648.523	0.92
648.557	-7.08
648.59	6.92
648.624	0.92
648.657	-0.08
648.69	14.92
648.724	-6.08
648.757	8.92
648.791	13.92
648.824	7.92
648.857	19.92
648.891	-9.08
648.924	3.92
648.957	10.92
648.991	-16.08
649.024	2.92
649.057	-9.08
649.091	-10.08
649.124	-1.08
649.158	11.92
649.191	13.92
649.224	1.92
649.258	-0.08
649.291	1.92
649.324	-14.08
649.358	-2.08
649.391	4.92
649.424	8.92
649.458	-12.08
649.491	5.92
649.524	-21.08
649.557	-5.08
649.591	-9.08
649.624	15.92
649.657	-20.08
649.691	1.92
649.724	-10.08
649.757	-2.08
649.791	-4.08
649.824	0.92
649.857	1.92
649.89	14.92
649.924	-9.08
649.957	-9.08
649.99	-20.08
650.023	-0.08
650.057	-4.08
650.09	1.92
650.123	7.92
650.157	11.92
650.19	14.92
650.223	-1.08
650.256	-14.08
650.29	-17.08
650.323	3.92
650.356	2.92
650.389	2.92
650.423	-19.08
650.456	-13.08
650.489	-25.08
650.522	-7.08
650.555	12.92
650.589	5.92
650.622	-3.08
650.655	-6.08
650.688	-4.08
650.721	-11.08
650.755	-9.08
650.788	7.92
650.821	-4.08
650.854	-8.08
650.887	-10.08
650.921	-19.08
650.954	-2.08
650.987	0.92
651.02	4.92
651.053	2.92
651.087	-9.08
651.12	9.92
651.153	12.92
651.186	-1.08
651.219	6.92
651.252	15.92
651.286	-0.08
651.319	-20.08
651.352	-9.08
651.385	-3.08
651.418	-6.08
651.451	6.92
651.484	0.92
651.518	-13.08
651.551	21.92
651.584	-11.08
651.617	18.92
651.65	0.92
651.683	12.92
651.716	-7.08
651.749	-8.08
651.783	-12.08
651.816	-10.08
651.849	1.92
651.882	-4.08
651.915	-14.08
651.948	-5.08
651.981	-5.08
652.014	-24.08
652.047	-20.08
652.08	-16.08
652.114	2.92
652.147	-0.08
652.18	-4.08
652.213	14.92
652.246	-8.08
652.279	-8.08
652.312	11.92
652.345	-1.08
652.378	11.92
652.411	20.92
652.444	-3.08
652.477	-5.08
652.51	-7.08
652.543	-20.08
652.576	9.92
652.609	-13.08
652.642	4.92
652.675	17.92
652.709	-6.08
652.742	8.92
652.775	5.92
652.808	6.92
652.841	17.92
652.874	11.92
652.907	-1.08
652.94	-15.08
652.973	-13.08
653.006	3.92
653.039	18.92
653.072	14.92
653.105	-23.08
653.138	-9.08
653.171	-25.08
653.204	-2.08
653.237	1.92
653.27	-17.08
653.303	-4.08
653.336	2.92
653.368	-14.08
653.401	-18.08
653.434	0.92
653.467	-3.08
653.5	-22.08
653.533	-16.08
653.566	1.92
653.599	-0.08
653.632	-10.08
653.665	1.92
653.698	-22.08
653.731	-18.08
653.764	4.92
653.797	-2.08
653.83	-0.08
653.863	-6.08
653.896	-5.08
653.929	-6.08
653.961	-4.08
653.994	-0.08
654.027	-19.08
654.06	4.92
654.093	4.92
654.126	13.92
654.159	-1.08
654.192	-3.08
654.225	4.92
654.258	-11.08
654.29	-4.08
654.323	-2.08
654.356	-9.08
654.389	3.92
654.422	-2.08
654.455	5.92
654.488	-7.08
654.521	-26.08
654.553	-11.08
654.586	17.92
654.619	-4.08
654.652	-4.08
654.685	14.92
654.718	9.92
654.751	20.92
654.783	-11.08
654.816	-0.08
654.849	4.92
654.882	-25.08
654.915	-26.08
654.948	-10.08
654.98	-10.08
655.013	3.92
655.046	-4.08
655.079	-8.08
655.112	-5.08
655.144	-8.08
655.177	2.92
655.21	14.92
655.243	13.92
655.276	4.92
655.308	7.92
655.341	2.92
655.374	20.92
655.407	-13.08
655.44	-11.08
655.472	1.92
655.505	-19.08
655.538	-7.08
655.571	11.92
655.603	-13.08
655.636	-13.08
655.669	-1.08
655.702	-3.08
655.734	-3.08
655.767	-2.08
655.8	-1.08
655.833	2.92
655.865	7.92
655.898	-0.08
655.931	6.92
655.964	3.92
655.996	-12.08
656.029	12.92
656.062	-5.08
656.095	0.92
656.127	-17.08
656.16	1.92
656.193	-10.08
656.225	2.92
656.258	4.92
656.291	9.92
656.324	-2.08
656.356	-1.08
656.389	0.92
656.422	17.92
656.454	-1.08
656.487	-1.08
656.52	-2.08
656.552	-6.08
656.585	-12.08
656.618	-5.08
656.65	22.92
656.683	0.92
656.716	-9.08
656.748	5.92
656.781	0.92
656.814	-8.08
656.846	-1.08
656.879	-0.08
656.912	13.92
656.944	-16.08
656.977	-4.08
657.01	-1.08
657.042	-12.08
657.075	-2.08
657.108	-11.08
657.14	-5.08
657.173	11.92
657.205	26.92
657.238	8.92
657.271	4.92
657.303	-12.08
657.336	-17.08
657.369	-11.08
657.401	-21.08
657.434	-10.08
657.466	-4.08
657.499	4.92
657.532	1.92
657.564	17.92
657.597	10.92
657.629	20.92
657.662	6.92
657.694	3.92
657.727	-12.08
657.76	1.92
657.792	-15.08
657.825	-10.08
657.857	-1.08
657.89	-13.08
657.922	18.92
657.955	-24.08
657.987	-15.08
658.02	16.92
658.053	17.92
658.085	0.92
658.118	7.92
658.15	6.92
658.183	12.92
658.215	13.92
658.248	-0.08
658.28	-12.08
658.313	3.92
658.345	9.92
658.378	-0.08
658.41	4.92
658.443	0.92
658.475	5.92
658.508	-12.08
658.54	6.92
658.573	-0.08
658.605	-7.08
658.638	-8.08
658.67	-11.08
658.703	-2.08
658.735	-25.08
658.768	1.92
658.8	-20.08
658.833	26.92
658.865	-0.08
658.898	-2.08
658.93	1.92
658.963	-6.08
658.995	-0.08
659.028	-5.08
659.06	-2.08
659.092	-2.08
659.125	-10.08
659.157	-5.08
659.19	-19.08
659.222	-11.08
659.255	3.92
659.287	-5.08
659.32	-6.08
659.352	-2.08
659.384	7.92
659.417	-16.08
659.449	11.92
659.482	-8.08
659.514	-16.08
659.546	-22.08
659.579	-11.08
659.611	4.92
659.644	3.92
659.676	-17.08
659.708	-15.08
659.741	-5.08
659.773	5.92
659.806	2.92
659.838	-7.08
659.87	-1.08
659.903	-3.08
659.935	23.92
659.967	4.92
660	-1.08
660.032	-23.08
660.065	12.92
660.097	2.92
660.129	-8.08
660.162	-16.08
660.194	8.92
660.226	-1.08
660.259	-4.08
660.291	0.92
660.323	-6.08
660.356	-5.08
660.388	-2.08
660.42	-1.08
660.453	-5.08
660.485	13.92
660.517	15.92
660.55	11.92
660.582	4.92
660.614	5.92
660.647	-7.08
660.679	-1.08
660.711	1.92
660.743	-28.08
660.776	-26.08
660.808	-13.08
660.84	-10.08
660.873	-13.08
660.905	-6.08
660.937	-6.08
660.969	-1.08
661.002	-2.08
661.034	-2.08
661.066	-4.08
661.099	6.92
661.131	8.92
661.163	2.92
661.195	4.92
661.228	-7.08
661.26	-25.08
661.292	-14.08
661.324	2.92
661.357	-1.08
661.389	2.92
661.421	-4.08
661.453	-10.08
661.485	8.92
661.518	-4.08
661.55	-25.08
661.582	-14.08
661.614	-13.08
661.647	14.92
661.679	0.92
661.711	-5.08
661.743	-17.08
661.775	-5.08
661.808	20.92
661.84	-5.08
661.872	-0.08
661.904	-14.08
661.936	-0.08
661.969	-12.08
662.001	-1.08
662.033	-6.08
662.065	-13.08
662.097	8.92
662.129	1.92
662.162	-1.08
662.194	2.92
662.226	-0.08
662.258	11.92
662.29	-0.08
662.322	-21.08
662.355	-21.08
662.387	11.92
662.419	-3.08
662.451	5.92
662.483	-2.08
662.515	-22.08
662.547	2.92
662.58	-4.08
662.612	-2.08
662.644	-1.08
662.676	0.92
662.708	18.92
662.74	-8.08
662.772	2.92
662.804	4.92
662.836	11.92
662.869	-13.08
662.901	10.92
662.933	-3.08
662.965	5.92
662.997	4.92
663.029	-9.08
663.061	-10.08
663.093	-11.08
663.125	-0.08
663.157	2.92
663.189	1.92
663.221	7.92
663.254	0.92
663.286	-13.08
663.318	-11.08
663.35	-0.08
663.382	-13.08
663.414	-5.08
663.446	5.92
663.478	-19.08
663.51	8.92
663.542	6.92
663.574	6.92
663.606	-4.08
663.638	-11.08
663.67	-13.08
663.702	4.92
663.734	5.92
663.766	-1.08
663.798	-13.08
663.83	-5.08
663.862	4.92
663.894	1.92
663.926	7.92
663.958	11.92
663.99	-2.08
664.022	-14.08
664.054	14.92
664.086	-8.08
664.118	-20.08
664.15	-9.08
664.182	-6.08
664.214	-5.08
664.246	7.92
664.278	-5.08
664.31	12.92
664.342	-0.08
664.374	-3.08
664.406	-2.08
664.438	1.92
664.47	0.92
664.502	-10.08
664.534	-12.08
664.566	-18.08
664.598	-6.08
664.63	-26.08
664.662	-6.08
664.693	-5.08
664.725	-10.08
664.757	-13.08
664.789	-24.08
664.821	3.92
664.853	13.92
664.885	-2.08
664.917	-8.08
664.949	5.92
664.981	22.92
665.013	-18.08
665.045	-13.08
665.076	5.92
665.108	3.92
665.14	3.92
665.172	0.92
665.204	-11.08
665.236	-8.08
665.268	20.92
665.3	-6.08
665.331	-11.08
665.363	6.92
665.395	-6.08
665.427	-16.08
665.459	-5.08
665.491	-1.08
665.523	-2.08
665.555	-20.08
665.586	-21.08
665.618	-27.08
665.65	-12.08
665.682	0.92
665.714	2.92
665.746	-13.08
665.777	-7.08
665.809	-1.08
665.841	3.92
665.873	-11.08
665.905	-10.08
665.937	8.92
665.968	4.92
666	-0.08
666.032	-9.08
666.064	-5.08
666.096	-3.08
666.127	5.92
666.159	20.92
666.191	19.92
666.223	6.92
666.255	-4.08
666.286	-9.08
666.318	-16.08
666.35	3.92
666.382	-10.08
666.413	-13.08
666.445	-10.08
666.477	-30.08
666.509	-18.08
666.54	-33.08
666.572	-21.08
666.604	-7.08
666.636	-16.08
666.667	7.92
666.699	4.92
666.731	-0.08
666.763	-17.08
666.794	-4.08
666.826	-9.08
666.858	-29.08
666.89	-2.08
666.921	6.92
666.953	5.92
666.985	10.92
667.017	18.92
667.048	9.92
667.08	-11.08
667.112	-2.08
667.143	-8.08
667.175	-9.08
667.207	-11.08
667.238	3.92
667.27	10.92
667.302	-0.08
667.334	-1.08
667.365	10.92
667.397	-5.08
667.429	-2.08
667.46	0.92
667.492	0.92
667.524	-1.08
667.555	-2.08
667.587	6.92
667.619	-0.08
667.65	-5.08
667.682	-0.08
667.714	-0.08
667.745	-2.08
667.777	-4.08
667.808	6.92
667.84	0.92
667.872	-17.08
667.903	26.92
667.935	1.92
667.967	6.92
667.998	-8.08
668.03	-8.08
668.061	9.92
668.093	-6.08
668.125	-2.08
668.156	1.92
668.188	-6.08
668.22	-8.08
668.251	0.92
668.283	-7.08
668.314	13.92
668.346	0.92
668.377	10.92
668.409	-5.08
668.441	4.92
668.472	-1.08
668.504	-1.08
668.535	3.92
668.567	-2.08
668.599	0.92
668.63	-11.08
668.662	-18.08
668.693	16.92
668.725	13.92
668.756	-0.08
668.788	2.92
668.819	-1.08
668.851	10.92
668.882	-1.08
668.914	-14.08
668.946	-2.08
668.977	-14.08
669.009	-9.08
669.04	-21.08
669.072	6.92
669.103	-9.08
669.135	2.92
669.166	-0.08
669.198	-5.08
669.229	14.92
669.261	12.92
669.292	-8.08
669.324	-7.08
669.355	-0.08
669.387	-1.08
669.418	3.92
669.45	-6.08
669.481	3.92
669.513	3.92
669.544	-9.08
669.576	-4.08
669.607	5.92
669.639	19.92
669.67	10.92
669.701	-0.08
669.733	-13.08
669.764	-8.08
669.796	-10.08
669.827	-25.08
669.859	-3.08
669.89	6.92
669.922	-3.08
669.953	3.92
669.985	0.92
670.016	-1.08
670.047	-0.08
670.079	-5.08
670.11	2.92
670.142	-0.08
670.173	-3.08
670.204	-20.08
670.236	-8.08
670.267	-8.08
670.299	2.92
670.33	-16.08
670.362	13.92
670.393	-9.08
670.424	2.92
670.456	-8.08
670.487	-12.08
670.518	-2.08
670.55	-6.08
670.581	5.92
670.613	3.92
670.644	-10.08
670.675	-8.08
670.707	-12.08
670.738	-7.08
670.769	7.92
670.801	-18.08
670.832	0.92
670.864	-21.08
670.895	-5.08
670.926	0.92
670.958	-5.08
670.989	-9.08
671.02	-17.08
671.052	-5.08
671.083	-6.08
671.114	-15.08
671.146	18.92
671.177	-4.08
671.208	-13.08
671.24	-27.08
671.271	-5.08
671.302	-8.08
671.333	-24.08
671.365	-25.08
671.396	-7.08
671.427	-3.08
671.459	0.92
671.49	-5.08
671.521	8.92
671.553	11.92
671.584	2.92
671.615	-10.08
671.646	1.92
671.678	6.92
671.709	-16.08
671.74	-16.08
671.771	-21.08
671.803	-1.08
671.834	-7.08
671.865	-2.08
671.896	-4.08
671.928	-5.08
671.959	-5.08
671.99	-0.08
672.021	-1.08
672.053	-0.08
672.084	1.92
672.115	-1.08
672.146	-12.08
672.178	-22.08
672.209	-13.08
672.24	-11.08
672.271	27.92
672.303	3.92
672.334	-2.08
672.365	-1.08
672.396	-2.08
672.427	5.92
672.459	-8.08
672.49	5.92
672.521	-2.08
672.552	2.92
672.583	-0.08
672.615	0.92
672.646	0.92
672.677	2.92
672.708	6.92
672.739	1.92
672.77	0.92
672.802	8.92
672.833	-9.08
672.864	-20.08
672.895	-1.08
672.926	-4.08
672.957	-23.08
672.989	0.92
673.02	8.92
673.051	-16.08
673.082	-0.08
673.113	-11.08
673.144	-10.08
673.175	-7.08
673.206	-13.08
673.238	-6.08
673.269	-14.08
673.3	-5.08
673.331	1.92
673.362	-9.08
673.393	-17.08
673.424	4.92
673.455	14.92
673.487	-4.08
673.518	19.92
673.549	8.92
673.58	15.92
673.611	1.92
673.642	-8.08
673.673	-11.08
673.704	-4.08
673.735	-2.08
673.766	-13.08
673.797	-5.08
673.828	-0.08
673.86	-1.08
673.891	2.92
673.922	-14.08
673.953	-7.08
673.984	5.92
674.015	4.92
674.046	-10.08
674.077	-3.08
674.108	-9.08
674.139	-15.08
674.17	-12.08
674.201	-17.08
674.232	-7.08
674.263	-2.08
674.294	-16.08
674.325	-27.08
674.356	2.92
674.387	7.92
674.418	-0.08
674.449	-1.08
674.48	1.92
674.511	8.92
674.542	2.92
674.573	-23.08
674.604	6.92
674.635	-10.08
674.666	2.92
674.697	-0.08
674.728	10.92
674.759	-2.08
674.79	-13.08
674.821	-16.08
674.852	-2.08
674.883	-4.08
674.914	-1.08
674.945	-1.08
674.976	-5.08
675.007	-9.08
675.038	-17.08
675.069	-25.08
675.1	-22.08
675.131	-12.08
675.162	-12.08
675.193	-7.08
675.224	-2.08
675.254	10.92
675.285	14.92
675.316	12.92
675.347	1.92
675.378	-5.08
675.409	-7.08
675.44	2.92
675.471	-18.08
675.502	-20.08
675.533	-9.08
675.564	-6.08
675.595	5.92
675.625	23.92
675.656	6.92
675.687	3.92
675.718	-17.08
675.749	7.92
675.78	2.92
675.811	-11.08
675.842	2.92
675.873	-10.08
675.903	1.92
675.934	4.92
675.965	-4.08
675.996	-0.08
676.027	-4.08
676.058	-14.08
676.089	-22.08
676.119	-13.08
676.15	-11.08
676.181	-11.08
676.212	-8.08
676.243	17.92
676.274	-4.08
676.304	-1.08
676.335	-21.08
676.366	-14.08
676.397	-18.08
676.428	-1.08
676.459	-1.08
676.489	7.92
676.52	3.92
676.551	1.92
676.582	-5.08
676.613	9.92
676.643	5.92
676.674	-4.08
676.705	-19.08
676.736	4.92
676.767	1.92
676.797	5.92
676.828	-1.08
676.859	-2.08
676.89	-15.08
676.92	1.92
676.951	-9.08
676.982	-3.08
677.013	2.92
677.044	4.92
677.074	14.92
677.105	-23.08
677.136	-9.08
677.167	-1.08
677.197	1.92
677.228	-4.08
677.259	-2.08
677.289	8.92
677.32	-9.08
677.351	-12.08
677.382	-2.08
677.412	-17.08
677.443	-1.08
677.474	-2.08
677.505	-24.08
677.535	-11.08
677.566	-22.08
677.597	-5.08
677.627	-1.08
677.658	-1.08
677.689	-19.08
677.72	1.92
677.75	-7.08
677.781	-6.08
677.812	-9.08
677.842	2.92
677.873	6.92
677.904	-5.08
677.934	2.92
677.965	7.92
677.996	-5.08
678.026	-2.08
678.057	-4.08
678.088	-7.08
678.118	-5.08
678.149	-6.08
678.18	-8.08
678.21	-13.08
678.241	-3.08
678.272	1.92
678.302	-4.08
678.333	-1.08
678.363	10.92
678.394	17.92
678.425	-1.08
678.455	4.92
678.486	13.92
678.517	-2.08
678.547	-8.08
678.578	-5.08
678.608	-9.08
678.639	8.92
678.67	-6.08
678.7	-20.08
678.731	-0.08
678.761	-0.08
678.792	12.92
678.823	11.92
678.853	-5.08
678.884	-9.08
678.914	7.92
678.945	-3.08
678.975	-13.08
679.006	19.92
679.037	14.92
679.067	8.92
679.098	15.92
679.128	-1.08
679.159	-3.08
679.189	13.92
679.22	-14.08
679.25	-1.08
679.281	-4.08
679.312	-9.08
679.342	-17.08
679.373	29.92
679.403	6.92
679.434	16.92
679.464	1.92
679.495	7.92
679.525	-2.08
679.556	3.92
679.586	11.92
679.617	16.92
679.647	-0.08
679.678	-1.08
679.708	-8.08
679.739	-20.08
679.769	-3.08
679.8	-8.08
679.83	0.92
679.861	8.92
679.891	-7.08
679.922	-16.08
679.952	-6.08
679.983	-9.08
680.013	5.92
680.044	-15.08
680.074	-2.08
680.105	0.92
680.135	9.92
680.165	0.92
680.196	0.92
680.226	-6.08
680.257	10.92
680.287	3.92
680.318	-4.08
680.348	-7.08
680.379	9.92
680.409	2.92
680.439	-13.08
680.47	-8.08
680.5	0.92
680.531	5.92
680.561	-4.08
680.592	5.92
680.622	15.92
680.652	-1.08
680.683	24.92
680.713	-2.08
680.744	-8.08
680.774	-5.08
680.804	6.92
680.835	-4.08
680.865	2.92
680.896	24.92
680.926	26.92
680.956	-5.08
680.987	-1.08
681.017	-17.08
681.047	5.92
681.078	2.92
681.108	-12.08
681.139	-9.08
681.169	8.92
681.199	6.92
681.23	8.92
681.26	1.92
681.29	1.92
681.321	-20.08
681.351	-7.08
681.381	-16.08
681.412	5.92
681.442	-11.08
681.472	5.92
681.503	10.92
681.533	-10.08
681.563	-20.08
681.594	-4.08
681.624	-5.08
681.654	-7.08
681.685	7.92
681.715	0.92
681.745	-9.08
681.775	-8.08
681.806	5.92
681.836	-4.08
681.866	-1.08
681.897	7.92
681.927	-11.08
681.957	-16.08
681.987	-4.08
682.018	-11.08
682.048	8.92
682.078	9.92
682.109	10.92
682.139	7.92
682.169	10.92
682.199	-5.08
682.23	-16.08
682.26	2.92
682.29	-18.08
682.32	-1.08
682.351	2.92
682.381	17.92
682.411	7.92
682.441	-7.08
682.472	-6.08
682.502	1.92
682.532	-12.08
682.562	-0.08
682.592	-2.08
682.623	-7.08
682.653	-24.08
682.683	-6.08
682.713	-3.08
682.743	-13.08
682.774	3.92
682.804	-1.08
682.834	-0.08
682.864	-7.08
682.894	-8.08
682.925	5.92
682.955	-9.08
682.985	-6.08
683.015	14.92
683.045	25.92
683.076	-12.08
683.106	-16.08
683.136	-30.08
683.166	-19.08
683.196	-3.08
683.226	-0.08
683.257	-9.08
683.287	-13.08
683.317	-4.08
683.347	-12.08
683.377	-13.08
683.407	3.92
683.437	-2.08
683.468	-4.08
683.498	-8.08
683.528	-3.08
683.558	-12.08
683.588	-11.08
683.618	-22.08
683.648	-5.08
683.678	0.92
683.708	17.92
683.739	-2.08
683.769	-3.08
683.799	-3.08
683.829	15.92
683.859	0.92
683.889	6.92
683.919	1.92
683.949	-1.08
683.979	-9.08
684.009	-13.08
684.039	-2.08
684.07	0.92
684.1	1.92
684.13	1.92
684.16	4.92
684.19	11.92
684.22	10.92
684.25	-1.08
684.28	-8.08
684.31	19.92
684.34	8.92
684.37	5.92
684.4	-7.08
684.43	-2.08
684.46	2.92
684.49	4.92
684.52	-4.08
684.55	20.92
684.58	3.92
684.61	7.92
684.64	12.92
684.67	6.92
684.7	-8.08
684.73	-1.08
684.76	-12.08
684.79	2.92
684.82	-14.08
684.85	-0.08
684.88	1.92
684.91	0.92
684.94	7.92
684.97	-18.08
685	-12.08
685.03	-6.08
685.06	-11.08
685.09	-13.08
685.12	1.92
685.15	6.92
685.18	7.92
685.21	-2.08
685.24	-8.08
685.27	9.92
685.3	-11.08
685.33	6.92
685.36	-4.08
685.39	3.92
685.42	-21.08
685.45	-10.08
685.48	1.92
685.51	2.92
685.54	8.92
685.569	-10.08
685.599	-10.08
685.629	6.92
685.659	-0.08
685.689	-3.08
685.719	6.92
685.749	-10.08
685.779	-4.08
685.809	-2.08
685.839	-1.08
685.869	-2.08
685.898	4.92
685.928	-6.08
685.958	-2.08
685.988	9.92
686.018	-8.08
686.048	11.92
686.078	4.92
686.108	15.92
686.137	-0.08
686.167	8.92
686.197	-12.08
686.227	-1.08
686.257	16.92
686.287	17.92
686.317	0.92
686.346	-1.08
686.376	-31.08
686.406	-16.08
686.436	20.92
686.466	-9.08
686.496	-3.08
686.525	-1.08
686.555	-3.08
686.585	7.92
686.615	14.92
686.645	7.92
686.675	6.92
686.704	1.92
686.734	-1.08
686.764	2.92
686.794	8.92
686.824	-2.08
686.853	3.92
686.883	10.92
686.913	5.92
686.943	-4.08
686.973	-13.08
687.002	1.92
687.032	-4.08
687.062	-8.08
687.092	-3.08
687.121	-10.08
687.151	-4.08
687.181	-3.08
687.211	1.92
687.24	-0.08
687.27	-1.08
687.3	5.92
687.33	-6.08
687.359	-12.08
687.389	4.92
687.419	-11.08
687.449	-0.08
687.478	7.92
687.508	-2.08
687.538	-6.08
687.568	-12.08
687.597	-12.08
687.627	1.92
687.657	-12.08
687.686	13.92
687.716	25.92
687.746	-8.08
687.776	-11.08
687.805	-6.08
687.835	-14.08
687.865	5.92
687.894	12.92
687.924	-8.08
687.954	-5.08
687.983	-3.08
688.013	11.92
688.043	-0.08
688.072	4.92
688.102	-0.08
688.132	-8.08
688.161	-3.08
688.191	-14.08
688.221	5.92
688.25	-14.08
688.28	-4.08
688.31	7.92
688.339	-12.08
688.369	-24.08
688.399	-21.08
688.428	-5.08
688.458	-1.08
688.488	7.92
688.517	16.92
688.547	-3.08
688.576	24.92
688.606	15.92
688.636	-3.08
688.665	6.92
688.695	-0.08
688.725	12.92
688.754	-6.08
688.784	-1.08
688.813	17.92
688.843	6.92
688.873	-0.08
688.902	-12.08
688.932	-1.08
688.961	8.92
688.991	4.92
689.02	-1.08
689.05	-18.08
689.08	-1.08
689.109	1.92
689.139	2.92
689.168	-3.08
689.198	-4.08
689.227	-13.08
689.257	4.92
689.287	-7.08
689.316	-5.08
689.346	-15.08
689.375	-10.08
689.405	6.92
689.434	-4.08
689.464	-6.08
689.493	-3.08
689.523	-4.08
689.552	-10.08
689.582	10.92
689.611	4.92
689.641	14.92
689.67	14.92
689.7	20.92
689.73	-2.08
689.759	-4.08
689.789	6.92
689.818	-5.08
689.848	-4.08
689.877	0.92
689.906	10.92
689.936	-6.08
689.965	7.92
689.995	19.92
690.024	8.92
690.054	3.92
690.083	9.92
690.113	-10.08
690.142	-15.08
690.172	-3.08
690.201	2.92
690.231	5.92
690.26	4.92
690.29	5.92
690.319	-4.08
690.348	-3.08
690.378	0.92
690.407	3.92
690.437	-6.08
690.466	-2.08
690.496	-8.08
690.525	8.92
690.555	2.92
690.584	-16.08
690.613	-18.08
690.643	-0.08
690.672	1.92
690.702	-3.08
690.731	-2.08
690.76	4.92
690.79	39.92
690.819	33.92
690.849	19.92
690.878	20.92
690.907	14.92
690.937	33.92
690.966	12.92
690.996	6.92
691.025	-5.08
691.054	-2.08
691.084	-9.08
691.113	2.92
691.142	13.92
691.172	-4.08
691.201	9.92
691.23	-6.08
691.26	2.92
691.289	1.92
691.319	2.92
691.348	0.92
691.377	15.92
691.407	10.92
691.436	7.92
691.465	8.92
691.495	-10.08
691.524	-12.08
691.553	-10.08
691.583	-6.08
691.612	-2.08
691.641	-0.08
691.67	12.92
691.7	1.92
691.729	-10.08
691.758	2.92
691.788	3.92
691.817	-6.08
691.846	-21.08
691.876	-8.08
691.905	4.92
691.934	8.92
691.963	18.92
691.993	4.92
692.022	3.92
692.051	-3.08
692.081	18.92
692.11	15.92
692.139	-4.08
692.168	9.92
692.198	18.92
692.227	-5.08
692.256	-1.08
692.285	-12.08
692.315	-8.08
692.344	-2.08
692.373	6.92
692.402	2.92
692.432	-10.08
692.461	-5.08
692.49	-11.08
692.519	-9.08
692.548	0.92
692.578	11.92
692.607	5.92
692.636	-20.08
692.665	-3.08
692.694	-8.08
692.724	-12.08
692.753	16.92
692.782	14.92
692.811	-0.08
692.84	-10.08
692.87	-6.08
692.899	-12.08
692.928	-0.08
692.957	10.92
692.986	-4.08
693.016	10.92
693.045	1.92
693.074	-12.08
693.103	-8.08
693.132	-4.08
693.161	13.92
693.191	8.92
693.22	-16.08
693.249	-2.08
693.278	3.92
693.307	2.92
693.336	-14.08
693.365	-21.08
693.395	-8.08
693.424	0.92
693.453	14.92
693.482	6.92
693.511	18.92
693.54	8.92
693.569	-1.08
693.598	-5.08
693.628	-2.08
693.657	10.92
693.686	14.92
693.715	14.92
693.744	10.92
693.773	-1.08
693.802	-5.08
693.831	1.92
693.86	21.92
693.889	-15.08
693.919	-12.08
693.948	4.92
693.977	5.92
694.006	-9.08
694.035	3.92
694.064	-10.08
694.093	-15.08
694.122	-0.08
694.151	-15.08
694.18	-4.08
694.209	17.92
694.238	2.92
694.267	20.92
694.296	1.92
694.325	12.92
694.354	15.92
694.383	-1.08
694.412	-5.08
694.441	-16.08
694.471	-3.08
694.5	-4.08
694.529	1.92
694.558	1.92
694.587	2.92
694.616	-2.08
694.645	-5.08
694.674	4.92
694.703	-1.08
694.732	-13.08
694.761	8.92
694.79	19.92
694.819	-15.08
694.848	-9.08
694.877	14.92
694.906	30.92
694.935	4.92
694.963	13.92
694.992	4.92
695.021	-3.08
695.05	8.92
695.079	-4.08
695.108	5.92
695.137	5.92
695.166	1.92
695.195	-14.08
695.224	0.92
695.253	4.92
695.282	5.92
695.311	10.92
695.34	-0.08
695.369	0.92
695.398	0.92
695.427	14.92
695.456	-0.08
695.485	3.92
695.513	-11.08
695.542	0.92
695.571	0.92
695.6	4.92
695.629	-10.08
695.658	-0.08
695.687	-6.08
695.716	2.92
695.745	31.92
695.774	5.92
695.802	-1.08
695.831	-3.08
695.86	6.92
695.889	30.92
695.918	11.92
695.947	-13.08
695.976	-0.08
696.005	-10.08
696.033	-4.08
696.062	4.92
696.091	1.92
696.12	-2.08
696.149	14.92
696.178	-5.08
696.207	-4.08
696.235	-20.08
696.264	11.92
696.293	-4.08
696.322	7.92
696.351	-8.08
696.38	-8.08
696.408	-7.08
696.437	-9.08
696.466	6.92
696.495	1.92
696.524	13.92
696.553	-2.08
696.581	10.92
696.61	21.92
696.639	3.92
696.668	16.92
696.697	0.92
696.725	12.92
696.754	9.92
696.783	3.92
696.812	-13.08
696.84	3.92
696.869	5.92
696.898	-4.08
696.927	1.92
696.956	1.92
696.984	-8.08
697.013	-4.08
697.042	-5.08
697.071	-0.08
697.099	-3.08
697.128	1.92
697.157	4.92
697.186	-1.08
697.214	-2.08
697.243	-11.08
697.272	-5.08
697.301	5.92
697.329	-1.08
697.358	-3.08
697.387	21.92
697.415	-1.08
697.444	-10.08
697.473	1.92
697.502	-15.08
697.53	4.92
697.559	-3.08
697.588	2.92
697.616	-3.08
697.645	-15.08
697.674	25.92
697.703	-0.08
697.731	3.92
697.76	-1.08
697.789	-13.08
697.817	-13.08
697.846	16.92
697.875	-1.08
697.903	2.92
697.932	9.92
697.961	-2.08
697.989	4.92
698.018	0.92
698.047	13.92
698.075	-0.08
698.104	-6.08
698.133	-1.08
698.161	-0.08
698.19	-0.08
698.218	2.92
698.247	-9.08
698.276	-14.08
698.304	14.92
698.333	10.92
698.362	2.92
698.39	1.92
698.419	-4.08
698.447	14.92
698.476	-5.08
698.505	2.92
698.533	-2.08
698.562	-13.08
698.591	-16.08
698.619	-10.08
698.648	9.92
698.676	4.92
698.705	-9.08
698.733	-14.08
698.762	3.92
698.791	2.92
698.819	0.92
698.848	3.92
698.876	7.92
698.905	18.92
698.933	1.92
698.962	-3.08
698.991	6.92
699.019	16.92
699.048	-0.08
699.076	0.92
699.105	0.92
699.133	-9.08
699.162	4.92
699.19	17.92
699.219	-8.08
699.248	5.92
699.276	10.92
699.305	4.92
699.333	13.92
699.362	-1.08
699.39	-4.08
699.419	-17.08
699.447	10.92
699.476	7.92
699.504	-2.08
699.533	-7.08
699.561	-8.08
699.59	4.92
699.618	-1.08
699.647	1.92
699.675	-15.08
699.704	1.92
699.732	-9.08
699.761	-0.08
699.789	-8.08
699.818	16.92
699.846	2.92
699.874	-11.08
699.903	-3.08
699.931	0.92
699.96	4.92
699.988	-9.08
700.017	-16.08
700.045	-12.08
700.074	-8.08
700.102	-5.08
700.13	0.92
700.159	9.92
700.187	5.92
700.216	-10.08
700.244	-7.08
700.273	4.92
700.301	0.92
700.329	-9.08
700.358	20.92
700.386	-9.08
700.415	8.92
700.443	3.92
700.472	-5.08
700.5	4.92
700.528	0.92
700.557	-2.08
700.585	-8.08
700.614	-4.08
700.642	8.92
700.67	27.92
700.699	-7.08
700.727	8.92
700.755	0.92
700.784	6.92
700.812	9.92
700.841	2.92
700.869	-13.08
700.897	-4.08
700.926	-6.08
700.954	8.92
700.982	15.92
701.011	2.92
701.039	9.92
701.067	-4.08
701.096	4.92
701.124	-11.08
701.152	-9.08
701.181	8.92
701.209	-28.08
701.237	-4.08
701.266	-0.08
701.294	-9.08
701.322	17.92
701.351	19.92
701.379	5.92
701.407	-8.08
701.435	-1.08
701.464	6.92
701.492	28.92
701.52	-9.08
701.549	5.92
701.577	-12.08
701.605	-3.08
701.634	10.92
701.662	-3.08
701.69	-6.08
701.718	5.92
701.747	7.92
701.775	-7.08
701.803	-0.08
701.831	14.92
701.86	-11.08
701.888	9.92
701.916	-5.08
701.944	3.92
701.973	-18.08
702.001	-22.08
702.029	-11.08
702.057	-8.08
702.086	-28.08
702.114	-16.08
702.142	-2.08
702.17	-14.08
702.199	-6.08
702.227	1.92
702.255	4.92
702.283	-1.08
702.311	4.92
702.34	1.92
702.368	-10.08
702.396	-2.08
702.424	-3.08
702.452	-11.08
702.481	-11.08
702.509	-29.08
702.537	-3.08
702.565	13.92
702.593	-27.08
702.621	-1.08
702.65	-1.08
702.678	3.92
702.706	-9.08
702.734	-9.08
702.762	4.92
702.79	13.92
702.819	2.92
702.847	11.92
702.875	5.92
702.903	7.92
702.931	-20.08
702.959	1.92
702.988	5.92
703.016	-16.08
703.044	-5.08
703.072	-4.08
703.1	-9.08
703.128	3.92
703.156	-2.08
703.184	3.92
703.212	5.92
703.241	6.92
703.269	-5.08
703.297	3.92
703.325	0.92
703.353	-11.08
703.381	-5.08
703.409	10.92
703.437	-14.08
703.465	7.92
703.493	-12.08
703.522	2.92
703.55	2.92
703.578	0.92
703.606	-20.08
703.634	-3.08
703.662	10.92
703.69	-1.08
703.718	-7.08
703.746	10.92
703.774	1.92
703.802	26.92
703.83	0.92
703.858	-3.08
703.886	-8.08
703.914	-6.08
703.942	0.92
703.97	4.92
703.998	3.92
704.027	3.92
704.055	1.92
704.083	-10.08
704.111	-8.08
704.139	-9.08
704.167	-21.08
704.195	1.92
704.223	-9.08
704.251	-7.08
704.279	1.92
704.307	-5.08
704.335	-10.08
704.363	14.92
704.391	-0.08
704.419	-20.08
704.447	1.92
704.475	-0.08
704.503	-9.08
704.531	12.92
704.558	9.92
704.586	-0.08
704.614	-2.08
704.642	10.92
704.67	-0.08
704.698	-0.08
704.726	5.92
704.754	-2.08
704.782	1.92
704.81	-9.08
704.838	13.92
704.866	8.92
704.894	-6.08
704.922	-7.08
704.95	2.92
704.978	2.92
705.006	17.92
705.034	8.92
705.061	-14.08
705.089	-19.08
705.117	-21.08
705.145	-5.08
705.173	-9.08
705.201	-5.08
705.229	10.92
705.257	-0.08
705.285	10.92
705.313	-0.08
705.34	-0.08
705.368	1.92
705.396	3.92
705.424	6.92
705.452	0.92
705.48	12.92
705.508	3.92
705.536	-10.08
705.563	-9.08
705.591	-10.08
705.619	16.92
705.647	1.92
705.675	-0.08
705.703	4.92
705.731	-18.08
705.758	-7.08
705.786	25.92
705.814	28.92
705.842	-8.08
705.87	2.92
705.898	17.92
705.925	-1.08
705.953	2.92
705.981	-10.08
706.009	-2.08
706.037	17.92
706.065	1.92
706.092	-6.08
706.12	-0.08
706.148	-3.08
706.176	-3.08
706.204	3.92
706.231	-4.08
706.259	-12.08
706.287	3.92
706.315	7.92
706.342	1.92
706.37	11.92
706.398	-8.08
706.426	-6.08
706.454	-1.08
706.481	9.92
706.509	-7.08
706.537	-5.08
706.565	-6.08
706.592	10.92
706.62	-8.08
706.648	-3.08
706.676	-10.08
706.703	-9.08
706.731	-8.08
706.759	-7.08
706.787	14.92
706.814	-11.08
706.842	-11.08
706.87	-11.08
706.897	-0.08
706.925	-4.08
706.953	-2.08
706.981	17.92
707.008	19.92
707.036	0.92
707.064	-17.08
707.091	-18.08
707.119	24.92
707.147	-7.08
707.174	-16.08
707.202	-3.08
707.23	-5.08
707.258	-2.08
707.285	-3.08
707.313	-8.08
707.341	2.92
707.368	-4.08
707.396	-2.08
707.424	8.92
707.451	3.92
707.479	3.92
707.507	2.92
707.534	-8.08
707.562	10.92
707.59	-14.08
707.617	-17.08
707.645	-4.08
707.672	7.92
707.7	-11.08
707.728	3.92
707.755	-2.08
707.783	-2.08
707.811	5.92
707.838	-4.08
707.866	7.92
707.893	-8.08
707.921	-10.08
707.949	-5.08
707.976	-6.08
708.004	-4.08
708.031	-20.08
708.059	2.92
708.087	-9.08
708.114	-10.08
708.142	-14.08
708.169	-29.08
708.197	-19.08
708.225	-11.08
708.252	4.92
708.28	18.92
708.307	-3.08
708.335	1.92
708.362	-6.08
708.39	-25.08
708.418	-11.08
708.445	-18.08
708.473	-19.08
708.5	-2.08
708.528	10.92
708.555	-16.08
708.583	-4.08
708.61	-4.08
708.638	-6.08
708.665	-6.08
708.693	-8.08
708.72	-4.08
708.748	2.92
708.776	-26.08
708.803	-4.08
708.831	3.92
708.858	6.92
708.886	0.92
708.913	7.92
708.941	-5.08
708.968	16.92
708.996	-0.08
709.023	12.92
709.051	-5.08
709.078	-25.08
709.105	-6.08
709.133	4.92
709.16	-6.08
709.188	7.92
709.215	-2.08
709.243	5.92
709.27	7.92
709.298	0.92
709.325	-3.08
709.353	9.92
709.38	1.92
709.408	17.92
709.435	-4.08
709.462	-0.08
709.49	-1.08
709.517	-13.08
709.545	-9.08
709.572	-10.08
709.6	-9.08
709.627	-1.08
709.655	-16.08
709.682	-8.08
709.709	0.92
709.737	0.92
709.764	-6.08
709.792	6.92
709.819	-11.08
709.846	1.92
709.874	20.92
709.901	12.92
709.929	12.92
709.956	-0.08
709.983	-14.08
710.011	-15.08
710.038	-10.08
710.066	3.92
710.093	14.92
710.12	8.92
710.148	-8.08
710.175	-16.08
710.202	-6.08
710.23	-5.08
710.257	-2.08
710.284	6.92
710.312	-0.08
710.339	-18.08
710.366	-4.08
710.394	-3.08
710.421	0.92
710.448	-9.08
710.476	-21.08
710.503	-2.08
710.53	7.92
710.558	-1.08
710.585	3.92
710.612	-10.08
710.64	-10.08
710.667	-7.08
710.694	-17.08
710.722	-2.08
710.749	-6.08
710.776	-7.08
710.804	36.92
710.831	21.92
710.858	-13.08
710.885	-10.08
710.913	-27.08
710.94	4.92
710.967	2.92
710.995	-2.08
711.022	-3.08
711.049	-9.08
711.076	-8.08
711.104	-1.08
711.131	-12.08
711.158	-13.08
711.185	8.92
711.213	-24.08
711.24	-10.08
711.267	-13.08
711.294	-1.08
711.322	-1.08
711.349	-3.08
711.376	-5.08
711.403	4.92
711.431	-14.08
711.458	-13.08
711.485	-13.08
711.512	-1.08
711.54	1.92
711.567	16.92
711.594	-13.08
711.621	-4.08
711.648	1.92
711.676	8.92
711.703	-7.08
711.73	-4.08
711.757	-3.08
711.784	1.92
711.812	6.92
711.839	-4.08
711.866	-14.08
711.893	-25.08
711.92	3.92
711.947	5.92
711.975	1.92
712.002	0.92
712.029	10.92
712.056	-2.08
712.083	-8.08
712.11	-18.08
712.138	3.92
712.165	3.92
712.192	7.92
712.219	2.92
712.246	-6.08
712.273	-13.08
712.3	-13.08
712.328	5.92
712.355	-3.08
712.382	-20.08
712.409	17.92
712.436	-4.08
712.463	5.92
712.49	-2.08
712.517	-3.08
712.544	-1.08
712.572	2.92
712.599	-19.08
712.626	-1.08
712.653	-3.08
712.68	-17.08
712.707	12.92
712.734	13.92
712.761	11.92
712.788	-2.08
712.815	6.92
712.842	0.92
712.87	1.92
712.897	-16.08
712.924	-14.08
712.951	-8.08
712.978	-2.08
713.005	5.92
713.032	3.92
713.059	-0.08
713.086	-3.08
713.113	-16.08
713.14	-2.08
713.167	-6.08
713.194	-8.08
713.221	-8.08
713.248	-0.08
713.275	-10.08
713.302	-11.08
713.329	-2.08
713.356	9.92
713.383	1.92
713.41	5.92
713.437	-16.08
713.464	3.92
713.491	5.92
713.518	-0.08
713.545	-12.08
713.572	-2.08
713.599	11.92
713.626	-5.08
713.653	11.92
713.68	-5.08
713.707	-8.08
713.734	8.92
713.761	-16.08
713.788	-15.08
713.815	-6.08
713.842	-8.08
713.869	14.92
713.896	2.92
713.923	-10.08
713.95	-23.08
713.977	-29.08
714.004	-11.08
714.031	-3.08
714.058	-12.08
714.085	-0.08
714.112	9.92
714.139	-4.08
714.165	-13.08
714.192	-9.08
714.219	2.92
714.246	-4.08
714.273	-5.08
714.3	-11.08
714.327	-2.08
714.354	-0.08
714.381	-3.08
714.408	-6.08
714.435	-11.08
714.461	-8.08
714.488	1.92
714.515	-10.08
714.542	-1.08
714.569	-20.08
714.596	-9.08
714.623	-2.08
714.65	4.92
714.677	-5.08
714.703	-9.08
714.73	-4.08
714.757	3.92
714.784	0.92
714.811	-11.08
714.838	-0.08
714.865	-0.08
714.891	-1.08
714.918	-18.08
714.945	-5.08
714.972	12.92
714.999	18.92
715.026	-5.08
715.052	7.92
715.079	5.92
715.106	-10.08
715.133	-0.08
715.16	2.92
715.187	-1.08
715.213	-1.08
715.24	-2.08
715.267	-9.08
715.294	-11.08
715.321	-27.08
715.347	-12.08
715.374	-18.08
715.401	-3.08
715.428	-8.08
715.455	-1.08
715.481	-17.08
715.508	-5.08
715.535	-10.08
715.562	-1.08
715.588	-7.08
715.615	-0.08
715.642	-15.08
715.669	-3.08
715.695	-5.08
715.722	-1.08
715.749	9.92
715.776	13.92
715.802	14.92
715.829	-8.08
715.856	-19.08
715.883	4.92
715.909	-11.08
715.936	-10.08
715.963	3.92
715.99	-17.08
716.016	4.92
716.043	3.92
716.07	-11.08
716.096	-17.08
716.123	-9.08
716.15	-1.08
716.177	-1.08
716.203	-3.08
716.23	-5.08
716.257	5.92
716.283	18.92
716.31	-1.08
716.337	-3.08
716.363	-7.08
716.39	-4.08
716.417	18.92
716.443	-1.08
716.47	8.92
716.497	10.92
716.523	25.92
716.55	2.92
716.577	-11.08
716.603	-14.08
716.63	-3.08
716.657	7.92
716.683	-4.08
716.71	-13.08
716.737	0.92
716.763	5.92
716.79	1.92
716.817	12.92
716.843	-0.08
716.87	-19.08
716.897	-12.08
716.923	11.92
716.95	-14.08
716.976	-9.08
717.003	-4.08
717.03	3.92
717.056	3.92
717.083	1.92
717.109	13.92
717.136	12.92
717.163	-6.08
717.189	-6.08
717.216	-5.08
717.242	-12.08
717.269	-10.08
717.296	6.92
717.322	10.92
717.349	6.92
717.375	21.92
717.402	-8.08
717.428	-18.08
717.455	-6.08
717.481	1.92
717.508	2.92
717.535	10.92
717.561	1.92
717.588	-7.08
717.614	-4.08
717.641	-6.08
717.667	-4.08
717.694	2.92
717.72	5.92
717.747	5.92
717.773	-16.08
717.8	3.92
717.826	7.92
717.853	-2.08
717.88	7.92
717.906	-13.08
717.933	13.92
717.959	9.92
717.986	7.92
718.012	-4.08
718.039	6.92
718.065	-4.08
718.092	-1.08
718.118	-6.08
718.144	-20.08
718.171	5.92
718.197	5.92
718.224	3.92
718.25	1.92
718.277	3.92
718.303	-4.08
718.33	0.92
718.356	1.92
718.383	-22.08
718.409	5.92
718.436	-4.08
718.462	-5.08
718.489	-15.08
718.515	1.92
718.541	-6.08
718.568	-6.08
718.594	-11.08
718.621	-3.08
718.647	3.92
718.674	7.92
718.7	-1.08
718.726	-4.08
718.753	-5.08
718.779	-4.08
718.806	-8.08
718.832	-21.08
718.858	2.92
718.885	-14.08
718.911	13.92
718.938	9.92
718.964	-11.08
718.99	-1.08
719.017	5.92
719.043	0.92
719.07	15.92
719.096	-11.08
719.122	-5.08
719.149	-0.08
719.175	14.92
719.201	11.92
719.228	3.92
719.254	3.92
719.281	-1.08
719.307	-9.08
719.333	-0.08
719.36	23.92
719.386	0.92
719.412	8.92
719.439	-14.08
719.465	-0.08
719.491	6.92
719.518	14.92
719.544	-14.08
719.57	-6.08
719.597	2.92
719.623	-7.08
719.649	2.92
719.675	2.92
719.702	2.92
719.728	9.92
719.754	-16.08
719.781	-6.08
719.807	-5.08
719.833	-0.08
719.86	4.92
719.886	-5.08
719.912	-2.08
719.938	-4.08
719.965	6.92
719.991	3.92
720.017	-8.08
720.044	-7.08
720.07	14.92
720.096	9.92
720.122	-6.08
720.149	9.92
720.175	19.92
720.201	-15.08
720.227	-4.08
720.254	1.92
720.28	-1.08
720.306	-2.08
720.332	-4.08
720.359	-4.08
720.385	-2.08
720.411	17.92
720.437	7.92
720.463	-4.08
720.49	8.92
720.516	-8.08
720.542	-13.08
720.568	13.92
720.595	-1.08
720.621	9.92
720.647	0.92
720.673	7.92
720.699	7.92
720.725	-12.08
720.752	2.92
720.778	1.92
720.804	-9.08
720.83	-4.08
720.856	-2.08
720.883	-8.08
720.909	-7.08
720.935	-0.08
720.961	19.92
720.987	-1.08
721.013	-6.08
721.04	-3.08
721.066	-4.08
721.092	-3.08
721.118	12.92
721.144	4.92
721.17	-5.08
721.196	7.92
721.223	-21.08
721.249	-12.08
721.275	6.92
721.301	-4.08
721.327	10.92
721.353	19.92
721.379	-2.08
721.405	8.92
721.432	21.92
721.458	3.92
721.484	7.92
721.51	-0.08
721.536	-9.08
721.562	-14.08
721.588	1.92
721.614	-17.08
721.64	-18.08
721.666	-21.08
721.693	-17.08
721.719	-13.08
721.745	-14.08
721.771	-6.08
721.797	-2.08
721.823	-9.08
721.849	31.92
721.875	-1.08
721.901	7.92
721.927	-6.08
721.953	-2.08
721.979	16.92
722.005	13.92
722.031	-9.08
722.057	4.92
722.083	1.92
722.109	-3.08
722.135	6.92
722.161	1.92
722.187	-1.08
722.214	-14.08
722.24	8.92
722.266	-0.08
722.292	12.92
722.318	20.92
722.344	-10.08
722.37	-4.08
722.396	15.92
722.422	-0.08
722.448	0.92
722.474	-7.08
722.5	11.92
722.526	4.92
722.552	-6.08
722.578	-11.08
722.603	-2.08
722.629	-9.08
722.655	-23.08
722.681	-17.08
722.707	-1.08
722.733	8.92
722.759	-6.08
722.785	-5.08
722.811	-2.08
722.837	8.92
722.863	-1.08
722.889	23.92
722.915	-6.08
722.941	-6.08
722.967	-5.08
722.993	-2.08
723.019	8.92
723.045	12.92
723.071	-3.08
723.097	-3.08
723.122	-5.08
723.148	-4.08
723.174	-16.08
723.2	-2.08
723.226	1.92
723.252	1.92
723.278	-8.08
723.304	-24.08
723.33	5.92
723.356	-6.08
723.381	-5.08
723.407	-9.08
723.433	6.92
723.459	-6.08
723.485	-6.08
723.511	11.92
723.537	-8.08
723.563	10.92
723.588	7.92
723.614	8.92
723.64	5.92
723.666	-2.08
723.692	10.92
723.718	-5.08
723.744	3.92
723.769	10.92
723.795	-5.08
723.821	-9.08
723.847	-0.08
723.873	3.92
723.899	-0.08
723.924	-8.08
723.95	-0.08
723.976	-17.08
724.002	12.92
724.028	5.92
724.053	-1.08
724.079	-18.08
724.105	-11.08
724.131	-9.08
724.157	-8.08
724.182	10.92
724.208	4.92
724.234	13.92
724.26	-5.08
724.286	4.92
724.311	-10.08
724.337	-10.08
724.363	-12.08
724.389	-12.08
724.415	-10.08
724.44	22.92
724.466	-2.08
724.492	-16.08
724.518	2.92
724.543	-11.08
724.569	-12.08
724.595	2.92
724.621	7.92
724.646	-9.08
724.672	9.92
724.698	-10.08
724.723	-2.08
724.749	6.92
724.775	6.92
724.801	-4.08
724.826	-19.08
724.852	-12.08
724.878	-19.08
724.904	-15.08
724.929	-9.08
724.955	-24.08
724.981	0.92
725.006	8.92
725.032	1.92
725.058	6.92
725.083	-14.08
725.109	-10.08
725.135	-4.08
725.161	3.92
725.186	-9.08
725.212	-19.08
725.238	1.92
725.263	6.92
725.289	-6.08
725.315	-12.08
725.34	-7.08
725.366	-1.08
725.392	-7.08
725.417	-0.08
725.443	-1.08
725.468	3.92
725.494	2.92
725.52	-2.08
725.545	-14.08
725.571	-10.08
725.597	5.92
725.622	12.92
725.648	1.92
725.674	12.92
725.699	5.92
725.725	-22.08
725.75	9.92
725.776	-5.08
725.802	-2.08
725.827	7.92
725.853	-2.08
725.878	9.92
725.904	-0.08
725.93	6.92
725.955	-22.08
725.981	-10.08
726.006	-2.08
726.032	3.92
726.057	2.92
726.083	-1.08
726.109	6.92
726.134	0.92
726.16	10.92
726.185	-4.08
726.211	4.92
726.236	10.92
726.262	-4.08
726.288	1.92
726.313	5.92
726.339	10.92
726.364	12.92
726.39	5.92
726.415	-9.08
726.441	-10.08
726.466	-14.08
726.492	-6.08
726.517	19.92
726.543	-2.08
726.568	-22.08
726.594	3.92
726.619	6.92
726.645	2.92
726.67	4.92
726.696	-2.08
726.721	0.92
726.747	-6.08
726.772	-13.08
726.798	-14.08
726.823	-1.08
726.849	9.92
726.874	-1.08
726.9	13.92
726.925	1.92
726.951	-0.08
726.976	-5.08
727.002	11.92
727.027	-0.08
727.053	15.92
727.078	-1.08
727.104	7.92
727.129	-18.08
727.155	-10.08
727.18	6.92
727.205	1.92
727.231	3.92
727.256	-12.08
727.282	3.92
727.307	0.92
727.333	2.92
727.358	-21.08
727.383	-20.08
727.409	-11.08
727.434	3.92
727.46	2.92
727.485	-5.08
727.511	18.92
727.536	-12.08
727.561	1.92
727.587	4.92
727.612	-0.08
727.637	-2.08
727.663	10.92
727.688	18.92
727.714	-9.08
727.739	1.92
727.764	-2.08
727.79	4.92
727.815	-6.08
727.841	-14.08
727.866	-5.08
727.891	0.92
727.917	-17.08
727.942	-13.08
727.967	-10.08
727.993	-15.08
728.018	-0.08
728.043	-8.08
728.069	6.92
728.094	5.92
728.119	3.92
728.145	2.92
728.17	-6.08
728.195	5.92
728.221	22.92
728.246	-8.08
728.271	-21.08
728.297	-4.08
728.322	-10.08
728.347	-0.08
728.373	1.92
728.398	5.92
728.423	-8.08
728.448	8.92
728.474	1.92
728.499	17.92
728.524	-24.08
728.55	-3.08
728.575	-5.08
728.6	6.92
728.625	2.92
728.651	10.92
728.676	-1.08
728.701	-2.08
728.727	0.92
728.752	-11.08
728.777	-8.08
728.802	2.92
728.828	9.92
728.853	7.92
728.878	1.92
728.903	-9.08
728.929	-0.08
728.954	-2.08
728.979	-3.08
729.004	-22.08
729.03	-15.08
729.055	-1.08
729.08	-1.08
729.105	-1.08
729.13	10.92
729.156	-3.08
729.181	-13.08
729.206	-18.08
729.231	-7.08
729.256	4.92
729.282	5.92
729.307	-1.08
729.332	-13.08
729.357	-13.08
729.382	-14.08
729.408	-14.08
729.433	6.92
729.458	2.92
729.483	5.92
729.508	3.92
729.533	4.92
729.559	11.92
729.584	-0.08
729.609	3.92
729.634	7.92
729.659	-7.08
729.684	-13.08
729.71	13.92
729.735	-13.08
729.76	-9.08
729.785	-1.08
729.81	3.92
729.835	-13.08
729.86	1.92
729.886	25.92
729.911	27.92
729.936	3.92
729.961	12.92
729.986	25.92
730.011	54.92
730.036	214.92
730.061	973.92
730.086	2681.92
730.112	3408.92
730.137	2865.92
730.162	2156.92
730.187	1652.92
730.212	1272.92
730.237	784.92
730.262	444.92
730.287	246.92
730.312	154.92
730.337	69.92
730.362	52.92
730.387	29.92
730.413	3.92
730.438	8.92
730.463	29.92
730.488	3.92
730.513	10.92
730.538	8.92
730.563	31.92
730.588	12.92
730.613	36.92
730.638	16.92
730.663	-0.08
730.688	26.92
730.713	1.92
730.738	12.92
730.763	6.92
730.788	1.92
730.813	11.92
730.838	2.92
730.863	4.92
730.888	0.92
730.913	-13.08
730.938	-12.08
730.963	26.92
730.988	115.92
731.013	388.92
731.038	611.92
731.063	597.92
731.088	460.92
731.113	339.92
731.138	249.92
731.163	175.92
731.188	105.92
731.213	59.92
731.238	53.92
731.263	16.92
731.288	13.92
731.313	0.92
731.338	5.92
731.363	12.92
731.388	16.92
731.413	-10.08
731.438	6.92
731.463	5.92
731.487	13.92
731.512	-15.08
731.537	-14.08
731.562	-11.08
731.587	-1.08
731.612	-10.08
731.637	-12.08
731.662	6.92
731.687	-10.08
731.712	-11.08
731.737	5.92
731.762	-4.08
731.786	4.92
731.811	2.92
731.836	-5.08
731.861	6.92
731.886	-4.08
731.911	-2.08
731.936	10.92
731.961	-5.08
731.986	-8.08
732.01	-3.08
732.035	-12.08
732.06	-7.08
732.085	-2.08
732.11	-16.08
732.135	-15.08
732.16	-5.08
732.184	-8.08
732.209	-10.08
732.234	-6.08
732.259	-7.08
732.284	13.92
732.309	-4.08
732.334	-6.08
732.358	-9.08
732.383	-18.08
732.408	-7.08
732.433	4.92
732.458	-6.08
732.482	-2.08
732.507	-16.08
732.532	-1.08
732.557	24.92
732.582	7.92
732.607	13.92
732.631	57.92
732.656	77.92
732.681	125.92
732.706	317.92
732.73	435.92
732.755	393.92
732.78	297.92
732.805	235.92
732.83	143.92
732.854	116.92
732.879	92.92
732.904	23.92
732.929	25.92
732.953	3.92
732.978	-10.08
733.003	-1.08
733.028	-6.08
733.052	9.92
733.077	-0.08
733.102	5.92
733.127	-4.08
733.151	-5.08
733.176	6.92
733.201	-9.08
733.226	-5.08
733.25	-11.08
733.275	-4.08
733.3	-1.08
733.324	-5.08
733.349	3.92
733.374	14.92
733.399	-22.08
733.423	-13.08
733.448	-15.08
733.473	-9.08
733.497	2.92
733.522	-4.08
733.547	13.92
733.571	3.92
733.596	-2.08
733.621	16.92
733.646	8.92
733.67	10.92
733.695	1.92
733.72	1.92
733.744	11.92
733.769	-3.08
733.794	5.92
733.818	-19.08
733.843	-1.08
733.867	-8.08
733.892	-5.08
733.917	-3.08
733.941	8.92
733.966	-1.08
733.991	-2.08
734.015	8.92
734.04	1.92
734.065	7.92
734.089	5.92
734.114	7.92
734.138	-3.08
734.163	-1.08
734.188	-2.08
734.212	11.92
734.237	3.92
734.261	6.92
734.286	1.92
734.311	-9.08
734.335	-8.08
734.36	9.92
734.384	-3.08
734.409	4.92
734.434	10.92
734.458	9.92
734.483	-4.08
734.507	-9.08
734.532	-9.08
734.556	6.92
734.581	2.92
734.606	-4.08
734.63	-18.08
734.655	-4.08
734.679	-0.08
734.704	-15.08
734.728	1.92
734.753	6.92
734.777	-11.08
734.802	3.92
734.826	-3.08
734.851	-0.08
734.876	16.92
734.9	14.92
734.925	7.92
734.949	5.92
734.974	-0.08
734.998	7.92
735.023	-10.08
735.047	-26.08
735.072	15.92
735.096	-9.08
735.121	-1.08
735.145	5.92
735.17	-9.08
735.194	-2.08
735.219	-2.08
735.243	-2.08
735.268	3.92
735.292	5.92
735.317	-2.08
735.341	-0.08
735.365	-27.08
735.39	5.92
735.414	11.92
735.439	6.92
735.463	14.92
735.488	0.92
735.512	5.92
735.537	-5.08
735.561	1.92
735.586	-12.08
735.61	1.92
735.634	5.92
735.659	8.92
735.683	15.92
735.708	-10.08
735.732	-8.08
735.757	-11.08
735.781	12.92
735.805	11.92
735.83	-4.08
735.854	-11.08
735.879	-6.08
735.903	-5.08
735.927	10.92
735.952	4.92
735.976	-5.08
736.001	-5.08
736.025	6.92
736.049	3.92
736.074	-1.08
736.098	-4.08
736.123	1.92
736.147	-3.08
736.171	-12.08
736.196	-6.08
736.22	-16.08
736.244	-10.08
736.269	-5.08
736.293	-8.08
736.317	2.92
736.342	1.92
736.366	11.92
736.39	3.92
736.415	-4.08
736.439	-13.08
736.463	16.92
736.488	9.92
736.512	8.92
736.536	10.92
736.561	19.92
736.585	-8.08
736.609	-0.08
736.634	-11.08
736.658	-5.08
736.682	-15.08
736.707	-17.08
736.731	-6.08
736.755	-1.08
736.78	11.92
736.804	-1.08
736.828	-4.08
736.852	-11.08
736.877	2.92
736.901	12.92
736.925	-1.08
736.949	6.92
736.974	-17.08
736.998	-12.08
737.022	-11.08
737.047	-14.08
737.071	-14.08
737.095	10.92
737.119	33.92
737.144	7.92
737.168	-1.08
737.192	-9.08
737.216	1.92
737.241	-0.08
737.265	-1.08
737.289	-5.08
737.313	-2.08
737.337	6.92
737.362	-5.08
737.386	-6.08
737.41	-0.08
737.434	9.92
737.459	2.92
737.483	3.92
737.507	14.92
737.531	5.92
737.555	-9.08
737.58	2.92
737.604	0.92
737.628	-5.08
737.652	-13.08
737.676	-8.08
737.701	4.92
737.725	-1.08
737.749	15.92
737.773	-3.08
737.797	-20.08
737.821	11.92
737.846	13.92
737.87	21.92
737.894	19.92
737.918	2.92
737.942	-14.08
737.966	9.92
737.99	11.92
738.015	3.92
738.039	4.92
738.063	-1.08
738.087	8.92
738.111	0.92
738.135	24.92
738.159	-2.08
738.184	-10.08
738.208	-14.08
738.232	14.92
738.256	20.92
738.28	25.92
738.304	1.92
738.328	-4.08
738.352	-1.08
738.376	-6.08
738.4	-12.08
738.425	3.92
738.449	-6.08
738.473	10.92
738.497	-0.08
738.521	-8.08
738.545	-3.08
738.569	3.92
738.593	24.92
738.617	10.92
738.641	10.92
738.665	6.92
738.689	7.92
738.713	-14.08
738.737	4.92
738.762	4.92
738.786	23.92
738.81	-9.08
738.834	3.92
738.858	-14.08
738.882	-9.08
738.906	-4.08
738.93	0.92
738.954	-1.08
738.978	4.92
739.002	-7.08
739.026	8.92
739.05	9.92
739.074	-10.08
739.098	24.92
739.122	10.92
739.146	7.92
739.17	21.92
739.194	13.92
739.218	4.92
739.242	9.92
739.266	-7.08
739.29	-4.08
739.314	5.92
739.338	-12.08
739.362	-3.08
739.386	-1.08
739.41	2.92
739.434	-20.08
739.458	4.92
739.482	-5.08
739.506	0.92
739.53	-20.08
739.554	-2.08
739.577	-19.08
739.601	-2.08
739.625	-8.08
739.649	0.92
739.673	-6.08
739.697	3.92
739.721	3.92
739.745	4.92
739.769	23.92
739.793	-1.08
739.817	1.92
739.841	-6.08
739.865	3.92
739.889	-12.08
739.912	-1.08
739.936	-14.08
739.96	-8.08
739.984	2.92
740.008	4.92
740.032	-10.08
740.056	0.92
740.08	0.92
740.104	-0.08
740.127	3.92
740.151	13.92
740.175	0.92
740.199	10.92
740.223	46.92
740.247	-11.08
740.271	-1.08
740.295	-3.08
740.318	-2.08
740.342	-4.08
740.366	13.92
740.39	0.92
740.414	0.92
740.438	-8.08
740.461	0.92
740.485	9.92
740.509	-9.08
740.533	5.92
740.557	7.92
740.581	-5.08
740.604	-5.08
740.628	-4.08
740.652	10.92
740.676	-8.08
740.7	-5.08
740.723	-6.08
740.747	-2.08
740.771	-0.08
740.795	-1.08
740.819	-0.08
740.842	-16.08
740.866	8.92
740.89	6.92
740.914	-17.08
740.938	-10.08
740.961	-6.08
740.985	9.92
741.009	-6.08
741.033	-9.08
741.056	9.92
741.08	8.92
741.104	-1.08
741.128	-7.08
741.151	10.92
741.175	9.92
741.199	14.92
741.223	25.92
741.246	10.92
741.27	2.92
741.294	3.92
741.318	-19.08
741.341	-9.08
741.365	2.92
741.389	6.92
741.413	7.92
741.436	13.92
741.46	-6.08
741.484	2.92
741.507	1.92
741.531	28.92
741.555	0.92
741.579	0.92
741.602	-1.08
741.626	2.92
741.65	0.92
741.673	4.92
741.697	7.92
741.721	8.92
741.744	-6.08
741.768	-3.08
741.792	-4.08
741.815	8.92
741.839	18.92
741.863	24.92
741.886	9.92
741.91	16.92
741.934	8.92
741.957	-7.08
741.981	4.92
742.005	-4.08
742.028	-11.08
742.052	-14.08
742.075	6.92
742.099	9.92
742.123	-1.08
742.146	13.92
742.17	-6.08
742.194	-20.08
742.217	-22.08
742.241	-3.08
742.264	-10.08
742.288	3.92
742.312	4.92
742.335	-1.08
742.359	-1.08
742.382	2.92
742.406	11.92
742.43	-10.08
742.453	11.92
742.477	-9.08
742.5	-10.08
742.524	-10.08
742.548	-8.08
742.571	-8.08
742.595	-4.08
742.618	-6.08
742.642	-4.08
742.665	4.92
742.689	-12.08
742.712	7.92
742.736	-11.08
742.76	0.92
742.783	-6.08
742.807	2.92
742.83	3.92
742.854	-9.08
742.877	-4.08
742.901	-8.08
742.924	1.92
742.948	3.92
742.971	14.92
742.995	-2.08
743.018	-5.08
743.042	-19.08
743.065	-6.08
743.089	-12.08
743.112	-2.08
743.136	-14.08
743.159	-10.08
743.183	-4.08
743.206	-3.08
743.23	-5.08
743.253	1.92
743.277	11.92
743.3	-5.08
743.324	-6.08
743.347	-6.08
743.371	13.92
743.394	-1.08
743.418	14.92
743.441	6.92
743.465	3.92
743.488	10.92
743.512	-17.08
743.535	-6.08
743.558	7.92
743.582	-6.08
743.605	-6.08
743.629	15.92
743.652	4.92
743.676	-2.08
743.699	8.92
743.723	9.92
743.746	4.92
743.769	-10.08
743.793	0.92
743.816	3.92
743.84	12.92
743.863	-10.08
743.886	-2.08
743.91	10.92
743.933	-6.08
743.957	-9.08
743.98	-9.08
744.003	-10.08
744.027	1.92
744.05	-5.08
744.074	-21.08
744.097	-16.08
744.12	-6.08
744.144	-19.08
744.167	2.92
744.19	1.92
744.214	-0.08
744.237	-2.08
744.26	15.92
744.284	5.92
744.307	-18.08
744.331	-6.08
744.354	-7.08
744.377	-11.08
744.401	1.92
744.424	1.92
744.447	-4.08
744.471	-12.08
