Data from HighRes_mercury_15_13_11_07_2024_HR4C61891__34__15-14-26-586.txt Node

Date: Thu Nov 07 15:14:26 EST 2024
User: crc00042
Spectrometer: HR4C6189
Trigger mode: 4
Integration Time (sec): 1.000000E-1
Scans to average: 1
Electric dark correction enabled: true
Nonlinearity correction enabled: false
Boxcar width: 0
XAxis mode: Wavelengths
Number of Pixels in Spectrum: 3648
>>>>>Begin Spectral Data<<<<<
639.567	-69
639.602	-69
639.636	-69
639.67	-46
639.704	-12
639.738	2
639.773	-9
639.807	-17
639.841	5
639.875	12
639.909	-4
639.943	3
639.978	-4
640.012	5
640.046	10
640.08	-2
640.114	2
640.148	-3
640.182	1
640.217	2
640.251	34
640.285	5
640.319	-17
640.353	10
640.387	13
640.421	6
640.455	8
640.49	-10
640.524	-4
640.558	11
640.592	7
640.626	-6
640.66	5
640.694	2
640.728	4
640.762	7
640.796	10
640.83	3
640.865	2
640.899	0
640.933	7
640.967	-7
641.001	4
641.035	-1
641.069	2
641.103	16
641.137	3
641.171	-22
641.205	1
641.239	0
641.273	18
641.307	11
641.341	-1
641.375	7
641.409	-14
641.443	-22
641.477	8
641.511	10
641.545	4
641.579	1
641.614	11
641.648	4
641.682	-12
641.716	6
641.75	16
641.784	5
641.818	-2
641.852	8
641.886	-1
641.919	17
641.953	11
641.987	-7
642.021	6
642.055	5
642.089	3
642.123	-14
642.157	4
642.191	-1
642.225	12
642.259	-3
642.293	21
642.327	14
642.361	10
642.395	6
642.429	20
642.463	13
642.497	9
642.531	-5
642.565	9
642.599	18
642.633	-15
642.666	15
642.7	12
642.734	25
642.768	-12
642.802	0
642.836	2
642.87	7
642.904	13
642.938	7
642.972	-11
643.005	-7
643.039	9
643.073	15
643.107	11
643.141	7
643.175	5
643.209	11
643.243	10
643.276	11
643.31	9
643.344	-6
643.378	7
643.412	12
643.446	12
643.48	3
643.513	-10
643.547	-1
643.581	-5
643.615	7
643.649	10
643.683	-1
643.716	0
643.75	3
643.784	5
643.818	1
643.852	4
643.886	10
643.919	19
643.953	13
643.987	-1
644.021	20
644.055	9
644.088	-6
644.122	-26
644.156	-13
644.19	-3
644.224	-9
644.257	16
644.291	18
644.325	-5
644.359	0
644.392	26
644.426	11
644.46	15
644.494	10
644.527	-3
644.561	7
644.595	3
644.629	-14
644.662	-5
644.696	18
644.73	-1
644.764	-4
644.797	4
644.831	0
644.865	10
644.899	2
644.932	19
644.966	-10
645	30
645.033	25
645.067	21
645.101	21
645.135	10
645.168	-9
645.202	-4
645.236	0
645.269	3
645.303	8
645.337	2
645.37	-2
645.404	4
645.438	4
645.471	-10
645.505	9
645.539	15
645.572	14
645.606	-21
645.64	-11
645.673	-7
645.707	9
645.741	-2
645.774	0
645.808	15
645.842	-8
645.875	11
645.909	-8
645.943	8
645.976	-5
646.01	2
646.043	14
646.077	6
646.111	11
646.144	13
646.178	21
646.212	-30
646.245	3
646.279	0
646.312	8
646.346	14
646.38	12
646.413	16
646.447	-1
646.48	1
646.514	5
646.547	-14
646.581	-4
646.615	9
646.648	2
646.682	8
646.715	6
646.749	6
646.782	-7
646.816	0
646.85	5
646.883	6
646.917	14
646.95	7
646.984	7
647.017	7
647.051	18
647.084	7
647.118	-11
647.151	-4
647.185	11
647.218	7
647.252	2
647.285	-4
647.319	-5
647.353	-7
647.386	18
647.42	11
647.453	9
647.487	9
647.52	6
647.553	-11
647.587	-4
647.62	5
647.654	6
647.687	3
647.721	12
647.754	2
647.788	-3
647.821	-6
647.855	13
647.888	12
647.922	26
647.955	19
647.989	19
648.022	13
648.055	13
648.089	-2
648.122	28
648.156	22
648.189	0
648.223	7
648.256	7
648.29	4
648.323	-8
648.356	-13
648.39	2
648.423	-16
648.457	-3
648.49	0
648.523	3
648.557	11
648.59	-9
648.624	4
648.657	5
648.69	15
648.724	8
648.757	8
648.791	10
648.824	9
648.857	30
648.891	0
648.924	4
648.957	11
648.991	-4
649.024	10
649.057	2
649.091	3
649.124	12
649.158	13
649.191	16
649.224	7
649.258	-2
649.291	4
649.324	18
649.358	16
649.391	11
649.424	2
649.458	-13
649.491	4
649.524	3
649.557	-8
649.591	-17
649.624	35
649.657	-8
649.691	3
649.724	2
649.757	3
649.791	0
649.824	19
649.857	3
649.89	9
649.924	-9
649.957	10
649.99	-4
650.023	10
650.057	-1
650.09	11
650.123	4
650.157	6
650.19	5
650.223	-2
650.256	0
650.29	2
650.323	-4
650.356	7
650.389	-2
650.423	-9
650.456	5
650.489	0
650.522	11
650.555	1
650.589	3
650.622	3
650.655	19
650.688	-2
650.721	-8
650.755	-5
650.788	3
650.821	-9
650.854	-3
650.887	1
650.921	6
650.954	2
650.987	-1
651.02	-3
651.053	-3
651.087	-5
651.12	25
651.153	13
651.186	10
651.219	-3
651.252	10
651.286	14
651.319	13
651.352	19
651.385	0
651.418	-6
651.451	18
651.484	7
651.518	-20
651.551	12
651.584	12
651.617	20
651.65	4
651.683	15
651.716	0
651.749	-8
651.783	11
651.816	5
651.849	16
651.882	10
651.915	1
651.948	0
651.981	1
652.014	-11
652.047	-9
652.08	-14
652.114	-11
652.147	-4
652.18	6
652.213	22
652.246	-4
652.279	-15
652.312	-4
652.345	9
652.378	12
652.411	32
652.444	-15
652.477	17
652.51	1
652.543	-10
652.576	-1
652.609	-19
652.642	-10
652.675	16
652.709	9
652.742	15
652.775	0
652.808	8
652.841	-8
652.874	-5
652.907	-1
652.94	-14
652.973	-11
653.006	-14
653.039	4
653.072	11
653.105	11
653.138	-6
653.171	-3
653.204	-9
653.237	-9
653.27	-9
653.303	1
653.336	12
653.368	3
653.401	-1
653.434	11
653.467	9
653.5	-13
653.533	-8
653.566	6
653.599	3
653.632	11
653.665	14
653.698	-2
653.731	-9
653.764	13
653.797	-4
653.83	5
653.863	-1
653.896	0
653.929	0
653.961	-24
653.994	4
654.027	-8
654.06	7
654.093	9
654.126	-2
654.159	-1
654.192	24
654.225	6
654.258	-18
654.29	0
654.323	8
654.356	-9
654.389	5
654.422	-3
654.455	-4
654.488	2
654.521	0
654.553	-14
654.586	5
654.619	-1
654.652	10
654.685	15
654.718	-1
654.751	16
654.783	3
654.816	11
654.849	3
654.882	-11
654.915	-12
654.948	14
654.98	-3
655.013	-7
655.046	-13
655.079	-12
655.112	11
655.144	-1
655.177	17
655.21	25
655.243	18
655.276	-1
655.308	-4
655.341	-4
655.374	-1
655.407	-9
655.44	-4
655.472	-3
655.505	-2
655.538	4
655.571	0
655.603	-2
655.636	-7
655.669	11
655.702	2
655.734	-19
655.767	-13
655.8	-4
655.833	-6
655.865	-1
655.898	-14
655.931	13
655.964	5
655.996	1
656.029	7
656.062	1
656.095	-10
656.127	-21
656.16	1
656.193	3
656.225	19
656.258	17
656.291	8
656.324	2
656.356	7
656.389	5
656.422	33
656.454	7
656.487	-1
656.52	-10
656.552	-21
656.585	1
656.618	8
656.65	7
656.683	-5
656.716	8
656.748	-3
656.781	-1
656.814	9
656.846	21
656.879	-7
656.912	5
656.944	-20
656.977	2
657.01	-1
657.042	1
657.075	10
657.108	-8
657.14	10
657.173	31
657.205	26
657.238	17
657.271	6
657.303	-17
657.336	13
657.369	2
657.401	-12
657.434	10
657.466	-6
657.499	4
657.532	-3
657.564	10
657.597	-4
657.629	26
657.662	8
657.694	20
657.727	-6
657.76	4
657.792	0
657.825	-1
657.857	-6
657.89	9
657.922	26
657.955	-5
657.987	4
658.02	28
658.053	13
658.085	3
658.118	8
658.15	12
658.183	32
658.215	0
658.248	-3
658.28	1
658.313	23
658.345	5
658.378	-6
658.41	-19
658.443	17
658.475	9
658.508	-16
658.54	-5
658.573	-8
658.605	3
658.638	7
658.67	1
658.703	-2
658.735	-10
658.768	-3
658.8	-16
658.833	7
658.865	-3
658.898	-14
658.93	5
658.963	-16
658.995	-15
659.028	10
659.06	7
659.092	4
659.125	22
659.157	10
659.19	-1
659.222	2
659.255	14
659.287	5
659.32	16
659.352	7
659.384	17
659.417	2
659.449	20
659.482	2
659.514	-3
659.546	-1
659.579	-10
659.611	9
659.644	-2
659.676	-8
659.708	-9
659.741	-20
659.773	-6
659.806	-14
659.838	6
659.87	-7
659.903	-6
659.935	15
659.967	3
660	1
660.032	-11
660.065	15
660.097	7
660.129	5
660.162	-8
660.194	17
660.226	9
660.259	8
660.291	5
660.323	-4
660.356	10
660.388	-4
660.42	-1
660.453	4
660.485	-1
660.517	5
660.55	14
660.582	13
660.614	20
660.647	3
660.679	-9
660.711	5
660.743	-12
660.776	-22
660.808	4
660.84	-17
660.873	-5
660.905	-4
660.937	11
660.969	0
661.002	6
661.034	0
661.066	-5
661.099	9
661.131	6
661.163	6
661.195	-11
661.228	22
661.26	-2
661.292	-13
661.324	10
661.357	-2
661.389	0
661.421	2
661.453	-2
661.485	7
661.518	18
661.55	-23
661.582	2
661.614	13
661.647	22
661.679	4
661.711	8
661.743	-16
661.775	-6
661.808	16
661.84	2
661.872	-1
661.904	2
661.936	-4
661.969	-17
662.001	-17
662.033	-4
662.065	5
662.097	15
662.129	14
662.162	-9
662.194	8
662.226	-21
662.258	10
662.29	15
662.322	-4
662.355	-20
662.387	28
662.419	7
662.451	7
662.483	10
662.515	3
662.547	-4
662.58	-13
662.612	10
662.644	-20
662.676	2
662.708	10
662.74	-2
662.772	10
662.804	8
662.836	5
662.869	-2
662.901	13
662.933	10
662.965	20
662.997	-1
663.029	-5
663.061	7
663.093	8
663.125	12
663.157	21
663.189	7
663.221	10
663.254	-1
663.286	6
663.318	7
663.35	2
663.382	3
663.414	13
663.446	8
663.478	-11
663.51	33
663.542	-3
663.574	9
663.606	-4
663.638	5
663.67	5
663.702	8
663.734	-15
663.766	-1
663.798	-1
663.83	6
663.862	5
663.894	5
663.926	7
663.958	17
663.99	11
664.022	-13
664.054	5
664.086	-3
664.118	-13
664.15	8
664.182	0
664.214	3
664.246	11
664.278	3
664.31	24
664.342	11
664.374	3
664.406	10
664.438	7
664.47	17
664.502	-4
664.534	10
664.566	-13
664.598	8
664.63	-15
664.662	-3
664.693	-12
664.725	-14
664.757	-18
664.789	-16
664.821	-8
664.853	4
664.885	17
664.917	0
664.949	10
664.981	17
665.013	8
665.045	-9
665.076	2
665.108	1
665.14	-14
665.172	-6
665.204	21
665.236	-1
665.268	13
665.3	-14
665.331	-10
665.363	2
665.395	-13
665.427	10
665.459	1
665.491	-5
665.523	-9
665.555	-4
665.586	-3
665.618	-15
665.65	-16
665.682	0
665.714	4
665.746	-9
665.777	6
665.809	-3
665.841	11
665.873	-13
665.905	-3
665.937	10
665.968	6
666	3
666.032	-8
666.064	-1
666.096	6
666.127	5
666.159	13
666.191	10
666.223	10
666.255	9
666.286	15
666.318	-1
666.35	16
666.382	0
666.413	-7
666.445	-16
666.477	-31
666.509	5
666.54	11
666.572	-6
666.604	-5
666.636	-4
666.667	30
666.699	9
666.731	-7
666.763	1
666.794	-11
666.826	0
666.858	-1
666.89	11
666.921	5
666.953	-2
666.985	6
667.017	30
667.048	19
667.08	2
667.112	-22
667.143	-25
667.175	9
667.207	-2
667.238	11
667.27	3
667.302	5
667.334	-2
667.365	16
667.397	9
667.429	-4
667.46	-1
667.492	3
667.524	8
667.555	2
667.587	-8
667.619	-3
667.65	-12
667.682	10
667.714	17
667.745	8
667.777	-3
667.808	5
667.84	-1
667.872	0
667.903	30
667.935	16
667.967	12
667.998	-14
668.03	-1
668.061	6
668.093	3
668.125	17
668.156	20
668.188	5
668.22	1
668.251	16
668.283	13
668.314	10
668.346	9
668.377	17
668.409	16
668.441	14
668.472	6
668.504	10
668.535	12
668.567	13
668.599	8
668.63	-7
668.662	-6
668.693	22
668.725	18
668.756	18
668.788	-1
668.819	0
668.851	1
668.882	5
668.914	-11
668.946	-13
668.977	-28
669.009	-6
669.04	-6
669.072	11
669.103	0
669.135	3
669.166	1
669.198	12
669.229	19
669.261	13
669.292	10
669.324	3
669.355	13
669.387	-12
669.418	26
669.45	7
669.481	8
669.513	9
669.544	11
669.576	-11
669.607	2
669.639	12
669.67	-20
669.701	3
669.733	-7
669.764	4
669.796	14
669.827	1
669.859	-6
669.89	3
669.922	18
669.953	17
669.985	-3
670.016	24
670.047	11
670.079	12
670.11	6
670.142	-3
670.173	-6
670.204	-7
670.236	3
670.267	2
670.299	5
670.33	19
670.362	10
670.393	-9
670.424	-2
670.456	-25
670.487	2
670.518	8
670.55	-5
670.581	4
670.613	13
670.644	-2
670.675	0
670.707	7
670.738	8
670.769	-5
670.801	-12
670.832	3
670.864	16
670.895	10
670.926	-2
670.958	5
670.989	3
671.02	-2
671.052	1
671.083	11
671.114	-10
671.146	8
671.177	6
671.208	-2
671.24	-10
671.271	8
671.302	9
671.333	8
671.365	-10
671.396	-4
671.427	19
671.459	10
671.49	4
671.521	8
671.553	9
671.584	11
671.615	-10
671.646	20
671.678	13
671.709	-3
671.74	-11
671.771	-8
671.803	-2
671.834	16
671.865	-4
671.896	7
671.928	0
671.959	10
671.99	-10
672.021	6
672.053	-2
672.084	4
672.115	11
672.146	-9
672.178	-8
672.209	-5
672.24	-11
672.271	27
672.303	19
672.334	8
672.365	-4
672.396	8
672.427	12
672.459	2
672.49	29
672.521	-5
672.552	25
672.583	10
672.615	7
672.646	11
672.677	0
672.708	3
672.739	-8
672.77	28
672.802	5
672.833	4
672.864	16
672.895	-2
672.926	2
672.957	5
672.989	-8
673.02	3
673.051	3
673.082	11
673.113	-4
673.144	2
673.175	11
673.206	-17
673.238	-3
673.269	1
673.3	6
673.331	11
673.362	3
673.393	7
673.424	5
673.455	12
673.487	-7
673.518	2
673.549	2
673.58	-3
673.611	-5
673.642	7
673.673	-14
673.704	-7
673.735	8
673.766	24
673.797	4
673.828	9
673.86	4
673.891	4
673.922	-15
673.953	0
673.984	-3
674.015	-1
674.046	-2
674.077	0
674.108	3
674.139	0
674.17	1
674.201	-5
674.232	12
674.263	2
674.294	-7
674.325	-11
674.356	-9
674.387	20
674.418	3
674.449	-8
674.48	1
674.511	-8
674.542	13
674.573	-1
674.604	9
674.635	3
674.666	4
674.697	-1
674.728	3
674.759	12
674.79	3
674.821	-9
674.852	4
674.883	-1
674.914	-8
674.945	11
674.976	13
675.007	-5
675.038	-4
675.069	-17
675.1	-18
675.131	5
675.162	-4
675.193	-7
675.224	-7
675.254	12
675.285	3
675.316	5
675.347	2
675.378	-15
675.409	-7
675.44	4
675.471	-7
675.502	-13
675.533	-4
675.564	8
675.595	4
675.625	8
675.656	8
675.687	-4
675.718	7
675.749	12
675.78	26
675.811	-5
675.842	0
675.873	-4
675.903	-28
675.934	-8
675.965	10
675.996	-2
676.027	12
676.058	4
676.089	-10
676.119	-4
676.15	-3
676.181	7
676.212	2
676.243	6
676.274	4
676.304	3
676.335	-9
676.366	2
676.397	-19
676.428	-3
676.459	-7
676.489	3
676.52	13
676.551	-1
676.582	4
676.613	8
676.643	10
676.674	-2
676.705	8
676.736	16
676.767	32
676.797	21
676.828	10
676.859	5
676.89	10
676.92	1
676.951	8
676.982	15
677.013	12
677.044	17
677.074	30
677.105	-8
677.136	-4
677.167	1
677.197	15
677.228	13
677.259	1
677.289	12
677.32	-12
677.351	-23
677.382	-5
677.412	-9
677.443	10
677.474	3
677.505	1
677.535	18
677.566	9
677.597	-12
677.627	1
677.658	3
677.689	3
677.72	11
677.75	6
677.781	4
677.812	7
677.842	19
677.873	-1
677.904	-4
677.934	8
677.965	-2
677.996	5
678.026	1
678.057	3
678.088	-1
678.118	-1
678.149	0
678.18	-8
678.21	-12
678.241	8
678.272	0
678.302	5
678.333	11
678.363	13
678.394	-1
678.425	-16
678.455	4
678.486	1
678.517	-14
678.547	-11
678.578	-5
678.608	-25
678.639	1
678.67	-1
678.7	9
678.731	0
678.761	8
678.792	7
678.823	17
678.853	-6
678.884	-14
678.914	22
678.945	-1
678.975	-11
679.006	7
679.037	-6
679.067	19
679.098	13
679.128	2
679.159	6
679.189	-5
679.22	-23
679.25	12
679.281	3
679.312	6
679.342	-4
679.373	16
679.403	2
679.434	6
679.464	-8
679.495	17
679.525	8
679.556	0
679.586	18
679.617	5
679.647	7
679.678	6
679.708	7
679.739	-5
679.769	-2
679.8	0
679.83	7
679.861	13
679.891	-12
679.922	-17
679.952	7
679.983	8
680.013	5
680.044	-10
680.074	2
680.105	-6
680.135	5
680.165	10
680.196	21
680.226	14
680.257	5
680.287	-2
680.318	-3
680.348	1
680.379	18
680.409	9
680.439	6
680.47	-1
680.5	-5
680.531	1
680.561	14
680.592	5
680.622	12
680.652	5
680.683	16
680.713	-3
680.744	-4
680.774	3
680.804	21
680.835	6
680.865	3
680.896	10
680.926	9
680.956	-4
680.987	8
681.017	3
681.047	10
681.078	7
681.108	11
681.139	1
681.169	3
681.199	3
681.23	12
681.26	3
681.29	19
681.321	3
681.351	5
681.381	-9
681.412	-1
681.442	7
681.472	7
681.503	7
681.533	8
681.563	8
681.594	-9
681.624	10
681.654	-18
681.685	-16
681.715	1
681.745	3
681.775	4
681.806	8
681.836	-3
681.866	-17
681.897	6
681.927	-23
681.957	-12
681.987	24
682.018	-9
682.048	8
682.078	1
682.109	9
682.139	4
682.169	1
682.199	4
682.23	-1
682.26	11
682.29	3
682.32	6
682.351	4
682.381	0
682.411	17
682.441	-1
682.472	-3
682.502	14
682.532	-6
682.562	0
682.592	18
682.623	-4
682.653	-10
682.683	-8
682.713	23
682.743	19
682.774	-13
682.804	2
682.834	-4
682.864	-12
682.894	0
682.925	-1
682.955	20
682.985	-4
683.015	11
683.045	22
683.076	-14
683.106	-11
683.136	3
683.166	-1
683.196	-17
683.226	-3
683.257	-11
683.287	-2
683.317	-9
683.347	-12
683.377	2
683.407	-8
683.437	-5
683.468	17
683.498	6
683.528	15
683.558	6
683.588	-2
683.618	-9
683.648	-5
683.678	4
683.708	15
683.739	2
683.769	3
683.799	3
683.829	14
683.859	-1
683.889	22
683.919	4
683.949	11
683.979	2
684.009	-3
684.039	-15
684.07	-8
684.1	16
684.13	4
684.16	-1
684.19	-16
684.22	7
684.25	9
684.28	8
684.31	10
684.34	1
684.37	2
684.4	-12
684.43	4
684.46	7
684.49	2
684.52	25
684.55	1
684.58	7
684.61	22
684.64	6
684.67	7
684.7	-3
684.73	9
684.76	0
684.79	10
684.82	22
684.85	-11
684.88	19
684.91	13
684.94	1
684.97	-7
685	10
685.03	-1
685.06	1
685.09	9
685.12	25
685.15	-4
685.18	-1
685.21	1
685.24	16
685.27	21
685.3	-7
685.33	15
685.36	-7
685.39	-1
685.42	-16
685.45	-5
685.48	-1
685.51	4
685.54	17
685.569	-6
685.599	-7
685.629	8
685.659	-8
685.689	-1
685.719	7
685.749	-5
685.779	6
685.809	-5
685.839	-1
685.869	8
685.898	13
685.928	4
685.958	4
685.988	23
686.018	-13
686.048	3
686.078	30
686.108	19
686.137	0
686.167	8
686.197	9
686.227	-1
686.257	27
686.287	9
686.317	-12
686.346	-16
686.376	-10
686.406	-1
686.436	4
686.466	-2
686.496	9
686.525	12
686.555	-12
686.585	8
686.615	36
686.645	24
686.675	3
686.704	4
686.734	2
686.764	-5
686.794	2
686.824	11
686.853	4
686.883	10
686.913	17
686.943	10
686.973	-12
687.002	1
687.032	10
687.062	2
687.092	14
687.121	-12
687.151	2
687.181	-2
687.211	15
687.24	1
687.27	10
687.3	-3
687.33	4
687.359	-17
687.389	6
687.419	6
687.449	16
687.478	11
687.508	16
687.538	-3
687.568	-2
687.597	-11
687.627	8
687.657	1
687.686	2
687.716	25
687.746	-4
687.776	0
687.805	13
687.835	12
687.865	14
687.894	16
687.924	6
687.954	-13
687.983	5
688.013	3
688.043	12
688.072	-1
688.102	23
688.132	3
688.161	-4
688.191	10
688.221	11
688.25	-5
688.28	16
688.31	-13
688.339	6
688.369	-10
688.399	-8
688.428	-4
688.458	-4
688.488	1
688.517	10
688.547	4
688.576	32
688.606	20
688.636	-5
688.665	14
688.695	-4
688.725	6
688.754	-15
688.784	-4
688.813	12
688.843	-3
688.873	0
688.902	-9
688.932	-15
688.961	-4
688.991	19
689.02	20
689.05	-2
689.08	12
689.109	26
689.139	-12
689.168	1
689.198	-4
689.227	-8
689.257	16
689.287	13
689.316	-6
689.346	-2
689.375	-1
689.405	8
689.434	-2
689.464	10
689.493	8
689.523	-1
689.552	-6
689.582	23
689.611	8
689.641	18
689.67	2
689.7	11
689.73	-6
689.759	-12
689.789	0
689.818	2
689.848	-4
689.877	24
689.906	-10
689.936	-5
689.965	12
689.995	16
690.024	4
690.054	-5
690.083	11
690.113	12
690.142	13
690.172	10
690.201	-5
690.231	-2
690.26	-5
690.29	0
690.319	11
690.348	-1
690.378	3
690.407	8
690.437	-8
690.466	14
690.496	-5
690.525	-8
690.555	3
690.584	3
690.613	-3
690.643	5
690.672	7
690.702	9
690.731	1
690.76	16
690.79	48
690.819	34
690.849	39
690.878	33
690.907	12
690.937	25
690.966	29
690.996	6
691.025	3
691.054	11
691.084	3
691.113	4
691.142	9
691.172	-1
691.201	6
691.23	7
691.26	9
691.289	1
691.319	6
691.348	2
691.377	18
691.407	4
691.436	-12
691.465	8
691.495	-24
691.524	-7
691.553	8
691.583	-1
691.612	5
691.641	-10
691.67	-2
691.7	-1
691.729	-10
691.758	-8
691.788	-2
691.817	-9
691.846	6
691.876	2
691.905	-2
691.934	-11
691.963	2
691.993	22
692.022	-8
692.051	-3
692.081	14
692.11	33
692.139	17
692.168	1
692.198	28
692.227	-3
692.256	15
692.285	7
692.315	10
692.344	16
692.373	4
692.402	1
692.432	-12
692.461	3
692.49	16
692.519	1
692.548	18
692.578	14
692.607	-6
692.636	-4
692.665	5
692.694	-5
692.724	10
692.753	5
692.782	7
692.811	-2
692.84	-8
692.87	8
692.899	11
692.928	7
692.957	7
692.986	20
693.016	2
693.045	22
693.074	10
693.103	-10
693.132	18
693.161	2
693.191	-7
693.22	7
693.249	2
693.278	16
693.307	17
693.336	-7
693.365	-12
693.395	-1
693.424	-10
693.453	22
693.482	-7
693.511	4
693.54	-8
693.569	7
693.598	3
693.628	24
693.657	33
693.686	25
693.715	4
693.744	21
693.773	20
693.802	9
693.831	9
693.86	18
693.889	-1
693.919	10
693.948	6
693.977	-1
694.006	24
694.035	8
694.064	-2
694.093	6
694.122	14
694.151	-1
694.18	8
694.209	27
694.238	12
694.267	24
694.296	16
694.325	11
694.354	2
694.383	18
694.412	13
694.441	6
694.471	0
694.5	-3
694.529	18
694.558	27
694.587	7
694.616	-3
694.645	0
694.674	12
694.703	21
694.732	18
694.761	29
694.79	20
694.819	-9
694.848	12
694.877	8
694.906	27
694.935	14
694.963	25
694.992	12
695.021	16
695.05	12
695.079	11
695.108	-1
695.137	7
695.166	11
695.195	6
695.224	5
695.253	-1
695.282	14
695.311	24
695.34	0
695.369	7
695.398	4
695.427	14
695.456	10
695.485	9
695.513	12
695.542	0
695.571	4
695.6	16
695.629	-5
695.658	7
695.687	4
695.716	1
695.745	15
695.774	-6
695.802	5
695.831	5
695.86	4
695.889	-7
695.918	15
695.947	-15
695.976	-2
696.005	11
696.033	6
696.062	12
696.091	2
696.12	15
696.149	25
696.178	17
696.207	22
696.235	2
696.264	2
696.293	12
696.322	10
696.351	2
696.38	4
696.408	1
696.437	-9
696.466	10
696.495	20
696.524	15
696.553	17
696.581	30
696.61	11
696.639	2
696.668	22
696.697	6
696.725	7
696.754	8
696.783	1
696.812	-5
696.84	11
696.869	11
696.898	6
696.927	-4
696.956	28
696.984	-6
697.013	3
697.042	15
697.071	11
697.099	21
697.128	-2
697.157	12
697.186	8
697.214	20
697.243	-6
697.272	0
697.301	10
697.329	12
697.358	4
697.387	33
697.415	6
697.444	1
697.473	2
697.502	-11
697.53	4
697.559	1
697.588	3
697.616	4
697.645	21
697.674	10
697.703	20
697.731	19
697.76	23
697.789	3
697.817	2
697.846	14
697.875	8
697.903	27
697.932	20
697.961	7
697.989	7
698.018	14
698.047	8
698.075	26
698.104	22
698.133	4
698.161	2
698.19	3
698.218	7
698.247	1
698.276	0
698.304	29
698.333	16
698.362	16
698.39	6
698.419	15
698.447	7
698.476	5
698.505	10
698.533	-4
698.562	5
698.591	7
698.619	-1
698.648	13
698.676	4
698.705	-5
698.733	-27
698.762	4
698.791	2
698.819	11
698.848	3
698.876	19
698.905	18
698.933	25
698.962	17
698.991	4
699.019	18
699.048	13
699.076	3
699.105	-17
699.133	7
699.162	20
699.19	29
699.219	11
699.248	13
699.276	2
699.305	-1
699.333	1
699.362	-9
699.39	8
699.419	2
699.447	17
699.476	20
699.504	-3
699.533	-1
699.561	-7
699.59	9
699.618	1
699.647	9
699.675	13
699.704	21
699.732	4
699.761	9
699.789	8
699.818	8
699.846	7
699.874	5
699.903	7
699.931	-8
699.96	6
699.988	-2
700.017	0
700.045	2
700.074	-2
700.102	5
700.13	8
700.159	24
700.187	2
700.216	11
700.244	-13
700.273	-11
700.301	12
700.329	25
700.358	12
700.386	-4
700.415	-3
700.443	1
700.472	9
700.5	1
700.528	6
700.557	23
700.585	-8
700.614	0
700.642	25
700.67	8
700.699	13
700.727	-6
700.755	21
700.784	10
700.812	-11
700.841	8
700.869	3
700.897	-13
700.926	-1
700.954	17
700.982	9
701.011	13
701.039	14
701.067	5
701.096	10
701.124	-8
701.152	10
701.181	11
701.209	-10
701.237	-6
701.266	-10
701.294	0
701.322	11
701.351	22
701.379	13
701.407	7
701.435	7
701.464	14
701.492	30
701.52	-10
701.549	19
701.577	-3
701.605	10
701.634	23
701.662	26
701.69	6
701.718	2
701.747	7
701.775	-7
701.803	-8
701.831	14
701.86	0
701.888	-5
701.916	-1
701.944	-5
701.973	-6
702.001	-12
702.029	-6
702.057	7
702.086	12
702.114	-5
702.142	-10
702.17	-10
702.199	4
702.227	0
702.255	-6
702.283	-4
702.311	-6
702.34	-1
702.368	3
702.396	2
702.424	-7
702.452	9
702.481	6
702.509	-9
702.537	3
702.565	20
702.593	-2
702.621	2
702.65	6
702.678	7
702.706	20
702.734	-3
702.762	4
702.79	5
702.819	14
702.847	10
702.875	24
702.903	7
702.931	-1
702.959	-1
702.988	11
703.016	-11
703.044	-5
703.072	3
703.1	1
703.128	-16
703.156	19
703.184	-9
703.212	13
703.241	8
703.269	0
703.297	-3
703.325	0
703.353	-16
703.381	-22
703.409	5
703.437	-2
703.465	10
703.493	-4
703.522	10
703.55	3
703.578	17
703.606	-6
703.634	1
703.662	-1
703.69	-10
703.718	11
703.746	25
703.774	-6
703.802	6
703.83	-5
703.858	-8
703.886	1
703.914	-7
703.942	12
703.97	-2
703.998	3
704.027	24
704.055	9
704.083	21
704.111	-7
704.139	17
704.167	0
704.195	-6
704.223	-2
704.251	-5
704.279	-1
704.307	-1
704.335	-11
704.363	-2
704.391	4
704.419	-12
704.447	-5
704.475	-2
704.503	-17
704.531	7
704.558	5
704.586	11
704.614	-3
704.642	20
704.67	-16
704.698	8
704.726	10
704.754	17
704.782	1
704.81	-6
704.838	10
704.866	12
704.894	-1
704.922	-1
704.95	-1
704.978	-1
705.006	-9
705.034	16
705.061	1
705.089	9
705.117	-7
705.145	-6
705.173	12
705.201	4
705.229	12
705.257	5
705.285	3
705.313	-14
705.34	-1
705.368	-13
705.396	12
705.424	6
705.452	3
705.48	2
705.508	-6
705.536	-5
705.563	-13
705.591	8
705.619	2
705.647	-10
705.675	12
705.703	7
705.731	10
705.758	15
705.786	-2
705.814	10
705.842	2
705.87	16
705.898	34
705.925	7
705.953	11
705.981	3
706.009	4
706.037	4
706.065	9
706.092	-4
706.12	21
706.148	10
706.176	5
706.204	26
706.231	2
706.259	-4
706.287	11
706.315	7
706.342	2
706.37	13
706.398	10
706.426	0
706.454	1
706.481	18
706.509	-4
706.537	1
706.565	1
706.592	13
706.62	2
706.648	-5
706.676	-7
706.703	9
706.731	9
706.759	-7
706.787	19
706.814	16
706.842	-4
706.87	-6
706.897	6
706.925	10
706.953	7
706.981	22
707.008	-4
707.036	-4
707.064	-3
707.091	-16
707.119	13
707.147	-2
707.174	-5
707.202	3
707.23	-22
707.258	-1
707.285	-4
707.313	-12
707.341	-1
707.368	-9
707.396	22
707.424	18
707.451	8
707.479	-2
707.507	-9
707.534	-6
707.562	-1
707.59	3
707.617	-9
707.645	-9
707.672	5
707.7	4
707.728	18
707.755	7
707.783	15
707.811	0
707.838	3
707.866	15
707.893	5
707.921	1
707.949	2
707.976	11
708.004	17
708.031	-1
708.059	-5
708.087	15
708.114	-15
708.142	3
708.169	-14
708.197	-9
708.225	5
708.252	10
708.28	20
708.307	13
708.335	3
708.362	-4
708.39	-10
708.418	3
708.445	0
708.473	3
708.5	-15
708.528	5
708.555	0
708.583	-1
708.61	2
708.638	14
708.665	-20
708.693	-2
708.72	-9
708.748	-30
708.776	-3
708.803	26
708.831	26
708.858	5
708.886	-1
708.913	16
708.941	-3
708.968	7
708.996	-4
709.023	42
709.051	-6
709.078	4
709.105	4
709.133	4
709.16	-1
709.188	15
709.215	9
709.243	10
709.27	-8
709.298	7
709.325	-3
709.353	13
709.38	-7
709.408	7
709.435	0
709.462	4
709.49	16
709.517	-2
709.545	2
709.572	-5
709.6	16
709.627	0
709.655	-4
709.682	-2
709.709	1
709.737	-2
709.764	-14
709.792	8
709.819	-16
709.846	-6
709.874	15
709.901	20
709.929	17
709.956	11
709.983	-7
710.011	12
710.038	-5
710.066	10
710.093	16
710.12	8
710.148	-8
710.175	-2
710.202	-23
710.23	-18
710.257	-7
710.284	19
710.312	-2
710.339	6
710.366	13
710.394	-4
710.421	9
710.448	7
710.476	-11
710.503	0
710.53	11
710.558	8
710.585	24
710.612	-2
710.64	2
710.667	-4
710.694	2
710.722	4
710.749	-1
710.776	8
710.804	21
710.831	4
710.858	14
710.885	6
710.913	0
710.94	27
710.967	-1
710.995	-11
711.022	2
711.049	-8
711.076	-2
711.104	-6
711.131	-2
711.158	-1
711.185	-2
711.213	-3
711.24	9
711.267	7
711.294	-2
711.322	7
711.349	15
711.376	-3
711.403	12
711.431	-7
711.458	-6
711.485	-15
711.512	-1
711.54	-7
711.567	-5
711.594	4
711.621	-4
711.648	11
711.676	9
711.703	-12
711.73	-23
711.757	-1
711.784	-12
711.812	8
711.839	-8
711.866	1
711.893	-18
711.92	14
711.947	17
711.975	21
712.002	4
712.029	7
712.056	1
712.083	3
712.11	-10
712.138	13
712.165	-3
712.192	-3
712.219	-8
712.246	-22
712.273	-16
712.3	-13
712.328	8
712.355	4
712.382	-8
712.409	4
712.436	-11
712.463	15
712.49	1
712.517	-1
712.544	5
712.572	3
712.599	-17
712.626	0
712.653	9
712.68	3
712.707	16
712.734	6
712.761	-1
712.788	20
712.815	10
712.842	11
712.87	3
712.897	-6
712.924	-21
712.951	-6
712.978	11
713.005	16
713.032	14
713.059	1
713.086	-2
713.113	-17
713.14	-9
713.167	-7
713.194	-8
713.221	-8
713.248	9
713.275	-10
713.302	-3
713.329	7
713.356	12
713.383	7
713.41	5
713.437	-4
713.464	-9
713.491	12
713.518	-9
713.545	-8
713.572	-7
713.599	8
713.626	2
713.653	17
713.68	2
713.707	-2
713.734	3
713.761	-5
713.788	7
713.815	0
713.842	-10
713.869	-5
713.896	24
713.923	8
713.95	3
713.977	5
714.004	15
714.031	11
714.058	10
714.085	3
714.112	26
714.139	4
714.165	7
714.192	-14
714.219	8
714.246	13
714.273	2
714.3	11
714.327	-1
714.354	12
714.381	-3
714.408	9
714.435	5
714.461	3
714.488	14
714.515	-4
714.542	-2
714.569	-14
714.596	-3
714.623	6
714.65	-2
714.677	17
714.703	-4
714.73	-8
714.757	2
714.784	2
714.811	-2
714.838	2
714.865	-8
714.891	14
714.918	4
714.945	-13
714.972	-10
714.999	23
715.026	-13
715.052	12
715.079	1
715.106	-4
715.133	5
715.16	1
715.187	-1
715.213	17
715.24	-7
715.267	-8
715.294	-7
715.321	4
715.347	-5
715.374	-2
715.401	8
715.428	11
715.455	6
715.481	-6
715.508	9
715.535	-8
715.562	22
715.588	4
715.615	9
715.642	4
715.669	6
715.695	-9
715.722	-6
715.749	13
715.776	23
715.802	-6
715.829	14
715.856	-16
715.883	4
715.909	-3
715.936	-9
715.963	-14
715.99	-2
716.016	16
716.043	9
716.07	0
716.096	-5
716.123	8
716.15	7
716.177	6
716.203	20
716.23	-2
716.257	-2
716.283	13
716.31	8
716.337	6
716.363	12
716.39	3
716.417	18
716.443	6
716.47	3
716.497	21
716.523	16
716.55	12
716.577	-3
716.603	5
716.63	19
716.657	17
716.683	-11
716.71	-4
716.737	-10
716.763	4
716.79	7
716.817	20
716.843	13
716.87	-3
716.897	12
716.923	16
716.95	9
716.976	-2
717.003	7
717.03	9
717.056	2
717.083	-2
717.109	19
717.136	13
717.163	-4
717.189	5
717.216	9
717.242	-1
717.269	-11
717.296	10
717.322	19
717.349	11
717.375	2
717.402	-12
717.428	-6
717.455	7
717.481	10
717.508	8
717.535	8
717.561	14
717.588	3
717.614	3
717.641	6
717.667	0
717.694	-1
717.72	-1
717.747	5
717.773	-3
717.8	9
717.826	6
717.853	0
717.88	-2
717.906	11
717.933	17
717.959	8
717.986	0
718.012	-4
718.039	2
718.065	7
718.092	8
718.118	-9
718.144	-7
718.171	23
718.197	24
718.224	-4
718.25	-10
718.277	-1
718.303	5
718.33	9
718.356	6
718.383	-14
718.409	-12
718.436	2
718.462	5
718.489	4
718.515	20
718.541	22
718.568	10
718.594	18
718.621	10
718.647	0
718.674	1
718.7	2
718.726	3
718.753	-1
718.779	12
718.806	1
718.832	11
718.858	21
718.885	-17
718.911	-2
718.938	7
718.964	-6
718.99	3
719.017	-2
719.043	5
719.07	9
719.096	-11
719.122	1
719.149	19
719.175	4
719.201	4
719.228	2
719.254	-8
719.281	-7
719.307	1
719.333	-4
719.36	11
719.386	-2
719.412	21
719.439	-7
719.465	-8
719.491	-2
719.518	-1
719.544	4
719.57	4
719.597	8
719.623	-17
719.649	-2
719.675	3
719.702	-5
719.728	14
719.754	-16
719.781	10
719.807	-9
719.833	-6
719.86	-3
719.886	4
719.912	10
719.938	-7
719.965	4
719.991	12
720.017	12
720.044	0
720.07	10
720.096	3
720.122	1
720.149	14
720.175	16
720.201	11
720.227	2
720.254	-11
720.28	-8
720.306	-2
720.332	18
720.359	12
720.385	17
720.411	16
720.437	4
720.463	-3
720.49	2
720.516	6
720.542	-16
720.568	5
720.595	11
720.621	-2
720.647	0
720.673	19
720.699	3
720.725	3
720.752	-2
720.778	3
720.804	2
720.83	4
720.856	-14
720.883	-14
720.909	3
720.935	11
720.961	17
720.987	13
721.013	11
721.04	-13
721.066	-3
721.092	7
721.118	9
721.144	0
721.17	-6
721.196	-9
721.223	-16
721.249	3
721.275	29
721.301	2
721.327	16
721.353	7
721.379	-9
721.405	11
721.432	6
721.458	-6
721.484	4
721.51	-4
721.536	-5
721.562	9
721.588	7
721.614	-6
721.64	-5
721.666	2
721.693	6
721.719	13
721.745	-5
721.771	-15
721.797	-5
721.823	2
721.849	19
721.875	15
721.901	19
721.927	-14
721.953	-5
721.979	19
722.005	20
722.031	-13
722.057	4
722.083	8
722.109	5
722.135	14
722.161	10
722.187	3
722.214	8
722.24	25
722.266	-1
722.292	5
722.318	16
722.344	12
722.37	12
722.396	7
722.422	-2
722.448	-4
722.474	-9
722.5	20
722.526	14
722.552	7
722.578	2
722.603	7
722.629	8
722.655	19
722.681	-6
722.707	-4
722.733	8
722.759	-17
722.785	-8
722.811	1
722.837	-11
722.863	18
722.889	18
722.915	3
722.941	-2
722.967	-3
722.993	11
723.019	11
723.045	11
723.071	10
723.097	11
723.122	2
723.148	-17
723.174	-15
723.2	6
723.226	-2
723.252	0
723.278	10
723.304	2
723.33	-8
723.356	7
723.381	4
723.407	-16
723.433	8
723.459	-12
723.485	11
723.511	10
723.537	-10
723.563	4
723.588	-2
723.614	17
723.64	14
723.666	10
723.692	15
723.718	0
723.744	-5
723.769	15
723.795	3
723.821	10
723.847	4
723.873	18
723.899	5
723.924	-15
723.95	2
723.976	-17
724.002	6
724.028	9
724.053	-6
724.079	2
724.105	0
724.131	-6
724.157	10
724.182	6
724.208	14
724.234	-2
724.26	-6
724.286	9
724.311	2
724.337	4
724.363	3
724.389	9
724.415	0
724.44	19
724.466	-9
724.492	17
724.518	9
724.543	15
724.569	3
724.595	20
724.621	6
724.646	-1
724.672	-7
724.698	11
724.723	-4
724.749	16
724.775	15
724.801	20
724.826	-9
724.852	9
724.878	-2
724.904	-7
724.929	1
724.955	-6
724.981	6
725.006	11
725.032	8
725.058	25
725.083	-14
725.109	-8
725.135	17
725.161	9
725.186	3
725.212	-2
725.238	1
725.263	-3
725.289	1
725.315	-17
725.34	0
725.366	12
725.392	4
725.417	7
725.443	12
725.468	5
725.494	5
725.52	5
725.545	-2
725.571	-2
725.597	1
725.622	1
725.648	1
725.674	10
725.699	1
725.725	1
725.75	20
725.776	-2
725.802	1
725.827	0
725.853	-1
725.878	7
725.904	-15
725.93	-6
725.955	1
725.981	-4
726.006	0
726.032	7
726.057	4
726.083	-14
726.109	12
726.134	11
726.16	15
726.185	0
726.211	9
726.236	11
726.262	7
726.288	23
726.313	-2
726.339	11
726.364	9
726.39	13
726.415	6
726.441	-12
726.466	2
726.492	7
726.517	8
726.543	4
726.568	-11
726.594	-6
726.619	-1
726.645	10
726.67	1
726.696	-1
726.721	-5
726.747	-8
726.772	4
726.798	5
726.823	10
726.849	-2
726.874	7
726.9	5
726.925	10
726.951	-9
726.976	-1
727.002	3
727.027	0
727.053	9
727.078	1
727.104	-1
727.129	-7
727.155	2
727.18	9
727.205	9
727.231	8
727.256	6
727.282	0
727.307	2
727.333	8
727.358	1
727.383	2
727.409	-9
727.434	15
727.46	-5
727.485	-1
727.511	5
727.536	8
727.561	-4
727.587	7
727.612	7
727.637	-1
727.663	13
727.688	17
727.714	-5
727.739	-11
727.764	-1
727.79	-9
727.815	6
727.841	5
727.866	0
727.891	1
727.917	-5
727.942	-1
727.967	7
727.993	-5
728.018	6
728.043	-2
728.069	12
728.094	8
728.119	12
728.145	11
728.17	26
728.195	11
728.221	19
728.246	-5
728.271	-17
728.297	4
728.322	10
728.347	7
728.373	14
728.398	11
728.423	7
728.448	12
728.474	7
728.499	19
728.524	3
728.55	-2
728.575	-5
728.6	-4
728.625	10
728.651	3
728.676	1
728.701	0
728.727	5
728.752	-10
728.777	1
728.802	-4
728.828	5
728.853	6
728.878	-2
728.903	-6
728.929	-12
728.954	-15
728.979	-5
729.004	-13
729.03	0
729.055	4
729.08	-16
729.105	2
729.13	15
729.156	21
729.181	10
729.206	-4
729.231	6
729.256	15
729.282	-5
729.307	-23
729.332	-9
729.357	-14
729.382	6
729.408	17
729.433	23
729.458	13
729.483	13
729.508	6
729.533	10
729.559	-2
729.584	-20
729.609	7
729.634	11
729.659	-1
729.684	20
729.71	28
729.735	22
729.76	-5
729.785	4
729.81	16
729.835	-4
729.86	6
729.886	12
729.911	27
729.936	18
729.961	14
729.986	30
730.011	53
730.036	207
730.061	1000
730.086	2742
730.112	3404
730.137	2866
730.162	2166
730.187	1650
730.212	1278
730.237	823
730.262	443
730.287	235
730.312	137
730.337	90
730.362	60
730.387	34
730.413	13
730.438	14
730.463	17
730.488	25
730.513	18
730.538	3
730.563	31
730.588	28
730.613	8
730.638	1
730.663	-1
730.688	26
730.713	21
730.738	12
730.763	2
730.788	-14
730.813	18
730.838	1
730.863	7
730.888	12
730.913	14
730.938	-5
730.963	21
730.988	115
731.013	408
731.038	589
731.063	597
731.088	469
731.113	364
731.138	259
731.163	197
731.188	126
731.213	66
731.238	38
731.263	18
731.288	18
731.313	9
731.338	2
731.363	7
731.388	17
731.413	6
731.438	24
731.463	6
731.487	18
731.512	4
731.537	-1
731.562	-2
731.587	10
731.612	-2
731.637	4
731.662	8
731.687	-3
731.712	-8
731.737	7
731.762	7
731.786	4
731.811	0
731.836	4
731.861	4
731.886	-6
731.911	18
731.936	6
731.961	-2
731.986	-4
732.01	7
732.035	20
732.06	29
732.085	10
732.11	2
732.135	-16
732.16	-18
732.184	1
732.209	-2
732.234	11
732.259	-8
732.284	3
732.309	-4
732.334	12
732.358	0
732.383	1
732.408	7
732.433	2
732.458	4
732.482	-4
732.507	-7
732.532	4
732.557	16
732.582	-2
732.607	15
732.631	58
732.656	96
732.681	148
732.706	325
732.73	451
732.755	388
732.78	291
732.805	250
732.83	190
732.854	134
732.879	94
732.904	47
732.929	20
732.953	20
732.978	22
733.003	3
733.028	-8
733.052	0
733.077	11
733.102	26
733.127	15
733.151	-12
733.176	7
733.201	-13
733.226	-5
733.25	9
733.275	6
733.3	6
733.324	22
733.349	19
733.374	39
733.399	15
733.423	-7
733.448	-5
733.473	-4
733.497	-4
733.522	-6
733.547	17
733.571	39
733.596	20
733.621	11
733.646	-8
733.67	12
733.695	2
733.72	8
733.744	18
733.769	-2
733.794	14
733.818	10
733.843	-1
733.867	0
733.892	-1
733.917	2
733.941	-9
733.966	-6
733.991	13
734.015	28
734.04	4
734.065	14
734.089	26
734.114	0
734.138	4
734.163	-13
734.188	16
734.212	3
734.237	6
734.261	8
734.286	-5
734.311	9
734.335	-1
734.36	5
734.384	-9
734.409	22
734.434	-4
734.458	7
734.483	4
734.507	-14
734.532	-5
734.556	6
734.581	0
734.606	-2
734.63	-2
734.655	16
734.679	1
734.704	-4
734.728	-1
734.753	-6
734.777	17
734.802	-1
734.826	0
734.851	-4
734.876	14
734.9	15
734.925	7
734.949	14
734.974	9
734.998	7
735.023	-12
735.047	-4
735.072	9
735.096	-5
735.121	12
735.145	5
735.17	13
735.194	9
735.219	10
735.243	10
735.268	-4
735.292	4
735.317	9
735.341	3
735.365	0
735.39	6
735.414	12
735.439	14
735.463	6
735.488	2
735.512	-5
735.537	-6
735.561	-6
735.586	16
735.61	-2
735.634	-3
735.659	5
735.683	22
735.708	7
735.732	-1
735.757	-4
735.781	11
735.805	0
735.83	-2
735.854	-3
735.879	-5
735.903	10
735.927	11
735.952	6
735.976	3
736.001	-11
736.025	11
736.049	15
736.074	13
736.098	7
736.123	-7
736.147	-7
736.171	17
736.196	4
736.22	-16
736.244	0
736.269	-10
736.293	-17
736.317	3
736.342	-3
736.366	18
736.39	6
736.415	2
736.439	-4
736.463	13
736.488	8
736.512	7
736.536	18
736.561	40
736.585	0
736.609	12
736.634	-1
736.658	16
736.682	-4
736.707	-18
736.731	-5
736.755	2
736.78	8
736.804	23
736.828	-7
736.852	9
736.877	7
736.901	14
736.925	2
736.949	6
736.974	-9
736.998	-12
737.022	8
737.047	-1
737.071	0
737.095	32
737.119	30
737.144	6
737.168	-2
737.192	-8
737.216	-4
737.241	6
737.265	8
737.289	2
737.313	0
737.337	17
737.362	18
737.386	12
737.41	2
737.434	4
737.459	7
737.483	14
737.507	12
737.531	18
737.555	-3
737.58	10
737.604	2
737.628	-18
737.652	0
737.676	3
737.701	-4
737.725	-2
737.749	-1
737.773	9
737.797	0
737.821	11
737.846	-1
737.87	30
737.894	2
737.918	8
737.942	0
737.966	14
737.99	11
738.015	18
738.039	6
738.063	-9
738.087	14
738.111	-2
738.135	13
738.159	0
738.184	1
738.208	9
738.232	2
738.256	31
738.28	24
738.304	3
738.328	-3
738.352	13
738.376	0
738.4	5
738.425	6
738.449	-5
738.473	20
738.497	8
738.521	7
738.545	12
738.569	23
738.593	13
738.617	21
738.641	-2
738.665	9
738.689	22
738.713	8
738.737	-2
738.762	18
738.786	14
738.81	-11
738.834	20
738.858	9
738.882	-5
738.906	8
738.93	-1
738.954	0
738.978	5
739.002	-4
739.026	1
739.05	9
739.074	7
739.098	25
739.122	3
739.146	15
739.17	24
739.194	9
739.218	-6
739.242	1
739.266	-2
739.29	4
739.314	5
739.338	7
739.362	10
739.386	13
739.41	-16
739.434	-5
739.458	14
739.482	8
739.506	7
739.53	-16
739.554	7
739.577	0
739.601	15
739.625	-14
739.649	-14
739.673	-4
739.697	9
739.721	5
739.745	10
739.769	9
739.793	5
739.817	2
739.841	-8
739.865	-2
739.889	-11
739.912	-6
739.936	-8
739.96	-4
739.984	19
740.008	3
740.032	-5
740.056	6
740.08	-1
740.104	-3
740.127	17
740.151	18
740.175	20
740.199	24
740.223	47
740.247	33
740.271	12
740.295	2
740.318	-5
740.342	5
740.366	15
740.39	9
740.414	6
740.438	-6
740.461	4
740.485	11
740.509	-13
740.533	11
740.557	4
740.581	12
740.604	-4
740.628	13
740.652	-5
740.676	-2
740.7	15
740.723	1
740.747	2
740.771	1
740.795	-13
740.819	4
740.842	4
740.866	12
740.89	10
740.914	-6
740.938	-10
740.961	5
740.985	7
741.009	-4
741.033	4
741.056	-2
741.08	-7
741.104	-12
741.128	-2
741.151	18
741.175	11
741.199	18
741.223	16
741.246	1
741.27	9
741.294	26
741.318	4
741.341	2
741.365	13
741.389	18
741.413	19
741.436	21
741.46	7
741.484	15
741.507	10
741.531	23
741.555	7
741.579	-8
741.602	6
741.626	27
741.65	-2
741.673	-5
741.697	6
741.721	16
741.744	-3
741.768	-7
741.792	2
741.815	-5
741.839	23
741.863	23
741.886	34
741.91	24
741.934	-6
741.957	-4
741.981	5
742.005	-5
742.028	-2
742.052	-9
742.075	6
742.099	11
742.123	7
742.146	3
742.17	4
742.194	-2
742.217	-3
742.241	-6
742.264	-14
742.288	22
742.312	18
742.335	0
742.359	12
742.382	23
742.406	12
742.43	-12
742.453	-6
742.477	-2
742.5	0
742.524	-24
742.548	-11
742.571	-10
742.595	-6
742.618	-2
742.642	7
742.665	-2
742.689	6
742.712	0
742.736	-5
742.76	1
742.783	5
742.807	14
742.83	9
742.854	-1
742.877	8
742.901	-8
742.924	-8
742.948	7
742.971	12
742.995	13
743.018	-11
743.042	-4
743.065	12
743.089	0
743.112	-5
743.136	-3
743.159	-9
743.183	8
743.206	-4
743.23	-9
743.253	7
743.277	8
743.3	-16
743.324	6
743.347	2
743.371	19
743.394	10
743.418	16
743.441	18
743.465	14
743.488	10
743.512	7
743.535	3
743.558	-10
743.582	7
743.605	8
743.629	16
743.652	6
743.676	2
743.699	17
743.723	0
743.746	9
743.769	11
743.793	16
743.816	1
743.84	4
743.863	-1
743.886	4
743.91	8
743.933	18
743.957	7
743.98	1
744.003	-4
744.027	8
744.05	5
744.074	2
744.097	-5
744.12	-12
744.144	-7
744.167	4
744.19	0
744.214	0
744.237	-10
744.26	8
744.284	-8
744.307	-6
744.331	9
744.354	-2
744.377	-2
744.401	-7
744.424	-5
744.447	0
744.471	-5
