Data from HighRes_mercury_15_13_11_07_2024_HR4C61891__76__15-14-30-786.txt Node

Date: Thu Nov 07 15:14:30 EST 2024
User: crc00042
Spectrometer: HR4C6189
Trigger mode: 4
Integration Time (sec): 1.000000E-1
Scans to average: 1
Electric dark correction enabled: true
Nonlinearity correction enabled: false
Boxcar width: 0
XAxis mode: Wavelengths
Number of Pixels in Spectrum: 3648
>>>>>Begin Spectral Data<<<<<
639.567	-73.62
639.602	-73.62
639.636	-73.62
639.67	-48.62
639.704	-17.62
639.738	-2.62
639.773	12.38
639.807	-15.62
639.841	-0.62
639.875	2.38
639.909	7.38
639.943	-8.62
639.978	-5.62
640.012	6.38
640.046	10.38
640.08	1.38
640.114	-2.62
640.148	-4.62
640.182	2.38
640.217	-10.62
640.251	13.38
640.285	15.38
640.319	-12.62
640.353	6.38
640.387	9.38
640.421	-10.62
640.455	-8.62
640.49	-3.62
640.524	-0.62
640.558	13.38
640.592	2.38
640.626	-12.62
640.66	-1.62
640.694	-1.62
640.728	-2.62
640.762	-7.62
640.796	4.38
640.83	9.38
640.865	5.38
640.899	1.38
640.933	-17.62
640.967	6.38
641.001	2.38
641.035	-10.62
641.069	-13.62
641.103	-0.62
641.137	-1.62
641.171	-14.62
641.205	1.38
641.239	-11.62
641.273	0.38
641.307	-0.62
641.341	2.38
641.375	4.38
641.409	-16.62
641.443	-3.62
641.477	-7.62
641.511	-1.62
641.545	6.38
641.579	-0.62
641.614	7.38
641.648	7.38
641.682	3.38
641.716	1.38
641.75	17.38
641.784	4.38
641.818	2.38
641.852	-2.62
641.886	-2.62
641.919	7.38
641.953	3.38
641.987	-2.62
642.021	6.38
642.055	8.38
642.089	-10.62
642.123	-27.62
642.157	-1.62
642.191	1.38
642.225	15.38
642.259	1.38
642.293	7.38
642.327	1.38
642.361	9.38
642.395	14.38
642.429	-1.62
642.463	-0.62
642.497	19.38
642.531	14.38
642.565	-1.62
642.599	5.38
642.633	-7.62
642.666	-0.62
642.7	5.38
642.734	2.38
642.768	-3.62
642.802	0.38
642.836	13.38
642.87	1.38
642.904	3.38
642.938	-10.62
642.972	-15.62
643.005	5.38
643.039	2.38
643.073	-3.62
643.107	-7.62
643.141	4.38
643.175	4.38
643.209	-0.62
643.243	1.38
643.276	-2.62
643.31	-5.62
643.344	3.38
643.378	0.38
643.412	16.38
643.446	4.38
643.48	9.38
643.513	-2.62
643.547	5.38
643.581	-11.62
643.615	-0.62
643.649	-7.62
643.683	-0.62
643.716	0.38
643.75	-3.62
643.784	-25.62
643.818	2.38
643.852	-27.62
643.886	0.38
643.919	-5.62
643.953	-0.62
643.987	-6.62
644.021	13.38
644.055	9.38
644.088	-6.62
644.122	-15.62
644.156	-8.62
644.19	1.38
644.224	-14.62
644.257	6.38
644.291	18.38
644.325	8.38
644.359	7.38
644.392	14.38
644.426	13.38
644.46	-3.62
644.494	-17.62
644.527	-13.62
644.561	14.38
644.595	-17.62
644.629	-7.62
644.662	-13.62
644.696	16.38
644.73	-13.62
644.764	-0.62
644.797	-9.62
644.831	0.38
644.865	14.38
644.899	-4.62
644.932	15.38
644.966	0.38
645	17.38
645.033	9.38
645.067	-11.62
645.101	1.38
645.135	-3.62
645.168	-12.62
645.202	-18.62
645.236	1.38
645.269	4.38
645.303	-0.62
645.337	-8.62
645.37	-5.62
645.404	2.38
645.438	-3.62
645.471	-4.62
645.505	-10.62
645.539	2.38
645.572	-25.62
645.606	-6.62
645.64	-1.62
645.673	3.38
645.707	14.38
645.741	6.38
645.774	-12.62
645.808	7.38
645.842	-1.62
645.875	-0.62
645.909	-7.62
645.943	-13.62
645.976	-0.62
646.01	0.38
646.043	15.38
646.077	2.38
646.111	10.38
646.144	12.38
646.178	18.38
646.212	-18.62
646.245	-11.62
646.279	14.38
646.312	3.38
646.346	18.38
646.38	3.38
646.413	-15.62
646.447	3.38
646.48	5.38
646.514	17.38
646.547	7.38
646.581	-5.62
646.615	-10.62
646.648	-12.62
646.682	0.38
646.715	-2.62
646.749	2.38
646.782	-6.62
646.816	-14.62
646.85	-9.62
646.883	-12.62
646.917	8.38
646.95	5.38
646.984	5.38
647.017	3.38
647.051	-1.62
647.084	10.38
647.118	14.38
647.151	4.38
647.185	12.38
647.218	-29.62
647.252	3.38
647.285	-24.62
647.319	-17.62
647.353	-7.62
647.386	13.38
647.42	4.38
647.453	-1.62
647.487	-6.62
647.52	-0.62
647.553	-9.62
647.587	-0.62
647.62	-14.62
647.654	3.38
647.687	-15.62
647.721	-6.62
647.754	6.38
647.788	3.38
647.821	-3.62
647.855	5.38
647.888	-8.62
647.922	-1.62
647.955	-0.62
647.989	9.38
648.022	0.38
648.055	7.38
648.089	-2.62
648.122	8.38
648.156	5.38
648.189	-18.62
648.223	5.38
648.256	-0.62
648.29	-2.62
648.323	-8.62
648.356	12.38
648.39	9.38
648.423	15.38
648.457	-10.62
648.49	6.38
648.523	0.38
648.557	1.38
648.59	-7.62
648.624	-12.62
648.657	-2.62
648.69	10.38
648.724	2.38
648.757	11.38
648.791	18.38
648.824	13.38
648.857	15.38
648.891	-13.62
648.924	8.38
648.957	0.38
648.991	-12.62
649.024	13.38
649.057	-2.62
649.091	-6.62
649.124	16.38
649.158	-5.62
649.191	12.38
649.224	13.38
649.258	7.38
649.291	7.38
649.324	-1.62
649.358	-2.62
649.391	-1.62
649.424	3.38
649.458	-8.62
649.491	2.38
649.524	-7.62
649.557	-2.62
649.591	-11.62
649.624	20.38
649.657	1.38
649.691	8.38
649.724	7.38
649.757	-13.62
649.791	-12.62
649.824	22.38
649.857	12.38
649.89	8.38
649.924	-7.62
649.957	4.38
649.99	-23.62
650.023	-6.62
650.057	-7.62
650.09	-8.62
650.123	10.38
650.157	2.38
650.19	3.38
650.223	-1.62
650.256	-17.62
650.29	-1.62
650.323	-2.62
650.356	-0.62
650.389	-20.62
650.423	-11.62
650.456	5.38
650.489	-1.62
650.522	-3.62
650.555	11.38
650.589	12.38
650.622	5.38
650.655	15.38
650.688	-7.62
650.721	-3.62
650.755	2.38
650.788	6.38
650.821	2.38
650.854	-3.62
650.887	23.38
650.921	-9.62
650.954	2.38
650.987	2.38
651.02	-16.62
651.053	-1.62
651.087	-6.62
651.12	40.38
651.153	9.38
651.186	-0.62
651.219	-23.62
651.252	-1.62
651.286	0.38
651.319	-3.62
651.352	5.38
651.385	-0.62
651.418	8.38
651.451	15.38
651.484	4.38
651.518	-23.62
651.551	23.38
651.584	-11.62
651.617	21.38
651.65	5.38
651.683	4.38
651.716	-3.62
651.749	-10.62
651.783	2.38
651.816	-4.62
651.849	6.38
651.882	6.38
651.915	8.38
651.948	6.38
651.981	5.38
652.014	-5.62
652.047	-4.62
652.08	-5.62
652.114	1.38
652.147	-12.62
652.18	-9.62
652.213	7.38
652.246	3.38
652.279	-18.62
652.312	29.38
652.345	2.38
652.378	18.38
652.411	17.38
652.444	-5.62
652.477	-3.62
652.51	-5.62
652.543	-6.62
652.576	-0.62
652.609	-24.62
652.642	-13.62
652.675	4.38
652.709	10.38
652.742	7.38
652.775	-3.62
652.808	3.38
652.841	-8.62
652.874	-0.62
652.907	-2.62
652.94	-3.62
652.973	-9.62
653.006	-28.62
653.039	-12.62
653.072	5.38
653.105	-8.62
653.138	-7.62
653.171	-9.62
653.204	4.38
653.237	2.38
653.27	-6.62
653.303	-0.62
653.336	6.38
653.368	-6.62
653.401	5.38
653.434	-11.62
653.467	23.38
653.5	-1.62
653.533	-22.62
653.566	-2.62
653.599	1.38
653.632	-7.62
653.665	-4.62
653.698	-18.62
653.731	-13.62
653.764	-8.62
653.797	-3.62
653.83	-4.62
653.863	-4.62
653.896	-6.62
653.929	-6.62
653.961	4.38
653.994	-1.62
654.027	-1.62
654.06	-5.62
654.093	-1.62
654.126	-2.62
654.159	-6.62
654.192	5.38
654.225	-19.62
654.258	-8.62
654.29	10.38
654.323	5.38
654.356	-3.62
654.389	-2.62
654.422	-1.62
654.455	-2.62
654.488	16.38
654.521	-13.62
654.553	-12.62
654.586	-2.62
654.619	2.38
654.652	1.38
654.685	-4.62
654.718	5.38
654.751	2.38
654.783	-9.62
654.816	3.38
654.849	10.38
654.882	-5.62
654.915	-15.62
654.948	-3.62
654.98	5.38
655.013	-12.62
655.046	-26.62
655.079	-4.62
655.112	-5.62
655.144	-22.62
655.177	-28.62
655.21	5.38
655.243	-2.62
655.276	-5.62
655.308	1.38
655.341	-4.62
655.374	7.38
655.407	-9.62
655.44	-14.62
655.472	3.38
655.505	-5.62
655.538	-3.62
655.571	2.38
655.603	-11.62
655.636	-10.62
655.669	8.38
655.702	-10.62
655.734	-12.62
655.767	-14.62
655.8	-11.62
655.833	-4.62
655.865	-1.62
655.898	6.38
655.931	-1.62
655.964	-8.62
655.996	-10.62
656.029	-3.62
656.062	-16.62
656.095	-4.62
656.127	-0.62
656.16	-6.62
656.193	-2.62
656.225	1.38
656.258	3.38
656.291	6.38
656.324	-9.62
656.356	-2.62
656.389	1.38
656.422	4.38
656.454	-13.62
656.487	10.38
656.52	7.38
656.552	-16.62
656.585	-15.62
656.618	6.38
656.65	6.38
656.683	-3.62
656.716	1.38
656.748	-7.62
656.781	-12.62
656.814	-12.62
656.846	5.38
656.879	-1.62
656.912	-3.62
656.944	-6.62
656.977	-9.62
657.01	-6.62
657.042	-7.62
657.075	13.38
657.108	0.38
657.14	1.38
657.173	6.38
657.205	18.38
657.238	3.38
657.271	0.38
657.303	-14.62
657.336	-1.62
657.369	-10.62
657.401	-1.62
657.434	-1.62
657.466	-4.62
657.499	-4.62
657.532	-18.62
657.564	2.38
657.597	0.38
657.629	-1.62
657.662	-25.62
657.694	-9.62
657.727	-14.62
657.76	17.38
657.792	-28.62
657.825	-11.62
657.857	-0.62
657.89	-11.62
657.922	2.38
657.955	-10.62
657.987	7.38
658.02	7.38
658.053	3.38
658.085	-1.62
658.118	-9.62
658.15	3.38
658.183	16.38
658.215	-1.62
658.248	-0.62
658.28	-5.62
658.313	-3.62
658.345	-6.62
658.378	6.38
658.41	2.38
658.443	-0.62
658.475	-9.62
658.508	-5.62
658.54	-3.62
658.573	-6.62
658.605	2.38
658.638	0.38
658.67	-4.62
658.703	7.38
658.735	-3.62
658.768	-10.62
658.8	-12.62
658.833	17.38
658.865	3.38
658.898	-11.62
658.93	-1.62
658.963	2.38
658.995	-9.62
659.028	-3.62
659.06	-9.62
659.092	-12.62
659.125	-15.62
659.157	13.38
659.19	-10.62
659.222	-2.62
659.255	-5.62
659.287	10.38
659.32	-16.62
659.352	0.38
659.384	6.38
659.417	-20.62
659.449	-3.62
659.482	-5.62
659.514	-2.62
659.546	10.38
659.579	-10.62
659.611	11.38
659.644	-0.62
659.676	-6.62
659.708	-13.62
659.741	1.38
659.773	22.38
659.806	-13.62
659.838	-0.62
659.87	1.38
659.903	-18.62
659.935	-5.62
659.967	-0.62
660	13.38
660.032	-24.62
660.065	-2.62
660.097	-13.62
660.129	2.38
660.162	-18.62
660.194	5.38
660.226	4.38
660.259	-1.62
660.291	-1.62
660.323	-16.62
660.356	4.38
660.388	-5.62
660.42	-9.62
660.453	14.38
660.485	6.38
660.517	-1.62
660.55	24.38
660.582	-12.62
660.614	17.38
660.647	2.38
660.679	-27.62
660.711	3.38
660.743	-7.62
660.776	-11.62
660.808	2.38
660.84	-4.62
660.873	3.38
660.905	14.38
660.937	-0.62
660.969	-5.62
661.002	-5.62
661.034	-0.62
661.066	-7.62
661.099	-7.62
661.131	2.38
661.163	-12.62
661.195	1.38
661.228	7.38
661.26	6.38
661.292	7.38
661.324	5.38
661.357	0.38
661.389	-7.62
661.421	-1.62
661.453	-11.62
661.485	-6.62
661.518	-3.62
661.55	-8.62
661.582	-6.62
661.614	3.38
661.647	1.38
661.679	7.38
661.711	11.38
661.743	-11.62
661.775	-15.62
661.808	14.38
661.84	-21.62
661.872	-2.62
661.904	-8.62
661.936	-5.62
661.969	-2.62
662.001	-3.62
662.033	17.38
662.065	2.38
662.097	5.38
662.129	4.38
662.162	-15.62
662.194	-5.62
662.226	-5.62
662.258	-7.62
662.29	-7.62
662.322	-28.62
662.355	-20.62
662.387	13.38
662.419	11.38
662.451	1.38
662.483	-3.62
662.515	-3.62
662.547	7.38
662.58	-6.62
662.612	-11.62
662.644	-7.62
662.676	2.38
662.708	12.38
662.74	-4.62
662.772	1.38
662.804	9.38
662.836	5.38
662.869	1.38
662.901	7.38
662.933	-11.62
662.965	5.38
662.997	9.38
663.029	8.38
663.061	-6.62
663.093	-19.62
663.125	-1.62
663.157	7.38
663.189	5.38
663.221	10.38
663.254	10.38
663.286	2.38
663.318	-0.62
663.35	-3.62
663.382	3.38
663.414	-2.62
663.446	-9.62
663.478	-0.62
663.51	23.38
663.542	-4.62
663.574	-11.62
663.606	-7.62
663.638	-3.62
663.67	-11.62
663.702	-1.62
663.734	-9.62
663.766	5.38
663.798	-1.62
663.83	-3.62
663.862	10.38
663.894	19.38
663.926	4.38
663.958	15.38
663.99	-17.62
664.022	-10.62
664.054	7.38
664.086	-21.62
664.118	-16.62
664.15	-22.62
664.182	-6.62
664.214	-3.62
664.246	5.38
664.278	-6.62
664.31	2.38
664.342	-2.62
664.374	-7.62
664.406	-4.62
664.438	2.38
664.47	20.38
664.502	10.38
664.534	-5.62
664.566	-10.62
664.598	6.38
664.63	-5.62
664.662	-2.62
664.693	-7.62
664.725	5.38
664.757	-5.62
664.789	-16.62
664.821	-5.62
664.853	-0.62
664.885	4.38
664.917	-0.62
664.949	17.38
664.981	17.38
665.013	14.38
665.045	2.38
665.076	8.38
665.108	2.38
665.14	-11.62
665.172	4.38
665.204	-12.62
665.236	-15.62
665.268	-1.62
665.3	-9.62
665.331	-12.62
665.363	-7.62
665.395	-10.62
665.427	-4.62
665.459	0.38
665.491	4.38
665.523	13.38
665.555	-2.62
665.586	2.38
665.618	-18.62
665.65	-14.62
665.682	9.38
665.714	13.38
665.746	-2.62
665.777	-0.62
665.809	-5.62
665.841	-5.62
665.873	-7.62
665.905	1.38
665.937	11.38
665.968	14.38
666	-0.62
666.032	12.38
666.064	2.38
666.096	10.38
666.127	4.38
666.159	10.38
666.191	9.38
666.223	-2.62
666.255	-0.62
666.286	3.38
666.318	-24.62
666.35	-4.62
666.382	28.38
666.413	-5.62
666.445	-6.62
666.477	-17.62
666.509	2.38
666.54	-6.62
666.572	-21.62
666.604	5.38
666.636	-17.62
666.667	14.38
666.699	7.38
666.731	1.38
666.763	-18.62
666.794	-0.62
666.826	3.38
666.858	-16.62
666.89	15.38
666.921	10.38
666.953	10.38
666.985	12.38
667.017	7.38
667.048	0.38
667.08	0.38
667.112	7.38
667.143	-7.62
667.175	-3.62
667.207	-4.62
667.238	14.38
667.27	-5.62
667.302	-3.62
667.334	-20.62
667.365	7.38
667.397	4.38
667.429	0.38
667.46	-2.62
667.492	-3.62
667.524	1.38
667.555	-9.62
667.587	8.38
667.619	0.38
667.65	0.38
667.682	-0.62
667.714	-13.62
667.745	5.38
667.777	3.38
667.808	0.38
667.84	12.38
667.872	0.38
667.903	6.38
667.935	-6.62
667.967	-9.62
667.998	6.38
668.03	-8.62
668.061	13.38
668.093	-2.62
668.125	12.38
668.156	-11.62
668.188	-17.62
668.22	-2.62
668.251	-8.62
668.283	13.38
668.314	30.38
668.346	15.38
668.377	17.38
668.409	11.38
668.441	21.38
668.472	9.38
668.504	5.38
668.535	0.38
668.567	10.38
668.599	-2.62
668.63	-1.62
668.662	4.38
668.693	18.38
668.725	1.38
668.756	9.38
668.788	4.38
668.819	-10.62
668.851	4.38
668.882	-7.62
668.914	13.38
668.946	-4.62
668.977	-17.62
669.009	-3.62
669.04	0.38
669.072	13.38
669.103	13.38
669.135	2.38
669.166	2.38
669.198	-14.62
669.229	-3.62
669.261	2.38
669.292	-7.62
669.324	-0.62
669.355	-0.62
669.387	-12.62
669.418	-6.62
669.45	-7.62
669.481	1.38
669.513	-1.62
669.544	-7.62
669.576	1.38
669.607	5.38
669.639	13.38
669.67	0.38
669.701	16.38
669.733	-8.62
669.764	-3.62
669.796	-8.62
669.827	-8.62
669.859	6.38
669.89	3.38
669.922	6.38
669.953	-4.62
669.985	-2.62
670.016	-6.62
670.047	3.38
670.079	-0.62
670.11	-8.62
670.142	-8.62
670.173	-0.62
670.204	10.38
670.236	2.38
670.267	-13.62
670.299	-3.62
670.33	-9.62
670.362	-11.62
670.393	-13.62
670.424	-5.62
670.456	-20.62
670.487	-7.62
670.518	4.38
670.55	2.38
670.581	-0.62
670.613	7.38
670.644	-0.62
670.675	-4.62
670.707	-0.62
670.738	-1.62
670.769	-10.62
670.801	-8.62
670.832	16.38
670.864	-13.62
670.895	-1.62
670.926	-11.62
670.958	7.38
670.989	3.38
671.02	-0.62
671.052	-4.62
671.083	12.38
671.114	-14.62
671.146	-4.62
671.177	6.38
671.208	-11.62
671.24	-10.62
671.271	-19.62
671.302	2.38
671.333	-15.62
671.365	-5.62
671.396	-3.62
671.427	2.38
671.459	3.38
671.49	0.38
671.521	2.38
671.553	-1.62
671.584	-2.62
671.615	-16.62
671.646	11.38
671.678	4.38
671.709	2.38
671.74	6.38
671.771	-13.62
671.803	-6.62
671.834	13.38
671.865	8.38
671.896	2.38
671.928	-4.62
671.959	-21.62
671.99	-3.62
672.021	-13.62
672.053	-13.62
672.084	3.38
672.115	-0.62
672.146	-9.62
672.178	-17.62
672.209	-17.62
672.24	-12.62
672.271	11.38
672.303	3.38
672.334	-7.62
672.365	-7.62
672.396	-5.62
672.427	0.38
672.459	13.38
672.49	14.38
672.521	0.38
672.552	15.38
672.583	0.38
672.615	8.38
672.646	7.38
672.677	3.38
672.708	-6.62
672.739	1.38
672.77	7.38
672.802	-4.62
672.833	-5.62
672.864	2.38
672.895	-1.62
672.926	-6.62
672.957	-7.62
672.989	-14.62
673.02	-5.62
673.051	-17.62
673.082	9.38
673.113	4.38
673.144	-2.62
673.175	0.38
673.206	-15.62
673.238	-7.62
673.269	-0.62
673.3	8.38
673.331	5.38
673.362	14.38
673.393	-5.62
673.424	11.38
673.455	13.38
673.487	-10.62
673.518	11.38
673.549	-5.62
673.58	-7.62
673.611	0.38
673.642	-12.62
673.673	-19.62
673.704	-13.62
673.735	-0.62
673.766	-24.62
673.797	-14.62
673.828	-13.62
673.86	-17.62
673.891	2.38
673.922	-23.62
673.953	-19.62
673.984	10.38
674.015	11.38
674.046	-0.62
674.077	-4.62
674.108	-21.62
674.139	-11.62
674.17	-5.62
674.201	-4.62
674.232	-3.62
674.263	-5.62
674.294	-16.62
674.325	-8.62
674.356	5.38
674.387	3.38
674.418	-12.62
674.449	-7.62
674.48	-9.62
674.511	-0.62
674.542	12.38
674.573	-9.62
674.604	-12.62
674.635	-3.62
674.666	-0.62
674.697	-0.62
674.728	2.38
674.759	2.38
674.79	-1.62
674.821	-8.62
674.852	-0.62
674.883	-13.62
674.914	-4.62
674.945	-2.62
674.976	-3.62
675.007	-7.62
675.038	1.38
675.069	-9.62
675.1	-6.62
675.131	0.38
675.162	-6.62
675.193	-12.62
675.224	-12.62
675.254	1.38
675.285	16.38
675.316	0.38
675.347	-13.62
675.378	-22.62
675.409	-8.62
675.44	-0.62
675.471	-13.62
675.502	-8.62
675.533	-15.62
675.564	-3.62
675.595	-1.62
675.625	16.38
675.656	9.38
675.687	-7.62
675.718	-14.62
675.749	-16.62
675.78	-11.62
675.811	-1.62
675.842	12.38
675.873	15.38
675.903	-0.62
675.934	0.38
675.965	-3.62
675.996	-1.62
676.027	9.38
676.058	-9.62
676.089	-14.62
676.119	-5.62
676.15	-1.62
676.181	-10.62
676.212	13.38
676.243	1.38
676.274	7.38
676.304	22.38
676.335	-11.62
676.366	3.38
676.397	5.38
676.428	4.38
676.459	-0.62
676.489	14.38
676.52	5.38
676.551	2.38
676.582	-12.62
676.613	-7.62
676.643	-6.62
676.674	10.38
676.705	-11.62
676.736	-1.62
676.767	18.38
676.797	2.38
676.828	-3.62
676.859	-19.62
676.89	-13.62
676.92	3.38
676.951	-5.62
676.982	-11.62
677.013	-12.62
677.044	13.38
677.074	18.38
677.105	-0.62
677.136	7.38
677.167	0.38
677.197	5.38
677.228	-2.62
677.259	-12.62
677.289	0.38
677.32	-14.62
677.351	-5.62
677.382	-16.62
677.412	-8.62
677.443	-9.62
677.474	5.38
677.505	-10.62
677.535	-6.62
677.566	1.38
677.597	-24.62
677.627	1.38
677.658	-3.62
677.689	-10.62
677.72	0.38
677.75	-5.62
677.781	-4.62
677.812	-9.62
677.842	11.38
677.873	-4.62
677.904	5.38
677.934	-4.62
677.965	-6.62
677.996	-10.62
678.026	-12.62
678.057	2.38
678.088	-17.62
678.118	-3.62
678.149	-13.62
678.18	-27.62
678.21	-8.62
678.241	14.38
678.272	4.38
678.302	-6.62
678.333	14.38
678.363	-0.62
678.394	-5.62
678.425	-8.62
678.455	-0.62
678.486	3.38
678.517	2.38
678.547	-0.62
678.578	-15.62
678.608	-12.62
678.639	6.38
678.67	4.38
678.7	-9.62
678.731	-0.62
678.761	-2.62
678.792	5.38
678.823	-1.62
678.853	3.38
678.884	-11.62
678.914	7.38
678.945	7.38
678.975	-29.62
679.006	0.38
679.037	-9.62
679.067	18.38
679.098	5.38
679.128	-17.62
679.159	-4.62
679.189	1.38
679.22	-21.62
679.25	-16.62
679.281	-0.62
679.312	-0.62
679.342	3.38
679.373	29.38
679.403	0.38
679.434	-4.62
679.464	-8.62
679.495	7.38
679.525	-1.62
679.556	-18.62
679.586	-2.62
679.617	-11.62
679.647	2.38
679.678	-3.62
679.708	2.38
679.739	14.38
679.769	-1.62
679.8	-1.62
679.83	-2.62
679.861	17.38
679.891	-1.62
679.922	-17.62
679.952	4.38
679.983	12.38
680.013	-5.62
680.044	-2.62
680.074	11.38
680.105	18.38
680.135	-4.62
680.165	-9.62
680.196	3.38
680.226	-5.62
680.257	7.38
680.287	-2.62
680.318	-2.62
680.348	-13.62
680.379	5.38
680.409	0.38
680.439	-3.62
680.47	3.38
680.5	8.38
680.531	-0.62
680.561	10.38
680.592	-4.62
680.622	8.38
680.652	-0.62
680.683	6.38
680.713	-5.62
680.744	1.38
680.774	-13.62
680.804	25.38
680.835	5.38
680.865	-9.62
680.896	3.38
680.926	21.38
680.956	-2.62
680.987	-2.62
681.017	0.38
681.047	-5.62
681.078	-9.62
681.108	-2.62
681.139	-3.62
681.169	-2.62
681.199	-10.62
681.23	2.38
681.26	-1.62
681.29	-7.62
681.321	3.38
681.351	13.38
681.381	-18.62
681.412	-13.62
681.442	0.38
681.472	23.38
681.503	13.38
681.533	-9.62
681.563	-20.62
681.594	-5.62
681.624	8.38
681.654	-5.62
681.685	-4.62
681.715	-9.62
681.745	10.38
681.775	-8.62
681.806	-16.62
681.836	-11.62
681.866	-15.62
681.897	14.38
681.927	-9.62
681.957	-20.62
681.987	10.38
682.018	-9.62
682.048	2.38
682.078	-0.62
682.109	3.38
682.139	24.38
682.169	-0.62
682.199	-8.62
682.23	-15.62
682.26	1.38
682.29	-3.62
682.32	-0.62
682.351	-9.62
682.381	-9.62
682.411	-1.62
682.441	-3.62
682.472	-12.62
682.502	4.38
682.532	-2.62
682.562	0.38
682.592	5.38
682.623	-4.62
682.653	-5.62
682.683	12.38
682.713	-7.62
682.743	0.38
682.774	0.38
682.804	-3.62
682.834	9.38
682.864	5.38
682.894	-8.62
682.925	-5.62
682.955	-2.62
682.985	-9.62
683.015	-1.62
683.045	-5.62
683.076	-16.62
683.106	2.38
683.136	-1.62
683.166	-6.62
683.196	-0.62
683.226	-25.62
683.257	-11.62
683.287	-1.62
683.317	0.38
683.347	-0.62
683.377	-2.62
683.407	-9.62
683.437	-4.62
683.468	3.38
683.498	11.38
683.528	3.38
683.558	-14.62
683.588	-14.62
683.618	-18.62
683.648	-9.62
683.678	-7.62
683.708	3.38
683.739	-9.62
683.769	-12.62
683.799	-2.62
683.829	-3.62
683.859	12.38
683.889	12.38
683.919	-0.62
683.949	-3.62
683.979	0.38
684.009	7.38
684.039	7.38
684.07	-18.62
684.1	4.38
684.13	0.38
684.16	-3.62
684.19	12.38
684.22	-6.62
684.25	-0.62
684.28	-10.62
684.31	2.38
684.34	-1.62
684.37	-6.62
684.4	-4.62
684.43	3.38
684.46	-3.62
684.49	-15.62
684.52	3.38
684.55	19.38
684.58	3.38
684.61	14.38
684.64	7.38
684.67	8.38
684.7	-0.62
684.73	3.38
684.76	-0.62
684.79	13.38
684.82	-13.62
684.85	-20.62
684.88	7.38
684.91	5.38
684.94	7.38
684.97	-11.62
685	-22.62
685.03	-22.62
685.06	-14.62
685.09	-4.62
685.12	12.38
685.15	-16.62
685.18	0.38
685.21	10.38
685.24	27.38
685.27	19.38
685.3	-8.62
685.33	8.38
685.36	-14.62
685.39	-6.62
685.42	-20.62
685.45	-12.62
685.48	-10.62
685.51	-16.62
685.54	19.38
685.569	-3.62
685.599	5.38
685.629	-2.62
685.659	-5.62
685.689	-13.62
685.719	-14.62
685.749	-2.62
685.779	9.38
685.809	-3.62
685.839	2.38
685.869	-0.62
685.898	3.38
685.928	15.38
685.958	-6.62
685.988	9.38
686.018	3.38
686.048	-1.62
686.078	3.38
686.108	20.38
686.137	-3.62
686.167	12.38
686.197	-6.62
686.227	-1.62
686.257	33.38
686.287	18.38
686.317	5.38
686.346	4.38
686.376	-6.62
686.406	-6.62
686.436	4.38
686.466	0.38
686.496	1.38
686.525	7.38
686.555	-0.62
686.585	15.38
686.615	17.38
686.645	1.38
686.675	-4.62
686.704	-5.62
686.734	6.38
686.764	-9.62
686.794	-2.62
686.824	-13.62
686.853	-2.62
686.883	3.38
686.913	11.38
686.943	-5.62
686.973	-10.62
687.002	-23.62
687.032	-1.62
687.062	-10.62
687.092	12.38
687.121	-5.62
687.151	-1.62
687.181	-0.62
687.211	1.38
687.24	-9.62
687.27	4.38
687.3	-18.62
687.33	-3.62
687.359	-14.62
687.389	4.38
687.419	-2.62
687.449	-6.62
687.478	9.38
687.508	9.38
687.538	3.38
687.568	0.38
687.597	-2.62
687.627	6.38
687.657	8.38
687.686	14.38
687.716	12.38
687.746	-14.62
687.776	-10.62
687.805	2.38
687.835	-0.62
687.865	18.38
687.894	-4.62
687.924	-21.62
687.954	-4.62
687.983	6.38
688.013	25.38
688.043	17.38
688.072	-8.62
688.102	19.38
688.132	5.38
688.161	3.38
688.191	-1.62
688.221	27.38
688.25	-0.62
688.28	3.38
688.31	-11.62
688.339	-4.62
688.369	-9.62
688.399	-8.62
688.428	-19.62
688.458	-7.62
688.488	-16.62
688.517	-2.62
688.547	-11.62
688.576	19.38
688.606	-1.62
688.636	-3.62
688.665	4.38
688.695	-6.62
688.725	22.38
688.754	16.38
688.784	-0.62
688.813	-4.62
688.843	6.38
688.873	-3.62
688.902	-10.62
688.932	-9.62
688.961	-8.62
688.991	-1.62
689.02	5.38
689.05	-6.62
689.08	-8.62
689.109	-2.62
689.139	-6.62
689.168	-3.62
689.198	1.38
689.227	-11.62
689.257	2.38
689.287	6.38
689.316	-3.62
689.346	-4.62
689.375	-16.62
689.405	-2.62
689.434	-15.62
689.464	9.38
689.493	-19.62
689.523	-10.62
689.552	-15.62
689.582	6.38
689.611	-3.62
689.641	13.38
689.67	2.38
689.7	7.38
689.73	-0.62
689.759	-6.62
689.789	19.38
689.818	-8.62
689.848	-11.62
689.877	13.38
689.906	-14.62
689.936	-7.62
689.965	-8.62
689.995	1.38
690.024	4.38
690.054	-4.62
690.083	1.38
690.113	-5.62
690.142	-3.62
690.172	0.38
690.201	8.38
690.231	1.38
690.26	8.38
690.29	-16.62
690.319	8.38
690.348	-1.62
690.378	-3.62
690.407	-2.62
690.437	-11.62
690.466	-8.62
690.496	-5.62
690.525	2.38
690.555	-2.62
690.584	0.38
690.613	-8.62
690.643	-0.62
690.672	-4.62
690.702	3.38
690.731	8.38
690.76	19.38
690.79	49.38
690.819	48.38
690.849	39.38
690.878	28.38
690.907	35.38
690.937	34.38
690.966	10.38
690.996	-2.62
691.025	-1.62
691.054	-6.62
691.084	-3.62
691.113	-3.62
691.142	4.38
691.172	11.38
691.201	18.38
691.23	-4.62
691.26	15.38
691.289	-3.62
691.319	-16.62
691.348	-5.62
691.377	7.38
691.407	5.38
691.436	1.38
691.465	-13.62
691.495	-10.62
691.524	-18.62
691.553	-16.62
691.583	-15.62
691.612	6.38
691.641	-6.62
691.67	2.38
691.7	17.38
691.729	-21.62
691.758	2.38
691.788	-5.62
691.817	-13.62
691.846	4.38
691.876	-0.62
691.905	-8.62
691.934	4.38
691.963	0.38
691.993	-6.62
692.022	-11.62
692.051	-3.62
692.081	-6.62
692.11	3.38
692.139	1.38
692.168	11.38
692.198	7.38
692.227	14.38
692.256	12.38
692.285	11.38
692.315	0.38
692.344	0.38
692.373	8.38
692.402	-16.62
692.432	2.38
692.461	-8.62
692.49	-5.62
692.519	-9.62
692.548	6.38
692.578	11.38
692.607	-9.62
692.636	-6.62
692.665	-6.62
692.694	-17.62
692.724	-5.62
692.753	-13.62
692.782	4.38
692.811	0.38
692.84	-8.62
692.87	-1.62
692.899	-5.62
692.928	-2.62
692.957	2.38
692.986	3.38
693.016	4.38
693.045	-0.62
693.074	-13.62
693.103	6.38
693.132	-5.62
693.161	13.38
693.191	-5.62
693.22	-15.62
693.249	5.38
693.278	-6.62
693.307	-1.62
693.336	-13.62
693.365	-3.62
693.395	-17.62
693.424	-1.62
693.453	10.38
693.482	-7.62
693.511	1.38
693.54	6.38
693.569	14.38
693.598	-14.62
693.628	-5.62
693.657	6.38
693.686	15.38
693.715	0.38
693.744	1.38
693.773	12.38
693.802	18.38
693.831	8.38
693.86	3.38
693.889	0.38
693.919	18.38
693.948	-0.62
693.977	3.38
694.006	-5.62
694.035	-2.62
694.064	-1.62
694.093	-2.62
694.122	-14.62
694.151	-5.62
694.18	18.38
694.209	29.38
694.238	8.38
694.267	14.38
694.296	1.38
694.325	12.38
694.354	7.38
694.383	4.38
694.412	-0.62
694.441	-4.62
694.471	-7.62
694.5	-10.62
694.529	2.38
694.558	10.38
694.587	32.38
694.616	-2.62
694.645	1.38
694.674	11.38
694.703	12.38
694.732	2.38
694.761	11.38
694.79	0.38
694.819	-15.62
694.848	7.38
694.877	19.38
694.906	23.38
694.935	-2.62
694.963	9.38
694.992	-3.62
695.021	-6.62
695.05	15.38
695.079	1.38
695.108	-2.62
695.137	29.38
695.166	2.38
695.195	1.38
695.224	-2.62
695.253	-2.62
695.282	-0.62
695.311	5.38
695.34	-6.62
695.369	6.38
695.398	2.38
695.427	28.38
695.456	0.38
695.485	2.38
695.513	11.38
695.542	5.38
695.571	2.38
695.6	5.38
695.629	3.38
695.658	12.38
695.687	4.38
695.716	-0.62
695.745	12.38
695.774	-4.62
695.802	-6.62
695.831	-6.62
695.86	-1.62
695.889	5.38
695.918	10.38
695.947	-1.62
695.976	8.38
696.005	6.38
696.033	15.38
696.062	6.38
696.091	-0.62
696.12	13.38
696.149	22.38
696.178	3.38
696.207	7.38
696.235	-4.62
696.264	8.38
696.293	7.38
696.322	8.38
696.351	-1.62
696.38	-1.62
696.408	-12.62
696.437	-8.62
696.466	8.38
696.495	11.38
696.524	17.38
696.553	-0.62
696.581	27.38
696.61	1.38
696.639	-7.62
696.668	3.38
696.697	0.38
696.725	11.38
696.754	-14.62
696.783	-9.62
696.812	-16.62
696.84	0.38
696.869	-2.62
696.898	1.38
696.927	-4.62
696.956	1.38
696.984	-16.62
697.013	14.38
697.042	2.38
697.071	0.38
697.099	7.38
697.128	-1.62
697.157	1.38
697.186	-16.62
697.214	-3.62
697.243	-4.62
697.272	-15.62
697.301	12.38
697.329	4.38
697.358	-7.62
697.387	12.38
697.415	2.38
697.444	6.38
697.473	-20.62
697.502	6.38
697.53	-0.62
697.559	4.38
697.588	-4.62
697.616	-9.62
697.645	6.38
697.674	9.38
697.703	-8.62
697.731	20.38
697.76	10.38
697.789	-4.62
697.817	8.38
697.846	16.38
697.875	-5.62
697.903	-1.62
697.932	1.38
697.961	-4.62
697.989	8.38
698.018	12.38
698.047	18.38
698.075	8.38
698.104	7.38
698.133	-8.62
698.161	0.38
698.19	6.38
698.218	-5.62
698.247	-11.62
698.276	-10.62
698.304	4.38
698.333	0.38
698.362	9.38
698.39	2.38
698.419	-4.62
698.447	-3.62
698.476	-5.62
698.505	3.38
698.533	-1.62
698.562	6.38
698.591	-7.62
698.619	-24.62
698.648	8.38
698.676	-6.62
698.705	-17.62
698.733	-5.62
698.762	9.38
698.791	-10.62
698.819	13.38
698.848	10.38
698.876	7.38
698.905	14.38
698.933	1.38
698.962	-10.62
698.991	16.38
699.019	17.38
699.048	2.38
699.076	2.38
699.105	-14.62
699.133	-6.62
699.162	-10.62
699.19	12.38
699.219	5.38
699.248	-2.62
699.276	9.38
699.305	-10.62
699.333	-5.62
699.362	-2.62
699.39	3.38
699.419	-2.62
699.447	-1.62
699.476	2.38
699.504	-15.62
699.533	14.38
699.561	-4.62
699.59	0.38
699.618	-6.62
699.647	10.38
699.675	0.38
699.704	6.38
699.732	-9.62
699.761	2.38
699.789	-7.62
699.818	12.38
699.846	-2.62
699.874	-20.62
699.903	-0.62
699.931	-8.62
699.96	9.38
699.988	-3.62
700.017	-14.62
700.045	2.38
700.074	0.38
700.102	-10.62
700.13	-0.62
700.159	18.38
700.187	19.38
700.216	-14.62
700.244	-17.62
700.273	-16.62
700.301	-1.62
700.329	-8.62
700.358	-3.62
700.386	-2.62
700.415	1.38
700.443	-6.62
700.472	-5.62
700.5	5.38
700.528	0.38
700.557	5.38
700.585	2.38
700.614	-14.62
700.642	16.38
700.67	12.38
700.699	6.38
700.727	-13.62
700.755	2.38
700.784	6.38
700.812	10.38
700.841	14.38
700.869	-4.62
700.897	-22.62
700.926	-10.62
700.954	12.38
700.982	10.38
701.011	-2.62
701.039	-8.62
701.067	-2.62
701.096	19.38
701.124	-10.62
701.152	8.38
701.181	4.38
701.209	-3.62
701.237	16.38
701.266	-12.62
701.294	-12.62
701.322	1.38
701.351	-1.62
701.379	-5.62
701.407	-1.62
701.435	5.38
701.464	1.38
701.492	16.38
701.52	-15.62
701.549	-5.62
701.577	-6.62
701.605	-12.62
701.634	5.38
701.662	9.38
701.69	-9.62
701.718	6.38
701.747	13.38
701.775	14.38
701.803	-14.62
701.831	-0.62
701.86	-10.62
701.888	-2.62
701.916	3.38
701.944	-1.62
701.973	-5.62
702.001	-19.62
702.029	-18.62
702.057	-23.62
702.086	-12.62
702.114	-17.62
702.142	2.38
702.17	-8.62
702.199	5.38
702.227	-11.62
702.255	-5.62
702.283	4.38
702.311	3.38
702.34	-17.62
702.368	-19.62
702.396	-1.62
702.424	8.38
702.452	-12.62
702.481	-2.62
702.509	-12.62
702.537	4.38
702.565	-2.62
702.593	-30.62
702.621	4.38
702.65	-3.62
702.678	8.38
702.706	8.38
702.734	-17.62
702.762	0.38
702.79	5.38
702.819	-6.62
702.847	-18.62
702.875	-11.62
702.903	1.38
702.931	-27.62
702.959	-1.62
702.988	-5.62
703.016	-15.62
703.044	-2.62
703.072	7.38
703.1	-12.62
703.128	-4.62
703.156	19.38
703.184	-3.62
703.212	7.38
703.241	13.38
703.269	7.38
703.297	-1.62
703.325	0.38
703.353	-14.62
703.381	-25.62
703.409	6.38
703.437	-6.62
703.465	-9.62
703.493	-10.62
703.522	-8.62
703.55	11.38
703.578	-0.62
703.606	-14.62
703.634	-21.62
703.662	-9.62
703.69	-2.62
703.718	1.38
703.746	2.38
703.774	-6.62
703.802	3.38
703.83	-1.62
703.858	-1.62
703.886	-8.62
703.914	-11.62
703.942	6.38
703.97	-8.62
703.998	-10.62
704.027	11.38
704.055	9.38
704.083	-4.62
704.111	-4.62
704.139	-5.62
704.167	-5.62
704.195	-9.62
704.223	-11.62
704.251	-14.62
704.279	2.38
704.307	2.38
704.335	-6.62
704.363	4.38
704.391	-5.62
704.419	-14.62
704.447	-11.62
704.475	-16.62
704.503	-24.62
704.531	2.38
704.558	-1.62
704.586	4.38
704.614	-3.62
704.642	11.38
704.67	-24.62
704.698	-8.62
704.726	0.38
704.754	-3.62
704.782	1.38
704.81	-4.62
704.838	10.38
704.866	6.38
704.894	-19.62
704.922	-19.62
704.95	8.38
704.978	11.38
705.006	-3.62
705.034	4.38
705.061	-3.62
705.089	0.38
705.117	-20.62
705.145	-2.62
705.173	-8.62
705.201	10.38
705.229	0.38
705.257	-2.62
705.285	8.38
705.313	3.38
705.34	4.38
705.368	-16.62
705.396	3.38
705.424	-4.62
705.452	-10.62
705.48	-3.62
705.508	-25.62
705.536	-7.62
705.563	-1.62
705.591	3.38
705.619	7.38
705.647	-12.62
705.675	-10.62
705.703	-5.62
705.731	1.38
705.758	-1.62
705.786	10.38
705.814	11.38
705.842	3.38
705.87	-1.62
705.898	9.38
705.925	-2.62
705.953	-0.62
705.981	-1.62
706.009	-2.62
706.037	1.38
706.065	-8.62
706.092	-14.62
706.12	-3.62
706.148	-12.62
706.176	0.38
706.204	-11.62
706.231	-6.62
706.259	-6.62
706.287	0.38
706.315	-0.62
706.342	-2.62
706.37	21.38
706.398	11.38
706.426	-4.62
706.454	2.38
706.481	-1.62
706.509	0.38
706.537	-24.62
706.565	-5.62
706.592	2.38
706.62	-9.62
706.648	-6.62
706.676	-10.62
706.703	11.38
706.731	-5.62
706.759	2.38
706.787	11.38
706.814	3.38
706.842	-9.62
706.87	-9.62
706.897	-3.62
706.925	-13.62
706.953	-0.62
706.981	-3.62
707.008	9.38
707.036	-1.62
707.064	2.38
707.091	-9.62
707.119	8.38
707.147	3.38
707.174	4.38
707.202	9.38
707.23	-6.62
707.258	18.38
707.285	-2.62
707.313	-7.62
707.341	-10.62
707.368	0.38
707.396	7.38
707.424	18.38
707.451	-2.62
707.479	-13.62
707.507	3.38
707.534	-16.62
707.562	-17.62
707.59	-19.62
707.617	-24.62
707.645	-14.62
707.672	-5.62
707.7	-1.62
707.728	2.38
707.755	-10.62
707.783	-15.62
707.811	8.38
707.838	-4.62
707.866	5.38
707.893	4.38
707.921	-6.62
707.949	-3.62
707.976	-5.62
708.004	2.38
708.031	-5.62
708.059	-13.62
708.087	-9.62
708.114	-12.62
708.142	-9.62
708.169	-10.62
708.197	-4.62
708.225	5.38
708.252	-1.62
708.28	6.38
708.307	13.38
708.335	7.38
708.362	2.38
708.39	-9.62
708.418	-2.62
708.445	-1.62
708.473	-14.62
708.5	-16.62
708.528	11.38
708.555	-0.62
708.583	3.38
708.61	-8.62
708.638	4.38
708.665	6.38
708.693	-4.62
708.72	-13.62
708.748	-14.62
708.776	8.38
708.803	10.38
708.831	10.38
708.858	14.38
708.886	-0.62
708.913	23.38
708.941	-5.62
708.968	11.38
708.996	-9.62
709.023	22.38
709.051	-21.62
709.078	-10.62
709.105	-1.62
709.133	-4.62
709.16	-5.62
709.188	7.38
709.215	-10.62
709.243	2.38
709.27	-3.62
709.298	-13.62
709.325	-8.62
709.353	-8.62
709.38	3.38
709.408	4.38
709.435	13.38
709.462	-6.62
709.49	-13.62
709.517	-12.62
709.545	-14.62
709.572	-12.62
709.6	-9.62
709.627	10.38
709.655	-6.62
709.682	-0.62
709.709	-0.62
709.737	-15.62
709.764	-19.62
709.792	-5.62
709.819	-5.62
709.846	-0.62
709.874	-3.62
709.901	9.38
709.929	22.38
709.956	2.38
709.983	-11.62
710.011	-8.62
710.038	-3.62
710.066	10.38
710.093	3.38
710.12	5.38
710.148	-1.62
710.175	-10.62
710.202	-13.62
710.23	-6.62
710.257	-14.62
710.284	10.38
710.312	1.38
710.339	-6.62
710.366	-0.62
710.394	-18.62
710.421	2.38
710.448	3.38
710.476	-16.62
710.503	3.38
710.53	16.38
710.558	14.38
710.585	3.38
710.612	-7.62
710.64	-5.62
710.667	1.38
710.694	6.38
710.722	0.38
710.749	-18.62
710.776	-12.62
710.804	8.38
710.831	1.38
710.858	5.38
710.885	-1.62
710.913	-2.62
710.94	17.38
710.967	1.38
710.995	-11.62
711.022	-5.62
711.049	-7.62
711.076	-6.62
711.104	-14.62
711.131	-24.62
711.158	-1.62
711.185	11.38
711.213	-13.62
711.24	-2.62
711.267	-21.62
711.294	-22.62
711.322	12.38
711.349	-8.62
711.376	6.38
711.403	5.38
711.431	-7.62
711.458	-11.62
711.485	0.38
711.512	3.38
711.54	-5.62
711.567	-8.62
711.594	-18.62
711.621	-1.62
711.648	-11.62
711.676	5.38
711.703	-6.62
711.73	-22.62
711.757	5.38
711.784	4.38
711.812	-12.62
711.839	-2.62
711.866	-3.62
711.893	-14.62
711.92	-12.62
711.947	-8.62
711.975	2.38
712.002	1.38
712.029	18.38
712.056	15.38
712.083	14.38
712.11	-15.62
712.138	-3.62
712.165	6.38
712.192	19.38
712.219	-2.62
712.246	-10.62
712.273	-7.62
712.3	-18.62
712.328	-3.62
712.355	-18.62
712.382	-1.62
712.409	8.38
712.436	-9.62
712.463	2.38
712.49	5.38
712.517	3.38
712.544	-5.62
712.572	9.38
712.599	-6.62
712.626	3.38
712.653	-12.62
712.68	-1.62
712.707	11.38
712.734	-9.62
712.761	-8.62
712.788	2.38
712.815	-1.62
712.842	3.38
712.87	-7.62
712.897	-22.62
712.924	-18.62
712.951	12.38
712.978	8.38
713.005	-0.62
713.032	2.38
713.059	-0.62
713.086	-2.62
713.113	-2.62
713.14	-11.62
713.167	12.38
713.194	-8.62
713.221	-16.62
713.248	-5.62
713.275	-0.62
713.302	-3.62
713.329	19.38
713.356	-3.62
713.383	-3.62
713.41	10.38
713.437	-12.62
713.464	8.38
713.491	15.38
713.518	-2.62
713.545	-9.62
713.572	-7.62
713.599	11.38
713.626	9.38
713.653	6.38
713.68	-20.62
713.707	-2.62
713.734	1.38
713.761	-10.62
713.788	2.38
713.815	10.38
713.842	2.38
713.869	1.38
713.896	-1.62
713.923	-6.62
713.95	-4.62
713.977	-3.62
714.004	-8.62
714.031	-16.62
714.058	-11.62
714.085	6.38
714.112	7.38
714.139	-1.62
714.165	5.38
714.192	-8.62
714.219	-2.62
714.246	2.38
714.273	-0.62
714.3	-2.62
714.327	10.38
714.354	8.38
714.381	-6.62
714.408	-9.62
714.435	-7.62
714.461	-6.62
714.488	-2.62
714.515	-2.62
714.542	-13.62
714.569	-22.62
714.596	-12.62
714.623	-2.62
714.65	-10.62
714.677	-5.62
714.703	-9.62
714.73	14.38
714.757	-3.62
714.784	-1.62
714.811	-1.62
714.838	-3.62
714.865	-7.62
714.891	2.38
714.918	-5.62
714.945	-13.62
714.972	-10.62
714.999	10.38
715.026	-2.62
715.052	4.38
715.079	-6.62
715.106	-0.62
715.133	-2.62
715.16	-14.62
715.187	2.38
715.213	10.38
715.24	-20.62
715.267	-6.62
715.294	1.38
715.321	-8.62
715.347	-7.62
715.374	-16.62
715.401	-12.62
715.428	-20.62
715.455	7.38
715.481	-10.62
715.508	23.38
715.535	2.38
715.562	18.38
715.588	5.38
715.615	-2.62
715.642	-8.62
715.669	1.38
715.695	-11.62
715.722	-7.62
715.749	3.38
715.776	14.38
715.802	-10.62
715.829	-0.62
715.856	-17.62
715.883	1.38
715.909	0.38
715.936	-2.62
715.963	-3.62
715.99	1.38
716.016	-8.62
716.043	-1.62
716.07	-5.62
716.096	-10.62
716.123	-4.62
716.15	11.38
716.177	9.38
716.203	12.38
716.23	9.38
716.257	-5.62
716.283	8.38
716.31	2.38
716.337	1.38
716.363	-13.62
716.39	-9.62
716.417	0.38
716.443	-1.62
716.47	11.38
716.497	10.38
716.523	18.38
716.55	9.38
716.577	1.38
716.603	3.38
716.63	4.38
716.657	15.38
716.683	-5.62
716.71	-6.62
716.737	-6.62
716.763	6.38
716.79	-10.62
716.817	-0.62
716.843	0.38
716.87	4.38
716.897	-12.62
716.923	2.38
716.95	-3.62
716.976	-14.62
717.003	-1.62
717.03	2.38
717.056	-7.62
717.083	1.38
717.109	10.38
717.136	21.38
717.163	-10.62
717.189	-5.62
717.216	-1.62
717.242	9.38
717.269	-3.62
717.296	4.38
717.322	3.38
717.349	1.38
717.375	10.38
717.402	2.38
717.428	-7.62
717.455	-2.62
717.481	7.38
717.508	18.38
717.535	13.38
717.561	-11.62
717.588	-12.62
717.614	-11.62
717.641	5.38
717.667	-9.62
717.694	7.38
717.72	-5.62
717.747	-3.62
717.773	-13.62
717.8	-9.62
717.826	13.38
717.853	13.38
717.88	6.38
717.906	-4.62
717.933	-1.62
717.959	9.38
717.986	-0.62
718.012	-8.62
718.039	15.38
718.065	25.38
718.092	6.38
718.118	-2.62
718.144	-1.62
718.171	10.38
718.197	7.38
718.224	-10.62
718.25	1.38
718.277	-3.62
718.303	-3.62
718.33	2.38
718.356	-9.62
718.383	-27.62
718.409	-0.62
718.436	1.38
718.462	-3.62
718.489	-9.62
718.515	5.38
718.541	25.38
718.568	-5.62
718.594	2.38
718.621	1.38
718.647	-0.62
718.674	0.38
718.7	9.38
718.726	-7.62
718.753	-10.62
718.779	-9.62
718.806	-2.62
718.832	-9.62
718.858	-4.62
718.885	-5.62
718.911	-0.62
718.938	-3.62
718.964	-17.62
718.99	-5.62
719.017	-5.62
719.043	-8.62
719.07	7.38
719.096	0.38
719.122	-0.62
719.149	1.38
719.175	6.38
719.201	-6.62
719.228	-2.62
719.254	4.38
719.281	-5.62
719.307	-2.62
719.333	-12.62
719.36	13.38
719.386	-7.62
719.412	-12.62
719.439	-12.62
719.465	-1.62
719.491	-0.62
719.518	1.38
719.544	16.38
719.57	2.38
719.597	-0.62
719.623	-15.62
719.649	-12.62
719.675	-6.62
719.702	3.38
719.728	10.38
719.754	-8.62
719.781	-16.62
719.807	-6.62
719.833	-0.62
719.86	-8.62
719.886	-14.62
719.912	-5.62
719.938	-15.62
719.965	-1.62
719.991	9.38
720.017	2.38
720.044	-2.62
720.07	5.38
720.096	5.38
720.122	11.38
720.149	17.38
720.175	22.38
720.201	2.38
720.227	0.38
720.254	-6.62
720.28	-12.62
720.306	-18.62
720.332	-3.62
720.359	2.38
720.385	4.38
720.411	-15.62
720.437	-0.62
720.463	-14.62
720.49	-1.62
720.516	-11.62
720.542	-5.62
720.568	-2.62
720.595	1.38
720.621	2.38
720.647	11.38
720.673	10.38
720.699	0.38
720.725	-5.62
720.752	-8.62
720.778	7.38
720.804	5.38
720.83	-1.62
720.856	1.38
720.883	2.38
720.909	-6.62
720.935	3.38
720.961	3.38
720.987	-8.62
721.013	3.38
721.04	-10.62
721.066	-2.62
721.092	-27.62
721.118	11.38
721.144	-8.62
721.17	-11.62
721.196	-14.62
721.223	-6.62
721.249	-11.62
721.275	1.38
721.301	-1.62
721.327	7.38
721.353	3.38
721.379	7.38
721.405	6.38
721.432	1.38
721.458	-7.62
721.484	3.38
721.51	-9.62
721.536	1.38
721.562	-10.62
721.588	-1.62
721.614	-6.62
721.64	-17.62
721.666	-5.62
721.693	-5.62
721.719	-13.62
721.745	-13.62
721.771	-11.62
721.797	12.38
721.823	-5.62
721.849	-7.62
721.875	14.38
721.901	5.38
721.927	-2.62
721.953	6.38
721.979	11.38
722.005	11.38
722.031	2.38
722.057	8.38
722.083	6.38
722.109	11.38
722.135	7.38
722.161	20.38
722.187	-6.62
722.214	-1.62
722.24	-4.62
722.266	-1.62
722.292	8.38
722.318	14.38
722.344	-2.62
722.37	-4.62
722.396	7.38
722.422	-1.62
722.448	-5.62
722.474	-10.62
722.5	26.38
722.526	8.38
722.552	5.38
722.578	10.38
722.603	7.38
722.629	-15.62
722.655	-5.62
722.681	12.38
722.707	5.38
722.733	-14.62
722.759	-20.62
722.785	-20.62
722.811	8.38
722.837	-15.62
722.863	-11.62
722.889	10.38
722.915	-21.62
722.941	1.38
722.967	10.38
722.993	-3.62
723.019	-6.62
723.045	-4.62
723.071	-5.62
723.097	1.38
723.122	-5.62
723.148	-8.62
723.174	3.38
723.2	4.38
723.226	-8.62
723.252	-13.62
723.278	-9.62
723.304	-4.62
723.33	1.38
723.356	-18.62
723.381	-20.62
723.407	-17.62
723.433	0.38
723.459	-12.62
723.485	-5.62
723.511	2.38
723.537	-5.62
723.563	-17.62
723.588	5.38
723.614	1.38
723.64	-12.62
723.666	9.38
723.692	10.38
723.718	5.38
723.744	5.38
723.769	10.38
723.795	-7.62
723.821	-1.62
723.847	-7.62
723.873	11.38
723.899	5.38
723.924	-15.62
723.95	-2.62
723.976	-12.62
724.002	-12.62
724.028	7.38
724.053	-17.62
724.079	-8.62
724.105	8.38
724.131	-9.62
724.157	3.38
724.182	-10.62
724.208	-21.62
724.234	-2.62
724.26	-1.62
724.286	17.38
724.311	-4.62
724.337	-7.62
724.363	-6.62
724.389	-7.62
724.415	0.38
724.44	14.38
724.466	-9.62
724.492	5.38
724.518	1.38
724.543	-14.62
724.569	7.38
724.595	15.38
724.621	-10.62
724.646	-8.62
724.672	3.38
724.698	7.38
724.723	-8.62
724.749	-1.62
724.775	-3.62
724.801	-2.62
724.826	-3.62
724.852	3.38
724.878	-4.62
724.904	-8.62
724.929	9.38
724.955	-5.62
724.981	1.38
725.006	-4.62
725.032	0.38
725.058	11.38
725.083	-6.62
725.109	-10.62
725.135	-8.62
725.161	2.38
725.186	-1.62
725.212	2.38
725.238	8.38
725.263	2.38
725.289	-9.62
725.315	-0.62
725.34	-4.62
725.366	-2.62
725.392	-20.62
725.417	-15.62
725.443	1.38
725.468	-1.62
725.494	5.38
725.52	-2.62
725.545	-10.62
725.571	-14.62
725.597	-11.62
725.622	-1.62
725.648	2.38
725.674	12.38
725.699	9.38
725.725	-17.62
725.75	20.38
725.776	-15.62
725.802	0.38
725.827	-1.62
725.853	-6.62
725.878	1.38
725.904	10.38
725.93	1.38
725.955	-14.62
725.981	-14.62
726.006	-3.62
726.032	6.38
726.057	-11.62
726.083	-12.62
726.109	-1.62
726.134	-5.62
726.16	10.38
726.185	-8.62
726.211	-12.62
726.236	5.38
726.262	9.38
726.288	2.38
726.313	11.38
726.339	6.38
726.364	-7.62
726.39	-0.62
726.415	4.38
726.441	-0.62
726.466	-2.62
726.492	-9.62
726.517	3.38
726.543	-6.62
726.568	-8.62
726.594	0.38
726.619	1.38
726.645	-12.62
726.67	4.38
726.696	13.38
726.721	-9.62
726.747	-11.62
726.772	0.38
726.798	-8.62
726.823	2.38
726.849	9.38
726.874	7.38
726.9	18.38
726.925	13.38
726.951	1.38
726.976	17.38
727.002	12.38
727.027	-6.62
727.053	13.38
727.078	-6.62
727.104	-10.62
727.129	-24.62
727.155	-11.62
727.18	4.38
727.205	-7.62
727.231	-10.62
727.256	-11.62
727.282	10.38
727.307	9.38
727.333	7.38
727.358	-6.62
727.383	-1.62
727.409	-9.62
727.434	7.38
727.46	4.38
727.485	5.38
727.511	-5.62
727.536	-23.62
727.561	-6.62
727.587	-11.62
727.612	-6.62
727.637	-4.62
727.663	-11.62
727.688	0.38
727.714	-6.62
727.739	-15.62
727.764	-9.62
727.79	-4.62
727.815	0.38
727.841	2.38
727.866	-8.62
727.891	3.38
727.917	-13.62
727.942	-19.62
727.967	-12.62
727.993	-11.62
728.018	0.38
728.043	-15.62
728.069	2.38
728.094	8.38
728.119	-2.62
728.145	5.38
728.17	13.38
728.195	-0.62
728.221	18.38
728.246	-12.62
728.271	-20.62
728.297	-3.62
728.322	-5.62
728.347	-3.62
728.373	7.38
728.398	6.38
728.423	4.38
728.448	-1.62
728.474	-10.62
728.499	-0.62
728.524	-2.62
728.55	-12.62
728.575	-3.62
728.6	-4.62
728.625	-9.62
728.651	4.38
728.676	-8.62
728.701	-0.62
728.727	9.38
728.752	-1.62
728.777	-9.62
728.802	2.38
728.828	4.38
728.853	-1.62
728.878	1.38
728.903	-1.62
728.929	-6.62
728.954	-10.62
728.979	6.38
729.004	-5.62
729.03	-15.62
729.055	3.38
729.08	-5.62
729.105	-14.62
729.13	-0.62
729.156	-0.62
729.181	-12.62
729.206	-14.62
729.231	-8.62
729.256	11.38
729.282	-4.62
729.307	-18.62
729.332	-16.62
729.357	-13.62
729.382	-3.62
729.408	1.38
729.433	7.38
729.458	4.38
729.483	9.38
729.508	7.38
729.533	-15.62
729.559	9.38
729.584	-11.62
729.609	7.38
729.634	12.38
729.659	1.38
729.684	-13.62
729.71	13.38
729.735	4.38
729.76	6.38
729.785	-6.62
729.81	16.38
729.835	-3.62
729.86	-2.62
729.886	22.38
729.911	-0.62
729.936	-5.62
729.961	0.38
729.986	13.38
730.011	63.38
730.036	194.38
730.061	966.38
730.086	2634.38
730.112	3375.38
730.137	2778.38
730.162	2078.38
730.187	1641.38
730.212	1262.38
730.237	803.38
730.262	445.38
730.287	252.38
730.312	150.38
730.337	76.38
730.362	43.38
730.387	42.38
730.413	14.38
730.438	11.38
730.463	22.38
730.488	-6.62
730.513	6.38
730.538	6.38
730.563	13.38
730.588	13.38
730.613	19.38
730.638	9.38
730.663	25.38
730.688	27.38
730.713	8.38
730.738	3.38
730.763	4.38
730.788	-21.62
730.813	12.38
730.838	-1.62
730.863	-3.62
730.888	-0.62
730.913	-7.62
730.938	-21.62
730.963	17.38
730.988	114.38
731.013	402.38
731.038	611.38
731.063	586.38
731.088	443.38
731.113	325.38
731.138	267.38
731.163	178.38
731.188	109.38
731.213	53.38
731.238	29.38
731.263	5.38
731.288	-1.62
731.313	5.38
731.338	-6.62
731.363	-6.62
731.388	7.38
731.413	1.38
731.438	10.38
731.463	4.38
731.487	11.38
731.512	-9.62
731.537	-10.62
731.562	-12.62
731.587	-0.62
731.612	1.38
731.637	-4.62
731.662	-7.62
731.687	-13.62
731.712	-17.62
731.737	-10.62
731.762	-4.62
731.786	1.38
731.811	14.38
731.836	5.38
731.861	-2.62
731.886	5.38
731.911	-6.62
731.936	12.38
731.961	-6.62
731.986	-11.62
732.01	-6.62
732.035	0.38
732.06	17.38
732.085	2.38
732.11	7.38
732.135	2.38
732.16	-18.62
732.184	-15.62
732.209	-5.62
732.234	20.38
732.259	-5.62
732.284	11.38
732.309	9.38
732.334	12.38
732.358	-17.62
732.383	-9.62
732.408	-9.62
732.433	15.38
732.458	5.38
732.482	7.38
732.507	-14.62
732.532	2.38
732.557	3.38
732.582	13.38
732.607	26.38
732.631	53.38
732.656	77.38
732.681	146.38
732.706	325.38
732.73	415.38
732.755	368.38
732.78	284.38
732.805	223.38
732.83	163.38
732.854	123.38
732.879	81.38
732.904	22.38
732.929	12.38
732.953	26.38
732.978	-0.62
733.003	-8.62
733.028	-1.62
733.052	2.38
733.077	4.38
733.102	4.38
733.127	-13.62
733.151	-10.62
733.176	-1.62
733.201	-8.62
733.226	-11.62
733.25	-4.62
733.275	-9.62
733.3	-0.62
733.324	7.38
733.349	11.38
733.374	-0.62
733.399	-5.62
733.423	5.38
733.448	4.38
733.473	-12.62
733.497	1.38
733.522	-8.62
733.547	9.38
733.571	20.38
733.596	2.38
733.621	13.38
733.646	-12.62
733.67	-1.62
733.695	-10.62
733.72	4.38
733.744	1.38
733.769	3.38
733.794	3.38
733.818	18.38
733.843	1.38
733.867	-6.62
733.892	-14.62
733.917	3.38
733.941	15.38
733.966	-4.62
733.991	-8.62
734.015	8.38
734.04	-3.62
734.065	8.38
734.089	6.38
734.114	-6.62
734.138	4.38
734.163	-8.62
734.188	-11.62
734.212	20.38
734.237	-4.62
734.261	5.38
734.286	6.38
734.311	-8.62
734.335	-9.62
734.36	-1.62
734.384	15.38
734.409	11.38
734.434	-9.62
734.458	-0.62
734.483	-8.62
734.507	-4.62
734.532	-5.62
734.556	-4.62
734.581	-1.62
734.606	-12.62
734.63	-19.62
734.655	-5.62
734.679	-10.62
734.704	0.38
734.728	-3.62
734.753	-4.62
734.777	1.38
734.802	-5.62
734.826	-7.62
734.851	5.38
734.876	19.38
734.9	10.38
734.925	9.38
734.949	-2.62
734.974	3.38
734.998	14.38
735.023	-5.62
735.047	-15.62
735.072	10.38
735.096	-8.62
735.121	5.38
735.145	-5.62
735.17	1.38
735.194	7.38
735.219	-4.62
735.243	-8.62
735.268	12.38
735.292	-2.62
735.317	-1.62
735.341	-4.62
735.365	-16.62
735.39	1.38
735.414	-3.62
735.439	10.38
735.463	-3.62
735.488	-11.62
735.512	15.38
735.537	-0.62
735.561	-6.62
735.586	-1.62
735.61	3.38
735.634	-16.62
735.659	2.38
735.683	8.38
735.708	-9.62
735.732	-8.62
735.757	-1.62
735.781	6.38
735.805	7.38
735.83	-21.62
735.854	-16.62
735.879	3.38
735.903	5.38
735.927	4.38
735.952	10.38
735.976	-9.62
736.001	-8.62
736.025	-2.62
736.049	1.38
736.074	-12.62
736.098	-13.62
736.123	-6.62
736.147	22.38
736.171	3.38
736.196	5.38
736.22	-14.62
736.244	-0.62
736.269	-0.62
736.293	4.38
736.317	3.38
736.342	-7.62
736.366	11.38
736.39	7.38
736.415	-1.62
736.439	13.38
736.463	22.38
736.488	1.38
736.512	8.38
736.536	6.38
736.561	28.38
736.585	-10.62
736.609	8.38
736.634	-17.62
736.658	-1.62
736.682	-11.62
736.707	-22.62
736.731	-10.62
736.755	18.38
736.78	21.38
736.804	13.38
736.828	1.38
736.852	-0.62
736.877	-8.62
736.901	-6.62
736.925	2.38
736.949	14.38
736.974	-1.62
736.998	-21.62
737.022	-2.62
737.047	-1.62
737.071	11.38
737.095	-5.62
737.119	26.38
737.144	4.38
737.168	-5.62
737.192	-9.62
737.216	0.38
737.241	-13.62
737.265	-0.62
737.289	-9.62
737.313	-9.62
737.337	3.38
737.362	-12.62
737.386	-12.62
737.41	-11.62
737.434	17.38
737.459	-9.62
737.483	8.38
737.507	16.38
737.531	30.38
737.555	-0.62
737.58	-0.62
737.604	4.38
737.628	-7.62
737.652	-4.62
737.676	3.38
737.701	6.38
737.725	-4.62
737.749	1.38
737.773	-10.62
737.797	-16.62
737.821	10.38
737.846	-9.62
737.87	0.38
737.894	-9.62
737.918	3.38
737.942	-6.62
737.966	8.38
737.99	-3.62
738.015	-4.62
738.039	2.38
738.063	-5.62
738.087	0.38
738.111	-0.62
738.135	13.38
738.159	-6.62
738.184	-4.62
738.208	-1.62
738.232	1.38
738.256	11.38
738.28	-2.62
738.304	10.38
738.328	-0.62
738.352	-6.62
738.376	-4.62
738.4	7.38
738.425	-4.62
738.449	-10.62
738.473	5.38
738.497	-6.62
738.521	3.38
738.545	15.38
738.569	14.38
738.593	19.38
738.617	-10.62
738.641	-8.62
738.665	3.38
738.689	6.38
738.713	7.38
738.737	-0.62
738.762	9.38
738.786	-2.62
738.81	-23.62
738.834	9.38
738.858	-9.62
738.882	7.38
738.906	-5.62
738.93	-2.62
738.954	7.38
738.978	1.38
739.002	-6.62
739.026	6.38
739.05	3.38
739.074	-12.62
739.098	15.38
739.122	10.38
739.146	5.38
739.17	18.38
739.194	6.38
739.218	-8.62
739.242	-8.62
739.266	6.38
739.29	7.38
739.314	-2.62
739.338	-3.62
739.362	-3.62
739.386	-10.62
739.41	-13.62
739.434	-4.62
739.458	-1.62
739.482	-5.62
739.506	8.38
739.53	2.38
739.554	12.38
739.577	-12.62
739.601	-11.62
739.625	-8.62
739.649	-4.62
739.673	-15.62
739.697	-7.62
739.721	-6.62
739.745	-8.62
739.769	-1.62
739.793	4.38
739.817	23.38
739.841	1.38
739.865	5.38
739.889	-27.62
739.912	4.38
739.936	-16.62
739.96	-4.62
739.984	13.38
740.008	-12.62
740.032	0.38
740.056	-9.62
740.08	-8.62
740.104	-12.62
740.127	1.38
740.151	6.38
740.175	16.38
740.199	-11.62
740.223	40.38
740.247	0.38
740.271	-3.62
740.295	2.38
740.318	-13.62
740.342	-6.62
740.366	2.38
740.39	-2.62
740.414	-1.62
740.438	6.38
740.461	16.38
740.485	12.38
740.509	-0.62
740.533	-2.62
740.557	-19.62
740.581	-12.62
740.604	-9.62
740.628	-6.62
740.652	12.38
740.676	-20.62
740.7	-6.62
740.723	-0.62
740.747	0.38
740.771	-9.62
740.795	-6.62
740.819	-1.62
740.842	-2.62
740.866	1.38
740.89	-7.62
740.914	-13.62
740.938	-12.62
740.961	10.38
740.985	6.38
741.009	-4.62
741.033	2.38
741.056	9.38
741.08	3.38
741.104	-5.62
741.128	0.38
741.151	16.38
741.175	2.38
741.199	10.38
741.223	8.38
741.246	-8.62
741.27	4.38
741.294	21.38
741.318	-4.62
741.341	-0.62
741.365	-6.62
741.389	-3.62
741.413	-8.62
741.436	6.38
741.46	-2.62
741.484	-6.62
741.507	14.38
741.531	14.38
741.555	1.38
741.579	-4.62
741.602	5.38
741.626	7.38
741.65	-10.62
741.673	1.38
741.697	6.38
741.721	6.38
741.744	-9.62
741.768	-5.62
741.792	1.38
741.815	-19.62
741.839	-5.62
741.863	13.38
741.886	25.38
741.91	0.38
741.934	-1.62
741.957	-18.62
741.981	10.38
742.005	-12.62
742.028	-10.62
742.052	-5.62
742.075	-4.62
742.099	7.38
742.123	0.38
742.146	-2.62
742.17	-1.62
742.194	-14.62
742.217	0.38
742.241	-16.62
742.264	-0.62
742.288	14.38
742.312	15.38
742.335	-5.62
742.359	-5.62
742.382	1.38
742.406	16.38
742.43	-21.62
742.453	6.38
742.477	-13.62
742.5	-1.62
742.524	11.38
742.548	-15.62
742.571	-4.62
742.595	-2.62
742.618	-9.62
742.642	-12.62
742.665	-0.62
742.689	-14.62
742.712	1.38
742.736	-6.62
742.76	-4.62
742.783	-4.62
742.807	7.38
742.83	8.38
742.854	-7.62
742.877	1.38
742.901	1.38
742.924	-5.62
742.948	2.38
742.971	14.38
742.995	4.38
743.018	-9.62
743.042	-13.62
743.065	-10.62
743.089	-10.62
743.112	-2.62
743.136	-12.62
743.159	-2.62
743.183	-6.62
743.206	0.38
743.23	-2.62
743.253	-9.62
743.277	4.38
743.3	-5.62
743.324	-18.62
743.347	-10.62
743.371	11.38
743.394	17.38
743.418	10.38
743.441	19.38
743.465	1.38
743.488	1.38
743.512	-11.62
743.535	-4.62
743.558	4.38
743.582	-11.62
743.605	5.38
743.629	7.38
743.652	7.38
743.676	4.38
743.699	7.38
743.723	8.38
743.746	0.38
743.769	-9.62
743.793	2.38
743.816	-15.62
743.84	-13.62
743.863	-13.62
743.886	3.38
743.91	25.38
743.933	-11.62
743.957	-6.62
743.98	-17.62
744.003	3.38
744.027	-3.62
744.05	-7.62
744.074	-11.62
744.097	-15.62
744.12	-5.62
744.144	-4.62
744.167	1.38
744.19	-13.62
744.214	-5.62
744.237	-17.62
744.26	1.38
744.284	-2.62
744.307	-11.62
744.331	-0.62
744.354	-6.62
744.377	2.38
744.401	-6.62
744.424	-12.62
744.447	-6.62
744.471	-12.62
