Data from HighRes_mercury_15_13_11_07_2024_HR4C61891__37__15-14-26-886.txt Node

Date: Thu Nov 07 15:14:26 EST 2024
User: crc00042
Spectrometer: HR4C6189
Trigger mode: 4
Integration Time (sec): 1.000000E-1
Scans to average: 1
Electric dark correction enabled: true
Nonlinearity correction enabled: false
Boxcar width: 0
XAxis mode: Wavelengths
Number of Pixels in Spectrum: 3648
>>>>>Begin Spectral Data<<<<<
639.567	-49.08
639.602	-49.08
639.636	-49.08
639.67	-32.08
639.704	-18.08
639.738	-6.08
639.773	20.92
639.807	-24.08
639.841	-6.08
639.875	18.92
639.909	-4.08
639.943	-16.08
639.978	-12.08
640.012	3.92
640.046	10.92
640.08	8.92
640.114	3.92
640.148	0.92
640.182	-8.08
640.217	-7.08
640.251	13.92
640.285	4.92
640.319	-10.08
640.353	-6.08
640.387	2.92
640.421	-8.08
640.455	-4.08
640.49	-22.08
640.524	-7.08
640.558	12.92
640.592	10.92
640.626	0.92
640.66	8.92
640.694	-22.08
640.728	-7.08
640.762	-6.08
640.796	-2.08
640.83	24.92
640.865	1.92
640.899	3.92
640.933	-0.08
640.967	-3.08
641.001	-2.08
641.035	-7.08
641.069	-4.08
641.103	-11.08
641.137	-8.08
641.171	-21.08
641.205	-2.08
641.239	1.92
641.273	2.92
641.307	21.92
641.341	-0.08
641.375	-6.08
641.409	-4.08
641.443	5.92
641.477	13.92
641.511	-3.08
641.545	15.92
641.579	-23.08
641.614	5.92
641.648	9.92
641.682	-11.08
641.716	7.92
641.75	14.92
641.784	3.92
641.818	-0.08
641.852	-2.08
641.886	-13.08
641.919	11.92
641.953	-9.08
641.987	-19.08
642.021	7.92
642.055	14.92
642.089	4.92
642.123	2.92
642.157	-2.08
642.191	-5.08
642.225	9.92
642.259	-5.08
642.293	4.92
642.327	-1.08
642.361	0.92
642.395	15.92
642.429	12.92
642.463	10.92
642.497	19.92
642.531	-9.08
642.565	-8.08
642.599	-3.08
642.633	-15.08
642.666	4.92
642.7	0.92
642.734	-3.08
642.768	-2.08
642.802	14.92
642.836	10.92
642.87	5.92
642.904	3.92
642.938	-9.08
642.972	-10.08
643.005	0.92
643.039	13.92
643.073	-15.08
643.107	-2.08
643.141	-24.08
643.175	7.92
643.209	-12.08
643.243	-5.08
643.276	-4.08
643.31	-13.08
643.344	-5.08
643.378	-2.08
643.412	15.92
643.446	4.92
643.48	-11.08
643.513	-7.08
643.547	2.92
643.581	-0.08
643.615	1.92
643.649	8.92
643.683	-4.08
643.716	-16.08
643.75	5.92
643.784	-15.08
643.818	4.92
643.852	-7.08
643.886	5.92
643.919	16.92
643.953	-1.08
643.987	-3.08
644.021	7.92
644.055	4.92
644.088	1.92
644.122	-7.08
644.156	0.92
644.19	-11.08
644.224	-3.08
644.257	15.92
644.291	21.92
644.325	-3.08
644.359	-6.08
644.392	10.92
644.426	25.92
644.46	-9.08
644.494	-7.08
644.527	-12.08
644.561	0.92
644.595	-0.08
644.629	6.92
644.662	-8.08
644.696	21.92
644.73	-13.08
644.764	-0.08
644.797	-6.08
644.831	5.92
644.865	15.92
644.899	-12.08
644.932	13.92
644.966	-8.08
645	0.92
645.033	16.92
645.067	-1.08
645.101	5.92
645.135	-6.08
645.168	-13.08
645.202	-16.08
645.236	1.92
645.269	13.92
645.303	-1.08
645.337	-15.08
645.37	-7.08
645.404	-5.08
645.438	-8.08
645.471	6.92
645.505	10.92
645.539	6.92
645.572	-12.08
645.606	-2.08
645.64	-4.08
645.673	-11.08
645.707	21.92
645.741	5.92
645.774	7.92
645.808	8.92
645.842	-22.08
645.875	-10.08
645.909	0.92
645.943	-3.08
645.976	7.92
646.01	8.92
646.043	13.92
646.077	10.92
646.111	19.92
646.144	-6.08
646.178	9.92
646.212	-23.08
646.245	1.92
646.279	13.92
646.312	4.92
646.346	3.92
646.38	-6.08
646.413	4.92
646.447	18.92
646.48	-4.08
646.514	21.92
646.547	7.92
646.581	-1.08
646.615	2.92
646.648	-7.08
646.682	-3.08
646.715	-19.08
646.749	-3.08
646.782	16.92
646.816	-3.08
646.85	18.92
646.883	0.92
646.917	8.92
646.95	12.92
646.984	1.92
647.017	-4.08
647.051	-2.08
647.084	-8.08
647.118	-2.08
647.151	8.92
647.185	11.92
647.218	-0.08
647.252	2.92
647.285	-9.08
647.319	-18.08
647.353	8.92
647.386	11.92
647.42	0.92
647.453	6.92
647.487	-3.08
647.52	5.92
647.553	-1.08
647.587	2.92
647.62	8.92
647.654	8.92
647.687	10.92
647.721	16.92
647.754	19.92
647.788	-9.08
647.821	-21.08
647.855	0.92
647.888	3.92
647.922	10.92
647.955	-3.08
647.989	-4.08
648.022	1.92
648.055	9.92
648.089	3.92
648.122	6.92
648.156	-9.08
648.189	-25.08
648.223	3.92
648.256	-5.08
648.29	-3.08
648.323	-2.08
648.356	18.92
648.39	-4.08
648.423	0.92
648.457	-3.08
648.49	9.92
648.523	-5.08
648.557	-1.08
648.59	-13.08
648.624	-1.08
648.657	1.92
648.69	25.92
648.724	6.92
648.757	6.92
648.791	7.92
648.824	3.92
648.857	26.92
648.891	4.92
648.924	1.92
648.957	27.92
648.991	-15.08
649.024	14.92
649.057	-0.08
649.091	-8.08
649.124	10.92
649.158	6.92
649.191	21.92
649.224	9.92
649.258	12.92
649.291	10.92
649.324	1.92
649.358	2.92
649.391	0.92
649.424	3.92
649.458	2.92
649.491	12.92
649.524	9.92
649.557	1.92
649.591	-21.08
649.624	9.92
649.657	-13.08
649.691	-13.08
649.724	4.92
649.757	8.92
649.791	3.92
649.824	22.92
649.857	1.92
649.89	1.92
649.924	-4.08
649.957	-3.08
649.99	-22.08
650.023	-9.08
650.057	-1.08
650.09	-6.08
650.123	-12.08
650.157	25.92
650.19	8.92
650.223	14.92
650.256	-8.08
650.29	-1.08
650.323	5.92
650.356	1.92
650.389	-3.08
650.423	-11.08
650.456	9.92
650.489	12.92
650.522	-4.08
650.555	6.92
650.589	5.92
650.622	2.92
650.655	7.92
650.688	-6.08
650.721	-4.08
650.755	-5.08
650.788	10.92
650.821	11.92
650.854	-1.08
650.887	8.92
650.921	4.92
650.954	-13.08
650.987	-5.08
651.02	-2.08
651.053	-6.08
651.087	-22.08
651.12	27.92
651.153	15.92
651.186	-18.08
651.219	-16.08
651.252	2.92
651.286	22.92
651.319	1.92
651.352	1.92
651.385	3.92
651.418	-5.08
651.451	19.92
651.484	-2.08
651.518	9.92
651.551	21.92
651.584	-12.08
651.617	20.92
651.65	-7.08
651.683	13.92
651.716	-0.08
651.749	2.92
651.783	7.92
651.816	2.92
651.849	5.92
651.882	-1.08
651.915	3.92
651.948	5.92
651.981	0.92
652.014	-0.08
652.047	-10.08
652.08	-14.08
652.114	-18.08
652.147	-13.08
652.18	4.92
652.213	24.92
652.246	-0.08
652.279	-0.08
652.312	-0.08
652.345	3.92
652.378	4.92
652.411	9.92
652.444	-1.08
652.477	3.92
652.51	-3.08
652.543	-19.08
652.576	-2.08
652.609	-11.08
652.642	5.92
652.675	18.92
652.709	2.92
652.742	4.92
652.775	9.92
652.808	19.92
652.841	0.92
652.874	9.92
652.907	4.92
652.94	-8.08
652.973	-23.08
653.006	-10.08
653.039	-2.08
653.072	12.92
653.105	-2.08
653.138	-8.08
653.171	3.92
653.204	8.92
653.237	-0.08
653.27	12.92
653.303	12.92
653.336	4.92
653.368	-0.08
653.401	6.92
653.434	9.92
653.467	4.92
653.5	-9.08
653.533	-10.08
653.566	1.92
653.599	4.92
653.632	-6.08
653.665	-1.08
653.698	-16.08
653.731	-9.08
653.764	-6.08
653.797	-0.08
653.83	8.92
653.863	1.92
653.896	2.92
653.929	-1.08
653.961	1.92
653.994	-0.08
654.027	-20.08
654.06	8.92
654.093	-4.08
654.126	-10.08
654.159	0.92
654.192	4.92
654.225	-8.08
654.258	-4.08
654.29	0.92
654.323	-0.08
654.356	-11.08
654.389	6.92
654.422	-0.08
654.455	-2.08
654.488	-11.08
654.521	-9.08
654.553	-0.08
654.586	8.92
654.619	-2.08
654.652	-13.08
654.685	0.92
654.718	7.92
654.751	1.92
654.783	-3.08
654.816	0.92
654.849	6.92
654.882	-21.08
654.915	-19.08
654.948	-11.08
654.98	-4.08
655.013	2.92
655.046	-9.08
655.079	-3.08
655.112	-12.08
655.144	-17.08
655.177	8.92
655.21	12.92
655.243	18.92
655.276	7.92
655.308	-12.08
655.341	-10.08
655.374	2.92
655.407	-2.08
655.44	-8.08
655.472	-3.08
655.505	12.92
655.538	-3.08
655.571	0.92
655.603	-9.08
655.636	-13.08
655.669	13.92
655.702	-5.08
655.734	-1.08
655.767	-8.08
655.8	-1.08
655.833	-9.08
655.865	5.92
655.898	-2.08
655.931	-5.08
655.964	-9.08
655.996	5.92
656.029	20.92
656.062	-7.08
656.095	12.92
656.127	-9.08
656.16	2.92
656.193	-1.08
656.225	6.92
656.258	16.92
656.291	6.92
656.324	12.92
656.356	-11.08
656.389	-3.08
656.422	13.92
656.454	3.92
656.487	2.92
656.52	2.92
656.552	-7.08
656.585	-8.08
656.618	10.92
656.65	-3.08
656.683	4.92
656.716	-2.08
656.748	-3.08
656.781	-12.08
656.814	-6.08
656.846	-1.08
656.879	-10.08
656.912	-0.08
656.944	-11.08
656.977	-2.08
657.01	-6.08
657.042	-8.08
657.075	4.92
657.108	-15.08
657.14	13.92
657.173	12.92
657.205	20.92
657.238	7.92
657.271	-2.08
657.303	-2.08
657.336	0.92
657.369	5.92
657.401	-10.08
657.434	-3.08
657.466	5.92
657.499	-8.08
657.532	9.92
657.564	-0.08
657.597	2.92
657.629	-2.08
657.662	-6.08
657.694	-3.08
657.727	-8.08
657.76	12.92
657.792	0.92
657.825	-5.08
657.857	-7.08
657.89	0.92
657.922	15.92
657.955	-16.08
657.987	14.92
658.02	6.92
658.053	-9.08
658.085	9.92
658.118	2.92
658.15	7.92
658.183	23.92
658.215	-7.08
658.248	-1.08
658.28	-5.08
658.313	24.92
658.345	7.92
658.378	4.92
658.41	-9.08
658.443	5.92
658.475	-2.08
658.508	8.92
658.54	-10.08
658.573	-7.08
658.605	0.92
658.638	2.92
658.67	3.92
658.703	2.92
658.735	-6.08
658.768	-2.08
658.8	-1.08
658.833	16.92
658.865	1.92
658.898	1.92
658.93	3.92
658.963	3.92
658.995	-9.08
659.028	3.92
659.06	1.92
659.092	-5.08
659.125	-5.08
659.157	2.92
659.19	-22.08
659.222	-17.08
659.255	2.92
659.287	0.92
659.32	9.92
659.352	-5.08
659.384	7.92
659.417	-8.08
659.449	4.92
659.482	21.92
659.514	-11.08
659.546	-4.08
659.579	-15.08
659.611	11.92
659.644	-5.08
659.676	-3.08
659.708	-19.08
659.741	-7.08
659.773	1.92
659.806	8.92
659.838	-1.08
659.87	-0.08
659.903	-16.08
659.935	11.92
659.967	5.92
660	5.92
660.032	-18.08
660.065	0.92
660.097	10.92
660.129	-3.08
660.162	-16.08
660.194	18.92
660.226	0.92
660.259	6.92
660.291	-16.08
660.323	-1.08
660.356	-10.08
660.388	6.92
660.42	-2.08
660.453	-5.08
660.485	21.92
660.517	24.92
660.55	16.92
660.582	-6.08
660.614	17.92
660.647	-6.08
660.679	-11.08
660.711	-2.08
660.743	-23.08
660.776	-15.08
660.808	-6.08
660.84	-26.08
660.873	1.92
660.905	2.92
660.937	-0.08
660.969	5.92
661.002	14.92
661.034	16.92
661.066	-5.08
661.099	8.92
661.131	11.92
661.163	-9.08
661.195	0.92
661.228	13.92
661.26	-12.08
661.292	-11.08
661.324	-0.08
661.357	0.92
661.389	12.92
661.421	20.92
661.453	1.92
661.485	0.92
661.518	-3.08
661.55	-8.08
661.582	-18.08
661.614	11.92
661.647	-3.08
661.679	-13.08
661.711	4.92
661.743	-14.08
661.775	-4.08
661.808	8.92
661.84	0.92
661.872	-5.08
661.904	-4.08
661.936	-1.08
661.969	-10.08
662.001	-5.08
662.033	-1.08
662.065	-6.08
662.097	4.92
662.129	0.92
662.162	-3.08
662.194	10.92
662.226	6.92
662.258	15.92
662.29	2.92
662.322	-16.08
662.355	-15.08
662.387	6.92
662.419	9.92
662.451	-8.08
662.483	16.92
662.515	-1.08
662.547	6.92
662.58	-17.08
662.612	-3.08
662.644	-14.08
662.676	-12.08
662.708	8.92
662.74	-5.08
662.772	8.92
662.804	6.92
662.836	2.92
662.869	-0.08
662.901	10.92
662.933	-9.08
662.965	13.92
662.997	14.92
663.029	3.92
663.061	-0.08
663.093	2.92
663.125	-5.08
663.157	-0.08
663.189	5.92
663.221	8.92
663.254	-4.08
663.286	9.92
663.318	-1.08
663.35	-14.08
663.382	-11.08
663.414	8.92
663.446	4.92
663.478	-12.08
663.51	14.92
663.542	2.92
663.574	12.92
663.606	10.92
663.638	-6.08
663.67	-9.08
663.702	-2.08
663.734	-14.08
663.766	-4.08
663.798	-1.08
663.83	6.92
663.862	7.92
663.894	3.92
663.926	0.92
663.958	3.92
663.99	4.92
664.022	4.92
664.054	0.92
664.086	-3.08
664.118	-12.08
664.15	-6.08
664.182	-0.08
664.214	-2.08
664.246	1.92
664.278	11.92
664.31	8.92
664.342	-8.08
664.374	-17.08
664.406	0.92
664.438	-3.08
664.47	1.92
664.502	1.92
664.534	-3.08
664.566	-7.08
664.598	2.92
664.63	9.92
664.662	2.92
664.693	-6.08
664.725	7.92
664.757	-2.08
664.789	-7.08
664.821	-2.08
664.853	-6.08
664.885	-9.08
664.917	-16.08
664.949	16.92
664.981	20.92
665.013	-4.08
665.045	-4.08
665.076	3.92
665.108	2.92
665.14	-4.08
665.172	-5.08
665.204	-9.08
665.236	-10.08
665.268	8.92
665.3	4.92
665.331	-20.08
665.363	-12.08
665.395	-19.08
665.427	13.92
665.459	3.92
665.491	3.92
665.523	-4.08
665.555	-14.08
665.586	-17.08
665.618	6.92
665.65	-16.08
665.682	23.92
665.714	-3.08
665.746	1.92
665.777	4.92
665.809	-3.08
665.841	7.92
665.873	-15.08
665.905	-6.08
665.937	1.92
665.968	12.92
666	20.92
666.032	0.92
666.064	12.92
666.096	-7.08
666.127	2.92
666.159	5.92
666.191	3.92
666.223	2.92
666.255	8.92
666.286	16.92
666.318	-1.08
666.35	23.92
666.382	-0.08
666.413	-15.08
666.445	-11.08
666.477	-6.08
666.509	3.92
666.54	-5.08
666.572	-5.08
666.604	-3.08
666.636	-5.08
666.667	20.92
666.699	1.92
666.731	3.92
666.763	7.92
666.794	-10.08
666.826	2.92
666.858	-17.08
666.89	12.92
666.921	14.92
666.953	5.92
666.985	17.92
667.017	30.92
667.048	-11.08
667.08	-22.08
667.112	-2.08
667.143	-3.08
667.175	12.92
667.207	8.92
667.238	21.92
667.27	8.92
667.302	-0.08
667.334	5.92
667.365	25.92
667.397	-0.08
667.429	-1.08
667.46	8.92
667.492	7.92
667.524	6.92
667.555	0.92
667.587	-9.08
667.619	-13.08
667.65	0.92
667.682	8.92
667.714	5.92
667.745	-9.08
667.777	-9.08
667.808	2.92
667.84	7.92
667.872	6.92
667.903	28.92
667.935	-5.08
667.967	-6.08
667.998	-5.08
668.03	6.92
668.061	8.92
668.093	-11.08
668.125	14.92
668.156	7.92
668.188	-0.08
668.22	-8.08
668.251	13.92
668.283	7.92
668.314	18.92
668.346	-7.08
668.377	9.92
668.409	15.92
668.441	20.92
668.472	10.92
668.504	10.92
668.535	3.92
668.567	10.92
668.599	15.92
668.63	-7.08
668.662	1.92
668.693	10.92
668.725	9.92
668.756	11.92
668.788	-3.08
668.819	-6.08
668.851	-10.08
668.882	-0.08
668.914	4.92
668.946	-2.08
668.977	-14.08
669.009	-21.08
669.04	-3.08
669.072	4.92
669.103	0.92
669.135	-0.08
669.166	0.92
669.198	-9.08
669.229	-3.08
669.261	-5.08
669.292	-15.08
669.324	4.92
669.355	13.92
669.387	-7.08
669.418	3.92
669.45	-8.08
669.481	-8.08
669.513	15.92
669.544	0.92
669.576	3.92
669.607	17.92
669.639	14.92
669.67	-8.08
669.701	20.92
669.733	-7.08
669.764	-4.08
669.796	-11.08
669.827	6.92
669.859	-3.08
669.89	5.92
669.922	5.92
669.953	11.92
669.985	5.92
670.016	9.92
670.047	-3.08
670.079	-4.08
670.11	16.92
670.142	13.92
670.173	4.92
670.204	-13.08
670.236	-4.08
670.267	-11.08
670.299	-4.08
670.33	-1.08
670.362	1.92
670.393	1.92
670.424	16.92
670.456	-18.08
670.487	-5.08
670.518	2.92
670.55	-1.08
670.581	5.92
670.613	22.92
670.644	11.92
670.675	-18.08
670.707	-2.08
670.738	14.92
670.769	-3.08
670.801	-0.08
670.832	10.92
670.864	5.92
670.895	10.92
670.926	0.92
670.958	0.92
670.989	0.92
671.02	-5.08
671.052	13.92
671.083	4.92
671.114	-15.08
671.146	-0.08
671.177	-8.08
671.208	-18.08
671.24	-7.08
671.271	-4.08
671.302	-8.08
671.333	-3.08
671.365	-2.08
671.396	4.92
671.427	-1.08
671.459	-0.08
671.49	11.92
671.521	9.92
671.553	-0.08
671.584	9.92
671.615	-3.08
671.646	4.92
671.678	2.92
671.709	2.92
671.74	-17.08
671.771	-0.08
671.803	-12.08
671.834	3.92
671.865	-4.08
671.896	23.92
671.928	-1.08
671.959	-10.08
671.99	-6.08
672.021	-9.08
672.053	-3.08
672.084	8.92
672.115	1.92
672.146	0.92
672.178	-8.08
672.209	5.92
672.24	0.92
672.271	6.92
672.303	0.92
672.334	1.92
672.365	2.92
672.396	-3.08
672.427	0.92
672.459	1.92
672.49	15.92
672.521	1.92
672.552	8.92
672.583	4.92
672.615	-2.08
672.646	19.92
672.677	-8.08
672.708	-9.08
672.739	-7.08
672.77	12.92
672.802	-4.08
672.833	3.92
672.864	0.92
672.895	-14.08
672.926	6.92
672.957	-19.08
672.989	-9.08
673.02	3.92
673.051	-12.08
673.082	11.92
673.113	-6.08
673.144	12.92
673.175	8.92
673.206	1.92
673.238	-10.08
673.269	5.92
673.3	-8.08
673.331	15.92
673.362	-9.08
673.393	-3.08
673.424	12.92
673.455	19.92
673.487	-6.08
673.518	0.92
673.549	0.92
673.58	-4.08
673.611	7.92
673.642	-3.08
673.673	-31.08
673.704	8.92
673.735	-2.08
673.766	3.92
673.797	1.92
673.828	0.92
673.86	-19.08
673.891	-10.08
673.922	-6.08
673.953	-8.08
673.984	6.92
674.015	8.92
674.046	-3.08
674.077	4.92
674.108	-1.08
674.139	-0.08
674.17	-9.08
674.201	-22.08
674.232	-9.08
674.263	-16.08
674.294	-2.08
674.325	-15.08
674.356	-1.08
674.387	28.92
674.418	0.92
674.449	-14.08
674.48	-7.08
674.511	-1.08
674.542	5.92
674.573	-17.08
674.604	8.92
674.635	0.92
674.666	21.92
674.697	5.92
674.728	-2.08
674.759	-13.08
674.79	-8.08
674.821	-15.08
674.852	1.92
674.883	-23.08
674.914	2.92
674.945	-1.08
674.976	-7.08
675.007	-14.08
675.038	-15.08
675.069	-14.08
675.1	-5.08
675.131	0.92
675.162	-12.08
675.193	-8.08
675.224	-5.08
675.254	2.92
675.285	-3.08
675.316	16.92
675.347	3.92
675.378	-0.08
675.409	0.92
675.44	-2.08
675.471	7.92
675.502	-1.08
675.533	-16.08
675.564	-14.08
675.595	-14.08
675.625	12.92
675.656	6.92
675.687	5.92
675.718	-10.08
675.749	3.92
675.78	-2.08
675.811	-4.08
675.842	-5.08
675.873	-21.08
675.903	-22.08
675.934	2.92
675.965	-5.08
675.996	-2.08
676.027	0.92
676.058	-6.08
676.089	-15.08
676.119	6.92
676.15	6.92
676.181	-6.08
676.212	-8.08
676.243	-3.08
676.274	-18.08
676.304	0.92
676.335	-16.08
676.366	4.92
676.397	-2.08
676.428	-3.08
676.459	5.92
676.489	-3.08
676.52	-0.08
676.551	-0.08
676.582	-2.08
676.613	6.92
676.643	-10.08
676.674	6.92
676.705	-6.08
676.736	0.92
676.767	5.92
676.797	8.92
676.828	-1.08
676.859	-1.08
676.89	-9.08
676.92	2.92
676.951	14.92
676.982	4.92
677.013	-14.08
677.044	0.92
677.074	19.92
677.105	-13.08
677.136	4.92
677.167	7.92
677.197	13.92
677.228	-3.08
677.259	-4.08
677.289	-11.08
677.32	-11.08
677.351	-11.08
677.382	-8.08
677.412	-0.08
677.443	10.92
677.474	-6.08
677.505	-8.08
677.535	1.92
677.566	-11.08
677.597	-11.08
677.627	-0.08
677.658	-4.08
677.689	-10.08
677.72	11.92
677.75	0.92
677.781	-9.08
677.812	-16.08
677.842	-0.08
677.873	-9.08
677.904	-1.08
677.934	-6.08
677.965	-0.08
677.996	-19.08
678.026	-1.08
678.057	5.92
678.088	-6.08
678.118	-1.08
678.149	-4.08
678.18	1.92
678.21	3.92
678.241	-0.08
678.272	-6.08
678.302	6.92
678.333	16.92
678.363	7.92
678.394	-3.08
678.425	-0.08
678.455	15.92
678.486	15.92
678.517	-7.08
678.547	-3.08
678.578	-18.08
678.608	-3.08
678.639	-0.08
678.67	2.92
678.7	-6.08
678.731	2.92
678.761	-10.08
678.792	2.92
678.823	11.92
678.853	-10.08
678.884	-15.08
678.914	0.92
678.945	1.92
678.975	-11.08
679.006	6.92
679.037	-19.08
679.067	5.92
679.098	6.92
679.128	-7.08
679.159	-7.08
679.189	8.92
679.22	-18.08
679.25	14.92
679.281	6.92
679.312	-2.08
679.342	-6.08
679.373	20.92
679.403	-6.08
679.434	-0.08
679.464	6.92
679.495	-0.08
679.525	10.92
679.556	-1.08
679.586	13.92
679.617	10.92
679.647	1.92
679.678	2.92
679.708	-9.08
679.739	-2.08
679.769	-10.08
679.8	-10.08
679.83	-2.08
679.861	-0.08
679.891	-0.08
679.922	-11.08
679.952	10.92
679.983	9.92
680.013	9.92
680.044	-18.08
680.074	4.92
680.105	12.92
680.135	7.92
680.165	14.92
680.196	1.92
680.226	1.92
680.257	1.92
680.287	0.92
680.318	-3.08
680.348	-14.08
680.379	13.92
680.409	4.92
680.439	-3.08
680.47	4.92
680.5	-8.08
680.531	-2.08
680.561	1.92
680.592	19.92
680.622	27.92
680.652	-5.08
680.683	-1.08
680.713	-25.08
680.744	-15.08
680.774	-0.08
680.804	25.92
680.835	3.92
680.865	-7.08
680.896	14.92
680.926	21.92
680.956	8.92
680.987	6.92
681.017	-4.08
681.047	0.92
681.078	-10.08
681.108	-4.08
681.139	0.92
681.169	-3.08
681.199	-6.08
681.23	5.92
681.26	-8.08
681.29	2.92
681.321	-7.08
681.351	-10.08
681.381	-22.08
681.412	1.92
681.442	9.92
681.472	7.92
681.503	3.92
681.533	-1.08
681.563	2.92
681.594	-2.08
681.624	-5.08
681.654	-3.08
681.685	-4.08
681.715	-10.08
681.745	-0.08
681.775	-1.08
681.806	-0.08
681.836	-6.08
681.866	-15.08
681.897	-4.08
681.927	-22.08
681.957	-17.08
681.987	7.92
682.018	-13.08
682.048	0.92
682.078	19.92
682.109	23.92
682.139	14.92
682.169	9.92
682.199	-2.08
682.23	-16.08
682.26	-4.08
682.29	-6.08
682.32	1.92
682.351	2.92
682.381	9.92
682.411	-11.08
682.441	0.92
682.472	-10.08
682.502	6.92
682.532	-0.08
682.562	-2.08
682.592	-1.08
682.623	-2.08
682.653	10.92
682.683	-14.08
682.713	-7.08
682.743	-1.08
682.774	-3.08
682.804	-11.08
682.834	6.92
682.864	-12.08
682.894	-12.08
682.925	-8.08
682.955	-12.08
682.985	-16.08
683.015	-6.08
683.045	-4.08
683.076	-11.08
683.106	-1.08
683.136	-13.08
683.166	-7.08
683.196	-6.08
683.226	-7.08
683.257	-1.08
683.287	-28.08
683.317	-15.08
683.347	-4.08
683.377	-6.08
683.407	-1.08
683.437	10.92
683.468	-1.08
683.498	-6.08
683.528	6.92
683.558	-4.08
683.588	-8.08
683.618	-6.08
683.648	-4.08
683.678	2.92
683.708	11.92
683.739	-2.08
683.769	2.92
683.799	-1.08
683.829	-4.08
683.859	13.92
683.889	9.92
683.919	2.92
683.949	8.92
683.979	-0.08
684.009	-5.08
684.039	-4.08
684.07	2.92
684.1	-7.08
684.13	8.92
684.16	-3.08
684.19	0.92
684.22	-0.08
684.25	7.92
684.28	-12.08
684.31	-11.08
684.34	2.92
684.37	12.92
684.4	-16.08
684.43	5.92
684.46	8.92
684.49	-4.08
684.52	3.92
684.55	16.92
684.58	8.92
684.61	6.92
684.64	2.92
684.67	12.92
684.7	-7.08
684.73	7.92
684.76	8.92
684.79	14.92
684.82	5.92
684.85	-6.08
684.88	9.92
684.91	-3.08
684.94	-4.08
684.97	-19.08
685	-14.08
685.03	-10.08
685.06	-15.08
685.09	-18.08
685.12	29.92
685.15	0.92
685.18	16.92
685.21	16.92
685.24	7.92
685.27	10.92
685.3	12.92
685.33	3.92
685.36	-1.08
685.39	0.92
685.42	-6.08
685.45	-5.08
685.48	5.92
685.51	-0.08
685.54	14.92
685.569	-1.08
685.599	-0.08
685.629	-3.08
685.659	-4.08
685.689	-2.08
685.719	-2.08
685.749	-16.08
685.779	-0.08
685.809	6.92
685.839	-2.08
685.869	14.92
685.898	8.92
685.928	-1.08
685.958	-7.08
685.988	20.92
686.018	-0.08
686.048	-0.08
686.078	18.92
686.108	24.92
686.137	-1.08
686.167	18.92
686.197	-13.08
686.227	-8.08
686.257	26.92
686.287	14.92
686.317	6.92
686.346	2.92
686.376	-21.08
686.406	-6.08
686.436	16.92
686.466	-6.08
686.496	-7.08
686.525	-9.08
686.555	-9.08
686.585	20.92
686.615	28.92
686.645	15.92
686.675	-4.08
686.704	5.92
686.734	9.92
686.764	3.92
686.794	3.92
686.824	-2.08
686.853	0.92
686.883	-0.08
686.913	2.92
686.943	8.92
686.973	-6.08
687.002	2.92
687.032	6.92
687.062	1.92
687.092	11.92
687.121	4.92
687.151	0.92
687.181	-5.08
687.211	5.92
687.24	-10.08
687.27	4.92
687.3	-3.08
687.33	-11.08
687.359	-13.08
687.389	7.92
687.419	-2.08
687.449	6.92
687.478	8.92
687.508	-4.08
687.538	13.92
687.568	4.92
687.597	-7.08
687.627	0.92
687.657	16.92
687.686	-3.08
687.716	24.92
687.746	-7.08
687.776	-20.08
687.805	0.92
687.835	8.92
687.865	-2.08
687.894	-8.08
687.924	-16.08
687.954	4.92
687.983	3.92
688.013	20.92
688.043	6.92
688.072	-3.08
688.102	1.92
688.132	-3.08
688.161	2.92
688.191	-3.08
688.221	1.92
688.25	-7.08
688.28	1.92
688.31	-5.08
688.339	-14.08
688.369	-15.08
688.399	-20.08
688.428	-7.08
688.458	4.92
688.488	8.92
688.517	11.92
688.547	-8.08
688.576	27.92
688.606	5.92
688.636	-7.08
688.665	2.92
688.695	6.92
688.725	2.92
688.754	14.92
688.784	8.92
688.813	7.92
688.843	-1.08
688.873	-1.08
688.902	-11.08
688.932	2.92
688.961	-4.08
688.991	25.92
689.02	25.92
689.05	0.92
689.08	6.92
689.109	7.92
689.139	14.92
689.168	15.92
689.198	11.92
689.227	-4.08
689.257	4.92
689.287	6.92
689.316	1.92
689.346	-12.08
689.375	-4.08
689.405	8.92
689.434	-5.08
689.464	3.92
689.493	11.92
689.523	2.92
689.552	3.92
689.582	17.92
689.611	10.92
689.641	2.92
689.67	0.92
689.7	4.92
689.73	1.92
689.759	-3.08
689.789	16.92
689.818	-0.08
689.848	-2.08
689.877	8.92
689.906	1.92
689.936	-6.08
689.965	-2.08
689.995	8.92
690.024	10.92
690.054	-2.08
690.083	14.92
690.113	5.92
690.142	9.92
690.172	-8.08
690.201	-4.08
690.231	-4.08
690.26	-7.08
690.29	-2.08
690.319	9.92
690.348	13.92
690.378	12.92
690.407	12.92
690.437	0.92
690.466	-12.08
690.496	-1.08
690.525	10.92
690.555	-16.08
690.584	5.92
690.613	-12.08
690.643	9.92
690.672	6.92
690.702	10.92
690.731	9.92
690.76	26.92
690.79	52.92
690.819	30.92
690.849	48.92
690.878	24.92
690.907	28.92
690.937	21.92
690.966	21.92
690.996	-1.08
691.025	11.92
691.054	10.92
691.084	28.92
691.113	14.92
691.142	6.92
691.172	9.92
691.201	16.92
691.23	12.92
691.26	8.92
691.289	8.92
691.319	-5.08
691.348	2.92
691.377	1.92
691.407	3.92
691.436	9.92
691.465	10.92
691.495	1.92
691.524	-3.08
691.553	3.92
691.583	5.92
691.612	8.92
691.641	2.92
691.67	13.92
691.7	2.92
691.729	2.92
691.758	6.92
691.788	8.92
691.817	-4.08
691.846	-8.08
691.876	6.92
691.905	15.92
691.934	4.92
691.963	9.92
691.993	-0.08
692.022	-0.08
692.051	-6.08
692.081	15.92
692.11	36.92
692.139	8.92
692.168	9.92
692.198	19.92
692.227	-2.08
692.256	-0.08
692.285	4.92
692.315	5.92
692.344	0.92
692.373	10.92
692.402	-8.08
692.432	-3.08
692.461	2.92
692.49	-1.08
692.519	-2.08
692.548	0.92
692.578	3.92
692.607	0.92
692.636	-9.08
692.665	9.92
692.694	-1.08
692.724	-8.08
692.753	4.92
692.782	18.92
692.811	7.92
692.84	-2.08
692.87	8.92
692.899	-6.08
692.928	-6.08
692.957	4.92
692.986	-4.08
693.016	2.92
693.045	1.92
693.074	4.92
693.103	-5.08
693.132	-2.08
693.161	3.92
693.191	10.92
693.22	-17.08
693.249	1.92
693.278	-6.08
693.307	5.92
693.336	-2.08
693.365	-1.08
693.395	8.92
693.424	11.92
693.453	20.92
693.482	2.92
693.511	-1.08
693.54	-3.08
693.569	-0.08
693.598	-6.08
693.628	0.92
693.657	5.92
693.686	3.92
693.715	5.92
693.744	9.92
693.773	10.92
693.802	13.92
693.831	-0.08
693.86	31.92
693.889	10.92
693.919	14.92
693.948	3.92
693.977	0.92
694.006	-13.08
694.035	-0.08
694.064	-3.08
694.093	2.92
694.122	13.92
694.151	-9.08
694.18	-6.08
694.209	5.92
694.238	7.92
694.267	16.92
694.296	3.92
694.325	11.92
694.354	20.92
694.383	-7.08
694.412	0.92
694.441	-14.08
694.471	-3.08
694.5	1.92
694.529	4.92
694.558	21.92
694.587	3.92
694.616	-8.08
694.645	-7.08
694.674	-5.08
694.703	-0.08
694.732	-7.08
694.761	8.92
694.79	17.92
694.819	3.92
694.848	12.92
694.877	10.92
694.906	15.92
694.935	-0.08
694.963	8.92
694.992	8.92
695.021	1.92
695.05	-8.08
695.079	-13.08
695.108	-7.08
695.137	12.92
695.166	1.92
695.195	4.92
695.224	12.92
695.253	15.92
695.282	0.92
695.311	18.92
695.34	2.92
695.369	8.92
695.398	7.92
695.427	24.92
695.456	5.92
695.485	12.92
695.513	0.92
695.542	17.92
695.571	1.92
695.6	16.92
695.629	20.92
695.658	8.92
695.687	7.92
695.716	9.92
695.745	34.92
695.774	3.92
695.802	16.92
695.831	7.92
695.86	12.92
695.889	7.92
695.918	1.92
695.947	6.92
695.976	-0.08
696.005	5.92
696.033	3.92
696.062	16.92
696.091	-1.08
696.12	0.92
696.149	14.92
696.178	4.92
696.207	8.92
696.235	-3.08
696.264	10.92
696.293	12.92
696.322	5.92
696.351	11.92
696.38	-4.08
696.408	13.92
696.437	15.92
696.466	21.92
696.495	9.92
696.524	13.92
696.553	1.92
696.581	-6.08
696.61	-3.08
696.639	-10.08
696.668	8.92
696.697	0.92
696.725	20.92
696.754	-4.08
696.783	-8.08
696.812	-17.08
696.84	6.92
696.869	3.92
696.898	-10.08
696.927	3.92
696.956	22.92
696.984	-7.08
697.013	-0.08
697.042	5.92
697.071	13.92
697.099	12.92
697.128	-0.08
697.157	4.92
697.186	-11.08
697.214	-15.08
697.243	-3.08
697.272	-11.08
697.301	7.92
697.329	4.92
697.358	8.92
697.387	12.92
697.415	4.92
697.444	-0.08
697.473	11.92
697.502	2.92
697.53	13.92
697.559	1.92
697.588	5.92
697.616	1.92
697.645	12.92
697.674	4.92
697.703	6.92
697.731	3.92
697.76	7.92
697.789	21.92
697.817	-0.08
697.846	20.92
697.875	-2.08
697.903	13.92
697.932	15.92
697.961	-0.08
697.989	-1.08
698.018	21.92
698.047	15.92
698.075	3.92
698.104	-4.08
698.133	-9.08
698.161	6.92
698.19	-2.08
698.218	5.92
698.247	-4.08
698.276	9.92
698.304	8.92
698.333	0.92
698.362	-4.08
698.39	-1.08
698.419	3.92
698.447	7.92
698.476	18.92
698.505	12.92
698.533	10.92
698.562	12.92
698.591	1.92
698.619	-3.08
698.648	6.92
698.676	-1.08
698.705	16.92
698.733	-6.08
698.762	21.92
698.791	7.92
698.819	7.92
698.848	13.92
698.876	8.92
698.905	-6.08
698.933	-4.08
698.962	-4.08
698.991	-2.08
699.019	16.92
699.048	17.92
699.076	12.92
699.105	-3.08
699.133	-3.08
699.162	-0.08
699.19	15.92
699.219	21.92
699.248	8.92
699.276	0.92
699.305	-2.08
699.333	14.92
699.362	-8.08
699.39	2.92
699.419	-3.08
699.447	3.92
699.476	0.92
699.504	-0.08
699.533	0.92
699.561	-15.08
699.59	8.92
699.618	8.92
699.647	2.92
699.675	8.92
699.704	6.92
699.732	9.92
699.761	9.92
699.789	-3.08
699.818	-5.08
699.846	-14.08
699.874	-24.08
699.903	-0.08
699.931	0.92
699.96	5.92
699.988	-8.08
700.017	-7.08
700.045	-4.08
700.074	-12.08
700.102	-10.08
700.13	0.92
700.159	1.92
700.187	12.92
700.216	-5.08
700.244	-11.08
700.273	2.92
700.301	2.92
700.329	7.92
700.358	19.92
700.386	-2.08
700.415	-10.08
700.443	-7.08
700.472	-10.08
700.5	-9.08
700.528	8.92
700.557	13.92
700.585	-8.08
700.614	-4.08
700.642	18.92
700.67	16.92
700.699	-2.08
700.727	4.92
700.755	-2.08
700.784	-8.08
700.812	-8.08
700.841	10.92
700.869	-6.08
700.897	-2.08
700.926	8.92
700.954	4.92
700.982	9.92
701.011	10.92
701.039	12.92
701.067	3.92
701.096	14.92
701.124	-7.08
701.152	-4.08
701.181	-7.08
701.209	-11.08
701.237	11.92
701.266	5.92
701.294	1.92
701.322	18.92
701.351	15.92
701.379	-9.08
701.407	-9.08
701.435	-2.08
701.464	14.92
701.492	17.92
701.52	8.92
701.549	8.92
701.577	-10.08
701.605	6.92
701.634	-2.08
701.662	10.92
701.69	-9.08
701.718	1.92
701.747	19.92
701.775	0.92
701.803	-7.08
701.831	8.92
701.86	0.92
701.888	8.92
701.916	-2.08
701.944	6.92
701.973	-7.08
702.001	-0.08
702.029	-12.08
702.057	-13.08
702.086	-10.08
702.114	-4.08
702.142	14.92
702.17	-14.08
702.199	9.92
702.227	0.92
702.255	6.92
702.283	-22.08
702.311	-11.08
702.34	-8.08
702.368	-7.08
702.396	-3.08
702.424	7.92
702.452	-4.08
702.481	-11.08
702.509	-1.08
702.537	-0.08
702.565	-4.08
702.593	-22.08
702.621	-8.08
702.65	6.92
702.678	8.92
702.706	9.92
702.734	-13.08
702.762	8.92
702.79	1.92
702.819	-3.08
702.847	-0.08
702.875	18.92
702.903	5.92
702.931	-9.08
702.959	-1.08
702.988	0.92
703.016	-9.08
703.044	-0.08
703.072	14.92
703.1	3.92
703.128	-1.08
703.156	7.92
703.184	-1.08
703.212	7.92
703.241	-7.08
703.269	8.92
703.297	0.92
703.325	1.92
703.353	-11.08
703.381	-0.08
703.409	-2.08
703.437	-11.08
703.465	-9.08
703.493	-3.08
703.522	-0.08
703.55	12.92
703.578	5.92
703.606	-2.08
703.634	-12.08
703.662	-9.08
703.69	1.92
703.718	0.92
703.746	25.92
703.774	-3.08
703.802	-1.08
703.83	-0.08
703.858	4.92
703.886	-7.08
703.914	-4.08
703.942	14.92
703.97	-8.08
703.998	1.92
704.027	12.92
704.055	26.92
704.083	13.92
704.111	11.92
704.139	-8.08
704.167	-4.08
704.195	-14.08
704.223	-3.08
704.251	0.92
704.279	19.92
704.307	-1.08
704.335	-18.08
704.363	-8.08
704.391	-11.08
704.419	-14.08
704.447	-3.08
704.475	0.92
704.503	-6.08
704.531	11.92
704.558	-5.08
704.586	3.92
704.614	12.92
704.642	-3.08
704.67	-9.08
704.698	-4.08
704.726	-10.08
704.754	-4.08
704.782	-4.08
704.81	-6.08
704.838	20.92
704.866	-0.08
704.894	-19.08
704.922	-3.08
704.95	-6.08
704.978	13.92
705.006	-8.08
705.034	32.92
705.061	-20.08
705.089	-3.08
705.117	-6.08
705.145	15.92
705.173	1.92
705.201	-4.08
705.229	10.92
705.257	9.92
705.285	5.92
705.313	1.92
705.34	12.92
705.368	-8.08
705.396	-1.08
705.424	3.92
705.452	-2.08
705.48	-3.08
705.508	-7.08
705.536	7.92
705.563	5.92
705.591	-2.08
705.619	-2.08
705.647	10.92
705.675	3.92
705.703	0.92
705.731	-12.08
705.758	0.92
705.786	-2.08
705.814	25.92
705.842	1.92
705.87	6.92
705.898	0.92
705.925	-3.08
705.953	-3.08
705.981	-5.08
706.009	-8.08
706.037	-12.08
706.065	-7.08
706.092	-10.08
706.12	-7.08
706.148	-22.08
706.176	2.92
706.204	12.92
706.231	8.92
706.259	-17.08
706.287	-22.08
706.315	1.92
706.342	-9.08
706.37	10.92
706.398	-3.08
706.426	-9.08
706.454	-12.08
706.481	19.92
706.509	3.92
706.537	-0.08
706.565	-0.08
706.592	3.92
706.62	-3.08
706.648	-4.08
706.676	-12.08
706.703	1.92
706.731	-10.08
706.759	-22.08
706.787	-7.08
706.814	0.92
706.842	-1.08
706.87	1.92
706.897	-3.08
706.925	-20.08
706.953	17.92
706.981	17.92
707.008	16.92
707.036	8.92
707.064	-0.08
707.091	-19.08
707.119	-1.08
707.147	-4.08
707.174	-16.08
707.202	6.92
707.23	-16.08
707.258	-4.08
707.285	-11.08
707.313	-9.08
707.341	-4.08
707.368	-19.08
707.396	4.92
707.424	-1.08
707.451	11.92
707.479	0.92
707.507	-7.08
707.534	-4.08
707.562	10.92
707.59	-14.08
707.617	-12.08
707.645	11.92
707.672	5.92
707.7	-13.08
707.728	10.92
707.755	4.92
707.783	13.92
707.811	16.92
707.838	0.92
707.866	-1.08
707.893	-0.08
707.921	-16.08
707.949	-3.08
707.976	-3.08
708.004	5.92
708.031	-3.08
708.059	-15.08
708.087	3.92
708.114	-8.08
708.142	-25.08
708.169	0.92
708.197	-2.08
708.225	-0.08
708.252	14.92
708.28	16.92
708.307	5.92
708.335	-10.08
708.362	-19.08
708.39	-24.08
708.418	-7.08
708.445	-20.08
708.473	-26.08
708.5	-0.08
708.528	10.92
708.555	-4.08
708.583	0.92
708.61	-11.08
708.638	9.92
708.665	-11.08
708.693	-4.08
708.72	-11.08
708.748	-1.08
708.776	13.92
708.803	12.92
708.831	16.92
708.858	-2.08
708.886	-1.08
708.913	-10.08
708.941	-18.08
708.968	-3.08
708.996	3.92
709.023	17.92
709.051	-15.08
709.078	-9.08
709.105	-2.08
709.133	-11.08
709.16	-3.08
709.188	1.92
709.215	10.92
709.243	15.92
709.27	-4.08
709.298	-27.08
709.325	-8.08
709.353	0.92
709.38	8.92
709.408	0.92
709.435	0.92
709.462	-14.08
709.49	2.92
709.517	6.92
709.545	-3.08
709.572	2.92
709.6	-1.08
709.627	-4.08
709.655	-1.08
709.682	-7.08
709.709	-8.08
709.737	5.92
709.764	-8.08
709.792	11.92
709.819	7.92
709.846	-6.08
709.874	9.92
709.901	19.92
709.929	5.92
709.956	4.92
709.983	-22.08
710.011	-8.08
710.038	-5.08
710.066	1.92
710.093	12.92
710.12	3.92
710.148	-13.08
710.175	-5.08
710.202	6.92
710.23	2.92
710.257	3.92
710.284	-0.08
710.312	-3.08
710.339	-16.08
710.366	-10.08
710.394	-0.08
710.421	-5.08
710.448	-1.08
710.476	-16.08
710.503	3.92
710.53	14.92
710.558	22.92
710.585	16.92
710.612	3.92
710.64	-7.08
710.667	3.92
710.694	-8.08
710.722	1.92
710.749	-2.08
710.776	-5.08
710.804	13.92
710.831	-0.08
710.858	2.92
710.885	-5.08
710.913	-2.08
710.94	16.92
710.967	7.92
710.995	3.92
711.022	-5.08
711.049	0.92
711.076	-10.08
711.104	-0.08
711.131	-16.08
711.158	-1.08
711.185	14.92
711.213	-15.08
711.24	-15.08
711.267	1.92
711.294	-9.08
711.322	5.92
711.349	-2.08
711.376	-3.08
711.403	5.92
711.431	-7.08
711.458	-8.08
711.485	-18.08
711.512	19.92
711.54	-0.08
711.567	-16.08
711.594	3.92
711.621	4.92
711.648	1.92
711.676	0.92
711.703	10.92
711.73	-8.08
711.757	10.92
711.784	-0.08
711.812	-6.08
711.839	-0.08
711.866	-6.08
711.893	-3.08
711.92	-0.08
711.947	-2.08
711.975	8.92
712.002	1.92
712.029	21.92
712.056	3.92
712.083	7.92
712.11	1.92
712.138	-2.08
712.165	-5.08
712.192	-7.08
712.219	-6.08
712.246	-4.08
712.273	-0.08
712.3	-7.08
712.328	-9.08
712.355	-7.08
712.382	-3.08
712.409	7.92
712.436	-9.08
712.463	-3.08
712.49	12.92
712.517	12.92
712.544	-10.08
712.572	4.92
712.599	-4.08
712.626	8.92
712.653	-5.08
712.68	-7.08
712.707	6.92
712.734	13.92
712.761	-1.08
712.788	4.92
712.815	-2.08
712.842	13.92
712.87	1.92
712.897	1.92
712.924	-10.08
712.951	4.92
712.978	4.92
713.005	10.92
713.032	19.92
713.059	1.92
713.086	-14.08
713.113	3.92
713.14	-7.08
713.167	4.92
713.194	-2.08
713.221	-3.08
713.248	2.92
713.275	-1.08
713.302	-8.08
713.329	-3.08
713.356	0.92
713.383	-0.08
713.41	7.92
713.437	-15.08
713.464	-0.08
713.491	9.92
713.518	-2.08
713.545	-3.08
713.572	-4.08
713.599	16.92
713.626	-5.08
713.653	13.92
713.68	-13.08
713.707	0.92
713.734	6.92
713.761	2.92
713.788	-0.08
713.815	4.92
713.842	8.92
713.869	0.92
713.896	16.92
713.923	-0.08
713.95	-2.08
713.977	-13.08
714.004	-6.08
714.031	-1.08
714.058	-6.08
714.085	-3.08
714.112	9.92
714.139	-0.08
714.165	-6.08
714.192	-11.08
714.219	0.92
714.246	4.92
714.273	1.92
714.3	-7.08
714.327	1.92
714.354	17.92
714.381	-2.08
714.408	12.92
714.435	-8.08
714.461	-8.08
714.488	-4.08
714.515	-0.08
714.542	3.92
714.569	-0.08
714.596	-26.08
714.623	-3.08
714.65	-7.08
714.677	1.92
714.703	17.92
714.73	5.92
714.757	13.92
714.784	2.92
714.811	-14.08
714.838	0.92
714.865	2.92
714.891	22.92
714.918	-7.08
714.945	-7.08
714.972	0.92
714.999	2.92
715.026	-7.08
715.052	6.92
715.079	12.92
715.106	1.92
715.133	-3.08
715.16	-12.08
715.187	11.92
715.213	1.92
715.24	-4.08
715.267	9.92
715.294	3.92
715.321	-14.08
715.347	-10.08
715.374	-7.08
715.401	19.92
715.428	8.92
715.455	2.92
715.481	-2.08
715.508	14.92
715.535	2.92
715.562	38.92
715.588	15.92
715.615	12.92
715.642	5.92
715.669	6.92
715.695	-18.08
715.722	-5.08
715.749	-0.08
715.776	-2.08
715.802	-3.08
715.829	1.92
715.856	-11.08
715.883	23.92
715.909	1.92
715.936	-7.08
715.963	-14.08
715.99	0.92
716.016	1.92
716.043	9.92
716.07	-15.08
716.096	-16.08
716.123	-22.08
716.15	4.92
716.177	1.92
716.203	11.92
716.23	8.92
716.257	0.92
716.283	11.92
716.31	14.92
716.337	-0.08
716.363	-6.08
716.39	-5.08
716.417	5.92
716.443	6.92
716.47	8.92
716.497	-7.08
716.523	17.92
716.55	4.92
716.577	0.92
716.603	-19.08
716.63	7.92
716.657	3.92
716.683	-9.08
716.71	-3.08
716.737	-0.08
716.763	5.92
716.79	5.92
716.817	8.92
716.843	-0.08
716.87	-0.08
716.897	-7.08
716.923	18.92
716.95	17.92
716.976	-12.08
717.003	-6.08
717.03	5.92
717.056	-0.08
717.083	-0.08
717.109	7.92
717.136	25.92
717.163	-10.08
717.189	-18.08
717.216	-11.08
717.242	-7.08
717.269	7.92
717.296	7.92
717.322	-0.08
717.349	14.92
717.375	2.92
717.402	-13.08
717.428	-0.08
717.455	8.92
717.481	2.92
717.508	19.92
717.535	2.92
717.561	-12.08
717.588	-16.08
717.614	-4.08
717.641	-10.08
717.667	1.92
717.694	8.92
717.72	-8.08
717.747	8.92
717.773	-11.08
717.8	-6.08
717.826	1.92
717.853	0.92
717.88	17.92
717.906	5.92
717.933	18.92
717.959	11.92
717.986	22.92
718.012	-1.08
718.039	6.92
718.065	11.92
718.092	-5.08
718.118	-13.08
718.144	-13.08
718.171	16.92
718.197	5.92
718.224	2.92
718.25	-2.08
718.277	-12.08
718.303	-4.08
718.33	-3.08
718.356	-9.08
718.383	-19.08
718.409	4.92
718.436	2.92
718.462	4.92
718.489	-17.08
718.515	4.92
718.541	0.92
718.568	8.92
718.594	11.92
718.621	7.92
718.647	2.92
718.674	8.92
718.7	-0.08
718.726	-6.08
718.753	-0.08
718.779	6.92
718.806	4.92
718.832	-7.08
718.858	8.92
718.885	-11.08
718.911	-8.08
718.938	-0.08
718.964	-18.08
718.99	-0.08
719.017	5.92
719.043	7.92
719.07	4.92
719.096	-18.08
719.122	-8.08
719.149	-5.08
719.175	-0.08
719.201	-10.08
719.228	-0.08
719.254	2.92
719.281	-6.08
719.307	2.92
719.333	-6.08
719.36	8.92
719.386	-6.08
719.412	11.92
719.439	-2.08
719.465	-6.08
719.491	-25.08
719.518	5.92
719.544	-0.08
719.57	13.92
719.597	14.92
719.623	-19.08
719.649	-5.08
719.675	-5.08
719.702	-3.08
719.728	12.92
719.754	6.92
719.781	5.92
719.807	8.92
719.833	7.92
719.86	5.92
719.886	-14.08
719.912	6.92
719.938	-9.08
719.965	10.92
719.991	3.92
720.017	-2.08
720.044	-15.08
720.07	12.92
720.096	9.92
720.122	8.92
720.149	5.92
720.175	23.92
720.201	3.92
720.227	-6.08
720.254	6.92
720.28	3.92
720.306	-7.08
720.332	0.92
720.359	-4.08
720.385	1.92
720.411	14.92
720.437	1.92
720.463	-0.08
720.49	23.92
720.516	-9.08
720.542	-8.08
720.568	-4.08
720.595	3.92
720.621	6.92
720.647	11.92
720.673	25.92
720.699	2.92
720.725	11.92
720.752	9.92
720.778	-2.08
720.804	10.92
720.83	12.92
720.856	-0.08
720.883	-11.08
720.909	-4.08
720.935	-9.08
720.961	21.92
720.987	-4.08
721.013	-7.08
721.04	4.92
721.066	-4.08
721.092	-6.08
721.118	19.92
721.144	11.92
721.17	5.92
721.196	-11.08
721.223	-10.08
721.249	-9.08
721.275	12.92
721.301	-8.08
721.327	10.92
721.353	2.92
721.379	-9.08
721.405	0.92
721.432	13.92
721.458	-7.08
721.484	7.92
721.51	-17.08
721.536	-4.08
721.562	5.92
721.588	-0.08
721.614	-4.08
721.64	7.92
721.666	-0.08
721.693	-4.08
721.719	-14.08
721.745	-9.08
721.771	0.92
721.797	3.92
721.823	-10.08
721.849	6.92
721.875	12.92
721.901	-0.08
721.927	-1.08
721.953	-3.08
721.979	20.92
722.005	12.92
722.031	-18.08
722.057	5.92
722.083	-1.08
722.109	-0.08
722.135	4.92
722.161	-0.08
722.187	-8.08
722.214	-2.08
722.24	7.92
722.266	2.92
722.292	11.92
722.318	5.92
722.344	11.92
722.37	6.92
722.396	10.92
722.422	4.92
722.448	-0.08
722.474	-11.08
722.5	8.92
722.526	-5.08
722.552	8.92
722.578	-6.08
722.603	-7.08
722.629	0.92
722.655	4.92
722.681	7.92
722.707	-0.08
722.733	3.92
722.759	-11.08
722.785	0.92
722.811	-11.08
722.837	1.92
722.863	5.92
722.889	4.92
722.915	-1.08
722.941	-8.08
722.967	-4.08
722.993	3.92
723.019	-1.08
723.045	2.92
723.071	10.92
723.097	4.92
723.122	3.92
723.148	-3.08
723.174	-2.08
723.2	12.92
723.226	1.92
723.252	3.92
723.278	-13.08
723.304	4.92
723.33	3.92
723.356	0.92
723.381	-9.08
723.407	-8.08
723.433	-0.08
723.459	2.92
723.485	0.92
723.511	0.92
723.537	3.92
723.563	-1.08
723.588	0.92
723.614	7.92
723.64	-2.08
723.666	-3.08
723.692	7.92
723.718	14.92
723.744	-8.08
723.769	-8.08
723.795	10.92
723.821	5.92
723.847	-3.08
723.873	10.92
723.899	8.92
723.924	-4.08
723.95	-0.08
723.976	-4.08
724.002	-6.08
724.028	-1.08
724.053	-4.08
724.079	-11.08
724.105	-0.08
724.131	-6.08
724.157	-12.08
724.182	-2.08
724.208	10.92
724.234	-4.08
724.26	-14.08
724.286	13.92
724.311	-0.08
724.337	2.92
724.363	6.92
724.389	3.92
724.415	8.92
724.44	14.92
724.466	2.92
724.492	-1.08
724.518	11.92
724.543	2.92
724.569	-2.08
724.595	22.92
724.621	-3.08
724.646	3.92
724.672	-7.08
724.698	-11.08
724.723	12.92
724.749	7.92
724.775	8.92
724.801	2.92
724.826	0.92
724.852	-2.08
724.878	-6.08
724.904	-4.08
724.929	5.92
724.955	-7.08
724.981	-3.08
725.006	-6.08
725.032	12.92
725.058	17.92
725.083	-15.08
725.109	-8.08
725.135	7.92
725.161	-7.08
725.186	2.92
725.212	-8.08
725.238	3.92
725.263	7.92
725.289	-1.08
725.315	-4.08
725.34	-11.08
725.366	-1.08
725.392	-14.08
725.417	-5.08
725.443	-6.08
725.468	-0.08
725.494	8.92
725.52	17.92
725.545	-1.08
725.571	-16.08
725.597	-8.08
725.622	1.92
725.648	-9.08
725.674	7.92
725.699	3.92
725.725	0.92
725.75	8.92
725.776	-19.08
725.802	4.92
725.827	4.92
725.853	4.92
725.878	10.92
725.904	20.92
725.93	-1.08
725.955	-8.08
725.981	1.92
726.006	11.92
726.032	7.92
726.057	-16.08
726.083	-9.08
726.109	-2.08
726.134	-1.08
726.16	4.92
726.185	-11.08
726.211	-5.08
726.236	-2.08
726.262	6.92
726.288	4.92
726.313	0.92
726.339	-0.08
726.364	-14.08
726.39	14.92
726.415	-4.08
726.441	-14.08
726.466	-10.08
726.492	1.92
726.517	23.92
726.543	5.92
726.568	-10.08
726.594	1.92
726.619	6.92
726.645	0.92
726.67	4.92
726.696	14.92
726.721	-2.08
726.747	-6.08
726.772	2.92
726.798	3.92
726.823	10.92
726.849	-0.08
726.874	16.92
726.9	32.92
726.925	7.92
726.951	8.92
726.976	8.92
727.002	-8.08
727.027	0.92
727.053	2.92
727.078	1.92
727.104	-10.08
727.129	-18.08
727.155	-6.08
727.18	8.92
727.205	5.92
727.231	7.92
727.256	-4.08
727.282	1.92
727.307	-4.08
727.333	-5.08
727.358	-11.08
727.383	-12.08
727.409	-16.08
727.434	23.92
727.46	14.92
727.485	-7.08
727.511	-6.08
727.536	-7.08
727.561	-6.08
727.587	-8.08
727.612	-8.08
727.637	-4.08
727.663	2.92
727.688	6.92
727.714	-3.08
727.739	-2.08
727.764	-13.08
727.79	1.92
727.815	7.92
727.841	12.92
727.866	-4.08
727.891	16.92
727.917	-12.08
727.942	-15.08
727.967	-3.08
727.993	-14.08
728.018	0.92
728.043	-8.08
728.069	1.92
728.094	3.92
728.119	7.92
728.145	19.92
728.17	4.92
728.195	-0.08
728.221	7.92
728.246	4.92
728.271	-12.08
728.297	1.92
728.322	-10.08
728.347	-11.08
728.373	0.92
728.398	5.92
728.423	-2.08
728.448	-1.08
728.474	4.92
728.499	-6.08
728.524	-8.08
728.55	-19.08
728.575	-4.08
728.6	2.92
728.625	-8.08
728.651	-3.08
728.676	7.92
728.701	2.92
728.727	1.92
728.752	-8.08
728.777	16.92
728.802	-6.08
728.828	6.92
728.853	-11.08
728.878	-5.08
728.903	-8.08
728.929	-7.08
728.954	-8.08
728.979	-0.08
729.004	-10.08
729.03	-8.08
729.055	-5.08
729.08	-8.08
729.105	-20.08
729.13	0.92
729.156	8.92
729.181	2.92
729.206	-8.08
729.231	1.92
729.256	14.92
729.282	-3.08
729.307	-20.08
729.332	-13.08
729.357	-10.08
729.382	-16.08
729.408	-3.08
729.433	-3.08
729.458	9.92
729.483	13.92
729.508	19.92
729.533	18.92
729.559	-3.08
729.584	-6.08
729.609	11.92
729.634	18.92
729.659	0.92
729.684	-10.08
729.71	8.92
729.735	-3.08
729.76	-8.08
729.785	-3.08
729.81	8.92
729.835	6.92
729.86	0.92
729.886	-6.08
729.911	16.92
729.936	6.92
729.961	11.92
729.986	17.92
730.011	59.92
730.036	206.92
730.061	984.92
730.086	2685.92
730.112	3340.92
730.137	2870.92
730.162	2095.92
730.187	1656.92
730.212	1278.92
730.237	788.92
730.262	454.92
730.287	250.92
730.312	146.92
730.337	78.92
730.362	60.92
730.387	48.92
730.413	14.92
730.438	3.92
730.463	15.92
730.488	5.92
730.513	2.92
730.538	4.92
730.563	15.92
730.588	-2.08
730.613	24.92
730.638	-2.08
730.663	-3.08
730.688	10.92
730.713	4.92
730.738	-3.08
730.763	3.92
730.788	-6.08
730.813	6.92
730.838	-0.08
730.863	7.92
730.888	-2.08
730.913	-8.08
730.938	-4.08
730.963	24.92
730.988	112.92
731.013	422.92
731.038	605.92
731.063	586.92
731.088	470.92
731.113	349.92
731.138	301.92
731.163	188.92
731.188	111.92
731.213	63.92
731.238	49.92
731.263	17.92
731.288	-0.08
731.313	31.92
731.338	14.92
731.363	5.92
731.388	-0.08
731.413	5.92
731.438	16.92
731.463	14.92
731.487	8.92
731.512	3.92
731.537	-5.08
731.562	-1.08
731.587	2.92
731.612	0.92
731.637	-7.08
731.662	-5.08
731.687	-6.08
731.712	-13.08
731.737	2.92
731.762	-3.08
731.786	-9.08
731.811	1.92
731.836	-1.08
731.861	-12.08
731.886	-9.08
731.911	-4.08
731.936	8.92
731.961	10.92
731.986	-8.08
732.01	7.92
732.035	-1.08
732.06	8.92
732.085	-13.08
732.11	-8.08
732.135	-19.08
732.16	21.92
732.184	8.92
732.209	-0.08
732.234	-4.08
732.259	-6.08
732.284	12.92
732.309	-9.08
732.334	2.92
732.358	-16.08
732.383	-24.08
732.408	-4.08
732.433	-2.08
732.458	-2.08
732.482	-5.08
732.507	-6.08
732.532	1.92
732.557	13.92
732.582	9.92
732.607	2.92
732.631	52.92
732.656	85.92
732.681	150.92
732.706	339.92
732.73	458.92
732.755	407.92
732.78	292.92
732.805	224.92
732.83	159.92
732.854	125.92
732.879	86.92
732.904	33.92
732.929	19.92
732.953	2.92
732.978	-4.08
733.003	13.92
733.028	-3.08
733.052	3.92
733.077	9.92
733.102	13.92
733.127	-4.08
733.151	-2.08
733.176	-3.08
733.201	1.92
733.226	-0.08
733.25	3.92
733.275	-1.08
733.3	1.92
733.324	10.92
733.349	0.92
733.374	0.92
733.399	-2.08
733.423	7.92
733.448	-9.08
733.473	-4.08
733.497	3.92
733.522	-7.08
733.547	11.92
733.571	17.92
733.596	11.92
733.621	5.92
733.646	-9.08
733.67	15.92
733.695	4.92
733.72	-3.08
733.744	-3.08
733.769	-11.08
733.794	5.92
733.818	7.92
733.843	-3.08
733.867	-4.08
733.892	-4.08
733.917	4.92
733.941	3.92
733.966	-7.08
733.991	-11.08
734.015	13.92
734.04	1.92
734.065	12.92
734.089	19.92
734.114	-10.08
734.138	-4.08
734.163	-4.08
734.188	17.92
734.212	23.92
734.237	15.92
734.261	9.92
734.286	-14.08
734.311	-5.08
734.335	1.92
734.36	-4.08
734.384	5.92
734.409	1.92
734.434	-12.08
734.458	0.92
734.483	-11.08
734.507	-18.08
734.532	-0.08
734.556	-2.08
734.581	-6.08
734.606	-3.08
734.63	-12.08
734.655	4.92
734.679	-8.08
734.704	-10.08
734.728	-3.08
734.753	-12.08
734.777	2.92
734.802	-0.08
734.826	6.92
734.851	8.92
734.876	8.92
734.9	-10.08
734.925	0.92
734.949	-0.08
734.974	0.92
734.998	1.92
735.023	-7.08
735.047	-3.08
735.072	1.92
735.096	-3.08
735.121	9.92
735.145	1.92
735.17	-3.08
735.194	10.92
735.219	2.92
735.243	7.92
735.268	4.92
735.292	5.92
735.317	1.92
735.341	2.92
735.365	-23.08
735.39	16.92
735.414	12.92
735.439	6.92
735.463	-11.08
735.488	8.92
735.512	-12.08
735.537	-4.08
735.561	-18.08
735.586	-11.08
735.61	17.92
735.634	3.92
735.659	9.92
735.683	13.92
735.708	-12.08
735.732	-10.08
735.757	-2.08
735.781	-0.08
735.805	3.92
735.83	-3.08
735.854	-7.08
735.879	-7.08
735.903	20.92
735.927	9.92
735.952	7.92
735.976	6.92
736.001	0.92
736.025	-15.08
736.049	-4.08
736.074	2.92
736.098	-14.08
736.123	-2.08
736.147	-3.08
736.171	8.92
736.196	13.92
736.22	-7.08
736.244	4.92
736.269	-4.08
736.293	-9.08
736.317	-10.08
736.342	-3.08
736.366	21.92
736.39	2.92
736.415	-3.08
736.439	1.92
736.463	3.92
736.488	2.92
736.512	-2.08
736.536	5.92
736.561	14.92
736.585	4.92
736.609	2.92
736.634	1.92
736.658	1.92
736.682	-3.08
736.707	-10.08
736.731	-4.08
736.755	-6.08
736.78	13.92
736.804	11.92
736.828	4.92
736.852	4.92
736.877	2.92
736.901	4.92
736.925	13.92
736.949	8.92
736.974	-7.08
736.998	-9.08
737.022	-5.08
737.047	-14.08
737.071	-4.08
737.095	10.92
737.119	20.92
737.144	7.92
737.168	14.92
737.192	0.92
737.216	-0.08
737.241	-0.08
737.265	-3.08
737.289	-2.08
737.313	-4.08
737.337	14.92
737.362	5.92
737.386	-7.08
737.41	-17.08
737.434	-4.08
737.459	4.92
737.483	8.92
737.507	19.92
737.531	3.92
737.555	3.92
737.58	10.92
737.604	-6.08
737.628	-11.08
737.652	-14.08
737.676	-3.08
737.701	-0.08
737.725	3.92
737.749	-10.08
737.773	0.92
737.797	-3.08
737.821	5.92
737.846	1.92
737.87	19.92
737.894	-7.08
737.918	-14.08
737.942	8.92
737.966	16.92
737.99	12.92
738.015	7.92
738.039	-2.08
738.063	-1.08
738.087	0.92
738.111	-2.08
738.135	21.92
738.159	-3.08
738.184	0.92
738.208	-3.08
738.232	7.92
738.256	24.92
738.28	16.92
738.304	14.92
738.328	-12.08
738.352	3.92
738.376	6.92
738.4	-2.08
738.425	3.92
738.449	-1.08
738.473	30.92
738.497	-0.08
738.521	6.92
738.545	21.92
738.569	4.92
738.593	22.92
738.617	5.92
738.641	9.92
738.665	6.92
738.689	6.92
738.713	3.92
738.737	16.92
738.762	34.92
738.786	6.92
738.81	-12.08
738.834	4.92
738.858	2.92
738.882	10.92
738.906	0.92
738.93	-0.08
738.954	-6.08
738.978	4.92
739.002	-0.08
739.026	5.92
739.05	6.92
739.074	-10.08
739.098	21.92
739.122	19.92
739.146	-4.08
739.17	12.92
739.194	7.92
739.218	10.92
739.242	-5.08
739.266	-25.08
739.29	-2.08
739.314	4.92
739.338	0.92
739.362	6.92
739.386	2.92
739.41	2.92
739.434	-5.08
739.458	8.92
739.482	22.92
739.506	13.92
739.53	12.92
739.554	14.92
739.577	0.92
739.601	20.92
739.625	-11.08
739.649	-5.08
739.673	-4.08
739.697	5.92
739.721	-3.08
739.745	3.92
739.769	-0.08
739.793	4.92
739.817	14.92
739.841	-2.08
739.865	-12.08
739.889	-17.08
739.912	14.92
739.936	-6.08
739.96	-7.08
739.984	12.92
740.008	6.92
740.032	-7.08
740.056	6.92
740.08	7.92
740.104	9.92
740.127	11.92
740.151	15.92
740.175	0.92
740.199	16.92
740.223	53.92
740.247	6.92
740.271	4.92
740.295	-12.08
740.318	0.92
740.342	0.92
740.366	0.92
740.39	-3.08
740.414	-12.08
740.438	-15.08
740.461	15.92
740.485	11.92
740.509	-8.08
740.533	6.92
740.557	-4.08
740.581	-3.08
740.604	-0.08
740.628	0.92
740.652	16.92
740.676	3.92
740.7	15.92
740.723	7.92
740.747	0.92
740.771	11.92
740.795	5.92
740.819	19.92
740.842	4.92
740.866	15.92
740.89	0.92
740.914	3.92
740.938	-16.08
740.961	16.92
740.985	13.92
741.009	1.92
741.033	7.92
741.056	5.92
741.08	-6.08
741.104	0.92
741.128	7.92
741.151	2.92
741.175	-12.08
741.199	1.92
741.223	8.92
741.246	-10.08
741.27	15.92
741.294	-3.08
741.318	-1.08
741.341	0.92
741.365	14.92
741.389	7.92
741.413	8.92
741.436	13.92
741.46	-7.08
741.484	16.92
741.507	6.92
741.531	26.92
741.555	20.92
741.579	6.92
741.602	13.92
741.626	2.92
741.65	-7.08
741.673	0.92
741.697	7.92
741.721	-8.08
741.744	-7.08
741.768	-17.08
741.792	6.92
741.815	-1.08
741.839	-6.08
741.863	11.92
741.886	20.92
741.91	16.92
741.934	2.92
741.957	-16.08
741.981	10.92
742.005	1.92
742.028	-3.08
742.052	-7.08
742.075	-3.08
742.099	12.92
742.123	-3.08
742.146	10.92
742.17	0.92
742.194	-14.08
742.217	-4.08
742.241	-1.08
742.264	-12.08
742.288	20.92
742.312	2.92
742.335	10.92
742.359	6.92
742.382	32.92
742.406	9.92
742.43	2.92
742.453	-3.08
742.477	-6.08
742.5	-10.08
742.524	-4.08
742.548	-4.08
742.571	-7.08
742.595	-0.08
742.618	-14.08
742.642	0.92
742.665	9.92
742.689	-0.08
742.712	-1.08
742.736	-10.08
742.76	-0.08
742.783	-4.08
742.807	13.92
742.83	10.92
742.854	-7.08
742.877	-11.08
742.901	-6.08
742.924	-3.08
742.948	-0.08
742.971	6.92
742.995	10.92
743.018	-2.08
743.042	-6.08
743.065	-5.08
743.089	-30.08
743.112	5.92
743.136	-3.08
743.159	-13.08
743.183	-2.08
743.206	6.92
743.23	-0.08
743.253	7.92
743.277	3.92
743.3	-9.08
743.324	6.92
743.347	-8.08
743.371	27.92
743.394	7.92
743.418	22.92
743.441	29.92
743.465	6.92
743.488	-2.08
743.512	-10.08
743.535	-4.08
743.558	-4.08
743.582	-8.08
743.605	3.92
743.629	15.92
743.652	5.92
743.676	1.92
743.699	7.92
743.723	9.92
743.746	2.92
743.769	-12.08
743.793	8.92
743.816	-6.08
743.84	12.92
743.863	-0.08
743.886	8.92
743.91	20.92
743.933	4.92
743.957	9.92
743.98	-14.08
744.003	-4.08
744.027	3.92
744.05	1.92
744.074	-1.08
744.097	-14.08
744.12	-1.08
744.144	-9.08
744.167	7.92
744.19	16.92
744.214	4.92
744.237	-7.08
744.26	-0.08
744.284	-4.08
744.307	-21.08
744.331	-0.08
744.354	-24.08
744.377	-7.08
744.401	-4.08
744.424	-2.08
744.447	-4.08
744.471	-8.08
