Data from HighRes_mercury_15_13_11_07_2024_HR4C61891__93__15-14-32-485.txt Node

Date: Thu Nov 07 15:14:32 EST 2024
User: crc00042
Spectrometer: HR4C6189
Trigger mode: 4
Integration Time (sec): 1.000000E-1
Scans to average: 1
Electric dark correction enabled: true
Nonlinearity correction enabled: false
Boxcar width: 0
XAxis mode: Wavelengths
Number of Pixels in Spectrum: 3648
>>>>>Begin Spectral Data<<<<<
639.567	-29.85
639.602	-29.85
639.636	-29.85
639.67	-41.85
639.704	-12.85
639.738	-1.85
639.773	16.15
639.807	-4.85
639.841	-1.85
639.875	14.15
639.909	-5.85
639.943	-24.85
639.978	-11.85
640.012	3.15
640.046	9.15
640.08	21.15
640.114	-0.85
640.148	-11.85
640.182	-8.85
640.217	5.15
640.251	10.15
640.285	19.15
640.319	-6.85
640.353	-2.85
640.387	4.15
640.421	-8.85
640.455	-6.85
640.49	-6.85
640.524	-9.85
640.558	1.15
640.592	-22.85
640.626	10.15
640.66	13.15
640.694	-11.85
640.728	-4.85
640.762	4.15
640.796	9.15
640.83	6.15
640.865	-12.85
640.899	1.15
640.933	2.15
640.967	-29.85
641.001	8.15
641.035	5.15
641.069	-3.85
641.103	-8.85
641.137	-7.85
641.171	-13.85
641.205	-8.85
641.239	3.15
641.273	12.15
641.307	4.15
641.341	9.15
641.375	8.15
641.409	-20.85
641.443	-2.85
641.477	15.15
641.511	5.15
641.545	11.15
641.579	9.15
641.614	15.15
641.648	6.15
641.682	-9.85
641.716	-1.85
641.75	7.15
641.784	-9.85
641.818	10.15
641.852	12.15
641.886	2.15
641.919	27.15
641.953	-6.85
641.987	-5.85
642.021	-4.85
642.055	-2.85
642.089	14.15
642.123	-21.85
642.157	-3.85
642.191	-12.85
642.225	7.15
642.259	-6.85
642.293	24.15
642.327	17.15
642.361	-16.85
642.395	0.15
642.429	6.15
642.463	8.15
642.497	9.15
642.531	18.15
642.565	-3.85
642.599	3.15
642.633	-25.85
642.666	16.15
642.7	16.15
642.734	15.15
642.768	-18.85
642.802	-8.85
642.836	1.15
642.87	-8.85
642.904	1.15
642.938	14.15
642.972	-2.85
643.005	0.15
643.039	20.15
643.073	-8.85
643.107	9.15
643.141	2.15
643.175	-5.85
643.209	8.15
643.243	-8.85
643.276	10.15
643.31	5.15
643.344	-1.85
643.378	12.15
643.412	14.15
643.446	2.15
643.48	-6.85
643.513	19.15
643.547	-5.85
643.581	-8.85
643.615	8.15
643.649	3.15
643.683	2.15
643.716	5.15
643.75	9.15
643.784	-14.85
643.818	19.15
643.852	4.15
643.886	4.15
643.919	6.15
643.953	-2.85
643.987	1.15
644.021	13.15
644.055	11.15
644.088	-3.85
644.122	-20.85
644.156	-8.85
644.19	-5.85
644.224	-5.85
644.257	-1.85
644.291	7.15
644.325	2.15
644.359	-6.85
644.392	16.15
644.426	2.15
644.46	14.15
644.494	4.15
644.527	-0.85
644.561	-6.85
644.595	-12.85
644.629	5.15
644.662	10.15
644.696	17.15
644.73	-1.85
644.764	4.15
644.797	2.15
644.831	5.15
644.865	7.15
644.899	12.15
644.932	20.15
644.966	1.15
645	9.15
645.033	0.15
645.067	-6.85
645.101	12.15
645.135	-4.85
645.168	-8.85
645.202	-11.85
645.236	-5.85
645.269	17.15
645.303	-4.85
645.337	-4.85
645.37	-3.85
645.404	2.15
645.438	-4.85
645.471	1.15
645.505	12.15
645.539	-6.85
645.572	-7.85
645.606	-6.85
645.64	9.15
645.673	2.15
645.707	11.15
645.741	17.15
645.774	-7.85
645.808	9.15
645.842	3.15
645.875	5.15
645.909	-5.85
645.943	1.15
645.976	9.15
646.01	22.15
646.043	16.15
646.077	14.15
646.111	0.15
646.144	14.15
646.178	-0.85
646.212	-15.85
646.245	-7.85
646.279	10.15
646.312	8.15
646.346	7.15
646.38	1.15
646.413	5.15
646.447	1.15
646.48	-12.85
646.514	2.15
646.547	-2.85
646.581	-13.85
646.615	5.15
646.648	-11.85
646.682	2.15
646.715	1.15
646.749	5.15
646.782	-4.85
646.816	2.15
646.85	-3.85
646.883	-11.85
646.917	5.15
646.95	13.15
646.984	10.15
647.017	7.15
647.051	9.15
647.084	11.15
647.118	0.15
647.151	-21.85
647.185	18.15
647.218	-8.85
647.252	22.15
647.285	-5.85
647.319	-6.85
647.353	10.15
647.386	6.15
647.42	3.15
647.453	3.15
647.487	0.15
647.52	-5.85
647.553	-12.85
647.587	5.15
647.62	8.15
647.654	2.15
647.687	2.15
647.721	8.15
647.754	-7.85
647.788	-0.85
647.821	-3.85
647.855	14.15
647.888	11.15
647.922	7.15
647.955	-0.85
647.989	17.15
648.022	-2.85
648.055	6.15
648.089	-3.85
648.122	14.15
648.156	-7.85
648.189	4.15
648.223	5.15
648.256	22.15
648.29	20.15
648.323	1.15
648.356	2.15
648.39	7.15
648.423	9.15
648.457	1.15
648.49	8.15
648.523	9.15
648.557	-10.85
648.59	0.15
648.624	5.15
648.657	3.15
648.69	18.15
648.724	16.15
648.757	1.15
648.791	5.15
648.824	3.15
648.857	16.15
648.891	7.15
648.924	-12.85
648.957	4.15
648.991	1.15
649.024	10.15
649.057	-3.85
649.091	-0.85
649.124	11.15
649.158	-2.85
649.191	17.15
649.224	8.15
649.258	7.15
649.291	7.15
649.324	5.15
649.358	-3.85
649.391	10.15
649.424	0.15
649.458	-5.85
649.491	3.15
649.524	-7.85
649.557	-4.85
649.591	-11.85
649.624	8.15
649.657	-6.85
649.691	-3.85
649.724	2.15
649.757	2.15
649.791	-10.85
649.824	16.15
649.857	12.15
649.89	17.15
649.924	-12.85
649.957	8.15
649.99	-9.85
650.023	6.15
650.057	-3.85
650.09	0.15
650.123	-0.85
650.157	20.15
650.19	26.15
650.223	-5.85
650.256	0.15
650.29	1.15
650.323	2.15
650.356	10.15
650.389	-15.85
650.423	-5.85
650.456	15.15
650.489	-3.85
650.522	-5.85
650.555	10.15
650.589	13.15
650.622	6.15
650.655	20.15
650.688	2.15
650.721	3.15
650.755	-1.85
650.788	14.15
650.821	8.15
650.854	3.15
650.887	11.15
650.921	10.15
650.954	14.15
650.987	-13.85
651.02	-6.85
651.053	-15.85
651.087	-11.85
651.12	12.15
651.153	0.15
651.186	11.15
651.219	2.15
651.252	20.15
651.286	8.15
651.319	-4.85
651.352	4.15
651.385	5.15
651.418	5.15
651.451	12.15
651.484	12.15
651.518	-3.85
651.551	29.15
651.584	6.15
651.617	14.15
651.65	12.15
651.683	18.15
651.716	-7.85
651.749	-14.85
651.783	-14.85
651.816	4.15
651.849	2.15
651.882	-12.85
651.915	-0.85
651.948	3.15
651.981	-15.85
652.014	-1.85
652.047	-8.85
652.08	0.15
652.114	6.15
652.147	-7.85
652.18	0.15
652.213	31.15
652.246	3.15
652.279	-8.85
652.312	18.15
652.345	-5.85
652.378	-6.85
652.411	17.15
652.444	-14.85
652.477	-8.85
652.51	-9.85
652.543	-11.85
652.576	14.15
652.609	-16.85
652.642	-16.85
652.675	10.15
652.709	15.15
652.742	16.15
652.775	6.15
652.808	14.15
652.841	1.15
652.874	5.15
652.907	-6.85
652.94	6.15
652.973	-8.85
653.006	5.15
653.039	6.15
653.072	2.15
653.105	-0.85
653.138	-2.85
653.171	-15.85
653.204	11.15
653.237	2.15
653.27	-9.85
653.303	7.15
653.336	8.15
653.368	1.15
653.401	0.15
653.434	-12.85
653.467	-10.85
653.5	-5.85
653.533	-11.85
653.566	-1.85
653.599	12.15
653.632	6.15
653.665	12.15
653.698	-9.85
653.731	-6.85
653.764	12.15
653.797	8.15
653.83	4.15
653.863	23.15
653.896	-1.85
653.929	-2.85
653.961	23.15
653.994	-9.85
654.027	-6.85
654.06	2.15
654.093	8.15
654.126	26.15
654.159	-3.85
654.192	5.15
654.225	-4.85
654.258	10.15
654.29	-0.85
654.323	11.15
654.356	0.15
654.389	2.15
654.422	-10.85
654.455	2.15
654.488	7.15
654.521	-7.85
654.553	-5.85
654.586	12.15
654.619	3.15
654.652	0.15
654.685	12.15
654.718	14.15
654.751	16.15
654.783	-1.85
654.816	19.15
654.849	-4.85
654.882	-9.85
654.915	-9.85
654.948	-20.85
654.98	-17.85
655.013	4.15
655.046	-20.85
655.079	5.15
655.112	3.15
655.144	-13.85
655.177	6.15
655.21	4.15
655.243	13.15
655.276	-4.85
655.308	-8.85
655.341	-6.85
655.374	5.15
655.407	-1.85
655.44	-13.85
655.472	3.15
655.505	3.15
655.538	-10.85
655.571	14.15
655.603	0.15
655.636	10.15
655.669	23.15
655.702	-4.85
655.734	-8.85
655.767	-4.85
655.8	1.15
655.833	-0.85
655.865	-1.85
655.898	-3.85
655.931	1.15
655.964	-4.85
655.996	-1.85
656.029	6.15
656.062	-4.85
656.095	6.15
656.127	-3.85
656.16	5.15
656.193	0.15
656.225	6.15
656.258	15.15
656.291	10.15
656.324	6.15
656.356	9.15
656.389	-2.85
656.422	-7.85
656.454	-1.85
656.487	10.15
656.52	7.15
656.552	4.15
656.585	8.15
656.618	16.15
656.65	9.15
656.683	11.15
656.716	13.15
656.748	7.15
656.781	-10.85
656.814	-10.85
656.846	-4.85
656.879	2.15
656.912	0.15
656.944	-12.85
656.977	9.15
657.01	1.15
657.042	3.15
657.075	11.15
657.108	-10.85
657.14	8.15
657.173	7.15
657.205	12.15
657.238	13.15
657.271	10.15
657.303	-6.85
657.336	4.15
657.369	24.15
657.401	-1.85
657.434	0.15
657.466	12.15
657.499	-1.85
657.532	4.15
657.564	9.15
657.597	-4.85
657.629	7.15
657.662	0.15
657.694	16.15
657.727	-1.85
657.76	19.15
657.792	-0.85
657.825	-25.85
657.857	3.15
657.89	-5.85
657.922	14.15
657.955	3.15
657.987	-13.85
658.02	5.15
658.053	1.15
658.085	1.15
658.118	14.15
658.15	16.15
658.183	42.15
658.215	14.15
658.248	0.15
658.28	-11.85
658.313	11.15
658.345	3.15
658.378	10.15
658.41	8.15
658.443	1.15
658.475	-4.85
658.508	16.15
658.54	14.15
658.573	-8.85
658.605	0.15
658.638	5.15
658.67	-1.85
658.703	19.15
658.735	-8.85
658.768	1.15
658.8	-0.85
658.833	28.15
658.865	18.15
658.898	-1.85
658.93	-0.85
658.963	-2.85
658.995	-12.85
659.028	10.15
659.06	-3.85
659.092	-7.85
659.125	13.15
659.157	13.15
659.19	3.15
659.222	-5.85
659.255	1.15
659.287	0.15
659.32	-3.85
659.352	15.15
659.384	8.15
659.417	-10.85
659.449	-8.85
659.482	4.15
659.514	-4.85
659.546	-6.85
659.579	-19.85
659.611	8.15
659.644	-10.85
659.676	-4.85
659.708	1.15
659.741	-3.85
659.773	7.15
659.806	-2.85
659.838	-5.85
659.87	-0.85
659.903	-13.85
659.935	6.15
659.967	-10.85
660	21.15
660.032	-14.85
660.065	29.15
660.097	15.15
660.129	6.15
660.162	-3.85
660.194	-2.85
660.226	-2.85
660.259	3.15
660.291	-5.85
660.323	-5.85
660.356	-4.85
660.388	-5.85
660.42	-1.85
660.453	3.15
660.485	-9.85
660.517	11.15
660.55	22.15
660.582	-4.85
660.614	2.15
660.647	5.15
660.679	-1.85
660.711	7.15
660.743	-8.85
660.776	-9.85
660.808	-0.85
660.84	-0.85
660.873	-3.85
660.905	2.15
660.937	-1.85
660.969	6.15
661.002	-0.85
661.034	15.15
661.066	-10.85
661.099	3.15
661.131	13.15
661.163	17.15
661.195	12.15
661.228	22.15
661.26	-12.85
661.292	-15.85
661.324	6.15
661.357	3.15
661.389	3.15
661.421	24.15
661.453	-1.85
661.485	10.15
661.518	-2.85
661.55	-1.85
661.582	-15.85
661.614	-12.85
661.647	4.15
661.679	-1.85
661.711	12.15
661.743	-1.85
661.775	12.15
661.808	16.15
661.84	-18.85
661.872	2.15
661.904	0.15
661.936	-2.85
661.969	-19.85
662.001	-17.85
662.033	-5.85
662.065	-4.85
662.097	25.15
662.129	15.15
662.162	-7.85
662.194	-1.85
662.226	0.15
662.258	18.15
662.29	2.15
662.322	-17.85
662.355	-1.85
662.387	17.15
662.419	5.15
662.451	20.15
662.483	-7.85
662.515	-7.85
662.547	3.15
662.58	3.15
662.612	-14.85
662.644	-10.85
662.676	10.15
662.708	-0.85
662.74	-4.85
662.772	-0.85
662.804	7.15
662.836	10.15
662.869	1.15
662.901	2.15
662.933	11.15
662.965	22.15
662.997	4.15
663.029	-7.85
663.061	-0.85
663.093	-0.85
663.125	18.15
663.157	2.15
663.189	-2.85
663.221	0.15
663.254	-8.85
663.286	2.15
663.318	7.15
663.35	-2.85
663.382	10.15
663.414	13.15
663.446	10.15
663.478	-3.85
663.51	21.15
663.542	-10.85
663.574	5.15
663.606	6.15
663.638	6.15
663.67	3.15
663.702	-6.85
663.734	-13.85
663.766	-4.85
663.798	9.15
663.83	5.15
663.862	8.15
663.894	10.15
663.926	-7.85
663.958	7.15
663.99	2.15
664.022	3.15
664.054	8.15
664.086	-8.85
664.118	-12.85
664.15	-17.85
664.182	12.15
664.214	14.15
664.246	10.15
664.278	4.15
664.31	11.15
664.342	1.15
664.374	-3.85
664.406	-0.85
664.438	-11.85
664.47	34.15
664.502	5.15
664.534	10.15
664.566	11.15
664.598	10.15
664.63	2.15
664.662	-1.85
664.693	-6.85
664.725	13.15
664.757	17.15
664.789	-0.85
664.821	15.15
664.853	18.15
664.885	-9.85
664.917	-11.85
664.949	0.15
664.981	10.15
665.013	-3.85
665.045	-23.85
665.076	2.15
665.108	13.15
665.14	-0.85
665.172	10.15
665.204	16.15
665.236	-1.85
665.268	13.15
665.3	-2.85
665.331	-14.85
665.363	8.15
665.395	3.15
665.427	1.15
665.459	19.15
665.491	-3.85
665.523	10.15
665.555	-16.85
665.586	-3.85
665.618	-5.85
665.65	-11.85
665.682	-7.85
665.714	3.15
665.746	-1.85
665.777	2.15
665.809	-5.85
665.841	5.15
665.873	-5.85
665.905	2.15
665.937	9.15
665.968	-5.85
666	0.15
666.032	-1.85
666.064	-4.85
666.096	-0.85
666.127	8.15
666.159	8.15
666.191	-7.85
666.223	10.15
666.255	3.15
666.286	6.15
666.318	-15.85
666.35	6.15
666.382	-0.85
666.413	1.15
666.445	-20.85
666.477	-32.85
666.509	-14.85
666.54	-13.85
666.572	-16.85
666.604	-0.85
666.636	5.15
666.667	7.15
666.699	19.15
666.731	16.15
666.763	-3.85
666.794	-4.85
666.826	7.15
666.858	-4.85
666.89	15.15
666.921	-7.85
666.953	2.15
666.985	11.15
667.017	12.15
667.048	3.15
667.08	1.15
667.112	8.15
667.143	-15.85
667.175	-0.85
667.207	10.15
667.238	-7.85
667.27	-10.85
667.302	-1.85
667.334	6.15
667.365	17.15
667.397	1.15
667.429	-7.85
667.46	5.15
667.492	10.15
667.524	-12.85
667.555	-16.85
667.587	15.15
667.619	-13.85
667.65	-2.85
667.682	10.15
667.714	5.15
667.745	-1.85
667.777	3.15
667.808	3.15
667.84	5.15
667.872	3.15
667.903	41.15
667.935	-5.85
667.967	-1.85
667.998	-5.85
668.03	11.15
668.061	0.15
668.093	0.15
668.125	-1.85
668.156	0.15
668.188	9.15
668.22	-8.85
668.251	16.15
668.283	3.15
668.314	2.15
668.346	6.15
668.377	17.15
668.409	4.15
668.441	24.15
668.472	17.15
668.504	10.15
668.535	4.15
668.567	4.15
668.599	5.15
668.63	10.15
668.662	10.15
668.693	9.15
668.725	-2.85
668.756	3.15
668.788	7.15
668.819	14.15
668.851	6.15
668.882	1.15
668.914	-23.85
668.946	-3.85
668.977	-6.85
669.009	1.15
669.04	-18.85
669.072	-2.85
669.103	7.15
669.135	-6.85
669.166	-0.85
669.198	11.15
669.229	10.15
669.261	5.15
669.292	-16.85
669.324	0.15
669.355	15.15
669.387	-12.85
669.418	3.15
669.45	-17.85
669.481	9.15
669.513	4.15
669.544	4.15
669.576	-4.85
669.607	5.15
669.639	-0.85
669.67	-0.85
669.701	16.15
669.733	-2.85
669.764	15.15
669.796	-3.85
669.827	-8.85
669.859	1.15
669.89	0.15
669.922	-6.85
669.953	-10.85
669.985	6.15
670.016	-1.85
670.047	-2.85
670.079	-3.85
670.11	7.15
670.142	7.15
670.173	-7.85
670.204	5.15
670.236	-0.85
670.267	-1.85
670.299	3.15
670.33	5.15
670.362	4.15
670.393	2.15
670.424	14.15
670.456	-18.85
670.487	-17.85
670.518	8.15
670.55	-6.85
670.581	-7.85
670.613	-0.85
670.644	1.15
670.675	-16.85
670.707	14.15
670.738	-0.85
670.769	-12.85
670.801	-21.85
670.832	-13.85
670.864	-11.85
670.895	2.15
670.926	4.15
670.958	1.15
670.989	-1.85
671.02	-27.85
671.052	-2.85
671.083	-4.85
671.114	-7.85
671.146	13.15
671.177	6.15
671.208	0.15
671.24	-11.85
671.271	-11.85
671.302	26.15
671.333	-8.85
671.365	-16.85
671.396	-6.85
671.427	4.15
671.459	-9.85
671.49	-1.85
671.521	-0.85
671.553	-2.85
671.584	11.15
671.615	4.15
671.646	7.15
671.678	10.15
671.709	-6.85
671.74	-7.85
671.771	2.15
671.803	-14.85
671.834	-3.85
671.865	-22.85
671.896	-0.85
671.928	2.15
671.959	-10.85
671.99	22.15
672.021	-0.85
672.053	-0.85
672.084	27.15
672.115	7.15
672.146	-0.85
672.178	-11.85
672.209	-11.85
672.24	0.15
672.271	23.15
672.303	-4.85
672.334	-24.85
672.365	-6.85
672.396	3.15
672.427	15.15
672.459	25.15
672.49	29.15
672.521	16.15
672.552	14.15
672.583	1.15
672.615	6.15
672.646	14.15
672.677	-11.85
672.708	4.15
672.739	1.15
672.77	10.15
672.802	-6.85
672.833	-16.85
672.864	-15.85
672.895	-9.85
672.926	5.15
672.957	3.15
672.989	7.15
673.02	0.15
673.051	6.15
673.082	11.15
673.113	-5.85
673.144	-0.85
673.175	-6.85
673.206	-24.85
673.238	-13.85
673.269	3.15
673.3	-8.85
673.331	14.15
673.362	13.15
673.393	1.15
673.424	13.15
673.455	16.15
673.487	4.15
673.518	11.15
673.549	3.15
673.58	-14.85
673.611	23.15
673.642	3.15
673.673	-19.85
673.704	5.15
673.735	15.15
673.766	-3.85
673.797	-6.85
673.828	3.15
673.86	-2.85
673.891	-14.85
673.922	-8.85
673.953	0.15
673.984	8.15
674.015	13.15
674.046	20.15
674.077	8.15
674.108	3.15
674.139	-3.85
674.17	-0.85
674.201	6.15
674.232	-10.85
674.263	0.15
674.294	0.15
674.325	-22.85
674.356	1.15
674.387	22.15
674.418	16.15
674.449	-5.85
674.48	-0.85
674.511	-12.85
674.542	10.15
674.573	0.15
674.604	14.15
674.635	10.15
674.666	17.15
674.697	16.15
674.728	-8.85
674.759	2.15
674.79	-8.85
674.821	-3.85
674.852	3.15
674.883	-12.85
674.914	0.15
674.945	-1.85
674.976	-3.85
675.007	-10.85
675.038	-3.85
675.069	-1.85
675.1	-5.85
675.131	-11.85
675.162	-9.85
675.193	-16.85
675.224	-11.85
675.254	10.15
675.285	8.15
675.316	2.15
675.347	0.15
675.378	-11.85
675.409	-4.85
675.44	5.15
675.471	13.15
675.502	-2.85
675.533	3.15
675.564	7.15
675.595	-4.85
675.625	15.15
675.656	9.15
675.687	0.15
675.718	-3.85
675.749	3.15
675.78	31.15
675.811	-2.85
675.842	15.15
675.873	-4.85
675.903	-6.85
675.934	8.15
675.965	-6.85
675.996	-1.85
676.027	2.15
676.058	0.15
676.089	-21.85
676.119	5.15
676.15	3.15
676.181	-13.85
676.212	3.15
676.243	-0.85
676.274	-6.85
676.304	18.15
676.335	-13.85
676.366	-5.85
676.397	-0.85
676.428	-2.85
676.459	1.15
676.489	7.15
676.52	26.15
676.551	-6.85
676.582	-10.85
676.613	-9.85
676.643	-23.85
676.674	23.15
676.705	-4.85
676.736	1.15
676.767	20.15
676.797	11.15
676.828	4.15
676.859	-7.85
676.89	1.15
676.92	12.15
676.951	8.15
676.982	8.15
677.013	-1.85
677.044	9.15
677.074	26.15
677.105	-2.85
677.136	18.15
677.167	16.15
677.197	2.15
677.228	-2.85
677.259	-17.85
677.289	-11.85
677.32	-9.85
677.351	-3.85
677.382	-14.85
677.412	-1.85
677.443	20.15
677.474	5.15
677.505	-7.85
677.535	4.15
677.566	-4.85
677.597	-2.85
677.627	3.15
677.658	5.15
677.689	-1.85
677.72	-1.85
677.75	0.15
677.781	3.15
677.812	11.15
677.842	3.15
677.873	8.15
677.904	2.15
677.934	-1.85
677.965	-6.85
677.996	-8.85
678.026	0.15
678.057	8.15
678.088	4.15
678.118	6.15
678.149	-1.85
678.18	3.15
678.21	9.15
678.241	7.15
678.272	7.15
678.302	3.15
678.333	4.15
678.363	14.15
678.394	1.15
678.425	11.15
678.455	6.15
678.486	22.15
678.517	-3.85
678.547	4.15
678.578	-0.85
678.608	5.15
678.639	13.15
678.67	9.15
678.7	-3.85
678.731	-0.85
678.761	-0.85
678.792	4.15
678.823	10.15
678.853	9.15
678.884	-21.85
678.914	3.15
678.945	0.15
678.975	-3.85
679.006	3.15
679.037	8.15
679.067	24.15
679.098	0.15
679.128	-6.85
679.159	2.15
679.189	6.15
679.22	9.15
679.25	24.15
679.281	2.15
679.312	-8.85
679.342	28.15
679.373	29.15
679.403	18.15
679.434	10.15
679.464	0.15
679.495	4.15
679.525	-2.85
679.556	-3.85
679.586	16.15
679.617	-6.85
679.647	-0.85
679.678	9.15
679.708	8.15
679.739	-11.85
679.769	4.15
679.8	5.15
679.83	5.15
679.861	25.15
679.891	1.15
679.922	-6.85
679.952	-3.85
679.983	-4.85
680.013	4.15
680.044	-12.85
680.074	1.15
680.105	10.15
680.135	-5.85
680.165	-5.85
680.196	-6.85
680.226	2.15
680.257	7.15
680.287	-2.85
680.318	-3.85
680.348	-0.85
680.379	27.15
680.409	14.15
680.439	-1.85
680.47	-2.85
680.5	-4.85
680.531	5.15
680.561	12.15
680.592	14.15
680.622	22.15
680.652	8.15
680.683	1.15
680.713	-8.85
680.744	-1.85
680.774	-10.85
680.804	16.15
680.835	9.15
680.865	-2.85
680.896	20.15
680.926	18.15
680.956	5.15
680.987	15.15
681.017	-7.85
681.047	-0.85
681.078	-8.85
681.108	-6.85
681.139	8.15
681.169	8.15
681.199	0.15
681.23	6.15
681.26	8.15
681.29	-6.85
681.321	-10.85
681.351	-6.85
681.381	-25.85
681.412	-0.85
681.442	1.15
681.472	18.15
681.503	-5.85
681.533	3.15
681.563	6.15
681.594	3.15
681.624	1.15
681.654	-0.85
681.685	1.15
681.715	9.15
681.745	8.15
681.775	-3.85
681.806	5.15
681.836	10.15
681.866	-1.85
681.897	0.15
681.927	-1.85
681.957	-1.85
681.987	-14.85
682.018	0.15
682.048	5.15
682.078	2.15
682.109	7.15
682.139	0.15
682.169	-1.85
682.199	-4.85
682.23	-5.85
682.26	11.15
682.29	-5.85
682.32	-7.85
682.351	-9.85
682.381	7.15
682.411	-8.85
682.441	-1.85
682.472	-4.85
682.502	1.15
682.532	-0.85
682.562	-4.85
682.592	3.15
682.623	11.15
682.653	6.15
682.683	7.15
682.713	12.15
682.743	4.15
682.774	5.15
682.804	12.15
682.834	22.15
682.864	-3.85
682.894	14.15
682.925	12.15
682.955	9.15
682.985	-4.85
683.015	6.15
683.045	20.15
683.076	-7.85
683.106	4.15
683.136	-1.85
683.166	-3.85
683.196	-2.85
683.226	0.15
683.257	-1.85
683.287	1.15
683.317	-2.85
683.347	-16.85
683.377	-3.85
683.407	6.15
683.437	18.15
683.468	15.15
683.498	-3.85
683.528	-2.85
683.558	0.15
683.588	-10.85
683.618	-3.85
683.648	-5.85
683.678	2.15
683.708	10.15
683.739	8.15
683.769	8.15
683.799	-9.85
683.829	-1.85
683.859	15.15
683.889	9.15
683.919	0.15
683.949	1.15
683.979	-5.85
684.009	-2.85
684.039	-4.85
684.07	2.15
684.1	9.15
684.13	10.15
684.16	-12.85
684.19	-4.85
684.22	-3.85
684.25	6.15
684.28	-5.85
684.31	4.15
684.34	6.15
684.37	5.15
684.4	-5.85
684.43	-8.85
684.46	-3.85
684.49	-6.85
684.52	7.15
684.55	18.15
684.58	19.15
684.61	8.15
684.64	2.15
684.67	7.15
684.7	1.15
684.73	8.15
684.76	-10.85
684.79	9.15
684.82	14.15
684.85	-6.85
684.88	17.15
684.91	6.15
684.94	5.15
684.97	-0.85
685	-11.85
685.03	-10.85
685.06	1.15
685.09	-7.85
685.12	11.15
685.15	10.15
685.18	15.15
685.21	8.15
685.24	15.15
685.27	14.15
685.3	3.15
685.33	0.15
685.36	-1.85
685.39	6.15
685.42	9.15
685.45	-19.85
685.48	-6.85
685.51	-4.85
685.54	-10.85
685.569	21.15
685.599	20.15
685.629	13.15
685.659	1.15
685.689	5.15
685.719	5.15
685.749	1.15
685.779	16.15
685.809	4.15
685.839	11.15
685.869	10.15
685.898	9.15
685.928	9.15
685.958	1.15
685.988	25.15
686.018	-2.85
686.048	-0.85
686.078	17.15
686.108	12.15
686.137	10.15
686.167	9.15
686.197	-3.85
686.227	1.15
686.257	30.15
686.287	21.15
686.317	-3.85
686.346	-6.85
686.376	-14.85
686.406	-4.85
686.436	12.15
686.466	-0.85
686.496	-2.85
686.525	-10.85
686.555	-3.85
686.585	2.15
686.615	10.15
686.645	7.15
686.675	9.15
686.704	5.15
686.734	-8.85
686.764	-8.85
686.794	14.15
686.824	-7.85
686.853	14.15
686.883	12.15
686.913	-5.85
686.943	7.15
686.973	1.15
687.002	-3.85
687.032	12.15
687.062	1.15
687.092	12.15
687.121	2.15
687.151	5.15
687.181	-8.85
687.211	19.15
687.24	4.15
687.27	1.15
687.3	-8.85
687.33	-3.85
687.359	-19.85
687.389	14.15
687.419	2.15
687.449	1.15
687.478	0.15
687.508	4.15
687.538	7.15
687.568	4.15
687.597	-5.85
687.627	-0.85
687.657	1.15
687.686	4.15
687.716	18.15
687.746	-7.85
687.776	-4.85
687.805	7.15
687.835	-3.85
687.865	30.15
687.894	2.15
687.924	11.15
687.954	3.15
687.983	3.15
688.013	11.15
688.043	12.15
688.072	-15.85
688.102	19.15
688.132	10.15
688.161	1.15
688.191	12.15
688.221	26.15
688.25	-0.85
688.28	21.15
688.31	0.15
688.339	3.15
688.369	-16.85
688.399	-20.85
688.428	3.15
688.458	-4.85
688.488	-1.85
688.517	20.15
688.547	-0.85
688.576	34.15
688.606	16.15
688.636	-19.85
688.665	14.15
688.695	8.15
688.725	20.15
688.754	19.15
688.784	7.15
688.813	9.15
688.843	4.15
688.873	4.15
688.902	-4.85
688.932	13.15
688.961	-0.85
688.991	12.15
689.02	20.15
689.05	-8.85
689.08	31.15
689.109	18.15
689.139	-12.85
689.168	0.15
689.198	0.15
689.227	-0.85
689.257	6.15
689.287	11.15
689.316	8.15
689.346	-1.85
689.375	-5.85
689.405	19.15
689.434	-7.85
689.464	15.15
689.493	-4.85
689.523	-9.85
689.552	-17.85
689.582	10.15
689.611	-13.85
689.641	-0.85
689.67	4.15
689.7	8.15
689.73	5.15
689.759	7.15
689.789	16.15
689.818	1.15
689.848	4.15
689.877	4.15
689.906	-8.85
689.936	-2.85
689.965	19.15
689.995	5.15
690.024	-1.85
690.054	7.15
690.083	18.15
690.113	-0.85
690.142	11.15
690.172	4.15
690.201	11.15
690.231	-6.85
690.26	11.15
690.29	-8.85
690.319	3.15
690.348	0.15
690.378	1.15
690.407	1.15
690.437	2.15
690.466	-9.85
690.496	-3.85
690.525	15.15
690.555	-11.85
690.584	-15.85
690.613	-5.85
690.643	10.15
690.672	5.15
690.702	14.15
690.731	12.15
690.76	31.15
690.79	56.15
690.819	31.15
690.849	30.15
690.878	37.15
690.907	19.15
690.937	30.15
690.966	14.15
690.996	0.15
691.025	-3.85
691.054	6.15
691.084	6.15
691.113	-0.85
691.142	7.15
691.172	17.15
691.201	20.15
691.23	10.15
691.26	15.15
691.289	-12.85
691.319	-3.85
691.348	4.15
691.377	15.15
691.407	8.15
691.436	16.15
691.465	6.15
691.495	-5.85
691.524	-9.85
691.553	-6.85
691.583	2.15
691.612	25.15
691.641	-1.85
691.67	-4.85
691.7	9.15
691.729	6.15
691.758	6.15
691.788	8.15
691.817	-7.85
691.846	10.15
691.876	-2.85
691.905	12.15
691.934	5.15
691.963	9.15
691.993	-5.85
692.022	-12.85
692.051	-10.85
692.081	3.15
692.11	14.15
692.139	-11.85
692.168	13.15
692.198	23.15
692.227	18.15
692.256	-4.85
692.285	-2.85
692.315	-0.85
692.344	-4.85
692.373	5.15
692.402	-10.85
692.432	0.15
692.461	-1.85
692.49	7.15
692.519	-2.85
692.548	5.15
692.578	23.15
692.607	18.15
692.636	-5.85
692.665	5.15
692.694	-0.85
692.724	-4.85
692.753	0.15
692.782	24.15
692.811	1.15
692.84	8.15
692.87	25.15
692.899	12.15
692.928	9.15
692.957	-5.85
692.986	6.15
693.016	0.15
693.045	17.15
693.074	8.15
693.103	-1.85
693.132	2.15
693.161	11.15
693.191	-14.85
693.22	-20.85
693.249	3.15
693.278	-0.85
693.307	15.15
693.336	-8.85
693.365	-25.85
693.395	15.15
693.424	-2.85
693.453	27.15
693.482	-0.85
693.511	18.15
693.54	1.15
693.569	5.15
693.598	0.15
693.628	15.15
693.657	23.15
693.686	14.15
693.715	9.15
693.744	14.15
693.773	15.15
693.802	6.15
693.831	-3.85
693.86	9.15
693.889	1.15
693.919	4.15
693.948	-14.85
693.977	3.15
694.006	9.15
694.035	5.15
694.064	-13.85
694.093	12.15
694.122	1.15
694.151	3.15
694.18	8.15
694.209	15.15
694.238	11.15
694.267	16.15
694.296	4.15
694.325	9.15
694.354	-3.85
694.383	3.15
694.412	6.15
694.441	-7.85
694.471	-10.85
694.5	-23.85
694.529	-4.85
694.558	19.15
694.587	10.15
694.616	3.15
694.645	4.15
694.674	16.15
694.703	2.15
694.732	5.15
694.761	16.15
694.79	15.15
694.819	-2.85
694.848	-2.85
694.877	22.15
694.906	30.15
694.935	16.15
694.963	15.15
694.992	-4.85
695.021	-5.85
695.05	10.15
695.079	-1.85
695.108	-4.85
695.137	18.15
695.166	28.15
695.195	-7.85
695.224	3.15
695.253	8.15
695.282	-1.85
695.311	1.15
695.34	0.15
695.369	6.15
695.398	3.15
695.427	14.15
695.456	11.15
695.485	5.15
695.513	1.15
695.542	8.15
695.571	6.15
695.6	15.15
695.629	10.15
695.658	19.15
695.687	0.15
695.716	5.15
695.745	19.15
695.774	-1.85
695.802	-14.85
695.831	8.15
695.86	16.15
695.889	18.15
695.918	8.15
695.947	2.15
695.976	8.15
696.005	0.15
696.033	3.15
696.062	-3.85
696.091	4.15
696.12	6.15
696.149	21.15
696.178	11.15
696.207	26.15
696.235	8.15
696.264	17.15
696.293	17.15
696.322	17.15
696.351	19.15
696.38	3.15
696.408	1.15
696.437	17.15
696.466	-0.85
696.495	18.15
696.524	10.15
696.553	1.15
696.581	3.15
696.61	5.15
696.639	6.15
696.668	14.15
696.697	3.15
696.725	8.15
696.754	1.15
696.783	6.15
696.812	-2.85
696.84	2.15
696.869	11.15
696.898	-4.85
696.927	-8.85
696.956	33.15
696.984	18.15
697.013	25.15
697.042	-12.85
697.071	16.15
697.099	19.15
697.128	14.15
697.157	1.15
697.186	6.15
697.214	-2.85
697.243	-10.85
697.272	8.15
697.301	8.15
697.329	15.15
697.358	15.15
697.387	29.15
697.415	4.15
697.444	16.15
697.473	7.15
697.502	-0.85
697.53	25.15
697.559	2.15
697.588	0.15
697.616	-2.85
697.645	3.15
697.674	15.15
697.703	10.15
697.731	10.15
697.76	13.15
697.789	1.15
697.817	4.15
697.846	24.15
697.875	4.15
697.903	26.15
697.932	21.15
697.961	-9.85
697.989	16.15
698.018	17.15
698.047	5.15
698.075	16.15
698.104	2.15
698.133	-7.85
698.161	-2.85
698.19	5.15
698.218	10.15
698.247	12.15
698.276	-11.85
698.304	20.15
698.333	13.15
698.362	0.15
698.39	-3.85
698.419	9.15
698.447	-2.85
698.476	-7.85
698.505	11.15
698.533	13.15
698.562	-0.85
698.591	-13.85
698.619	-10.85
698.648	13.15
698.676	-0.85
698.705	1.15
698.733	-10.85
698.762	-5.85
698.791	-1.85
698.819	-0.85
698.848	6.15
698.876	13.15
698.905	0.15
698.933	18.15
698.962	2.15
698.991	6.15
699.019	34.15
699.048	10.15
699.076	6.15
699.105	-7.85
699.133	2.15
699.162	5.15
699.19	10.15
699.219	6.15
699.248	12.15
699.276	-0.85
699.305	0.15
699.333	-0.85
699.362	5.15
699.39	5.15
699.419	0.15
699.447	7.15
699.476	5.15
699.504	9.15
699.533	14.15
699.561	2.15
699.59	6.15
699.618	-9.85
699.647	8.15
699.675	7.15
699.704	7.15
699.732	-2.85
699.761	14.15
699.789	-17.85
699.818	-1.85
699.846	-0.85
699.874	0.15
699.903	5.15
699.931	-9.85
699.96	15.15
699.988	7.15
700.017	2.15
700.045	7.15
700.074	-5.85
700.102	-8.85
700.13	-18.85
700.159	2.15
700.187	10.15
700.216	-4.85
700.244	-9.85
700.273	-11.85
700.301	-7.85
700.329	9.15
700.358	11.15
700.386	9.15
700.415	13.15
700.443	-4.85
700.472	1.15
700.5	-4.85
700.528	9.15
700.557	17.15
700.585	5.15
700.614	-5.85
700.642	15.15
700.67	0.15
700.699	19.15
700.727	29.15
700.755	17.15
700.784	0.15
700.812	6.15
700.841	-0.85
700.869	5.15
700.897	-11.85
700.926	-1.85
700.954	-2.85
700.982	2.15
701.011	-2.85
701.039	1.15
701.067	5.15
701.096	12.15
701.124	0.15
701.152	1.15
701.181	12.15
701.209	1.15
701.237	-0.85
701.266	0.15
701.294	-8.85
701.322	-2.85
701.351	3.15
701.379	-3.85
701.407	6.15
701.435	2.15
701.464	5.15
701.492	5.15
701.52	11.15
701.549	4.15
701.577	-10.85
701.605	0.15
701.634	-1.85
701.662	9.15
701.69	-9.85
701.718	-4.85
701.747	19.15
701.775	1.15
701.803	-11.85
701.831	6.15
701.86	0.15
701.888	7.15
701.916	16.15
701.944	9.15
701.973	2.15
702.001	-4.85
702.029	-6.85
702.057	-0.85
702.086	0.15
702.114	1.15
702.142	7.15
702.17	-4.85
702.199	-4.85
702.227	2.15
702.255	-7.85
702.283	-8.85
702.311	10.15
702.34	-3.85
702.368	6.15
702.396	1.15
702.424	4.15
702.452	-1.85
702.481	18.15
702.509	5.15
702.537	12.15
702.565	-14.85
702.593	-14.85
702.621	-8.85
702.65	6.15
702.678	9.15
702.706	6.15
702.734	-6.85
702.762	0.15
702.79	-11.85
702.819	5.15
702.847	0.15
702.875	17.15
702.903	7.15
702.931	-6.85
702.959	-6.85
702.988	3.15
703.016	-15.85
703.044	1.15
703.072	-2.85
703.1	-2.85
703.128	-3.85
703.156	-4.85
703.184	-13.85
703.212	11.15
703.241	-2.85
703.269	10.15
703.297	0.15
703.325	1.15
703.353	-5.85
703.381	-18.85
703.409	-8.85
703.437	-12.85
703.465	-4.85
703.493	-9.85
703.522	2.15
703.55	16.15
703.578	2.15
703.606	3.15
703.634	1.15
703.662	0.15
703.69	11.15
703.718	1.15
703.746	17.15
703.774	-5.85
703.802	21.15
703.83	1.15
703.858	18.15
703.886	-1.85
703.914	-13.85
703.942	22.15
703.97	-9.85
703.998	-5.85
704.027	19.15
704.055	4.15
704.083	13.15
704.111	11.15
704.139	13.15
704.167	-10.85
704.195	-0.85
704.223	2.15
704.251	-0.85
704.279	1.15
704.307	6.15
704.335	-16.85
704.363	-7.85
704.391	0.15
704.419	-6.85
704.447	-0.85
704.475	-0.85
704.503	-2.85
704.531	9.15
704.558	22.15
704.586	14.15
704.614	-2.85
704.642	-12.85
704.67	-21.85
704.698	-7.85
704.726	-1.85
704.754	5.15
704.782	-4.85
704.81	-15.85
704.838	11.15
704.866	10.15
704.894	-4.85
704.922	0.15
704.95	1.15
704.978	3.15
705.006	-0.85
705.034	12.15
705.061	4.15
705.089	3.15
705.117	-1.85
705.145	-5.85
705.173	3.15
705.201	4.15
705.229	0.15
705.257	6.15
705.285	10.15
705.313	7.15
705.34	14.15
705.368	-5.85
705.396	-0.85
705.424	-4.85
705.452	-1.85
705.48	14.15
705.508	0.15
705.536	-6.85
705.563	-10.85
705.591	-0.85
705.619	9.15
705.647	0.15
705.675	-1.85
705.703	29.15
705.731	20.15
705.758	10.15
705.786	18.15
705.814	19.15
705.842	-3.85
705.87	7.15
705.898	16.15
705.925	4.15
705.953	-5.85
705.981	0.15
706.009	-18.85
706.037	18.15
706.065	2.15
706.092	-1.85
706.12	4.15
706.148	5.15
706.176	0.15
706.204	17.15
706.231	5.15
706.259	-1.85
706.287	-2.85
706.315	9.15
706.342	-4.85
706.37	12.15
706.398	10.15
706.426	0.15
706.454	4.15
706.481	4.15
706.509	7.15
706.537	-2.85
706.565	-0.85
706.592	18.15
706.62	6.15
706.648	-3.85
706.676	-15.85
706.703	-9.85
706.731	-3.85
706.759	-17.85
706.787	9.15
706.814	-1.85
706.842	-13.85
706.87	-6.85
706.897	-2.85
706.925	-14.85
706.953	8.15
706.981	34.15
707.008	-6.85
707.036	5.15
707.064	3.15
707.091	-22.85
707.119	7.15
707.147	2.15
707.174	11.15
707.202	-1.85
707.23	-9.85
707.258	1.15
707.285	-15.85
707.313	6.15
707.341	-4.85
707.368	2.15
707.396	2.15
707.424	22.15
707.451	-2.85
707.479	-4.85
707.507	-0.85
707.534	0.15
707.562	6.15
707.59	-0.85
707.617	-1.85
707.645	0.15
707.672	-4.85
707.7	23.15
707.728	19.15
707.755	-8.85
707.783	0.15
707.811	2.15
707.838	-9.85
707.866	3.15
707.893	-0.85
707.921	-15.85
707.949	-7.85
707.976	1.15
708.004	4.15
708.031	-6.85
708.059	-8.85
708.087	-1.85
708.114	-4.85
708.142	4.15
708.169	20.15
708.197	-1.85
708.225	12.15
708.252	-4.85
708.28	17.15
708.307	12.15
708.335	-0.85
708.362	6.15
708.39	-4.85
708.418	-2.85
708.445	-2.85
708.473	-2.85
708.5	-2.85
708.528	14.15
708.555	-2.85
708.583	10.15
708.61	-5.85
708.638	-0.85
708.665	6.15
708.693	9.15
708.72	-0.85
708.748	-12.85
708.776	-10.85
708.803	4.15
708.831	7.15
708.858	10.15
708.886	-5.85
708.913	-6.85
708.941	-5.85
708.968	13.15
708.996	-18.85
709.023	19.15
709.051	2.15
709.078	-2.85
709.105	5.15
709.133	12.15
709.16	-0.85
709.188	19.15
709.215	-4.85
709.243	12.15
709.27	-4.85
709.298	-9.85
709.325	-17.85
709.353	5.15
709.38	-4.85
709.408	17.15
709.435	3.15
709.462	-3.85
709.49	-4.85
709.517	-8.85
709.545	-5.85
709.572	-2.85
709.6	-7.85
709.627	1.15
709.655	-7.85
709.682	-14.85
709.709	7.15
709.737	7.15
709.764	-2.85
709.792	10.15
709.819	10.15
709.846	-2.85
709.874	-0.85
709.901	4.15
709.929	12.15
709.956	18.15
709.983	-9.85
710.011	-5.85
710.038	-4.85
710.066	15.15
710.093	27.15
710.12	3.15
710.148	2.15
710.175	-2.85
710.202	-2.85
710.23	10.15
710.257	-0.85
710.284	14.15
710.312	1.15
710.339	2.15
710.366	13.15
710.394	-0.85
710.421	1.15
710.448	2.15
710.476	-0.85
710.503	29.15
710.53	9.15
710.558	16.15
710.585	10.15
710.612	0.15
710.64	-1.85
710.667	-9.85
710.694	-5.85
710.722	6.15
710.749	6.15
710.776	2.15
710.804	34.15
710.831	16.15
710.858	8.15
710.885	-1.85
710.913	5.15
710.94	23.15
710.967	-4.85
710.995	-7.85
711.022	-8.85
711.049	9.15
711.076	-9.85
711.104	7.15
711.131	0.15
711.158	2.15
711.185	9.15
711.213	-4.85
711.24	-6.85
711.267	2.15
711.294	-2.85
711.322	9.15
711.349	-7.85
711.376	2.15
711.403	6.15
711.431	-2.85
711.458	4.15
711.485	-4.85
711.512	8.15
711.54	10.15
711.567	-3.85
711.594	4.15
711.621	9.15
711.648	-1.85
711.676	2.15
711.703	19.15
711.73	-5.85
711.757	-9.85
711.784	-1.85
711.812	-9.85
711.839	-11.85
711.866	-9.85
711.893	-8.85
711.92	5.15
711.947	9.15
711.975	3.15
712.002	5.15
712.029	19.15
712.056	2.15
712.083	-0.85
712.11	-14.85
712.138	-2.85
712.165	9.15
712.192	12.15
712.219	0.15
712.246	-1.85
712.273	9.15
712.3	-5.85
712.328	-7.85
712.355	-2.85
712.382	1.15
712.409	6.15
712.436	-11.85
712.463	19.15
712.49	15.15
712.517	1.15
712.544	-1.85
712.572	3.15
712.599	-8.85
712.626	-5.85
712.653	-0.85
712.68	-6.85
712.707	15.15
712.734	-1.85
712.761	0.15
712.788	6.15
712.815	13.15
712.842	12.15
712.87	-5.85
712.897	-9.85
712.924	11.15
712.951	15.15
712.978	14.15
713.005	22.15
713.032	4.15
713.059	-4.85
713.086	3.15
713.113	6.15
713.14	-13.85
713.167	-1.85
713.194	10.15
713.221	5.15
713.248	18.15
713.275	0.15
713.302	-9.85
713.329	0.15
713.356	10.15
713.383	18.15
713.41	5.15
713.437	-12.85
713.464	-1.85
713.491	4.15
713.518	3.15
713.545	-17.85
713.572	7.15
713.599	25.15
713.626	5.15
713.653	4.15
713.68	8.15
713.707	3.15
713.734	13.15
713.761	0.15
713.788	0.15
713.815	9.15
713.842	15.15
713.869	-1.85
713.896	13.15
713.923	-1.85
713.95	5.15
713.977	-9.85
714.004	-3.85
714.031	9.15
714.058	-6.85
714.085	10.15
714.112	10.15
714.139	3.15
714.165	-5.85
714.192	-10.85
714.219	-1.85
714.246	4.15
714.273	16.15
714.3	-1.85
714.327	6.15
714.354	15.15
714.381	-8.85
714.408	-7.85
714.435	-0.85
714.461	-0.85
714.488	5.15
714.515	1.15
714.542	-4.85
714.569	-7.85
714.596	-4.85
714.623	-0.85
714.65	-11.85
714.677	6.15
714.703	-1.85
714.73	10.15
714.757	0.15
714.784	-7.85
714.811	-10.85
714.838	11.15
714.865	-11.85
714.891	11.15
714.918	9.15
714.945	2.15
714.972	-5.85
714.999	7.15
715.026	-5.85
715.052	19.15
715.079	1.15
715.106	12.15
715.133	2.15
715.16	-6.85
715.187	-4.85
715.213	7.15
715.24	1.15
715.267	10.15
715.294	-13.85
715.321	-9.85
715.347	-5.85
715.374	-9.85
715.401	-7.85
715.428	-9.85
715.455	-0.85
715.481	-1.85
715.508	4.15
715.535	-20.85
715.562	14.15
715.588	12.15
715.615	-2.85
715.642	-1.85
715.669	0.15
715.695	-17.85
715.722	-2.85
715.749	-1.85
715.776	18.15
715.802	-3.85
715.829	3.15
715.856	-17.85
715.883	2.15
715.909	-9.85
715.936	-1.85
715.963	16.15
715.99	-1.85
716.016	-0.85
716.043	-5.85
716.07	12.15
716.096	-1.85
716.123	6.15
716.15	0.15
716.177	-2.85
716.203	15.15
716.23	11.15
716.257	0.15
716.283	20.15
716.31	2.15
716.337	2.15
716.363	-1.85
716.39	11.15
716.417	10.15
716.443	8.15
716.47	13.15
716.497	6.15
716.523	12.15
716.55	3.15
716.577	11.15
716.603	0.15
716.63	-5.85
716.657	2.15
716.683	-6.85
716.71	9.15
716.737	-9.85
716.763	16.15
716.79	-0.85
716.817	14.15
716.843	4.15
716.87	-6.85
716.897	-4.85
716.923	17.15
716.95	-5.85
716.976	-4.85
717.003	-9.85
717.03	0.15
717.056	14.15
717.083	5.15
717.109	3.15
717.136	-0.85
717.163	1.15
717.189	-5.85
717.216	-5.85
717.242	3.15
717.269	16.15
717.296	-1.85
717.322	-2.85
717.349	10.15
717.375	13.15
717.402	-10.85
717.428	-5.85
717.455	4.15
717.481	-4.85
717.508	9.15
717.535	7.15
717.561	-4.85
717.588	-13.85
717.614	-5.85
717.641	-3.85
717.667	7.15
717.694	12.15
717.72	2.15
717.747	9.15
717.773	-0.85
717.8	12.15
717.826	-2.85
717.853	8.15
717.88	6.15
717.906	3.15
717.933	15.15
717.959	2.15
717.986	-5.85
718.012	-11.85
718.039	3.15
718.065	-6.85
718.092	9.15
718.118	-4.85
718.144	-10.85
718.171	19.15
718.197	24.15
718.224	-4.85
718.25	-7.85
718.277	4.15
718.303	1.15
718.33	-5.85
718.356	3.15
718.383	-8.85
718.409	-2.85
718.436	-15.85
718.462	-8.85
718.489	-8.85
718.515	2.15
718.541	23.15
718.568	6.15
718.594	-13.85
718.621	3.15
718.647	-5.85
718.674	-1.85
718.7	3.15
718.726	-11.85
718.753	-1.85
718.779	7.15
718.806	-3.85
718.832	-3.85
718.858	14.15
718.885	-6.85
718.911	-10.85
718.938	21.15
718.964	8.15
718.99	6.15
719.017	4.15
719.043	-5.85
719.07	14.15
719.096	-5.85
719.122	9.15
719.149	9.15
719.175	4.15
719.201	-2.85
719.228	-7.85
719.254	8.15
719.281	3.15
719.307	3.15
719.333	7.15
719.36	22.15
719.386	11.15
719.412	9.15
719.439	-9.85
719.465	-7.85
719.491	-9.85
719.518	-1.85
719.544	-1.85
719.57	1.15
719.597	5.15
719.623	3.15
719.649	-6.85
719.675	-2.85
719.702	-0.85
719.728	11.15
719.754	-5.85
719.781	-4.85
719.807	1.15
719.833	2.15
719.86	9.15
719.886	5.15
719.912	7.15
719.938	-7.85
719.965	9.15
719.991	16.15
720.017	-2.85
720.044	-0.85
720.07	-9.85
720.096	19.15
720.122	-0.85
720.149	-9.85
720.175	19.15
720.201	-9.85
720.227	-5.85
720.254	-5.85
720.28	5.15
720.306	-9.85
720.332	6.15
720.359	0.15
720.385	4.15
720.411	9.15
720.437	4.15
720.463	7.15
720.49	4.15
720.516	-2.85
720.542	-3.85
720.568	6.15
720.595	12.15
720.621	8.15
720.647	5.15
720.673	14.15
720.699	-0.85
720.725	12.15
720.752	0.15
720.778	12.15
720.804	10.15
720.83	3.15
720.856	9.15
720.883	1.15
720.909	3.15
720.935	12.15
720.961	12.15
720.987	0.15
721.013	-15.85
721.04	-7.85
721.066	2.15
721.092	-5.85
721.118	10.15
721.144	-10.85
721.17	-1.85
721.196	-6.85
721.223	-0.85
721.249	-7.85
721.275	6.15
721.301	-6.85
721.327	20.15
721.353	1.15
721.379	4.15
721.405	11.15
721.432	6.15
721.458	0.15
721.484	2.15
721.51	-13.85
721.536	9.15
721.562	3.15
721.588	17.15
721.614	3.15
721.64	-0.85
721.666	-9.85
721.693	-13.85
721.719	-19.85
721.745	5.15
721.771	-2.85
721.797	9.15
721.823	22.15
721.849	22.15
721.875	12.15
721.901	11.15
721.927	0.15
721.953	3.15
721.979	7.15
722.005	-1.85
722.031	12.15
722.057	10.15
722.083	2.15
722.109	0.15
722.135	8.15
722.161	5.15
722.187	13.15
722.214	-0.85
722.24	10.15
722.266	0.15
722.292	13.15
722.318	14.15
722.344	-1.85
722.37	6.15
722.396	5.15
722.422	-12.85
722.448	2.15
722.474	-10.85
722.5	10.15
722.526	5.15
722.552	-3.85
722.578	4.15
722.603	16.15
722.629	-12.85
722.655	6.15
722.681	-3.85
722.707	-0.85
722.733	9.15
722.759	-12.85
722.785	-18.85
722.811	-1.85
722.837	-1.85
722.863	2.15
722.889	10.15
722.915	7.15
722.941	4.15
722.967	17.15
722.993	-0.85
723.019	-8.85
723.045	13.15
723.071	14.15
723.097	11.15
723.122	9.15
723.148	1.15
723.174	-1.85
723.2	-3.85
723.226	-13.85
723.252	17.15
723.278	-6.85
723.304	-13.85
723.33	-0.85
723.356	-14.85
723.381	-5.85
723.407	-11.85
723.433	10.15
723.459	-7.85
723.485	2.15
723.511	11.15
723.537	6.15
723.563	5.15
723.588	2.15
723.614	14.15
723.64	-4.85
723.666	-1.85
723.692	10.15
723.718	-4.85
723.744	14.15
723.769	17.15
723.795	0.15
723.821	5.15
723.847	-0.85
723.873	8.15
723.899	11.15
723.924	-1.85
723.95	4.15
723.976	-2.85
724.002	-4.85
724.028	-13.85
724.053	8.15
724.079	10.15
724.105	5.15
724.131	-4.85
724.157	-8.85
724.182	11.15
724.208	0.15
724.234	-2.85
724.26	-12.85
724.286	13.15
724.311	18.15
724.337	-9.85
724.363	-4.85
724.389	17.15
724.415	2.15
724.44	25.15
724.466	-0.85
724.492	4.15
724.518	5.15
724.543	12.15
724.569	14.15
724.595	14.15
724.621	0.15
724.646	-3.85
724.672	-14.85
724.698	-4.85
724.723	-12.85
724.749	17.15
724.775	19.15
724.801	7.15
724.826	-20.85
724.852	-7.85
724.878	-5.85
724.904	-13.85
724.929	2.15
724.955	-13.85
724.981	3.15
725.006	-0.85
725.032	-14.85
725.058	7.15
725.083	-22.85
725.109	-11.85
725.135	2.15
725.161	20.15
725.186	7.15
725.212	-15.85
725.238	-0.85
725.263	9.15
725.289	3.15
725.315	-3.85
725.34	-5.85
725.366	5.15
725.392	-0.85
725.417	0.15
725.443	10.15
725.468	-0.85
725.494	7.15
725.52	18.15
725.545	-14.85
725.571	-22.85
725.597	-9.85
725.622	4.15
725.648	2.15
725.674	20.15
725.699	-5.85
725.725	-11.85
725.75	15.15
725.776	3.15
725.802	5.15
725.827	2.15
725.853	-6.85
725.878	-10.85
725.904	5.15
725.93	-0.85
725.955	-9.85
725.981	-2.85
726.006	-2.85
726.032	8.15
726.057	-5.85
726.083	-1.85
726.109	9.15
726.134	13.15
726.16	2.15
726.185	1.15
726.211	3.15
726.236	4.15
726.262	-5.85
726.288	7.15
726.313	11.15
726.339	7.15
726.364	-2.85
726.39	5.15
726.415	-3.85
726.441	-6.85
726.466	-5.85
726.492	0.15
726.517	9.15
726.543	-2.85
726.568	-16.85
726.594	0.15
726.619	-0.85
726.645	2.15
726.67	-5.85
726.696	-1.85
726.721	-13.85
726.747	-4.85
726.772	6.15
726.798	-10.85
726.823	3.15
726.849	2.15
726.874	1.15
726.9	18.15
726.925	12.15
726.951	-11.85
726.976	11.15
727.002	-7.85
727.027	17.15
727.053	9.15
727.078	2.15
727.104	-1.85
727.129	-6.85
727.155	10.15
727.18	3.15
727.205	-5.85
727.231	-6.85
727.256	11.15
727.282	9.15
727.307	29.15
727.333	-5.85
727.358	2.15
727.383	-8.85
727.409	-7.85
727.434	13.15
727.46	-1.85
727.485	7.15
727.511	4.15
727.536	-15.85
727.561	3.15
727.587	-4.85
727.612	-0.85
727.637	-9.85
727.663	-9.85
727.688	17.15
727.714	-4.85
727.739	-3.85
727.764	2.15
727.79	4.15
727.815	15.15
727.841	14.15
727.866	17.15
727.891	-0.85
727.917	-11.85
727.942	-8.85
727.967	-1.85
727.993	2.15
728.018	10.15
728.043	-1.85
728.069	1.15
728.094	-4.85
728.119	17.15
728.145	9.15
728.17	1.15
728.195	1.15
728.221	14.15
728.246	-1.85
728.271	-5.85
728.297	16.15
728.322	4.15
728.347	11.15
728.373	3.15
728.398	-1.85
728.423	0.15
728.448	3.15
728.474	6.15
728.499	-2.85
728.524	1.15
728.55	-8.85
728.575	8.15
728.6	10.15
728.625	5.15
728.651	19.15
728.676	10.15
728.701	-2.85
728.727	10.15
728.752	-12.85
728.777	6.15
728.802	0.15
728.828	21.15
728.853	6.15
728.878	0.15
728.903	-2.85
728.929	5.15
728.954	-3.85
728.979	4.15
729.004	-1.85
729.03	-6.85
729.055	2.15
729.08	-26.85
729.105	-7.85
729.13	-2.85
729.156	6.15
729.181	6.15
729.206	-7.85
729.231	-14.85
729.256	12.15
729.282	7.15
729.307	-1.85
729.332	4.15
729.357	-6.85
729.382	4.15
729.408	8.15
729.433	4.15
729.458	15.15
729.483	-0.85
729.508	18.15
729.533	23.15
729.559	4.15
729.584	-6.85
729.609	-10.85
729.634	13.15
729.659	-13.85
729.684	-9.85
729.71	23.15
729.735	14.15
729.76	-8.85
729.785	-8.85
729.81	9.15
729.835	-0.85
729.86	3.15
729.886	2.15
729.911	9.15
729.936	9.15
729.961	24.15
729.986	41.15
730.011	75.15
730.036	206.15
730.061	1025.15
730.086	2743.15
730.112	3444.15
730.137	2910.15
730.162	2167.15
730.187	1682.15
730.212	1271.15
730.237	813.15
730.262	450.15
730.287	228.15
730.312	150.15
730.337	62.15
730.362	59.15
730.387	36.15
730.413	24.15
730.438	17.15
730.463	11.15
730.488	20.15
730.513	15.15
730.538	3.15
730.563	26.15
730.588	11.15
730.613	18.15
730.638	-0.85
730.663	0.15
730.688	25.15
730.713	16.15
730.738	5.15
730.763	18.15
730.788	-7.85
730.813	-6.85
730.838	4.15
730.863	2.15
730.888	8.15
730.913	-12.85
730.938	7.15
730.963	21.15
730.988	120.15
731.013	393.15
731.038	629.15
731.063	570.15
731.088	458.15
731.113	354.15
731.138	251.15
731.163	184.15
731.188	106.15
731.213	67.15
731.238	34.15
731.263	7.15
731.288	2.15
731.313	5.15
731.338	14.15
731.363	-5.85
731.388	7.15
731.413	-3.85
731.438	13.15
731.463	9.15
731.487	7.15
731.512	-2.85
731.537	9.15
731.562	9.15
731.587	9.15
731.612	-2.85
731.637	-6.85
731.662	2.15
731.687	2.15
731.712	-9.85
731.737	0.15
731.762	-0.85
731.786	2.15
731.811	5.15
731.836	7.15
731.861	-18.85
731.886	-19.85
731.911	8.15
731.936	14.15
731.961	-0.85
731.986	-5.85
732.01	2.15
732.035	6.15
732.06	12.15
732.085	-0.85
732.11	6.15
732.135	-7.85
732.16	1.15
732.184	-1.85
732.209	-9.85
732.234	2.15
732.259	2.15
732.284	20.15
732.309	-17.85
732.334	-6.85
732.358	-12.85
732.383	-7.85
732.408	-4.85
732.433	-4.85
732.458	6.15
732.482	7.15
732.507	5.15
732.532	-0.85
732.557	11.15
732.582	8.15
732.607	32.15
732.631	45.15
732.656	87.15
732.681	145.15
732.706	341.15
732.73	459.15
732.755	399.15
732.78	313.15
732.805	230.15
732.83	164.15
732.854	143.15
732.879	95.15
732.904	40.15
732.929	17.15
732.953	25.15
732.978	12.15
733.003	9.15
733.028	-8.85
733.052	6.15
733.077	11.15
733.102	13.15
733.127	-2.85
733.151	6.15
733.176	17.15
733.201	-3.85
733.226	1.15
733.25	2.15
733.275	11.15
733.3	15.15
733.324	16.15
733.349	-6.85
733.374	18.15
733.399	7.15
733.423	1.15
733.448	1.15
733.473	-10.85
733.497	1.15
733.522	6.15
733.547	17.15
733.571	16.15
733.596	-0.85
733.621	10.15
733.646	0.15
733.67	0.15
733.695	-6.85
733.72	-0.85
733.744	-10.85
733.769	-5.85
733.794	-4.85
733.818	-10.85
733.843	-11.85
733.867	-5.85
733.892	-0.85
733.917	-0.85
733.941	3.15
733.966	-14.85
733.991	12.15
734.015	23.15
734.04	12.15
734.065	17.15
734.089	17.15
734.114	-8.85
734.138	8.15
734.163	4.15
734.188	4.15
734.212	9.15
734.237	9.15
734.261	1.15
734.286	-8.85
734.311	-5.85
734.335	12.15
734.36	9.15
734.384	-0.85
734.409	9.15
734.434	17.15
734.458	-4.85
734.483	-4.85
734.507	-4.85
734.532	-12.85
734.556	11.15
734.581	-1.85
734.606	9.15
734.63	-0.85
734.655	-2.85
734.679	3.15
734.704	6.15
734.728	-1.85
734.753	7.15
734.777	4.15
734.802	-2.85
734.826	15.15
734.851	-0.85
734.876	22.15
734.9	26.15
734.925	8.15
734.949	3.15
734.974	14.15
734.998	15.15
735.023	-8.85
735.047	-18.85
735.072	11.15
735.096	12.15
735.121	0.15
735.145	-7.85
735.17	-6.85
735.194	-1.85
735.219	9.15
735.243	4.15
735.268	2.15
735.292	5.15
735.317	9.15
735.341	5.15
735.365	-4.85
735.39	11.15
735.414	1.15
735.439	-0.85
735.463	4.15
735.488	6.15
735.512	-1.85
735.537	9.15
735.561	2.15
735.586	5.15
735.61	13.15
735.634	-1.85
735.659	9.15
735.683	17.15
735.708	-10.85
735.732	-7.85
735.757	-1.85
735.781	2.15
735.805	16.15
735.83	5.15
735.854	-9.85
735.879	3.15
735.903	-0.85
735.927	18.15
735.952	2.15
735.976	1.15
736.001	-4.85
736.025	-4.85
736.049	-0.85
736.074	-6.85
736.098	-7.85
736.123	14.15
736.147	-2.85
736.171	12.15
736.196	1.15
736.22	-11.85
736.244	-2.85
736.269	3.15
736.293	6.15
736.317	6.15
736.342	-1.85
736.366	4.15
736.39	5.15
736.415	-7.85
736.439	7.15
736.463	3.15
736.488	12.15
736.512	1.15
736.536	-2.85
736.561	33.15
736.585	-8.85
736.609	5.15
736.634	3.15
736.658	2.15
736.682	-5.85
736.707	2.15
736.731	-6.85
736.755	2.15
736.78	-5.85
736.804	2.15
736.828	11.15
736.852	12.15
736.877	15.15
736.901	5.15
736.925	-0.85
736.949	9.15
736.974	2.15
736.998	-7.85
737.022	8.15
737.047	-1.85
737.071	11.15
737.095	9.15
737.119	11.15
737.144	12.15
737.168	6.15
737.192	5.15
737.216	-6.85
737.241	-4.85
737.265	6.15
737.289	-9.85
737.313	-4.85
737.337	6.15
737.362	19.15
737.386	-5.85
737.41	4.15
737.434	9.15
737.459	1.15
737.483	6.15
737.507	15.15
737.531	3.15
737.555	7.15
737.58	1.15
737.604	5.15
737.628	-13.85
737.652	1.15
737.676	-4.85
737.701	2.15
737.725	-13.85
737.749	10.15
737.773	-2.85
737.797	-0.85
737.821	-7.85
737.846	3.15
737.87	26.15
737.894	-7.85
737.918	-9.85
737.942	-8.85
737.966	11.15
737.99	9.15
738.015	2.15
738.039	2.15
738.063	-1.85
738.087	-0.85
738.111	-3.85
738.135	22.15
738.159	-6.85
738.184	2.15
738.208	9.15
738.232	10.15
738.256	22.15
738.28	18.15
738.304	21.15
738.328	-1.85
738.352	7.15
738.376	4.15
738.4	3.15
738.425	22.15
738.449	1.15
738.473	17.15
738.497	18.15
738.521	10.15
738.545	7.15
738.569	12.15
738.593	15.15
738.617	9.15
738.641	5.15
738.665	-6.85
738.689	-1.85
738.713	-10.85
738.737	-6.85
738.762	24.15
738.786	8.15
738.81	-6.85
738.834	25.15
738.858	-4.85
738.882	-1.85
738.906	6.15
738.93	-7.85
738.954	11.15
738.978	5.15
739.002	1.15
739.026	10.15
739.05	3.15
739.074	9.15
739.098	34.15
739.122	21.15
739.146	-5.85
739.17	21.15
739.194	2.15
739.218	-7.85
739.242	-2.85
739.266	-4.85
739.29	11.15
739.314	22.15
739.338	18.15
739.362	-2.85
739.386	-2.85
739.41	-6.85
739.434	-12.85
739.458	19.15
739.482	8.15
739.506	4.15
739.53	2.15
739.554	19.15
739.577	-6.85
739.601	2.15
739.625	-8.85
739.649	-13.85
739.673	-10.85
739.697	6.15
739.721	2.15
739.745	-0.85
739.769	13.15
739.793	19.15
739.817	13.15
739.841	-9.85
739.865	-4.85
739.889	-12.85
739.912	-1.85
739.936	-2.85
739.96	-8.85
739.984	-0.85
740.008	9.15
740.032	2.15
740.056	5.15
740.08	2.15
740.104	0.15
740.127	9.15
740.151	7.15
740.175	3.15
740.199	9.15
740.223	66.15
740.247	20.15
740.271	5.15
740.295	-11.85
740.318	-18.85
740.342	-0.85
740.366	-6.85
740.39	15.15
740.414	-0.85
740.438	-3.85
740.461	6.15
740.485	6.15
740.509	-0.85
740.533	2.15
740.557	-0.85
740.581	-0.85
740.604	-11.85
740.628	1.15
740.652	9.15
740.676	-6.85
740.7	19.15
740.723	-3.85
740.747	-28.85
740.771	-5.85
740.795	-13.85
740.819	15.15
740.842	9.15
740.866	3.15
740.89	6.15
740.914	5.15
740.938	-3.85
740.961	10.15
740.985	0.15
741.009	-7.85
741.033	-7.85
741.056	-7.85
741.08	17.15
741.104	5.15
741.128	18.15
741.151	10.15
741.175	3.15
741.199	9.15
741.223	16.15
741.246	0.15
741.27	6.15
741.294	7.15
741.318	4.15
741.341	6.15
741.365	1.15
741.389	5.15
741.413	3.15
741.436	8.15
741.46	18.15
741.484	11.15
741.507	9.15
741.531	17.15
741.555	3.15
741.579	-0.85
741.602	5.15
741.626	6.15
741.65	8.15
741.673	1.15
741.697	12.15
741.721	7.15
741.744	-13.85
741.768	-0.85
741.792	6.15
741.815	-6.85
741.839	21.15
741.863	31.15
741.886	16.15
741.91	3.15
741.934	5.15
741.957	-6.85
741.981	10.15
742.005	5.15
742.028	2.15
742.052	-7.85
742.075	10.15
742.099	5.15
742.123	-1.85
742.146	3.15
742.17	-2.85
742.194	2.15
742.217	-3.85
742.241	4.15
742.264	-2.85
742.288	16.15
742.312	3.15
742.335	1.15
742.359	7.15
742.382	19.15
742.406	4.15
742.43	-5.85
742.453	5.15
742.477	-7.85
742.5	-0.85
742.524	7.15
742.548	20.15
742.571	7.15
742.595	5.15
742.618	-17.85
742.642	1.15
742.665	11.15
742.689	-10.85
742.712	2.15
742.736	-1.85
742.76	7.15
742.783	4.15
742.807	14.15
742.83	8.15
742.854	-18.85
742.877	-9.85
742.901	-7.85
742.924	-9.85
742.948	14.15
742.971	-3.85
742.995	-5.85
743.018	-29.85
743.042	-10.85
743.065	-13.85
743.089	-5.85
743.112	19.15
743.136	-12.85
743.159	-10.85
743.183	10.15
743.206	10.15
743.23	9.15
743.253	-1.85
743.277	13.15
743.3	-2.85
743.324	8.15
743.347	-8.85
743.371	18.15
743.394	9.15
743.418	9.15
743.441	26.15
743.465	4.15
743.488	11.15
743.512	-8.85
743.535	8.15
743.558	7.15
743.582	5.15
743.605	1.15
743.629	-2.85
743.652	10.15
743.676	-1.85
743.699	5.15
743.723	19.15
743.746	3.15
743.769	-1.85
743.793	6.15
743.816	7.15
743.84	17.15
743.863	19.15
743.886	14.15
743.91	26.15
743.933	1.15
743.957	-13.85
743.98	-2.85
744.003	-1.85
744.027	-7.85
744.05	-2.85
744.074	1.15
744.097	-14.85
744.12	2.15
744.144	3.15
744.167	9.15
744.19	-2.85
744.214	9.15
744.237	-6.85
744.26	15.15
744.284	5.15
744.307	-7.85
744.331	7.15
744.354	8.15
744.377	-6.85
744.401	1.15
744.424	7.15
744.447	-18.85
744.471	-14.85
