Data from HighRes_mercury_15_13_11_07_2024_HR4C61891__32__15-14-26-386.txt Node

Date: Thu Nov 07 15:14:26 EST 2024
User: crc00042
Spectrometer: HR4C6189
Trigger mode: 4
Integration Time (sec): 1.000000E-1
Scans to average: 1
Electric dark correction enabled: true
Nonlinearity correction enabled: false
Boxcar width: 0
XAxis mode: Wavelengths
Number of Pixels in Spectrum: 3648
>>>>>Begin Spectral Data<<<<<
639.567	-34.77
639.602	-34.77
639.636	-34.77
639.67	-48.77
639.704	-23.77
639.738	11.23
639.773	-1.77
639.807	-6.77
639.841	8.23
639.875	13.23
639.909	4.23
639.943	-15.77
639.978	-2.77
640.012	-2.77
640.046	-5.77
640.08	7.23
640.114	-10.77
640.148	2.23
640.182	-13.77
640.217	-22.77
640.251	18.23
640.285	11.23
640.319	-8.77
640.353	-1.77
640.387	3.23
640.421	-4.77
640.455	-18.77
640.49	-15.77
640.524	14.23
640.558	-2.77
640.592	-8.77
640.626	-4.77
640.66	3.23
640.694	-17.77
640.728	-13.77
640.762	-2.77
640.796	-2.77
640.83	12.23
640.865	-1.77
640.899	-10.77
640.933	-1.77
640.967	3.23
641.001	-7.77
641.035	-17.77
641.069	2.23
641.103	3.23
641.137	12.23
641.171	-16.77
641.205	2.23
641.239	-2.77
641.273	18.23
641.307	20.23
641.341	-4.77
641.375	12.23
641.409	6.23
641.443	1.23
641.477	6.23
641.511	18.23
641.545	0.23
641.579	-2.77
641.614	-3.77
641.648	12.23
641.682	-17.77
641.716	17.23
641.75	26.23
641.784	-4.77
641.818	0.23
641.852	-5.77
641.886	-27.77
641.919	20.23
641.953	-0.77
641.987	-12.77
642.021	10.23
642.055	11.23
642.089	4.23
642.123	-10.77
642.157	-18.77
642.191	-14.77
642.225	9.23
642.259	3.23
642.293	15.23
642.327	13.23
642.361	-12.77
642.395	-0.77
642.429	-2.77
642.463	1.23
642.497	7.23
642.531	-13.77
642.565	-8.77
642.599	-7.77
642.633	-4.77
642.666	1.23
642.7	13.23
642.734	21.23
642.768	-4.77
642.802	4.23
642.836	2.23
642.87	-10.77
642.904	4.23
642.938	-2.77
642.972	-15.77
643.005	8.23
643.039	11.23
643.073	-5.77
643.107	14.23
643.141	5.23
643.175	-6.77
643.209	-4.77
643.243	3.23
643.276	5.23
643.31	-1.77
643.344	-4.77
643.378	11.23
643.412	14.23
643.446	12.23
643.48	-1.77
643.513	16.23
643.547	-1.77
643.581	-11.77
643.615	16.23
643.649	4.23
643.683	2.23
643.716	-8.77
643.75	-17.77
643.784	-19.77
643.818	3.23
643.852	-9.77
643.886	-14.77
643.919	18.23
643.953	-0.77
643.987	-14.77
644.021	2.23
644.055	-0.77
644.088	-2.77
644.122	-2.77
644.156	-11.77
644.19	-5.77
644.224	8.23
644.257	9.23
644.291	14.23
644.325	10.23
644.359	-10.77
644.392	3.23
644.426	3.23
644.46	2.23
644.494	6.23
644.527	-6.77
644.561	7.23
644.595	-9.77
644.629	4.23
644.662	-13.77
644.696	14.23
644.73	-4.77
644.764	0.23
644.797	5.23
644.831	-2.77
644.865	13.23
644.899	2.23
644.932	28.23
644.966	2.23
645	3.23
645.033	5.23
645.067	-6.77
645.101	12.23
645.135	3.23
645.168	-0.77
645.202	-3.77
645.236	1.23
645.269	16.23
645.303	-14.77
645.337	-20.77
645.37	-6.77
645.404	-2.77
645.438	-5.77
645.471	-11.77
645.505	-1.77
645.539	7.23
645.572	-5.77
645.606	-0.77
645.64	2.23
645.673	-2.77
645.707	12.23
645.741	-15.77
645.774	-20.77
645.808	-4.77
645.842	-7.77
645.875	7.23
645.909	1.23
645.943	-6.77
645.976	4.23
646.01	-1.77
646.043	15.23
646.077	15.23
646.111	3.23
646.144	12.23
646.178	13.23
646.212	-8.77
646.245	-2.77
646.279	0.23
646.312	7.23
646.346	28.23
646.38	-1.77
646.413	8.23
646.447	12.23
646.48	11.23
646.514	8.23
646.547	-13.77
646.581	-14.77
646.615	-1.77
646.648	-15.77
646.682	9.23
646.715	-10.77
646.749	5.23
646.782	-12.77
646.816	-3.77
646.85	2.23
646.883	-7.77
646.917	16.23
646.95	2.23
646.984	11.23
647.017	5.23
647.051	-7.77
647.084	8.23
647.118	2.23
647.151	-3.77
647.185	4.23
647.218	-13.77
647.252	-3.77
647.285	-2.77
647.319	2.23
647.353	-1.77
647.386	15.23
647.42	1.23
647.453	-1.77
647.487	4.23
647.52	3.23
647.553	3.23
647.587	2.23
647.62	5.23
647.654	-2.77
647.687	-0.77
647.721	-0.77
647.754	-15.77
647.788	-1.77
647.821	-18.77
647.855	16.23
647.888	5.23
647.922	22.23
647.955	-1.77
647.989	-11.77
648.022	0.23
648.055	-0.77
648.089	-11.77
648.122	17.23
648.156	-2.77
648.189	2.23
648.223	2.23
648.256	12.23
648.29	-8.77
648.323	-0.77
648.356	2.23
648.39	-8.77
648.423	13.23
648.457	9.23
648.49	10.23
648.523	11.23
648.557	1.23
648.59	-6.77
648.624	-14.77
648.657	8.23
648.69	-7.77
648.724	2.23
648.757	5.23
648.791	10.23
648.824	5.23
648.857	0.23
648.891	-8.77
648.924	-9.77
648.957	14.23
648.991	-11.77
649.024	-2.77
649.057	-13.77
649.091	-0.77
649.124	13.23
649.158	-0.77
649.191	11.23
649.224	-7.77
649.258	12.23
649.291	4.23
649.324	-0.77
649.358	2.23
649.391	16.23
649.424	4.23
649.458	10.23
649.491	-1.77
649.524	1.23
649.557	-4.77
649.591	-16.77
649.624	19.23
649.657	-10.77
649.691	-4.77
649.724	-12.77
649.757	-11.77
649.791	-23.77
649.824	-0.77
649.857	8.23
649.89	-5.77
649.924	-15.77
649.957	-5.77
649.99	-19.77
650.023	0.23
650.057	2.23
650.09	10.23
650.123	2.23
650.157	3.23
650.19	0.23
650.223	-5.77
650.256	-1.77
650.29	-14.77
650.323	-9.77
650.356	7.23
650.389	-4.77
650.423	-15.77
650.456	4.23
650.489	4.23
650.522	6.23
650.555	32.23
650.589	22.23
650.622	-4.77
650.655	9.23
650.688	-5.77
650.721	-3.77
650.755	7.23
650.788	3.23
650.821	-1.77
650.854	1.23
650.887	0.23
650.921	-3.77
650.954	-5.77
650.987	8.23
651.02	-5.77
651.053	-23.77
651.087	-17.77
651.12	9.23
651.153	17.23
651.186	-0.77
651.219	-15.77
651.252	0.23
651.286	14.23
651.319	-5.77
651.352	-4.77
651.385	-7.77
651.418	-16.77
651.451	17.23
651.484	-3.77
651.518	-14.77
651.551	10.23
651.584	2.23
651.617	12.23
651.65	3.23
651.683	7.23
651.716	1.23
651.749	-1.77
651.783	4.23
651.816	4.23
651.849	2.23
651.882	9.23
651.915	-1.77
651.948	1.23
651.981	-8.77
652.014	-24.77
652.047	-13.77
652.08	-22.77
652.114	-0.77
652.147	-20.77
652.18	9.23
652.213	17.23
652.246	-10.77
652.279	-0.77
652.312	-1.77
652.345	4.23
652.378	8.23
652.411	28.23
652.444	12.23
652.477	-6.77
652.51	0.23
652.543	-9.77
652.576	2.23
652.609	-9.77
652.642	-2.77
652.675	5.23
652.709	-6.77
652.742	4.23
652.775	3.23
652.808	-0.77
652.841	-8.77
652.874	-8.77
652.907	22.23
652.94	11.23
652.973	-4.77
653.006	-10.77
653.039	-5.77
653.072	1.23
653.105	-15.77
653.138	-19.77
653.171	-7.77
653.204	2.23
653.237	5.23
653.27	-17.77
653.303	2.23
653.336	8.23
653.368	-11.77
653.401	3.23
653.434	-4.77
653.467	7.23
653.5	-10.77
653.533	-26.77
653.566	-4.77
653.599	-8.77
653.632	-11.77
653.665	8.23
653.698	-9.77
653.731	-34.77
653.764	5.23
653.797	-3.77
653.83	-2.77
653.863	-11.77
653.896	1.23
653.929	14.23
653.961	-3.77
653.994	-15.77
654.027	-1.77
654.06	1.23
654.093	-2.77
654.126	5.23
654.159	-11.77
654.192	0.23
654.225	-4.77
654.258	0.23
654.29	-3.77
654.323	-2.77
654.356	-9.77
654.389	-1.77
654.422	-10.77
654.455	-7.77
654.488	1.23
654.521	-1.77
654.553	-8.77
654.586	1.23
654.619	19.23
654.652	1.23
654.685	19.23
654.718	5.23
654.751	-0.77
654.783	2.23
654.816	10.23
654.849	-11.77
654.882	-5.77
654.915	-10.77
654.948	-5.77
654.98	3.23
655.013	6.23
655.046	-0.77
655.079	-15.77
655.112	14.23
655.144	-18.77
655.177	-9.77
655.21	5.23
655.243	10.23
655.276	-2.77
655.308	0.23
655.341	-15.77
655.374	2.23
655.407	-8.77
655.44	-20.77
655.472	9.23
655.505	16.23
655.538	8.23
655.571	22.23
655.603	1.23
655.636	3.23
655.669	13.23
655.702	6.23
655.734	-6.77
655.767	1.23
655.8	14.23
655.833	1.23
655.865	1.23
655.898	-14.77
655.931	-4.77
655.964	-5.77
655.996	12.23
656.029	8.23
656.062	8.23
656.095	7.23
656.127	-25.77
656.16	1.23
656.193	11.23
656.225	-5.77
656.258	-11.77
656.291	-0.77
656.324	3.23
656.356	8.23
656.389	4.23
656.422	-3.77
656.454	-13.77
656.487	-9.77
656.52	0.23
656.552	-1.77
656.585	19.23
656.618	18.23
656.65	15.23
656.683	10.23
656.716	-7.77
656.748	-10.77
656.781	-6.77
656.814	7.23
656.846	5.23
656.879	1.23
656.912	-4.77
656.944	-25.77
656.977	-11.77
657.01	-6.77
657.042	-0.77
657.075	-4.77
657.108	-13.77
657.14	-2.77
657.173	-3.77
657.205	13.23
657.238	8.23
657.271	3.23
657.303	-5.77
657.336	-2.77
657.369	-9.77
657.401	-8.77
657.434	-7.77
657.466	-3.77
657.499	-11.77
657.532	-9.77
657.564	0.23
657.597	-2.77
657.629	-4.77
657.662	7.23
657.694	6.23
657.727	-24.77
657.76	-3.77
657.792	-7.77
657.825	-13.77
657.857	0.23
657.89	1.23
657.922	4.23
657.955	-3.77
657.987	12.23
658.02	12.23
658.053	2.23
658.085	9.23
658.118	3.23
658.15	-3.77
658.183	26.23
658.215	-8.77
658.248	-9.77
658.28	-14.77
658.313	6.23
658.345	0.23
658.378	-1.77
658.41	-0.77
658.443	7.23
658.475	13.23
658.508	1.23
658.54	-7.77
658.573	-8.77
658.605	-0.77
658.638	-2.77
658.67	-8.77
658.703	2.23
658.735	3.23
658.768	-4.77
658.8	-18.77
658.833	10.23
658.865	4.23
658.898	-0.77
658.93	-2.77
658.963	-3.77
658.995	-13.77
659.028	-5.77
659.06	9.23
659.092	6.23
659.125	-12.77
659.157	7.23
659.19	-10.77
659.222	-8.77
659.255	0.23
659.287	0.23
659.32	-4.77
659.352	-1.77
659.384	11.23
659.417	-11.77
659.449	4.23
659.482	12.23
659.514	1.23
659.546	-9.77
659.579	-17.77
659.611	-4.77
659.644	-9.77
659.676	-9.77
659.708	-9.77
659.741	1.23
659.773	4.23
659.806	10.23
659.838	5.23
659.87	-11.77
659.903	-17.77
659.935	-0.77
659.967	12.23
660	1.23
660.032	-16.77
660.065	4.23
660.097	-18.77
660.129	1.23
660.162	-0.77
660.194	7.23
660.226	2.23
660.259	9.23
660.291	5.23
660.323	-15.77
660.356	0.23
660.388	-7.77
660.42	-17.77
660.453	-8.77
660.485	2.23
660.517	9.23
660.55	16.23
660.582	2.23
660.614	5.23
660.647	-5.77
660.679	-7.77
660.711	-8.77
660.743	-15.77
660.776	-29.77
660.808	-20.77
660.84	-12.77
660.873	-9.77
660.905	-4.77
660.937	-7.77
660.969	2.23
661.002	-5.77
661.034	9.23
661.066	-5.77
661.099	7.23
661.131	10.23
661.163	-3.77
661.195	-1.77
661.228	14.23
661.26	-4.77
661.292	-10.77
661.324	-11.77
661.357	6.23
661.389	2.23
661.421	1.23
661.453	-6.77
661.485	-7.77
661.518	-4.77
661.55	-7.77
661.582	-21.77
661.614	-8.77
661.647	0.23
661.679	3.23
661.711	1.23
661.743	-7.77
661.775	-3.77
661.808	7.23
661.84	-2.77
661.872	12.23
661.904	0.23
661.936	-0.77
661.969	-14.77
662.001	0.23
662.033	7.23
662.065	0.23
662.097	14.23
662.129	18.23
662.162	-11.77
662.194	2.23
662.226	-2.77
662.258	10.23
662.29	-8.77
662.322	-16.77
662.355	-16.77
662.387	14.23
662.419	17.23
662.451	-0.77
662.483	10.23
662.515	-5.77
662.547	2.23
662.58	-8.77
662.612	1.23
662.644	-18.77
662.676	4.23
662.708	17.23
662.74	-5.77
662.772	-5.77
662.804	-4.77
662.836	1.23
662.869	-11.77
662.901	12.23
662.933	-2.77
662.965	18.23
662.997	19.23
663.029	-11.77
663.061	-6.77
663.093	0.23
663.125	0.23
663.157	12.23
663.189	3.23
663.221	2.23
663.254	-6.77
663.286	0.23
663.318	-6.77
663.35	-5.77
663.382	-13.77
663.414	-11.77
663.446	20.23
663.478	3.23
663.51	16.23
663.542	-6.77
663.574	-10.77
663.606	12.23
663.638	-19.77
663.67	-14.77
663.702	-18.77
663.734	-3.77
663.766	4.23
663.798	5.23
663.83	8.23
663.862	10.23
663.894	14.23
663.926	-2.77
663.958	-1.77
663.99	-5.77
664.022	-10.77
664.054	-4.77
664.086	-3.77
664.118	-19.77
664.15	-18.77
664.182	7.23
664.214	2.23
664.246	-3.77
664.278	5.23
664.31	6.23
664.342	-3.77
664.374	-1.77
664.406	-1.77
664.438	-3.77
664.47	9.23
664.502	-4.77
664.534	2.23
664.566	-7.77
664.598	3.23
664.63	-3.77
664.662	3.23
664.693	-1.77
664.725	-4.77
664.757	3.23
664.789	-18.77
664.821	0.23
664.853	4.23
664.885	-3.77
664.917	-1.77
664.949	2.23
664.981	17.23
665.013	4.23
665.045	-14.77
665.076	-12.77
665.108	-15.77
665.14	-2.77
665.172	1.23
665.204	-11.77
665.236	-5.77
665.268	3.23
665.3	-7.77
665.331	-23.77
665.363	-2.77
665.395	-1.77
665.427	-8.77
665.459	-3.77
665.491	-14.77
665.523	-5.77
665.555	-12.77
665.586	-1.77
665.618	2.23
665.65	-11.77
665.682	8.23
665.714	-7.77
665.746	-10.77
665.777	0.23
665.809	-1.77
665.841	-5.77
665.873	-4.77
665.905	-2.77
665.937	13.23
665.968	3.23
666	-7.77
666.032	16.23
666.064	-0.77
666.096	-12.77
666.127	3.23
666.159	16.23
666.191	-2.77
666.223	5.23
666.255	6.23
666.286	1.23
666.318	-4.77
666.35	12.23
666.382	8.23
666.413	-10.77
666.445	-6.77
666.477	-10.77
666.509	-11.77
666.54	-0.77
666.572	-3.77
666.604	0.23
666.636	-11.77
666.667	-0.77
666.699	12.23
666.731	9.23
666.763	2.23
666.794	1.23
666.826	-7.77
666.858	-6.77
666.89	19.23
666.921	6.23
666.953	5.23
666.985	3.23
667.017	0.23
667.048	-3.77
667.08	-2.77
667.112	5.23
667.143	-0.77
667.175	11.23
667.207	7.23
667.238	0.23
667.27	-2.77
667.302	6.23
667.334	-12.77
667.365	-0.77
667.397	-9.77
667.429	-7.77
667.46	21.23
667.492	1.23
667.524	-10.77
667.555	-4.77
667.587	16.23
667.619	-3.77
667.65	-24.77
667.682	-6.77
667.714	8.23
667.745	-19.77
667.777	-15.77
667.808	-8.77
667.84	-4.77
667.872	-3.77
667.903	17.23
667.935	-1.77
667.967	-10.77
667.998	-7.77
668.03	-0.77
668.061	11.23
668.093	4.23
668.125	-0.77
668.156	-14.77
668.188	-13.77
668.22	-20.77
668.251	4.23
668.283	9.23
668.314	21.23
668.346	5.23
668.377	2.23
668.409	14.23
668.441	17.23
668.472	11.23
668.504	12.23
668.535	14.23
668.567	7.23
668.599	1.23
668.63	10.23
668.662	-3.77
668.693	10.23
668.725	-1.77
668.756	17.23
668.788	6.23
668.819	-0.77
668.851	-6.77
668.882	15.23
668.914	7.23
668.946	2.23
668.977	-5.77
669.009	-14.77
669.04	-8.77
669.072	4.23
669.103	6.23
669.135	0.23
669.166	-24.77
669.198	-4.77
669.229	0.23
669.261	0.23
669.292	0.23
669.324	2.23
669.355	4.23
669.387	-11.77
669.418	-6.77
669.45	-4.77
669.481	7.23
669.513	5.23
669.544	-5.77
669.576	6.23
669.607	35.23
669.639	34.23
669.67	-1.77
669.701	6.23
669.733	-20.77
669.764	-0.77
669.796	0.23
669.827	-19.77
669.859	0.23
669.89	15.23
669.922	27.23
669.953	-2.77
669.985	12.23
670.016	10.23
670.047	-6.77
670.079	7.23
670.11	10.23
670.142	8.23
670.173	-8.77
670.204	0.23
670.236	2.23
670.267	-12.77
670.299	0.23
670.33	-8.77
670.362	4.23
670.393	-13.77
670.424	1.23
670.456	-8.77
670.487	-9.77
670.518	0.23
670.55	-7.77
670.581	-5.77
670.613	4.23
670.644	-7.77
670.675	-5.77
670.707	-6.77
670.738	7.23
670.769	-4.77
670.801	-2.77
670.832	4.23
670.864	-11.77
670.895	0.23
670.926	-17.77
670.958	-6.77
670.989	-0.77
671.02	-9.77
671.052	9.23
671.083	-3.77
671.114	-1.77
671.146	2.23
671.177	10.23
671.208	-2.77
671.24	-8.77
671.271	-12.77
671.302	-8.77
671.333	8.23
671.365	-6.77
671.396	-8.77
671.427	12.23
671.459	4.23
671.49	-12.77
671.521	-0.77
671.553	7.23
671.584	0.23
671.615	5.23
671.646	-0.77
671.678	-0.77
671.709	-6.77
671.74	-30.77
671.771	-7.77
671.803	-20.77
671.834	-8.77
671.865	-10.77
671.896	-3.77
671.928	-1.77
671.959	-9.77
671.99	-8.77
672.021	-4.77
672.053	-6.77
672.084	22.23
672.115	6.23
672.146	-8.77
672.178	-13.77
672.209	-9.77
672.24	-3.77
672.271	16.23
672.303	8.23
672.334	-7.77
672.365	11.23
672.396	1.23
672.427	-4.77
672.459	17.23
672.49	28.23
672.521	4.23
672.552	3.23
672.583	2.23
672.615	-13.77
672.646	-0.77
672.677	-4.77
672.708	-3.77
672.739	3.23
672.77	24.23
672.802	13.23
672.833	-8.77
672.864	6.23
672.895	-5.77
672.926	-10.77
672.957	-6.77
672.989	8.23
673.02	10.23
673.051	-7.77
673.082	19.23
673.113	-8.77
673.144	-3.77
673.175	-6.77
673.206	-10.77
673.238	-2.77
673.269	-6.77
673.3	-3.77
673.331	-1.77
673.362	-2.77
673.393	6.23
673.424	-5.77
673.455	27.23
673.487	-5.77
673.518	7.23
673.549	6.23
673.58	5.23
673.611	4.23
673.642	-4.77
673.673	-0.77
673.704	0.23
673.735	-11.77
673.766	-4.77
673.797	-7.77
673.828	-3.77
673.86	-9.77
673.891	5.23
673.922	0.23
673.953	-13.77
673.984	-0.77
674.015	18.23
674.046	0.23
674.077	5.23
674.108	-6.77
674.139	8.23
674.17	-5.77
674.201	-10.77
674.232	9.23
674.263	-0.77
674.294	-13.77
674.325	-7.77
674.356	-4.77
674.387	7.23
674.418	22.23
674.449	-3.77
674.48	-7.77
674.511	-6.77
674.542	-0.77
674.573	5.23
674.604	5.23
674.635	3.23
674.666	0.23
674.697	-0.77
674.728	-1.77
674.759	3.23
674.79	4.23
674.821	1.23
674.852	-2.77
674.883	-21.77
674.914	-6.77
674.945	-1.77
674.976	-12.77
675.007	-14.77
675.038	-2.77
675.069	-15.77
675.1	-2.77
675.131	-1.77
675.162	-21.77
675.193	-25.77
675.224	-8.77
675.254	12.23
675.285	5.23
675.316	17.23
675.347	-10.77
675.378	-12.77
675.409	-13.77
675.44	3.23
675.471	3.23
675.502	-7.77
675.533	7.23
675.564	-8.77
675.595	-4.77
675.625	15.23
675.656	9.23
675.687	15.23
675.718	-18.77
675.749	9.23
675.78	-8.77
675.811	-9.77
675.842	-9.77
675.873	-17.77
675.903	-8.77
675.934	1.23
675.965	-21.77
675.996	-9.77
676.027	-3.77
676.058	-2.77
676.089	-11.77
676.119	1.23
676.15	-1.77
676.181	3.23
676.212	-0.77
676.243	1.23
676.274	-3.77
676.304	19.23
676.335	-7.77
676.366	-0.77
676.397	4.23
676.428	-2.77
676.459	-0.77
676.489	-4.77
676.52	-11.77
676.551	10.23
676.582	-13.77
676.613	1.23
676.643	-1.77
676.674	9.23
676.705	3.23
676.736	-12.77
676.767	7.23
676.797	9.23
676.828	-11.77
676.859	0.23
676.89	3.23
676.92	2.23
676.951	1.23
676.982	-1.77
677.013	-2.77
677.044	2.23
677.074	18.23
677.105	-9.77
677.136	6.23
677.167	2.23
677.197	6.23
677.228	5.23
677.259	10.23
677.289	7.23
677.32	-12.77
677.351	-2.77
677.382	-7.77
677.412	-12.77
677.443	5.23
677.474	-4.77
677.505	-9.77
677.535	-0.77
677.566	7.23
677.597	-23.77
677.627	-17.77
677.658	-0.77
677.689	-5.77
677.72	3.23
677.75	-0.77
677.781	-2.77
677.812	8.23
677.842	10.23
677.873	1.23
677.904	-3.77
677.934	-1.77
677.965	-2.77
677.996	-4.77
678.026	-0.77
678.057	-1.77
678.088	-10.77
678.118	-4.77
678.149	-24.77
678.18	-10.77
678.21	-10.77
678.241	-15.77
678.272	-8.77
678.302	-9.77
678.333	-1.77
678.363	-3.77
678.394	-1.77
678.425	-7.77
678.455	5.23
678.486	1.23
678.517	-5.77
678.547	-16.77
678.578	-0.77
678.608	-10.77
678.639	7.23
678.67	0.23
678.7	-8.77
678.731	-0.77
678.761	-4.77
678.792	-15.77
678.823	13.23
678.853	24.23
678.884	-0.77
678.914	2.23
678.945	2.23
678.975	-2.77
679.006	14.23
679.037	-0.77
679.067	20.23
679.098	-0.77
679.128	2.23
679.159	-15.77
679.189	3.23
679.22	-15.77
679.25	23.23
679.281	1.23
679.312	-5.77
679.342	-3.77
679.373	21.23
679.403	0.23
679.434	9.23
679.464	-2.77
679.495	0.23
679.525	1.23
679.556	3.23
679.586	10.23
679.617	-2.77
679.647	19.23
679.678	-1.77
679.708	-14.77
679.739	-6.77
679.769	18.23
679.8	8.23
679.83	20.23
679.861	14.23
679.891	0.23
679.922	-23.77
679.952	-3.77
679.983	-9.77
680.013	-5.77
680.044	-14.77
680.074	7.23
680.105	3.23
680.135	6.23
680.165	5.23
680.196	1.23
680.226	-3.77
680.257	-5.77
680.287	-20.77
680.318	-8.77
680.348	-20.77
680.379	12.23
680.409	-0.77
680.439	-3.77
680.47	13.23
680.5	-5.77
680.531	0.23
680.561	11.23
680.592	4.23
680.622	7.23
680.652	-2.77
680.683	5.23
680.713	-12.77
680.744	6.23
680.774	-1.77
680.804	13.23
680.835	-19.77
680.865	-15.77
680.896	-3.77
680.926	16.23
680.956	12.23
680.987	12.23
681.017	-14.77
681.047	2.23
681.078	-5.77
681.108	-4.77
681.139	-3.77
681.169	-3.77
681.199	-0.77
681.23	9.23
681.26	-6.77
681.29	4.23
681.321	4.23
681.351	-5.77
681.381	-16.77
681.412	0.23
681.442	-8.77
681.472	14.23
681.503	-1.77
681.533	-0.77
681.563	-11.77
681.594	-7.77
681.624	11.23
681.654	-1.77
681.685	-10.77
681.715	-2.77
681.745	10.23
681.775	9.23
681.806	6.23
681.836	3.23
681.866	3.23
681.897	-7.77
681.927	-6.77
681.957	-21.77
681.987	5.23
682.018	-0.77
682.048	6.23
682.078	-3.77
682.109	22.23
682.139	10.23
682.169	3.23
682.199	-4.77
682.23	-7.77
682.26	-2.77
682.29	-12.77
682.32	-12.77
682.351	-1.77
682.381	2.23
682.411	-13.77
682.441	-13.77
682.472	1.23
682.502	5.23
682.532	-4.77
682.562	7.23
682.592	14.23
682.623	11.23
682.653	13.23
682.683	-1.77
682.713	3.23
682.743	-1.77
682.774	1.23
682.804	3.23
682.834	14.23
682.864	-1.77
682.894	-11.77
682.925	1.23
682.955	-8.77
682.985	-2.77
683.015	1.23
683.045	4.23
683.076	-17.77
683.106	10.23
683.136	-17.77
683.166	-4.77
683.196	-2.77
683.226	-5.77
683.257	-0.77
683.287	0.23
683.317	-15.77
683.347	-14.77
683.377	-8.77
683.407	-4.77
683.437	16.23
683.468	8.23
683.498	-19.77
683.528	0.23
683.558	-9.77
683.588	-17.77
683.618	-7.77
683.648	-3.77
683.678	-3.77
683.708	7.23
683.739	-2.77
683.769	-3.77
683.799	6.23
683.829	-0.77
683.859	10.23
683.889	15.23
683.919	-1.77
683.949	9.23
683.979	8.23
684.009	7.23
684.039	-4.77
684.07	-1.77
684.1	-9.77
684.13	3.23
684.16	-9.77
684.19	-15.77
684.22	-6.77
684.25	23.23
684.28	-5.77
684.31	20.23
684.34	-1.77
684.37	7.23
684.4	-10.77
684.43	1.23
684.46	-0.77
684.49	3.23
684.52	8.23
684.55	5.23
684.58	-0.77
684.61	0.23
684.64	-1.77
684.67	7.23
684.7	2.23
684.73	1.23
684.76	-17.77
684.79	34.23
684.82	6.23
684.85	-8.77
684.88	7.23
684.91	-0.77
684.94	-12.77
684.97	-16.77
685	3.23
685.03	0.23
685.06	3.23
685.09	1.23
685.12	9.23
685.15	-7.77
685.18	-2.77
685.21	-0.77
685.24	15.23
685.27	21.23
685.3	-2.77
685.33	-4.77
685.36	-6.77
685.39	-1.77
685.42	-8.77
685.45	-7.77
685.48	0.23
685.51	-0.77
685.54	5.23
685.569	6.23
685.599	0.23
685.629	11.23
685.659	16.23
685.689	-0.77
685.719	-3.77
685.749	-8.77
685.779	0.23
685.809	19.23
685.839	2.23
685.869	14.23
685.898	5.23
685.928	11.23
685.958	-5.77
685.988	2.23
686.018	-2.77
686.048	-11.77
686.078	-1.77
686.108	6.23
686.137	-0.77
686.167	10.23
686.197	-10.77
686.227	-0.77
686.257	14.23
686.287	29.23
686.317	-12.77
686.346	-10.77
686.376	-8.77
686.406	3.23
686.436	19.23
686.466	-15.77
686.496	19.23
686.525	-3.77
686.555	-15.77
686.585	-0.77
686.615	24.23
686.645	2.23
686.675	-6.77
686.704	-4.77
686.734	-10.77
686.764	-3.77
686.794	14.23
686.824	-0.77
686.853	21.23
686.883	15.23
686.913	13.23
686.943	8.23
686.973	-3.77
687.002	12.23
687.032	9.23
687.062	-5.77
687.092	23.23
687.121	-1.77
687.151	10.23
687.181	11.23
687.211	13.23
687.24	9.23
687.27	-1.77
687.3	-6.77
687.33	-6.77
687.359	-34.77
687.389	-0.77
687.419	-5.77
687.449	-2.77
687.478	-3.77
687.508	0.23
687.538	10.23
687.568	9.23
687.597	-17.77
687.627	2.23
687.657	-7.77
687.686	0.23
687.716	4.23
687.746	-7.77
687.776	-14.77
687.805	21.23
687.835	13.23
687.865	25.23
687.894	1.23
687.924	11.23
687.954	3.23
687.983	-7.77
688.013	-0.77
688.043	-4.77
688.072	-14.77
688.102	-3.77
688.132	-5.77
688.161	-8.77
688.191	0.23
688.221	4.23
688.25	-2.77
688.28	7.23
688.31	3.23
688.339	-7.77
688.369	-22.77
688.399	3.23
688.428	-1.77
688.458	-6.77
688.488	-4.77
688.517	9.23
688.547	2.23
688.576	30.23
688.606	19.23
688.636	-17.77
688.665	12.23
688.695	14.23
688.725	6.23
688.754	8.23
688.784	2.23
688.813	14.23
688.843	-4.77
688.873	-14.77
688.902	5.23
688.932	-6.77
688.961	-4.77
688.991	3.23
689.02	-7.77
689.05	-4.77
689.08	8.23
689.109	2.23
689.139	-4.77
689.168	1.23
689.198	-5.77
689.227	8.23
689.257	7.23
689.287	18.23
689.316	-0.77
689.346	3.23
689.375	-2.77
689.405	-2.77
689.434	-5.77
689.464	2.23
689.493	8.23
689.523	6.23
689.552	-3.77
689.582	4.23
689.611	-2.77
689.641	-0.77
689.67	-2.77
689.7	-3.77
689.73	21.23
689.759	-8.77
689.789	11.23
689.818	8.23
689.848	7.23
689.877	-0.77
689.906	-4.77
689.936	-10.77
689.965	4.23
689.995	19.23
690.024	8.23
690.054	-9.77
690.083	3.23
690.113	-1.77
690.142	9.23
690.172	1.23
690.201	0.23
690.231	-10.77
690.26	-1.77
690.29	0.23
690.319	8.23
690.348	1.23
690.378	1.23
690.407	0.23
690.437	-6.77
690.466	-4.77
690.496	-10.77
690.525	14.23
690.555	-24.77
690.584	11.23
690.613	-8.77
690.643	10.23
690.672	-8.77
690.702	-2.77
690.731	5.23
690.76	20.23
690.79	51.23
690.819	60.23
690.849	27.23
690.878	27.23
690.907	21.23
690.937	24.23
690.966	20.23
690.996	8.23
691.025	8.23
691.054	4.23
691.084	3.23
691.113	-5.77
691.142	-1.77
691.172	19.23
691.201	6.23
691.23	-1.77
691.26	0.23
691.289	7.23
691.319	-12.77
691.348	2.23
691.377	25.23
691.407	4.23
691.436	3.23
691.465	2.23
691.495	12.23
691.524	-8.77
691.553	-2.77
691.583	-0.77
691.612	17.23
691.641	-7.77
691.67	-15.77
691.7	-5.77
691.729	-25.77
691.758	-7.77
691.788	0.23
691.817	-1.77
691.846	-4.77
691.876	11.23
691.905	4.23
691.934	-21.77
691.963	18.23
691.993	3.23
692.022	-8.77
692.051	-4.77
692.081	-0.77
692.11	9.23
692.139	5.23
692.168	1.23
692.198	26.23
692.227	13.23
692.256	12.23
692.285	6.23
692.315	0.23
692.344	-2.77
692.373	-3.77
692.402	-9.77
692.432	-10.77
692.461	-1.77
692.49	-8.77
692.519	-13.77
692.548	16.23
692.578	8.23
692.607	-7.77
692.636	-14.77
692.665	-0.77
692.694	6.23
692.724	0.23
692.753	7.23
692.782	17.23
692.811	-3.77
692.84	-9.77
692.87	-2.77
692.899	5.23
692.928	1.23
692.957	-8.77
692.986	1.23
693.016	0.23
693.045	4.23
693.074	7.23
693.103	-4.77
693.132	3.23
693.161	25.23
693.191	-11.77
693.22	-10.77
693.249	-0.77
693.278	2.23
693.307	19.23
693.336	-7.77
693.365	-24.77
693.395	-13.77
693.424	2.23
693.453	9.23
693.482	-17.77
693.511	-1.77
693.54	8.23
693.569	19.23
693.598	2.23
693.628	-7.77
693.657	9.23
693.686	3.23
693.715	5.23
693.744	21.23
693.773	27.23
693.802	22.23
693.831	-10.77
693.86	13.23
693.889	8.23
693.919	4.23
693.948	-7.77
693.977	-5.77
694.006	0.23
694.035	-2.77
694.064	-15.77
694.093	1.23
694.122	-8.77
694.151	-16.77
694.18	-6.77
694.209	12.23
694.238	-1.77
694.267	19.23
694.296	19.23
694.325	4.23
694.354	22.23
694.383	15.23
694.412	-13.77
694.441	-2.77
694.471	-3.77
694.5	-12.77
694.529	-1.77
694.558	10.23
694.587	17.23
694.616	-3.77
694.645	-5.77
694.674	5.23
694.703	14.23
694.732	-3.77
694.761	6.23
694.79	10.23
694.819	-15.77
694.848	3.23
694.877	30.23
694.906	35.23
694.935	8.23
694.963	14.23
694.992	-0.77
695.021	3.23
695.05	1.23
695.079	-2.77
695.108	-5.77
695.137	28.23
695.166	16.23
695.195	-3.77
695.224	8.23
695.253	15.23
695.282	3.23
695.311	5.23
695.34	12.23
695.369	6.23
695.398	-7.77
695.427	7.23
695.456	6.23
695.485	14.23
695.513	2.23
695.542	8.23
695.571	0.23
695.6	26.23
695.629	1.23
695.658	12.23
695.687	4.23
695.716	12.23
695.745	22.23
695.774	-0.77
695.802	-4.77
695.831	4.23
695.86	6.23
695.889	-0.77
695.918	12.23
695.947	-1.77
695.976	-0.77
696.005	-4.77
696.033	-10.77
696.062	13.23
696.091	-6.77
696.12	12.23
696.149	22.23
696.178	4.23
696.207	5.23
696.235	-10.77
696.264	0.23
696.293	-10.77
696.322	9.23
696.351	15.23
696.38	-1.77
696.408	13.23
696.437	6.23
696.466	-5.77
696.495	25.23
696.524	14.23
696.553	6.23
696.581	12.23
696.61	-1.77
696.639	3.23
696.668	11.23
696.697	6.23
696.725	13.23
696.754	-11.77
696.783	-1.77
696.812	-8.77
696.84	14.23
696.869	3.23
696.898	13.23
696.927	-1.77
696.956	15.23
696.984	5.23
697.013	-4.77
697.042	-5.77
697.071	16.23
697.099	15.23
697.128	1.23
697.157	9.23
697.186	1.23
697.214	3.23
697.243	-4.77
697.272	-2.77
697.301	15.23
697.329	3.23
697.358	1.23
697.387	11.23
697.415	14.23
697.444	-8.77
697.473	3.23
697.502	-9.77
697.53	25.23
697.559	-0.77
697.588	17.23
697.616	-7.77
697.645	2.23
697.674	-0.77
697.703	-3.77
697.731	17.23
697.76	4.23
697.789	3.23
697.817	-4.77
697.846	17.23
697.875	8.23
697.903	23.23
697.932	2.23
697.961	6.23
697.989	-0.77
698.018	-0.77
698.047	3.23
698.075	20.23
698.104	-5.77
698.133	2.23
698.161	-0.77
698.19	5.23
698.218	-2.77
698.247	-10.77
698.276	-3.77
698.304	4.23
698.333	1.23
698.362	0.23
698.39	2.23
698.419	4.23
698.447	4.23
698.476	-5.77
698.505	14.23
698.533	1.23
698.562	-1.77
698.591	-28.77
698.619	-6.77
698.648	-2.77
698.676	2.23
698.705	1.23
698.733	-20.77
698.762	3.23
698.791	-14.77
698.819	0.23
698.848	-20.77
698.876	10.23
698.905	6.23
698.933	12.23
698.962	10.23
698.991	-14.77
699.019	27.23
699.048	7.23
699.076	2.23
699.105	0.23
699.133	-1.77
699.162	6.23
699.19	23.23
699.219	10.23
699.248	22.23
699.276	8.23
699.305	0.23
699.333	3.23
699.362	5.23
699.39	17.23
699.419	-5.77
699.447	5.23
699.476	13.23
699.504	1.23
699.533	-4.77
699.561	-10.77
699.59	-0.77
699.618	-4.77
699.647	5.23
699.675	8.23
699.704	1.23
699.732	-0.77
699.761	3.23
699.789	-18.77
699.818	9.23
699.846	-9.77
699.874	-1.77
699.903	-8.77
699.931	-2.77
699.96	4.23
699.988	0.23
700.017	-11.77
700.045	-6.77
700.074	-19.77
700.102	-8.77
700.13	-7.77
700.159	8.23
700.187	2.23
700.216	-4.77
700.244	-15.77
700.273	-13.77
700.301	3.23
700.329	20.23
700.358	9.23
700.386	6.23
700.415	4.23
700.443	-3.77
700.472	8.23
700.5	-7.77
700.528	12.23
700.557	3.23
700.585	-1.77
700.614	3.23
700.642	-1.77
700.67	18.23
700.699	4.23
700.727	1.23
700.755	10.23
700.784	-10.77
700.812	-5.77
700.841	13.23
700.869	19.23
700.897	-1.77
700.926	19.23
700.954	7.23
700.982	-0.77
701.011	-7.77
701.039	18.23
701.067	-0.77
701.096	9.23
701.124	-10.77
701.152	-1.77
701.181	-16.77
701.209	-16.77
701.237	-6.77
701.266	-8.77
701.294	-1.77
701.322	17.23
701.351	10.23
701.379	0.23
701.407	-1.77
701.435	4.23
701.464	12.23
701.492	19.23
701.52	7.23
701.549	-3.77
701.577	-7.77
701.605	-9.77
701.634	15.23
701.662	16.23
701.69	-14.77
701.718	-14.77
701.747	-2.77
701.775	6.23
701.803	-4.77
701.831	5.23
701.86	-12.77
701.888	2.23
701.916	-1.77
701.944	-6.77
701.973	0.23
702.001	-7.77
702.029	-11.77
702.057	-7.77
702.086	-18.77
702.114	-20.77
702.142	12.23
702.17	-3.77
702.199	-0.77
702.227	13.23
702.255	2.23
702.283	-11.77
702.311	-4.77
702.34	1.23
702.368	-19.77
702.396	-15.77
702.424	0.23
702.452	-10.77
702.481	6.23
702.509	-11.77
702.537	4.23
702.565	2.23
702.593	-19.77
702.621	-9.77
702.65	4.23
702.678	1.23
702.706	-1.77
702.734	-8.77
702.762	14.23
702.79	0.23
702.819	13.23
702.847	-8.77
702.875	1.23
702.903	-16.77
702.931	12.23
702.959	-4.77
702.988	-14.77
703.016	-5.77
703.044	-11.77
703.072	2.23
703.1	-12.77
703.128	-3.77
703.156	6.23
703.184	-5.77
703.212	9.23
703.241	-1.77
703.269	-5.77
703.297	8.23
703.325	-6.77
703.353	-23.77
703.381	-20.77
703.409	-9.77
703.437	-9.77
703.465	-3.77
703.493	-10.77
703.522	-1.77
703.55	4.23
703.578	22.23
703.606	-6.77
703.634	-11.77
703.662	-2.77
703.69	-4.77
703.718	12.23
703.746	24.23
703.774	3.23
703.802	8.23
703.83	-1.77
703.858	-7.77
703.886	-16.77
703.914	0.23
703.942	6.23
703.97	4.23
703.998	0.23
704.027	19.23
704.055	20.23
704.083	0.23
704.111	5.23
704.139	-8.77
704.167	-19.77
704.195	6.23
704.223	-14.77
704.251	-9.77
704.279	8.23
704.307	-4.77
704.335	-7.77
704.363	7.23
704.391	-2.77
704.419	-21.77
704.447	-20.77
704.475	-4.77
704.503	-0.77
704.531	0.23
704.558	7.23
704.586	-4.77
704.614	-0.77
704.642	-0.77
704.67	-19.77
704.698	7.23
704.726	-1.77
704.754	-12.77
704.782	-11.77
704.81	-13.77
704.838	0.23
704.866	-11.77
704.894	-5.77
704.922	1.23
704.95	-3.77
704.978	5.23
705.006	-4.77
705.034	10.23
705.061	2.23
705.089	-4.77
705.117	-11.77
705.145	0.23
705.173	-9.77
705.201	5.23
705.229	24.23
705.257	-13.77
705.285	4.23
705.313	0.23
705.34	0.23
705.368	-18.77
705.396	20.23
705.424	-3.77
705.452	-12.77
705.48	-6.77
705.508	-3.77
705.536	-1.77
705.563	-10.77
705.591	5.23
705.619	0.23
705.647	2.23
705.675	6.23
705.703	18.23
705.731	-6.77
705.758	3.23
705.786	-12.77
705.814	13.23
705.842	11.23
705.87	22.23
705.898	14.23
705.925	-7.77
705.953	0.23
705.981	-3.77
706.009	-4.77
706.037	-2.77
706.065	-11.77
706.092	-10.77
706.12	9.23
706.148	-1.77
706.176	-0.77
706.204	9.23
706.231	-1.77
706.259	-9.77
706.287	-0.77
706.315	7.23
706.342	-0.77
706.37	7.23
706.398	-2.77
706.426	7.23
706.454	-4.77
706.481	-5.77
706.509	6.23
706.537	-18.77
706.565	0.23
706.592	3.23
706.62	-21.77
706.648	-8.77
706.676	-22.77
706.703	5.23
706.731	-6.77
706.759	-10.77
706.787	-0.77
706.814	8.23
706.842	4.23
706.87	-9.77
706.897	-9.77
706.925	-4.77
706.953	0.23
706.981	7.23
707.008	-1.77
707.036	1.23
707.064	1.23
707.091	-16.77
707.119	-0.77
707.147	-5.77
707.174	-13.77
707.202	-3.77
707.23	-8.77
707.258	8.23
707.285	-7.77
707.313	-9.77
707.341	-19.77
707.368	-7.77
707.396	10.23
707.424	21.23
707.451	12.23
707.479	-2.77
707.507	-8.77
707.534	-6.77
707.562	3.23
707.59	-2.77
707.617	-1.77
707.645	14.23
707.672	6.23
707.7	3.23
707.728	-3.77
707.755	-1.77
707.783	-8.77
707.811	1.23
707.838	-0.77
707.866	-2.77
707.893	-17.77
707.921	-8.77
707.949	-3.77
707.976	1.23
708.004	4.23
708.031	-1.77
708.059	-15.77
708.087	-5.77
708.114	-2.77
708.142	-5.77
708.169	-9.77
708.197	-2.77
708.225	11.23
708.252	-5.77
708.28	10.23
708.307	3.23
708.335	16.23
708.362	0.23
708.39	-8.77
708.418	-4.77
708.445	-9.77
708.473	-4.77
708.5	-4.77
708.528	2.23
708.555	-4.77
708.583	-6.77
708.61	-5.77
708.638	1.23
708.665	-12.77
708.693	-24.77
708.72	-16.77
708.748	-7.77
708.776	-2.77
708.803	16.23
708.831	12.23
708.858	3.23
708.886	-10.77
708.913	-0.77
708.941	-15.77
708.968	-7.77
708.996	-9.77
709.023	30.23
709.051	-1.77
709.078	-8.77
709.105	13.23
709.133	-1.77
709.16	-4.77
709.188	0.23
709.215	14.23
709.243	-6.77
709.27	-8.77
709.298	-8.77
709.325	-11.77
709.353	2.23
709.38	7.23
709.408	7.23
709.435	-1.77
709.462	-1.77
709.49	9.23
709.517	-0.77
709.545	-10.77
709.572	5.23
709.6	-5.77
709.627	3.23
709.655	-2.77
709.682	-4.77
709.709	-5.77
709.737	0.23
709.764	-9.77
709.792	16.23
709.819	-4.77
709.846	-10.77
709.874	6.23
709.901	15.23
709.929	18.23
709.956	2.23
709.983	-9.77
710.011	7.23
710.038	-14.77
710.066	10.23
710.093	-3.77
710.12	-4.77
710.148	-7.77
710.175	-16.77
710.202	-6.77
710.23	-4.77
710.257	2.23
710.284	3.23
710.312	0.23
710.339	-11.77
710.366	-4.77
710.394	-5.77
710.421	-8.77
710.448	-4.77
710.476	-15.77
710.503	-7.77
710.53	-4.77
710.558	-2.77
710.585	20.23
710.612	-9.77
710.64	-11.77
710.667	-5.77
710.694	-8.77
710.722	-2.77
710.749	0.23
710.776	-9.77
710.804	23.23
710.831	0.23
710.858	-21.77
710.885	-7.77
710.913	-17.77
710.94	19.23
710.967	7.23
710.995	-6.77
711.022	0.23
711.049	-0.77
711.076	-20.77
711.104	-9.77
711.131	-15.77
711.158	14.23
711.185	15.23
711.213	-28.77
711.24	-0.77
711.267	-9.77
711.294	-5.77
711.322	8.23
711.349	2.23
711.376	-1.77
711.403	11.23
711.431	-1.77
711.458	1.23
711.485	-4.77
711.512	3.23
711.54	-5.77
711.567	-0.77
711.594	-16.77
711.621	-19.77
711.648	-1.77
711.676	-14.77
711.703	-1.77
711.73	-21.77
711.757	-9.77
711.784	-8.77
711.812	-3.77
711.839	-0.77
711.866	-10.77
711.893	-8.77
711.92	21.23
711.947	1.23
711.975	10.23
712.002	-11.77
712.029	4.23
712.056	-13.77
712.083	-2.77
712.11	-11.77
712.138	1.23
712.165	3.23
712.192	1.23
712.219	-8.77
712.246	-12.77
712.273	2.23
712.3	-4.77
712.328	3.23
712.355	10.23
712.382	-7.77
712.409	8.23
712.436	-10.77
712.463	7.23
712.49	18.23
712.517	1.23
712.544	-5.77
712.572	7.23
712.599	10.23
712.626	6.23
712.653	-6.77
712.68	-4.77
712.707	4.23
712.734	6.23
712.761	0.23
712.788	-9.77
712.815	2.23
712.842	3.23
712.87	-19.77
712.897	-5.77
712.924	-6.77
712.951	-1.77
712.978	14.23
713.005	19.23
713.032	-1.77
713.059	-10.77
713.086	-2.77
713.113	-10.77
713.14	-10.77
713.167	1.23
713.194	7.23
713.221	-5.77
713.248	7.23
713.275	-5.77
713.302	-9.77
713.329	-9.77
713.356	3.23
713.383	0.23
713.41	23.23
713.437	-12.77
713.464	-8.77
713.491	12.23
713.518	9.23
713.545	-4.77
713.572	-16.77
713.599	13.23
713.626	-4.77
713.653	10.23
713.68	-8.77
713.707	1.23
713.734	6.23
713.761	-9.77
713.788	-5.77
713.815	9.23
713.842	-2.77
713.869	-4.77
713.896	-9.77
713.923	9.23
713.95	2.23
713.977	-6.77
714.004	1.23
714.031	-10.77
714.058	2.23
714.085	1.23
714.112	11.23
714.139	2.23
714.165	-9.77
714.192	-16.77
714.219	-2.77
714.246	4.23
714.273	-1.77
714.3	-9.77
714.327	-9.77
714.354	2.23
714.381	-5.77
714.408	-0.77
714.435	-2.77
714.461	-9.77
714.488	12.23
714.515	-17.77
714.542	-10.77
714.569	-1.77
714.596	-26.77
714.623	2.23
714.65	-7.77
714.677	-1.77
714.703	10.23
714.73	12.23
714.757	0.23
714.784	-9.77
714.811	-20.77
714.838	-4.77
714.865	-15.77
714.891	4.23
714.918	5.23
714.945	-8.77
714.972	-9.77
714.999	8.23
715.026	-16.77
715.052	-0.77
715.079	-6.77
715.106	-0.77
715.133	0.23
715.16	-8.77
715.187	-8.77
715.213	-6.77
715.24	0.23
715.267	-8.77
715.294	-4.77
715.321	-5.77
715.347	-0.77
715.374	-17.77
715.401	-3.77
715.428	4.23
715.455	8.23
715.481	5.23
715.508	10.23
715.535	-2.77
715.562	29.23
715.588	-0.77
715.615	-9.77
715.642	3.23
715.669	18.23
715.695	-13.77
715.722	4.23
715.749	7.23
715.776	3.23
715.802	12.23
715.829	-3.77
715.856	-10.77
715.883	18.23
715.909	-2.77
715.936	-12.77
715.963	-7.77
715.99	-11.77
716.016	-4.77
716.043	-25.77
716.07	-10.77
716.096	11.23
716.123	-14.77
716.15	-21.77
716.177	7.23
716.203	3.23
716.23	5.23
716.257	6.23
716.283	1.23
716.31	0.23
716.337	-1.77
716.363	-7.77
716.39	5.23
716.417	-9.77
716.443	-10.77
716.47	13.23
716.497	-2.77
716.523	7.23
716.55	0.23
716.577	11.23
716.603	-4.77
716.63	20.23
716.657	11.23
716.683	-7.77
716.71	-4.77
716.737	-15.77
716.763	-1.77
716.79	10.23
716.817	14.23
716.843	-1.77
716.87	-2.77
716.897	-7.77
716.923	12.23
716.95	-0.77
716.976	10.23
717.003	-12.77
717.03	-3.77
717.056	6.23
717.083	13.23
717.109	4.23
717.136	13.23
717.163	3.23
717.189	-3.77
717.216	-4.77
717.242	-5.77
717.269	-6.77
717.296	0.23
717.322	6.23
717.349	10.23
717.375	11.23
717.402	-0.77
717.428	7.23
717.455	3.23
717.481	-13.77
717.508	-0.77
717.535	1.23
717.561	-4.77
717.588	12.23
717.614	6.23
717.641	-0.77
717.667	0.23
717.694	0.23
717.72	-4.77
717.747	5.23
717.773	-12.77
717.8	-12.77
717.826	-10.77
717.853	5.23
717.88	2.23
717.906	15.23
717.933	15.23
717.959	12.23
717.986	2.23
718.012	-15.77
718.039	4.23
718.065	8.23
718.092	7.23
718.118	-1.77
718.144	-12.77
718.171	-8.77
718.197	26.23
718.224	0.23
718.25	-6.77
718.277	-9.77
718.303	11.23
718.33	-2.77
718.356	-23.77
718.383	-20.77
718.409	-0.77
718.436	2.23
718.462	1.23
718.489	-7.77
718.515	5.23
718.541	7.23
718.568	-3.77
718.594	6.23
718.621	-0.77
718.647	5.23
718.674	18.23
718.7	9.23
718.726	-9.77
718.753	15.23
718.779	1.23
718.806	-5.77
718.832	10.23
718.858	-3.77
718.885	-7.77
718.911	13.23
718.938	6.23
718.964	-11.77
718.99	-5.77
719.017	2.23
719.043	16.23
719.07	2.23
719.096	-0.77
719.122	18.23
719.149	6.23
719.175	-0.77
719.201	3.23
719.228	-3.77
719.254	8.23
719.281	4.23
719.307	4.23
719.333	8.23
719.36	19.23
719.386	8.23
719.412	7.23
719.439	-11.77
719.465	-8.77
719.491	2.23
719.518	-3.77
719.544	-1.77
719.57	5.23
719.597	3.23
719.623	-1.77
719.649	-5.77
719.675	2.23
719.702	13.23
719.728	9.23
719.754	5.23
719.781	0.23
719.807	2.23
719.833	-5.77
719.86	-4.77
719.886	-9.77
719.912	8.23
719.938	1.23
719.965	5.23
719.991	11.23
720.017	-9.77
720.044	-4.77
720.07	-2.77
720.096	14.23
720.122	3.23
720.149	-0.77
720.175	14.23
720.201	-1.77
720.227	5.23
720.254	15.23
720.28	-1.77
720.306	-12.77
720.332	-3.77
720.359	0.23
720.385	13.23
720.411	-5.77
720.437	0.23
720.463	-5.77
720.49	-3.77
720.516	-3.77
720.542	-6.77
720.568	4.23
720.595	10.23
720.621	1.23
720.647	2.23
720.673	9.23
720.699	3.23
720.725	-3.77
720.752	-7.77
720.778	0.23
720.804	1.23
720.83	9.23
720.856	-4.77
720.883	-2.77
720.909	3.23
720.935	-1.77
720.961	12.23
720.987	-8.77
721.013	2.23
721.04	-4.77
721.066	-16.77
721.092	-4.77
721.118	4.23
721.144	10.23
721.17	3.23
721.196	-10.77
721.223	-14.77
721.249	-17.77
721.275	23.23
721.301	-2.77
721.327	11.23
721.353	4.23
721.379	-8.77
721.405	16.23
721.432	21.23
721.458	-1.77
721.484	-10.77
721.51	-2.77
721.536	15.23
721.562	2.23
721.588	-8.77
721.614	-6.77
721.64	-12.77
721.666	-11.77
721.693	-9.77
721.719	-0.77
721.745	2.23
721.771	-19.77
721.797	8.23
721.823	2.23
721.849	10.23
721.875	9.23
721.901	2.23
721.927	-4.77
721.953	9.23
721.979	19.23
722.005	7.23
722.031	-6.77
722.057	-3.77
722.083	-3.77
722.109	2.23
722.135	14.23
722.161	10.23
722.187	-9.77
722.214	-9.77
722.24	-12.77
722.266	-1.77
722.292	20.23
722.318	12.23
722.344	5.23
722.37	19.23
722.396	12.23
722.422	5.23
722.448	-4.77
722.474	-13.77
722.5	7.23
722.526	20.23
722.552	-7.77
722.578	9.23
722.603	6.23
722.629	-7.77
722.655	-11.77
722.681	-29.77
722.707	-6.77
722.733	-10.77
722.759	0.23
722.785	-12.77
722.811	-3.77
722.837	-1.77
722.863	-11.77
722.889	8.23
722.915	8.23
722.941	-2.77
722.967	-5.77
722.993	9.23
723.019	-10.77
723.045	6.23
723.071	-1.77
723.097	-4.77
723.122	1.23
723.148	-9.77
723.174	-16.77
723.2	4.23
723.226	-3.77
723.252	4.23
723.278	-1.77
723.304	1.23
723.33	0.23
723.356	6.23
723.381	-5.77
723.407	-3.77
723.433	11.23
723.459	-16.77
723.485	-6.77
723.511	14.23
723.537	3.23
723.563	-6.77
723.588	-0.77
723.614	1.23
723.64	1.23
723.666	-1.77
723.692	-1.77
723.718	-2.77
723.744	-11.77
723.769	1.23
723.795	5.23
723.821	4.23
723.847	2.23
723.873	16.23
723.899	4.23
723.924	6.23
723.95	-8.77
723.976	-7.77
724.002	-9.77
724.028	-18.77
724.053	-2.77
724.079	-1.77
724.105	0.23
724.131	-5.77
724.157	-0.77
724.182	-2.77
724.208	-9.77
724.234	-1.77
724.26	1.23
724.286	1.23
724.311	-6.77
724.337	6.23
724.363	-4.77
724.389	7.23
724.415	-4.77
724.44	16.23
724.466	-4.77
724.492	2.23
724.518	12.23
724.543	-16.77
724.569	-13.77
724.595	-2.77
724.621	3.23
724.646	5.23
724.672	4.23
724.698	7.23
724.723	-6.77
724.749	-10.77
724.775	3.23
724.801	3.23
724.826	-30.77
724.852	-11.77
724.878	-9.77
724.904	-10.77
724.929	5.23
724.955	-2.77
724.981	-5.77
725.006	-10.77
725.032	-13.77
725.058	-6.77
725.083	-8.77
725.109	-10.77
725.135	-8.77
725.161	-9.77
725.186	-21.77
725.212	-14.77
725.238	10.23
725.263	2.23
725.289	7.23
725.315	-3.77
725.34	-16.77
725.366	-5.77
725.392	-3.77
725.417	-0.77
725.443	2.23
725.468	-6.77
725.494	-8.77
725.52	10.23
725.545	-9.77
725.571	-15.77
725.597	-5.77
725.622	-15.77
725.648	-2.77
725.674	19.23
725.699	-2.77
725.725	-5.77
725.75	13.23
725.776	-1.77
725.802	-11.77
725.827	5.23
725.853	1.23
725.878	8.23
725.904	4.23
725.93	-13.77
725.955	-21.77
725.981	-22.77
726.006	-4.77
726.032	11.23
726.057	-8.77
726.083	0.23
726.109	-2.77
726.134	11.23
726.16	0.23
726.185	-11.77
726.211	-16.77
726.236	0.23
726.262	2.23
726.288	-0.77
726.313	6.23
726.339	-4.77
726.364	-7.77
726.39	6.23
726.415	-2.77
726.441	-19.77
726.466	-11.77
726.492	-5.77
726.517	10.23
726.543	0.23
726.568	-5.77
726.594	-3.77
726.619	19.23
726.645	5.23
726.67	11.23
726.696	17.23
726.721	10.23
726.747	-17.77
726.772	-2.77
726.798	-5.77
726.823	-7.77
726.849	-6.77
726.874	10.23
726.9	15.23
726.925	-1.77
726.951	-25.77
726.976	12.23
727.002	-7.77
727.027	1.23
727.053	3.23
727.078	-7.77
727.104	-0.77
727.129	-32.77
727.155	-14.77
727.18	-8.77
727.205	-0.77
727.231	-15.77
727.256	-11.77
727.282	-4.77
727.307	10.23
727.333	-5.77
727.358	-3.77
727.383	-16.77
727.409	-5.77
727.434	0.23
727.46	-1.77
727.485	-10.77
727.511	7.23
727.536	-5.77
727.561	-12.77
727.587	-10.77
727.612	14.23
727.637	7.23
727.663	-5.77
727.688	18.23
727.714	-12.77
727.739	-11.77
727.764	-8.77
727.79	-5.77
727.815	-7.77
727.841	1.23
727.866	13.23
727.891	9.23
727.917	-5.77
727.942	-20.77
727.967	-9.77
727.993	-4.77
728.018	1.23
728.043	9.23
728.069	3.23
728.094	2.23
728.119	7.23
728.145	19.23
728.17	-4.77
728.195	-8.77
728.221	3.23
728.246	-1.77
728.271	1.23
728.297	1.23
728.322	6.23
728.347	-12.77
728.373	13.23
728.398	4.23
728.423	-10.77
728.448	-1.77
728.474	-7.77
728.499	8.23
728.524	-2.77
728.55	-9.77
728.575	9.23
728.6	2.23
728.625	6.23
728.651	-13.77
728.676	3.23
728.701	-6.77
728.727	-9.77
728.752	-14.77
728.777	-0.77
728.802	-7.77
728.828	-0.77
728.853	-15.77
728.878	-1.77
728.903	-16.77
728.929	-3.77
728.954	2.23
728.979	10.23
729.004	2.23
729.03	0.23
729.055	11.23
729.08	-10.77
729.105	-5.77
729.13	4.23
729.156	7.23
729.181	-1.77
729.206	-29.77
729.231	-6.77
729.256	11.23
729.282	-3.77
729.307	-14.77
729.332	-8.77
729.357	-9.77
729.382	-20.77
729.408	-2.77
729.433	-8.77
729.458	-8.77
729.483	8.23
729.508	12.23
729.533	-3.77
729.559	1.23
729.584	-9.77
729.609	-3.77
729.634	5.23
729.659	-20.77
729.684	-21.77
729.71	27.23
729.735	17.23
729.76	1.23
729.785	-0.77
729.81	5.23
729.835	-1.77
729.86	11.23
729.886	6.23
729.911	-1.77
729.936	1.23
729.961	25.23
729.986	22.23
730.011	48.23
730.036	219.23
730.061	1003.23
730.086	2701.23
730.112	3383.23
730.137	2861.23
730.162	2128.23
730.187	1637.23
730.212	1255.23
730.237	792.23
730.262	435.23
730.287	244.23
730.312	138.23
730.337	70.23
730.362	59.23
730.387	47.23
730.413	8.23
730.438	19.23
730.463	15.23
730.488	8.23
730.513	10.23
730.538	4.23
730.563	27.23
730.588	0.23
730.613	23.23
730.638	15.23
730.663	-1.77
730.688	7.23
730.713	2.23
730.738	-0.77
730.763	7.23
730.788	-20.77
730.813	5.23
730.838	-9.77
730.863	0.23
730.888	-10.77
730.913	-8.77
730.938	-9.77
730.963	31.23
730.988	120.23
731.013	398.23
731.038	620.23
731.063	580.23
731.088	467.23
731.113	378.23
731.138	263.23
731.163	192.23
731.188	116.23
731.213	62.23
731.238	45.23
731.263	15.23
731.288	6.23
731.313	12.23
731.338	2.23
731.363	-0.77
731.388	-3.77
731.413	-4.77
731.438	11.23
731.463	3.23
731.487	12.23
731.512	-7.77
731.537	-15.77
731.562	-7.77
731.587	-0.77
731.612	-16.77
731.637	-5.77
731.662	13.23
731.687	-6.77
731.712	-5.77
731.737	-10.77
731.762	-8.77
731.786	6.23
731.811	3.23
731.836	23.23
731.861	2.23
731.886	-13.77
731.911	7.23
731.936	9.23
731.961	0.23
731.986	-11.77
732.01	7.23
732.035	-0.77
732.06	23.23
732.085	-11.77
732.11	-3.77
732.135	-21.77
732.16	-3.77
732.184	0.23
732.209	-5.77
732.234	12.23
732.259	-11.77
732.284	8.23
732.309	-3.77
732.334	-8.77
732.358	-15.77
732.383	-19.77
732.408	6.23
732.433	-0.77
732.458	-12.77
732.482	-4.77
732.507	-13.77
732.532	7.23
732.557	7.23
732.582	13.23
732.607	18.23
732.631	55.23
732.656	98.23
732.681	179.23
732.706	325.23
732.73	455.23
732.755	394.23
732.78	294.23
732.805	243.23
732.83	182.23
732.854	133.23
732.879	93.23
732.904	48.23
732.929	23.23
732.953	28.23
732.978	10.23
733.003	-6.77
733.028	-11.77
733.052	12.23
733.077	7.23
733.102	11.23
733.127	-8.77
733.151	-11.77
733.176	-2.77
733.201	-13.77
733.226	-16.77
733.25	4.23
733.275	-8.77
733.3	-3.77
733.324	10.23
733.349	-2.77
733.374	7.23
733.399	-11.77
733.423	1.23
733.448	-6.77
733.473	-1.77
733.497	-8.77
733.522	-13.77
733.547	7.23
733.571	10.23
733.596	-17.77
733.621	2.23
733.646	-4.77
733.67	-3.77
733.695	-11.77
733.72	-5.77
733.744	3.23
733.769	6.23
733.794	19.23
733.818	2.23
733.843	-0.77
733.867	-4.77
733.892	-4.77
733.917	-9.77
733.941	1.23
733.966	-8.77
733.991	2.23
734.015	8.23
734.04	9.23
734.065	6.23
734.089	7.23
734.114	14.23
734.138	3.23
734.163	-14.77
734.188	2.23
734.212	13.23
734.237	17.23
734.261	5.23
734.286	1.23
734.311	-11.77
734.335	7.23
734.36	0.23
734.384	-3.77
734.409	6.23
734.434	-4.77
734.458	1.23
734.483	-11.77
734.507	-3.77
734.532	-7.77
734.556	-1.77
734.581	-0.77
734.606	-4.77
734.63	-27.77
734.655	-15.77
734.679	3.23
734.704	7.23
734.728	-12.77
734.753	-11.77
734.777	3.23
734.802	-8.77
734.826	-1.77
734.851	16.23
734.876	10.23
734.9	19.23
734.925	4.23
734.949	8.23
734.974	-5.77
734.998	-2.77
735.023	-15.77
735.047	-12.77
735.072	11.23
735.096	3.23
735.121	5.23
735.145	-16.77
735.17	-8.77
735.194	24.23
735.219	4.23
735.243	-3.77
735.268	2.23
735.292	14.23
735.317	-1.77
735.341	5.23
735.365	-17.77
735.39	2.23
735.414	-2.77
735.439	2.23
735.463	0.23
735.488	9.23
735.512	-12.77
735.537	4.23
735.561	2.23
735.586	-5.77
735.61	6.23
735.634	-11.77
735.659	-3.77
735.683	15.23
735.708	-6.77
735.732	-1.77
735.757	-3.77
735.781	-2.77
735.805	-7.77
735.83	9.23
735.854	0.23
735.879	-12.77
735.903	8.23
735.927	7.23
735.952	-5.77
735.976	-7.77
736.001	-8.77
736.025	-6.77
736.049	-10.77
736.074	0.23
736.098	0.23
736.123	-9.77
736.147	-1.77
736.171	2.23
736.196	16.23
736.22	-4.77
736.244	-3.77
736.269	0.23
736.293	-0.77
736.317	4.23
736.342	0.23
736.366	12.23
736.39	21.23
736.415	14.23
736.439	-1.77
736.463	11.23
736.488	-3.77
736.512	3.23
736.536	-0.77
736.561	15.23
736.585	-10.77
736.609	3.23
736.634	-14.77
736.658	9.23
736.682	0.23
736.707	-11.77
736.731	-13.77
736.755	-8.77
736.78	1.23
736.804	4.23
736.828	8.23
736.852	3.23
736.877	4.23
736.901	17.23
736.925	-2.77
736.949	-3.77
736.974	1.23
736.998	-10.77
737.022	3.23
737.047	-15.77
737.071	-13.77
737.095	14.23
737.119	28.23
737.144	14.23
737.168	-0.77
737.192	-21.77
737.216	8.23
737.241	-5.77
737.265	4.23
737.289	4.23
737.313	-1.77
737.337	11.23
737.362	18.23
737.386	-16.77
737.41	-19.77
737.434	23.23
737.459	-0.77
737.483	17.23
737.507	3.23
737.531	18.23
737.555	11.23
737.58	11.23
737.604	14.23
737.628	1.23
737.652	-5.77
737.676	-8.77
737.701	7.23
737.725	-8.77
737.749	8.23
737.773	3.23
737.797	-5.77
737.821	-2.77
737.846	5.23
737.87	30.23
737.894	-0.77
737.918	9.23
737.942	-0.77
737.966	3.23
737.99	29.23
738.015	3.23
738.039	11.23
738.063	-9.77
738.087	10.23
738.111	2.23
738.135	-2.77
738.159	-8.77
738.184	-10.77
738.208	11.23
738.232	14.23
738.256	11.23
738.28	7.23
738.304	3.23
738.328	-5.77
738.352	2.23
738.376	-8.77
738.4	-5.77
738.425	8.23
738.449	-7.77
738.473	20.23
738.497	8.23
738.521	10.23
738.545	9.23
738.569	10.23
738.593	23.23
738.617	15.23
738.641	-9.77
738.665	-3.77
738.689	6.23
738.713	12.23
738.737	11.23
738.762	19.23
738.786	5.23
738.81	-10.77
738.834	20.23
738.858	-3.77
738.882	3.23
738.906	-11.77
738.93	0.23
738.954	11.23
738.978	14.23
739.002	2.23
739.026	15.23
739.05	13.23
739.074	-0.77
739.098	19.23
739.122	0.23
739.146	-5.77
739.17	7.23
739.194	4.23
739.218	-2.77
739.242	-3.77
739.266	2.23
739.29	15.23
739.314	6.23
739.338	-4.77
739.362	5.23
739.386	8.23
739.41	6.23
739.434	-8.77
739.458	12.23
739.482	2.23
739.506	15.23
739.53	-16.77
739.554	9.23
739.577	-4.77
739.601	6.23
739.625	0.23
739.649	2.23
739.673	-4.77
739.697	2.23
739.721	6.23
739.745	3.23
739.769	13.23
739.793	20.23
739.817	16.23
739.841	-0.77
739.865	11.23
739.889	-11.77
739.912	2.23
739.936	2.23
739.96	-2.77
739.984	21.23
740.008	1.23
740.032	-8.77
740.056	3.23
740.08	4.23
740.104	-1.77
740.127	6.23
740.151	15.23
740.175	8.23
740.199	6.23
740.223	32.23
740.247	8.23
740.271	-0.77
740.295	-13.77
740.318	-9.77
740.342	4.23
740.366	11.23
740.39	10.23
740.414	-9.77
740.438	-16.77
740.461	15.23
740.485	-1.77
740.509	-17.77
740.533	19.23
740.557	-0.77
740.581	-6.77
740.604	-11.77
740.628	-3.77
740.652	5.23
740.676	1.23
740.7	-2.77
740.723	-12.77
740.747	-18.77
740.771	-11.77
740.795	-19.77
740.819	15.23
740.842	-0.77
740.866	-0.77
740.89	3.23
740.914	8.23
740.938	-15.77
740.961	1.23
740.985	7.23
741.009	3.23
741.033	-1.77
741.056	-1.77
741.08	3.23
741.104	-1.77
741.128	-2.77
741.151	13.23
741.175	15.23
741.199	22.23
741.223	12.23
741.246	-11.77
741.27	7.23
741.294	6.23
741.318	-7.77
741.341	1.23
741.365	9.23
741.389	6.23
741.413	3.23
741.436	1.23
741.46	16.23
741.484	11.23
741.507	-1.77
741.531	11.23
741.555	-5.77
741.579	3.23
741.602	-10.77
741.626	-2.77
741.65	-9.77
741.673	-9.77
741.697	15.23
741.721	-1.77
741.744	-7.77
741.768	-4.77
741.792	2.23
741.815	-15.77
741.839	3.23
741.863	16.23
741.886	20.23
741.91	11.23
741.934	2.23
741.957	-20.77
741.981	1.23
742.005	-3.77
742.028	-4.77
742.052	-5.77
742.075	12.23
742.099	-2.77
742.123	-8.77
742.146	4.23
742.17	-5.77
742.194	-20.77
742.217	-9.77
742.241	-11.77
742.264	1.23
742.288	30.23
742.312	14.23
742.335	-8.77
742.359	-2.77
742.382	-3.77
742.406	9.23
742.43	-4.77
742.453	-3.77
742.477	-12.77
742.5	-13.77
742.524	1.23
742.548	6.23
742.571	-0.77
742.595	-5.77
742.618	-11.77
742.642	-0.77
742.665	4.23
742.689	-2.77
742.712	8.23
742.736	8.23
742.76	4.23
742.783	-12.77
742.807	0.23
742.83	-5.77
742.854	2.23
742.877	-5.77
742.901	-15.77
742.924	-5.77
742.948	6.23
742.971	9.23
742.995	0.23
743.018	-21.77
743.042	-13.77
743.065	-12.77
743.089	-9.77
743.112	4.23
743.136	-4.77
743.159	-4.77
743.183	-8.77
743.206	5.23
743.23	-5.77
743.253	-4.77
743.277	21.23
743.3	10.23
743.324	-18.77
743.347	-16.77
743.371	7.23
743.394	11.23
743.418	6.23
743.441	4.23
743.465	0.23
743.488	9.23
743.512	-3.77
743.535	-2.77
743.558	-4.77
743.582	-4.77
743.605	-9.77
743.629	10.23
743.652	4.23
743.676	4.23
743.699	7.23
743.723	22.23
743.746	-0.77
743.769	-30.77
743.793	0.23
743.816	-3.77
743.84	21.23
743.863	-9.77
743.886	-1.77
743.91	13.23
743.933	-14.77
743.957	12.23
743.98	5.23
744.003	3.23
744.027	-0.77
744.05	-6.77
744.074	-10.77
744.097	-11.77
744.12	-10.77
744.144	-8.77
744.167	8.23
744.19	-3.77
744.214	-14.77
744.237	-13.77
744.26	-4.77
744.284	-1.77
744.307	-13.77
744.331	20.23
744.354	-11.77
744.377	-9.77
744.401	-8.77
744.424	-7.77
744.447	-10.77
744.471	-14.77
