Data from HighRes_mercury_15_13_11_07_2024_HR4C61891__10__15-14-24-186.txt Node

Date: Thu Nov 07 15:14:24 EST 2024
User: crc00042
Spectrometer: HR4C6189
Trigger mode: 4
Integration Time (sec): 1.000000E-1
Scans to average: 1
Electric dark correction enabled: true
Nonlinearity correction enabled: false
Boxcar width: 0
XAxis mode: Wavelengths
Number of Pixels in Spectrum: 3648
>>>>>Begin Spectral Data<<<<<
639.567	-56.15
639.602	-56.15
639.636	-56.15
639.67	-39.15
639.704	-13.15
639.738	-0.15
639.773	20.85
639.807	-5.15
639.841	7.85
639.875	34.85
639.909	-11.15
639.943	-6.15
639.978	-10.15
640.012	-1.15
640.046	-8.15
640.08	-0.15
640.114	-9.15
640.148	-12.15
640.182	-19.15
640.217	3.85
640.251	16.85
640.285	1.85
640.319	1.85
640.353	7.85
640.387	1.85
640.421	-3.15
640.455	-5.15
640.49	1.85
640.524	-2.15
640.558	2.85
640.592	-12.15
640.626	4.85
640.66	-3.15
640.694	-4.15
640.728	0.85
640.762	10.85
640.796	27.85
640.83	11.85
640.865	-4.15
640.899	14.85
640.933	11.85
640.967	3.85
641.001	-0.15
641.035	4.85
641.069	11.85
641.103	-10.15
641.137	-11.15
641.171	-5.15
641.205	8.85
641.239	13.85
641.273	11.85
641.307	5.85
641.341	15.85
641.375	0.85
641.409	5.85
641.443	1.85
641.477	5.85
641.511	2.85
641.545	8.85
641.579	12.85
641.614	19.85
641.648	11.85
641.682	-8.15
641.716	13.85
641.75	27.85
641.784	20.85
641.818	-0.15
641.852	-8.15
641.886	-6.15
641.919	31.85
641.953	3.85
641.987	-7.15
642.021	0.85
642.055	10.85
642.089	12.85
642.123	-2.15
642.157	-5.15
642.191	-16.15
642.225	6.85
642.259	5.85
642.293	15.85
642.327	5.85
642.361	-0.15
642.395	17.85
642.429	16.85
642.463	3.85
642.497	8.85
642.531	5.85
642.565	-9.15
642.599	-2.15
642.633	-22.15
642.666	11.85
642.7	-10.15
642.734	17.85
642.768	-1.15
642.802	9.85
642.836	18.85
642.87	-2.15
642.904	11.85
642.938	1.85
642.972	-5.15
643.005	-2.15
643.039	10.85
643.073	18.85
643.107	6.85
643.141	9.85
643.175	-8.15
643.209	8.85
643.243	-0.15
643.276	-6.15
643.31	7.85
643.344	-1.15
643.378	-16.15
643.412	25.85
643.446	13.85
643.48	4.85
643.513	13.85
643.547	11.85
643.581	-0.15
643.615	23.85
643.649	1.85
643.683	-7.15
643.716	-12.15
643.75	5.85
643.784	-8.15
643.818	14.85
643.852	16.85
643.886	7.85
643.919	18.85
643.953	-2.15
643.987	-3.15
644.021	20.85
644.055	13.85
644.088	3.85
644.122	-3.15
644.156	0.85
644.19	4.85
644.224	5.85
644.257	19.85
644.291	26.85
644.325	10.85
644.359	7.85
644.392	20.85
644.426	17.85
644.46	9.85
644.494	2.85
644.527	7.85
644.561	18.85
644.595	4.85
644.629	6.85
644.662	-3.15
644.696	17.85
644.73	9.85
644.764	2.85
644.797	-2.15
644.831	13.85
644.865	12.85
644.899	0.85
644.932	22.85
644.966	2.85
645	0.85
645.033	21.85
645.067	5.85
645.101	-2.15
645.135	-23.15
645.168	1.85
645.202	9.85
645.236	1.85
645.269	20.85
645.303	2.85
645.337	-5.15
645.37	-4.15
645.404	-1.15
645.438	-10.15
645.471	1.85
645.505	8.85
645.539	3.85
645.572	-14.15
645.606	4.85
645.64	8.85
645.673	7.85
645.707	23.85
645.741	-0.15
645.774	-3.15
645.808	16.85
645.842	4.85
645.875	31.85
645.909	-2.15
645.943	-6.15
645.976	-6.15
646.01	9.85
646.043	7.85
646.077	12.85
646.111	-6.15
646.144	9.85
646.178	5.85
646.212	-8.15
646.245	-1.15
646.279	5.85
646.312	13.85
646.346	2.85
646.38	4.85
646.413	12.85
646.447	2.85
646.48	15.85
646.514	30.85
646.547	3.85
646.581	-1.15
646.615	-4.15
646.648	6.85
646.682	-0.15
646.715	5.85
646.749	11.85
646.782	-3.15
646.816	-12.15
646.85	5.85
646.883	-8.15
646.917	-4.15
646.95	1.85
646.984	15.85
647.017	7.85
647.051	4.85
647.084	7.85
647.118	-6.15
647.151	9.85
647.185	21.85
647.218	-8.15
647.252	11.85
647.285	-0.15
647.319	-10.15
647.353	9.85
647.386	29.85
647.42	-0.15
647.453	0.85
647.487	12.85
647.52	4.85
647.553	6.85
647.587	-7.15
647.62	-2.15
647.654	5.85
647.687	8.85
647.721	13.85
647.754	9.85
647.788	12.85
647.821	-3.15
647.855	18.85
647.888	3.85
647.922	10.85
647.955	-4.15
647.989	0.85
648.022	-0.15
648.055	19.85
648.089	15.85
648.122	22.85
648.156	-4.15
648.189	0.85
648.223	8.85
648.256	12.85
648.29	15.85
648.323	19.85
648.356	21.85
648.39	14.85
648.423	6.85
648.457	-0.15
648.49	20.85
648.523	6.85
648.557	4.85
648.59	15.85
648.624	-0.15
648.657	2.85
648.69	20.85
648.724	13.85
648.757	28.85
648.791	4.85
648.824	7.85
648.857	16.85
648.891	-2.15
648.924	10.85
648.957	25.85
648.991	-12.15
649.024	12.85
649.057	2.85
649.091	-3.15
649.124	18.85
649.158	4.85
649.191	25.85
649.224	13.85
649.258	3.85
649.291	11.85
649.324	6.85
649.358	5.85
649.391	8.85
649.424	-1.15
649.458	0.85
649.491	-5.15
649.524	0.85
649.557	-19.15
649.591	-14.15
649.624	17.85
649.657	6.85
649.691	15.85
649.724	4.85
649.757	7.85
649.791	-14.15
649.824	8.85
649.857	19.85
649.89	6.85
649.924	-24.15
649.957	-12.15
649.99	-14.15
650.023	-10.15
650.057	3.85
650.09	10.85
650.123	3.85
650.157	11.85
650.19	3.85
650.223	-2.15
650.256	0.85
650.29	-3.15
650.323	3.85
650.356	16.85
650.389	15.85
650.423	8.85
650.456	6.85
650.489	-2.15
650.522	4.85
650.555	26.85
650.589	5.85
650.622	13.85
650.655	37.85
650.688	0.85
650.721	-10.15
650.755	13.85
650.788	-1.15
650.821	1.85
650.854	6.85
650.887	13.85
650.921	7.85
650.954	-11.15
650.987	1.85
651.02	-4.15
651.053	-0.15
651.087	-4.15
651.12	20.85
651.153	0.85
651.186	0.85
651.219	-0.15
651.252	26.85
651.286	12.85
651.319	6.85
651.352	3.85
651.385	14.85
651.418	1.85
651.451	10.85
651.484	5.85
651.518	2.85
651.551	23.85
651.584	2.85
651.617	13.85
651.65	16.85
651.683	11.85
651.716	6.85
651.749	-20.15
651.783	-4.15
651.816	6.85
651.849	21.85
651.882	-2.15
651.915	-5.15
651.948	26.85
651.981	8.85
652.014	-13.15
652.047	-17.15
652.08	2.85
652.114	-5.15
652.147	9.85
652.18	2.85
652.213	29.85
652.246	-11.15
652.279	-5.15
652.312	5.85
652.345	9.85
652.378	6.85
652.411	15.85
652.444	14.85
652.477	16.85
652.51	3.85
652.543	-15.15
652.576	14.85
652.609	-0.15
652.642	6.85
652.675	20.85
652.709	6.85
652.742	4.85
652.775	-2.15
652.808	12.85
652.841	9.85
652.874	27.85
652.907	-6.15
652.94	-15.15
652.973	-16.15
653.006	-3.15
653.039	20.85
653.072	25.85
653.105	3.85
653.138	-9.15
653.171	-6.15
653.204	-3.15
653.237	-4.15
653.27	-9.15
653.303	7.85
653.336	16.85
653.368	-12.15
653.401	-1.15
653.434	0.85
653.467	12.85
653.5	-12.15
653.533	-8.15
653.566	-8.15
653.599	-7.15
653.632	13.85
653.665	17.85
653.698	-6.15
653.731	-13.15
653.764	18.85
653.797	6.85
653.83	-13.15
653.863	0.85
653.896	11.85
653.929	8.85
653.961	8.85
653.994	2.85
654.027	-6.15
654.06	-7.15
654.093	3.85
654.126	5.85
654.159	-16.15
654.192	-4.15
654.225	11.85
654.258	-26.15
654.29	-6.15
654.323	5.85
654.356	6.85
654.389	3.85
654.422	19.85
654.455	-0.15
654.488	6.85
654.521	-1.15
654.553	-12.15
654.586	17.85
654.619	1.85
654.652	-12.15
654.685	27.85
654.718	9.85
654.751	9.85
654.783	-13.15
654.816	21.85
654.849	3.85
654.882	-8.15
654.915	-3.15
654.948	9.85
654.98	0.85
655.013	7.85
655.046	-12.15
655.079	-4.15
655.112	2.85
655.144	6.85
655.177	4.85
655.21	2.85
655.243	9.85
655.276	11.85
655.308	-6.15
655.341	-3.15
655.374	-1.15
655.407	-17.15
655.44	-3.15
655.472	6.85
655.505	0.85
655.538	10.85
655.571	7.85
655.603	-9.15
655.636	11.85
655.669	3.85
655.702	5.85
655.734	-12.15
655.767	-12.15
655.8	-4.15
655.833	1.85
655.865	17.85
655.898	-14.15
655.931	5.85
655.964	5.85
655.996	-11.15
656.029	9.85
656.062	5.85
656.095	6.85
656.127	-10.15
656.16	-1.15
656.193	-0.15
656.225	2.85
656.258	11.85
656.291	10.85
656.324	4.85
656.356	9.85
656.389	-0.15
656.422	6.85
656.454	-10.15
656.487	1.85
656.52	3.85
656.552	6.85
656.585	8.85
656.618	8.85
656.65	11.85
656.683	13.85
656.716	16.85
656.748	0.85
656.781	7.85
656.814	-15.15
656.846	-4.15
656.879	-9.15
656.912	-0.15
656.944	-9.15
656.977	-22.15
657.01	-10.15
657.042	8.85
657.075	4.85
657.108	-14.15
657.14	-11.15
657.173	5.85
657.205	28.85
657.238	8.85
657.271	3.85
657.303	-3.15
657.336	6.85
657.369	9.85
657.401	10.85
657.434	8.85
657.466	12.85
657.499	-4.15
657.532	-10.15
657.564	6.85
657.597	-8.15
657.629	-4.15
657.662	7.85
657.694	-1.15
657.727	-10.15
657.76	-6.15
657.792	8.85
657.825	-1.15
657.857	12.85
657.89	14.85
657.922	25.85
657.955	-3.15
657.987	-4.15
658.02	-6.15
658.053	1.85
658.085	12.85
658.118	7.85
658.15	3.85
658.183	24.85
658.215	-5.15
658.248	7.85
658.28	-6.15
658.313	3.85
658.345	-5.15
658.378	-9.15
658.41	6.85
658.443	19.85
658.475	-2.15
658.508	-12.15
658.54	-3.15
658.573	-20.15
658.605	-14.15
658.638	-12.15
658.67	0.85
658.703	-5.15
658.735	-4.15
658.768	3.85
658.8	-17.15
658.833	0.85
658.865	-4.15
658.898	7.85
658.93	6.85
658.963	-2.15
658.995	-4.15
659.028	0.85
659.06	3.85
659.092	-4.15
659.125	-7.15
659.157	-2.15
659.19	-2.15
659.222	7.85
659.255	-2.15
659.287	2.85
659.32	0.85
659.352	10.85
659.384	22.85
659.417	-5.15
659.449	6.85
659.482	16.85
659.514	-1.15
659.546	4.85
659.579	-13.15
659.611	5.85
659.644	2.85
659.676	-9.15
659.708	-15.15
659.741	0.85
659.773	6.85
659.806	-10.15
659.838	13.85
659.87	-2.15
659.903	-13.15
659.935	15.85
659.967	1.85
660	12.85
660.032	-12.15
660.065	13.85
660.097	-0.15
660.129	18.85
660.162	-12.15
660.194	14.85
660.226	9.85
660.259	14.85
660.291	-3.15
660.323	-8.15
660.356	1.85
660.388	-5.15
660.42	4.85
660.453	14.85
660.485	4.85
660.517	21.85
660.55	16.85
660.582	-4.15
660.614	11.85
660.647	6.85
660.679	7.85
660.711	21.85
660.743	13.85
660.776	-3.15
660.808	3.85
660.84	-23.15
660.873	-6.15
660.905	0.85
660.937	6.85
660.969	-8.15
661.002	-4.15
661.034	7.85
661.066	0.85
661.099	12.85
661.131	23.85
661.163	5.85
661.195	2.85
661.228	13.85
661.26	10.85
661.292	0.85
661.324	14.85
661.357	3.85
661.389	27.85
661.421	12.85
661.453	1.85
661.485	-1.15
661.518	11.85
661.55	-22.15
661.582	-14.15
661.614	-5.15
661.647	-4.15
661.679	-4.15
661.711	4.85
661.743	-4.15
661.775	3.85
661.808	25.85
661.84	-23.15
661.872	10.85
661.904	5.85
661.936	2.85
661.969	-0.15
662.001	0.85
662.033	-0.15
662.065	-2.15
662.097	19.85
662.129	-10.15
662.162	-9.15
662.194	7.85
662.226	16.85
662.258	9.85
662.29	5.85
662.322	0.85
662.355	-9.15
662.387	8.85
662.419	4.85
662.451	11.85
662.483	2.85
662.515	1.85
662.547	-13.15
662.58	-7.15
662.612	3.85
662.644	-10.15
662.676	22.85
662.708	11.85
662.74	7.85
662.772	16.85
662.804	9.85
662.836	21.85
662.869	11.85
662.901	13.85
662.933	-14.15
662.965	8.85
662.997	10.85
663.029	-8.15
663.061	0.85
663.093	-0.15
663.125	5.85
663.157	6.85
663.189	0.85
663.221	8.85
663.254	10.85
663.286	24.85
663.318	-3.15
663.35	-13.15
663.382	1.85
663.414	24.85
663.446	3.85
663.478	7.85
663.51	25.85
663.542	-18.15
663.574	0.85
663.606	-5.15
663.638	-2.15
663.67	8.85
663.702	-7.15
663.734	-6.15
663.766	-1.15
663.798	-5.15
663.83	-5.15
663.862	13.85
663.894	5.85
663.926	1.85
663.958	-2.15
663.99	-0.15
664.022	-9.15
664.054	-9.15
664.086	-4.15
664.118	-16.15
664.15	-3.15
664.182	9.85
664.214	-3.15
664.246	21.85
664.278	0.85
664.31	9.85
664.342	0.85
664.374	7.85
664.406	-6.15
664.438	-7.15
664.47	5.85
664.502	-10.15
664.534	-2.15
664.566	6.85
664.598	16.85
664.63	5.85
664.662	10.85
664.693	26.85
664.725	1.85
664.757	2.85
664.789	-13.15
664.821	4.85
664.853	20.85
664.885	13.85
664.917	16.85
664.949	9.85
664.981	23.85
665.013	1.85
665.045	-10.15
665.076	8.85
665.108	2.85
665.14	-1.15
665.172	-6.15
665.204	-15.15
665.236	-7.15
665.268	13.85
665.3	0.85
665.331	-2.15
665.363	8.85
665.395	-10.15
665.427	11.85
665.459	11.85
665.491	-1.15
665.523	-0.15
665.555	6.85
665.586	-4.15
665.618	-14.15
665.65	-8.15
665.682	-8.15
665.714	7.85
665.746	-1.15
665.777	4.85
665.809	2.85
665.841	7.85
665.873	2.85
665.905	8.85
665.937	18.85
665.968	10.85
666	-13.15
666.032	-2.15
666.064	5.85
666.096	-8.15
666.127	27.85
666.159	10.85
666.191	2.85
666.223	-12.15
666.255	9.85
666.286	9.85
666.318	-11.15
666.35	9.85
666.382	13.85
666.413	-3.15
666.445	-4.15
666.477	-11.15
666.509	-3.15
666.54	4.85
666.572	-2.15
666.604	2.85
666.636	-2.15
666.667	10.85
666.699	19.85
666.731	3.85
666.763	-12.15
666.794	2.85
666.826	16.85
666.858	0.85
666.89	9.85
666.921	18.85
666.953	-0.15
666.985	11.85
667.017	30.85
667.048	6.85
667.08	5.85
667.112	-3.15
667.143	-13.15
667.175	7.85
667.207	11.85
667.238	3.85
667.27	6.85
667.302	-4.15
667.334	-5.15
667.365	8.85
667.397	-14.15
667.429	-3.15
667.46	15.85
667.492	3.85
667.524	11.85
667.555	-5.15
667.587	0.85
667.619	-0.15
667.65	-13.15
667.682	-1.15
667.714	14.85
667.745	-5.15
667.777	5.85
667.808	23.85
667.84	-4.15
667.872	7.85
667.903	11.85
667.935	8.85
667.967	-0.15
667.998	-6.15
668.03	2.85
668.061	7.85
668.093	3.85
668.125	6.85
668.156	5.85
668.188	14.85
668.22	-11.15
668.251	4.85
668.283	21.85
668.314	21.85
668.346	15.85
668.377	9.85
668.409	13.85
668.441	29.85
668.472	4.85
668.504	4.85
668.535	22.85
668.567	27.85
668.599	15.85
668.63	-11.15
668.662	7.85
668.693	22.85
668.725	17.85
668.756	22.85
668.788	-1.15
668.819	4.85
668.851	-9.15
668.882	-1.15
668.914	-5.15
668.946	-3.15
668.977	4.85
669.009	-3.15
669.04	5.85
669.072	4.85
669.103	-3.15
669.135	1.85
669.166	7.85
669.198	2.85
669.229	9.85
669.261	18.85
669.292	3.85
669.324	4.85
669.355	-3.15
669.387	-12.15
669.418	10.85
669.45	-7.15
669.481	-3.15
669.513	-1.15
669.544	5.85
669.576	2.85
669.607	25.85
669.639	7.85
669.67	-11.15
669.701	8.85
669.733	-15.15
669.764	4.85
669.796	-10.15
669.827	-21.15
669.859	-27.15
669.89	20.85
669.922	6.85
669.953	0.85
669.985	1.85
670.016	10.85
670.047	13.85
670.079	1.85
670.11	18.85
670.142	5.85
670.173	5.85
670.204	-7.15
670.236	2.85
670.267	-11.15
670.299	-9.15
670.33	18.85
670.362	25.85
670.393	1.85
670.424	16.85
670.456	1.85
670.487	-5.15
670.518	6.85
670.55	3.85
670.581	-13.15
670.613	3.85
670.644	3.85
670.675	7.85
670.707	5.85
670.738	0.85
670.769	11.85
670.801	0.85
670.832	8.85
670.864	-3.15
670.895	5.85
670.926	6.85
670.958	17.85
670.989	10.85
671.02	-9.15
671.052	3.85
671.083	2.85
671.114	13.85
671.146	5.85
671.177	3.85
671.208	-8.15
671.24	-19.15
671.271	-14.15
671.302	13.85
671.333	-9.15
671.365	-7.15
671.396	3.85
671.427	13.85
671.459	22.85
671.49	3.85
671.521	3.85
671.553	7.85
671.584	13.85
671.615	-16.15
671.646	4.85
671.678	-0.15
671.709	-15.15
671.74	-12.15
671.771	0.85
671.803	4.85
671.834	-0.15
671.865	3.85
671.896	-5.15
671.928	5.85
671.959	-0.15
671.99	-5.15
672.021	-3.15
672.053	-9.15
672.084	19.85
672.115	17.85
672.146	0.85
672.178	-11.15
672.209	-0.15
672.24	4.85
672.271	19.85
672.303	-4.15
672.334	1.85
672.365	5.85
672.396	-5.15
672.427	12.85
672.459	11.85
672.49	28.85
672.521	11.85
672.552	7.85
672.583	9.85
672.615	6.85
672.646	10.85
672.677	-4.15
672.708	4.85
672.739	-0.15
672.77	5.85
672.802	11.85
672.833	16.85
672.864	-2.15
672.895	1.85
672.926	-8.15
672.957	-10.15
672.989	-5.15
673.02	11.85
673.051	2.85
673.082	11.85
673.113	0.85
673.144	13.85
673.175	8.85
673.206	-3.15
673.238	-8.15
673.269	-6.15
673.3	8.85
673.331	4.85
673.362	15.85
673.393	0.85
673.424	18.85
673.455	17.85
673.487	16.85
673.518	16.85
673.549	12.85
673.58	5.85
673.611	-0.15
673.642	-2.15
673.673	-16.15
673.704	21.85
673.735	-3.15
673.766	-19.15
673.797	-9.15
673.828	7.85
673.86	-0.15
673.891	-6.15
673.922	-5.15
673.953	-5.15
673.984	9.85
674.015	0.85
674.046	-5.15
674.077	0.85
674.108	-22.15
674.139	0.85
674.17	-2.15
674.201	-16.15
674.232	4.85
674.263	-2.15
674.294	-12.15
674.325	2.85
674.356	25.85
674.387	15.85
674.418	-7.15
674.449	0.85
674.48	-9.15
674.511	-0.15
674.542	-4.15
674.573	4.85
674.604	10.85
674.635	-3.15
674.666	-1.15
674.697	-0.15
674.728	7.85
674.759	7.85
674.79	-0.15
674.821	-2.15
674.852	-0.15
674.883	-11.15
674.914	9.85
674.945	7.85
674.976	0.85
675.007	-5.15
675.038	6.85
675.069	-8.15
675.1	-0.15
675.131	12.85
675.162	-8.15
675.193	-2.15
675.224	6.85
675.254	9.85
675.285	-7.15
675.316	2.85
675.347	4.85
675.378	-5.15
675.409	-13.15
675.44	4.85
675.471	6.85
675.502	-0.15
675.533	-1.15
675.564	-9.15
675.595	1.85
675.625	19.85
675.656	18.85
675.687	-0.15
675.718	3.85
675.749	8.85
675.78	9.85
675.811	2.85
675.842	17.85
675.873	-11.15
675.903	-7.15
675.934	-0.15
675.965	2.85
675.996	-1.15
676.027	23.85
676.058	1.85
676.089	9.85
676.119	13.85
676.15	12.85
676.181	15.85
676.212	1.85
676.243	19.85
676.274	-3.15
676.304	10.85
676.335	-4.15
676.366	5.85
676.397	-2.15
676.428	-21.15
676.459	15.85
676.489	3.85
676.52	8.85
676.551	-4.15
676.582	9.85
676.613	5.85
676.643	-7.15
676.674	16.85
676.705	0.85
676.736	0.85
676.767	11.85
676.797	5.85
676.828	19.85
676.859	-10.15
676.89	0.85
676.92	2.85
676.951	10.85
676.982	-8.15
677.013	-8.15
677.044	18.85
677.074	15.85
677.105	-5.15
677.136	7.85
677.167	5.85
677.197	10.85
677.228	0.85
677.259	-4.15
677.289	-3.15
677.32	0.85
677.351	-1.15
677.382	7.85
677.412	-6.15
677.443	17.85
677.474	-5.15
677.505	-7.15
677.535	-0.15
677.566	-6.15
677.597	-14.15
677.627	-20.15
677.658	-3.15
677.689	-0.15
677.72	4.85
677.75	3.85
677.781	2.85
677.812	-7.15
677.842	4.85
677.873	-2.15
677.904	3.85
677.934	12.85
677.965	-6.15
677.996	-11.15
678.026	-3.15
678.057	-2.15
678.088	-17.15
678.118	0.85
678.149	-9.15
678.18	-2.15
678.21	11.85
678.241	1.85
678.272	10.85
678.302	10.85
678.333	13.85
678.363	9.85
678.394	11.85
678.425	-9.15
678.455	4.85
678.486	0.85
678.517	-0.15
678.547	2.85
678.578	-11.15
678.608	-4.15
678.639	15.85
678.67	-0.15
678.7	-12.15
678.731	-11.15
678.761	2.85
678.792	4.85
678.823	6.85
678.853	0.85
678.884	-10.15
678.914	12.85
678.945	7.85
678.975	-7.15
679.006	12.85
679.037	5.85
679.067	33.85
679.098	-1.15
679.128	11.85
679.159	9.85
679.189	15.85
679.22	-11.15
679.25	21.85
679.281	11.85
679.312	-5.15
679.342	10.85
679.373	36.85
679.403	9.85
679.434	13.85
679.464	2.85
679.495	4.85
679.525	14.85
679.556	2.85
679.586	12.85
679.617	3.85
679.647	-5.15
679.678	-12.15
679.708	-4.15
679.739	6.85
679.769	-16.15
679.8	-3.15
679.83	1.85
679.861	12.85
679.891	2.85
679.922	-3.15
679.952	17.85
679.983	12.85
680.013	13.85
680.044	8.85
680.074	15.85
680.105	23.85
680.135	6.85
680.165	15.85
680.196	16.85
680.226	22.85
680.257	12.85
680.287	3.85
680.318	-0.15
680.348	1.85
680.379	10.85
680.409	4.85
680.439	-7.15
680.47	-3.15
680.5	6.85
680.531	12.85
680.561	0.85
680.592	12.85
680.622	13.85
680.652	-3.15
680.683	2.85
680.713	2.85
680.744	-14.15
680.774	-0.15
680.804	22.85
680.835	7.85
680.865	-23.15
680.896	14.85
680.926	13.85
680.956	15.85
680.987	11.85
681.017	-2.15
681.047	5.85
681.078	0.85
681.108	-9.15
681.139	3.85
681.169	-2.15
681.199	-8.15
681.23	2.85
681.26	-2.15
681.29	7.85
681.321	-2.15
681.351	-0.15
681.381	-2.15
681.412	-9.15
681.442	-5.15
681.472	18.85
681.503	19.85
681.533	10.85
681.563	9.85
681.594	2.85
681.624	6.85
681.654	3.85
681.685	5.85
681.715	1.85
681.745	-1.15
681.775	-2.15
681.806	-1.15
681.836	-1.15
681.866	18.85
681.897	12.85
681.927	-1.15
681.957	-6.15
681.987	7.85
682.018	2.85
682.048	3.85
682.078	17.85
682.109	35.85
682.139	5.85
682.169	-17.15
682.199	2.85
682.23	-8.15
682.26	3.85
682.29	10.85
682.32	-4.15
682.351	-9.15
682.381	4.85
682.411	-7.15
682.441	0.85
682.472	2.85
682.502	-0.15
682.532	-0.15
682.562	10.85
682.592	8.85
682.623	6.85
682.653	-1.15
682.683	-12.15
682.713	1.85
682.743	-1.15
682.774	-14.15
682.804	4.85
682.834	24.85
682.864	0.85
682.894	-1.15
682.925	-11.15
682.955	-2.15
682.985	0.85
683.015	-0.15
683.045	17.85
683.076	-5.15
683.106	-1.15
683.136	11.85
683.166	5.85
683.196	6.85
683.226	-4.15
683.257	-0.15
683.287	-20.15
683.317	-4.15
683.347	-3.15
683.377	12.85
683.407	2.85
683.437	3.85
683.468	23.85
683.498	6.85
683.528	-8.15
683.558	1.85
683.588	-7.15
683.618	-0.15
683.648	-20.15
683.678	6.85
683.708	1.85
683.739	-6.15
683.769	5.85
683.799	6.85
683.829	16.85
683.859	1.85
683.889	2.85
683.919	3.85
683.949	-9.15
683.979	-14.15
684.009	0.85
684.039	-6.15
684.07	-2.15
684.1	25.85
684.13	6.85
684.16	8.85
684.19	1.85
684.22	1.85
684.25	11.85
684.28	2.85
684.31	23.85
684.34	8.85
684.37	3.85
684.4	1.85
684.43	-1.15
684.46	-0.15
684.49	-6.15
684.52	0.85
684.55	7.85
684.58	0.85
684.61	3.85
684.64	6.85
684.67	8.85
684.7	-3.15
684.73	3.85
684.76	10.85
684.79	23.85
684.82	1.85
684.85	-8.15
684.88	12.85
684.91	-0.15
684.94	10.85
684.97	-19.15
685	-8.15
685.03	2.85
685.06	-1.15
685.09	-3.15
685.12	10.85
685.15	-4.15
685.18	4.85
685.21	2.85
685.24	19.85
685.27	16.85
685.3	-13.15
685.33	19.85
685.36	12.85
685.39	2.85
685.42	-10.15
685.45	5.85
685.48	10.85
685.51	-5.15
685.54	4.85
685.569	18.85
685.599	5.85
685.629	19.85
685.659	-5.15
685.689	-7.15
685.719	-0.15
685.749	-7.15
685.779	5.85
685.809	-3.15
685.839	2.85
685.869	4.85
685.898	11.85
685.928	-2.15
685.958	-15.15
685.988	19.85
686.018	4.85
686.048	3.85
686.078	12.85
686.108	13.85
686.137	-11.15
686.167	23.85
686.197	-10.15
686.227	2.85
686.257	19.85
686.287	30.85
686.317	1.85
686.346	-0.15
686.376	-9.15
686.406	4.85
686.436	1.85
686.466	0.85
686.496	-4.15
686.525	1.85
686.555	-14.15
686.585	12.85
686.615	47.85
686.645	24.85
686.675	11.85
686.704	-4.15
686.734	12.85
686.764	-3.15
686.794	0.85
686.824	-0.15
686.853	10.85
686.883	23.85
686.913	22.85
686.943	6.85
686.973	-6.15
687.002	8.85
687.032	10.85
687.062	-1.15
687.092	24.85
687.121	1.85
687.151	8.85
687.181	19.85
687.211	4.85
687.24	13.85
687.27	-3.15
687.3	-10.15
687.33	6.85
687.359	-16.15
687.389	-6.15
687.419	11.85
687.449	14.85
687.478	13.85
687.508	11.85
687.538	8.85
687.568	13.85
687.597	3.85
687.627	9.85
687.657	-9.15
687.686	-8.15
687.716	20.85
687.746	-3.15
687.776	-9.15
687.805	5.85
687.835	4.85
687.865	4.85
687.894	8.85
687.924	4.85
687.954	2.85
687.983	0.85
688.013	11.85
688.043	-0.15
688.072	3.85
688.102	9.85
688.132	-0.15
688.161	13.85
688.191	12.85
688.221	27.85
688.25	5.85
688.28	7.85
688.31	9.85
688.339	7.85
688.369	1.85
688.399	2.85
688.428	-3.15
688.458	10.85
688.488	3.85
688.517	4.85
688.547	-1.15
688.576	21.85
688.606	8.85
688.636	3.85
688.665	9.85
688.695	15.85
688.725	17.85
688.754	11.85
688.784	2.85
688.813	1.85
688.843	13.85
688.873	12.85
688.902	2.85
688.932	-5.15
688.961	-7.15
688.991	17.85
689.02	12.85
689.05	9.85
689.08	21.85
689.109	23.85
689.139	0.85
689.168	26.85
689.198	6.85
689.227	0.85
689.257	9.85
689.287	11.85
689.316	3.85
689.346	-0.15
689.375	1.85
689.405	14.85
689.434	2.85
689.464	12.85
689.493	3.85
689.523	-6.15
689.552	8.85
689.582	-0.15
689.611	-3.15
689.641	12.85
689.67	-6.15
689.7	11.85
689.73	16.85
689.759	7.85
689.789	12.85
689.818	0.85
689.848	7.85
689.877	12.85
689.906	-0.15
689.936	-0.15
689.965	10.85
689.995	12.85
690.024	13.85
690.054	-5.15
690.083	11.85
690.113	7.85
690.142	7.85
690.172	6.85
690.201	-3.15
690.231	-6.15
690.26	19.85
690.29	4.85
690.319	14.85
690.348	1.85
690.378	-0.15
690.407	3.85
690.437	3.85
690.466	10.85
690.496	-5.15
690.525	17.85
690.555	2.85
690.584	1.85
690.613	1.85
690.643	1.85
690.672	14.85
690.702	9.85
690.731	-7.15
690.76	4.85
690.79	63.85
690.819	64.85
690.849	43.85
690.878	36.85
690.907	34.85
690.937	25.85
690.966	18.85
690.996	4.85
691.025	0.85
691.054	15.85
691.084	3.85
691.113	16.85
691.142	3.85
691.172	0.85
691.201	14.85
691.23	8.85
691.26	9.85
691.289	7.85
691.319	-0.15
691.348	-0.15
691.377	14.85
691.407	13.85
691.436	12.85
691.465	11.85
691.495	6.85
691.524	-2.15
691.553	-17.15
691.583	-0.15
691.612	11.85
691.641	13.85
691.67	-2.15
691.7	11.85
691.729	-12.15
691.758	2.85
691.788	8.85
691.817	-0.15
691.846	9.85
691.876	3.85
691.905	16.85
691.934	1.85
691.963	17.85
691.993	17.85
692.022	-0.15
692.051	-24.15
692.081	6.85
692.11	13.85
692.139	18.85
692.168	2.85
692.198	10.85
692.227	23.85
692.256	7.85
692.285	35.85
692.315	5.85
692.344	7.85
692.373	2.85
692.402	-6.15
692.432	-7.15
692.461	2.85
692.49	9.85
692.519	6.85
692.548	19.85
692.578	16.85
692.607	12.85
692.636	3.85
692.665	7.85
692.694	-7.15
692.724	-4.15
692.753	2.85
692.782	3.85
692.811	-0.15
692.84	1.85
692.87	4.85
692.899	0.85
692.928	-5.15
692.957	7.85
692.986	7.85
693.016	-11.15
693.045	9.85
693.074	9.85
693.103	2.85
693.132	3.85
693.161	14.85
693.191	-0.15
693.22	-9.15
693.249	1.85
693.278	3.85
693.307	9.85
693.336	-6.15
693.365	-17.15
693.395	12.85
693.424	-2.15
693.453	20.85
693.482	9.85
693.511	8.85
693.54	13.85
693.569	11.85
693.598	8.85
693.628	22.85
693.657	18.85
693.686	10.85
693.715	16.85
693.744	27.85
693.773	19.85
693.802	-1.15
693.831	6.85
693.86	16.85
693.889	15.85
693.919	4.85
693.948	10.85
693.977	28.85
694.006	-1.15
694.035	-9.15
694.064	-12.15
694.093	3.85
694.122	0.85
694.151	2.85
694.18	21.85
694.209	25.85
694.238	17.85
694.267	15.85
694.296	28.85
694.325	21.85
694.354	12.85
694.383	-0.15
694.412	4.85
694.441	13.85
694.471	-2.15
694.5	-7.15
694.529	2.85
694.558	17.85
694.587	21.85
694.616	11.85
694.645	2.85
694.674	20.85
694.703	26.85
694.732	-3.15
694.761	10.85
694.79	9.85
694.819	-3.15
694.848	-9.15
694.877	11.85
694.906	28.85
694.935	10.85
694.963	9.85
694.992	10.85
695.021	8.85
695.05	9.85
695.079	8.85
695.108	-16.15
695.137	3.85
695.166	17.85
695.195	0.85
695.224	5.85
695.253	14.85
695.282	10.85
695.311	6.85
695.34	2.85
695.369	8.85
695.398	-2.15
695.427	22.85
695.456	7.85
695.485	13.85
695.513	3.85
695.542	0.85
695.571	2.85
695.6	13.85
695.629	3.85
695.658	3.85
695.687	-2.15
695.716	5.85
695.745	22.85
695.774	-4.15
695.802	-0.15
695.831	13.85
695.86	17.85
695.889	17.85
695.918	5.85
695.947	1.85
695.976	-1.15
696.005	-3.15
696.033	-0.15
696.062	15.85
696.091	1.85
696.12	10.85
696.149	20.85
696.178	0.85
696.207	10.85
696.235	-2.15
696.264	21.85
696.293	-1.15
696.322	12.85
696.351	17.85
696.38	-1.15
696.408	-4.15
696.437	6.85
696.466	-1.15
696.495	24.85
696.524	11.85
696.553	15.85
696.581	12.85
696.61	8.85
696.639	-1.15
696.668	3.85
696.697	6.85
696.725	16.85
696.754	13.85
696.783	-11.15
696.812	-9.15
696.84	-1.15
696.869	12.85
696.898	1.85
696.927	20.85
696.956	22.85
696.984	2.85
697.013	-10.15
697.042	4.85
697.071	0.85
697.099	15.85
697.128	12.85
697.157	0.85
697.186	-0.15
697.214	5.85
697.243	4.85
697.272	-1.15
697.301	2.85
697.329	-5.15
697.358	16.85
697.387	27.85
697.415	17.85
697.444	0.85
697.473	0.85
697.502	2.85
697.53	17.85
697.559	4.85
697.588	4.85
697.616	6.85
697.645	3.85
697.674	24.85
697.703	3.85
697.731	28.85
697.76	14.85
697.789	9.85
697.817	0.85
697.846	19.85
697.875	5.85
697.903	25.85
697.932	0.85
697.961	-6.15
697.989	5.85
698.018	16.85
698.047	14.85
698.075	8.85
698.104	6.85
698.133	1.85
698.161	12.85
698.19	15.85
698.218	8.85
698.247	8.85
698.276	0.85
698.304	2.85
698.333	7.85
698.362	2.85
698.39	0.85
698.419	16.85
698.447	4.85
698.476	-0.15
698.505	4.85
698.533	5.85
698.562	11.85
698.591	4.85
698.619	-9.15
698.648	15.85
698.676	6.85
698.705	-3.15
698.733	-25.15
698.762	0.85
698.791	10.85
698.819	11.85
698.848	23.85
698.876	26.85
698.905	-2.15
698.933	3.85
698.962	1.85
698.991	12.85
699.019	19.85
699.048	-2.15
699.076	-0.15
699.105	-7.15
699.133	-16.15
699.162	-1.15
699.19	14.85
699.219	16.85
699.248	-4.15
699.276	-1.15
699.305	2.85
699.333	4.85
699.362	10.85
699.39	16.85
699.419	-6.15
699.447	-0.15
699.476	15.85
699.504	-11.15
699.533	-2.15
699.561	-10.15
699.59	-1.15
699.618	-1.15
699.647	5.85
699.675	2.85
699.704	0.85
699.732	2.85
699.761	-0.15
699.789	-3.15
699.818	7.85
699.846	22.85
699.874	6.85
699.903	1.85
699.931	-0.15
699.96	0.85
699.988	2.85
700.017	4.85
700.045	-6.15
700.074	3.85
700.102	9.85
700.13	-0.15
700.159	-1.15
700.187	-7.15
700.216	0.85
700.244	-7.15
700.273	-8.15
700.301	0.85
700.329	8.85
700.358	14.85
700.386	-0.15
700.415	-8.15
700.443	0.85
700.472	12.85
700.5	4.85
700.528	-0.15
700.557	12.85
700.585	-13.15
700.614	0.85
700.642	25.85
700.67	12.85
700.699	5.85
700.727	11.85
700.755	13.85
700.784	6.85
700.812	0.85
700.841	21.85
700.869	4.85
700.897	-12.15
700.926	-1.15
700.954	10.85
700.982	11.85
701.011	3.85
701.039	-4.15
701.067	-8.15
701.096	10.85
701.124	2.85
701.152	0.85
701.181	5.85
701.209	-10.15
701.237	-17.15
701.266	-6.15
701.294	-8.15
701.322	7.85
701.351	10.85
701.379	-8.15
701.407	-2.15
701.435	4.85
701.464	15.85
701.492	13.85
701.52	0.85
701.549	-5.15
701.577	-12.15
701.605	-16.15
701.634	14.85
701.662	19.85
701.69	-6.15
701.718	5.85
701.747	16.85
701.775	-11.15
701.803	-9.15
701.831	-3.15
701.86	4.85
701.888	5.85
701.916	-4.15
701.944	6.85
701.973	-9.15
702.001	-9.15
702.029	-1.15
702.057	8.85
702.086	-20.15
702.114	-20.15
702.142	3.85
702.17	-6.15
702.199	5.85
702.227	11.85
702.255	23.85
702.283	5.85
702.311	5.85
702.34	3.85
702.368	-1.15
702.396	2.85
702.424	-0.15
702.452	5.85
702.481	1.85
702.509	-10.15
702.537	7.85
702.565	11.85
702.593	-19.15
702.621	-12.15
702.65	20.85
702.678	8.85
702.706	12.85
702.734	-11.15
702.762	11.85
702.79	-3.15
702.819	8.85
702.847	0.85
702.875	10.85
702.903	17.85
702.931	-7.15
702.959	0.85
702.988	8.85
703.016	2.85
703.044	4.85
703.072	-0.15
703.1	-8.15
703.128	7.85
703.156	6.85
703.184	2.85
703.212	9.85
703.241	3.85
703.269	8.85
703.297	0.85
703.325	7.85
703.353	-5.15
703.381	-4.15
703.409	-0.15
703.437	0.85
703.465	-7.15
703.493	-6.15
703.522	9.85
703.55	10.85
703.578	6.85
703.606	-22.15
703.634	-3.15
703.662	-5.15
703.69	16.85
703.718	16.85
703.746	11.85
703.774	-0.15
703.802	17.85
703.83	13.85
703.858	8.85
703.886	-0.15
703.914	-0.15
703.942	5.85
703.97	-5.15
703.998	-11.15
704.027	16.85
704.055	8.85
704.083	7.85
704.111	-14.15
704.139	-7.15
704.167	4.85
704.195	-4.15
704.223	5.85
704.251	2.85
704.279	12.85
704.307	2.85
704.335	-17.15
704.363	-2.15
704.391	7.85
704.419	-4.15
704.447	1.85
704.475	-1.15
704.503	2.85
704.531	22.85
704.558	-3.15
704.586	5.85
704.614	9.85
704.642	1.85
704.67	-15.15
704.698	-4.15
704.726	6.85
704.754	0.85
704.782	2.85
704.81	1.85
704.838	10.85
704.866	23.85
704.894	-7.15
704.922	1.85
704.95	12.85
704.978	25.85
705.006	1.85
705.034	11.85
705.061	-12.15
705.089	-11.15
705.117	-10.15
705.145	3.85
705.173	8.85
705.201	18.85
705.229	10.85
705.257	6.85
705.285	30.85
705.313	7.85
705.34	-6.15
705.368	-1.15
705.396	10.85
705.424	6.85
705.452	6.85
705.48	-5.15
705.508	-6.15
705.536	-5.15
705.563	-3.15
705.591	12.85
705.619	-5.15
705.647	-16.15
705.675	4.85
705.703	6.85
705.731	6.85
705.758	10.85
705.786	1.85
705.814	14.85
705.842	18.85
705.87	20.85
705.898	18.85
705.925	-10.15
705.953	5.85
705.981	-13.15
706.009	-7.15
706.037	7.85
706.065	0.85
706.092	-11.15
706.12	7.85
706.148	0.85
706.176	-3.15
706.204	7.85
706.231	5.85
706.259	-6.15
706.287	11.85
706.315	3.85
706.342	0.85
706.37	18.85
706.398	-4.15
706.426	15.85
706.454	2.85
706.481	6.85
706.509	-6.15
706.537	-2.15
706.565	-0.15
706.592	16.85
706.62	4.85
706.648	-3.15
706.676	1.85
706.703	5.85
706.731	-6.15
706.759	-2.15
706.787	17.85
706.814	-1.15
706.842	-1.15
706.87	7.85
706.897	5.85
706.925	10.85
706.953	22.85
706.981	31.85
707.008	3.85
707.036	10.85
707.064	-9.15
707.091	-11.15
707.119	9.85
707.147	4.85
707.174	9.85
707.202	20.85
707.23	-10.15
707.258	15.85
707.285	7.85
707.313	-0.15
707.341	2.85
707.368	-5.15
707.396	10.85
707.424	8.85
707.451	11.85
707.479	7.85
707.507	-2.15
707.534	-4.15
707.562	10.85
707.59	0.85
707.617	-15.15
707.645	-6.15
707.672	1.85
707.7	0.85
707.728	12.85
707.755	14.85
707.783	6.85
707.811	11.85
707.838	1.85
707.866	-25.15
707.893	0.85
707.921	-6.15
707.949	0.85
707.976	20.85
708.004	12.85
708.031	2.85
708.059	-0.15
708.087	1.85
708.114	-10.15
708.142	-6.15
708.169	-15.15
708.197	-6.15
708.225	-2.15
708.252	4.85
708.28	7.85
708.307	-5.15
708.335	19.85
708.362	1.85
708.39	-4.15
708.418	2.85
708.445	-26.15
708.473	-11.15
708.5	-17.15
708.528	0.85
708.555	3.85
708.583	8.85
708.61	-0.15
708.638	10.85
708.665	-1.15
708.693	4.85
708.72	-2.15
708.748	-11.15
708.776	2.85
708.803	21.85
708.831	18.85
708.858	23.85
708.886	8.85
708.913	18.85
708.941	-3.15
708.968	12.85
708.996	1.85
709.023	13.85
709.051	-10.15
709.078	5.85
709.105	-12.15
709.133	-11.15
709.16	-1.15
709.188	-5.15
709.215	8.85
709.243	24.85
709.27	-9.15
709.298	11.85
709.325	-8.15
709.353	-4.15
709.38	-4.15
709.408	17.85
709.435	11.85
709.462	-13.15
709.49	5.85
709.517	3.85
709.545	7.85
709.572	2.85
709.6	-3.15
709.627	4.85
709.655	-11.15
709.682	0.85
709.709	11.85
709.737	3.85
709.764	0.85
709.792	3.85
709.819	9.85
709.846	-8.15
709.874	13.85
709.901	4.85
709.929	16.85
709.956	16.85
709.983	3.85
710.011	-7.15
710.038	0.85
710.066	20.85
710.093	0.85
710.12	3.85
710.148	0.85
710.175	-5.15
710.202	-9.15
710.23	26.85
710.257	2.85
710.284	0.85
710.312	3.85
710.339	6.85
710.366	-1.15
710.394	-1.15
710.421	-0.15
710.448	4.85
710.476	-8.15
710.503	5.85
710.53	11.85
710.558	8.85
710.585	16.85
710.612	-0.15
710.64	7.85
710.667	7.85
710.694	-4.15
710.722	-1.15
710.749	-9.15
710.776	7.85
710.804	16.85
710.831	3.85
710.858	2.85
710.885	6.85
710.913	4.85
710.94	13.85
710.967	14.85
710.995	8.85
711.022	2.85
711.049	9.85
711.076	2.85
711.104	17.85
711.131	0.85
711.158	4.85
711.185	14.85
711.213	-1.15
711.24	-5.15
711.267	-0.15
711.294	-4.15
711.322	14.85
711.349	2.85
711.376	-2.15
711.403	-4.15
711.431	-5.15
711.458	4.85
711.485	3.85
711.512	2.85
711.54	8.85
711.567	14.85
711.594	-3.15
711.621	3.85
711.648	1.85
711.676	0.85
711.703	6.85
711.73	-3.15
711.757	-10.15
711.784	4.85
711.812	12.85
711.839	1.85
711.866	-3.15
711.893	2.85
711.92	15.85
711.947	22.85
711.975	8.85
712.002	9.85
712.029	1.85
712.056	0.85
712.083	4.85
712.11	-4.15
712.138	6.85
712.165	-6.15
712.192	-0.15
712.219	-3.15
712.246	3.85
712.273	-5.15
712.3	-1.15
712.328	4.85
712.355	-4.15
712.382	10.85
712.409	20.85
712.436	-15.15
712.463	-0.15
712.49	19.85
712.517	1.85
712.544	1.85
712.572	3.85
712.599	-13.15
712.626	22.85
712.653	15.85
712.68	4.85
712.707	20.85
712.734	7.85
712.761	8.85
712.788	5.85
712.815	-5.15
712.842	10.85
712.87	9.85
712.897	-0.15
712.924	-23.15
712.951	-2.15
712.978	4.85
713.005	11.85
713.032	8.85
713.059	-10.15
713.086	1.85
713.113	-3.15
713.14	-6.15
713.167	23.85
713.194	33.85
713.221	26.85
713.248	13.85
713.275	0.85
713.302	-9.15
713.329	-4.15
713.356	4.85
713.383	6.85
713.41	13.85
713.437	5.85
713.464	5.85
713.491	15.85
713.518	0.85
713.545	2.85
713.572	12.85
713.599	18.85
713.626	12.85
713.653	7.85
713.68	-4.15
713.707	-11.15
713.734	15.85
713.761	8.85
713.788	-5.15
713.815	0.85
713.842	7.85
713.869	-4.15
713.896	6.85
713.923	18.85
713.95	4.85
713.977	4.85
714.004	4.85
714.031	-2.15
714.058	-4.15
714.085	2.85
714.112	12.85
714.139	-4.15
714.165	-2.15
714.192	-11.15
714.219	3.85
714.246	14.85
714.273	6.85
714.3	-7.15
714.327	-5.15
714.354	2.85
714.381	9.85
714.408	8.85
714.435	1.85
714.461	1.85
714.488	11.85
714.515	0.85
714.542	-1.15
714.569	-12.15
714.596	5.85
714.623	10.85
714.65	-8.15
714.677	17.85
714.703	-0.15
714.73	0.85
714.757	26.85
714.784	9.85
714.811	-1.15
714.838	13.85
714.865	-0.15
714.891	-0.15
714.918	-3.15
714.945	-10.15
714.972	0.85
714.999	6.85
715.026	-19.15
715.052	7.85
715.079	-5.15
715.106	3.85
715.133	2.85
715.16	2.85
715.187	0.85
715.213	5.85
715.24	0.85
715.267	1.85
715.294	8.85
715.321	7.85
715.347	3.85
715.374	-4.15
715.401	3.85
715.428	12.85
715.455	13.85
715.481	-6.15
715.508	10.85
715.535	3.85
715.562	22.85
715.588	8.85
715.615	-8.15
715.642	-11.15
715.669	0.85
715.695	4.85
715.722	-2.15
715.749	13.85
715.776	14.85
715.802	-0.15
715.829	2.85
715.856	9.85
715.883	27.85
715.909	2.85
715.936	9.85
715.963	5.85
715.99	-15.15
716.016	-4.15
716.043	-0.15
716.07	-7.15
716.096	-5.15
716.123	-10.15
716.15	-0.15
716.177	0.85
716.203	14.85
716.23	1.85
716.257	3.85
716.283	11.85
716.31	2.85
716.337	-11.15
716.363	-9.15
716.39	9.85
716.417	40.85
716.443	7.85
716.47	-5.15
716.497	4.85
716.523	16.85
716.55	4.85
716.577	15.85
716.603	0.85
716.63	3.85
716.657	16.85
716.683	-1.15
716.71	-1.15
716.737	-15.15
716.763	-6.15
716.79	17.85
716.817	9.85
716.843	12.85
716.87	2.85
716.897	-4.15
716.923	17.85
716.95	-0.15
716.976	-7.15
717.003	-7.15
717.03	4.85
717.056	12.85
717.083	0.85
717.109	2.85
717.136	7.85
717.163	3.85
717.189	6.85
717.216	-4.15
717.242	-4.15
717.269	1.85
717.296	15.85
717.322	11.85
717.349	8.85
717.375	19.85
717.402	9.85
717.428	2.85
717.455	23.85
717.481	18.85
717.508	12.85
717.535	9.85
717.561	-0.15
717.588	3.85
717.614	26.85
717.641	0.85
717.667	7.85
717.694	18.85
717.72	-0.15
717.747	7.85
717.773	7.85
717.8	5.85
717.826	15.85
717.853	-7.15
717.88	-1.15
717.906	2.85
717.933	0.85
717.959	9.85
717.986	3.85
718.012	0.85
718.039	18.85
718.065	11.85
718.092	-1.15
718.118	0.85
718.144	3.85
718.171	22.85
718.197	12.85
718.224	-1.15
718.25	2.85
718.277	15.85
718.303	-6.15
718.33	6.85
718.356	-6.15
718.383	-8.15
718.409	9.85
718.436	-2.15
718.462	-13.15
718.489	-6.15
718.515	6.85
718.541	-2.15
718.568	13.85
718.594	-0.15
718.621	-1.15
718.647	5.85
718.674	3.85
718.7	13.85
718.726	1.85
718.753	12.85
718.779	1.85
718.806	2.85
718.832	14.85
718.858	1.85
718.885	-4.15
718.911	1.85
718.938	18.85
718.964	-17.15
718.99	1.85
719.017	11.85
719.043	14.85
719.07	24.85
719.096	-7.15
719.122	9.85
719.149	2.85
719.175	7.85
719.201	6.85
719.228	20.85
719.254	-4.15
719.281	-11.15
719.307	-10.15
719.333	1.85
719.36	1.85
719.386	-0.15
719.412	1.85
719.439	3.85
719.465	-4.15
719.491	-2.15
719.518	15.85
719.544	0.85
719.57	15.85
719.597	7.85
719.623	-3.15
719.649	24.85
719.675	6.85
719.702	21.85
719.728	16.85
719.754	0.85
719.781	-0.15
719.807	6.85
719.833	-2.15
719.86	2.85
719.886	-2.15
719.912	6.85
719.938	3.85
719.965	4.85
719.991	15.85
720.017	14.85
720.044	-0.15
720.07	12.85
720.096	2.85
720.122	9.85
720.149	15.85
720.175	38.85
720.201	13.85
720.227	-0.15
720.254	-3.15
720.28	7.85
720.306	-3.15
720.332	2.85
720.359	0.85
720.385	13.85
720.411	-4.15
720.437	-7.15
720.463	-14.15
720.49	4.85
720.516	-3.15
720.542	10.85
720.568	-4.15
720.595	6.85
720.621	3.85
720.647	2.85
720.673	0.85
720.699	6.85
720.725	9.85
720.752	11.85
720.778	7.85
720.804	-1.15
720.83	3.85
720.856	-0.15
720.883	4.85
720.909	-3.15
720.935	7.85
720.961	-1.15
720.987	0.85
721.013	6.85
721.04	-1.15
721.066	-8.15
721.092	-10.15
721.118	6.85
721.144	-0.15
721.17	2.85
721.196	7.85
721.223	-4.15
721.249	6.85
721.275	11.85
721.301	-4.15
721.327	1.85
721.353	9.85
721.379	9.85
721.405	16.85
721.432	11.85
721.458	6.85
721.484	3.85
721.51	-12.15
721.536	5.85
721.562	16.85
721.588	0.85
721.614	1.85
721.64	-7.15
721.666	-0.15
721.693	-7.15
721.719	-1.15
721.745	0.85
721.771	7.85
721.797	-1.15
721.823	9.85
721.849	23.85
721.875	16.85
721.901	17.85
721.927	2.85
721.953	3.85
721.979	4.85
722.005	7.85
722.031	-1.15
722.057	7.85
722.083	1.85
722.109	14.85
722.135	15.85
722.161	19.85
722.187	-12.15
722.214	7.85
722.24	2.85
722.266	1.85
722.292	16.85
722.318	3.85
722.344	-3.15
722.37	2.85
722.396	12.85
722.422	3.85
722.448	2.85
722.474	-1.15
722.5	-6.15
722.526	-5.15
722.552	4.85
722.578	-7.15
722.603	8.85
722.629	-2.15
722.655	-3.15
722.681	3.85
722.707	19.85
722.733	16.85
722.759	10.85
722.785	11.85
722.811	-4.15
722.837	4.85
722.863	8.85
722.889	19.85
722.915	12.85
722.941	-9.15
722.967	1.85
722.993	14.85
723.019	16.85
723.045	15.85
723.071	6.85
723.097	-3.15
723.122	7.85
723.148	-3.15
723.174	3.85
723.2	1.85
723.226	-10.15
723.252	-4.15
723.278	1.85
723.304	7.85
723.33	11.85
723.356	-6.15
723.381	5.85
723.407	-17.15
723.433	18.85
723.459	-7.15
723.485	-2.15
723.511	-2.15
723.537	-9.15
723.563	9.85
723.588	0.85
723.614	-1.15
723.64	-4.15
723.666	11.85
723.692	16.85
723.718	13.85
723.744	6.85
723.769	-1.15
723.795	6.85
723.821	-4.15
723.847	0.85
723.873	2.85
723.899	1.85
723.924	-1.15
723.95	1.85
723.976	-11.15
724.002	-12.15
724.028	8.85
724.053	6.85
724.079	-9.15
724.105	4.85
724.131	3.85
724.157	-1.15
724.182	-1.15
724.208	-7.15
724.234	-9.15
724.26	11.85
724.286	7.85
724.311	14.85
724.337	-7.15
724.363	-0.15
724.389	8.85
724.415	-16.15
724.44	10.85
724.466	3.85
724.492	16.85
724.518	-4.15
724.543	-1.15
724.569	15.85
724.595	10.85
724.621	-3.15
724.646	-9.15
724.672	-3.15
724.698	3.85
724.723	-0.15
724.749	8.85
724.775	11.85
724.801	14.85
724.826	-8.15
724.852	-8.15
724.878	-9.15
724.904	-5.15
724.929	0.85
724.955	-5.15
724.981	2.85
725.006	0.85
725.032	2.85
725.058	31.85
725.083	4.85
725.109	2.85
725.135	1.85
725.161	22.85
725.186	-8.15
725.212	-7.15
725.238	13.85
725.263	2.85
725.289	-4.15
725.315	-7.15
725.34	-9.15
725.366	13.85
725.392	0.85
725.417	-4.15
725.443	-6.15
725.468	-0.15
725.494	-2.15
725.52	4.85
725.545	-8.15
725.571	-12.15
725.597	7.85
725.622	4.85
725.648	-6.15
725.674	4.85
725.699	5.85
725.725	2.85
725.75	40.85
725.776	-8.15
725.802	8.85
725.827	18.85
725.853	5.85
725.878	8.85
725.904	-0.15
725.93	10.85
725.955	-5.15
725.981	-11.15
726.006	-4.15
726.032	16.85
726.057	-4.15
726.083	-11.15
726.109	-1.15
726.134	6.85
726.16	-1.15
726.185	3.85
726.211	-12.15
726.236	0.85
726.262	-14.15
726.288	0.85
726.313	18.85
726.339	23.85
726.364	6.85
726.39	13.85
726.415	1.85
726.441	-0.15
726.466	-5.15
726.492	-6.15
726.517	-0.15
726.543	-1.15
726.568	-17.15
726.594	5.85
726.619	6.85
726.645	-0.15
726.67	4.85
726.696	-0.15
726.721	1.85
726.747	-12.15
726.772	8.85
726.798	-1.15
726.823	7.85
726.849	4.85
726.874	-1.15
726.9	20.85
726.925	17.85
726.951	2.85
726.976	6.85
727.002	5.85
727.027	8.85
727.053	23.85
727.078	-7.15
727.104	-5.15
727.129	-16.15
727.155	-4.15
727.18	6.85
727.205	11.85
727.231	-9.15
727.256	-8.15
727.282	5.85
727.307	9.85
727.333	14.85
727.358	-6.15
727.383	-4.15
727.409	5.85
727.434	13.85
727.46	-2.15
727.485	2.85
727.511	24.85
727.536	-3.15
727.561	3.85
727.587	-9.15
727.612	-10.15
727.637	-23.15
727.663	-2.15
727.688	19.85
727.714	-8.15
727.739	-14.15
727.764	-6.15
727.79	20.85
727.815	-6.15
727.841	9.85
727.866	1.85
727.891	3.85
727.917	-9.15
727.942	-8.15
727.967	-6.15
727.993	3.85
728.018	-4.15
728.043	-5.15
728.069	-1.15
728.094	2.85
728.119	6.85
728.145	14.85
728.17	18.85
728.195	14.85
728.221	11.85
728.246	-4.15
728.271	-14.15
728.297	-3.15
728.322	10.85
728.347	20.85
728.373	3.85
728.398	6.85
728.423	-11.15
728.448	9.85
728.474	1.85
728.499	18.85
728.524	-0.15
728.55	-16.15
728.575	-12.15
728.6	-8.15
728.625	3.85
728.651	-0.15
728.676	6.85
728.701	6.85
728.727	-7.15
728.752	-14.15
728.777	1.85
728.802	6.85
728.828	-3.15
728.853	2.85
728.878	1.85
728.903	4.85
728.929	1.85
728.954	-13.15
728.979	14.85
729.004	1.85
729.03	7.85
729.055	11.85
729.08	4.85
729.105	8.85
729.13	17.85
729.156	4.85
729.181	-1.15
729.206	-25.15
729.231	-8.15
729.256	3.85
729.282	12.85
729.307	-20.15
729.332	-9.15
729.357	4.85
729.382	11.85
729.408	5.85
729.433	3.85
729.458	-3.15
729.483	4.85
729.508	6.85
729.533	18.85
729.559	0.85
729.584	-4.15
729.609	2.85
729.634	8.85
729.659	-0.15
729.684	6.85
729.71	9.85
729.735	18.85
729.76	-6.15
729.785	-3.15
729.81	20.85
729.835	4.85
729.86	15.85
729.886	14.85
729.911	18.85
729.936	10.85
729.961	25.85
729.986	24.85
730.011	62.85
730.036	198.85
730.061	1044.85
730.086	2726.85
730.112	3462.85
730.137	2858.85
730.162	2143.85
730.187	1688.85
730.212	1291.85
730.237	811.85
730.262	466.85
730.287	228.85
730.312	143.85
730.337	76.85
730.362	56.85
730.387	23.85
730.413	20.85
730.438	15.85
730.463	27.85
730.488	-0.15
730.513	13.85
730.538	20.85
730.563	24.85
730.588	13.85
730.613	26.85
730.638	3.85
730.663	-11.15
730.688	15.85
730.713	19.85
730.738	9.85
730.763	6.85
730.788	5.85
730.813	16.85
730.838	-4.15
730.863	4.85
730.888	-4.15
730.913	-3.15
730.938	-9.15
730.963	21.85
730.988	103.85
731.013	434.85
731.038	624.85
731.063	630.85
731.088	452.85
731.113	343.85
731.138	284.85
731.163	208.85
731.188	110.85
731.213	80.85
731.238	50.85
731.263	13.85
731.288	0.85
731.313	2.85
731.338	6.85
731.363	2.85
731.388	13.85
731.413	12.85
731.438	11.85
731.463	19.85
731.487	12.85
731.512	0.85
731.537	2.85
731.562	10.85
731.587	-2.15
731.612	-2.15
731.637	8.85
731.662	-10.15
731.687	-6.15
731.712	-17.15
731.737	0.85
731.762	6.85
731.786	6.85
731.811	9.85
731.836	7.85
731.861	5.85
731.886	0.85
731.911	11.85
731.936	6.85
731.961	-2.15
731.986	-5.15
732.01	0.85
732.035	10.85
732.06	21.85
732.085	4.85
732.11	2.85
732.135	-4.15
732.16	5.85
732.184	7.85
732.209	6.85
732.234	0.85
732.259	-1.15
732.284	-8.15
732.309	16.85
732.334	-4.15
732.358	-5.15
732.383	-16.15
732.408	2.85
732.433	3.85
732.458	6.85
732.482	4.85
732.507	-1.15
732.532	2.85
732.557	28.85
732.582	19.85
732.607	18.85
732.631	68.85
732.656	88.85
732.681	162.85
732.706	333.85
732.73	454.85
732.755	382.85
732.78	310.85
732.805	259.85
732.83	176.85
732.854	143.85
732.879	90.85
732.904	45.85
732.929	23.85
732.953	18.85
732.978	3.85
733.003	0.85
733.028	6.85
733.052	10.85
733.077	7.85
733.102	8.85
733.127	3.85
733.151	6.85
733.176	6.85
733.201	-6.15
733.226	-1.15
733.25	-0.15
733.275	3.85
733.3	11.85
733.324	21.85
733.349	11.85
733.374	12.85
733.399	15.85
733.423	3.85
733.448	3.85
733.473	3.85
733.497	3.85
733.522	-13.15
733.547	7.85
733.571	22.85
733.596	13.85
733.621	11.85
733.646	-1.15
733.67	15.85
733.695	-6.15
733.72	1.85
733.744	10.85
733.769	20.85
733.794	10.85
733.818	3.85
733.843	-14.15
733.867	-18.15
733.892	1.85
733.917	-7.15
733.941	-10.15
733.966	3.85
733.991	1.85
734.015	19.85
734.04	8.85
734.065	13.85
734.089	6.85
734.114	10.85
734.138	15.85
734.163	-8.15
734.188	10.85
734.212	3.85
734.237	6.85
734.261	3.85
734.286	1.85
734.311	0.85
734.335	7.85
734.36	-8.15
734.384	5.85
734.409	12.85
734.434	-13.15
734.458	-7.15
734.483	6.85
734.507	7.85
734.532	-0.15
734.556	9.85
734.581	3.85
734.606	-3.15
734.63	1.85
734.655	2.85
734.679	2.85
734.704	-14.15
734.728	-8.15
734.753	0.85
734.777	5.85
734.802	8.85
734.826	7.85
734.851	4.85
734.876	25.85
734.9	4.85
734.925	14.85
734.949	4.85
734.974	-9.15
734.998	1.85
735.023	-0.15
735.047	-4.15
735.072	18.85
735.096	7.85
735.121	11.85
735.145	-4.15
735.17	-4.15
735.194	3.85
735.219	4.85
735.243	3.85
735.268	19.85
735.292	12.85
735.317	15.85
735.341	3.85
735.365	-6.15
735.39	12.85
735.414	13.85
735.439	14.85
735.463	5.85
735.488	13.85
735.512	7.85
735.537	6.85
735.561	7.85
735.586	0.85
735.61	7.85
735.634	3.85
735.659	7.85
735.683	21.85
735.708	4.85
735.732	1.85
735.757	18.85
735.781	-5.15
735.805	-0.15
735.83	-8.15
735.854	-0.15
735.879	-4.15
735.903	17.85
735.927	0.85
735.952	1.85
735.976	-8.15
736.001	2.85
736.025	-8.15
736.049	7.85
736.074	8.85
736.098	0.85
736.123	6.85
736.147	-1.15
736.171	13.85
736.196	-7.15
736.22	-15.15
736.244	-10.15
736.269	-17.15
736.293	-8.15
736.317	1.85
736.342	10.85
736.366	4.85
736.39	3.85
736.415	6.85
736.439	9.85
736.463	9.85
736.488	18.85
736.512	5.85
736.536	12.85
736.561	19.85
736.585	2.85
736.609	-1.15
736.634	-6.15
736.658	-11.15
736.682	-17.15
736.707	-9.15
736.731	-11.15
736.755	-2.15
736.78	6.85
736.804	17.85
736.828	-1.15
736.852	11.85
736.877	13.85
736.901	13.85
736.925	8.85
736.949	9.85
736.974	14.85
736.998	-5.15
737.022	10.85
737.047	3.85
737.071	12.85
737.095	11.85
737.119	10.85
737.144	15.85
737.168	3.85
737.192	-1.15
737.216	2.85
737.241	-4.15
737.265	-15.15
737.289	5.85
737.313	5.85
737.337	9.85
737.362	11.85
737.386	5.85
737.41	2.85
737.434	-4.15
737.459	7.85
737.483	27.85
737.507	5.85
737.531	6.85
737.555	8.85
737.58	11.85
737.604	10.85
737.628	-8.15
737.652	19.85
737.676	-3.15
737.701	2.85
737.725	10.85
737.749	15.85
737.773	-5.15
737.797	-13.15
737.821	15.85
737.846	-7.15
737.87	27.85
737.894	7.85
737.918	2.85
737.942	-1.15
737.966	3.85
737.99	7.85
738.015	2.85
738.039	11.85
738.063	-2.15
738.087	-3.15
738.111	6.85
738.135	15.85
738.159	4.85
738.184	14.85
738.208	7.85
738.232	1.85
738.256	21.85
738.28	20.85
738.304	23.85
738.328	10.85
738.352	16.85
738.376	10.85
738.4	7.85
738.425	11.85
738.449	0.85
738.473	19.85
738.497	10.85
738.521	11.85
738.545	22.85
738.569	14.85
738.593	17.85
738.617	5.85
738.641	-1.15
738.665	2.85
738.689	12.85
738.713	2.85
738.737	6.85
738.762	27.85
738.786	23.85
738.81	4.85
738.834	32.85
738.858	4.85
738.882	6.85
738.906	-7.15
738.93	8.85
738.954	4.85
738.978	20.85
739.002	0.85
739.026	8.85
739.05	4.85
739.074	5.85
739.098	25.85
739.122	21.85
739.146	16.85
739.17	13.85
739.194	8.85
739.218	1.85
739.242	7.85
739.266	4.85
739.29	3.85
739.314	4.85
739.338	-1.15
739.362	2.85
739.386	1.85
739.41	-3.15
739.434	-5.15
739.458	22.85
739.482	13.85
739.506	23.85
739.53	5.85
739.554	15.85
739.577	17.85
739.601	12.85
739.625	-15.15
739.649	2.85
739.673	-5.15
739.697	3.85
739.721	-1.15
739.745	11.85
739.769	3.85
739.793	3.85
739.817	13.85
739.841	-7.15
739.865	-3.15
739.889	-7.15
739.912	2.85
739.936	-8.15
739.96	2.85
739.984	19.85
740.008	3.85
740.032	-5.15
740.056	7.85
740.08	3.85
740.104	6.85
740.127	14.85
740.151	12.85
740.175	5.85
740.199	14.85
740.223	32.85
740.247	12.85
740.271	-8.15
740.295	5.85
740.318	-8.15
740.342	-7.15
740.366	10.85
740.39	11.85
740.414	5.85
740.438	-13.15
740.461	29.85
740.485	14.85
740.509	-6.15
740.533	3.85
740.557	1.85
740.581	8.85
740.604	-12.15
740.628	5.85
740.652	21.85
740.676	8.85
740.7	2.85
740.723	-4.15
740.747	-3.15
740.771	-4.15
740.795	-5.15
740.819	17.85
740.842	10.85
740.866	4.85
740.89	14.85
740.914	1.85
740.938	-12.15
740.961	28.85
740.985	18.85
741.009	-11.15
741.033	-8.15
741.056	9.85
741.08	8.85
741.104	-20.15
741.128	-8.15
741.151	-0.15
741.175	-6.15
741.199	14.85
741.223	11.85
741.246	4.85
741.27	-3.15
741.294	13.85
741.318	9.85
741.341	2.85
741.365	8.85
741.389	14.85
741.413	13.85
741.436	16.85
741.46	10.85
741.484	-0.15
741.507	-3.15
741.531	36.85
741.555	15.85
741.579	17.85
741.602	15.85
741.626	10.85
741.65	-3.15
741.673	-1.15
741.697	8.85
741.721	21.85
741.744	-5.15
741.768	6.85
741.792	-3.15
741.815	10.85
741.839	22.85
741.863	30.85
741.886	5.85
741.91	12.85
741.934	6.85
741.957	2.85
741.981	11.85
742.005	-1.15
742.028	-15.15
742.052	-4.15
742.075	10.85
742.099	12.85
742.123	10.85
742.146	3.85
742.17	-5.15
742.194	-14.15
742.217	2.85
742.241	1.85
742.264	3.85
742.288	15.85
742.312	12.85
742.335	6.85
742.359	15.85
742.382	11.85
742.406	6.85
742.43	4.85
742.453	19.85
742.477	-5.15
742.5	-5.15
742.524	-7.15
742.548	-4.15
742.571	-9.15
742.595	-9.15
742.618	-9.15
742.642	-1.15
742.665	13.85
742.689	7.85
742.712	17.85
742.736	0.85
742.76	3.85
742.783	-9.15
742.807	13.85
742.83	3.85
742.854	-13.15
742.877	-6.15
742.901	12.85
742.924	-5.15
742.948	0.85
742.971	7.85
742.995	20.85
743.018	-1.15
743.042	-12.15
743.065	0.85
743.089	0.85
743.112	-3.15
743.136	6.85
743.159	-5.15
743.183	3.85
743.206	10.85
743.23	-0.15
743.253	-5.15
743.277	-2.15
743.3	-12.15
743.324	15.85
743.347	-1.15
743.371	9.85
743.394	6.85
743.418	15.85
743.441	13.85
743.465	5.85
743.488	7.85
743.512	10.85
743.535	2.85
743.558	17.85
743.582	6.85
743.605	-6.15
743.629	10.85
743.652	10.85
743.676	6.85
743.699	11.85
743.723	26.85
743.746	4.85
743.769	1.85
743.793	4.85
743.816	2.85
743.84	19.85
743.863	7.85
743.886	17.85
743.91	5.85
743.933	-3.15
743.957	0.85
743.98	-9.15
744.003	1.85
744.027	3.85
744.05	7.85
744.074	11.85
744.097	-2.15
744.12	15.85
744.144	10.85
744.167	18.85
744.19	8.85
744.214	10.85
744.237	-11.15
744.26	2.85
744.284	4.85
744.307	7.85
744.331	4.85
744.354	-10.15
744.377	-10.15
744.401	-5.15
744.424	6.85
744.447	-1.15
744.471	-7.15
