Data from HighRes_mercury_15_13_11_07_2024_HR4C61891__23__15-14-25-486.txt Node

Date: Thu Nov 07 15:14:25 EST 2024
User: crc00042
Spectrometer: HR4C6189
Trigger mode: 4
Integration Time (sec): 1.000000E-1
Scans to average: 1
Electric dark correction enabled: true
Nonlinearity correction enabled: false
Boxcar width: 0
XAxis mode: Wavelengths
Number of Pixels in Spectrum: 3648
>>>>>Begin Spectral Data<<<<<
639.567	-48.54
639.602	-48.54
639.636	-48.54
639.67	-39.54
639.704	-19.54
639.738	0.46
639.773	22.46
639.807	-10.54
639.841	-3.54
639.875	16.46
639.909	0.46
639.943	-9.54
639.978	-5.54
640.012	1.46
640.046	1.46
640.08	20.46
640.114	-3.54
640.148	-30.54
640.182	-17.54
640.217	-9.54
640.251	17.46
640.285	-5.54
640.319	-20.54
640.353	14.46
640.387	23.46
640.421	9.46
640.455	-2.54
640.49	-7.54
640.524	-1.54
640.558	1.46
640.592	11.46
640.626	-0.54
640.66	5.46
640.694	-17.54
640.728	0.46
640.762	6.46
640.796	5.46
640.83	18.46
640.865	-19.54
640.899	4.46
640.933	-15.54
640.967	10.46
641.001	19.46
641.035	11.46
641.069	-0.54
641.103	-5.54
641.137	-15.54
641.171	-18.54
641.205	12.46
641.239	7.46
641.273	23.46
641.307	7.46
641.341	-4.54
641.375	-23.54
641.409	-9.54
641.443	-14.54
641.477	15.46
641.511	2.46
641.545	1.46
641.579	-0.54
641.614	0.46
641.648	-5.54
641.682	-24.54
641.716	-6.54
641.75	11.46
641.784	2.46
641.818	-3.54
641.852	5.46
641.886	-7.54
641.919	33.46
641.953	0.46
641.987	-20.54
642.021	-14.54
642.055	-0.54
642.089	-1.54
642.123	-4.54
642.157	-12.54
642.191	-3.54
642.225	7.46
642.259	3.46
642.293	6.46
642.327	15.46
642.361	-0.54
642.395	14.46
642.429	20.46
642.463	21.46
642.497	34.46
642.531	4.46
642.565	-4.54
642.599	21.46
642.633	5.46
642.666	16.46
642.7	0.46
642.734	12.46
642.768	-12.54
642.802	-13.54
642.836	9.46
642.87	-8.54
642.904	4.46
642.938	0.46
642.972	-0.54
643.005	6.46
643.039	20.46
643.073	7.46
643.107	3.46
643.141	-8.54
643.175	3.46
643.209	-9.54
643.243	-15.54
643.276	17.46
643.31	2.46
643.344	14.46
643.378	10.46
643.412	-7.54
643.446	-3.54
643.48	2.46
643.513	12.46
643.547	-3.54
643.581	-13.54
643.615	16.46
643.649	-1.54
643.683	-2.54
643.716	-4.54
643.75	9.46
643.784	-14.54
643.818	15.46
643.852	-2.54
643.886	-26.54
643.919	8.46
643.953	5.46
643.987	0.46
644.021	-0.54
644.055	13.46
644.088	-6.54
644.122	-2.54
644.156	-13.54
644.19	8.46
644.224	-8.54
644.257	-5.54
644.291	29.46
644.325	3.46
644.359	-2.54
644.392	5.46
644.426	15.46
644.46	-7.54
644.494	10.46
644.527	-8.54
644.561	3.46
644.595	5.46
644.629	-6.54
644.662	2.46
644.696	20.46
644.73	6.46
644.764	9.46
644.797	9.46
644.831	-6.54
644.865	7.46
644.899	-0.54
644.932	13.46
644.966	-11.54
645	14.46
645.033	20.46
645.067	-2.54
645.101	-1.54
645.135	7.46
645.168	1.46
645.202	-10.54
645.236	-3.54
645.269	6.46
645.303	-7.54
645.337	-7.54
645.37	-25.54
645.404	-8.54
645.438	4.46
645.471	-0.54
645.505	7.46
645.539	-4.54
645.572	-18.54
645.606	-5.54
645.64	-1.54
645.673	1.46
645.707	8.46
645.741	-10.54
645.774	-7.54
645.808	-12.54
645.842	-18.54
645.875	-10.54
645.909	-13.54
645.943	-3.54
645.976	7.46
646.01	5.46
646.043	9.46
646.077	6.46
646.111	4.46
646.144	8.46
646.178	5.46
646.212	0.46
646.245	-2.54
646.279	6.46
646.312	1.46
646.346	4.46
646.38	-15.54
646.413	-11.54
646.447	-11.54
646.48	10.46
646.514	24.46
646.547	-10.54
646.581	-6.54
646.615	-9.54
646.648	-9.54
646.682	3.46
646.715	0.46
646.749	4.46
646.782	4.46
646.816	5.46
646.85	14.46
646.883	-3.54
646.917	16.46
646.95	-4.54
646.984	-3.54
647.017	1.46
647.051	0.46
647.084	5.46
647.118	-4.54
647.151	-7.54
647.185	-1.54
647.218	-19.54
647.252	7.46
647.285	1.46
647.319	-7.54
647.353	1.46
647.386	21.46
647.42	-2.54
647.453	5.46
647.487	1.46
647.52	-0.54
647.553	2.46
647.587	8.46
647.62	-7.54
647.654	-6.54
647.687	-9.54
647.721	-1.54
647.754	-1.54
647.788	7.46
647.821	-15.54
647.855	7.46
647.888	0.46
647.922	8.46
647.955	1.46
647.989	6.46
648.022	7.46
648.055	9.46
648.089	-1.54
648.122	29.46
648.156	6.46
648.189	8.46
648.223	-3.54
648.256	11.46
648.29	1.46
648.323	-7.54
648.356	13.46
648.39	13.46
648.423	12.46
648.457	0.46
648.49	25.46
648.523	23.46
648.557	19.46
648.59	3.46
648.624	-8.54
648.657	2.46
648.69	24.46
648.724	6.46
648.757	17.46
648.791	5.46
648.824	2.46
648.857	16.46
648.891	-4.54
648.924	-1.54
648.957	18.46
648.991	-13.54
649.024	9.46
649.057	2.46
649.091	0.46
649.124	12.46
649.158	25.46
649.191	36.46
649.224	6.46
649.258	13.46
649.291	-9.54
649.324	3.46
649.358	10.46
649.391	19.46
649.424	-10.54
649.458	-1.54
649.491	-8.54
649.524	-2.54
649.557	-8.54
649.591	-22.54
649.624	8.46
649.657	-7.54
649.691	-10.54
649.724	-7.54
649.757	0.46
649.791	-18.54
649.824	19.46
649.857	5.46
649.89	6.46
649.924	-7.54
649.957	-5.54
649.99	-20.54
650.023	-7.54
650.057	-0.54
650.09	22.46
650.123	-0.54
650.157	13.46
650.19	11.46
650.223	-23.54
650.256	-12.54
650.29	4.46
650.323	7.46
650.356	1.46
650.389	-8.54
650.423	-27.54
650.456	0.46
650.489	4.46
650.522	1.46
650.555	6.46
650.589	15.46
650.622	-2.54
650.655	16.46
650.688	-8.54
650.721	-10.54
650.755	5.46
650.788	9.46
650.821	-4.54
650.854	12.46
650.887	8.46
650.921	-7.54
650.954	-0.54
650.987	-4.54
651.02	-9.54
651.053	-1.54
651.087	-23.54
651.12	24.46
651.153	11.46
651.186	-4.54
651.219	-23.54
651.252	-5.54
651.286	6.46
651.319	-6.54
651.352	4.46
651.385	16.46
651.418	-9.54
651.451	10.46
651.484	7.46
651.518	5.46
651.551	15.46
651.584	1.46
651.617	7.46
651.65	11.46
651.683	22.46
651.716	-5.54
651.749	-16.54
651.783	-11.54
651.816	8.46
651.849	16.46
651.882	1.46
651.915	6.46
651.948	14.46
651.981	4.46
652.014	-17.54
652.047	-11.54
652.08	-19.54
652.114	3.46
652.147	-5.54
652.18	-6.54
652.213	23.46
652.246	1.46
652.279	-9.54
652.312	14.46
652.345	4.46
652.378	6.46
652.411	25.46
652.444	14.46
652.477	6.46
652.51	1.46
652.543	-19.54
652.576	-9.54
652.609	-10.54
652.642	7.46
652.675	12.46
652.709	12.46
652.742	10.46
652.775	-15.54
652.808	6.46
652.841	-2.54
652.874	4.46
652.907	0.46
652.94	0.46
652.973	-17.54
653.006	1.46
653.039	-0.54
653.072	-6.54
653.105	2.46
653.138	5.46
653.171	2.46
653.204	7.46
653.237	4.46
653.27	6.46
653.303	5.46
653.336	9.46
653.368	-12.54
653.401	10.46
653.434	5.46
653.467	14.46
653.5	0.46
653.533	-14.54
653.566	-0.54
653.599	3.46
653.632	8.46
653.665	7.46
653.698	-17.54
653.731	-7.54
653.764	-6.54
653.797	-12.54
653.83	-2.54
653.863	8.46
653.896	7.46
653.929	-5.54
653.961	-0.54
653.994	-6.54
654.027	-9.54
654.06	-7.54
654.093	6.46
654.126	4.46
654.159	-11.54
654.192	-8.54
654.225	0.46
654.258	8.46
654.29	-5.54
654.323	-0.54
654.356	-14.54
654.389	0.46
654.422	-0.54
654.455	0.46
654.488	10.46
654.521	-15.54
654.553	-5.54
654.586	-2.54
654.619	3.46
654.652	7.46
654.685	35.46
654.718	4.46
654.751	14.46
654.783	6.46
654.816	17.46
654.849	6.46
654.882	-1.54
654.915	-10.54
654.948	9.46
654.98	-22.54
655.013	-21.54
655.046	-6.54
655.079	-9.54
655.112	6.46
655.144	1.46
655.177	-1.54
655.21	10.46
655.243	6.46
655.276	-1.54
655.308	-0.54
655.341	-13.54
655.374	9.46
655.407	1.46
655.44	2.46
655.472	1.46
655.505	-14.54
655.538	14.46
655.571	13.46
655.603	0.46
655.636	9.46
655.669	-6.54
655.702	3.46
655.734	-24.54
655.767	1.46
655.8	0.46
655.833	8.46
655.865	-3.54
655.898	-6.54
655.931	-5.54
655.964	-5.54
655.996	-10.54
656.029	15.46
656.062	1.46
656.095	-0.54
656.127	-15.54
656.16	4.46
656.193	-2.54
656.225	17.46
656.258	18.46
656.291	-8.54
656.324	-13.54
656.356	0.46
656.389	10.46
656.422	4.46
656.454	-2.54
656.487	-3.54
656.52	7.46
656.552	7.46
656.585	-8.54
656.618	4.46
656.65	14.46
656.683	8.46
656.716	-1.54
656.748	0.46
656.781	-13.54
656.814	-22.54
656.846	6.46
656.879	3.46
656.912	16.46
656.944	-22.54
656.977	-7.54
657.01	-3.54
657.042	12.46
657.075	1.46
657.108	-5.54
657.14	-1.54
657.173	2.46
657.205	31.46
657.238	-4.54
657.271	5.46
657.303	-8.54
657.336	-5.54
657.369	5.46
657.401	2.46
657.434	-3.54
657.466	3.46
657.499	-4.54
657.532	-13.54
657.564	21.46
657.597	13.46
657.629	15.46
657.662	-2.54
657.694	0.46
657.727	-10.54
657.76	7.46
657.792	-2.54
657.825	-7.54
657.857	-0.54
657.89	-3.54
657.922	20.46
657.955	-10.54
657.987	-1.54
658.02	-5.54
658.053	4.46
658.085	1.46
658.118	-11.54
658.15	4.46
658.183	20.46
658.215	-1.54
658.248	0.46
658.28	4.46
658.313	11.46
658.345	4.46
658.378	-4.54
658.41	-3.54
658.443	5.46
658.475	15.46
658.508	-5.54
658.54	0.46
658.573	2.46
658.605	0.46
658.638	-1.54
658.67	-6.54
658.703	-6.54
658.735	-6.54
658.768	0.46
658.8	-13.54
658.833	14.46
658.865	-2.54
658.898	-0.54
658.93	-6.54
658.963	15.46
658.995	-16.54
659.028	9.46
659.06	-11.54
659.092	10.46
659.125	2.46
659.157	16.46
659.19	-18.54
659.222	-2.54
659.255	-2.54
659.287	7.46
659.32	8.46
659.352	0.46
659.384	5.46
659.417	-3.54
659.449	5.46
659.482	19.46
659.514	-17.54
659.546	9.46
659.579	-25.54
659.611	0.46
659.644	-22.54
659.676	-13.54
659.708	-11.54
659.741	-19.54
659.773	2.46
659.806	-3.54
659.838	-3.54
659.87	-6.54
659.903	-14.54
659.935	14.46
659.967	7.46
660	-7.54
660.032	-24.54
660.065	-11.54
660.097	12.46
660.129	7.46
660.162	-5.54
660.194	11.46
660.226	9.46
660.259	3.46
660.291	-17.54
660.323	-2.54
660.356	-5.54
660.388	-11.54
660.42	-5.54
660.453	2.46
660.485	6.46
660.517	18.46
660.55	8.46
660.582	2.46
660.614	-6.54
660.647	1.46
660.679	-15.54
660.711	-0.54
660.743	-11.54
660.776	-9.54
660.808	3.46
660.84	7.46
660.873	-13.54
660.905	-0.54
660.937	-9.54
660.969	19.46
661.002	10.46
661.034	15.46
661.066	0.46
661.099	14.46
661.131	19.46
661.163	-6.54
661.195	7.46
661.228	6.46
661.26	-9.54
661.292	-6.54
661.324	9.46
661.357	7.46
661.389	0.46
661.421	-10.54
661.453	-18.54
661.485	7.46
661.518	-4.54
661.55	-10.54
661.582	-22.54
661.614	4.46
661.647	21.46
661.679	-3.54
661.711	-10.54
661.743	-13.54
661.775	1.46
661.808	16.46
661.84	-14.54
661.872	1.46
661.904	2.46
661.936	-6.54
661.969	-9.54
662.001	-10.54
662.033	-3.54
662.065	-12.54
662.097	17.46
662.129	12.46
662.162	-3.54
662.194	-3.54
662.226	-2.54
662.258	10.46
662.29	0.46
662.322	-11.54
662.355	-9.54
662.387	4.46
662.419	11.46
662.451	9.46
662.483	8.46
662.515	-0.54
662.547	-1.54
662.58	4.46
662.612	-22.54
662.644	-20.54
662.676	-2.54
662.708	23.46
662.74	-13.54
662.772	-2.54
662.804	6.46
662.836	-2.54
662.869	-15.54
662.901	5.46
662.933	0.46
662.965	21.46
662.997	13.46
663.029	4.46
663.061	-9.54
663.093	-14.54
663.125	1.46
663.157	11.46
663.189	5.46
663.221	16.46
663.254	-5.54
663.286	6.46
663.318	7.46
663.35	-2.54
663.382	-5.54
663.414	-0.54
663.446	20.46
663.478	-10.54
663.51	9.46
663.542	-20.54
663.574	-6.54
663.606	7.46
663.638	-9.54
663.67	4.46
663.702	-29.54
663.734	2.46
663.766	0.46
663.798	-24.54
663.83	-8.54
663.862	17.46
663.894	14.46
663.926	10.46
663.958	19.46
663.99	-15.54
664.022	-16.54
664.054	7.46
664.086	-3.54
664.118	-5.54
664.15	10.46
664.182	13.46
664.214	3.46
664.246	1.46
664.278	0.46
664.31	5.46
664.342	7.46
664.374	-7.54
664.406	6.46
664.438	-7.54
664.47	7.46
664.502	5.46
664.534	3.46
664.566	-2.54
664.598	13.46
664.63	-9.54
664.662	9.46
664.693	-0.54
664.725	-21.54
664.757	-8.54
664.789	-10.54
664.821	1.46
664.853	7.46
664.885	8.46
664.917	-6.54
664.949	8.46
664.981	20.46
665.013	-6.54
665.045	-14.54
665.076	-11.54
665.108	12.46
665.14	-17.54
665.172	5.46
665.204	-1.54
665.236	2.46
665.268	3.46
665.3	-6.54
665.331	-10.54
665.363	5.46
665.395	-2.54
665.427	-1.54
665.459	8.46
665.491	-7.54
665.523	-10.54
665.555	-3.54
665.586	0.46
665.618	-8.54
665.65	-14.54
665.682	16.46
665.714	4.46
665.746	2.46
665.777	2.46
665.809	-7.54
665.841	19.46
665.873	-19.54
665.905	6.46
665.937	30.46
665.968	9.46
666	-4.54
666.032	-5.54
666.064	-19.54
666.096	5.46
666.127	8.46
666.159	22.46
666.191	9.46
666.223	1.46
666.255	-2.54
666.286	8.46
666.318	-5.54
666.35	15.46
666.382	1.46
666.413	-12.54
666.445	-9.54
666.477	-1.54
666.509	-3.54
666.54	-2.54
666.572	9.46
666.604	-1.54
666.636	4.46
666.667	24.46
666.699	7.46
666.731	3.46
666.763	4.46
666.794	6.46
666.826	13.46
666.858	-15.54
666.89	0.46
666.921	-24.54
666.953	1.46
666.985	6.46
667.017	9.46
667.048	4.46
667.08	15.46
667.112	0.46
667.143	-4.54
667.175	0.46
667.207	-11.54
667.238	-11.54
667.27	2.46
667.302	2.46
667.334	5.46
667.365	18.46
667.397	-1.54
667.429	-9.54
667.46	6.46
667.492	1.46
667.524	-9.54
667.555	-6.54
667.587	2.46
667.619	-8.54
667.65	-7.54
667.682	0.46
667.714	10.46
667.745	12.46
667.777	3.46
667.808	10.46
667.84	5.46
667.872	0.46
667.903	15.46
667.935	-3.54
667.967	-9.54
667.998	10.46
668.03	-3.54
668.061	-10.54
668.093	2.46
668.125	6.46
668.156	-5.54
668.188	-7.54
668.22	7.46
668.251	-0.54
668.283	9.46
668.314	9.46
668.346	4.46
668.377	25.46
668.409	10.46
668.441	27.46
668.472	11.46
668.504	13.46
668.535	3.46
668.567	3.46
668.599	6.46
668.63	0.46
668.662	-4.54
668.693	20.46
668.725	-7.54
668.756	-1.54
668.788	0.46
668.819	18.46
668.851	7.46
668.882	3.46
668.914	2.46
668.946	-7.54
668.977	-6.54
669.009	2.46
669.04	-8.54
669.072	-5.54
669.103	1.46
669.135	1.46
669.166	-12.54
669.198	-13.54
669.229	14.46
669.261	-7.54
669.292	2.46
669.324	7.46
669.355	1.46
669.387	-11.54
669.418	10.46
669.45	6.46
669.481	-3.54
669.513	-7.54
669.544	7.46
669.576	0.46
669.607	6.46
669.639	21.46
669.67	-3.54
669.701	7.46
669.733	-17.54
669.764	6.46
669.796	16.46
669.827	-22.54
669.859	1.46
669.89	10.46
669.922	-3.54
669.953	-17.54
669.985	-3.54
670.016	19.46
670.047	4.46
670.079	-1.54
670.11	14.46
670.142	10.46
670.173	3.46
670.204	-5.54
670.236	9.46
670.267	-2.54
670.299	11.46
670.33	-0.54
670.362	5.46
670.393	-11.54
670.424	1.46
670.456	-6.54
670.487	-4.54
670.518	-3.54
670.55	12.46
670.581	5.46
670.613	0.46
670.644	-24.54
670.675	-15.54
670.707	-22.54
670.738	3.46
670.769	-0.54
670.801	-13.54
670.832	2.46
670.864	-0.54
670.895	-1.54
670.926	2.46
670.958	11.46
670.989	-1.54
671.02	-13.54
671.052	-8.54
671.083	21.46
671.114	2.46
671.146	-0.54
671.177	17.46
671.208	7.46
671.24	4.46
671.271	8.46
671.302	10.46
671.333	-5.54
671.365	-7.54
671.396	-2.54
671.427	-0.54
671.459	4.46
671.49	-9.54
671.521	-4.54
671.553	2.46
671.584	19.46
671.615	-3.54
671.646	11.46
671.678	2.46
671.709	-8.54
671.74	-24.54
671.771	-6.54
671.803	-9.54
671.834	5.46
671.865	-8.54
671.896	4.46
671.928	-6.54
671.959	-13.54
671.99	-2.54
672.021	7.46
672.053	-2.54
672.084	15.46
672.115	16.46
672.146	1.46
672.178	-14.54
672.209	-0.54
672.24	7.46
672.271	32.46
672.303	-1.54
672.334	-12.54
672.365	-12.54
672.396	4.46
672.427	-2.54
672.459	13.46
672.49	20.46
672.521	-0.54
672.552	17.46
672.583	16.46
672.615	3.46
672.646	5.46
672.677	-9.54
672.708	-6.54
672.739	0.46
672.77	-1.54
672.802	6.46
672.833	8.46
672.864	-0.54
672.895	-16.54
672.926	2.46
672.957	-9.54
672.989	2.46
673.02	-11.54
673.051	-2.54
673.082	11.46
673.113	9.46
673.144	-0.54
673.175	-14.54
673.206	-15.54
673.238	-5.54
673.269	-8.54
673.3	-10.54
673.331	5.46
673.362	-5.54
673.393	6.46
673.424	6.46
673.455	13.46
673.487	1.46
673.518	11.46
673.549	-9.54
673.58	10.46
673.611	19.46
673.642	-7.54
673.673	-19.54
673.704	-0.54
673.735	-7.54
673.766	-3.54
673.797	2.46
673.828	4.46
673.86	5.46
673.891	-10.54
673.922	-2.54
673.953	-6.54
673.984	3.46
674.015	15.46
674.046	-4.54
674.077	-3.54
674.108	3.46
674.139	-0.54
674.17	-0.54
674.201	-0.54
674.232	1.46
674.263	-3.54
674.294	-19.54
674.325	-1.54
674.356	20.46
674.387	16.46
674.418	-3.54
674.449	-10.54
674.48	-7.54
674.511	13.46
674.542	2.46
674.573	-4.54
674.604	23.46
674.635	-14.54
674.666	9.46
674.697	1.46
674.728	2.46
674.759	-11.54
674.79	-13.54
674.821	-6.54
674.852	-0.54
674.883	-3.54
674.914	0.46
674.945	-23.54
674.976	-15.54
675.007	1.46
675.038	-22.54
675.069	-23.54
675.1	5.46
675.131	12.46
675.162	-4.54
675.193	-12.54
675.224	0.46
675.254	12.46
675.285	14.46
675.316	16.46
675.347	-6.54
675.378	-3.54
675.409	-0.54
675.44	16.46
675.471	2.46
675.502	-14.54
675.533	-2.54
675.564	-7.54
675.595	-10.54
675.625	7.46
675.656	10.46
675.687	-0.54
675.718	-2.54
675.749	1.46
675.78	7.46
675.811	7.46
675.842	13.46
675.873	3.46
675.903	-11.54
675.934	0.46
675.965	2.46
675.996	4.46
676.027	14.46
676.058	6.46
676.089	-6.54
676.119	-0.54
676.15	-10.54
676.181	1.46
676.212	4.46
676.243	18.46
676.274	-3.54
676.304	12.46
676.335	3.46
676.366	-13.54
676.397	13.46
676.428	0.46
676.459	4.46
676.489	20.46
676.52	10.46
676.551	-17.54
676.582	-11.54
676.613	1.46
676.643	-31.54
676.674	0.46
676.705	-3.54
676.736	-2.54
676.767	11.46
676.797	8.46
676.828	-0.54
676.859	2.46
676.89	12.46
676.92	-7.54
676.951	7.46
676.982	2.46
677.013	-9.54
677.044	27.46
677.074	24.46
677.105	-8.54
677.136	0.46
677.167	7.46
677.197	0.46
677.228	-2.54
677.259	-1.54
677.289	8.46
677.32	-9.54
677.351	-3.54
677.382	-8.54
677.412	-3.54
677.443	6.46
677.474	-5.54
677.505	-12.54
677.535	-2.54
677.566	-2.54
677.597	-12.54
677.627	-13.54
677.658	-10.54
677.689	-8.54
677.72	0.46
677.75	2.46
677.781	11.46
677.812	5.46
677.842	14.46
677.873	2.46
677.904	10.46
677.934	3.46
677.965	3.46
677.996	-17.54
678.026	-14.54
678.057	23.46
678.088	-2.54
678.118	5.46
678.149	1.46
678.18	-14.54
678.21	-7.54
678.241	1.46
678.272	-3.54
678.302	1.46
678.333	15.46
678.363	12.46
678.394	-8.54
678.425	-10.54
678.455	-2.54
678.486	18.46
678.517	-12.54
678.547	-1.54
678.578	-0.54
678.608	-14.54
678.639	11.46
678.67	4.46
678.7	-3.54
678.731	-19.54
678.761	0.46
678.792	1.46
678.823	6.46
678.853	-7.54
678.884	-16.54
678.914	15.46
678.945	-3.54
678.975	-16.54
679.006	2.46
679.037	-1.54
679.067	32.46
679.098	14.46
679.128	-1.54
679.159	-14.54
679.189	8.46
679.22	-3.54
679.25	0.46
679.281	-2.54
679.312	-10.54
679.342	-2.54
679.373	18.46
679.403	8.46
679.434	-0.54
679.464	-10.54
679.495	7.46
679.525	1.46
679.556	-14.54
679.586	9.46
679.617	1.46
679.647	-7.54
679.678	0.46
679.708	9.46
679.739	4.46
679.769	-8.54
679.8	-14.54
679.83	-3.54
679.861	-1.54
679.891	-0.54
679.922	-1.54
679.952	-5.54
679.983	-3.54
680.013	0.46
680.044	1.46
680.074	-4.54
680.105	-1.54
680.135	-9.54
680.165	4.46
680.196	8.46
680.226	-11.54
680.257	7.46
680.287	-10.54
680.318	-10.54
680.348	-11.54
680.379	2.46
680.409	7.46
680.439	-0.54
680.47	-4.54
680.5	-4.54
680.531	9.46
680.561	1.46
680.592	12.46
680.622	8.46
680.652	0.46
680.683	7.46
680.713	-5.54
680.744	-8.54
680.774	-7.54
680.804	18.46
680.835	-3.54
680.865	1.46
680.896	16.46
680.926	9.46
680.956	0.46
680.987	8.46
681.017	0.46
681.047	2.46
681.078	-14.54
681.108	-6.54
681.139	6.46
681.169	-0.54
681.199	-7.54
681.23	3.46
681.26	14.46
681.29	14.46
681.321	-1.54
681.351	-2.54
681.381	-11.54
681.412	-6.54
681.442	2.46
681.472	16.46
681.503	14.46
681.533	-0.54
681.563	2.46
681.594	4.46
681.624	-3.54
681.654	-11.54
681.685	-10.54
681.715	3.46
681.745	-8.54
681.775	-14.54
681.806	-7.54
681.836	-6.54
681.866	-7.54
681.897	10.46
681.927	10.46
681.957	-11.54
681.987	9.46
682.018	1.46
682.048	5.46
682.078	-7.54
682.109	17.46
682.139	16.46
682.169	-8.54
682.199	-0.54
682.23	0.46
682.26	8.46
682.29	-15.54
682.32	-8.54
682.351	5.46
682.381	6.46
682.411	-22.54
682.441	0.46
682.472	-6.54
682.502	-1.54
682.532	-6.54
682.562	4.46
682.592	12.46
682.623	11.46
682.653	11.46
682.683	-15.54
682.713	5.46
682.743	-8.54
682.774	-4.54
682.804	-10.54
682.834	14.46
682.864	8.46
682.894	8.46
682.925	-2.54
682.955	-0.54
682.985	-12.54
683.015	3.46
683.045	7.46
683.076	2.46
683.106	-15.54
683.136	-0.54
683.166	-3.54
683.196	1.46
683.226	-3.54
683.257	-0.54
683.287	-10.54
683.317	-8.54
683.347	-3.54
683.377	7.46
683.407	15.46
683.437	-2.54
683.468	6.46
683.498	-15.54
683.528	-8.54
683.558	2.46
683.588	0.46
683.618	1.46
683.648	-9.54
683.678	11.46
683.708	25.46
683.739	-10.54
683.769	-0.54
683.799	-0.54
683.829	6.46
683.859	-5.54
683.889	12.46
683.919	-4.54
683.949	3.46
683.979	-6.54
684.009	8.46
684.039	10.46
684.07	-7.54
684.1	15.46
684.13	1.46
684.16	-13.54
684.19	-5.54
684.22	7.46
684.25	-6.54
684.28	-9.54
684.31	20.46
684.34	15.46
684.37	18.46
684.4	5.46
684.43	6.46
684.46	6.46
684.49	2.46
684.52	6.46
684.55	16.46
684.58	1.46
684.61	-7.54
684.64	-6.54
684.67	5.46
684.7	-7.54
684.73	4.46
684.76	9.46
684.79	17.46
684.82	1.46
684.85	-17.54
684.88	-0.54
684.91	0.46
684.94	-5.54
684.97	-4.54
685	-7.54
685.03	-10.54
685.06	-22.54
685.09	-13.54
685.12	13.46
685.15	-11.54
685.18	14.46
685.21	4.46
685.24	8.46
685.27	12.46
685.3	-6.54
685.33	0.46
685.36	-15.54
685.39	-11.54
685.42	-19.54
685.45	0.46
685.48	4.46
685.51	-14.54
685.54	4.46
685.569	10.46
685.599	-1.54
685.629	7.46
685.659	2.46
685.689	-4.54
685.719	-3.54
685.749	-12.54
685.779	7.46
685.809	8.46
685.839	6.46
685.869	3.46
685.898	-1.54
685.928	3.46
685.958	-9.54
685.988	9.46
686.018	-11.54
686.048	1.46
686.078	-2.54
686.108	10.46
686.137	5.46
686.167	0.46
686.197	-1.54
686.227	10.46
686.257	18.46
686.287	19.46
686.317	-5.54
686.346	4.46
686.376	-8.54
686.406	-12.54
686.436	2.46
686.466	-0.54
686.496	0.46
686.525	2.46
686.555	-10.54
686.585	-1.54
686.615	31.46
686.645	4.46
686.675	-6.54
686.704	-2.54
686.734	1.46
686.764	-3.54
686.794	6.46
686.824	-1.54
686.853	8.46
686.883	12.46
686.913	11.46
686.943	3.46
686.973	-0.54
687.002	-3.54
687.032	6.46
687.062	1.46
687.092	14.46
687.121	-1.54
687.151	-3.54
687.181	-0.54
687.211	26.46
687.24	-1.54
687.27	1.46
687.3	-14.54
687.33	-10.54
687.359	-7.54
687.389	8.46
687.419	11.46
687.449	3.46
687.478	12.46
687.508	3.46
687.538	6.46
687.568	3.46
687.597	-1.54
687.627	7.46
687.657	-28.54
687.686	-1.54
687.716	20.46
687.746	-3.54
687.776	-13.54
687.805	6.46
687.835	4.46
687.865	19.46
687.894	6.46
687.924	-4.54
687.954	-4.54
687.983	-6.54
688.013	7.46
688.043	5.46
688.072	-11.54
688.102	8.46
688.132	1.46
688.161	-3.54
688.191	3.46
688.221	21.46
688.25	-8.54
688.28	4.46
688.31	-8.54
688.339	-9.54
688.369	-21.54
688.399	0.46
688.428	-8.54
688.458	-10.54
688.488	-28.54
688.517	4.46
688.547	-2.54
688.576	36.46
688.606	6.46
688.636	-2.54
688.665	-3.54
688.695	5.46
688.725	11.46
688.754	4.46
688.784	-6.54
688.813	0.46
688.843	-1.54
688.873	3.46
688.902	-7.54
688.932	-13.54
688.961	0.46
688.991	15.46
689.02	8.46
689.05	-1.54
689.08	11.46
689.109	19.46
689.139	-8.54
689.168	-3.54
689.198	2.46
689.227	0.46
689.257	-2.54
689.287	-4.54
689.316	-2.54
689.346	-0.54
689.375	-18.54
689.405	4.46
689.434	0.46
689.464	15.46
689.493	-3.54
689.523	2.46
689.552	1.46
689.582	2.46
689.611	3.46
689.641	9.46
689.67	8.46
689.7	-0.54
689.73	24.46
689.759	5.46
689.789	9.46
689.818	-6.54
689.848	1.46
689.877	24.46
689.906	-3.54
689.936	-27.54
689.965	-0.54
689.995	12.46
690.024	-0.54
690.054	4.46
690.083	11.46
690.113	14.46
690.142	5.46
690.172	-8.54
690.201	5.46
690.231	-5.54
690.26	-9.54
690.29	-2.54
690.319	16.46
690.348	2.46
690.378	-2.54
690.407	4.46
690.437	-1.54
690.466	0.46
690.496	-3.54
690.525	12.46
690.555	1.46
690.584	-10.54
690.613	-6.54
690.643	-4.54
690.672	3.46
690.702	13.46
690.731	-0.54
690.76	19.46
690.79	44.46
690.819	41.46
690.849	44.46
690.878	20.46
690.907	27.46
690.937	24.46
690.966	15.46
690.996	7.46
691.025	1.46
691.054	1.46
691.084	9.46
691.113	5.46
691.142	5.46
691.172	-0.54
691.201	4.46
691.23	-7.54
691.26	17.46
691.289	-3.54
691.319	-4.54
691.348	-5.54
691.377	9.46
691.407	-0.54
691.436	2.46
691.465	-0.54
691.495	-19.54
691.524	0.46
691.553	1.46
691.583	-2.54
691.612	0.46
691.641	-0.54
691.67	0.46
691.7	-5.54
691.729	-17.54
691.758	-7.54
691.788	0.46
691.817	3.46
691.846	-7.54
691.876	2.46
691.905	8.46
691.934	0.46
691.963	10.46
691.993	11.46
692.022	-7.54
692.051	-4.54
692.081	7.46
692.11	16.46
692.139	-0.54
692.168	3.46
692.198	0.46
692.227	8.46
692.256	9.46
692.285	2.46
692.315	3.46
692.344	-10.54
692.373	-3.54
692.402	-8.54
692.432	-10.54
692.461	-8.54
692.49	-7.54
692.519	0.46
692.548	14.46
692.578	15.46
692.607	-19.54
692.636	-19.54
692.665	4.46
692.694	-3.54
692.724	-2.54
692.753	2.46
692.782	8.46
692.811	-4.54
692.84	0.46
692.87	9.46
692.899	13.46
692.928	-7.54
692.957	2.46
692.986	-6.54
693.016	11.46
693.045	13.46
693.074	1.46
693.103	-4.54
693.132	2.46
693.161	-11.54
693.191	-0.54
693.22	-13.54
693.249	-0.54
693.278	-3.54
693.307	18.46
693.336	-16.54
693.365	-11.54
693.395	5.46
693.424	2.46
693.453	-1.54
693.482	0.46
693.511	23.46
693.54	15.46
693.569	5.46
693.598	-18.54
693.628	-3.54
693.657	-1.54
693.686	12.46
693.715	24.46
693.744	27.46
693.773	24.46
693.802	3.46
693.831	-7.54
693.86	20.46
693.889	7.46
693.919	4.46
693.948	-4.54
693.977	-3.54
694.006	6.46
694.035	3.46
694.064	5.46
694.093	7.46
694.122	18.46
694.151	-0.54
694.18	10.46
694.209	13.46
694.238	-6.54
694.267	25.46
694.296	21.46
694.325	-1.54
694.354	11.46
694.383	0.46
694.412	8.46
694.441	18.46
694.471	6.46
694.5	-18.54
694.529	6.46
694.558	22.46
694.587	13.46
694.616	-3.54
694.645	-3.54
694.674	-3.54
694.703	8.46
694.732	-6.54
694.761	9.46
694.79	-6.54
694.819	-8.54
694.848	-2.54
694.877	14.46
694.906	17.46
694.935	3.46
694.963	12.46
694.992	5.46
695.021	-0.54
695.05	19.46
695.079	9.46
695.108	-15.54
695.137	20.46
695.166	23.46
695.195	-0.54
695.224	11.46
695.253	4.46
695.282	-7.54
695.311	12.46
695.34	7.46
695.369	4.46
695.398	-2.54
695.427	15.46
695.456	10.46
695.485	7.46
695.513	0.46
695.542	7.46
695.571	-8.54
695.6	19.46
695.629	-2.54
695.658	12.46
695.687	-21.54
695.716	-17.54
695.745	28.46
695.774	3.46
695.802	-6.54
695.831	7.46
695.86	5.46
695.889	13.46
695.918	8.46
695.947	5.46
695.976	-3.54
696.005	14.46
696.033	0.46
696.062	14.46
696.091	-3.54
696.12	0.46
696.149	8.46
696.178	2.46
696.207	-5.54
696.235	-6.54
696.264	4.46
696.293	-0.54
696.322	0.46
696.351	15.46
696.38	10.46
696.408	7.46
696.437	4.46
696.466	15.46
696.495	6.46
696.524	1.46
696.553	9.46
696.581	22.46
696.61	1.46
696.639	-9.54
696.668	19.46
696.697	3.46
696.725	3.46
696.754	5.46
696.783	0.46
696.812	-3.54
696.84	6.46
696.869	-1.54
696.898	5.46
696.927	12.46
696.956	22.46
696.984	1.46
697.013	4.46
697.042	2.46
697.071	11.46
697.099	10.46
697.128	0.46
697.157	0.46
697.186	-11.54
697.214	-3.54
697.243	6.46
697.272	-2.54
697.301	1.46
697.329	7.46
697.358	10.46
697.387	20.46
697.415	13.46
697.444	9.46
697.473	-3.54
697.502	-7.54
697.53	-1.54
697.559	-3.54
697.588	-6.54
697.616	-11.54
697.645	-22.54
697.674	7.46
697.703	8.46
697.731	6.46
697.76	18.46
697.789	12.46
697.817	14.46
697.846	13.46
697.875	-3.54
697.903	8.46
697.932	-9.54
697.961	13.46
697.989	13.46
698.018	3.46
698.047	4.46
698.075	20.46
698.104	0.46
698.133	6.46
698.161	-5.54
698.19	0.46
698.218	-2.54
698.247	1.46
698.276	-8.54
698.304	10.46
698.333	14.46
698.362	11.46
698.39	1.46
698.419	7.46
698.447	-6.54
698.476	-7.54
698.505	18.46
698.533	9.46
698.562	16.46
698.591	-5.54
698.619	-6.54
698.648	6.46
698.676	10.46
698.705	6.46
698.733	-5.54
698.762	-19.54
698.791	-4.54
698.819	-3.54
698.848	0.46
698.876	-6.54
698.905	7.46
698.933	7.46
698.962	3.46
698.991	0.46
699.019	10.46
699.048	6.46
699.076	24.46
699.105	-12.54
699.133	-3.54
699.162	13.46
699.19	12.46
699.219	8.46
699.248	-4.54
699.276	7.46
699.305	6.46
699.333	11.46
699.362	-9.54
699.39	0.46
699.419	5.46
699.447	18.46
699.476	7.46
699.504	-9.54
699.533	-7.54
699.561	-3.54
699.59	3.46
699.618	-7.54
699.647	1.46
699.675	6.46
699.704	7.46
699.732	0.46
699.761	3.46
699.789	-2.54
699.818	7.46
699.846	1.46
699.874	-5.54
699.903	3.46
699.931	3.46
699.96	8.46
699.988	-6.54
700.017	-4.54
700.045	3.46
700.074	-4.54
700.102	-4.54
700.13	-8.54
700.159	-4.54
700.187	3.46
700.216	-10.54
700.244	-4.54
700.273	-2.54
700.301	-0.54
700.329	17.46
700.358	7.46
700.386	-10.54
700.415	-8.54
700.443	10.46
700.472	1.46
700.5	2.46
700.528	7.46
700.557	4.46
700.585	1.46
700.614	2.46
700.642	29.46
700.67	35.46
700.699	19.46
700.727	-0.54
700.755	6.46
700.784	11.46
700.812	5.46
700.841	6.46
700.869	-3.54
700.897	-12.54
700.926	1.46
700.954	22.46
700.982	3.46
701.011	9.46
701.039	5.46
701.067	2.46
701.096	14.46
701.124	4.46
701.152	3.46
701.181	3.46
701.209	-6.54
701.237	7.46
701.266	-2.54
701.294	-2.54
701.322	-7.54
701.351	18.46
701.379	21.46
701.407	2.46
701.435	3.46
701.464	11.46
701.492	36.46
701.52	2.46
701.549	19.46
701.577	-9.54
701.605	4.46
701.634	-0.54
701.662	7.46
701.69	-4.54
701.718	-9.54
701.747	18.46
701.775	2.46
701.803	13.46
701.831	9.46
701.86	-10.54
701.888	-5.54
701.916	-8.54
701.944	-1.54
701.973	4.46
702.001	8.46
702.029	-2.54
702.057	-7.54
702.086	-3.54
702.114	-7.54
702.142	-6.54
702.17	-10.54
702.199	2.46
702.227	-3.54
702.255	-1.54
702.283	-5.54
702.311	0.46
702.34	-8.54
702.368	0.46
702.396	-1.54
702.424	-9.54
702.452	-17.54
702.481	-0.54
702.509	3.46
702.537	-0.54
702.565	2.46
702.593	-10.54
702.621	-6.54
702.65	14.46
702.678	3.46
702.706	22.46
702.734	9.46
702.762	19.46
702.79	-1.54
702.819	7.46
702.847	15.46
702.875	23.46
702.903	2.46
702.931	-5.54
702.959	0.46
702.988	3.46
703.016	-6.54
703.044	-4.54
703.072	8.46
703.1	-18.54
703.128	-12.54
703.156	-3.54
703.184	-1.54
703.212	12.46
703.241	11.46
703.269	-4.54
703.297	-2.54
703.325	3.46
703.353	-5.54
703.381	3.46
703.409	22.46
703.437	-4.54
703.465	-0.54
703.493	-0.54
703.522	5.46
703.55	-0.54
703.578	7.46
703.606	-15.54
703.634	-0.54
703.662	8.46
703.69	-3.54
703.718	15.46
703.746	26.46
703.774	10.46
703.802	6.46
703.83	-11.54
703.858	0.46
703.886	-11.54
703.914	-20.54
703.942	4.46
703.97	4.46
703.998	4.46
704.027	20.46
704.055	7.46
704.083	2.46
704.111	-2.54
704.139	-4.54
704.167	-14.54
704.195	-6.54
704.223	-12.54
704.251	0.46
704.279	0.46
704.307	-3.54
704.335	-0.54
704.363	-7.54
704.391	2.46
704.419	-7.54
704.447	-11.54
704.475	-3.54
704.503	-10.54
704.531	1.46
704.558	4.46
704.586	1.46
704.614	-3.54
704.642	-3.54
704.67	-2.54
704.698	-5.54
704.726	5.46
704.754	-11.54
704.782	-7.54
704.81	-2.54
704.838	22.46
704.866	-3.54
704.894	-12.54
704.922	8.46
704.95	12.46
704.978	15.46
705.006	-12.54
705.034	2.46
705.061	-4.54
705.089	-13.54
705.117	-19.54
705.145	-8.54
705.173	3.46
705.201	7.46
705.229	9.46
705.257	12.46
705.285	2.46
705.313	-0.54
705.34	-2.54
705.368	-13.54
705.396	-3.54
705.424	0.46
705.452	-0.54
705.48	-0.54
705.508	4.46
705.536	-2.54
705.563	-15.54
705.591	0.46
705.619	3.46
705.647	4.46
705.675	7.46
705.703	5.46
705.731	2.46
705.758	21.46
705.786	3.46
705.814	17.46
705.842	1.46
705.87	10.46
705.898	5.46
705.925	-1.54
705.953	2.46
705.981	-14.54
706.009	-6.54
706.037	18.46
706.065	7.46
706.092	-17.54
706.12	-13.54
706.148	1.46
706.176	5.46
706.204	11.46
706.231	11.46
706.259	-3.54
706.287	-8.54
706.315	0.46
706.342	-10.54
706.37	15.46
706.398	-0.54
706.426	3.46
706.454	-7.54
706.481	10.46
706.509	8.46
706.537	10.46
706.565	-0.54
706.592	4.46
706.62	1.46
706.648	-0.54
706.676	4.46
706.703	-1.54
706.731	-0.54
706.759	-9.54
706.787	1.46
706.814	4.46
706.842	3.46
706.87	-2.54
706.897	6.46
706.925	8.46
706.953	18.46
706.981	21.46
707.008	13.46
707.036	18.46
707.064	-11.54
707.091	-15.54
707.119	12.46
707.147	-1.54
707.174	-8.54
707.202	12.46
707.23	-6.54
707.258	6.46
707.285	-10.54
707.313	-7.54
707.341	-5.54
707.368	-11.54
707.396	-0.54
707.424	-3.54
707.451	-0.54
707.479	-0.54
707.507	-4.54
707.534	-12.54
707.562	-6.54
707.59	-8.54
707.617	-1.54
707.645	9.46
707.672	1.46
707.7	-6.54
707.728	0.46
707.755	6.46
707.783	-11.54
707.811	1.46
707.838	3.46
707.866	-6.54
707.893	-3.54
707.921	-8.54
707.949	1.46
707.976	-7.54
708.004	-1.54
708.031	-7.54
708.059	4.46
708.087	7.46
708.114	-7.54
708.142	-11.54
708.169	-2.54
708.197	3.46
708.225	2.46
708.252	3.46
708.28	23.46
708.307	7.46
708.335	6.46
708.362	-4.54
708.39	-15.54
708.418	4.46
708.445	9.46
708.473	-0.54
708.5	-3.54
708.528	6.46
708.555	2.46
708.583	-3.54
708.61	11.46
708.638	10.46
708.665	-12.54
708.693	1.46
708.72	4.46
708.748	-6.54
708.776	6.46
708.803	26.46
708.831	20.46
708.858	6.46
708.886	-2.54
708.913	-1.54
708.941	4.46
708.968	7.46
708.996	9.46
709.023	34.46
709.051	-9.54
709.078	2.46
709.105	11.46
709.133	-3.54
709.16	-4.54
709.188	4.46
709.215	-3.54
709.243	-9.54
709.27	-4.54
709.298	5.46
709.325	-9.54
709.353	-7.54
709.38	8.46
709.408	2.46
709.435	0.46
709.462	5.46
709.49	2.46
709.517	-4.54
709.545	-6.54
709.572	-1.54
709.6	-3.54
709.627	-5.54
709.655	-4.54
709.682	-1.54
709.709	17.46
709.737	1.46
709.764	-2.54
709.792	15.46
709.819	8.46
709.846	0.46
709.874	2.46
709.901	0.46
709.929	6.46
709.956	9.46
709.983	-8.54
710.011	5.46
710.038	-7.54
710.066	3.46
710.093	7.46
710.12	8.46
710.148	1.46
710.175	-8.54
710.202	-6.54
710.23	0.46
710.257	-1.54
710.284	0.46
710.312	4.46
710.339	-7.54
710.366	0.46
710.394	7.46
710.421	6.46
710.448	1.46
710.476	-11.54
710.503	0.46
710.53	0.46
710.558	18.46
710.585	22.46
710.612	-10.54
710.64	-14.54
710.667	0.46
710.694	-2.54
710.722	-1.54
710.749	-1.54
710.776	-6.54
710.804	23.46
710.831	14.46
710.858	-7.54
710.885	2.46
710.913	-14.54
710.94	-1.54
710.967	-6.54
710.995	-10.54
711.022	-4.54
711.049	1.46
711.076	-20.54
711.104	-6.54
711.131	0.46
711.158	2.46
711.185	0.46
711.213	-3.54
711.24	-1.54
711.267	-10.54
711.294	-7.54
711.322	6.46
711.349	-3.54
711.376	-0.54
711.403	3.46
711.431	-0.54
711.458	3.46
711.485	-1.54
711.512	1.46
711.54	2.46
711.567	-4.54
711.594	-8.54
711.621	-7.54
711.648	-3.54
711.676	7.46
711.703	2.46
711.73	-12.54
711.757	-3.54
711.784	0.46
711.812	-0.54
711.839	-2.54
711.866	-16.54
711.893	-11.54
711.92	5.46
711.947	-0.54
711.975	12.46
712.002	-7.54
712.029	11.46
712.056	-2.54
712.083	20.46
712.11	-28.54
712.138	6.46
712.165	-0.54
712.192	-1.54
712.219	1.46
712.246	4.46
712.273	-4.54
712.3	-9.54
712.328	6.46
712.355	-5.54
712.382	-13.54
712.409	9.46
712.436	-3.54
712.463	13.46
712.49	0.46
712.517	0.46
712.544	-10.54
712.572	0.46
712.599	-4.54
712.626	-2.54
712.653	-6.54
712.68	-8.54
712.707	5.46
712.734	11.46
712.761	0.46
712.788	1.46
712.815	15.46
712.842	18.46
712.87	0.46
712.897	-3.54
712.924	-10.54
712.951	-4.54
712.978	18.46
713.005	14.46
713.032	16.46
713.059	-2.54
713.086	-1.54
713.113	-12.54
713.14	-4.54
713.167	3.46
713.194	6.46
713.221	-5.54
713.248	11.46
713.275	7.46
713.302	-20.54
713.329	14.46
713.356	14.46
713.383	1.46
713.41	-5.54
713.437	-16.54
713.464	-13.54
713.491	4.46
713.518	4.46
713.545	-1.54
713.572	-4.54
713.599	24.46
713.626	6.46
713.653	-2.54
713.68	-7.54
713.707	9.46
713.734	0.46
713.761	-18.54
713.788	4.46
713.815	1.46
713.842	-0.54
713.869	7.46
713.896	-7.54
713.923	-6.54
713.95	0.46
713.977	-1.54
714.004	-9.54
714.031	-6.54
714.058	-8.54
714.085	-4.54
714.112	9.46
714.139	9.46
714.165	-2.54
714.192	-10.54
714.219	-2.54
714.246	-1.54
714.273	-7.54
714.3	1.46
714.327	2.46
714.354	11.46
714.381	4.46
714.408	0.46
714.435	-3.54
714.461	1.46
714.488	9.46
714.515	-4.54
714.542	-4.54
714.569	-0.54
714.596	-4.54
714.623	-14.54
714.65	-7.54
714.677	-1.54
714.703	-1.54
714.73	7.46
714.757	15.46
714.784	13.46
714.811	-15.54
714.838	-0.54
714.865	5.46
714.891	7.46
714.918	-16.54
714.945	-9.54
714.972	2.46
714.999	0.46
715.026	-4.54
715.052	16.46
715.079	0.46
715.106	6.46
715.133	3.46
715.16	-4.54
715.187	2.46
715.213	22.46
715.24	-10.54
715.267	-10.54
715.294	-10.54
715.321	-16.54
715.347	4.46
715.374	-7.54
715.401	-2.54
715.428	-6.54
715.455	-7.54
715.481	-2.54
715.508	13.46
715.535	-6.54
715.562	13.46
715.588	-8.54
715.615	-0.54
715.642	2.46
715.669	7.46
715.695	-12.54
715.722	-5.54
715.749	-6.54
715.776	15.46
715.802	2.46
715.829	4.46
715.856	-21.54
715.883	3.46
715.909	-15.54
715.936	-19.54
715.963	7.46
715.99	-1.54
716.016	-4.54
716.043	-1.54
716.07	0.46
716.096	-13.54
716.123	-5.54
716.15	5.46
716.177	18.46
716.203	0.46
716.23	-2.54
716.257	13.46
716.283	-0.54
716.31	-0.54
716.337	1.46
716.363	1.46
716.39	5.46
716.417	1.46
716.443	0.46
716.47	5.46
716.497	10.46
716.523	10.46
716.55	11.46
716.577	7.46
716.603	10.46
716.63	9.46
716.657	21.46
716.683	-4.54
716.71	-3.54
716.737	-6.54
716.763	0.46
716.79	14.46
716.817	8.46
716.843	16.46
716.87	-7.54
716.897	-5.54
716.923	18.46
716.95	-11.54
716.976	-0.54
717.003	-6.54
717.03	11.46
717.056	6.46
717.083	-3.54
717.109	19.46
717.136	21.46
717.163	3.46
717.189	-8.54
717.216	2.46
717.242	1.46
717.269	6.46
717.296	5.46
717.322	14.46
717.349	12.46
717.375	-2.54
717.402	-6.54
717.428	-3.54
717.455	-3.54
717.481	3.46
717.508	11.46
717.535	0.46
717.561	7.46
717.588	3.46
717.614	0.46
717.641	5.46
717.667	-1.54
717.694	8.46
717.72	-13.54
717.747	4.46
717.773	-4.54
717.8	-1.54
717.826	-0.54
717.853	0.46
717.88	-0.54
717.906	9.46
717.933	-9.54
717.959	7.46
717.986	1.46
718.012	0.46
718.039	4.46
718.065	9.46
718.092	1.46
718.118	-6.54
718.144	-5.54
718.171	18.46
718.197	28.46
718.224	7.46
718.25	7.46
718.277	-1.54
718.303	-7.54
718.33	4.46
718.356	-8.54
718.383	6.46
718.409	6.46
718.436	-4.54
718.462	3.46
718.489	-3.54
718.515	12.46
718.541	9.46
718.568	6.46
718.594	2.46
718.621	-7.54
718.647	2.46
718.674	19.46
718.7	8.46
718.726	-4.54
718.753	-12.54
718.779	0.46
718.806	-12.54
718.832	-4.54
718.858	-10.54
718.885	-2.54
718.911	3.46
718.938	6.46
718.964	-11.54
718.99	21.46
719.017	3.46
719.043	-1.54
719.07	10.46
719.096	-1.54
719.122	8.46
719.149	8.46
719.175	-6.54
719.201	3.46
719.228	25.46
719.254	9.46
719.281	-17.54
719.307	-0.54
719.333	-4.54
719.36	13.46
719.386	2.46
719.412	0.46
719.439	-11.54
719.465	1.46
719.491	-16.54
719.518	10.46
719.544	2.46
719.57	15.46
719.597	10.46
719.623	-11.54
719.649	0.46
719.675	-7.54
719.702	19.46
719.728	3.46
719.754	-9.54
719.781	-10.54
719.807	-9.54
719.833	7.46
719.86	6.46
719.886	-6.54
719.912	4.46
719.938	-23.54
719.965	-4.54
719.991	6.46
720.017	9.46
720.044	-17.54
720.07	-8.54
720.096	8.46
720.122	11.46
720.149	15.46
720.175	11.46
720.201	-9.54
720.227	7.46
720.254	11.46
720.28	-1.54
720.306	-4.54
720.332	-17.54
720.359	1.46
720.385	12.46
720.411	18.46
720.437	20.46
720.463	-1.54
720.49	-7.54
720.516	0.46
720.542	-12.54
720.568	5.46
720.595	-1.54
720.621	-5.54
720.647	6.46
720.673	0.46
720.699	-10.54
720.725	-9.54
720.752	17.46
720.778	-4.54
720.804	3.46
720.83	22.46
720.856	-6.54
720.883	-12.54
720.909	-5.54
720.935	-3.54
720.961	11.46
720.987	16.46
721.013	5.46
721.04	-9.54
721.066	-11.54
721.092	-3.54
721.118	6.46
721.144	-1.54
721.17	-9.54
721.196	-8.54
721.223	1.46
721.249	2.46
721.275	25.46
721.301	-9.54
721.327	23.46
721.353	1.46
721.379	5.46
721.405	16.46
721.432	12.46
721.458	4.46
721.484	8.46
721.51	-7.54
721.536	-0.54
721.562	5.46
721.588	-11.54
721.614	-9.54
721.64	2.46
721.666	-12.54
721.693	-4.54
721.719	-6.54
721.745	-1.54
721.771	3.46
721.797	0.46
721.823	10.46
721.849	20.46
721.875	5.46
721.901	2.46
721.927	-13.54
721.953	6.46
721.979	14.46
722.005	1.46
722.031	-10.54
722.057	-3.54
722.083	2.46
722.109	12.46
722.135	-8.54
722.161	5.46
722.187	-4.54
722.214	-3.54
722.24	2.46
722.266	-3.54
722.292	-1.54
722.318	19.46
722.344	-8.54
722.37	5.46
722.396	1.46
722.422	5.46
722.448	-14.54
722.474	-23.54
722.5	15.46
722.526	-2.54
722.552	-4.54
722.578	0.46
722.603	5.46
722.629	-0.54
722.655	-3.54
722.681	-8.54
722.707	-6.54
722.733	-8.54
722.759	-3.54
722.785	-7.54
722.811	0.46
722.837	4.46
722.863	5.46
722.889	-8.54
722.915	-11.54
722.941	9.46
722.967	-12.54
722.993	-3.54
723.019	-0.54
723.045	1.46
723.071	1.46
723.097	2.46
723.122	-0.54
723.148	-10.54
723.174	-10.54
723.2	-4.54
723.226	7.46
723.252	-0.54
723.278	-9.54
723.304	-19.54
723.33	0.46
723.356	-5.54
723.381	-6.54
723.407	-22.54
723.433	4.46
723.459	-11.54
723.485	-5.54
723.511	20.46
723.537	-5.54
723.563	-15.54
723.588	-7.54
723.614	19.46
723.64	0.46
723.666	3.46
723.692	1.46
723.718	-4.54
723.744	-3.54
723.769	8.46
723.795	15.46
723.821	14.46
723.847	-2.54
723.873	10.46
723.899	5.46
723.924	-6.54
723.95	4.46
723.976	-11.54
724.002	-7.54
724.028	-3.54
724.053	-6.54
724.079	-9.54
724.105	-0.54
724.131	0.46
724.157	14.46
724.182	15.46
724.208	-4.54
724.234	-9.54
724.26	-4.54
724.286	6.46
724.311	-9.54
724.337	0.46
724.363	-4.54
724.389	6.46
724.415	-19.54
724.44	30.46
724.466	7.46
724.492	12.46
724.518	-4.54
724.543	-4.54
724.569	-7.54
724.595	-4.54
724.621	-3.54
724.646	-6.54
724.672	-9.54
724.698	-4.54
724.723	-2.54
724.749	-0.54
724.775	9.46
724.801	11.46
724.826	-0.54
724.852	2.46
724.878	3.46
724.904	-18.54
724.929	9.46
724.955	3.46
724.981	1.46
725.006	19.46
725.032	0.46
725.058	8.46
725.083	-14.54
725.109	4.46
725.135	1.46
725.161	7.46
725.186	0.46
725.212	15.46
725.238	17.46
725.263	7.46
725.289	-12.54
725.315	-12.54
725.34	-11.54
725.366	6.46
725.392	1.46
725.417	-16.54
725.443	-7.54
725.468	-3.54
725.494	5.46
725.52	-0.54
725.545	-3.54
725.571	-2.54
725.597	-1.54
725.622	17.46
725.648	0.46
725.674	11.46
725.699	4.46
725.725	-3.54
725.75	19.46
725.776	-0.54
725.802	-1.54
725.827	8.46
725.853	-8.54
725.878	-0.54
725.904	-6.54
725.93	6.46
725.955	-4.54
725.981	-7.54
726.006	-6.54
726.032	2.46
726.057	-4.54
726.083	-8.54
726.109	0.46
726.134	-1.54
726.16	-4.54
726.185	5.46
726.211	-2.54
726.236	4.46
726.262	7.46
726.288	11.46
726.313	6.46
726.339	3.46
726.364	-0.54
726.39	21.46
726.415	-0.54
726.441	-10.54
726.466	-20.54
726.492	-8.54
726.517	-11.54
726.543	5.46
726.568	-14.54
726.594	-0.54
726.619	18.46
726.645	-6.54
726.67	-9.54
726.696	12.46
726.721	7.46
726.747	-17.54
726.772	-12.54
726.798	-8.54
726.823	7.46
726.849	-4.54
726.874	10.46
726.9	24.46
726.925	8.46
726.951	1.46
726.976	17.46
727.002	-6.54
727.027	-6.54
727.053	-6.54
727.078	-10.54
727.104	4.46
727.129	-13.54
727.155	-2.54
727.18	2.46
727.205	-6.54
727.231	-14.54
727.256	-2.54
727.282	-6.54
727.307	5.46
727.333	8.46
727.358	-3.54
727.383	-1.54
727.409	-4.54
727.434	4.46
727.46	-3.54
727.485	11.46
727.511	11.46
727.536	-11.54
727.561	-14.54
727.587	-12.54
727.612	-20.54
727.637	2.46
727.663	-2.54
727.688	13.46
727.714	-6.54
727.739	-18.54
727.764	-0.54
727.79	7.46
727.815	-3.54
727.841	-1.54
727.866	-1.54
727.891	6.46
727.917	-26.54
727.942	-0.54
727.967	-3.54
727.993	-12.54
728.018	-10.54
728.043	12.46
728.069	14.46
728.094	9.46
728.119	-1.54
728.145	13.46
728.17	4.46
728.195	-8.54
728.221	14.46
728.246	0.46
728.271	-15.54
728.297	-0.54
728.322	8.46
728.347	-2.54
728.373	-5.54
728.398	20.46
728.423	8.46
728.448	4.46
728.474	6.46
728.499	-0.54
728.524	0.46
728.55	-8.54
728.575	-0.54
728.6	5.46
728.625	-1.54
728.651	3.46
728.676	4.46
728.701	1.46
728.727	-0.54
728.752	-11.54
728.777	8.46
728.802	-0.54
728.828	7.46
728.853	5.46
728.878	-0.54
728.903	-3.54
728.929	-13.54
728.954	-2.54
728.979	6.46
729.004	-13.54
729.03	4.46
729.055	19.46
729.08	-11.54
729.105	2.46
729.13	9.46
729.156	3.46
729.181	-8.54
729.206	-27.54
729.231	-8.54
729.256	6.46
729.282	-4.54
729.307	-3.54
729.332	-6.54
729.357	-12.54
729.382	4.46
729.408	6.46
729.433	15.46
729.458	2.46
729.483	10.46
729.508	10.46
729.533	7.46
729.559	-2.54
729.584	-7.54
729.609	3.46
729.634	9.46
729.659	-4.54
729.684	-23.54
729.71	19.46
729.735	16.46
729.76	2.46
729.785	15.46
729.81	18.46
729.835	-5.54
729.86	-0.54
729.886	8.46
729.911	13.46
729.936	8.46
729.961	21.46
729.986	8.46
730.011	67.46
730.036	213.46
730.061	1008.46
730.086	2758.46
730.112	3448.46
730.137	2846.46
730.162	2145.46
730.187	1687.46
730.212	1267.46
730.237	774.46
730.262	451.46
730.287	243.46
730.312	123.46
730.337	71.46
730.362	54.46
730.387	36.46
730.413	0.46
730.438	13.46
730.463	22.46
730.488	10.46
730.513	16.46
730.538	-3.54
730.563	22.46
730.588	18.46
730.613	32.46
730.638	13.46
730.663	5.46
730.688	25.46
730.713	7.46
730.738	17.46
730.763	2.46
730.788	-20.54
730.813	10.46
730.838	-4.54
730.863	11.46
730.888	3.46
730.913	-11.54
730.938	-10.54
730.963	31.46
730.988	125.46
731.013	443.46
731.038	659.46
731.063	625.46
731.088	475.46
731.113	352.46
731.138	263.46
731.163	191.46
731.188	114.46
731.213	56.46
731.238	45.46
731.263	22.46
731.288	0.46
731.313	-3.54
731.338	7.46
731.363	2.46
731.388	-8.54
731.413	12.46
731.438	15.46
731.463	7.46
731.487	5.46
731.512	-5.54
731.537	-10.54
731.562	-1.54
731.587	7.46
731.612	4.46
731.637	-3.54
731.662	-12.54
731.687	-1.54
731.712	-2.54
731.737	-3.54
731.762	0.46
731.786	5.46
731.811	4.46
731.836	-5.54
731.861	4.46
731.886	5.46
731.911	20.46
731.936	11.46
731.961	3.46
731.986	-9.54
732.01	-3.54
732.035	8.46
732.06	16.46
732.085	16.46
732.11	7.46
732.135	-8.54
732.16	-6.54
732.184	2.46
732.209	-6.54
732.234	-0.54
732.259	0.46
732.284	8.46
732.309	1.46
732.334	10.46
732.358	-0.54
732.383	-7.54
732.408	6.46
732.433	-7.54
732.458	4.46
732.482	3.46
732.507	-4.54
732.532	-8.54
732.557	14.46
732.582	19.46
732.607	38.46
732.631	51.46
732.656	87.46
732.681	149.46
732.706	331.46
732.73	474.46
732.755	405.46
732.78	310.46
732.805	246.46
732.83	164.46
732.854	121.46
732.879	86.46
732.904	43.46
732.929	8.46
732.953	11.46
732.978	-2.54
733.003	7.46
733.028	0.46
733.052	9.46
733.077	-0.54
733.102	-2.54
733.127	-10.54
733.151	-8.54
733.176	0.46
733.201	-1.54
733.226	-13.54
733.25	-2.54
733.275	-1.54
733.3	7.46
733.324	5.46
733.349	-3.54
733.374	1.46
733.399	-7.54
733.423	0.46
733.448	-3.54
733.473	-14.54
733.497	-15.54
733.522	-2.54
733.547	-7.54
733.571	11.46
733.596	17.46
733.621	1.46
733.646	-10.54
733.67	3.46
733.695	-6.54
733.72	-1.54
733.744	-12.54
733.769	8.46
733.794	19.46
733.818	3.46
733.843	-4.54
733.867	-15.54
733.892	-4.54
733.917	0.46
733.941	2.46
733.966	-10.54
733.991	6.46
734.015	9.46
734.04	0.46
734.065	13.46
734.089	20.46
734.114	-1.54
734.138	1.46
734.163	-7.54
734.188	7.46
734.212	7.46
734.237	17.46
734.261	-11.54
734.286	-7.54
734.311	-5.54
734.335	6.46
734.36	14.46
734.384	5.46
734.409	15.46
734.434	-4.54
734.458	11.46
734.483	-10.54
734.507	-4.54
734.532	-1.54
734.556	-3.54
734.581	-1.54
734.606	6.46
734.63	-12.54
734.655	-0.54
734.679	2.46
734.704	-5.54
734.728	1.46
734.753	-13.54
734.777	-0.54
734.802	-6.54
734.826	4.46
734.851	9.46
734.876	19.46
734.9	1.46
734.925	6.46
734.949	-11.54
734.974	-6.54
734.998	16.46
735.023	-3.54
735.047	-7.54
735.072	16.46
735.096	0.46
735.121	-10.54
735.145	-0.54
735.17	4.46
735.194	4.46
735.219	3.46
735.243	8.46
735.268	-0.54
735.292	3.46
735.317	1.46
735.341	-2.54
735.365	-16.54
735.39	22.46
735.414	-3.54
735.439	2.46
735.463	4.46
735.488	11.46
735.512	-3.54
735.537	-4.54
735.561	-1.54
735.586	-23.54
735.61	-12.54
735.634	1.46
735.659	-2.54
735.683	12.46
735.708	-8.54
735.732	-10.54
735.757	7.46
735.781	-3.54
735.805	16.46
735.83	-10.54
735.854	-14.54
735.879	-3.54
735.903	10.46
735.927	2.46
735.952	3.46
735.976	-10.54
736.001	3.46
736.025	3.46
736.049	-10.54
736.074	-8.54
736.098	-9.54
736.123	-2.54
736.147	7.46
736.171	4.46
736.196	17.46
736.22	-5.54
736.244	-10.54
736.269	-10.54
736.293	-4.54
736.317	-5.54
736.342	3.46
736.366	7.46
736.39	16.46
736.415	23.46
736.439	-1.54
736.463	17.46
736.488	6.46
736.512	10.46
736.536	-2.54
736.561	8.46
736.585	-12.54
736.609	6.46
736.634	-8.54
736.658	-0.54
736.682	-7.54
736.707	-9.54
736.731	-4.54
736.755	-0.54
736.78	8.46
736.804	-3.54
736.828	-7.54
736.852	6.46
736.877	2.46
736.901	6.46
736.925	10.46
736.949	15.46
736.974	-1.54
736.998	0.46
737.022	-7.54
737.047	-1.54
737.071	-3.54
737.095	-4.54
737.119	20.46
737.144	-2.54
737.168	-8.54
737.192	-16.54
737.216	3.46
737.241	1.46
737.265	4.46
737.289	6.46
737.313	-3.54
737.337	14.46
737.362	16.46
737.386	0.46
737.41	-4.54
737.434	1.46
737.459	0.46
737.483	14.46
737.507	17.46
737.531	0.46
737.555	-7.54
737.58	-0.54
737.604	1.46
737.628	-2.54
737.652	-24.54
737.676	0.46
737.701	1.46
737.725	-6.54
737.749	19.46
737.773	-0.54
737.797	10.46
737.821	-10.54
737.846	-4.54
737.87	21.46
737.894	-6.54
737.918	-6.54
737.942	-12.54
737.966	17.46
737.99	24.46
738.015	9.46
738.039	0.46
738.063	-3.54
738.087	8.46
738.111	-6.54
738.135	3.46
738.159	8.46
738.184	-3.54
738.208	-4.54
738.232	1.46
738.256	21.46
738.28	-1.54
738.304	17.46
738.328	-5.54
738.352	16.46
738.376	-6.54
738.4	12.46
738.425	7.46
738.449	-12.54
738.473	24.46
738.497	-6.54
738.521	1.46
738.545	12.46
738.569	1.46
738.593	11.46
738.617	-2.54
738.641	9.46
738.665	-0.54
738.689	4.46
738.713	-10.54
738.737	-0.54
738.762	12.46
738.786	7.46
738.81	-15.54
738.834	24.46
738.858	-4.54
738.882	8.46
738.906	0.46
738.93	-1.54
738.954	13.46
738.978	16.46
739.002	0.46
739.026	11.46
739.05	10.46
739.074	0.46
739.098	20.46
739.122	8.46
739.146	-5.54
739.17	10.46
739.194	2.46
739.218	-5.54
739.242	0.46
739.266	-8.54
739.29	6.46
739.314	5.46
739.338	4.46
739.362	0.46
739.386	-9.54
739.41	-11.54
739.434	-4.54
739.458	8.46
739.482	-1.54
739.506	6.46
739.53	3.46
739.554	16.46
739.577	-2.54
739.601	0.46
739.625	-11.54
739.649	1.46
739.673	3.46
739.697	17.46
739.721	1.46
739.745	0.46
739.769	-0.54
739.793	4.46
739.817	23.46
739.841	5.46
739.865	6.46
739.889	-4.54
739.912	2.46
739.936	-12.54
739.96	5.46
739.984	17.46
740.008	-3.54
740.032	2.46
740.056	-0.54
740.08	16.46
740.104	-7.54
740.127	1.46
740.151	7.46
740.175	5.46
740.199	-0.54
740.223	48.46
740.247	4.46
740.271	-3.54
740.295	4.46
740.318	-9.54
740.342	-4.54
740.366	12.46
740.39	6.46
740.414	8.46
740.438	-10.54
740.461	17.46
740.485	-11.54
740.509	-2.54
740.533	7.46
740.557	-7.54
740.581	-3.54
740.604	-13.54
740.628	7.46
740.652	13.46
740.676	12.46
740.7	12.46
740.723	-5.54
740.747	9.46
740.771	13.46
740.795	-12.54
740.819	8.46
740.842	8.46
740.866	5.46
740.89	-8.54
740.914	11.46
740.938	-9.54
740.961	12.46
740.985	-0.54
741.009	-1.54
741.033	7.46
741.056	-4.54
741.08	-8.54
741.104	-13.54
741.128	-5.54
741.151	12.46
741.175	13.46
741.199	16.46
741.223	-2.54
741.246	-5.54
741.27	2.46
741.294	-1.54
741.318	-15.54
741.341	-0.54
741.365	0.46
741.389	9.46
741.413	12.46
741.436	10.46
741.46	7.46
741.484	8.46
741.507	2.46
741.531	43.46
741.555	23.46
741.579	4.46
741.602	16.46
741.626	20.46
741.65	5.46
741.673	19.46
741.697	5.46
741.721	1.46
741.744	-15.54
741.768	-6.54
741.792	-2.54
741.815	-8.54
741.839	17.46
741.863	17.46
741.886	17.46
741.91	12.46
741.934	7.46
741.957	-9.54
741.981	11.46
742.005	13.46
742.028	-9.54
742.052	-10.54
742.075	-3.54
742.099	14.46
742.123	12.46
742.146	17.46
742.17	0.46
742.194	-1.54
742.217	-0.54
742.241	-3.54
742.264	-0.54
742.288	4.46
742.312	18.46
742.335	5.46
742.359	1.46
742.382	7.46
742.406	16.46
742.43	7.46
742.453	-1.54
742.477	-17.54
742.5	-3.54
742.524	-3.54
742.548	-7.54
742.571	7.46
742.595	1.46
742.618	9.46
742.642	1.46
742.665	13.46
742.689	-1.54
742.712	1.46
742.736	-14.54
742.76	5.46
742.783	-8.54
742.807	-4.54
742.83	15.46
742.854	-18.54
742.877	-7.54
742.901	11.46
742.924	0.46
742.948	7.46
742.971	8.46
742.995	13.46
743.018	-10.54
743.042	-1.54
743.065	1.46
743.089	-7.54
743.112	-0.54
743.136	-7.54
743.159	-7.54
743.183	-6.54
743.206	15.46
743.23	-2.54
743.253	12.46
743.277	-1.54
743.3	-4.54
743.324	-6.54
743.347	-14.54
743.371	6.46
743.394	-2.54
743.418	11.46
743.441	6.46
743.465	-1.54
743.488	5.46
743.512	-17.54
743.535	9.46
743.558	-0.54
743.582	-6.54
743.605	-4.54
743.629	-3.54
743.652	4.46
743.676	-4.54
743.699	4.46
743.723	3.46
743.746	10.46
743.769	-9.54
743.793	-8.54
743.816	-2.54
743.84	11.46
743.863	-2.54
743.886	11.46
743.91	15.46
743.933	13.46
743.957	7.46
743.98	6.46
744.003	-1.54
744.027	-0.54
744.05	2.46
744.074	-12.54
744.097	-15.54
744.12	9.46
744.144	-8.54
744.167	19.46
744.19	-0.54
744.214	3.46
744.237	1.46
744.26	-3.54
744.284	-10.54
744.307	-3.54
744.331	11.46
744.354	-4.54
744.377	1.46
744.401	5.46
744.424	-0.54
744.447	-6.54
744.471	-13.54
