Data from HighRes_mercury_15_13_11_07_2024_HR4C61891__72__15-14-30-385.txt Node

Date: Thu Nov 07 15:14:30 EST 2024
User: crc00042
Spectrometer: HR4C6189
Trigger mode: 4
Integration Time (sec): 1.000000E-1
Scans to average: 1
Electric dark correction enabled: true
Nonlinearity correction enabled: false
Boxcar width: 0
XAxis mode: Wavelengths
Number of Pixels in Spectrum: 3648
>>>>>Begin Spectral Data<<<<<
639.567	-48.46
639.602	-48.46
639.636	-48.46
639.67	-36.46
639.704	-11.46
639.738	-2.46
639.773	18.54
639.807	-6.46
639.841	-14.46
639.875	0.54
639.909	-1.46
639.943	-9.46
639.978	7.54
640.012	-13.46
640.046	7.54
640.08	8.54
640.114	4.54
640.148	0.54
640.182	-8.46
640.217	-5.46
640.251	6.54
640.285	2.54
640.319	-17.46
640.353	-0.46
640.387	4.54
640.421	-4.46
640.455	-8.46
640.49	26.54
640.524	3.54
640.558	-14.46
640.592	-2.46
640.626	1.54
640.66	-1.46
640.694	-13.46
640.728	14.54
640.762	9.54
640.796	11.54
640.83	15.54
640.865	-3.46
640.899	6.54
640.933	-10.46
640.967	-1.46
641.001	11.54
641.035	12.54
641.069	5.54
641.103	-15.46
641.137	-2.46
641.171	-6.46
641.205	4.54
641.239	9.54
641.273	11.54
641.307	18.54
641.341	-7.46
641.375	-9.46
641.409	-20.46
641.443	-12.46
641.477	15.54
641.511	0.54
641.545	-1.46
641.579	10.54
641.614	4.54
641.648	9.54
641.682	-5.46
641.716	19.54
641.75	15.54
641.784	-1.46
641.818	-8.46
641.852	6.54
641.886	1.54
641.919	37.54
641.953	22.54
641.987	0.54
642.021	-1.46
642.055	-0.46
642.089	6.54
642.123	-12.46
642.157	-6.46
642.191	-14.46
642.225	3.54
642.259	1.54
642.293	16.54
642.327	3.54
642.361	3.54
642.395	6.54
642.429	15.54
642.463	9.54
642.497	11.54
642.531	12.54
642.565	5.54
642.599	14.54
642.633	3.54
642.666	17.54
642.7	9.54
642.734	10.54
642.768	14.54
642.802	6.54
642.836	14.54
642.87	-5.46
642.904	-8.46
642.938	5.54
642.972	6.54
643.005	9.54
643.039	14.54
643.073	-7.46
643.107	7.54
643.141	-3.46
643.175	6.54
643.209	0.54
643.243	-0.46
643.276	14.54
643.31	-2.46
643.344	-9.46
643.378	-1.46
643.412	17.54
643.446	10.54
643.48	-10.46
643.513	9.54
643.547	13.54
643.581	-0.46
643.615	12.54
643.649	2.54
643.683	9.54
643.716	5.54
643.75	1.54
643.784	-8.46
643.818	2.54
643.852	-14.46
643.886	2.54
643.919	-7.46
643.953	9.54
643.987	-5.46
644.021	14.54
644.055	14.54
644.088	-4.46
644.122	-12.46
644.156	-2.46
644.19	-1.46
644.224	-10.46
644.257	15.54
644.291	17.54
644.325	10.54
644.359	-1.46
644.392	18.54
644.426	15.54
644.46	1.54
644.494	6.54
644.527	0.54
644.561	3.54
644.595	9.54
644.629	-6.46
644.662	4.54
644.696	23.54
644.73	7.54
644.764	21.54
644.797	4.54
644.831	-4.46
644.865	3.54
644.899	21.54
644.932	16.54
644.966	10.54
645	15.54
645.033	11.54
645.067	-0.46
645.101	3.54
645.135	-24.46
645.168	-2.46
645.202	-3.46
645.236	15.54
645.269	11.54
645.303	-0.46
645.337	-22.46
645.37	-10.46
645.404	-2.46
645.438	5.54
645.471	-1.46
645.505	17.54
645.539	7.54
645.572	-3.46
645.606	4.54
645.64	-9.46
645.673	1.54
645.707	15.54
645.741	-3.46
645.774	-6.46
645.808	4.54
645.842	1.54
645.875	11.54
645.909	1.54
645.943	-2.46
645.976	-9.46
646.01	6.54
646.043	8.54
646.077	9.54
646.111	14.54
646.144	9.54
646.178	10.54
646.212	-8.46
646.245	5.54
646.279	8.54
646.312	3.54
646.346	11.54
646.38	11.54
646.413	42.54
646.447	4.54
646.48	12.54
646.514	28.54
646.547	6.54
646.581	2.54
646.615	-4.46
646.648	7.54
646.682	10.54
646.715	0.54
646.749	1.54
646.782	-0.46
646.816	2.54
646.85	5.54
646.883	2.54
646.917	7.54
646.95	-4.46
646.984	16.54
647.017	18.54
647.051	27.54
647.084	11.54
647.118	-4.46
647.151	8.54
647.185	11.54
647.218	-0.46
647.252	20.54
647.285	-0.46
647.319	-5.46
647.353	12.54
647.386	32.54
647.42	18.54
647.453	0.54
647.487	11.54
647.52	-5.46
647.553	-0.46
647.587	7.54
647.62	6.54
647.654	-2.46
647.687	5.54
647.721	22.54
647.754	-4.46
647.788	-1.46
647.821	2.54
647.855	8.54
647.888	11.54
647.922	8.54
647.955	1.54
647.989	-4.46
648.022	7.54
648.055	7.54
648.089	5.54
648.122	11.54
648.156	-3.46
648.189	4.54
648.223	16.54
648.256	13.54
648.29	11.54
648.323	6.54
648.356	5.54
648.39	-9.46
648.423	0.54
648.457	3.54
648.49	25.54
648.523	16.54
648.557	-1.46
648.59	-4.46
648.624	0.54
648.657	9.54
648.69	7.54
648.724	7.54
648.757	0.54
648.791	13.54
648.824	6.54
648.857	18.54
648.891	-3.46
648.924	-0.46
648.957	13.54
648.991	-0.46
649.024	28.54
649.057	5.54
649.091	10.54
649.124	14.54
649.158	6.54
649.191	25.54
649.224	6.54
649.258	9.54
649.291	17.54
649.324	-4.46
649.358	-2.46
649.391	1.54
649.424	8.54
649.458	16.54
649.491	6.54
649.524	-6.46
649.557	-5.46
649.591	-11.46
649.624	8.54
649.657	-1.46
649.691	-0.46
649.724	5.54
649.757	3.54
649.791	-12.46
649.824	2.54
649.857	15.54
649.89	15.54
649.924	-12.46
649.957	-2.46
649.99	-6.46
650.023	-1.46
650.057	7.54
650.09	7.54
650.123	0.54
650.157	1.54
650.19	34.54
650.223	-3.46
650.256	-11.46
650.29	-4.46
650.323	-4.46
650.356	7.54
650.389	4.54
650.423	-15.46
650.456	-2.46
650.489	-2.46
650.522	11.54
650.555	22.54
650.589	11.54
650.622	13.54
650.655	12.54
650.688	4.54
650.721	11.54
650.755	16.54
650.788	10.54
650.821	-5.46
650.854	11.54
650.887	6.54
650.921	-6.46
650.954	-13.46
650.987	3.54
651.02	-12.46
651.053	-14.46
651.087	-3.46
651.12	14.54
651.153	12.54
651.186	-6.46
651.219	-21.46
651.252	8.54
651.286	0.54
651.319	-16.46
651.352	-6.46
651.385	7.54
651.418	2.54
651.451	12.54
651.484	7.54
651.518	6.54
651.551	15.54
651.584	7.54
651.617	16.54
651.65	14.54
651.683	21.54
651.716	-4.46
651.749	-10.46
651.783	1.54
651.816	9.54
651.849	14.54
651.882	21.54
651.915	3.54
651.948	4.54
651.981	-9.46
652.014	3.54
652.047	-7.46
652.08	-14.46
652.114	-8.46
652.147	9.54
652.18	8.54
652.213	33.54
652.246	-4.46
652.279	-6.46
652.312	26.54
652.345	3.54
652.378	6.54
652.411	13.54
652.444	6.54
652.477	6.54
652.51	3.54
652.543	-13.46
652.576	-4.46
652.609	2.54
652.642	7.54
652.675	24.54
652.709	9.54
652.742	6.54
652.775	6.54
652.808	9.54
652.841	12.54
652.874	-2.46
652.907	-5.46
652.94	-4.46
652.973	-6.46
653.006	-5.46
653.039	-13.46
653.072	12.54
653.105	3.54
653.138	-16.46
653.171	-20.46
653.204	-7.46
653.237	18.54
653.27	-12.46
653.303	9.54
653.336	5.54
653.368	7.54
653.401	0.54
653.434	2.54
653.467	-2.46
653.5	-11.46
653.533	-10.46
653.566	6.54
653.599	-3.46
653.632	1.54
653.665	-8.46
653.698	3.54
653.731	-14.46
653.764	4.54
653.797	-0.46
653.83	2.54
653.863	-2.46
653.896	0.54
653.929	16.54
653.961	10.54
653.994	3.54
654.027	-0.46
654.06	20.54
654.093	19.54
654.126	12.54
654.159	1.54
654.192	3.54
654.225	-0.46
654.258	-4.46
654.29	-12.46
654.323	4.54
654.356	11.54
654.389	1.54
654.422	0.54
654.455	12.54
654.488	18.54
654.521	-0.46
654.553	-13.46
654.586	6.54
654.619	-0.46
654.652	-3.46
654.685	7.54
654.718	15.54
654.751	17.54
654.783	4.54
654.816	22.54
654.849	11.54
654.882	-1.46
654.915	-10.46
654.948	-4.46
654.98	-8.46
655.013	-0.46
655.046	4.54
655.079	-18.46
655.112	-2.46
655.144	-8.46
655.177	-13.46
655.21	22.54
655.243	8.54
655.276	2.54
655.308	-22.46
655.341	-16.46
655.374	-2.46
655.407	-4.46
655.44	-16.46
655.472	-8.46
655.505	-4.46
655.538	-2.46
655.571	5.54
655.603	-8.46
655.636	-3.46
655.669	19.54
655.702	0.54
655.734	-11.46
655.767	-1.46
655.8	-10.46
655.833	12.54
655.865	20.54
655.898	5.54
655.931	-3.46
655.964	2.54
655.996	-5.46
656.029	17.54
656.062	1.54
656.095	3.54
656.127	-11.46
656.16	2.54
656.193	-0.46
656.225	0.54
656.258	-15.46
656.291	-4.46
656.324	2.54
656.356	-6.46
656.389	1.54
656.422	12.54
656.454	1.54
656.487	6.54
656.52	16.54
656.552	7.54
656.585	7.54
656.618	6.54
656.65	12.54
656.683	-11.46
656.716	-11.46
656.748	-0.46
656.781	-12.46
656.814	8.54
656.846	10.54
656.879	-8.46
656.912	4.54
656.944	-9.46
656.977	-9.46
657.01	2.54
657.042	5.54
657.075	5.54
657.108	-5.46
657.14	12.54
657.173	3.54
657.205	26.54
657.238	16.54
657.271	0.54
657.303	-1.46
657.336	5.54
657.369	12.54
657.401	11.54
657.434	3.54
657.466	14.54
657.499	-7.46
657.532	3.54
657.564	7.54
657.597	-11.46
657.629	4.54
657.662	7.54
657.694	-0.46
657.727	-17.46
657.76	15.54
657.792	5.54
657.825	-5.46
657.857	1.54
657.89	-13.46
657.922	-7.46
657.955	-0.46
657.987	14.54
658.02	12.54
658.053	19.54
658.085	-8.46
658.118	-11.46
658.15	15.54
658.183	11.54
658.215	5.54
658.248	-16.46
658.28	-7.46
658.313	5.54
658.345	6.54
658.378	-0.46
658.41	-2.46
658.443	15.54
658.475	11.54
658.508	-3.46
658.54	-2.46
658.573	-4.46
658.605	-0.46
658.638	-4.46
658.67	-3.46
658.703	-7.46
658.735	-14.46
658.768	4.54
658.8	-7.46
658.833	21.54
658.865	-7.46
658.898	-10.46
658.93	-8.46
658.963	-11.46
658.995	-11.46
659.028	5.54
659.06	9.54
659.092	4.54
659.125	-6.46
659.157	-0.46
659.19	-4.46
659.222	8.54
659.255	0.54
659.287	3.54
659.32	2.54
659.352	12.54
659.384	17.54
659.417	6.54
659.449	14.54
659.482	5.54
659.514	3.54
659.546	-7.46
659.579	-24.46
659.611	-11.46
659.644	-4.46
659.676	-21.46
659.708	-12.46
659.741	-10.46
659.773	9.54
659.806	2.54
659.838	-12.46
659.87	2.54
659.903	-2.46
659.935	8.54
659.967	10.54
660	4.54
660.032	-11.46
660.065	6.54
660.097	-10.46
660.129	-4.46
660.162	-19.46
660.194	11.54
660.226	-2.46
660.259	6.54
660.291	-2.46
660.323	4.54
660.356	4.54
660.388	-4.46
660.42	11.54
660.453	18.54
660.485	10.54
660.517	12.54
660.55	7.54
660.582	-7.46
660.614	6.54
660.647	-12.46
660.679	-18.46
660.711	8.54
660.743	0.54
660.776	3.54
660.808	-10.46
660.84	-15.46
660.873	-4.46
660.905	-0.46
660.937	1.54
660.969	-0.46
661.002	0.54
661.034	12.54
661.066	5.54
661.099	1.54
661.131	18.54
661.163	-2.46
661.195	5.54
661.228	16.54
661.26	3.54
661.292	2.54
661.324	6.54
661.357	6.54
661.389	-9.46
661.421	-4.46
661.453	-1.46
661.485	5.54
661.518	9.54
661.55	0.54
661.582	-2.46
661.614	-11.46
661.647	5.54
661.679	-1.46
661.711	15.54
661.743	-10.46
661.775	-3.46
661.808	21.54
661.84	3.54
661.872	6.54
661.904	2.54
661.936	3.54
661.969	-3.46
662.001	8.54
662.033	17.54
662.065	-3.46
662.097	5.54
662.129	10.54
662.162	-1.46
662.194	13.54
662.226	4.54
662.258	12.54
662.29	14.54
662.322	-8.46
662.355	-7.46
662.387	16.54
662.419	16.54
662.451	16.54
662.483	14.54
662.515	-8.46
662.547	-1.46
662.58	-5.46
662.612	-7.46
662.644	-18.46
662.676	5.54
662.708	16.54
662.74	14.54
662.772	5.54
662.804	8.54
662.836	-2.46
662.869	-2.46
662.901	9.54
662.933	7.54
662.965	17.54
662.997	17.54
663.029	-5.46
663.061	-4.46
663.093	-9.46
663.125	15.54
663.157	13.54
663.189	24.54
663.221	16.54
663.254	-9.46
663.286	13.54
663.318	-9.46
663.35	0.54
663.382	6.54
663.414	5.54
663.446	15.54
663.478	4.54
663.51	8.54
663.542	1.54
663.574	-1.46
663.606	18.54
663.638	-15.46
663.67	-3.46
663.702	-2.46
663.734	0.54
663.766	7.54
663.798	0.54
663.83	18.54
663.862	16.54
663.894	10.54
663.926	8.54
663.958	8.54
663.99	-6.46
664.022	-5.46
664.054	11.54
664.086	-17.46
664.118	-12.46
664.15	1.54
664.182	-0.46
664.214	2.54
664.246	4.54
664.278	19.54
664.31	25.54
664.342	-4.46
664.374	6.54
664.406	3.54
664.438	3.54
664.47	36.54
664.502	3.54
664.534	-8.46
664.566	-23.46
664.598	-4.46
664.63	3.54
664.662	12.54
664.693	4.54
664.725	-13.46
664.757	5.54
664.789	-6.46
664.821	15.54
664.853	13.54
664.885	7.54
664.917	11.54
664.949	13.54
664.981	16.54
665.013	1.54
665.045	0.54
665.076	-0.46
665.108	6.54
665.14	1.54
665.172	0.54
665.204	2.54
665.236	-3.46
665.268	11.54
665.3	-2.46
665.331	-10.46
665.363	5.54
665.395	-20.46
665.427	1.54
665.459	8.54
665.491	3.54
665.523	21.54
665.555	4.54
665.586	-7.46
665.618	-10.46
665.65	-10.46
665.682	9.54
665.714	7.54
665.746	-3.46
665.777	-2.46
665.809	3.54
665.841	1.54
665.873	2.54
665.905	-0.46
665.937	11.54
665.968	1.54
666	-8.46
666.032	14.54
666.064	-6.46
666.096	3.54
666.127	-4.46
666.159	5.54
666.191	5.54
666.223	-3.46
666.255	4.54
666.286	13.54
666.318	-2.46
666.35	7.54
666.382	7.54
666.413	7.54
666.445	-7.46
666.477	-15.46
666.509	-5.46
666.54	7.54
666.572	-3.46
666.604	-4.46
666.636	-1.46
666.667	27.54
666.699	9.54
666.731	-4.46
666.763	4.54
666.794	11.54
666.826	1.54
666.858	-16.46
666.89	8.54
666.921	1.54
666.953	2.54
666.985	17.54
667.017	10.54
667.048	2.54
667.08	12.54
667.112	-3.46
667.143	-3.46
667.175	0.54
667.207	6.54
667.238	0.54
667.27	-1.46
667.302	-3.46
667.334	-8.46
667.365	11.54
667.397	1.54
667.429	-15.46
667.46	7.54
667.492	2.54
667.524	-6.46
667.555	5.54
667.587	2.54
667.619	2.54
667.65	2.54
667.682	11.54
667.714	-3.46
667.745	0.54
667.777	8.54
667.808	2.54
667.84	8.54
667.872	11.54
667.903	31.54
667.935	5.54
667.967	22.54
667.998	16.54
668.03	-0.46
668.061	1.54
668.093	8.54
668.125	4.54
668.156	-4.46
668.188	-6.46
668.22	3.54
668.251	22.54
668.283	11.54
668.314	13.54
668.346	4.54
668.377	9.54
668.409	26.54
668.441	26.54
668.472	6.54
668.504	1.54
668.535	10.54
668.567	1.54
668.599	0.54
668.63	2.54
668.662	-11.46
668.693	20.54
668.725	6.54
668.756	15.54
668.788	-1.46
668.819	-1.46
668.851	4.54
668.882	-0.46
668.914	-2.46
668.946	-1.46
668.977	-8.46
669.009	-6.46
669.04	-21.46
669.072	-4.46
669.103	-0.46
669.135	-9.46
669.166	-16.46
669.198	8.54
669.229	2.54
669.261	13.54
669.292	14.54
669.324	4.54
669.355	-0.46
669.387	-10.46
669.418	9.54
669.45	-7.46
669.481	8.54
669.513	5.54
669.544	8.54
669.576	15.54
669.607	13.54
669.639	11.54
669.67	-21.46
669.701	9.54
669.733	6.54
669.764	6.54
669.796	0.54
669.827	-8.46
669.859	-0.46
669.89	7.54
669.922	16.54
669.953	11.54
669.985	11.54
670.016	13.54
670.047	19.54
670.079	-1.46
670.11	6.54
670.142	8.54
670.173	4.54
670.204	7.54
670.236	5.54
670.267	-10.46
670.299	-8.46
670.33	0.54
670.362	15.54
670.393	-1.46
670.424	2.54
670.456	-10.46
670.487	3.54
670.518	4.54
670.55	13.54
670.581	-7.46
670.613	10.54
670.644	11.54
670.675	-9.46
670.707	10.54
670.738	4.54
670.769	-7.46
670.801	-7.46
670.832	2.54
670.864	-3.46
670.895	2.54
670.926	1.54
670.958	8.54
670.989	3.54
671.02	14.54
671.052	4.54
671.083	-3.46
671.114	2.54
671.146	17.54
671.177	0.54
671.208	-13.46
671.24	-9.46
671.271	-7.46
671.302	-3.46
671.333	-6.46
671.365	-19.46
671.396	-3.46
671.427	-2.46
671.459	-3.46
671.49	20.54
671.521	15.54
671.553	7.54
671.584	-3.46
671.615	-8.46
671.646	-1.46
671.678	2.54
671.709	-8.46
671.74	-10.46
671.771	-0.46
671.803	2.54
671.834	1.54
671.865	-11.46
671.896	4.54
671.928	0.54
671.959	-13.46
671.99	-18.46
672.021	7.54
672.053	-9.46
672.084	19.54
672.115	1.54
672.146	4.54
672.178	-16.46
672.209	-4.46
672.24	2.54
672.271	12.54
672.303	-15.46
672.334	-12.46
672.365	6.54
672.396	9.54
672.427	-4.46
672.459	2.54
672.49	18.54
672.521	11.54
672.552	17.54
672.583	15.54
672.615	2.54
672.646	12.54
672.677	2.54
672.708	-6.46
672.739	2.54
672.77	13.54
672.802	9.54
672.833	-3.46
672.864	-7.46
672.895	-6.46
672.926	-10.46
672.957	4.54
672.989	2.54
673.02	13.54
673.051	1.54
673.082	1.54
673.113	6.54
673.144	14.54
673.175	15.54
673.206	-6.46
673.238	-8.46
673.269	-0.46
673.3	-4.46
673.331	2.54
673.362	-8.46
673.393	-12.46
673.424	-1.46
673.455	10.54
673.487	-7.46
673.518	-6.46
673.549	14.54
673.58	-3.46
673.611	11.54
673.642	1.54
673.673	-8.46
673.704	5.54
673.735	5.54
673.766	-7.46
673.797	-12.46
673.828	11.54
673.86	-4.46
673.891	-1.46
673.922	-9.46
673.953	-18.46
673.984	-0.46
674.015	11.54
674.046	15.54
674.077	25.54
674.108	-8.46
674.139	-0.46
674.17	1.54
674.201	-10.46
674.232	10.54
674.263	-11.46
674.294	-14.46
674.325	-10.46
674.356	7.54
674.387	27.54
674.418	-2.46
674.449	-10.46
674.48	-0.46
674.511	0.54
674.542	8.54
674.573	-10.46
674.604	15.54
674.635	3.54
674.666	17.54
674.697	-0.46
674.728	-6.46
674.759	0.54
674.79	-14.46
674.821	4.54
674.852	-13.46
674.883	12.54
674.914	-1.46
674.945	2.54
674.976	-11.46
675.007	-5.46
675.038	-17.46
675.069	-14.46
675.1	-0.46
675.131	-4.46
675.162	4.54
675.193	-10.46
675.224	3.54
675.254	13.54
675.285	10.54
675.316	14.54
675.347	11.54
675.378	-7.46
675.409	0.54
675.44	22.54
675.471	22.54
675.502	-12.46
675.533	1.54
675.564	-5.46
675.595	-11.46
675.625	8.54
675.656	-1.46
675.687	5.54
675.718	-11.46
675.749	15.54
675.78	14.54
675.811	-19.46
675.842	0.54
675.873	-13.46
675.903	-6.46
675.934	-9.46
675.965	-17.46
675.996	-14.46
676.027	22.54
676.058	0.54
676.089	-9.46
676.119	-3.46
676.15	1.54
676.181	3.54
676.212	2.54
676.243	6.54
676.274	5.54
676.304	8.54
676.335	-8.46
676.366	1.54
676.397	-0.46
676.428	2.54
676.459	3.54
676.489	22.54
676.52	14.54
676.551	-7.46
676.582	4.54
676.613	9.54
676.643	-4.46
676.674	9.54
676.705	8.54
676.736	6.54
676.767	17.54
676.797	10.54
676.828	12.54
676.859	2.54
676.89	-2.46
676.92	14.54
676.951	4.54
676.982	3.54
677.013	7.54
677.044	9.54
677.074	33.54
677.105	-12.46
677.136	-2.46
677.167	5.54
677.197	19.54
677.228	-5.46
677.259	0.54
677.289	2.54
677.32	-16.46
677.351	-5.46
677.382	-4.46
677.412	-13.46
677.443	7.54
677.474	7.54
677.505	-7.46
677.535	4.54
677.566	-6.46
677.597	-9.46
677.627	10.54
677.658	-7.46
677.689	-16.46
677.72	-0.46
677.75	-5.46
677.781	-6.46
677.812	2.54
677.842	4.54
677.873	1.54
677.904	-8.46
677.934	11.54
677.965	2.54
677.996	-3.46
678.026	6.54
678.057	-8.46
678.088	-16.46
678.118	0.54
678.149	-7.46
678.18	-0.46
678.21	8.54
678.241	0.54
678.272	-0.46
678.302	5.54
678.333	8.54
678.363	9.54
678.394	14.54
678.425	2.54
678.455	-9.46
678.486	8.54
678.517	0.54
678.547	12.54
678.578	-2.46
678.608	-16.46
678.639	1.54
678.67	-9.46
678.7	11.54
678.731	4.54
678.761	9.54
678.792	6.54
678.823	10.54
678.853	4.54
678.884	0.54
678.914	12.54
678.945	-2.46
678.975	-9.46
679.006	3.54
679.037	-5.46
679.067	22.54
679.098	10.54
679.128	2.54
679.159	-0.46
679.189	15.54
679.22	0.54
679.25	0.54
679.281	1.54
679.312	20.54
679.342	12.54
679.373	25.54
679.403	5.54
679.434	10.54
679.464	11.54
679.495	5.54
679.525	-13.46
679.556	-6.46
679.586	11.54
679.617	-11.46
679.647	-1.46
679.678	5.54
679.708	-5.46
679.739	-6.46
679.769	-3.46
679.8	-5.46
679.83	-9.46
679.861	13.54
679.891	-7.46
679.922	-7.46
679.952	-11.46
679.983	-4.46
680.013	19.54
680.044	-27.46
680.074	11.54
680.105	2.54
680.135	16.54
680.165	20.54
680.196	6.54
680.226	5.54
680.257	17.54
680.287	-3.46
680.318	10.54
680.348	-10.46
680.379	4.54
680.409	14.54
680.439	11.54
680.47	-2.46
680.5	-0.46
680.531	2.54
680.561	13.54
680.592	5.54
680.622	18.54
680.652	13.54
680.683	19.54
680.713	-4.46
680.744	-9.46
680.774	-13.46
680.804	1.54
680.835	4.54
680.865	1.54
680.896	9.54
680.926	12.54
680.956	13.54
680.987	2.54
681.017	-6.46
681.047	5.54
681.078	0.54
681.108	-8.46
681.139	12.54
681.169	7.54
681.199	-16.46
681.23	12.54
681.26	-5.46
681.29	6.54
681.321	-0.46
681.351	9.54
681.381	-19.46
681.412	8.54
681.442	-2.46
681.472	11.54
681.503	2.54
681.533	-15.46
681.563	-13.46
681.594	0.54
681.624	13.54
681.654	-5.46
681.685	-21.46
681.715	-3.46
681.745	-9.46
681.775	-14.46
681.806	4.54
681.836	12.54
681.866	1.54
681.897	-7.46
681.927	-4.46
681.957	-9.46
681.987	-1.46
682.018	-4.46
682.048	14.54
682.078	10.54
682.109	18.54
682.139	15.54
682.169	7.54
682.199	-11.46
682.23	-12.46
682.26	15.54
682.29	0.54
682.32	-0.46
682.351	-0.46
682.381	2.54
682.411	-9.46
682.441	-9.46
682.472	-20.46
682.502	1.54
682.532	-3.46
682.562	3.54
682.592	12.54
682.623	4.54
682.653	-6.46
682.683	0.54
682.713	13.54
682.743	1.54
682.774	0.54
682.804	7.54
682.834	17.54
682.864	-4.46
682.894	-4.46
682.925	0.54
682.955	2.54
682.985	-20.46
683.015	-6.46
683.045	2.54
683.076	-12.46
683.106	6.54
683.136	-6.46
683.166	-1.46
683.196	-2.46
683.226	1.54
683.257	3.54
683.287	-4.46
683.317	-11.46
683.347	-12.46
683.377	-14.46
683.407	15.54
683.437	0.54
683.468	6.54
683.498	-16.46
683.528	12.54
683.558	1.54
683.588	-8.46
683.618	-3.46
683.648	-0.46
683.678	-0.46
683.708	19.54
683.739	16.54
683.769	3.54
683.799	-1.46
683.829	17.54
683.859	12.54
683.889	10.54
683.919	3.54
683.949	-3.46
683.979	2.54
684.009	-19.46
684.039	-4.46
684.07	-7.46
684.1	19.54
684.13	-7.46
684.16	1.54
684.19	2.54
684.22	1.54
684.25	4.54
684.28	-3.46
684.31	16.54
684.34	16.54
684.37	-0.46
684.4	-10.46
684.43	5.54
684.46	-9.46
684.49	13.54
684.52	0.54
684.55	12.54
684.58	11.54
684.61	-9.46
684.64	9.54
684.67	0.54
684.7	2.54
684.73	4.54
684.76	-2.46
684.79	2.54
684.82	12.54
684.85	-4.46
684.88	-0.46
684.91	2.54
684.94	1.54
684.97	-8.46
685	-6.46
685.03	-19.46
685.06	-29.46
685.09	-11.46
685.12	20.54
685.15	-4.46
685.18	25.54
685.21	20.54
685.24	5.54
685.27	12.54
685.3	0.54
685.33	6.54
685.36	0.54
685.39	-8.46
685.42	-9.46
685.45	-4.46
685.48	-1.46
685.51	9.54
685.54	9.54
685.569	1.54
685.599	20.54
685.629	17.54
685.659	4.54
685.689	-1.46
685.719	-6.46
685.749	-2.46
685.779	6.54
685.809	-0.46
685.839	0.54
685.869	11.54
685.898	8.54
685.928	4.54
685.958	-2.46
685.988	21.54
686.018	1.54
686.048	2.54
686.078	16.54
686.108	7.54
686.137	18.54
686.167	15.54
686.197	-12.46
686.227	6.54
686.257	37.54
686.287	15.54
686.317	11.54
686.346	9.54
686.376	2.54
686.406	-7.46
686.436	21.54
686.466	-3.46
686.496	6.54
686.525	-7.46
686.555	1.54
686.585	3.54
686.615	30.54
686.645	12.54
686.675	4.54
686.704	6.54
686.734	15.54
686.764	9.54
686.794	13.54
686.824	11.54
686.853	2.54
686.883	5.54
686.913	25.54
686.943	15.54
686.973	3.54
687.002	18.54
687.032	18.54
687.062	3.54
687.092	7.54
687.121	6.54
687.151	-4.46
687.181	-0.46
687.211	18.54
687.24	4.54
687.27	21.54
687.3	-6.46
687.33	-13.46
687.359	-8.46
687.389	5.54
687.419	2.54
687.449	2.54
687.478	2.54
687.508	1.54
687.538	12.54
687.568	12.54
687.597	17.54
687.627	11.54
687.657	8.54
687.686	17.54
687.716	22.54
687.746	-15.46
687.776	-4.46
687.805	8.54
687.835	14.54
687.865	15.54
687.894	8.54
687.924	7.54
687.954	-10.46
687.983	-1.46
688.013	15.54
688.043	20.54
688.072	6.54
688.102	14.54
688.132	2.54
688.161	6.54
688.191	-1.46
688.221	8.54
688.25	4.54
688.28	-9.46
688.31	-1.46
688.339	-9.46
688.369	-11.46
688.399	1.54
688.428	7.54
688.458	-0.46
688.488	5.54
688.517	8.54
688.547	-9.46
688.576	23.54
688.606	11.54
688.636	-4.46
688.665	4.54
688.695	7.54
688.725	19.54
688.754	9.54
688.784	18.54
688.813	24.54
688.843	7.54
688.873	-3.46
688.902	3.54
688.932	-5.46
688.961	-13.46
688.991	6.54
689.02	9.54
689.05	6.54
689.08	-6.46
689.109	8.54
689.139	-4.46
689.168	1.54
689.198	-3.46
689.227	1.54
689.257	3.54
689.287	10.54
689.316	-0.46
689.346	-10.46
689.375	-6.46
689.405	8.54
689.434	-8.46
689.464	18.54
689.493	-3.46
689.523	5.54
689.552	1.54
689.582	-1.46
689.611	-10.46
689.641	0.54
689.67	17.54
689.7	9.54
689.73	7.54
689.759	15.54
689.789	26.54
689.818	0.54
689.848	0.54
689.877	24.54
689.906	3.54
689.936	-2.46
689.965	15.54
689.995	9.54
690.024	3.54
690.054	5.54
690.083	2.54
690.113	-6.46
690.142	-3.46
690.172	-6.46
690.201	-6.46
690.231	16.54
690.26	9.54
690.29	0.54
690.319	15.54
690.348	3.54
690.378	3.54
690.407	12.54
690.437	4.54
690.466	1.54
690.496	0.54
690.525	9.54
690.555	17.54
690.584	2.54
690.613	3.54
690.643	0.54
690.672	9.54
690.702	6.54
690.731	20.54
690.76	16.54
690.79	64.54
690.819	52.54
690.849	34.54
690.878	26.54
690.907	33.54
690.937	31.54
690.966	22.54
690.996	15.54
691.025	13.54
691.054	10.54
691.084	3.54
691.113	0.54
691.142	14.54
691.172	9.54
691.201	17.54
691.23	-1.46
691.26	14.54
691.289	7.54
691.319	-4.46
691.348	-1.46
691.377	25.54
691.407	6.54
691.436	19.54
691.465	2.54
691.495	4.54
691.524	10.54
691.553	9.54
691.583	1.54
691.612	26.54
691.641	10.54
691.67	1.54
691.7	-12.46
691.729	-3.46
691.758	-1.46
691.788	0.54
691.817	-3.46
691.846	-3.46
691.876	6.54
691.905	-1.46
691.934	-7.46
691.963	7.54
691.993	6.54
692.022	4.54
692.051	-9.46
692.081	17.54
692.11	4.54
692.139	6.54
692.168	7.54
692.198	12.54
692.227	-6.46
692.256	-14.46
692.285	2.54
692.315	3.54
692.344	16.54
692.373	16.54
692.402	-9.46
692.432	0.54
692.461	11.54
692.49	2.54
692.519	2.54
692.548	-0.46
692.578	6.54
692.607	9.54
692.636	4.54
692.665	20.54
692.694	5.54
692.724	1.54
692.753	6.54
692.782	15.54
692.811	1.54
692.84	14.54
692.87	13.54
692.899	26.54
692.928	2.54
692.957	17.54
692.986	18.54
693.016	14.54
693.045	19.54
693.074	10.54
693.103	5.54
693.132	-3.46
693.161	18.54
693.191	-1.46
693.22	-11.46
693.249	-3.46
693.278	-2.46
693.307	19.54
693.336	-15.46
693.365	-3.46
693.395	11.54
693.424	9.54
693.453	19.54
693.482	6.54
693.511	-5.46
693.54	8.54
693.569	-0.46
693.598	1.54
693.628	6.54
693.657	-8.46
693.686	9.54
693.715	18.54
693.744	11.54
693.773	26.54
693.802	17.54
693.831	4.54
693.86	7.54
693.889	-5.46
693.919	-4.46
693.948	3.54
693.977	-4.46
694.006	-7.46
694.035	2.54
694.064	-0.46
694.093	10.54
694.122	13.54
694.151	-4.46
694.18	17.54
694.209	38.54
694.238	23.54
694.267	26.54
694.296	15.54
694.325	20.54
694.354	20.54
694.383	2.54
694.412	0.54
694.441	-8.46
694.471	-1.46
694.5	0.54
694.529	7.54
694.558	22.54
694.587	-0.46
694.616	-0.46
694.645	10.54
694.674	16.54
694.703	19.54
694.732	-4.46
694.761	13.54
694.79	18.54
694.819	4.54
694.848	2.54
694.877	10.54
694.906	19.54
694.935	9.54
694.963	19.54
694.992	2.54
695.021	5.54
695.05	0.54
695.079	14.54
695.108	2.54
695.137	31.54
695.166	10.54
695.195	2.54
695.224	6.54
695.253	4.54
695.282	2.54
695.311	19.54
695.34	6.54
695.369	16.54
695.398	10.54
695.427	23.54
695.456	7.54
695.485	-7.46
695.513	7.54
695.542	16.54
695.571	3.54
695.6	21.54
695.629	3.54
695.658	13.54
695.687	21.54
695.716	22.54
695.745	41.54
695.774	0.54
695.802	9.54
695.831	14.54
695.86	6.54
695.889	19.54
695.918	-7.46
695.947	-10.46
695.976	-3.46
696.005	4.54
696.033	15.54
696.062	24.54
696.091	13.54
696.12	19.54
696.149	16.54
696.178	7.54
696.207	2.54
696.235	4.54
696.264	11.54
696.293	1.54
696.322	26.54
696.351	41.54
696.38	5.54
696.408	11.54
696.437	8.54
696.466	29.54
696.495	15.54
696.524	7.54
696.553	5.54
696.581	9.54
696.61	12.54
696.639	3.54
696.668	9.54
696.697	-11.46
696.725	20.54
696.754	-9.46
696.783	1.54
696.812	11.54
696.84	16.54
696.869	9.54
696.898	-3.46
696.927	2.54
696.956	32.54
696.984	-6.46
697.013	2.54
697.042	7.54
697.071	27.54
697.099	30.54
697.128	3.54
697.157	9.54
697.186	8.54
697.214	6.54
697.243	-5.46
697.272	6.54
697.301	12.54
697.329	11.54
697.358	4.54
697.387	9.54
697.415	17.54
697.444	11.54
697.473	11.54
697.502	6.54
697.53	13.54
697.559	2.54
697.588	-1.46
697.616	7.54
697.645	-2.46
697.674	11.54
697.703	3.54
697.731	27.54
697.76	12.54
697.789	-0.46
697.817	10.54
697.846	25.54
697.875	11.54
697.903	15.54
697.932	20.54
697.961	10.54
697.989	32.54
698.018	8.54
698.047	7.54
698.075	4.54
698.104	-12.46
698.133	0.54
698.161	-1.46
698.19	1.54
698.218	10.54
698.247	10.54
698.276	19.54
698.304	13.54
698.333	-1.46
698.362	7.54
698.39	3.54
698.419	8.54
698.447	2.54
698.476	2.54
698.505	15.54
698.533	15.54
698.562	-3.46
698.591	3.54
698.619	1.54
698.648	3.54
698.676	16.54
698.705	-11.46
698.733	-1.46
698.762	2.54
698.791	5.54
698.819	1.54
698.848	2.54
698.876	3.54
698.905	17.54
698.933	16.54
698.962	2.54
698.991	23.54
699.019	25.54
699.048	4.54
699.076	2.54
699.105	-8.46
699.133	-13.46
699.162	3.54
699.19	12.54
699.219	9.54
699.248	11.54
699.276	-10.46
699.305	-9.46
699.333	4.54
699.362	1.54
699.39	6.54
699.419	3.54
699.447	10.54
699.476	-1.46
699.504	-3.46
699.533	7.54
699.561	-0.46
699.59	2.54
699.618	1.54
699.647	11.54
699.675	17.54
699.704	-2.46
699.732	8.54
699.761	-0.46
699.789	-0.46
699.818	13.54
699.846	9.54
699.874	-1.46
699.903	-4.46
699.931	-8.46
699.96	7.54
699.988	19.54
700.017	-2.46
700.045	1.54
700.074	-3.46
700.102	-1.46
700.13	-3.46
700.159	0.54
700.187	2.54
700.216	-11.46
700.244	-6.46
700.273	6.54
700.301	6.54
700.329	13.54
700.358	22.54
700.386	-10.46
700.415	2.54
700.443	1.54
700.472	2.54
700.5	-3.46
700.528	19.54
700.557	26.54
700.585	-2.46
700.614	2.54
700.642	12.54
700.67	0.54
700.699	-5.46
700.727	-0.46
700.755	11.54
700.784	0.54
700.812	1.54
700.841	16.54
700.869	6.54
700.897	-32.46
700.926	-3.46
700.954	4.54
700.982	4.54
701.011	-7.46
701.039	11.54
701.067	8.54
701.096	5.54
701.124	4.54
701.152	15.54
701.181	5.54
701.209	-0.46
701.237	8.54
701.266	4.54
701.294	8.54
701.322	2.54
701.351	15.54
701.379	-6.46
701.407	-5.46
701.435	3.54
701.464	7.54
701.492	18.54
701.52	3.54
701.549	18.54
701.577	2.54
701.605	1.54
701.634	2.54
701.662	9.54
701.69	-9.46
701.718	-3.46
701.747	31.54
701.775	9.54
701.803	11.54
701.831	22.54
701.86	-1.46
701.888	-5.46
701.916	-5.46
701.944	-6.46
701.973	3.54
702.001	-2.46
702.029	2.54
702.057	-11.46
702.086	-3.46
702.114	-6.46
702.142	8.54
702.17	-13.46
702.199	3.54
702.227	-1.46
702.255	0.54
702.283	-1.46
702.311	9.54
702.34	14.54
702.368	1.54
702.396	4.54
702.424	1.54
702.452	-10.46
702.481	-4.46
702.509	15.54
702.537	15.54
702.565	10.54
702.593	-5.46
702.621	-3.46
702.65	1.54
702.678	4.54
702.706	8.54
702.734	-5.46
702.762	11.54
702.79	8.54
702.819	9.54
702.847	8.54
702.875	16.54
702.903	2.54
702.931	-3.46
702.959	6.54
702.988	7.54
703.016	6.54
703.044	-2.46
703.072	6.54
703.1	-7.46
703.128	-12.46
703.156	0.54
703.184	5.54
703.212	6.54
703.241	0.54
703.269	10.54
703.297	6.54
703.325	4.54
703.353	-8.46
703.381	-9.46
703.409	7.54
703.437	-2.46
703.465	9.54
703.493	-10.46
703.522	-1.46
703.55	0.54
703.578	7.54
703.606	3.54
703.634	-3.46
703.662	-0.46
703.69	12.54
703.718	13.54
703.746	27.54
703.774	-0.46
703.802	12.54
703.83	-0.46
703.858	9.54
703.886	1.54
703.914	-12.46
703.942	7.54
703.97	-7.46
703.998	12.54
704.027	17.54
704.055	9.54
704.083	15.54
704.111	6.54
704.139	4.54
704.167	-13.46
704.195	-12.46
704.223	-10.46
704.251	-4.46
704.279	12.54
704.307	0.54
704.335	-17.46
704.363	-11.46
704.391	-3.46
704.419	1.54
704.447	9.54
704.475	12.54
704.503	-6.46
704.531	11.54
704.558	-0.46
704.586	7.54
704.614	7.54
704.642	2.54
704.67	-11.46
704.698	16.54
704.726	1.54
704.754	-21.46
704.782	1.54
704.81	6.54
704.838	19.54
704.866	-0.46
704.894	-5.46
704.922	-9.46
704.95	5.54
704.978	11.54
705.006	1.54
705.034	13.54
705.061	-20.46
705.089	-9.46
705.117	-8.46
705.145	0.54
705.173	-0.46
705.201	1.54
705.229	7.54
705.257	0.54
705.285	-4.46
705.313	12.54
705.34	-0.46
705.368	-9.46
705.396	-0.46
705.424	18.54
705.452	10.54
705.48	3.54
705.508	0.54
705.536	-8.46
705.563	-5.46
705.591	16.54
705.619	-5.46
705.647	-1.46
705.675	1.54
705.703	8.54
705.731	5.54
705.758	20.54
705.786	4.54
705.814	11.54
705.842	6.54
705.87	19.54
705.898	15.54
705.925	-7.46
705.953	4.54
705.981	0.54
706.009	-3.46
706.037	14.54
706.065	-0.46
706.092	-12.46
706.12	-2.46
706.148	-12.46
706.176	0.54
706.204	16.54
706.231	-8.46
706.259	-4.46
706.287	-2.46
706.315	7.54
706.342	-3.46
706.37	2.54
706.398	5.54
706.426	-0.46
706.454	3.54
706.481	10.54
706.509	4.54
706.537	2.54
706.565	-13.46
706.592	10.54
706.62	-6.46
706.648	5.54
706.676	-13.46
706.703	13.54
706.731	-13.46
706.759	-17.46
706.787	19.54
706.814	18.54
706.842	0.54
706.87	-3.46
706.897	4.54
706.925	11.54
706.953	-2.46
706.981	16.54
707.008	-2.46
707.036	-5.46
707.064	-1.46
707.091	-10.46
707.119	10.54
707.147	10.54
707.174	-8.46
707.202	5.54
707.23	-7.46
707.258	7.54
707.285	-17.46
707.313	-7.46
707.341	-6.46
707.368	-8.46
707.396	-4.46
707.424	12.54
707.451	5.54
707.479	-1.46
707.507	5.54
707.534	-4.46
707.562	-0.46
707.59	-7.46
707.617	-7.46
707.645	5.54
707.672	6.54
707.7	-0.46
707.728	6.54
707.755	0.54
707.783	2.54
707.811	9.54
707.838	-17.46
707.866	3.54
707.893	-2.46
707.921	-0.46
707.949	-5.46
707.976	-9.46
708.004	4.54
708.031	-8.46
708.059	-13.46
708.087	-13.46
708.114	-1.46
708.142	-6.46
708.169	-0.46
708.197	-9.46
708.225	-6.46
708.252	4.54
708.28	15.54
708.307	5.54
708.335	1.54
708.362	-0.46
708.39	-16.46
708.418	-1.46
708.445	1.54
708.473	-3.46
708.5	5.54
708.528	11.54
708.555	0.54
708.583	8.54
708.61	-5.46
708.638	7.54
708.665	-9.46
708.693	8.54
708.72	-8.46
708.748	-0.46
708.776	-4.46
708.803	19.54
708.831	15.54
708.858	13.54
708.886	-4.46
708.913	11.54
708.941	-5.46
708.968	8.54
708.996	-3.46
709.023	18.54
709.051	-0.46
709.078	4.54
709.105	4.54
709.133	-7.46
709.16	6.54
709.188	14.54
709.215	12.54
709.243	6.54
709.27	-6.46
709.298	-4.46
709.325	-0.46
709.353	-12.46
709.38	-5.46
709.408	7.54
709.435	-14.46
709.462	-25.46
709.49	8.54
709.517	-4.46
709.545	-3.46
709.572	-8.46
709.6	-6.46
709.627	2.54
709.655	-3.46
709.682	9.54
709.709	11.54
709.737	2.54
709.764	-9.46
709.792	25.54
709.819	6.54
709.846	4.54
709.874	14.54
709.901	2.54
709.929	19.54
709.956	4.54
709.983	-17.46
710.011	0.54
710.038	-8.46
710.066	13.54
710.093	8.54
710.12	6.54
710.148	-0.46
710.175	3.54
710.202	-13.46
710.23	-8.46
710.257	0.54
710.284	4.54
710.312	-0.46
710.339	15.54
710.366	6.54
710.394	0.54
710.421	-4.46
710.448	13.54
710.476	-15.46
710.503	0.54
710.53	7.54
710.558	9.54
710.585	2.54
710.612	0.54
710.64	-0.46
710.667	5.54
710.694	-1.46
710.722	11.54
710.749	-7.46
710.776	2.54
710.804	24.54
710.831	7.54
710.858	-5.46
710.885	-9.46
710.913	-9.46
710.94	19.54
710.967	-7.46
710.995	10.54
711.022	0.54
711.049	4.54
711.076	-7.46
711.104	-5.46
711.131	-0.46
711.158	0.54
711.185	18.54
711.213	-7.46
711.24	2.54
711.267	-6.46
711.294	1.54
711.322	1.54
711.349	-11.46
711.376	3.54
711.403	17.54
711.431	-12.46
711.458	0.54
711.485	-9.46
711.512	-8.46
711.54	-14.46
711.567	-3.46
711.594	-9.46
711.621	0.54
711.648	12.54
711.676	0.54
711.703	-1.46
711.73	-14.46
711.757	-0.46
711.784	-0.46
711.812	12.54
711.839	11.54
711.866	4.54
711.893	-10.46
711.92	8.54
711.947	3.54
711.975	16.54
712.002	2.54
712.029	20.54
712.056	9.54
712.083	-4.46
712.11	-8.46
712.138	10.54
712.165	14.54
712.192	-1.46
712.219	5.54
712.246	-0.46
712.273	-16.46
712.3	-4.46
712.328	9.54
712.355	2.54
712.382	3.54
712.409	15.54
712.436	-0.46
712.463	12.54
712.49	12.54
712.517	2.54
712.544	-3.46
712.572	2.54
712.599	-3.46
712.626	7.54
712.653	-8.46
712.68	-10.46
712.707	4.54
712.734	14.54
712.761	7.54
712.788	-1.46
712.815	3.54
712.842	9.54
712.87	-0.46
712.897	-6.46
712.924	-0.46
712.951	13.54
712.978	16.54
713.005	4.54
713.032	1.54
713.059	-0.46
713.086	-3.46
713.113	-0.46
713.14	-22.46
713.167	10.54
713.194	10.54
713.221	1.54
713.248	14.54
713.275	-0.46
713.302	-9.46
713.329	-0.46
713.356	6.54
713.383	12.54
713.41	-3.46
713.437	-13.46
713.464	-2.46
713.491	18.54
713.518	4.54
713.545	-5.46
713.572	-3.46
713.599	7.54
713.626	-7.46
713.653	13.54
713.68	-8.46
713.707	-9.46
713.734	-6.46
713.761	-0.46
713.788	-13.46
713.815	10.54
713.842	-6.46
713.869	3.54
713.896	-8.46
713.923	-12.46
713.95	-7.46
713.977	-21.46
714.004	-7.46
714.031	-1.46
714.058	-6.46
714.085	-2.46
714.112	-4.46
714.139	-6.46
714.165	6.54
714.192	3.54
714.219	20.54
714.246	5.54
714.273	-0.46
714.3	-3.46
714.327	6.54
714.354	12.54
714.381	-3.46
714.408	-3.46
714.435	2.54
714.461	-4.46
714.488	15.54
714.515	10.54
714.542	-8.46
714.569	-9.46
714.596	-16.46
714.623	-0.46
714.65	6.54
714.677	7.54
714.703	0.54
714.73	1.54
714.757	2.54
714.784	-7.46
714.811	-15.46
714.838	-5.46
714.865	-16.46
714.891	7.54
714.918	-0.46
714.945	-7.46
714.972	2.54
714.999	12.54
715.026	-0.46
715.052	20.54
715.079	-0.46
715.106	-1.46
715.133	3.54
715.16	-1.46
715.187	24.54
715.213	19.54
715.24	-1.46
715.267	-4.46
715.294	-4.46
715.321	-8.46
715.347	6.54
715.374	1.54
715.401	-3.46
715.428	-3.46
715.455	-0.46
715.481	5.54
715.508	20.54
715.535	1.54
715.562	25.54
715.588	2.54
715.615	4.54
715.642	11.54
715.669	6.54
715.695	-18.46
715.722	3.54
715.749	-3.46
715.776	9.54
715.802	-7.46
715.829	-0.46
715.856	-6.46
715.883	13.54
715.909	1.54
715.936	1.54
715.963	-3.46
715.99	-0.46
716.016	5.54
716.043	-9.46
716.07	-9.46
716.096	-9.46
716.123	3.54
716.15	12.54
716.177	-3.46
716.203	23.54
716.23	19.54
716.257	3.54
716.283	9.54
716.31	3.54
716.337	14.54
716.363	3.54
716.39	1.54
716.417	6.54
716.443	2.54
716.47	5.54
716.497	23.54
716.523	15.54
716.55	2.54
716.577	29.54
716.603	7.54
716.63	10.54
716.657	22.54
716.683	-13.46
716.71	3.54
716.737	-4.46
716.763	-1.46
716.79	3.54
716.817	0.54
716.843	5.54
716.87	0.54
716.897	6.54
716.923	22.54
716.95	-8.46
716.976	-1.46
717.003	-6.46
717.03	0.54
717.056	14.54
717.083	-6.46
717.109	-2.46
717.136	7.54
717.163	0.54
717.189	9.54
717.216	6.54
717.242	-5.46
717.269	2.54
717.296	16.54
717.322	0.54
717.349	15.54
717.375	10.54
717.402	2.54
717.428	8.54
717.455	0.54
717.481	-5.46
717.508	19.54
717.535	8.54
717.561	3.54
717.588	11.54
717.614	7.54
717.641	18.54
717.667	3.54
717.694	0.54
717.72	12.54
717.747	1.54
717.773	-5.46
717.8	11.54
717.826	4.54
717.853	-3.46
717.88	35.54
717.906	1.54
717.933	19.54
717.959	11.54
717.986	-3.46
718.012	14.54
718.039	17.54
718.065	9.54
718.092	18.54
718.118	-11.46
718.144	-4.46
718.171	35.54
718.197	17.54
718.224	-9.46
718.25	4.54
718.277	0.54
718.303	11.54
718.33	6.54
718.356	8.54
718.383	-11.46
718.409	2.54
718.436	-1.46
718.462	-3.46
718.489	11.54
718.515	26.54
718.541	15.54
718.568	8.54
718.594	12.54
718.621	15.54
718.647	-1.46
718.674	14.54
718.7	11.54
718.726	9.54
718.753	0.54
718.779	18.54
718.806	-7.46
718.832	-10.46
718.858	-4.46
718.885	6.54
718.911	10.54
718.938	10.54
718.964	-6.46
718.99	-1.46
719.017	-2.46
719.043	10.54
719.07	8.54
719.096	-0.46
719.122	17.54
719.149	-1.46
719.175	12.54
719.201	15.54
719.228	13.54
719.254	-4.46
719.281	6.54
719.307	-6.46
719.333	-3.46
719.36	-6.46
719.386	-5.46
719.412	1.54
719.439	-3.46
719.465	7.54
719.491	-2.46
719.518	6.54
719.544	10.54
719.57	15.54
719.597	6.54
719.623	-5.46
719.649	12.54
719.675	-1.46
719.702	15.54
719.728	12.54
719.754	-16.46
719.781	-4.46
719.807	1.54
719.833	5.54
719.86	4.54
719.886	2.54
719.912	6.54
719.938	-10.46
719.965	2.54
719.991	9.54
720.017	6.54
720.044	-12.46
720.07	-6.46
720.096	7.54
720.122	-0.46
720.149	14.54
720.175	27.54
720.201	1.54
720.227	-0.46
720.254	19.54
720.28	9.54
720.306	-0.46
720.332	10.54
720.359	10.54
720.385	6.54
720.411	9.54
720.437	9.54
720.463	4.54
720.49	14.54
720.516	1.54
720.542	3.54
720.568	-12.46
720.595	16.54
720.621	3.54
720.647	18.54
720.673	7.54
720.699	-15.46
720.725	-4.46
720.752	19.54
720.778	19.54
720.804	30.54
720.83	17.54
720.856	4.54
720.883	-9.46
720.909	12.54
720.935	10.54
720.961	-1.46
720.987	16.54
721.013	8.54
721.04	1.54
721.066	0.54
721.092	-4.46
721.118	21.54
721.144	2.54
721.17	0.54
721.196	7.54
721.223	-6.46
721.249	-0.46
721.275	23.54
721.301	13.54
721.327	11.54
721.353	4.54
721.379	9.54
721.405	6.54
721.432	23.54
721.458	8.54
721.484	4.54
721.51	-15.46
721.536	8.54
721.562	4.54
721.588	11.54
721.614	-8.46
721.64	-0.46
721.666	10.54
721.693	7.54
721.719	7.54
721.745	-2.46
721.771	4.54
721.797	13.54
721.823	3.54
721.849	10.54
721.875	14.54
721.901	16.54
721.927	1.54
721.953	6.54
721.979	11.54
722.005	9.54
722.031	3.54
722.057	6.54
722.083	12.54
722.109	1.54
722.135	12.54
722.161	15.54
722.187	-0.46
722.214	11.54
722.24	2.54
722.266	18.54
722.292	19.54
722.318	9.54
722.344	1.54
722.37	7.54
722.396	14.54
722.422	2.54
722.448	5.54
722.474	-1.46
722.5	7.54
722.526	17.54
722.552	3.54
722.578	32.54
722.603	19.54
722.629	5.54
722.655	-10.46
722.681	-3.46
722.707	-8.46
722.733	4.54
722.759	2.54
722.785	-3.46
722.811	-4.46
722.837	6.54
722.863	-8.46
722.889	10.54
722.915	15.54
722.941	-7.46
722.967	12.54
722.993	35.54
723.019	6.54
723.045	26.54
723.071	-4.46
723.097	15.54
723.122	0.54
723.148	-6.46
723.174	-0.46
723.2	1.54
723.226	15.54
723.252	-5.46
723.278	-15.46
723.304	-12.46
723.33	17.54
723.356	4.54
723.381	-4.46
723.407	-20.46
723.433	12.54
723.459	-1.46
723.485	-7.46
723.511	15.54
723.537	-13.46
723.563	-13.46
723.588	1.54
723.614	10.54
723.64	9.54
723.666	4.54
723.692	-0.46
723.718	19.54
723.744	6.54
723.769	8.54
723.795	3.54
723.821	7.54
723.847	0.54
723.873	2.54
723.899	10.54
723.924	4.54
723.95	3.54
723.976	-14.46
724.002	-1.46
724.028	18.54
724.053	15.54
724.079	3.54
724.105	-10.46
724.131	-9.46
724.157	-0.46
724.182	8.54
724.208	-1.46
724.234	4.54
724.26	-0.46
724.286	7.54
724.311	-1.46
724.337	-1.46
724.363	-2.46
724.389	7.54
724.415	10.54
724.44	18.54
724.466	10.54
724.492	1.54
724.518	2.54
724.543	-16.46
724.569	-4.46
724.595	-6.46
724.621	3.54
724.646	-1.46
724.672	12.54
724.698	11.54
724.723	-5.46
724.749	-8.46
724.775	18.54
724.801	-1.46
724.826	-8.46
724.852	4.54
724.878	3.54
724.904	-21.46
724.929	1.54
724.955	-21.46
724.981	0.54
725.006	7.54
725.032	2.54
725.058	11.54
725.083	2.54
725.109	-0.46
725.135	14.54
725.161	10.54
725.186	-1.46
725.212	-4.46
725.238	-0.46
725.263	-0.46
725.289	-2.46
725.315	6.54
725.34	-0.46
725.366	-5.46
725.392	-5.46
725.417	-0.46
725.443	-5.46
725.468	16.54
725.494	5.54
725.52	36.54
725.545	9.54
725.571	-5.46
725.597	1.54
725.622	-8.46
725.648	-14.46
725.674	16.54
725.699	6.54
725.725	-7.46
725.75	24.54
725.776	-4.46
725.802	10.54
725.827	7.54
725.853	3.54
725.878	19.54
725.904	10.54
725.93	15.54
725.955	-6.46
725.981	-5.46
726.006	-5.46
726.032	3.54
726.057	-11.46
726.083	-2.46
726.109	-2.46
726.134	-8.46
726.16	-5.46
726.185	-1.46
726.211	-6.46
726.236	14.54
726.262	1.54
726.288	12.54
726.313	9.54
726.339	11.54
726.364	2.54
726.39	3.54
726.415	-9.46
726.441	-5.46
726.466	-7.46
726.492	-9.46
726.517	0.54
726.543	6.54
726.568	-17.46
726.594	-1.46
726.619	-4.46
726.645	11.54
726.67	12.54
726.696	17.54
726.721	-4.46
726.747	-1.46
726.772	0.54
726.798	-4.46
726.823	-6.46
726.849	-3.46
726.874	-8.46
726.9	11.54
726.925	5.54
726.951	-0.46
726.976	22.54
727.002	5.54
727.027	22.54
727.053	26.54
727.078	12.54
727.104	2.54
727.129	-13.46
727.155	-7.46
727.18	7.54
727.205	-4.46
727.231	1.54
727.256	8.54
727.282	9.54
727.307	10.54
727.333	7.54
727.358	-6.46
727.383	-7.46
727.409	-4.46
727.434	16.54
727.46	11.54
727.485	4.54
727.511	11.54
727.536	-8.46
727.561	-0.46
727.587	0.54
727.612	0.54
727.637	7.54
727.663	-5.46
727.688	14.54
727.714	-10.46
727.739	3.54
727.764	8.54
727.79	10.54
727.815	11.54
727.841	10.54
727.866	8.54
727.891	4.54
727.917	-6.46
727.942	-10.46
727.967	2.54
727.993	-12.46
728.018	12.54
728.043	-4.46
728.069	5.54
728.094	12.54
728.119	-2.46
728.145	24.54
728.17	6.54
728.195	-4.46
728.221	0.54
728.246	18.54
728.271	-11.46
728.297	6.54
728.322	-4.46
728.347	-1.46
728.373	3.54
728.398	-0.46
728.423	-3.46
728.448	11.54
728.474	10.54
728.499	-3.46
728.524	-14.46
728.55	3.54
728.575	9.54
728.6	16.54
728.625	-4.46
728.651	23.54
728.676	-0.46
728.701	3.54
728.727	-6.46
728.752	-1.46
728.777	-7.46
728.802	2.54
728.828	-8.46
728.853	-7.46
728.878	-8.46
728.903	-1.46
728.929	-10.46
728.954	-15.46
728.979	11.54
729.004	-5.46
729.03	-6.46
729.055	14.54
729.08	-4.46
729.105	-19.46
729.13	4.54
729.156	11.54
729.181	10.54
729.206	-16.46
729.231	-5.46
729.256	18.54
729.282	15.54
729.307	1.54
729.332	-9.46
729.357	-5.46
729.382	3.54
729.408	1.54
729.433	2.54
729.458	15.54
729.483	8.54
729.508	25.54
729.533	0.54
729.559	1.54
729.584	-12.46
729.609	-10.46
729.634	18.54
729.659	-3.46
729.684	-9.46
729.71	26.54
729.735	18.54
729.76	11.54
729.785	-0.46
729.81	22.54
729.835	5.54
729.86	14.54
729.886	31.54
729.911	25.54
729.936	14.54
729.961	20.54
729.986	22.54
730.011	67.54
730.036	206.54
730.061	983.54
730.086	2686.54
730.112	3419.54
730.137	2856.54
730.162	2143.54
730.187	1643.54
730.212	1268.54
730.237	784.54
730.262	440.54
730.287	242.54
730.312	126.54
730.337	84.54
730.362	70.54
730.387	38.54
730.413	11.54
730.438	14.54
730.463	8.54
730.488	23.54
730.513	15.54
730.538	4.54
730.563	22.54
730.588	30.54
730.613	26.54
730.638	-3.46
730.663	13.54
730.688	17.54
730.713	2.54
730.738	0.54
730.763	5.54
730.788	-7.46
730.813	12.54
730.838	18.54
730.863	7.54
730.888	-5.46
730.913	-7.46
730.938	-3.46
730.963	29.54
730.988	116.54
731.013	379.54
731.038	609.54
731.063	599.54
731.088	455.54
731.113	364.54
731.138	271.54
731.163	204.54
731.188	115.54
731.213	67.54
731.238	54.54
731.263	15.54
731.288	11.54
731.313	36.54
731.338	3.54
731.363	2.54
731.388	-1.46
731.413	-4.46
731.438	16.54
731.463	22.54
731.487	19.54
731.512	-5.46
731.537	-3.46
731.562	3.54
731.587	3.54
731.612	-5.46
731.637	3.54
731.662	5.54
731.687	4.54
731.712	0.54
731.737	-0.46
731.762	13.54
731.786	19.54
731.811	6.54
731.836	18.54
731.861	7.54
731.886	-5.46
731.911	3.54
731.936	13.54
731.961	-4.46
731.986	-4.46
732.01	2.54
732.035	9.54
732.06	2.54
732.085	-0.46
732.11	1.54
732.135	-5.46
732.16	11.54
732.184	2.54
732.209	-1.46
732.234	-0.46
732.259	-11.46
732.284	9.54
732.309	-4.46
732.334	1.54
732.358	-10.46
732.383	-12.46
732.408	0.54
732.433	2.54
732.458	-8.46
732.482	9.54
732.507	8.54
732.532	10.54
732.557	30.54
732.582	11.54
732.607	17.54
732.631	49.54
732.656	76.54
732.681	136.54
732.706	325.54
732.73	458.54
732.755	384.54
732.78	311.54
732.805	238.54
732.83	188.54
732.854	128.54
732.879	80.54
732.904	49.54
732.929	19.54
732.953	26.54
732.978	11.54
733.003	6.54
733.028	1.54
733.052	24.54
733.077	2.54
733.102	15.54
733.127	4.54
733.151	-1.46
733.176	12.54
733.201	20.54
733.226	3.54
733.25	4.54
733.275	-3.46
733.3	-9.46
733.324	9.54
733.349	3.54
733.374	8.54
733.399	-7.46
733.423	14.54
733.448	-8.46
733.473	-14.46
733.497	-9.46
733.522	2.54
733.547	3.54
733.571	-0.46
733.596	-5.46
733.621	2.54
733.646	-3.46
733.67	7.54
733.695	-3.46
733.72	3.54
733.744	6.54
733.769	0.54
733.794	26.54
733.818	8.54
733.843	-3.46
733.867	-4.46
733.892	5.54
733.917	7.54
733.941	-1.46
733.966	-9.46
733.991	-7.46
734.015	11.54
734.04	7.54
734.065	20.54
734.089	15.54
734.114	8.54
734.138	5.54
734.163	9.54
734.188	1.54
734.212	15.54
734.237	23.54
734.261	13.54
734.286	1.54
734.311	-1.46
734.335	-5.46
734.36	-3.46
734.384	-1.46
734.409	0.54
734.434	-3.46
734.458	7.54
734.483	-1.46
734.507	-5.46
734.532	-3.46
734.556	3.54
734.581	4.54
734.606	-4.46
734.63	-9.46
734.655	5.54
734.679	10.54
734.704	8.54
734.728	10.54
734.753	11.54
734.777	-12.46
734.802	8.54
734.826	2.54
734.851	-2.46
734.876	5.54
734.9	3.54
734.925	6.54
734.949	2.54
734.974	-0.46
734.998	4.54
735.023	-7.46
735.047	-11.46
735.072	21.54
735.096	3.54
735.121	8.54
735.145	10.54
735.17	-8.46
735.194	19.54
735.219	4.54
735.243	-0.46
735.268	9.54
735.292	-4.46
735.317	15.54
735.341	-1.46
735.365	-9.46
735.39	8.54
735.414	5.54
735.439	11.54
735.463	-7.46
735.488	11.54
735.512	9.54
735.537	6.54
735.561	10.54
735.586	4.54
735.61	7.54
735.634	5.54
735.659	9.54
735.683	17.54
735.708	-0.46
735.732	-4.46
735.757	-3.46
735.781	4.54
735.805	7.54
735.83	-3.46
735.854	1.54
735.879	6.54
735.903	7.54
735.927	8.54
735.952	-0.46
735.976	-2.46
736.001	2.54
736.025	-1.46
736.049	4.54
736.074	-1.46
736.098	-1.46
736.123	10.54
736.147	20.54
736.171	15.54
736.196	12.54
736.22	-0.46
736.244	-5.46
736.269	9.54
736.293	-4.46
736.317	12.54
736.342	16.54
736.366	21.54
736.39	34.54
736.415	4.54
736.439	5.54
736.463	0.54
736.488	-4.46
736.512	1.54
736.536	-5.46
736.561	10.54
736.585	-0.46
736.609	10.54
736.634	-7.46
736.658	5.54
736.682	-15.46
736.707	-11.46
736.731	-1.46
736.755	10.54
736.78	7.54
736.804	0.54
736.828	3.54
736.852	2.54
736.877	-0.46
736.901	2.54
736.925	12.54
736.949	3.54
736.974	-7.46
736.998	-18.46
737.022	18.54
737.047	-10.46
737.071	-1.46
737.095	15.54
737.119	26.54
737.144	15.54
737.168	-1.46
737.192	-12.46
737.216	10.54
737.241	3.54
737.265	0.54
737.289	1.54
737.313	8.54
737.337	-1.46
737.362	7.54
737.386	0.54
737.41	-3.46
737.434	19.54
737.459	3.54
737.483	7.54
737.507	8.54
737.531	-0.46
737.555	9.54
737.58	14.54
737.604	16.54
737.628	2.54
737.652	-8.46
737.676	3.54
737.701	0.54
737.725	2.54
737.749	14.54
737.773	7.54
737.797	4.54
737.821	2.54
737.846	-1.46
737.87	21.54
737.894	11.54
737.918	-0.46
737.942	-1.46
737.966	1.54
737.99	10.54
738.015	5.54
738.039	18.54
738.063	14.54
738.087	17.54
738.111	-4.46
738.135	19.54
738.159	2.54
738.184	18.54
738.208	10.54
738.232	1.54
738.256	30.54
738.28	23.54
738.304	19.54
738.328	5.54
738.352	2.54
738.376	0.54
738.4	21.54
738.425	16.54
738.449	6.54
738.473	22.54
738.497	8.54
738.521	20.54
738.545	23.54
738.569	11.54
738.593	20.54
738.617	8.54
738.641	7.54
738.665	7.54
738.689	6.54
738.713	6.54
738.737	16.54
738.762	9.54
738.786	14.54
738.81	-7.46
738.834	28.54
738.858	0.54
738.882	3.54
738.906	-5.46
738.93	-1.46
738.954	-1.46
738.978	11.54
739.002	-12.46
739.026	14.54
739.05	0.54
739.074	-8.46
739.098	16.54
739.122	27.54
739.146	1.54
739.17	4.54
739.194	16.54
739.218	-16.46
739.242	-3.46
739.266	-11.46
739.29	-5.46
739.314	10.54
739.338	7.54
739.362	5.54
739.386	-9.46
739.41	-1.46
739.434	-0.46
739.458	32.54
739.482	12.54
739.506	0.54
739.53	-12.46
739.554	9.54
739.577	-3.46
739.601	11.54
739.625	-5.46
739.649	-1.46
739.673	-2.46
739.697	8.54
739.721	1.54
739.745	19.54
739.769	10.54
739.793	11.54
739.817	8.54
739.841	-11.46
739.865	7.54
739.889	-4.46
739.912	9.54
739.936	-1.46
739.96	3.54
739.984	18.54
740.008	-1.46
740.032	-7.46
740.056	5.54
740.08	2.54
740.104	-6.46
740.127	18.54
740.151	15.54
740.175	15.54
740.199	12.54
740.223	36.54
740.247	7.54
740.271	2.54
740.295	6.54
740.318	8.54
740.342	-13.46
740.366	-0.46
740.39	2.54
740.414	-11.46
740.438	-7.46
740.461	19.54
740.485	10.54
740.509	-12.46
740.533	7.54
740.557	5.54
740.581	8.54
740.604	-13.46
740.628	-1.46
740.652	2.54
740.676	-0.46
740.7	23.54
740.723	3.54
740.747	12.54
740.771	6.54
740.795	3.54
740.819	31.54
740.842	0.54
740.866	2.54
740.89	7.54
740.914	-5.46
740.938	-14.46
740.961	30.54
740.985	25.54
741.009	-9.46
741.033	12.54
741.056	8.54
741.08	9.54
741.104	-6.46
741.128	-3.46
741.151	10.54
741.175	4.54
741.199	19.54
741.223	29.54
741.246	-13.46
741.27	23.54
741.294	12.54
741.318	6.54
741.341	13.54
741.365	17.54
741.389	3.54
741.413	15.54
741.436	23.54
741.46	2.54
741.484	23.54
741.507	10.54
741.531	36.54
741.555	20.54
741.579	6.54
741.602	5.54
741.626	10.54
741.65	-7.46
741.673	11.54
741.697	10.54
741.721	-1.46
741.744	-4.46
741.768	-5.46
741.792	11.54
741.815	2.54
741.839	6.54
741.863	20.54
741.886	22.54
741.91	6.54
741.934	2.54
741.957	-5.46
741.981	21.54
742.005	4.54
742.028	-0.46
742.052	-3.46
742.075	15.54
742.099	34.54
742.123	10.54
742.146	-11.46
742.17	3.54
742.194	-11.46
742.217	-8.46
742.241	0.54
742.264	9.54
742.288	17.54
742.312	3.54
742.335	10.54
742.359	4.54
742.382	22.54
742.406	23.54
742.43	3.54
742.453	10.54
742.477	-19.46
742.5	-1.46
742.524	-1.46
742.548	-19.46
742.571	5.54
742.595	-9.46
742.618	-10.46
742.642	-6.46
742.665	16.54
742.689	-6.46
742.712	16.54
742.736	2.54
742.76	23.54
742.783	14.54
742.807	13.54
742.83	4.54
742.854	1.54
742.877	-6.46
742.901	-2.46
742.924	-5.46
742.948	3.54
742.971	14.54
742.995	3.54
743.018	-9.46
743.042	-13.46
743.065	3.54
743.089	-11.46
743.112	-6.46
743.136	-11.46
743.159	-7.46
743.183	2.54
743.206	10.54
743.23	9.54
743.253	10.54
743.277	-3.46
743.3	8.54
743.324	8.54
743.347	-3.46
743.371	19.54
743.394	18.54
743.418	13.54
743.441	15.54
743.465	10.54
743.488	7.54
743.512	-9.46
743.535	-2.46
743.558	-0.46
743.582	-1.46
743.605	12.54
743.629	21.54
743.652	31.54
743.676	1.54
743.699	10.54
743.723	20.54
743.746	8.54
743.769	-0.46
743.793	-3.46
743.816	-9.46
743.84	19.54
743.863	-15.46
743.886	-6.46
743.91	8.54
743.933	7.54
743.957	13.54
743.98	-10.46
744.003	11.54
744.027	1.54
744.05	-4.46
744.074	5.54
744.097	2.54
744.12	-2.46
744.144	-3.46
744.167	2.54
744.19	-0.46
744.214	0.54
744.237	12.54
744.26	17.54
744.284	-3.46
744.307	-5.46
744.331	-1.46
744.354	-3.46
744.377	-8.46
744.401	-3.46
744.424	-5.46
744.447	-17.46
744.471	-16.46
