Data from HighRes_mercury_15_13_11_07_2024_HR4C61891__3__15-14-23-486.txt Node

Date: Thu Nov 07 15:14:23 EST 2024
User: crc00042
Spectrometer: HR4C6189
Trigger mode: 4
Integration Time (sec): 1.000000E-1
Scans to average: 1
Electric dark correction enabled: true
Nonlinearity correction enabled: false
Boxcar width: 0
XAxis mode: Wavelengths
Number of Pixels in Spectrum: 3648
>>>>>Begin Spectral Data<<<<<
639.567	-58.15
639.602	-58.15
639.636	-58.15
639.67	-51.15
639.704	-7.15
639.738	0.85
639.773	18.85
639.807	-5.15
639.841	1.85
639.875	12.85
639.909	-20.15
639.943	-20.15
639.978	-2.15
640.012	12.85
640.046	16.85
640.08	-2.15
640.114	-7.15
640.148	-7.15
640.182	-0.15
640.217	1.85
640.251	17.85
640.285	6.85
640.319	-4.15
640.353	-2.15
640.387	-0.15
640.421	0.85
640.455	-12.15
640.49	-4.15
640.524	1.85
640.558	17.85
640.592	5.85
640.626	-19.15
640.66	13.85
640.694	-5.15
640.728	-8.15
640.762	0.85
640.796	19.85
640.83	14.85
640.865	-17.15
640.899	-6.15
640.933	10.85
640.967	-7.15
641.001	7.85
641.035	8.85
641.069	-4.15
641.103	1.85
641.137	-6.15
641.171	-3.15
641.205	3.85
641.239	10.85
641.273	13.85
641.307	9.85
641.341	-0.15
641.375	11.85
641.409	2.85
641.443	1.85
641.477	-8.15
641.511	11.85
641.545	-4.15
641.579	-3.15
641.614	12.85
641.648	-2.15
641.682	-9.15
641.716	13.85
641.75	6.85
641.784	-13.15
641.818	-0.15
641.852	8.85
641.886	-7.15
641.919	22.85
641.953	5.85
641.987	-14.15
642.021	-0.15
642.055	13.85
642.089	10.85
642.123	1.85
642.157	-9.15
642.191	-5.15
642.225	-4.15
642.259	11.85
642.293	11.85
642.327	1.85
642.361	-3.15
642.395	5.85
642.429	9.85
642.463	-0.15
642.497	15.85
642.531	1.85
642.565	-9.15
642.599	19.85
642.633	-18.15
642.666	4.85
642.7	-7.15
642.734	12.85
642.768	-1.15
642.802	4.85
642.836	11.85
642.87	1.85
642.904	10.85
642.938	22.85
642.972	-9.15
643.005	-5.15
643.039	-0.15
643.073	1.85
643.107	2.85
643.141	-1.15
643.175	-3.15
643.209	-1.15
643.243	-3.15
643.276	-11.15
643.31	-14.15
643.344	-12.15
643.378	-3.15
643.412	17.85
643.446	1.85
643.48	-8.15
643.513	11.85
643.547	-5.15
643.581	-6.15
643.615	21.85
643.649	10.85
643.683	-0.15
643.716	-10.15
643.75	6.85
643.784	-10.15
643.818	8.85
643.852	-10.15
643.886	-10.15
643.919	7.85
643.953	1.85
643.987	14.85
644.021	2.85
644.055	2.85
644.088	-13.15
644.122	-0.15
644.156	2.85
644.19	1.85
644.224	5.85
644.257	14.85
644.291	1.85
644.325	-0.15
644.359	20.85
644.392	10.85
644.426	12.85
644.46	-0.15
644.494	-16.15
644.527	-19.15
644.561	3.85
644.595	4.85
644.629	-21.15
644.662	-17.15
644.696	5.85
644.73	15.85
644.764	6.85
644.797	-0.15
644.831	-8.15
644.865	11.85
644.899	6.85
644.932	22.85
644.966	16.85
645	12.85
645.033	24.85
645.067	2.85
645.101	15.85
645.135	7.85
645.168	-7.15
645.202	0.85
645.236	5.85
645.269	8.85
645.303	-3.15
645.337	-16.15
645.37	2.85
645.404	-4.15
645.438	12.85
645.471	-1.15
645.505	-4.15
645.539	1.85
645.572	-0.15
645.606	-14.15
645.64	-4.15
645.673	-2.15
645.707	7.85
645.741	-16.15
645.774	-2.15
645.808	1.85
645.842	-5.15
645.875	-5.15
645.909	-10.15
645.943	-9.15
645.976	14.85
646.01	10.85
646.043	6.85
646.077	-2.15
646.111	11.85
646.144	5.85
646.178	12.85
646.212	-3.15
646.245	-7.15
646.279	13.85
646.312	4.85
646.346	14.85
646.38	9.85
646.413	5.85
646.447	14.85
646.48	-8.15
646.514	4.85
646.547	1.85
646.581	-7.15
646.615	1.85
646.648	-5.15
646.682	10.85
646.715	-4.15
646.749	0.85
646.782	4.85
646.816	-7.15
646.85	19.85
646.883	-4.15
646.917	-9.15
646.95	4.85
646.984	1.85
647.017	3.85
647.051	13.85
647.084	6.85
647.118	-8.15
647.151	-5.15
647.185	-3.15
647.218	-2.15
647.252	8.85
647.285	4.85
647.319	1.85
647.353	0.85
647.386	16.85
647.42	0.85
647.453	-12.15
647.487	4.85
647.52	3.85
647.553	25.85
647.587	8.85
647.62	3.85
647.654	-4.15
647.687	1.85
647.721	14.85
647.754	-0.15
647.788	2.85
647.821	-7.15
647.855	0.85
647.888	7.85
647.922	22.85
647.955	-5.15
647.989	-6.15
648.022	-1.15
648.055	5.85
648.089	-17.15
648.122	23.85
648.156	7.85
648.189	8.85
648.223	13.85
648.256	10.85
648.29	5.85
648.323	0.85
648.356	6.85
648.39	11.85
648.423	1.85
648.457	-14.15
648.49	-7.15
648.523	-6.15
648.557	4.85
648.59	-4.15
648.624	4.85
648.657	5.85
648.69	20.85
648.724	7.85
648.757	13.85
648.791	7.85
648.824	4.85
648.857	23.85
648.891	24.85
648.924	0.85
648.957	14.85
648.991	-7.15
649.024	15.85
649.057	4.85
649.091	-13.15
649.124	13.85
649.158	11.85
649.191	14.85
649.224	3.85
649.258	-7.15
649.291	13.85
649.324	15.85
649.358	10.85
649.391	14.85
649.424	3.85
649.458	12.85
649.491	-0.15
649.524	3.85
649.557	-14.15
649.591	-7.15
649.624	21.85
649.657	-1.15
649.691	-1.15
649.724	4.85
649.757	-9.15
649.791	-30.15
649.824	6.85
649.857	17.85
649.89	2.85
649.924	-20.15
649.957	-3.15
649.99	-18.15
650.023	-2.15
650.057	1.85
650.09	-0.15
650.123	-14.15
650.157	4.85
650.19	13.85
650.223	-9.15
650.256	1.85
650.29	-15.15
650.323	-2.15
650.356	18.85
650.389	1.85
650.423	2.85
650.456	1.85
650.489	4.85
650.522	9.85
650.555	31.85
650.589	16.85
650.622	-0.15
650.655	9.85
650.688	11.85
650.721	5.85
650.755	0.85
650.788	8.85
650.821	3.85
650.854	11.85
650.887	0.85
650.921	-8.15
650.954	-13.15
650.987	-2.15
651.02	-2.15
651.053	-6.15
651.087	-10.15
651.12	12.85
651.153	9.85
651.186	-2.15
651.219	-18.15
651.252	-12.15
651.286	4.85
651.319	-10.15
651.352	23.85
651.385	5.85
651.418	11.85
651.451	18.85
651.484	4.85
651.518	-0.15
651.551	5.85
651.584	-9.15
651.617	5.85
651.65	-3.15
651.683	-9.15
651.716	4.85
651.749	-14.15
651.783	2.85
651.816	-6.15
651.849	18.85
651.882	-5.15
651.915	-0.15
651.948	1.85
651.981	-9.15
652.014	-7.15
652.047	4.85
652.08	-7.15
652.114	-4.15
652.147	-15.15
652.18	-1.15
652.213	21.85
652.246	0.85
652.279	0.85
652.312	17.85
652.345	1.85
652.378	11.85
652.411	14.85
652.444	25.85
652.477	-0.15
652.51	-3.15
652.543	-27.15
652.576	-1.15
652.609	-1.15
652.642	-5.15
652.675	7.85
652.709	10.85
652.742	0.85
652.775	-8.15
652.808	17.85
652.841	-7.15
652.874	9.85
652.907	-7.15
652.94	-1.15
652.973	-20.15
653.006	-13.15
653.039	-4.15
653.072	-5.15
653.105	11.85
653.138	-6.15
653.171	10.85
653.204	-6.15
653.237	-1.15
653.27	12.85
653.303	4.85
653.336	-15.15
653.368	-4.15
653.401	1.85
653.434	-10.15
653.467	7.85
653.5	-11.15
653.533	0.85
653.566	-0.15
653.599	5.85
653.632	1.85
653.665	-0.15
653.698	-17.15
653.731	-5.15
653.764	4.85
653.797	-1.15
653.83	9.85
653.863	13.85
653.896	4.85
653.929	9.85
653.961	6.85
653.994	4.85
654.027	-10.15
654.06	4.85
654.093	2.85
654.126	-5.15
654.159	9.85
654.192	-1.15
654.225	-5.15
654.258	-2.15
654.29	8.85
654.323	-0.15
654.356	-0.15
654.389	5.85
654.422	-5.15
654.455	-14.15
654.488	-3.15
654.521	-9.15
654.553	-7.15
654.586	16.85
654.619	12.85
654.652	3.85
654.685	-3.15
654.718	14.85
654.751	9.85
654.783	-8.15
654.816	5.85
654.849	-8.15
654.882	-13.15
654.915	-21.15
654.948	-0.15
654.98	-10.15
655.013	-18.15
655.046	-1.15
655.079	-4.15
655.112	9.85
655.144	-5.15
655.177	-2.15
655.21	-0.15
655.243	13.85
655.276	11.85
655.308	-5.15
655.341	-9.15
655.374	6.85
655.407	-8.15
655.44	3.85
655.472	3.85
655.505	-22.15
655.538	-3.15
655.571	17.85
655.603	5.85
655.636	-4.15
655.669	-0.15
655.702	1.85
655.734	1.85
655.767	2.85
655.8	9.85
655.833	-10.15
655.865	5.85
655.898	-9.15
655.931	2.85
655.964	7.85
655.996	-2.15
656.029	1.85
656.062	-5.15
656.095	1.85
656.127	-15.15
656.16	-6.15
656.193	-1.15
656.225	13.85
656.258	4.85
656.291	11.85
656.324	-4.15
656.356	0.85
656.389	-5.15
656.422	-7.15
656.454	-18.15
656.487	0.85
656.52	6.85
656.552	1.85
656.585	2.85
656.618	7.85
656.65	9.85
656.683	5.85
656.716	5.85
656.748	-0.15
656.781	-8.15
656.814	-5.15
656.846	-3.15
656.879	9.85
656.912	5.85
656.944	-2.15
656.977	0.85
657.01	8.85
657.042	2.85
657.075	15.85
657.108	1.85
657.14	-10.15
657.173	13.85
657.205	37.85
657.238	13.85
657.271	-9.15
657.303	-4.15
657.336	-1.15
657.369	-4.15
657.401	-2.15
657.434	-13.15
657.466	-0.15
657.499	1.85
657.532	10.85
657.564	6.85
657.597	-0.15
657.629	-3.15
657.662	8.85
657.694	5.85
657.727	-15.15
657.76	3.85
657.792	-7.15
657.825	-14.15
657.857	-7.15
657.89	-3.15
657.922	6.85
657.955	-16.15
657.987	7.85
658.02	6.85
658.053	8.85
658.085	-5.15
658.118	26.85
658.15	8.85
658.183	7.85
658.215	5.85
658.248	2.85
658.28	2.85
658.313	22.85
658.345	13.85
658.378	-1.15
658.41	-0.15
658.443	14.85
658.475	-5.15
658.508	-10.15
658.54	-9.15
658.573	-7.15
658.605	13.85
658.638	-4.15
658.67	5.85
658.703	5.85
658.735	-6.15
658.768	1.85
658.8	-9.15
658.833	10.85
658.865	5.85
658.898	0.85
658.93	-5.15
658.963	4.85
658.995	5.85
659.028	-4.15
659.06	-5.15
659.092	-14.15
659.125	-4.15
659.157	9.85
659.19	3.85
659.222	-6.15
659.255	10.85
659.287	0.85
659.32	-1.15
659.352	8.85
659.384	21.85
659.417	4.85
659.449	11.85
659.482	14.85
659.514	6.85
659.546	-9.15
659.579	-2.15
659.611	1.85
659.644	0.85
659.676	-18.15
659.708	-6.15
659.741	0.85
659.773	-2.15
659.806	-6.15
659.838	8.85
659.87	0.85
659.903	-13.15
659.935	16.85
659.967	8.85
660	1.85
660.032	-12.15
660.065	14.85
660.097	-12.15
660.129	-0.15
660.162	-3.15
660.194	12.85
660.226	11.85
660.259	0.85
660.291	-6.15
660.323	-20.15
660.356	5.85
660.388	-1.15
660.42	-12.15
660.453	-0.15
660.485	0.85
660.517	5.85
660.55	9.85
660.582	3.85
660.614	21.85
660.647	5.85
660.679	-13.15
660.711	8.85
660.743	-1.15
660.776	-31.15
660.808	-7.15
660.84	2.85
660.873	-5.15
660.905	-5.15
660.937	6.85
660.969	2.85
661.002	-4.15
661.034	5.85
661.066	-1.15
661.099	5.85
661.131	0.85
661.163	-3.15
661.195	-0.15
661.228	9.85
661.26	-11.15
661.292	-16.15
661.324	-2.15
661.357	11.85
661.389	3.85
661.421	-3.15
661.453	-8.15
661.485	3.85
661.518	2.85
661.55	-26.15
661.582	-19.15
661.614	3.85
661.647	14.85
661.679	-6.15
661.711	-2.15
661.743	-1.15
661.775	3.85
661.808	22.85
661.84	-12.15
661.872	-0.15
661.904	-9.15
661.936	-11.15
661.969	-9.15
662.001	8.85
662.033	7.85
662.065	-4.15
662.097	-6.15
662.129	-1.15
662.162	-11.15
662.194	6.85
662.226	-5.15
662.258	-8.15
662.29	4.85
662.322	-4.15
662.355	-22.15
662.387	11.85
662.419	8.85
662.451	15.85
662.483	14.85
662.515	-13.15
662.547	-9.15
662.58	-16.15
662.612	-21.15
662.644	-5.15
662.676	20.85
662.708	16.85
662.74	0.85
662.772	5.85
662.804	7.85
662.836	16.85
662.869	-22.15
662.901	6.85
662.933	0.85
662.965	4.85
662.997	-0.15
663.029	1.85
663.061	-9.15
663.093	-4.15
663.125	-10.15
663.157	-3.15
663.189	1.85
663.221	7.85
663.254	21.85
663.286	1.85
663.318	-10.15
663.35	-5.15
663.382	-18.15
663.414	13.85
663.446	2.85
663.478	8.85
663.51	8.85
663.542	-6.15
663.574	21.85
663.606	9.85
663.638	-23.15
663.67	6.85
663.702	-9.15
663.734	12.85
663.766	-3.15
663.798	-13.15
663.83	1.85
663.862	27.85
663.894	11.85
663.926	-6.15
663.958	18.85
663.99	7.85
664.022	-2.15
664.054	17.85
664.086	0.85
664.118	-19.15
664.15	-3.15
664.182	7.85
664.214	0.85
664.246	27.85
664.278	6.85
664.31	9.85
664.342	3.85
664.374	-16.15
664.406	-3.15
664.438	-1.15
664.47	26.85
664.502	-14.15
664.534	3.85
664.566	-5.15
664.598	-5.15
664.63	-17.15
664.662	7.85
664.693	17.85
664.725	3.85
664.757	-5.15
664.789	-16.15
664.821	-10.15
664.853	0.85
664.885	9.85
664.917	3.85
664.949	21.85
664.981	18.85
665.013	2.85
665.045	-5.15
665.076	1.85
665.108	-2.15
665.14	1.85
665.172	-0.15
665.204	4.85
665.236	-8.15
665.268	18.85
665.3	-0.15
665.331	-12.15
665.363	1.85
665.395	-19.15
665.427	-5.15
665.459	16.85
665.491	-13.15
665.523	-8.15
665.555	4.85
665.586	15.85
665.618	-1.15
665.65	4.85
665.682	7.85
665.714	0.85
665.746	2.85
665.777	3.85
665.809	-18.15
665.841	-0.15
665.873	-15.15
665.905	-24.15
665.937	-1.15
665.968	-7.15
666	2.85
666.032	4.85
666.064	-0.15
666.096	11.85
666.127	15.85
666.159	17.85
666.191	13.85
666.223	8.85
666.255	23.85
666.286	13.85
666.318	-5.15
666.35	6.85
666.382	3.85
666.413	-6.15
666.445	-19.15
666.477	-16.15
666.509	-10.15
666.54	1.85
666.572	-3.15
666.604	1.85
666.636	8.85
666.667	20.85
666.699	21.85
666.731	0.85
666.763	3.85
666.794	-1.15
666.826	26.85
666.858	-5.15
666.89	8.85
666.921	3.85
666.953	1.85
666.985	16.85
667.017	24.85
667.048	2.85
667.08	8.85
667.112	4.85
667.143	-18.15
667.175	5.85
667.207	-16.15
667.238	1.85
667.27	4.85
667.302	8.85
667.334	1.85
667.365	26.85
667.397	3.85
667.429	-5.15
667.46	19.85
667.492	10.85
667.524	0.85
667.555	-13.15
667.587	-0.15
667.619	4.85
667.65	-8.15
667.682	-7.15
667.714	15.85
667.745	9.85
667.777	5.85
667.808	18.85
667.84	12.85
667.872	4.85
667.903	16.85
667.935	8.85
667.967	5.85
667.998	19.85
668.03	2.85
668.061	4.85
668.093	5.85
668.125	-0.15
668.156	14.85
668.188	-6.15
668.22	-4.15
668.251	9.85
668.283	8.85
668.314	-2.15
668.346	-10.15
668.377	8.85
668.409	21.85
668.441	19.85
668.472	9.85
668.504	6.85
668.535	13.85
668.567	11.85
668.599	13.85
668.63	-5.15
668.662	15.85
668.693	18.85
668.725	-0.15
668.756	8.85
668.788	1.85
668.819	-1.15
668.851	6.85
668.882	0.85
668.914	4.85
668.946	-10.15
668.977	-1.15
669.009	-7.15
669.04	-15.15
669.072	12.85
669.103	6.85
669.135	13.85
669.166	15.85
669.198	0.85
669.229	15.85
669.261	6.85
669.292	13.85
669.324	8.85
669.355	2.85
669.387	-10.15
669.418	1.85
669.45	-10.15
669.481	3.85
669.513	24.85
669.544	21.85
669.576	13.85
669.607	24.85
669.639	28.85
669.67	-22.15
669.701	10.85
669.733	-0.15
669.764	-3.15
669.796	-1.15
669.827	-6.15
669.859	-9.15
669.89	-6.15
669.922	-0.15
669.953	10.85
669.985	-7.15
670.016	13.85
670.047	11.85
670.079	-14.15
670.11	-4.15
670.142	-2.15
670.173	-4.15
670.204	-9.15
670.236	3.85
670.267	-6.15
670.299	1.85
670.33	5.85
670.362	9.85
670.393	-13.15
670.424	5.85
670.456	-10.15
670.487	-0.15
670.518	0.85
670.55	0.85
670.581	2.85
670.613	1.85
670.644	-12.15
670.675	-4.15
670.707	6.85
670.738	2.85
670.769	11.85
670.801	-1.15
670.832	5.85
670.864	-6.15
670.895	-2.15
670.926	-9.15
670.958	5.85
670.989	-7.15
671.02	-5.15
671.052	-6.15
671.083	10.85
671.114	5.85
671.146	1.85
671.177	-8.15
671.208	-16.15
671.24	-0.15
671.271	5.85
671.302	7.85
671.333	-11.15
671.365	-7.15
671.396	-8.15
671.427	8.85
671.459	13.85
671.49	0.85
671.521	0.85
671.553	-2.15
671.584	13.85
671.615	-11.15
671.646	6.85
671.678	5.85
671.709	0.85
671.74	-11.15
671.771	1.85
671.803	-3.15
671.834	-1.15
671.865	-3.15
671.896	5.85
671.928	-0.15
671.959	-10.15
671.99	-2.15
672.021	-5.15
672.053	-12.15
672.084	-2.15
672.115	6.85
672.146	-11.15
672.178	-21.15
672.209	-0.15
672.24	9.85
672.271	17.85
672.303	8.85
672.334	24.85
672.365	13.85
672.396	2.85
672.427	4.85
672.459	13.85
672.49	24.85
672.521	5.85
672.552	2.85
672.583	5.85
672.615	-6.15
672.646	19.85
672.677	4.85
672.708	6.85
672.739	-5.15
672.77	2.85
672.802	4.85
672.833	-4.15
672.864	-10.15
672.895	-6.15
672.926	-5.15
672.957	-18.15
672.989	-10.15
673.02	-1.15
673.051	-6.15
673.082	3.85
673.113	-9.15
673.144	12.85
673.175	1.85
673.206	0.85
673.238	3.85
673.269	8.85
673.3	-6.15
673.331	16.85
673.362	-7.15
673.393	4.85
673.424	12.85
673.455	31.85
673.487	3.85
673.518	3.85
673.549	-4.15
673.58	-10.15
673.611	-16.15
673.642	1.85
673.673	-9.15
673.704	1.85
673.735	-1.15
673.766	-12.15
673.797	-10.15
673.828	-3.15
673.86	-3.15
673.891	-7.15
673.922	-9.15
673.953	-15.15
673.984	11.85
674.015	-3.15
674.046	-1.15
674.077	9.85
674.108	-13.15
674.139	-17.15
674.17	-10.15
674.201	-18.15
674.232	-1.15
674.263	-15.15
674.294	2.85
674.325	-2.15
674.356	-2.15
674.387	14.85
674.418	-0.15
674.449	-22.15
674.48	-5.15
674.511	-3.15
674.542	12.85
674.573	-11.15
674.604	8.85
674.635	-3.15
674.666	3.85
674.697	16.85
674.728	12.85
674.759	6.85
674.79	-16.15
674.821	-22.15
674.852	6.85
674.883	-10.15
674.914	-12.15
674.945	-8.15
674.976	12.85
675.007	1.85
675.038	-23.15
675.069	-11.15
675.1	1.85
675.131	-14.15
675.162	-5.15
675.193	-0.15
675.224	7.85
675.254	13.85
675.285	0.85
675.316	13.85
675.347	4.85
675.378	-13.15
675.409	-2.15
675.44	15.85
675.471	14.85
675.502	-18.15
675.533	-8.15
675.564	-2.15
675.595	4.85
675.625	-0.15
675.656	3.85
675.687	5.85
675.718	-15.15
675.749	5.85
675.78	-10.15
675.811	-10.15
675.842	15.85
675.873	1.85
675.903	-10.15
675.934	-0.15
675.965	0.85
675.996	1.85
676.027	1.85
676.058	-9.15
676.089	-14.15
676.119	2.85
676.15	-8.15
676.181	-11.15
676.212	-4.15
676.243	18.85
676.274	5.85
676.304	31.85
676.335	-4.15
676.366	-14.15
676.397	-12.15
676.428	10.85
676.459	10.85
676.489	18.85
676.52	16.85
676.551	4.85
676.582	-10.15
676.613	9.85
676.643	-8.15
676.674	4.85
676.705	-10.15
676.736	0.85
676.767	2.85
676.797	3.85
676.828	-2.15
676.859	-7.15
676.89	-12.15
676.92	-17.15
676.951	-6.15
676.982	11.85
677.013	4.85
677.044	9.85
677.074	25.85
677.105	-4.15
677.136	5.85
677.167	2.85
677.197	7.85
677.228	0.85
677.259	-9.15
677.289	-5.15
677.32	-12.15
677.351	-2.15
677.382	1.85
677.412	-3.15
677.443	6.85
677.474	13.85
677.505	1.85
677.535	-17.15
677.566	1.85
677.597	-19.15
677.627	-15.15
677.658	-6.15
677.689	-8.15
677.72	3.85
677.75	3.85
677.781	-1.15
677.812	-10.15
677.842	1.85
677.873	4.85
677.904	-13.15
677.934	2.85
677.965	-0.15
677.996	-12.15
678.026	0.85
678.057	1.85
678.088	-20.15
678.118	1.85
678.149	-0.15
678.18	-4.15
678.21	0.85
678.241	1.85
678.272	3.85
678.302	-10.15
678.333	-9.15
678.363	-3.15
678.394	0.85
678.425	-5.15
678.455	10.85
678.486	7.85
678.517	-1.15
678.547	0.85
678.578	-25.15
678.608	-15.15
678.639	-4.15
678.67	3.85
678.7	-10.15
678.731	-19.15
678.761	0.85
678.792	3.85
678.823	9.85
678.853	13.85
678.884	-7.15
678.914	9.85
678.945	15.85
678.975	-10.15
679.006	2.85
679.037	-5.15
679.067	31.85
679.098	10.85
679.128	6.85
679.159	-7.15
679.189	21.85
679.22	10.85
679.25	8.85
679.281	14.85
679.312	-1.15
679.342	-7.15
679.373	25.85
679.403	-13.15
679.434	6.85
679.464	1.85
679.495	7.85
679.525	0.85
679.556	-5.15
679.586	13.85
679.617	12.85
679.647	-9.15
679.678	-10.15
679.708	-5.15
679.739	3.85
679.769	-2.15
679.8	-6.15
679.83	-3.15
679.861	9.85
679.891	0.85
679.922	-24.15
679.952	9.85
679.983	-2.15
680.013	-7.15
680.044	-21.15
680.074	21.85
680.105	13.85
680.135	17.85
680.165	-7.15
680.196	9.85
680.226	2.85
680.257	23.85
680.287	19.85
680.318	-2.15
680.348	-8.15
680.379	13.85
680.409	4.85
680.439	3.85
680.47	-0.15
680.5	2.85
680.531	4.85
680.561	30.85
680.592	10.85
680.622	20.85
680.652	-0.15
680.683	15.85
680.713	8.85
680.744	-14.15
680.774	-13.15
680.804	20.85
680.835	-6.15
680.865	-13.15
680.896	14.85
680.926	22.85
680.956	0.85
680.987	4.85
681.017	-9.15
681.047	4.85
681.078	-11.15
681.108	3.85
681.139	5.85
681.169	-3.15
681.199	5.85
681.23	-1.15
681.26	-9.15
681.29	2.85
681.321	-5.15
681.351	15.85
681.381	3.85
681.412	6.85
681.442	1.85
681.472	1.85
681.503	-2.15
681.533	2.85
681.563	-10.15
681.594	5.85
681.624	7.85
681.654	-5.15
681.685	3.85
681.715	6.85
681.745	6.85
681.775	-14.15
681.806	5.85
681.836	-1.15
681.866	-3.15
681.897	-2.15
681.927	-5.15
681.957	-25.15
681.987	4.85
682.018	-4.15
682.048	2.85
682.078	11.85
682.109	1.85
682.139	-2.15
682.169	5.85
682.199	-4.15
682.23	-6.15
682.26	-0.15
682.29	-1.15
682.32	-5.15
682.351	-2.15
682.381	-8.15
682.411	-10.15
682.441	-8.15
682.472	-15.15
682.502	-3.15
682.532	-3.15
682.562	-1.15
682.592	16.85
682.623	2.85
682.653	1.85
682.683	-5.15
682.713	15.85
682.743	-5.15
682.774	-13.15
682.804	-2.15
682.834	-0.15
682.864	-1.15
682.894	-5.15
682.925	-9.15
682.955	-9.15
682.985	-13.15
683.015	-1.15
683.045	11.85
683.076	-14.15
683.106	16.85
683.136	6.85
683.166	-17.15
683.196	-5.15
683.226	-16.15
683.257	6.85
683.287	2.85
683.317	-3.15
683.347	-11.15
683.377	-6.15
683.407	2.85
683.437	18.85
683.468	1.85
683.498	-0.15
683.528	-13.15
683.558	4.85
683.588	-6.15
683.618	-2.15
683.648	-5.15
683.678	-9.15
683.708	18.85
683.739	-0.15
683.769	6.85
683.799	1.85
683.829	-15.15
683.859	6.85
683.889	1.85
683.919	2.85
683.949	-1.15
683.979	-11.15
684.009	-8.15
684.039	8.85
684.07	-4.15
684.1	15.85
684.13	1.85
684.16	10.85
684.19	-11.15
684.22	-2.15
684.25	-1.15
684.28	-0.15
684.31	19.85
684.34	4.85
684.37	-2.15
684.4	0.85
684.43	-1.15
684.46	-0.15
684.49	-7.15
684.52	4.85
684.55	9.85
684.58	-5.15
684.61	-8.15
684.64	-2.15
684.67	16.85
684.7	5.85
684.73	8.85
684.76	-7.15
684.79	28.85
684.82	0.85
684.85	-9.15
684.88	-10.15
684.91	-6.15
684.94	6.85
684.97	-9.15
685	0.85
685.03	-13.15
685.06	-16.15
685.09	-5.15
685.12	16.85
685.15	-11.15
685.18	3.85
685.21	2.85
685.24	2.85
685.27	5.85
685.3	2.85
685.33	13.85
685.36	-6.15
685.39	-0.15
685.42	-14.15
685.45	-7.15
685.48	-0.15
685.51	-9.15
685.54	18.85
685.569	-2.15
685.599	-3.15
685.629	8.85
685.659	-7.15
685.689	6.85
685.719	1.85
685.749	-12.15
685.779	5.85
685.809	0.85
685.839	-9.15
685.869	13.85
685.898	7.85
685.928	-5.15
685.958	-3.15
685.988	17.85
686.018	-5.15
686.048	6.85
686.078	15.85
686.108	1.85
686.137	-4.15
686.167	3.85
686.197	-13.15
686.227	-8.15
686.257	17.85
686.287	10.85
686.317	5.85
686.346	-10.15
686.376	-16.15
686.406	-11.15
686.436	19.85
686.466	-2.15
686.496	7.85
686.525	-8.15
686.555	-2.15
686.585	18.85
686.615	16.85
686.645	2.85
686.675	-3.15
686.704	-0.15
686.734	16.85
686.764	-1.15
686.794	0.85
686.824	2.85
686.853	4.85
686.883	9.85
686.913	4.85
686.943	-6.15
686.973	-7.15
687.002	-1.15
687.032	-4.15
687.062	-4.15
687.092	21.85
687.121	5.85
687.151	6.85
687.181	7.85
687.211	-12.15
687.24	0.85
687.27	6.85
687.3	-7.15
687.33	1.85
687.359	-19.15
687.389	-0.15
687.419	-0.15
687.449	17.85
687.478	0.85
687.508	-7.15
687.538	11.85
687.568	18.85
687.597	5.85
687.627	1.85
687.657	1.85
687.686	10.85
687.716	16.85
687.746	-14.15
687.776	-6.15
687.805	1.85
687.835	-0.15
687.865	24.85
687.894	5.85
687.924	-3.15
687.954	-8.15
687.983	5.85
688.013	13.85
688.043	21.85
688.072	6.85
688.102	-1.15
688.132	1.85
688.161	1.85
688.191	2.85
688.221	12.85
688.25	-17.15
688.28	11.85
688.31	2.85
688.339	1.85
688.369	0.85
688.399	-8.15
688.428	-2.15
688.458	6.85
688.488	17.85
688.517	16.85
688.547	-16.15
688.576	21.85
688.606	12.85
688.636	-11.15
688.665	0.85
688.695	11.85
688.725	10.85
688.754	11.85
688.784	-5.15
688.813	5.85
688.843	6.85
688.873	-3.15
688.902	-8.15
688.932	-5.15
688.961	7.85
688.991	14.85
689.02	28.85
689.05	-8.15
689.08	14.85
689.109	18.85
689.139	12.85
689.168	-2.15
689.198	5.85
689.227	2.85
689.257	1.85
689.287	6.85
689.316	7.85
689.346	-3.15
689.375	-0.15
689.405	11.85
689.434	2.85
689.464	4.85
689.493	-10.15
689.523	-1.15
689.552	-1.15
689.582	7.85
689.611	0.85
689.641	-2.15
689.67	-1.15
689.7	5.85
689.73	14.85
689.759	10.85
689.789	20.85
689.818	5.85
689.848	-6.15
689.877	4.85
689.906	-12.15
689.936	-4.15
689.965	14.85
689.995	14.85
690.024	16.85
690.054	3.85
690.083	-0.15
690.113	-2.15
690.142	13.85
690.172	9.85
690.201	1.85
690.231	-4.15
690.26	-5.15
690.29	-6.15
690.319	13.85
690.348	8.85
690.378	5.85
690.407	1.85
690.437	4.85
690.466	13.85
690.496	-1.15
690.525	21.85
690.555	6.85
690.584	1.85
690.613	5.85
690.643	13.85
690.672	3.85
690.702	3.85
690.731	-10.15
690.76	20.85
690.79	49.85
690.819	40.85
690.849	40.85
690.878	34.85
690.907	28.85
690.937	34.85
690.966	4.85
690.996	5.85
691.025	4.85
691.054	7.85
691.084	8.85
691.113	9.85
691.142	22.85
691.172	13.85
691.201	-2.15
691.23	-12.15
691.26	9.85
691.289	4.85
691.319	-9.15
691.348	9.85
691.377	13.85
691.407	21.85
691.436	1.85
691.465	5.85
691.495	7.85
691.524	-2.15
691.553	-4.15
691.583	5.85
691.612	9.85
691.641	0.85
691.67	1.85
691.7	-1.15
691.729	-22.15
691.758	2.85
691.788	1.85
691.817	1.85
691.846	-8.15
691.876	-6.15
691.905	-2.15
691.934	-17.15
691.963	8.85
691.993	-1.15
692.022	-10.15
692.051	-9.15
692.081	18.85
692.11	15.85
692.139	7.85
692.168	1.85
692.198	22.85
692.227	11.85
692.256	0.85
692.285	2.85
692.315	5.85
692.344	5.85
692.373	-10.15
692.402	-8.15
692.432	-1.15
692.461	12.85
692.49	3.85
692.519	-1.15
692.548	8.85
692.578	-2.15
692.607	10.85
692.636	-10.15
692.665	3.85
692.694	2.85
692.724	5.85
692.753	4.85
692.782	9.85
692.811	2.85
692.84	6.85
692.87	0.85
692.899	-6.15
692.928	-10.15
692.957	-4.15
692.986	9.85
693.016	14.85
693.045	7.85
693.074	15.85
693.103	-1.15
693.132	0.85
693.161	-5.15
693.191	7.85
693.22	-2.15
693.249	-5.15
693.278	3.85
693.307	16.85
693.336	-1.15
693.365	-19.15
693.395	7.85
693.424	-1.15
693.453	3.85
693.482	0.85
693.511	6.85
693.54	14.85
693.569	19.85
693.598	11.85
693.628	10.85
693.657	2.85
693.686	24.85
693.715	8.85
693.744	11.85
693.773	10.85
693.802	-1.15
693.831	1.85
693.86	12.85
693.889	1.85
693.919	8.85
693.948	-0.15
693.977	2.85
694.006	2.85
694.035	-8.15
694.064	-21.15
694.093	-4.15
694.122	3.85
694.151	-1.15
694.18	2.85
694.209	25.85
694.238	13.85
694.267	29.85
694.296	4.85
694.325	9.85
694.354	16.85
694.383	6.85
694.412	-2.15
694.441	0.85
694.471	-13.15
694.5	-7.15
694.529	0.85
694.558	14.85
694.587	22.85
694.616	8.85
694.645	6.85
694.674	12.85
694.703	11.85
694.732	4.85
694.761	10.85
694.79	20.85
694.819	-9.15
694.848	24.85
694.877	23.85
694.906	22.85
694.935	5.85
694.963	28.85
694.992	6.85
695.021	11.85
695.05	14.85
695.079	4.85
695.108	-7.15
695.137	17.85
695.166	7.85
695.195	5.85
695.224	7.85
695.253	1.85
695.282	5.85
695.311	22.85
695.34	13.85
695.369	17.85
695.398	8.85
695.427	23.85
695.456	-0.15
695.485	2.85
695.513	9.85
695.542	15.85
695.571	0.85
695.6	13.85
695.629	1.85
695.658	10.85
695.687	0.85
695.716	-3.15
695.745	21.85
695.774	-0.15
695.802	-10.15
695.831	-0.15
695.86	10.85
695.889	5.85
695.918	4.85
695.947	5.85
695.976	7.85
696.005	-2.15
696.033	11.85
696.062	23.85
696.091	3.85
696.12	3.85
696.149	9.85
696.178	0.85
696.207	17.85
696.235	-12.15
696.264	11.85
696.293	-0.15
696.322	8.85
696.351	13.85
696.38	11.85
696.408	4.85
696.437	1.85
696.466	16.85
696.495	7.85
696.524	-0.15
696.553	10.85
696.581	5.85
696.61	4.85
696.639	-6.15
696.668	18.85
696.697	-1.15
696.725	7.85
696.754	8.85
696.783	-15.15
696.812	0.85
696.84	17.85
696.869	-1.15
696.898	1.85
696.927	-5.15
696.956	33.85
696.984	-13.15
697.013	2.85
697.042	21.85
697.071	26.85
697.099	26.85
697.128	12.85
697.157	12.85
697.186	0.85
697.214	6.85
697.243	4.85
697.272	2.85
697.301	13.85
697.329	3.85
697.358	6.85
697.387	18.85
697.415	-2.15
697.444	9.85
697.473	-2.15
697.502	-5.15
697.53	-1.15
697.559	-1.15
697.588	7.85
697.616	2.85
697.645	-3.15
697.674	4.85
697.703	-1.15
697.731	8.85
697.76	-5.15
697.789	5.85
697.817	-2.15
697.846	1.85
697.875	2.85
697.903	13.85
697.932	10.85
697.961	13.85
697.989	9.85
698.018	6.85
698.047	11.85
698.075	10.85
698.104	4.85
698.133	1.85
698.161	-3.15
698.19	4.85
698.218	4.85
698.247	-2.15
698.276	5.85
698.304	1.85
698.333	0.85
698.362	18.85
698.39	14.85
698.419	11.85
698.447	-7.15
698.476	-0.15
698.505	9.85
698.533	1.85
698.562	8.85
698.591	1.85
698.619	7.85
698.648	8.85
698.676	16.85
698.705	-10.15
698.733	-14.15
698.762	9.85
698.791	4.85
698.819	1.85
698.848	6.85
698.876	14.85
698.905	13.85
698.933	5.85
698.962	-0.15
698.991	5.85
699.019	19.85
699.048	20.85
699.076	2.85
699.105	-12.15
699.133	-12.15
699.162	3.85
699.19	15.85
699.219	12.85
699.248	5.85
699.276	2.85
699.305	-4.15
699.333	9.85
699.362	13.85
699.39	-1.15
699.419	-21.15
699.447	-9.15
699.476	4.85
699.504	-8.15
699.533	6.85
699.561	-18.15
699.59	-1.15
699.618	-4.15
699.647	15.85
699.675	15.85
699.704	14.85
699.732	-6.15
699.761	12.85
699.789	-2.15
699.818	16.85
699.846	-7.15
699.874	-1.15
699.903	5.85
699.931	0.85
699.96	0.85
699.988	7.85
700.017	5.85
700.045	2.85
700.074	16.85
700.102	9.85
700.13	11.85
700.159	13.85
700.187	9.85
700.216	-10.15
700.244	-9.15
700.273	15.85
700.301	-15.15
700.329	15.85
700.358	16.85
700.386	-8.15
700.415	6.85
700.443	5.85
700.472	4.85
700.5	9.85
700.528	20.85
700.557	11.85
700.585	0.85
700.614	-2.15
700.642	10.85
700.67	26.85
700.699	3.85
700.727	7.85
700.755	-1.15
700.784	-9.15
700.812	-10.15
700.841	3.85
700.869	1.85
700.897	-19.15
700.926	2.85
700.954	1.85
700.982	12.85
701.011	11.85
701.039	12.85
701.067	-2.15
701.096	7.85
701.124	-16.15
701.152	-1.15
701.181	-14.15
701.209	-25.15
701.237	-4.15
701.266	-8.15
701.294	-15.15
701.322	-11.15
701.351	8.85
701.379	-2.15
701.407	-14.15
701.435	-3.15
701.464	11.85
701.492	20.85
701.52	1.85
701.549	4.85
701.577	-6.15
701.605	18.85
701.634	6.85
701.662	18.85
701.69	-13.15
701.718	-6.15
701.747	5.85
701.775	-15.15
701.803	-2.15
701.831	0.85
701.86	-7.15
701.888	6.85
701.916	-6.15
701.944	5.85
701.973	3.85
702.001	-21.15
702.029	-10.15
702.057	-16.15
702.086	-1.15
702.114	-4.15
702.142	21.85
702.17	-4.15
702.199	-8.15
702.227	-7.15
702.255	-5.15
702.283	-21.15
702.311	-11.15
702.34	-2.15
702.368	4.85
702.396	-5.15
702.424	0.85
702.452	-3.15
702.481	0.85
702.509	-1.15
702.537	13.85
702.565	6.85
702.593	-6.15
702.621	13.85
702.65	5.85
702.678	22.85
702.706	4.85
702.734	-14.15
702.762	-8.15
702.79	8.85
702.819	17.85
702.847	5.85
702.875	18.85
702.903	16.85
702.931	-10.15
702.959	0.85
702.988	5.85
703.016	-11.15
703.044	-19.15
703.072	-6.15
703.1	-7.15
703.128	2.85
703.156	5.85
703.184	-0.15
703.212	9.85
703.241	2.85
703.269	3.85
703.297	7.85
703.325	4.85
703.353	1.85
703.381	9.85
703.409	3.85
703.437	2.85
703.465	-3.15
703.493	-6.15
703.522	-5.15
703.55	0.85
703.578	9.85
703.606	-6.15
703.634	-3.15
703.662	-9.15
703.69	1.85
703.718	2.85
703.746	22.85
703.774	-4.15
703.802	14.85
703.83	3.85
703.858	-8.15
703.886	-14.15
703.914	-17.15
703.942	21.85
703.97	1.85
703.998	10.85
704.027	16.85
704.055	12.85
704.083	-1.15
704.111	-12.15
704.139	-1.15
704.167	1.85
704.195	-5.15
704.223	-10.15
704.251	-5.15
704.279	-3.15
704.307	15.85
704.335	8.85
704.363	-1.15
704.391	3.85
704.419	-8.15
704.447	-20.15
704.475	-4.15
704.503	-11.15
704.531	12.85
704.558	-2.15
704.586	8.85
704.614	5.85
704.642	-5.15
704.67	-8.15
704.698	-4.15
704.726	4.85
704.754	-7.15
704.782	-2.15
704.81	-3.15
704.838	25.85
704.866	1.85
704.894	-29.15
704.922	-7.15
704.95	2.85
704.978	8.85
705.006	5.85
705.034	7.85
705.061	-9.15
705.089	3.85
705.117	-17.15
705.145	-2.15
705.173	-2.15
705.201	0.85
705.229	0.85
705.257	5.85
705.285	11.85
705.313	-0.15
705.34	-1.15
705.368	0.85
705.396	9.85
705.424	18.85
705.452	8.85
705.48	7.85
705.508	-10.15
705.536	-5.15
705.563	-0.15
705.591	7.85
705.619	15.85
705.647	3.85
705.675	6.85
705.703	17.85
705.731	15.85
705.758	22.85
705.786	5.85
705.814	22.85
705.842	-3.15
705.87	5.85
705.898	20.85
705.925	-7.15
705.953	-3.15
705.981	-16.15
706.009	-6.15
706.037	1.85
706.065	-8.15
706.092	-13.15
706.12	10.85
706.148	-8.15
706.176	1.85
706.204	12.85
706.231	12.85
706.259	-1.15
706.287	14.85
706.315	8.85
706.342	1.85
706.37	12.85
706.398	-4.15
706.426	3.85
706.454	0.85
706.481	13.85
706.509	6.85
706.537	-6.15
706.565	-10.15
706.592	8.85
706.62	4.85
706.648	13.85
706.676	-6.15
706.703	8.85
706.731	4.85
706.759	8.85
706.787	2.85
706.814	-3.15
706.842	-8.15
706.87	-13.15
706.897	7.85
706.925	4.85
706.953	6.85
706.981	18.85
707.008	10.85
707.036	-0.15
707.064	-7.15
707.091	0.85
707.119	-0.15
707.147	1.85
707.174	-5.15
707.202	8.85
707.23	-12.15
707.258	10.85
707.285	-2.15
707.313	0.85
707.341	-9.15
707.368	6.85
707.396	13.85
707.424	14.85
707.451	7.85
707.479	8.85
707.507	5.85
707.534	-10.15
707.562	-1.15
707.59	-18.15
707.617	-10.15
707.645	1.85
707.672	7.85
707.7	-9.15
707.728	12.85
707.755	-0.15
707.783	-6.15
707.811	3.85
707.838	0.85
707.866	17.85
707.893	13.85
707.921	-6.15
707.949	-5.15
707.976	-2.15
708.004	6.85
708.031	1.85
708.059	-1.15
708.087	8.85
708.114	-2.15
708.142	-3.15
708.169	-1.15
708.197	-7.15
708.225	8.85
708.252	2.85
708.28	14.85
708.307	-5.15
708.335	-7.15
708.362	-3.15
708.39	2.85
708.418	-11.15
708.445	-16.15
708.473	-1.15
708.5	-7.15
708.528	8.85
708.555	-5.15
708.583	-7.15
708.61	-5.15
708.638	9.85
708.665	9.85
708.693	-2.15
708.72	-9.15
708.748	-2.15
708.776	1.85
708.803	18.85
708.831	6.85
708.858	4.85
708.886	-7.15
708.913	-4.15
708.941	0.85
708.968	14.85
708.996	1.85
709.023	30.85
709.051	-12.15
709.078	-7.15
709.105	8.85
709.133	8.85
709.16	10.85
709.188	10.85
709.215	6.85
709.243	11.85
709.27	0.85
709.298	-2.15
709.325	-9.15
709.353	5.85
709.38	19.85
709.408	17.85
709.435	19.85
709.462	-3.15
709.49	0.85
709.517	-5.15
709.545	-6.15
709.572	-7.15
709.6	-14.15
709.627	-7.15
709.655	-9.15
709.682	-7.15
709.709	7.85
709.737	-6.15
709.764	-4.15
709.792	12.85
709.819	6.85
709.846	-8.15
709.874	10.85
709.901	12.85
709.929	18.85
709.956	6.85
709.983	-3.15
710.011	-11.15
710.038	1.85
710.066	3.85
710.093	9.85
710.12	3.85
710.148	-9.15
710.175	-7.15
710.202	-7.15
710.23	5.85
710.257	-3.15
710.284	12.85
710.312	-1.15
710.339	-2.15
710.366	9.85
710.394	-3.15
710.421	0.85
710.448	-2.15
710.476	-13.15
710.503	4.85
710.53	1.85
710.558	12.85
710.585	2.85
710.612	-0.15
710.64	-5.15
710.667	-0.15
710.694	-7.15
710.722	4.85
710.749	9.85
710.776	0.85
710.804	13.85
710.831	-6.15
710.858	-2.15
710.885	-2.15
710.913	-8.15
710.94	15.85
710.967	-3.15
710.995	-0.15
711.022	-3.15
711.049	0.85
711.076	3.85
711.104	-10.15
711.131	-10.15
711.158	-21.15
711.185	6.85
711.213	-13.15
711.24	-10.15
711.267	-0.15
711.294	-18.15
711.322	3.85
711.349	-0.15
711.376	-7.15
711.403	-8.15
711.431	-6.15
711.458	7.85
711.485	-3.15
711.512	15.85
711.54	-15.15
711.567	-0.15
711.594	8.85
711.621	8.85
711.648	-10.15
711.676	-5.15
711.703	0.85
711.73	-22.15
711.757	-4.15
711.784	-11.15
711.812	1.85
711.839	-2.15
711.866	-6.15
711.893	8.85
711.92	2.85
711.947	8.85
711.975	5.85
712.002	-0.15
712.029	3.85
712.056	2.85
712.083	-8.15
712.11	-30.15
712.138	5.85
712.165	6.85
712.192	10.85
712.219	-7.15
712.246	-16.15
712.273	3.85
712.3	-18.15
712.328	-5.15
712.355	3.85
712.382	-14.15
712.409	17.85
712.436	0.85
712.463	19.85
712.49	-1.15
712.517	4.85
712.544	0.85
712.572	13.85
712.599	-1.15
712.626	5.85
712.653	-11.15
712.68	-10.15
712.707	-3.15
712.734	-0.15
712.761	-2.15
712.788	9.85
712.815	-6.15
712.842	8.85
712.87	0.85
712.897	-7.15
712.924	-2.15
712.951	5.85
712.978	6.85
713.005	-0.15
713.032	13.85
713.059	-7.15
713.086	-4.15
713.113	-3.15
713.14	-9.15
713.167	17.85
713.194	9.85
713.221	-1.15
713.248	8.85
713.275	0.85
713.302	-0.15
713.329	10.85
713.356	13.85
713.383	18.85
713.41	3.85
713.437	-7.15
713.464	4.85
713.491	14.85
713.518	12.85
713.545	9.85
713.572	14.85
713.599	-0.15
713.626	3.85
713.653	18.85
713.68	-3.15
713.707	6.85
713.734	5.85
713.761	11.85
713.788	2.85
713.815	22.85
713.842	-2.15
713.869	-7.15
713.896	-9.15
713.923	-1.15
713.95	0.85
713.977	-10.15
714.004	-1.15
714.031	7.85
714.058	-11.15
714.085	-2.15
714.112	15.85
714.139	0.85
714.165	3.85
714.192	-13.15
714.219	-1.15
714.246	-2.15
714.273	11.85
714.3	0.85
714.327	9.85
714.354	7.85
714.381	0.85
714.408	-0.15
714.435	-10.15
714.461	-5.15
714.488	8.85
714.515	1.85
714.542	5.85
714.569	-6.15
714.596	-5.15
714.623	-18.15
714.65	-9.15
714.677	9.85
714.703	-2.15
714.73	4.85
714.757	5.85
714.784	4.85
714.811	2.85
714.838	8.85
714.865	-7.15
714.891	23.85
714.918	8.85
714.945	-7.15
714.972	-11.15
714.999	7.85
715.026	-12.15
715.052	5.85
715.079	1.85
715.106	6.85
715.133	-0.15
715.16	7.85
715.187	5.85
715.213	12.85
715.24	-13.15
715.267	9.85
715.294	0.85
715.321	-11.15
715.347	-1.15
715.374	-3.15
715.401	1.85
715.428	1.85
715.455	17.85
715.481	-1.15
715.508	-3.15
715.535	-3.15
715.562	21.85
715.588	6.85
715.615	-4.15
715.642	-10.15
715.669	2.85
715.695	-3.15
715.722	-6.15
715.749	-6.15
715.776	8.85
715.802	3.85
715.829	7.85
715.856	-9.15
715.883	12.85
715.909	-14.15
715.936	1.85
715.963	3.85
715.99	-8.15
716.016	2.85
716.043	2.85
716.07	-8.15
716.096	-2.15
716.123	0.85
716.15	10.85
716.177	0.85
716.203	9.85
716.23	5.85
716.257	13.85
716.283	27.85
716.31	1.85
716.337	-5.15
716.363	-6.15
716.39	0.85
716.417	-3.15
716.443	0.85
716.47	10.85
716.497	8.85
716.523	15.85
716.55	16.85
716.577	11.85
716.603	-6.15
716.63	13.85
716.657	20.85
716.683	-2.15
716.71	4.85
716.737	-7.15
716.763	-5.15
716.79	8.85
716.817	14.85
716.843	1.85
716.87	-4.15
716.897	0.85
716.923	11.85
716.95	-3.15
716.976	-5.15
717.003	5.85
717.03	9.85
717.056	8.85
717.083	11.85
717.109	8.85
717.136	3.85
717.163	-3.15
717.189	8.85
717.216	-1.15
717.242	0.85
717.269	8.85
717.296	15.85
717.322	2.85
717.349	15.85
717.375	11.85
717.402	8.85
717.428	5.85
717.455	4.85
717.481	0.85
717.508	14.85
717.535	10.85
717.561	10.85
717.588	-8.15
717.614	-10.15
717.641	-5.15
717.667	-5.15
717.694	1.85
717.72	4.85
717.747	-6.15
717.773	-9.15
717.8	5.85
717.826	-3.15
717.853	4.85
717.88	13.85
717.906	-2.15
717.933	4.85
717.959	-9.15
717.986	8.85
718.012	-3.15
718.039	19.85
718.065	4.85
718.092	14.85
718.118	2.85
718.144	2.85
718.171	2.85
718.197	11.85
718.224	-3.15
718.25	8.85
718.277	6.85
718.303	-7.15
718.33	-5.15
718.356	-17.15
718.383	2.85
718.409	5.85
718.436	12.85
718.462	2.85
718.489	-7.15
718.515	4.85
718.541	11.85
718.568	-1.15
718.594	12.85
718.621	8.85
718.647	-6.15
718.674	15.85
718.7	-2.15
718.726	20.85
718.753	13.85
718.779	7.85
718.806	8.85
718.832	-6.15
718.858	-2.15
718.885	1.85
718.911	1.85
718.938	18.85
718.964	-1.15
718.99	-6.15
719.017	-15.15
719.043	11.85
719.07	21.85
719.096	-9.15
719.122	8.85
719.149	4.85
719.175	9.85
719.201	6.85
719.228	16.85
719.254	5.85
719.281	10.85
719.307	1.85
719.333	3.85
719.36	7.85
719.386	8.85
719.412	-3.15
719.439	-11.15
719.465	-6.15
719.491	-11.15
719.518	3.85
719.544	-3.15
719.57	8.85
719.597	7.85
719.623	4.85
719.649	1.85
719.675	-1.15
719.702	9.85
719.728	6.85
719.754	-0.15
719.781	-5.15
719.807	-13.15
719.833	-1.15
719.86	1.85
719.886	-6.15
719.912	4.85
719.938	-4.15
719.965	11.85
719.991	3.85
720.017	-0.15
720.044	-11.15
720.07	-6.15
720.096	9.85
720.122	6.85
720.149	2.85
720.175	14.85
720.201	2.85
720.227	2.85
720.254	10.85
720.28	11.85
720.306	1.85
720.332	5.85
720.359	-3.15
720.385	20.85
720.411	9.85
720.437	-1.15
720.463	0.85
720.49	11.85
720.516	1.85
720.542	-11.15
720.568	-7.15
720.595	24.85
720.621	-10.15
720.647	2.85
720.673	18.85
720.699	10.85
720.725	1.85
720.752	17.85
720.778	16.85
720.804	11.85
720.83	5.85
720.856	-6.15
720.883	-1.15
720.909	8.85
720.935	15.85
720.961	23.85
720.987	8.85
721.013	9.85
721.04	-9.15
721.066	-11.15
721.092	-2.15
721.118	10.85
721.144	-3.15
721.17	-10.15
721.196	-8.15
721.223	-3.15
721.249	-1.15
721.275	9.85
721.301	-6.15
721.327	20.85
721.353	-3.15
721.379	1.85
721.405	9.85
721.432	7.85
721.458	0.85
721.484	4.85
721.51	-12.15
721.536	11.85
721.562	-3.15
721.588	-7.15
721.614	-1.15
721.64	5.85
721.666	-0.15
721.693	-10.15
721.719	1.85
721.745	-2.15
721.771	-6.15
721.797	-16.15
721.823	6.85
721.849	10.85
721.875	20.85
721.901	14.85
721.927	7.85
721.953	3.85
721.979	14.85
722.005	10.85
722.031	0.85
722.057	-6.15
722.083	5.85
722.109	17.85
722.135	8.85
722.161	-0.15
722.187	12.85
722.214	0.85
722.24	2.85
722.266	-2.15
722.292	8.85
722.318	12.85
722.344	-8.15
722.37	8.85
722.396	-0.15
722.422	-12.15
722.448	-11.15
722.474	-13.15
722.5	2.85
722.526	13.85
722.552	-5.15
722.578	-7.15
722.603	12.85
722.629	-6.15
722.655	5.85
722.681	-7.15
722.707	5.85
722.733	-5.15
722.759	-13.15
722.785	-5.15
722.811	12.85
722.837	-13.15
722.863	6.85
722.889	11.85
722.915	-8.15
722.941	-8.15
722.967	-5.15
722.993	2.85
723.019	2.85
723.045	2.85
723.071	7.85
723.097	14.85
723.122	8.85
723.148	-4.15
723.174	-9.15
723.2	15.85
723.226	17.85
723.252	6.85
723.278	-7.15
723.304	-6.15
723.33	4.85
723.356	-2.15
723.381	-22.15
723.407	-19.15
723.433	17.85
723.459	16.85
723.485	10.85
723.511	8.85
723.537	-13.15
723.563	1.85
723.588	8.85
723.614	14.85
723.64	1.85
723.666	1.85
723.692	3.85
723.718	-0.15
723.744	0.85
723.769	-6.15
723.795	2.85
723.821	4.85
723.847	-3.15
723.873	0.85
723.899	-2.15
723.924	-10.15
723.95	-2.15
723.976	3.85
724.002	10.85
724.028	-10.15
724.053	-9.15
724.079	-22.15
724.105	-2.15
724.131	-2.15
724.157	-8.15
724.182	2.85
724.208	-1.15
724.234	-6.15
724.26	-2.15
724.286	4.85
724.311	-1.15
724.337	-10.15
724.363	5.85
724.389	3.85
724.415	-8.15
724.44	24.85
724.466	3.85
724.492	-13.15
724.518	11.85
724.543	8.85
724.569	0.85
724.595	14.85
724.621	0.85
724.646	4.85
724.672	-7.15
724.698	-0.15
724.723	0.85
724.749	-5.15
724.775	8.85
724.801	-6.15
724.826	-8.15
724.852	-6.15
724.878	-3.15
724.904	4.85
724.929	7.85
724.955	-17.15
724.981	-1.15
725.006	4.85
725.032	6.85
725.058	3.85
725.083	-1.15
725.109	-13.15
725.135	5.85
725.161	14.85
725.186	-6.15
725.212	1.85
725.238	12.85
725.263	7.85
725.289	-9.15
725.315	-6.15
725.34	13.85
725.366	7.85
725.392	-0.15
725.417	7.85
725.443	-0.15
725.468	-5.15
725.494	-1.15
725.52	15.85
725.545	-1.15
725.571	3.85
725.597	-6.15
725.622	7.85
725.648	-5.15
725.674	6.85
725.699	-7.15
725.725	1.85
725.75	37.85
725.776	5.85
725.802	8.85
725.827	15.85
725.853	12.85
725.878	7.85
725.904	6.85
725.93	7.85
725.955	-7.15
725.981	-15.15
726.006	-10.15
726.032	7.85
726.057	0.85
726.083	-10.15
726.109	-3.15
726.134	-11.15
726.16	-2.15
726.185	-9.15
726.211	-14.15
726.236	8.85
726.262	1.85
726.288	-7.15
726.313	2.85
726.339	3.85
726.364	3.85
726.39	20.85
726.415	4.85
726.441	-5.15
726.466	4.85
726.492	17.85
726.517	20.85
726.543	-4.15
726.568	-0.15
726.594	-6.15
726.619	-12.15
726.645	13.85
726.67	12.85
726.696	9.85
726.721	-0.15
726.747	-7.15
726.772	14.85
726.798	-5.15
726.823	1.85
726.849	-5.15
726.874	3.85
726.9	25.85
726.925	14.85
726.951	-10.15
726.976	2.85
727.002	-5.15
727.027	-12.15
727.053	-5.15
727.078	7.85
727.104	-9.15
727.129	-12.15
727.155	-1.15
727.18	-2.15
727.205	-6.15
727.231	-7.15
727.256	-5.15
727.282	-4.15
727.307	0.85
727.333	0.85
727.358	-9.15
727.383	-6.15
727.409	-16.15
727.434	8.85
727.46	0.85
727.485	-5.15
727.511	2.85
727.536	-22.15
727.561	4.85
727.587	-2.15
727.612	-10.15
727.637	-6.15
727.663	-2.15
727.688	3.85
727.714	2.85
727.739	-2.15
727.764	-14.15
727.79	0.85
727.815	8.85
727.841	4.85
727.866	12.85
727.891	1.85
727.917	-12.15
727.942	-2.15
727.967	3.85
727.993	-4.15
728.018	3.85
728.043	4.85
728.069	9.85
728.094	14.85
728.119	1.85
728.145	24.85
728.17	3.85
728.195	-9.15
728.221	13.85
728.246	-2.15
728.271	-14.15
728.297	-1.15
728.322	-0.15
728.347	6.85
728.373	9.85
728.398	-3.15
728.423	-8.15
728.448	-4.15
728.474	1.85
728.499	16.85
728.524	-13.15
728.55	4.85
728.575	-15.15
728.6	-4.15
728.625	-17.15
728.651	9.85
728.676	-18.15
728.701	-7.15
728.727	0.85
728.752	-6.15
728.777	1.85
728.802	-8.15
728.828	-7.15
728.853	-6.15
728.878	2.85
728.903	5.85
728.929	1.85
728.954	0.85
728.979	-11.15
729.004	6.85
729.03	-6.15
729.055	10.85
729.08	-12.15
729.105	-10.15
729.13	0.85
729.156	1.85
729.181	6.85
729.206	-19.15
729.231	-6.15
729.256	2.85
729.282	17.85
729.307	-24.15
729.332	-8.15
729.357	-11.15
729.382	-9.15
729.408	-5.15
729.433	4.85
729.458	5.85
729.483	8.85
729.508	4.85
729.533	7.85
729.559	-1.15
729.584	-8.15
729.609	6.85
729.634	15.85
729.659	-3.15
729.684	-24.15
729.71	19.85
729.735	12.85
729.76	1.85
729.785	5.85
729.81	18.85
729.835	0.85
729.86	-2.15
729.886	18.85
729.911	-1.15
729.936	-0.15
729.961	13.85
729.986	19.85
730.011	50.85
730.036	216.85
730.061	1014.85
730.086	2710.85
730.112	3408.85
730.137	2875.85
730.162	2159.85
730.187	1691.85
730.212	1293.85
730.237	823.85
730.262	473.85
730.287	240.85
730.312	142.85
730.337	64.85
730.362	65.85
730.387	38.85
730.413	32.85
730.438	28.85
730.463	12.85
730.488	6.85
730.513	1.85
730.538	-7.15
730.563	16.85
730.588	27.85
730.613	23.85
730.638	7.85
730.663	-2.15
730.688	32.85
730.713	14.85
730.738	4.85
730.763	6.85
730.788	6.85
730.813	8.85
730.838	1.85
730.863	-9.15
730.888	8.85
730.913	-4.15
730.938	-9.15
730.963	19.85
730.988	110.85
731.013	418.85
731.038	623.85
731.063	599.85
731.088	483.85
731.113	369.85
731.138	256.85
731.163	205.85
731.188	119.85
731.213	61.85
731.238	37.85
731.263	14.85
731.288	6.85
731.313	1.85
731.338	-6.15
731.363	2.85
731.388	5.85
731.413	5.85
731.438	-3.15
731.463	9.85
731.487	8.85
731.512	-3.15
731.537	1.85
731.562	-0.15
731.587	-0.15
731.612	5.85
731.637	0.85
731.662	9.85
731.687	-9.15
731.712	-16.15
731.737	12.85
731.762	-11.15
731.786	-0.15
731.811	12.85
731.836	7.85
731.861	-2.15
731.886	-2.15
731.911	7.85
731.936	12.85
731.961	-1.15
731.986	-23.15
732.01	18.85
732.035	16.85
732.06	9.85
732.085	-10.15
732.11	24.85
732.135	-7.15
732.16	-2.15
732.184	-5.15
732.209	1.85
732.234	-6.15
732.259	-1.15
732.284	24.85
732.309	-8.15
732.334	-7.15
732.358	-22.15
732.383	-7.15
732.408	1.85
732.433	12.85
732.458	6.85
732.482	16.85
732.507	4.85
732.532	4.85
732.557	13.85
732.582	7.85
732.607	38.85
732.631	52.85
732.656	77.85
732.681	161.85
732.706	359.85
732.73	458.85
732.755	399.85
732.78	281.85
732.805	247.85
732.83	176.85
732.854	128.85
732.879	93.85
732.904	37.85
732.929	3.85
732.953	29.85
732.978	-5.15
733.003	-3.15
733.028	-16.15
733.052	12.85
733.077	8.85
733.102	-5.15
733.127	-7.15
733.151	-3.15
733.176	13.85
733.201	-0.15
733.226	-13.15
733.25	-10.15
733.275	-11.15
733.3	-1.15
733.324	22.85
733.349	8.85
733.374	12.85
733.399	-1.15
733.423	-6.15
733.448	-9.15
733.473	-6.15
733.497	16.85
733.522	-10.15
733.547	12.85
733.571	16.85
733.596	7.85
733.621	-3.15
733.646	-4.15
733.67	2.85
733.695	-0.15
733.72	13.85
733.744	9.85
733.769	2.85
733.794	7.85
733.818	7.85
733.843	-5.15
733.867	-0.15
733.892	8.85
733.917	9.85
733.941	-1.15
733.966	-8.15
733.991	-1.15
734.015	5.85
734.04	4.85
734.065	14.85
734.089	16.85
734.114	-2.15
734.138	9.85
734.163	-2.15
734.188	14.85
734.212	5.85
734.237	6.85
734.261	-11.15
734.286	-8.15
734.311	3.85
734.335	1.85
734.36	0.85
734.384	15.85
734.409	11.85
734.434	-4.15
734.458	-6.15
734.483	-6.15
734.507	-15.15
734.532	-11.15
734.556	-3.15
734.581	-7.15
734.606	-12.15
734.63	-15.15
734.655	12.85
734.679	9.85
734.704	19.85
734.728	-6.15
734.753	-6.15
734.777	2.85
734.802	4.85
734.826	8.85
734.851	3.85
734.876	9.85
734.9	9.85
734.925	-5.15
734.949	1.85
734.974	-3.15
734.998	9.85
735.023	-10.15
735.047	-15.15
735.072	8.85
735.096	-6.15
735.121	-2.15
735.145	-0.15
735.17	1.85
735.194	31.85
735.219	-1.15
735.243	4.85
735.268	15.85
735.292	7.85
735.317	-7.15
735.341	4.85
735.365	-25.15
735.39	6.85
735.414	10.85
735.439	1.85
735.463	-6.15
735.488	3.85
735.512	-4.15
735.537	-3.15
735.561	5.85
735.586	-3.15
735.61	5.85
735.634	-3.15
735.659	8.85
735.683	9.85
735.708	-11.15
735.732	-13.15
735.757	0.85
735.781	0.85
735.805	1.85
735.83	-9.15
735.854	0.85
735.879	6.85
735.903	-1.15
735.927	-4.15
735.952	13.85
735.976	-5.15
736.001	-17.15
736.025	-12.15
736.049	9.85
736.074	-7.15
736.098	-5.15
736.123	-0.15
736.147	1.85
736.171	0.85
736.196	2.85
736.22	6.85
736.244	19.85
736.269	12.85
736.293	-13.15
736.317	4.85
736.342	4.85
736.366	18.85
736.39	10.85
736.415	-1.15
736.439	-0.15
736.463	17.85
736.488	17.85
736.512	5.85
736.536	2.85
736.561	25.85
736.585	-0.15
736.609	8.85
736.634	-1.15
736.658	-3.15
736.682	-8.15
736.707	-10.15
736.731	-12.15
736.755	-7.15
736.78	7.85
736.804	5.85
736.828	-0.15
736.852	0.85
736.877	-14.15
736.901	-6.15
736.925	2.85
736.949	6.85
736.974	-3.15
736.998	-0.15
737.022	0.85
737.047	-4.15
737.071	-14.15
737.095	5.85
737.119	21.85
737.144	8.85
737.168	-4.15
737.192	0.85
737.216	12.85
737.241	-6.15
737.265	-3.15
737.289	-19.15
737.313	-17.15
737.337	1.85
737.362	12.85
737.386	-3.15
737.41	1.85
737.434	5.85
737.459	-12.15
737.483	7.85
737.507	13.85
737.531	10.85
737.555	4.85
737.58	10.85
737.604	0.85
737.628	-2.15
737.652	6.85
737.676	5.85
737.701	2.85
737.725	3.85
737.749	6.85
737.773	3.85
737.797	-2.15
737.821	-0.15
737.846	12.85
737.87	36.85
737.894	-12.15
737.918	-2.15
737.942	4.85
737.966	9.85
737.99	16.85
738.015	1.85
738.039	0.85
738.063	5.85
738.087	7.85
738.111	6.85
738.135	17.85
738.159	-11.15
738.184	-9.15
738.208	-11.15
738.232	0.85
738.256	15.85
738.28	19.85
738.304	-1.15
738.328	-7.15
738.352	19.85
738.376	-2.15
738.4	10.85
738.425	8.85
738.449	6.85
738.473	20.85
738.497	16.85
738.521	2.85
738.545	15.85
738.569	25.85
738.593	0.85
738.617	13.85
738.641	3.85
738.665	1.85
738.689	14.85
738.713	4.85
738.737	7.85
738.762	10.85
738.786	-7.15
738.81	-22.15
738.834	13.85
738.858	4.85
738.882	-2.15
738.906	-5.15
738.93	3.85
738.954	-9.15
738.978	10.85
739.002	15.85
739.026	2.85
739.05	5.85
739.074	5.85
739.098	8.85
739.122	8.85
739.146	6.85
739.17	5.85
739.194	-3.15
739.218	2.85
739.242	-5.15
739.266	-11.15
739.29	13.85
739.314	-5.15
739.338	1.85
739.362	0.85
739.386	2.85
739.41	3.85
739.434	-4.15
739.458	22.85
739.482	4.85
739.506	5.85
739.53	3.85
739.554	14.85
739.577	-11.15
739.601	17.85
739.625	-6.15
739.649	6.85
739.673	-12.15
739.697	-0.15
739.721	3.85
739.745	5.85
739.769	10.85
739.793	13.85
739.817	14.85
739.841	-1.15
739.865	13.85
739.889	-2.15
739.912	5.85
739.936	12.85
739.96	-19.15
739.984	14.85
740.008	-2.15
740.032	-6.15
740.056	15.85
740.08	5.85
740.104	-9.15
740.127	0.85
740.151	8.85
740.175	14.85
740.199	26.85
740.223	42.85
740.247	5.85
740.271	-3.15
740.295	-5.15
740.318	-11.15
740.342	-12.15
740.366	7.85
740.39	6.85
740.414	-11.15
740.438	-0.15
740.461	10.85
740.485	-1.15
740.509	-13.15
740.533	24.85
740.557	4.85
740.581	5.85
740.604	-9.15
740.628	7.85
740.652	23.85
740.676	5.85
740.7	11.85
740.723	8.85
740.747	4.85
740.771	16.85
740.795	5.85
740.819	10.85
740.842	-10.15
740.866	9.85
740.89	14.85
740.914	-8.15
740.938	-7.15
740.961	4.85
740.985	-9.15
741.009	8.85
741.033	1.85
741.056	1.85
741.08	-3.15
741.104	-10.15
741.128	0.85
741.151	11.85
741.175	4.85
741.199	12.85
741.223	20.85
741.246	2.85
741.27	4.85
741.294	-4.15
741.318	-7.15
741.341	-1.15
741.365	-3.15
741.389	4.85
741.413	3.85
741.436	-1.15
741.46	6.85
741.484	30.85
741.507	-3.15
741.531	13.85
741.555	-6.15
741.579	-6.15
741.602	1.85
741.626	9.85
741.65	3.85
741.673	-1.15
741.697	12.85
741.721	1.85
741.744	-17.15
741.768	-4.15
741.792	-1.15
741.815	3.85
741.839	26.85
741.863	10.85
741.886	2.85
741.91	5.85
741.934	13.85
741.957	-12.15
741.981	12.85
742.005	-8.15
742.028	-3.15
742.052	-7.15
742.075	4.85
742.099	12.85
742.123	7.85
742.146	8.85
742.17	-0.15
742.194	-3.15
742.217	-5.15
742.241	12.85
742.264	-9.15
742.288	9.85
742.312	8.85
742.335	-9.15
742.359	3.85
742.382	8.85
742.406	22.85
742.43	3.85
742.453	-5.15
742.477	-5.15
742.5	10.85
742.524	-18.15
742.548	-11.15
742.571	0.85
742.595	-8.15
742.618	12.85
742.642	1.85
742.665	11.85
742.689	-1.15
742.712	6.85
742.736	-6.15
742.76	-1.15
742.783	-15.15
742.807	13.85
742.83	14.85
742.854	-0.15
742.877	-3.15
742.901	3.85
742.924	-14.15
742.948	2.85
742.971	13.85
742.995	-2.15
743.018	-22.15
743.042	1.85
743.065	-13.15
743.089	-3.15
743.112	12.85
743.136	9.85
743.159	5.85
743.183	-0.15
743.206	-9.15
743.23	-11.15
743.253	-0.15
743.277	15.85
743.3	-15.15
743.324	-12.15
743.347	4.85
743.371	17.85
743.394	5.85
743.418	8.85
743.441	7.85
743.465	15.85
743.488	-0.15
743.512	-7.15
743.535	-1.15
743.558	4.85
743.582	-4.15
743.605	-4.15
743.629	6.85
743.652	9.85
743.676	-6.15
743.699	12.85
743.723	22.85
743.746	14.85
743.769	0.85
743.793	1.85
743.816	-8.15
743.84	-2.15
743.863	-2.15
743.886	4.85
743.91	9.85
743.933	24.85
743.957	4.85
743.98	-1.15
744.003	-1.15
744.027	0.85
744.05	-2.15
744.074	-0.15
744.097	-4.15
744.12	0.85
744.144	-15.15
744.167	2.85
744.19	-14.15
744.214	-1.15
744.237	-19.15
744.26	-1.15
744.284	2.85
744.307	-6.15
744.331	-9.15
744.354	-7.15
744.377	-1.15
744.401	-0.15
744.424	-2.15
744.447	-5.15
744.471	-1.15
