Data from HighRes_mercury_15_13_11_07_2024_HR4C61891__15__15-14-24-686.txt Node

Date: Thu Nov 07 15:14:24 EST 2024
User: crc00042
Spectrometer: HR4C6189
Trigger mode: 4
Integration Time (sec): 1.000000E-1
Scans to average: 1
Electric dark correction enabled: true
Nonlinearity correction enabled: false
Boxcar width: 0
XAxis mode: Wavelengths
Number of Pixels in Spectrum: 3648
>>>>>Begin Spectral Data<<<<<
639.567	-41.77
639.602	-41.77
639.636	-41.77
639.67	-33.77
639.704	-7.77
639.738	8.23
639.773	22.23
639.807	-3.77
639.841	9.23
639.875	4.23
639.909	-9.77
639.943	-18.77
639.978	1.23
640.012	-1.77
640.046	13.23
640.08	-7.77
640.114	-0.77
640.148	-15.77
640.182	3.23
640.217	-2.77
640.251	10.23
640.285	22.23
640.319	-16.77
640.353	2.23
640.387	14.23
640.421	8.23
640.455	-10.77
640.49	-6.77
640.524	-1.77
640.558	24.23
640.592	2.23
640.626	5.23
640.66	13.23
640.694	-3.77
640.728	6.23
640.762	34.23
640.796	26.23
640.83	20.23
640.865	3.23
640.899	11.23
640.933	5.23
640.967	-1.77
641.001	15.23
641.035	0.23
641.069	16.23
641.103	-11.77
641.137	-5.77
641.171	-24.77
641.205	18.23
641.239	12.23
641.273	26.23
641.307	26.23
641.341	7.23
641.375	3.23
641.409	-3.77
641.443	9.23
641.477	13.23
641.511	14.23
641.545	9.23
641.579	12.23
641.614	14.23
641.648	8.23
641.682	4.23
641.716	12.23
641.75	0.23
641.784	2.23
641.818	17.23
641.852	16.23
641.886	-1.77
641.919	19.23
641.953	21.23
641.987	-16.77
642.021	6.23
642.055	16.23
642.089	-2.77
642.123	-4.77
642.157	3.23
642.191	-16.77
642.225	4.23
642.259	9.23
642.293	4.23
642.327	15.23
642.361	3.23
642.395	21.23
642.429	6.23
642.463	12.23
642.497	20.23
642.531	-8.77
642.565	2.23
642.599	6.23
642.633	-9.77
642.666	14.23
642.7	32.23
642.734	15.23
642.768	-5.77
642.802	6.23
642.836	22.23
642.87	-6.77
642.904	2.23
642.938	7.23
642.972	3.23
643.005	10.23
643.039	15.23
643.073	-4.77
643.107	11.23
643.141	9.23
643.175	7.23
643.209	-3.77
643.243	1.23
643.276	6.23
643.31	1.23
643.344	9.23
643.378	2.23
643.412	8.23
643.446	9.23
643.48	1.23
643.513	11.23
643.547	-6.77
643.581	-0.77
643.615	15.23
643.649	8.23
643.683	8.23
643.716	2.23
643.75	13.23
643.784	-8.77
643.818	7.23
643.852	9.23
643.886	6.23
643.919	1.23
643.953	-3.77
643.987	4.23
644.021	9.23
644.055	21.23
644.088	18.23
644.122	6.23
644.156	-3.77
644.19	-9.77
644.224	7.23
644.257	-1.77
644.291	11.23
644.325	10.23
644.359	4.23
644.392	21.23
644.426	19.23
644.46	9.23
644.494	-6.77
644.527	-8.77
644.561	22.23
644.595	6.23
644.629	4.23
644.662	6.23
644.696	26.23
644.73	6.23
644.764	7.23
644.797	23.23
644.831	13.23
644.865	9.23
644.899	8.23
644.932	21.23
644.966	0.23
645	4.23
645.033	16.23
645.067	-8.77
645.101	0.23
645.135	7.23
645.168	36.23
645.202	5.23
645.236	13.23
645.269	14.23
645.303	12.23
645.337	1.23
645.37	0.23
645.404	14.23
645.438	1.23
645.471	21.23
645.505	15.23
645.539	9.23
645.572	-8.77
645.606	-1.77
645.64	8.23
645.673	3.23
645.707	21.23
645.741	1.23
645.774	-2.77
645.808	6.23
645.842	-6.77
645.875	20.23
645.909	7.23
645.943	2.23
645.976	8.23
646.01	9.23
646.043	14.23
646.077	21.23
646.111	12.23
646.144	19.23
646.178	20.23
646.212	-10.77
646.245	18.23
646.279	10.23
646.312	3.23
646.346	37.23
646.38	9.23
646.413	10.23
646.447	10.23
646.48	-0.77
646.514	5.23
646.547	9.23
646.581	2.23
646.615	21.23
646.648	7.23
646.682	15.23
646.715	-13.77
646.749	23.23
646.782	12.23
646.816	3.23
646.85	12.23
646.883	8.23
646.917	18.23
646.95	9.23
646.984	-7.77
647.017	3.23
647.051	19.23
647.084	7.23
647.118	3.23
647.151	-10.77
647.185	12.23
647.218	-23.77
647.252	2.23
647.285	-16.77
647.319	-18.77
647.353	4.23
647.386	39.23
647.42	2.23
647.453	7.23
647.487	10.23
647.52	5.23
647.553	11.23
647.587	1.23
647.62	8.23
647.654	17.23
647.687	7.23
647.721	13.23
647.754	5.23
647.788	17.23
647.821	0.23
647.855	17.23
647.888	5.23
647.922	12.23
647.955	-1.77
647.989	-0.77
648.022	7.23
648.055	17.23
648.089	7.23
648.122	26.23
648.156	15.23
648.189	-0.77
648.223	6.23
648.256	10.23
648.29	-6.77
648.323	4.23
648.356	7.23
648.39	4.23
648.423	7.23
648.457	4.23
648.49	14.23
648.523	10.23
648.557	0.23
648.59	-1.77
648.624	0.23
648.657	-2.77
648.69	4.23
648.724	13.23
648.757	12.23
648.791	14.23
648.824	1.23
648.857	28.23
648.891	7.23
648.924	-0.77
648.957	12.23
648.991	-5.77
649.024	6.23
649.057	5.23
649.091	-13.77
649.124	5.23
649.158	12.23
649.191	32.23
649.224	-14.77
649.258	15.23
649.291	10.23
649.324	14.23
649.358	10.23
649.391	2.23
649.424	9.23
649.458	-0.77
649.491	-9.77
649.524	-5.77
649.557	-9.77
649.591	-20.77
649.624	18.23
649.657	-5.77
649.691	-7.77
649.724	-5.77
649.757	2.23
649.791	6.23
649.824	15.23
649.857	10.23
649.89	2.23
649.924	-0.77
649.957	6.23
649.99	-10.77
650.023	12.23
650.057	2.23
650.09	8.23
650.123	3.23
650.157	12.23
650.19	16.23
650.223	4.23
650.256	2.23
650.29	7.23
650.323	-5.77
650.356	21.23
650.389	8.23
650.423	4.23
650.456	8.23
650.489	16.23
650.522	14.23
650.555	25.23
650.589	13.23
650.622	6.23
650.655	11.23
650.688	14.23
650.721	1.23
650.755	21.23
650.788	5.23
650.821	5.23
650.854	10.23
650.887	25.23
650.921	-3.77
650.954	2.23
650.987	-4.77
651.02	-3.77
651.053	-4.77
651.087	-0.77
651.12	20.23
651.153	15.23
651.186	7.23
651.219	-5.77
651.252	7.23
651.286	9.23
651.319	-5.77
651.352	10.23
651.385	15.23
651.418	11.23
651.451	23.23
651.484	11.23
651.518	-5.77
651.551	23.23
651.584	12.23
651.617	18.23
651.65	22.23
651.683	3.23
651.716	-4.77
651.749	3.23
651.783	-0.77
651.816	3.23
651.849	9.23
651.882	12.23
651.915	-13.77
651.948	4.23
651.981	-2.77
652.014	2.23
652.047	-10.77
652.08	-3.77
652.114	9.23
652.147	-7.77
652.18	31.23
652.213	35.23
652.246	7.23
652.279	2.23
652.312	-0.77
652.345	10.23
652.378	24.23
652.411	8.23
652.444	5.23
652.477	-0.77
652.51	6.23
652.543	-7.77
652.576	15.23
652.609	-4.77
652.642	8.23
652.675	18.23
652.709	-2.77
652.742	18.23
652.775	19.23
652.808	11.23
652.841	6.23
652.874	10.23
652.907	11.23
652.94	5.23
652.973	4.23
653.006	-5.77
653.039	-2.77
653.072	11.23
653.105	12.23
653.138	-1.77
653.171	-0.77
653.204	-9.77
653.237	8.23
653.27	-19.77
653.303	10.23
653.336	11.23
653.368	3.23
653.401	3.23
653.434	7.23
653.467	13.23
653.5	-7.77
653.533	-4.77
653.566	16.23
653.599	14.23
653.632	4.23
653.665	-7.77
653.698	2.23
653.731	-3.77
653.764	29.23
653.797	17.23
653.83	27.23
653.863	12.23
653.896	2.23
653.929	8.23
653.961	20.23
653.994	3.23
654.027	-7.77
654.06	13.23
654.093	0.23
654.126	-0.77
654.159	-1.77
654.192	6.23
654.225	30.23
654.258	-7.77
654.29	0.23
654.323	7.23
654.356	18.23
654.389	12.23
654.422	23.23
654.455	4.23
654.488	-8.77
654.521	-21.77
654.553	-6.77
654.586	3.23
654.619	4.23
654.652	13.23
654.685	2.23
654.718	11.23
654.751	11.23
654.783	-2.77
654.816	31.23
654.849	9.23
654.882	2.23
654.915	-1.77
654.948	-2.77
654.98	-0.77
655.013	-0.77
655.046	-0.77
655.079	-2.77
655.112	2.23
655.144	-8.77
655.177	-0.77
655.21	21.23
655.243	19.23
655.276	9.23
655.308	8.23
655.341	-1.77
655.374	2.23
655.407	-6.77
655.44	-0.77
655.472	6.23
655.505	4.23
655.538	2.23
655.571	18.23
655.603	15.23
655.636	4.23
655.669	15.23
655.702	15.23
655.734	-9.77
655.767	2.23
655.8	7.23
655.833	3.23
655.865	17.23
655.898	2.23
655.931	7.23
655.964	10.23
655.996	6.23
656.029	13.23
656.062	9.23
656.095	3.23
656.127	-14.77
656.16	0.23
656.193	8.23
656.225	24.23
656.258	11.23
656.291	2.23
656.324	15.23
656.356	20.23
656.389	-2.77
656.422	6.23
656.454	-8.77
656.487	12.23
656.52	23.23
656.552	7.23
656.585	11.23
656.618	11.23
656.65	16.23
656.683	4.23
656.716	7.23
656.748	10.23
656.781	-0.77
656.814	9.23
656.846	14.23
656.879	12.23
656.912	17.23
656.944	-13.77
656.977	8.23
657.01	10.23
657.042	-5.77
657.075	13.23
657.108	-3.77
657.14	12.23
657.173	3.23
657.205	29.23
657.238	7.23
657.271	2.23
657.303	2.23
657.336	16.23
657.369	10.23
657.401	2.23
657.434	-0.77
657.466	4.23
657.499	-7.77
657.532	3.23
657.564	12.23
657.597	7.23
657.629	8.23
657.662	12.23
657.694	-1.77
657.727	3.23
657.76	12.23
657.792	3.23
657.825	-8.77
657.857	10.23
657.89	-2.77
657.922	11.23
657.955	-3.77
657.987	7.23
658.02	14.23
658.053	25.23
658.085	18.23
658.118	18.23
658.15	17.23
658.183	21.23
658.215	-8.77
658.248	1.23
658.28	-10.77
658.313	14.23
658.345	15.23
658.378	11.23
658.41	-9.77
658.443	7.23
658.475	-4.77
658.508	4.23
658.54	1.23
658.573	-12.77
658.605	5.23
658.638	6.23
658.67	3.23
658.703	7.23
658.735	-1.77
658.768	5.23
658.8	-6.77
658.833	8.23
658.865	-4.77
658.898	6.23
658.93	1.23
658.963	12.23
658.995	-3.77
659.028	2.23
659.06	0.23
659.092	3.23
659.125	5.23
659.157	24.23
659.19	-0.77
659.222	7.23
659.255	8.23
659.287	1.23
659.32	3.23
659.352	15.23
659.384	5.23
659.417	12.23
659.449	8.23
659.482	8.23
659.514	3.23
659.546	18.23
659.579	-17.77
659.611	8.23
659.644	6.23
659.676	1.23
659.708	-1.77
659.741	-0.77
659.773	-0.77
659.806	8.23
659.838	-3.77
659.87	3.23
659.903	-11.77
659.935	15.23
659.967	10.23
660	16.23
660.032	-10.77
660.065	31.23
660.097	14.23
660.129	9.23
660.162	-0.77
660.194	17.23
660.226	15.23
660.259	18.23
660.291	4.23
660.323	12.23
660.356	5.23
660.388	-3.77
660.42	-4.77
660.453	3.23
660.485	0.23
660.517	31.23
660.55	16.23
660.582	6.23
660.614	13.23
660.647	-13.77
660.679	-13.77
660.711	-4.77
660.743	-20.77
660.776	-8.77
660.808	-5.77
660.84	5.23
660.873	35.23
660.905	3.23
660.937	14.23
660.969	3.23
661.002	18.23
661.034	30.23
661.066	6.23
661.099	8.23
661.131	29.23
661.163	17.23
661.195	6.23
661.228	20.23
661.26	2.23
661.292	3.23
661.324	2.23
661.357	3.23
661.389	3.23
661.421	18.23
661.453	4.23
661.485	21.23
661.518	9.23
661.55	-14.77
661.582	-1.77
661.614	5.23
661.647	-7.77
661.679	-1.77
661.711	15.23
661.743	-5.77
661.775	14.23
661.808	32.23
661.84	-6.77
661.872	9.23
661.904	-0.77
661.936	5.23
661.969	3.23
662.001	2.23
662.033	17.23
662.065	13.23
662.097	23.23
662.129	12.23
662.162	0.23
662.194	6.23
662.226	1.23
662.258	-1.77
662.29	-8.77
662.322	0.23
662.355	-11.77
662.387	22.23
662.419	21.23
662.451	26.23
662.483	14.23
662.515	8.23
662.547	9.23
662.58	6.23
662.612	11.23
662.644	-4.77
662.676	12.23
662.708	15.23
662.74	3.23
662.772	3.23
662.804	5.23
662.836	12.23
662.869	14.23
662.901	17.23
662.933	11.23
662.965	9.23
662.997	13.23
663.029	11.23
663.061	-9.77
663.093	-8.77
663.125	-0.77
663.157	6.23
663.189	6.23
663.221	11.23
663.254	2.23
663.286	-2.77
663.318	8.23
663.35	16.23
663.382	-2.77
663.414	3.23
663.446	17.23
663.478	-13.77
663.51	25.23
663.542	-20.77
663.574	9.23
663.606	11.23
663.638	5.23
663.67	-7.77
663.702	-3.77
663.734	3.23
663.766	-0.77
663.798	-2.77
663.83	-1.77
663.862	15.23
663.894	11.23
663.926	-2.77
663.958	2.23
663.99	-1.77
664.022	-5.77
664.054	10.23
664.086	9.23
664.118	-11.77
664.15	-3.77
664.182	6.23
664.214	0.23
664.246	-1.77
664.278	-4.77
664.31	10.23
664.342	7.23
664.374	10.23
664.406	12.23
664.438	7.23
664.47	9.23
664.502	9.23
664.534	11.23
664.566	-2.77
664.598	2.23
664.63	-3.77
664.662	11.23
664.693	-0.77
664.725	5.23
664.757	-5.77
664.789	-14.77
664.821	3.23
664.853	11.23
664.885	16.23
664.917	-2.77
664.949	22.23
664.981	20.23
665.013	15.23
665.045	-5.77
665.076	-0.77
665.108	8.23
665.14	12.23
665.172	0.23
665.204	23.23
665.236	6.23
665.268	18.23
665.3	10.23
665.331	11.23
665.363	8.23
665.395	1.23
665.427	-7.77
665.459	5.23
665.491	-0.77
665.523	14.23
665.555	-1.77
665.586	-3.77
665.618	-5.77
665.65	-4.77
665.682	23.23
665.714	6.23
665.746	-3.77
665.777	0.23
665.809	-5.77
665.841	-8.77
665.873	1.23
665.905	7.23
665.937	6.23
665.968	6.23
666	4.23
666.032	11.23
666.064	2.23
666.096	8.23
666.127	17.23
666.159	1.23
666.191	11.23
666.223	1.23
666.255	-1.77
666.286	-6.77
666.318	14.23
666.35	34.23
666.382	19.23
666.413	-8.77
666.445	6.23
666.477	-3.77
666.509	-3.77
666.54	5.23
666.572	-13.77
666.604	-17.77
666.636	3.23
666.667	14.23
666.699	23.23
666.731	7.23
666.763	4.23
666.794	3.23
666.826	-0.77
666.858	-0.77
666.89	22.23
666.921	1.23
666.953	-4.77
666.985	8.23
667.017	11.23
667.048	10.23
667.08	-1.77
667.112	-7.77
667.143	-6.77
667.175	10.23
667.207	6.23
667.238	2.23
667.27	11.23
667.302	15.23
667.334	1.23
667.365	28.23
667.397	13.23
667.429	-6.77
667.46	9.23
667.492	-1.77
667.524	0.23
667.555	-3.77
667.587	-0.77
667.619	-12.77
667.65	-8.77
667.682	5.23
667.714	29.23
667.745	-5.77
667.777	4.23
667.808	14.23
667.84	8.23
667.872	15.23
667.903	25.23
667.935	0.23
667.967	10.23
667.998	5.23
668.03	-4.77
668.061	5.23
668.093	-12.77
668.125	6.23
668.156	2.23
668.188	-12.77
668.22	-2.77
668.251	-7.77
668.283	1.23
668.314	25.23
668.346	5.23
668.377	23.23
668.409	19.23
668.441	20.23
668.472	20.23
668.504	5.23
668.535	-2.77
668.567	5.23
668.599	2.23
668.63	6.23
668.662	9.23
668.693	21.23
668.725	-5.77
668.756	2.23
668.788	11.23
668.819	8.23
668.851	7.23
668.882	9.23
668.914	8.23
668.946	-4.77
668.977	-13.77
669.009	7.23
669.04	-19.77
669.072	7.23
669.103	17.23
669.135	2.23
669.166	7.23
669.198	4.23
669.229	2.23
669.261	14.23
669.292	-1.77
669.324	9.23
669.355	2.23
669.387	-7.77
669.418	0.23
669.45	6.23
669.481	3.23
669.513	-4.77
669.544	2.23
669.576	0.23
669.607	17.23
669.639	20.23
669.67	-4.77
669.701	14.23
669.733	-0.77
669.764	14.23
669.796	4.23
669.827	4.23
669.859	-1.77
669.89	10.23
669.922	7.23
669.953	-0.77
669.985	3.23
670.016	-1.77
670.047	-10.77
670.079	-8.77
670.11	-0.77
670.142	-3.77
670.173	7.23
670.204	14.23
670.236	13.23
670.267	-17.77
670.299	-3.77
670.33	0.23
670.362	5.23
670.393	-13.77
670.424	19.23
670.456	-22.77
670.487	-1.77
670.518	5.23
670.55	7.23
670.581	20.23
670.613	8.23
670.644	-0.77
670.675	-0.77
670.707	17.23
670.738	9.23
670.769	-0.77
670.801	-12.77
670.832	-2.77
670.864	-14.77
670.895	14.23
670.926	18.23
670.958	-4.77
670.989	3.23
671.02	15.23
671.052	10.23
671.083	9.23
671.114	3.23
671.146	8.23
671.177	0.23
671.208	2.23
671.24	-9.77
671.271	-15.77
671.302	6.23
671.333	-2.77
671.365	-14.77
671.396	4.23
671.427	10.23
671.459	5.23
671.49	11.23
671.521	6.23
671.553	12.23
671.584	9.23
671.615	5.23
671.646	7.23
671.678	9.23
671.709	-3.77
671.74	-20.77
671.771	1.23
671.803	-0.77
671.834	-3.77
671.865	8.23
671.896	12.23
671.928	6.23
671.959	2.23
671.99	10.23
672.021	-0.77
672.053	5.23
672.084	12.23
672.115	-13.77
672.146	1.23
672.178	-21.77
672.209	-3.77
672.24	-9.77
672.271	28.23
672.303	10.23
672.334	12.23
672.365	-3.77
672.396	0.23
672.427	14.23
672.459	13.23
672.49	20.23
672.521	0.23
672.552	3.23
672.583	-2.77
672.615	5.23
672.646	19.23
672.677	1.23
672.708	-2.77
672.739	-12.77
672.77	6.23
672.802	8.23
672.833	9.23
672.864	7.23
672.895	6.23
672.926	4.23
672.957	-7.77
672.989	-8.77
673.02	-10.77
673.051	-17.77
673.082	1.23
673.113	-1.77
673.144	15.23
673.175	5.23
673.206	-10.77
673.238	9.23
673.269	16.23
673.3	-1.77
673.331	11.23
673.362	7.23
673.393	11.23
673.424	9.23
673.455	27.23
673.487	25.23
673.518	24.23
673.549	6.23
673.58	-12.77
673.611	19.23
673.642	2.23
673.673	-3.77
673.704	-1.77
673.735	-7.77
673.766	-4.77
673.797	8.23
673.828	17.23
673.86	1.23
673.891	-10.77
673.922	-16.77
673.953	-6.77
673.984	16.23
674.015	1.23
674.046	10.23
674.077	-0.77
674.108	8.23
674.139	2.23
674.17	-8.77
674.201	-13.77
674.232	4.23
674.263	2.23
674.294	-9.77
674.325	-7.77
674.356	7.23
674.387	25.23
674.418	15.23
674.449	20.23
674.48	0.23
674.511	5.23
674.542	-1.77
674.573	10.23
674.604	23.23
674.635	0.23
674.666	16.23
674.697	15.23
674.728	-1.77
674.759	-1.77
674.79	-17.77
674.821	0.23
674.852	-2.77
674.883	-0.77
674.914	7.23
674.945	20.23
674.976	13.23
675.007	18.23
675.038	-7.77
675.069	-2.77
675.1	0.23
675.131	6.23
675.162	-11.77
675.193	-1.77
675.224	6.23
675.254	17.23
675.285	14.23
675.316	25.23
675.347	14.23
675.378	6.23
675.409	-8.77
675.44	-2.77
675.471	18.23
675.502	7.23
675.533	7.23
675.564	10.23
675.595	3.23
675.625	18.23
675.656	11.23
675.687	8.23
675.718	7.23
675.749	11.23
675.78	8.23
675.811	-5.77
675.842	5.23
675.873	-0.77
675.903	-13.77
675.934	-5.77
675.965	-10.77
675.996	-1.77
676.027	10.23
676.058	-0.77
676.089	-7.77
676.119	10.23
676.15	7.23
676.181	10.23
676.212	8.23
676.243	19.23
676.274	-2.77
676.304	9.23
676.335	-15.77
676.366	0.23
676.397	16.23
676.428	5.23
676.459	13.23
676.489	12.23
676.52	1.23
676.551	14.23
676.582	17.23
676.613	13.23
676.643	4.23
676.674	10.23
676.705	2.23
676.736	-3.77
676.767	22.23
676.797	16.23
676.828	2.23
676.859	13.23
676.89	-0.77
676.92	2.23
676.951	12.23
676.982	-1.77
677.013	-2.77
677.044	0.23
677.074	27.23
677.105	6.23
677.136	16.23
677.167	-0.77
677.197	8.23
677.228	4.23
677.259	3.23
677.289	3.23
677.32	-13.77
677.351	-10.77
677.382	3.23
677.412	4.23
677.443	17.23
677.474	2.23
677.505	-3.77
677.535	8.23
677.566	11.23
677.597	-7.77
677.627	0.23
677.658	-4.77
677.689	5.23
677.72	9.23
677.75	2.23
677.781	4.23
677.812	12.23
677.842	22.23
677.873	24.23
677.904	6.23
677.934	17.23
677.965	-0.77
677.996	-8.77
678.026	4.23
678.057	17.23
678.088	8.23
678.118	6.23
678.149	-11.77
678.18	4.23
678.21	6.23
678.241	19.23
678.272	12.23
678.302	33.23
678.333	10.23
678.363	3.23
678.394	11.23
678.425	1.23
678.455	15.23
678.486	21.23
678.517	19.23
678.547	13.23
678.578	3.23
678.608	10.23
678.639	6.23
678.67	3.23
678.7	-2.77
678.731	-3.77
678.761	-0.77
678.792	11.23
678.823	11.23
678.853	-8.77
678.884	-14.77
678.914	14.23
678.945	6.23
678.975	-7.77
679.006	12.23
679.037	7.23
679.067	22.23
679.098	4.23
679.128	-1.77
679.159	6.23
679.189	6.23
679.22	-6.77
679.25	16.23
679.281	8.23
679.312	9.23
679.342	10.23
679.373	23.23
679.403	4.23
679.434	3.23
679.464	8.23
679.495	-3.77
679.525	3.23
679.556	-0.77
679.586	7.23
679.617	18.23
679.647	5.23
679.678	8.23
679.708	8.23
679.739	13.23
679.769	-0.77
679.8	-0.77
679.83	21.23
679.861	8.23
679.891	13.23
679.922	-9.77
679.952	10.23
679.983	8.23
680.013	10.23
680.044	-2.77
680.074	0.23
680.105	-1.77
680.135	14.23
680.165	-3.77
680.196	0.23
680.226	-2.77
680.257	15.23
680.287	9.23
680.318	4.23
680.348	0.23
680.379	28.23
680.409	29.23
680.439	7.23
680.47	1.23
680.5	9.23
680.531	3.23
680.561	23.23
680.592	10.23
680.622	32.23
680.652	2.23
680.683	10.23
680.713	-3.77
680.744	-5.77
680.774	-4.77
680.804	19.23
680.835	4.23
680.865	2.23
680.896	41.23
680.926	28.23
680.956	27.23
680.987	7.23
681.017	-1.77
681.047	18.23
681.078	3.23
681.108	-3.77
681.139	6.23
681.169	22.23
681.199	1.23
681.23	3.23
681.26	1.23
681.29	3.23
681.321	-4.77
681.351	9.23
681.381	9.23
681.412	13.23
681.442	9.23
681.472	20.23
681.503	27.23
681.533	12.23
681.563	7.23
681.594	-2.77
681.624	13.23
681.654	-10.77
681.685	-0.77
681.715	7.23
681.745	-12.77
681.775	8.23
681.806	4.23
681.836	0.23
681.866	-5.77
681.897	-11.77
681.927	-17.77
681.957	-12.77
681.987	26.23
682.018	11.23
682.048	11.23
682.078	14.23
682.109	23.23
682.139	14.23
682.169	3.23
682.199	-1.77
682.23	-14.77
682.26	1.23
682.29	0.23
682.32	10.23
682.351	6.23
682.381	16.23
682.411	15.23
682.441	-2.77
682.472	-6.77
682.502	0.23
682.532	-0.77
682.562	16.23
682.592	11.23
682.623	0.23
682.653	8.23
682.683	-1.77
682.713	4.23
682.743	-0.77
682.774	0.23
682.804	20.23
682.834	18.23
682.864	7.23
682.894	2.23
682.925	-2.77
682.955	3.23
682.985	2.23
683.015	5.23
683.045	9.23
683.076	1.23
683.106	5.23
683.136	-2.77
683.166	2.23
683.196	6.23
683.226	-0.77
683.257	4.23
683.287	7.23
683.317	3.23
683.347	-5.77
683.377	-22.77
683.407	4.23
683.437	39.23
683.468	16.23
683.498	8.23
683.528	0.23
683.558	0.23
683.588	3.23
683.618	-9.77
683.648	-7.77
683.678	2.23
683.708	22.23
683.739	17.23
683.769	12.23
683.799	2.23
683.829	-7.77
683.859	0.23
683.889	-1.77
683.919	-0.77
683.949	2.23
683.979	-3.77
684.009	-4.77
684.039	3.23
684.07	-12.77
684.1	25.23
684.13	1.23
684.16	-3.77
684.19	-1.77
684.22	1.23
684.25	-8.77
684.28	-13.77
684.31	11.23
684.34	11.23
684.37	1.23
684.4	-7.77
684.43	16.23
684.46	25.23
684.49	7.23
684.52	6.23
684.55	26.23
684.58	0.23
684.61	1.23
684.64	11.23
684.67	17.23
684.7	2.23
684.73	6.23
684.76	0.23
684.79	12.23
684.82	1.23
684.85	-3.77
684.88	10.23
684.91	3.23
684.94	11.23
684.97	0.23
685	11.23
685.03	5.23
685.06	1.23
685.09	6.23
685.12	19.23
685.15	9.23
685.18	11.23
685.21	11.23
685.24	4.23
685.27	13.23
685.3	5.23
685.33	14.23
685.36	-1.77
685.39	7.23
685.42	-2.77
685.45	-1.77
685.48	16.23
685.51	13.23
685.54	22.23
685.569	15.23
685.599	5.23
685.629	30.23
685.659	8.23
685.689	5.23
685.719	6.23
685.749	-1.77
685.779	7.23
685.809	5.23
685.839	11.23
685.869	19.23
685.898	9.23
685.928	9.23
685.958	-8.77
685.988	19.23
686.018	4.23
686.048	12.23
686.078	26.23
686.108	19.23
686.137	4.23
686.167	20.23
686.197	-0.77
686.227	-6.77
686.257	26.23
686.287	23.23
686.317	14.23
686.346	3.23
686.376	1.23
686.406	-4.77
686.436	20.23
686.466	0.23
686.496	11.23
686.525	-0.77
686.555	10.23
686.585	25.23
686.615	37.23
686.645	12.23
686.675	0.23
686.704	11.23
686.734	13.23
686.764	2.23
686.794	-7.77
686.824	12.23
686.853	22.23
686.883	-7.77
686.913	15.23
686.943	15.23
686.973	7.23
687.002	17.23
687.032	18.23
687.062	0.23
687.092	16.23
687.121	6.23
687.151	13.23
687.181	10.23
687.211	22.23
687.24	2.23
687.27	11.23
687.3	4.23
687.33	1.23
687.359	-12.77
687.389	9.23
687.419	20.23
687.449	-9.77
687.478	0.23
687.508	4.23
687.538	16.23
687.568	7.23
687.597	-3.77
687.627	23.23
687.657	15.23
687.686	1.23
687.716	31.23
687.746	4.23
687.776	-9.77
687.805	16.23
687.835	11.23
687.865	9.23
687.894	17.23
687.924	10.23
687.954	11.23
687.983	14.23
688.013	15.23
688.043	21.23
688.072	-1.77
688.102	-2.77
688.132	2.23
688.161	12.23
688.191	18.23
688.221	25.23
688.25	-7.77
688.28	8.23
688.31	6.23
688.339	10.23
688.369	-11.77
688.399	8.23
688.428	13.23
688.458	6.23
688.488	-3.77
688.517	13.23
688.547	1.23
688.576	25.23
688.606	6.23
688.636	6.23
688.665	5.23
688.695	6.23
688.725	9.23
688.754	7.23
688.784	3.23
688.813	26.23
688.843	6.23
688.873	-0.77
688.902	7.23
688.932	3.23
688.961	17.23
688.991	23.23
689.02	7.23
689.05	10.23
689.08	17.23
689.109	9.23
689.139	5.23
689.168	12.23
689.198	-3.77
689.227	4.23
689.257	-1.77
689.287	15.23
689.316	7.23
689.346	10.23
689.375	2.23
689.405	27.23
689.434	1.23
689.464	11.23
689.493	-4.77
689.523	7.23
689.552	-0.77
689.582	10.23
689.611	1.23
689.641	26.23
689.67	9.23
689.7	3.23
689.73	-4.77
689.759	4.23
689.789	15.23
689.818	2.23
689.848	15.23
689.877	22.23
689.906	13.23
689.936	-9.77
689.965	16.23
689.995	23.23
690.024	22.23
690.054	10.23
690.083	4.23
690.113	-0.77
690.142	-0.77
690.172	6.23
690.201	13.23
690.231	-2.77
690.26	15.23
690.29	16.23
690.319	3.23
690.348	-0.77
690.378	-9.77
690.407	12.23
690.437	-3.77
690.466	-14.77
690.496	5.23
690.525	7.23
690.555	-2.77
690.584	18.23
690.613	6.23
690.643	9.23
690.672	16.23
690.702	14.23
690.731	18.23
690.76	22.23
690.79	45.23
690.819	55.23
690.849	45.23
690.878	27.23
690.907	41.23
690.937	28.23
690.966	34.23
690.996	12.23
691.025	9.23
691.054	1.23
691.084	4.23
691.113	11.23
691.142	16.23
691.172	13.23
691.201	23.23
691.23	9.23
691.26	18.23
691.289	3.23
691.319	6.23
691.348	10.23
691.377	8.23
691.407	11.23
691.436	4.23
691.465	9.23
691.495	6.23
691.524	-3.77
691.553	7.23
691.583	2.23
691.612	21.23
691.641	-1.77
691.67	3.23
691.7	14.23
691.729	-5.77
691.758	7.23
691.788	18.23
691.817	1.23
691.846	-5.77
691.876	-4.77
691.905	-4.77
691.934	6.23
691.963	15.23
691.993	13.23
692.022	1.23
692.051	-1.77
692.081	6.23
692.11	34.23
692.139	24.23
692.168	4.23
692.198	19.23
692.227	12.23
692.256	22.23
692.285	-1.77
692.315	-4.77
692.344	-3.77
692.373	8.23
692.402	8.23
692.432	9.23
692.461	4.23
692.49	3.23
692.519	14.23
692.548	26.23
692.578	23.23
692.607	5.23
692.636	-12.77
692.665	7.23
692.694	-4.77
692.724	14.23
692.753	19.23
692.782	18.23
692.811	-0.77
692.84	3.23
692.87	-2.77
692.899	-0.77
692.928	18.23
692.957	14.23
692.986	23.23
693.016	22.23
693.045	11.23
693.074	5.23
693.103	-1.77
693.132	14.23
693.161	22.23
693.191	9.23
693.22	-3.77
693.249	0.23
693.278	5.23
693.307	28.23
693.336	-3.77
693.365	-13.77
693.395	4.23
693.424	11.23
693.453	27.23
693.482	-10.77
693.511	15.23
693.54	25.23
693.569	6.23
693.598	11.23
693.628	18.23
693.657	27.23
693.686	32.23
693.715	9.23
693.744	16.23
693.773	15.23
693.802	17.23
693.831	-3.77
693.86	18.23
693.889	-3.77
693.919	18.23
693.948	9.23
693.977	12.23
694.006	4.23
694.035	5.23
694.064	11.23
694.093	12.23
694.122	5.23
694.151	4.23
694.18	-8.77
694.209	20.23
694.238	7.23
694.267	28.23
694.296	12.23
694.325	0.23
694.354	15.23
694.383	17.23
694.412	0.23
694.441	6.23
694.471	4.23
694.5	-1.77
694.529	4.23
694.558	37.23
694.587	3.23
694.616	2.23
694.645	6.23
694.674	20.23
694.703	14.23
694.732	1.23
694.761	17.23
694.79	20.23
694.819	-0.77
694.848	8.23
694.877	19.23
694.906	24.23
694.935	17.23
694.963	28.23
694.992	-0.77
695.021	15.23
695.05	16.23
695.079	-3.77
695.108	-11.77
695.137	19.23
695.166	14.23
695.195	-2.77
695.224	12.23
695.253	10.23
695.282	-1.77
695.311	18.23
695.34	11.23
695.369	18.23
695.398	10.23
695.427	27.23
695.456	12.23
695.485	-0.77
695.513	8.23
695.542	-1.77
695.571	-13.77
695.6	28.23
695.629	11.23
695.658	11.23
695.687	-5.77
695.716	-0.77
695.745	16.23
695.774	5.23
695.802	8.23
695.831	18.23
695.86	8.23
695.889	22.23
695.918	2.23
695.947	-8.77
695.976	8.23
696.005	18.23
696.033	15.23
696.062	25.23
696.091	-0.77
696.12	13.23
696.149	22.23
696.178	0.23
696.207	1.23
696.235	-7.77
696.264	12.23
696.293	0.23
696.322	9.23
696.351	9.23
696.38	15.23
696.408	10.23
696.437	5.23
696.466	5.23
696.495	11.23
696.524	16.23
696.553	9.23
696.581	34.23
696.61	13.23
696.639	4.23
696.668	10.23
696.697	-1.77
696.725	8.23
696.754	16.23
696.783	15.23
696.812	7.23
696.84	16.23
696.869	10.23
696.898	11.23
696.927	8.23
696.956	27.23
696.984	2.23
697.013	10.23
697.042	-1.77
697.071	13.23
697.099	22.23
697.128	10.23
697.157	12.23
697.186	1.23
697.214	-3.77
697.243	1.23
697.272	-5.77
697.301	10.23
697.329	21.23
697.358	15.23
697.387	33.23
697.415	20.23
697.444	19.23
697.473	9.23
697.502	2.23
697.53	6.23
697.559	1.23
697.588	7.23
697.616	27.23
697.645	5.23
697.674	18.23
697.703	11.23
697.731	11.23
697.76	24.23
697.789	13.23
697.817	17.23
697.846	16.23
697.875	14.23
697.903	15.23
697.932	10.23
697.961	8.23
697.989	13.23
698.018	4.23
698.047	14.23
698.075	29.23
698.104	3.23
698.133	-17.77
698.161	-1.77
698.19	2.23
698.218	-8.77
698.247	20.23
698.276	11.23
698.304	4.23
698.333	11.23
698.362	25.23
698.39	11.23
698.419	9.23
698.447	5.23
698.476	18.23
698.505	21.23
698.533	35.23
698.562	13.23
698.591	1.23
698.619	3.23
698.648	15.23
698.676	9.23
698.705	-7.77
698.733	-4.77
698.762	21.23
698.791	14.23
698.819	-6.77
698.848	12.23
698.876	11.23
698.905	3.23
698.933	9.23
698.962	8.23
698.991	24.23
699.019	29.23
699.048	0.23
699.076	10.23
699.105	-2.77
699.133	-1.77
699.162	14.23
699.19	15.23
699.219	11.23
699.248	8.23
699.276	1.23
699.305	-2.77
699.333	29.23
699.362	11.23
699.39	21.23
699.419	6.23
699.447	7.23
699.476	20.23
699.504	6.23
699.533	12.23
699.561	2.23
699.59	19.23
699.618	3.23
699.647	13.23
699.675	22.23
699.704	8.23
699.732	11.23
699.761	13.23
699.789	-0.77
699.818	13.23
699.846	-6.77
699.874	-7.77
699.903	-10.77
699.931	-1.77
699.96	24.23
699.988	4.23
700.017	7.23
700.045	14.23
700.074	-8.77
700.102	3.23
700.13	4.23
700.159	15.23
700.187	6.23
700.216	19.23
700.244	13.23
700.273	-5.77
700.301	17.23
700.329	13.23
700.358	14.23
700.386	12.23
700.415	10.23
700.443	4.23
700.472	17.23
700.5	5.23
700.528	0.23
700.557	-2.77
700.585	9.23
700.614	9.23
700.642	16.23
700.67	28.23
700.699	19.23
700.727	10.23
700.755	9.23
700.784	4.23
700.812	2.23
700.841	10.23
700.869	10.23
700.897	-3.77
700.926	1.23
700.954	12.23
700.982	18.23
701.011	3.23
701.039	8.23
701.067	-3.77
701.096	23.23
701.124	0.23
701.152	9.23
701.181	7.23
701.209	2.23
701.237	10.23
701.266	1.23
701.294	-6.77
701.322	24.23
701.351	23.23
701.379	-10.77
701.407	3.23
701.435	17.23
701.464	14.23
701.492	37.23
701.52	7.23
701.549	1.23
701.577	-9.77
701.605	1.23
701.634	1.23
701.662	22.23
701.69	9.23
701.718	-2.77
701.747	23.23
701.775	15.23
701.803	-10.77
701.831	9.23
701.86	-4.77
701.888	16.23
701.916	-0.77
701.944	3.23
701.973	-0.77
702.001	-3.77
702.029	-7.77
702.057	-1.77
702.086	2.23
702.114	-0.77
702.142	6.23
702.17	11.23
702.199	12.23
702.227	1.23
702.255	7.23
702.283	6.23
702.311	8.23
702.34	1.23
702.368	-1.77
702.396	11.23
702.424	-0.77
702.452	14.23
702.481	9.23
702.509	2.23
702.537	17.23
702.565	15.23
702.593	-2.77
702.621	26.23
702.65	16.23
702.678	31.23
702.706	18.23
702.734	7.23
702.762	-1.77
702.79	-7.77
702.819	0.23
702.847	-7.77
702.875	10.23
702.903	26.23
702.931	12.23
702.959	6.23
702.988	-1.77
703.016	-2.77
703.044	10.23
703.072	25.23
703.1	1.23
703.128	10.23
703.156	16.23
703.184	-0.77
703.212	9.23
703.241	20.23
703.269	8.23
703.297	8.23
703.325	2.23
703.353	-4.77
703.381	6.23
703.409	13.23
703.437	-5.77
703.465	8.23
703.493	1.23
703.522	11.23
703.55	7.23
703.578	24.23
703.606	15.23
703.634	0.23
703.662	-0.77
703.69	8.23
703.718	5.23
703.746	2.23
703.774	10.23
703.802	25.23
703.83	17.23
703.858	5.23
703.886	-5.77
703.914	20.23
703.942	29.23
703.97	-0.77
703.998	-16.77
704.027	22.23
704.055	16.23
704.083	-0.77
704.111	-1.77
704.139	13.23
704.167	5.23
704.195	-1.77
704.223	1.23
704.251	-7.77
704.279	9.23
704.307	16.23
704.335	2.23
704.363	23.23
704.391	1.23
704.419	1.23
704.447	9.23
704.475	7.23
704.503	10.23
704.531	5.23
704.558	0.23
704.586	5.23
704.614	11.23
704.642	2.23
704.67	-0.77
704.698	6.23
704.726	11.23
704.754	6.23
704.782	4.23
704.81	3.23
704.838	31.23
704.866	22.23
704.894	-0.77
704.922	10.23
704.95	23.23
704.978	34.23
705.006	18.23
705.034	28.23
705.061	-3.77
705.089	-0.77
705.117	-4.77
705.145	-12.77
705.173	-8.77
705.201	3.23
705.229	15.23
705.257	15.23
705.285	14.23
705.313	19.23
705.34	13.23
705.368	9.23
705.396	8.23
705.424	7.23
705.452	8.23
705.48	9.23
705.508	0.23
705.536	-3.77
705.563	-6.77
705.591	8.23
705.619	8.23
705.647	-11.77
705.675	7.23
705.703	6.23
705.731	-3.77
705.758	5.23
705.786	-2.77
705.814	22.23
705.842	11.23
705.87	25.23
705.898	18.23
705.925	-6.77
705.953	3.23
705.981	0.23
706.009	11.23
706.037	13.23
706.065	16.23
706.092	-4.77
706.12	6.23
706.148	7.23
706.176	6.23
706.204	21.23
706.231	5.23
706.259	-7.77
706.287	5.23
706.315	15.23
706.342	-10.77
706.37	7.23
706.398	2.23
706.426	2.23
706.454	5.23
706.481	20.23
706.509	3.23
706.537	7.23
706.565	2.23
706.592	25.23
706.62	20.23
706.648	20.23
706.676	-5.77
706.703	-5.77
706.731	-1.77
706.759	-0.77
706.787	10.23
706.814	22.23
706.842	-2.77
706.87	11.23
706.897	5.23
706.925	-3.77
706.953	10.23
706.981	19.23
707.008	6.23
707.036	13.23
707.064	8.23
707.091	-2.77
707.119	16.23
707.147	-2.77
707.174	-10.77
707.202	23.23
707.23	0.23
707.258	17.23
707.285	2.23
707.313	8.23
707.341	5.23
707.368	-1.77
707.396	1.23
707.424	25.23
707.451	14.23
707.479	25.23
707.507	4.23
707.534	-8.77
707.562	6.23
707.59	-9.77
707.617	-4.77
707.645	8.23
707.672	2.23
707.7	1.23
707.728	8.23
707.755	17.23
707.783	18.23
707.811	5.23
707.838	2.23
707.866	14.23
707.893	14.23
707.921	3.23
707.949	-1.77
707.976	7.23
708.004	20.23
708.031	9.23
708.059	-5.77
708.087	8.23
708.114	10.23
708.142	6.23
708.169	-4.77
708.197	-10.77
708.225	29.23
708.252	1.23
708.28	38.23
708.307	26.23
708.335	3.23
708.362	-6.77
708.39	4.23
708.418	9.23
708.445	-14.77
708.473	-18.77
708.5	-0.77
708.528	-3.77
708.555	-0.77
708.583	4.23
708.61	2.23
708.638	2.23
708.665	2.23
708.693	10.23
708.72	2.23
708.748	-12.77
708.776	2.23
708.803	14.23
708.831	19.23
708.858	18.23
708.886	9.23
708.913	10.23
708.941	2.23
708.968	9.23
708.996	-8.77
709.023	39.23
709.051	6.23
709.078	17.23
709.105	8.23
709.133	6.23
709.16	12.23
709.188	26.23
709.215	7.23
709.243	28.23
709.27	6.23
709.298	1.23
709.325	0.23
709.353	9.23
709.38	3.23
709.408	-8.77
709.435	13.23
709.462	2.23
709.49	15.23
709.517	18.23
709.545	3.23
709.572	-2.77
709.6	-7.77
709.627	15.23
709.655	9.23
709.682	11.23
709.709	-5.77
709.737	14.23
709.764	-1.77
709.792	15.23
709.819	-4.77
709.846	5.23
709.874	14.23
709.901	13.23
709.929	26.23
709.956	21.23
709.983	-3.77
710.011	-2.77
710.038	10.23
710.066	21.23
710.093	21.23
710.12	11.23
710.148	7.23
710.175	8.23
710.202	13.23
710.23	17.23
710.257	14.23
710.284	12.23
710.312	3.23
710.339	11.23
710.366	11.23
710.394	-1.77
710.421	6.23
710.448	11.23
710.476	-6.77
710.503	19.23
710.53	19.23
710.558	20.23
710.585	28.23
710.612	4.23
710.64	1.23
710.667	1.23
710.694	12.23
710.722	15.23
710.749	2.23
710.776	-4.77
710.804	11.23
710.831	9.23
710.858	0.23
710.885	-0.77
710.913	2.23
710.94	16.23
710.967	-3.77
710.995	11.23
711.022	0.23
711.049	1.23
711.076	2.23
711.104	9.23
711.131	-9.77
711.158	6.23
711.185	7.23
711.213	-7.77
711.24	3.23
711.267	2.23
711.294	2.23
711.322	18.23
711.349	13.23
711.376	1.23
711.403	0.23
711.431	11.23
711.458	9.23
711.485	-8.77
711.512	23.23
711.54	15.23
711.567	-4.77
711.594	-8.77
711.621	2.23
711.648	11.23
711.676	1.23
711.703	2.23
711.73	-14.77
711.757	3.23
711.784	8.23
711.812	3.23
711.839	3.23
711.866	7.23
711.893	1.23
711.92	-4.77
711.947	5.23
711.975	6.23
712.002	9.23
712.029	20.23
712.056	20.23
712.083	23.23
712.11	-4.77
712.138	11.23
712.165	9.23
712.192	10.23
712.219	-0.77
712.246	-11.77
712.273	-9.77
712.3	6.23
712.328	13.23
712.355	21.23
712.382	-2.77
712.409	16.23
712.436	-0.77
712.463	21.23
712.49	24.23
712.517	6.23
712.544	5.23
712.572	-2.77
712.599	-20.77
712.626	2.23
712.653	-2.77
712.68	-4.77
712.707	9.23
712.734	6.23
712.761	13.23
712.788	7.23
712.815	5.23
712.842	20.23
712.87	7.23
712.897	-0.77
712.924	-6.77
712.951	16.23
712.978	10.23
713.005	30.23
713.032	13.23
713.059	7.23
713.086	3.23
713.113	6.23
713.14	10.23
713.167	1.23
713.194	17.23
713.221	5.23
713.248	9.23
713.275	-7.77
713.302	-0.77
713.329	-6.77
713.356	30.23
713.383	20.23
713.41	-2.77
713.437	-4.77
713.464	14.23
713.491	13.23
713.518	8.23
713.545	-0.77
713.572	5.23
713.599	21.23
713.626	4.23
713.653	16.23
713.68	6.23
713.707	-5.77
713.734	0.23
713.761	-8.77
713.788	3.23
713.815	8.23
713.842	6.23
713.869	9.23
713.896	5.23
713.923	6.23
713.95	9.23
713.977	4.23
714.004	9.23
714.031	4.23
714.058	-15.77
714.085	-1.77
714.112	3.23
714.139	-2.77
714.165	0.23
714.192	-7.77
714.219	6.23
714.246	11.23
714.273	5.23
714.3	2.23
714.327	14.23
714.354	5.23
714.381	-4.77
714.408	7.23
714.435	9.23
714.461	4.23
714.488	13.23
714.515	6.23
714.542	-1.77
714.569	-4.77
714.596	-10.77
714.623	13.23
714.65	-0.77
714.677	8.23
714.703	8.23
714.73	19.23
714.757	2.23
714.784	2.23
714.811	-6.77
714.838	16.23
714.865	15.23
714.891	30.23
714.918	1.23
714.945	-12.77
714.972	9.23
714.999	26.23
715.026	5.23
715.052	14.23
715.079	-6.77
715.106	18.23
715.133	13.23
715.16	4.23
715.187	9.23
715.213	1.23
715.24	-4.77
715.267	5.23
715.294	7.23
715.321	-2.77
715.347	-0.77
715.374	-3.77
715.401	1.23
715.428	-4.77
715.455	19.23
715.481	3.23
715.508	5.23
715.535	1.23
715.562	29.23
715.588	11.23
715.615	13.23
715.642	13.23
715.669	18.23
715.695	-1.77
715.722	2.23
715.749	3.23
715.776	16.23
715.802	14.23
715.829	-1.77
715.856	-7.77
715.883	9.23
715.909	-7.77
715.936	36.23
715.963	6.23
715.99	-11.77
716.016	-13.77
716.043	7.23
716.07	11.23
716.096	2.23
716.123	2.23
716.15	8.23
716.177	7.23
716.203	16.23
716.23	17.23
716.257	10.23
716.283	7.23
716.31	-1.77
716.337	4.23
716.363	7.23
716.39	-3.77
716.417	-1.77
716.443	-2.77
716.47	22.23
716.497	25.23
716.523	23.23
716.55	2.23
716.577	16.23
716.603	-1.77
716.63	15.23
716.657	7.23
716.683	-9.77
716.71	-0.77
716.737	17.23
716.763	7.23
716.79	6.23
716.817	19.23
716.843	6.23
716.87	0.23
716.897	-5.77
716.923	19.23
716.95	-3.77
716.976	-17.77
717.003	-2.77
717.03	8.23
717.056	30.23
717.083	2.23
717.109	5.23
717.136	11.23
717.163	7.23
717.189	14.23
717.216	13.23
717.242	6.23
717.269	-5.77
717.296	9.23
717.322	11.23
717.349	18.23
717.375	7.23
717.402	-0.77
717.428	9.23
717.455	18.23
717.481	16.23
717.508	19.23
717.535	15.23
717.561	11.23
717.588	-2.77
717.614	14.23
717.641	2.23
717.667	5.23
717.694	22.23
717.72	-6.77
717.747	5.23
717.773	14.23
717.8	16.23
717.826	21.23
717.853	15.23
717.88	21.23
717.906	10.23
717.933	15.23
717.959	14.23
717.986	11.23
718.012	-0.77
718.039	10.23
718.065	14.23
718.092	17.23
718.118	-0.77
718.144	-2.77
718.171	19.23
718.197	21.23
718.224	10.23
718.25	-0.77
718.277	10.23
718.303	-1.77
718.33	12.23
718.356	-10.77
718.383	-2.77
718.409	-12.77
718.436	-4.77
718.462	-8.77
718.489	-4.77
718.515	6.23
718.541	33.23
718.568	16.23
718.594	9.23
718.621	8.23
718.647	2.23
718.674	17.23
718.7	18.23
718.726	5.23
718.753	14.23
718.779	21.23
718.806	11.23
718.832	6.23
718.858	6.23
718.885	-7.77
718.911	5.23
718.938	17.23
718.964	-3.77
718.99	-0.77
719.017	21.23
719.043	3.23
719.07	24.23
719.096	14.23
719.122	21.23
719.149	8.23
719.175	3.23
719.201	26.23
719.228	5.23
719.254	3.23
719.281	-9.77
719.307	0.23
719.333	-0.77
719.36	21.23
719.386	6.23
719.412	19.23
719.439	7.23
719.465	-3.77
719.491	-4.77
719.518	13.23
719.544	6.23
719.57	2.23
719.597	2.23
719.623	-2.77
719.649	7.23
719.675	5.23
719.702	6.23
719.728	15.23
719.754	-11.77
719.781	-0.77
719.807	5.23
719.833	-2.77
719.86	7.23
719.886	7.23
719.912	0.23
719.938	-1.77
719.965	6.23
719.991	8.23
720.017	1.23
720.044	-2.77
720.07	9.23
720.096	7.23
720.122	4.23
720.149	12.23
720.175	28.23
720.201	15.23
720.227	0.23
720.254	15.23
720.28	4.23
720.306	-0.77
720.332	6.23
720.359	2.23
720.385	24.23
720.411	-5.77
720.437	20.23
720.463	12.23
720.49	5.23
720.516	-13.77
720.542	-14.77
720.568	9.23
720.595	7.23
720.621	18.23
720.647	11.23
720.673	27.23
720.699	5.23
720.725	2.23
720.752	2.23
720.778	19.23
720.804	21.23
720.83	14.23
720.856	3.23
720.883	-12.77
720.909	5.23
720.935	9.23
720.961	18.23
720.987	10.23
721.013	12.23
721.04	2.23
721.066	-2.77
721.092	-6.77
721.118	5.23
721.144	1.23
721.17	1.23
721.196	9.23
721.223	-4.77
721.249	1.23
721.275	12.23
721.301	20.23
721.327	1.23
721.353	11.23
721.379	6.23
721.405	11.23
721.432	20.23
721.458	10.23
721.484	7.23
721.51	-9.77
721.536	6.23
721.562	11.23
721.588	9.23
721.614	-6.77
721.64	10.23
721.666	11.23
721.693	10.23
721.719	9.23
721.745	6.23
721.771	-12.77
721.797	2.23
721.823	3.23
721.849	14.23
721.875	20.23
721.901	20.23
721.927	15.23
721.953	18.23
721.979	22.23
722.005	30.23
722.031	12.23
722.057	6.23
722.083	6.23
722.109	16.23
722.135	17.23
722.161	12.23
722.187	13.23
722.214	-0.77
722.24	-1.77
722.266	-0.77
722.292	6.23
722.318	21.23
722.344	-0.77
722.37	-8.77
722.396	4.23
722.422	-3.77
722.448	8.23
722.474	-14.77
722.5	24.23
722.526	18.23
722.552	7.23
722.578	10.23
722.603	9.23
722.629	-4.77
722.655	2.23
722.681	4.23
722.707	-7.77
722.733	1.23
722.759	-2.77
722.785	-0.77
722.811	-5.77
722.837	14.23
722.863	19.23
722.889	29.23
722.915	0.23
722.941	14.23
722.967	3.23
722.993	7.23
723.019	6.23
723.045	1.23
723.071	6.23
723.097	12.23
723.122	5.23
723.148	-0.77
723.174	9.23
723.2	-16.77
723.226	14.23
723.252	10.23
723.278	-11.77
723.304	13.23
723.33	9.23
723.356	-3.77
723.381	-9.77
723.407	-0.77
723.433	3.23
723.459	-7.77
723.485	17.23
723.511	18.23
723.537	10.23
723.563	-3.77
723.588	-3.77
723.614	11.23
723.64	1.23
723.666	6.23
723.692	30.23
723.718	5.23
723.744	6.23
723.769	13.23
723.795	-7.77
723.821	2.23
723.847	0.23
723.873	7.23
723.899	8.23
723.924	1.23
723.95	13.23
723.976	3.23
724.002	19.23
724.028	9.23
724.053	12.23
724.079	7.23
724.105	-1.77
724.131	2.23
724.157	2.23
724.182	9.23
724.208	0.23
724.234	31.23
724.26	-1.77
724.286	24.23
724.311	15.23
724.337	-9.77
724.363	-2.77
724.389	2.23
724.415	-1.77
724.44	24.23
724.466	-1.77
724.492	-7.77
724.518	24.23
724.543	-5.77
724.569	4.23
724.595	2.23
724.621	1.23
724.646	-2.77
724.672	-2.77
724.698	3.23
724.723	13.23
724.749	2.23
724.775	18.23
724.801	14.23
724.826	-2.77
724.852	4.23
724.878	5.23
724.904	-3.77
724.929	14.23
724.955	-6.77
724.981	-0.77
725.006	-1.77
725.032	9.23
725.058	10.23
725.083	6.23
725.109	17.23
725.135	17.23
725.161	-2.77
725.186	12.23
725.212	3.23
725.238	7.23
725.263	16.23
725.289	1.23
725.315	-0.77
725.34	-0.77
725.366	4.23
725.392	1.23
725.417	3.23
725.443	3.23
725.468	8.23
725.494	6.23
725.52	2.23
725.545	-0.77
725.571	8.23
725.597	4.23
725.622	2.23
725.648	-2.77
725.674	-4.77
725.699	2.23
725.725	15.23
725.75	26.23
725.776	-0.77
725.802	11.23
725.827	22.23
725.853	11.23
725.878	7.23
725.904	-1.77
725.93	10.23
725.955	-20.77
725.981	-4.77
726.006	3.23
726.032	26.23
726.057	12.23
726.083	2.23
726.109	9.23
726.134	0.23
726.16	1.23
726.185	-5.77
726.211	10.23
726.236	14.23
726.262	16.23
726.288	14.23
726.313	18.23
726.339	1.23
726.364	1.23
726.39	22.23
726.415	-2.77
726.441	5.23
726.466	-3.77
726.492	1.23
726.517	17.23
726.543	-3.77
726.568	-9.77
726.594	7.23
726.619	3.23
726.645	17.23
726.67	7.23
726.696	6.23
726.721	-3.77
726.747	-15.77
726.772	-7.77
726.798	1.23
726.823	17.23
726.849	-3.77
726.874	10.23
726.9	33.23
726.925	21.23
726.951	13.23
726.976	12.23
727.002	-2.77
727.027	28.23
727.053	16.23
727.078	-0.77
727.104	4.23
727.129	-6.77
727.155	-7.77
727.18	18.23
727.205	6.23
727.231	-1.77
727.256	13.23
727.282	4.23
727.307	23.23
727.333	10.23
727.358	11.23
727.383	0.23
727.409	6.23
727.434	16.23
727.46	8.23
727.485	7.23
727.511	9.23
727.536	2.23
727.561	3.23
727.587	10.23
727.612	1.23
727.637	13.23
727.663	-2.77
727.688	3.23
727.714	-10.77
727.739	-8.77
727.764	-2.77
727.79	2.23
727.815	5.23
727.841	14.23
727.866	3.23
727.891	1.23
727.917	-5.77
727.942	-3.77
727.967	-13.77
727.993	-16.77
728.018	3.23
728.043	4.23
728.069	15.23
728.094	18.23
728.119	6.23
728.145	21.23
728.17	18.23
728.195	20.23
728.221	25.23
728.246	9.23
728.271	-3.77
728.297	3.23
728.322	2.23
728.347	20.23
728.373	8.23
728.398	7.23
728.423	-6.77
728.448	13.23
728.474	11.23
728.499	25.23
728.524	-2.77
728.55	2.23
728.575	5.23
728.6	22.23
728.625	15.23
728.651	18.23
728.676	5.23
728.701	14.23
728.727	11.23
728.752	4.23
728.777	3.23
728.802	3.23
728.828	12.23
728.853	10.23
728.878	4.23
728.903	9.23
728.929	-1.77
728.954	-2.77
728.979	5.23
729.004	-0.77
729.03	0.23
729.055	18.23
729.08	8.23
729.105	5.23
729.13	22.23
729.156	6.23
729.181	13.23
729.206	-2.77
729.231	-12.77
729.256	10.23
729.282	5.23
729.307	-17.77
729.332	3.23
729.357	0.23
729.382	5.23
729.408	6.23
729.433	8.23
729.458	15.23
729.483	26.23
729.508	16.23
729.533	2.23
729.559	5.23
729.584	2.23
729.609	1.23
729.634	3.23
729.659	1.23
729.684	-1.77
729.71	13.23
729.735	8.23
729.76	11.23
729.785	7.23
729.81	13.23
729.835	-9.77
729.86	2.23
729.886	37.23
729.911	13.23
729.936	4.23
729.961	21.23
729.986	33.23
730.011	52.23
730.036	212.23
730.061	1009.23
730.086	2768.23
730.112	3443.23
730.137	2913.23
730.162	2137.23
730.187	1707.23
730.212	1281.23
730.237	801.23
730.262	474.23
730.287	245.23
730.312	157.23
730.337	67.23
730.362	63.23
730.387	53.23
730.413	26.23
730.438	14.23
730.463	15.23
730.488	11.23
730.513	22.23
730.538	6.23
730.563	14.23
730.588	28.23
730.613	32.23
730.638	18.23
730.663	6.23
730.688	25.23
730.713	16.23
730.738	12.23
730.763	5.23
730.788	0.23
730.813	16.23
730.838	9.23
730.863	2.23
730.888	3.23
730.913	-2.77
730.938	9.23
730.963	22.23
730.988	148.23
731.013	435.23
731.038	641.23
731.063	610.23
731.088	489.23
731.113	350.23
731.138	257.23
731.163	185.23
731.188	114.23
731.213	69.23
731.238	50.23
731.263	32.23
731.288	25.23
731.313	28.23
731.338	14.23
731.363	-1.77
731.388	13.23
731.413	7.23
731.438	11.23
731.463	13.23
731.487	21.23
731.512	-2.77
731.537	2.23
731.562	11.23
731.587	1.23
731.612	5.23
731.637	-10.77
731.662	1.23
731.687	4.23
731.712	-4.77
731.737	12.23
731.762	16.23
731.786	19.23
731.811	14.23
731.836	2.23
731.861	-4.77
731.886	-21.77
731.911	6.23
731.936	20.23
731.961	2.23
731.986	11.23
732.01	25.23
732.035	16.23
732.06	21.23
732.085	9.23
732.11	12.23
732.135	7.23
732.16	2.23
732.184	-0.77
732.209	7.23
732.234	14.23
732.259	19.23
732.284	7.23
732.309	3.23
732.334	16.23
732.358	6.23
732.383	-3.77
732.408	-4.77
732.433	17.23
732.458	6.23
732.482	6.23
732.507	-1.77
732.532	7.23
732.557	21.23
732.582	21.23
732.607	30.23
732.631	54.23
732.656	69.23
732.681	153.23
732.706	344.23
732.73	483.23
732.755	411.23
732.78	309.23
732.805	241.23
732.83	168.23
732.854	145.23
732.879	85.23
732.904	43.23
732.929	17.23
732.953	23.23
732.978	16.23
733.003	-4.77
733.028	-2.77
733.052	11.23
733.077	11.23
733.102	16.23
733.127	7.23
733.151	4.23
733.176	18.23
733.201	11.23
733.226	1.23
733.25	7.23
733.275	10.23
733.3	8.23
733.324	4.23
733.349	13.23
733.374	20.23
733.399	12.23
733.423	-0.77
733.448	-12.77
733.473	4.23
733.497	9.23
733.522	-4.77
733.547	18.23
733.571	17.23
733.596	19.23
733.621	14.23
733.646	-0.77
733.67	10.23
733.695	-3.77
733.72	-4.77
733.744	13.23
733.769	13.23
733.794	27.23
733.818	28.23
733.843	3.23
733.867	1.23
733.892	11.23
733.917	1.23
733.941	-4.77
733.966	-3.77
733.991	-0.77
734.015	3.23
734.04	25.23
734.065	11.23
734.089	19.23
734.114	9.23
734.138	13.23
734.163	21.23
734.188	-5.77
734.212	14.23
734.237	6.23
734.261	-3.77
734.286	1.23
734.311	5.23
734.335	9.23
734.36	2.23
734.384	5.23
734.409	9.23
734.434	1.23
734.458	17.23
734.483	11.23
734.507	-6.77
734.532	1.23
734.556	3.23
734.581	11.23
734.606	1.23
734.63	5.23
734.655	14.23
734.679	10.23
734.704	-3.77
734.728	-5.77
734.753	-1.77
734.777	14.23
734.802	5.23
734.826	-1.77
734.851	9.23
734.876	25.23
734.9	11.23
734.925	18.23
734.949	7.23
734.974	13.23
734.998	14.23
735.023	-5.77
735.047	2.23
735.072	6.23
735.096	5.23
735.121	13.23
735.145	-4.77
735.17	-3.77
735.194	17.23
735.219	-1.77
735.243	9.23
735.268	13.23
735.292	11.23
735.317	5.23
735.341	14.23
735.365	6.23
735.39	21.23
735.414	15.23
735.439	25.23
735.463	2.23
735.488	-5.77
735.512	0.23
735.537	-12.77
735.561	-3.77
735.586	-0.77
735.61	7.23
735.634	15.23
735.659	20.23
735.683	27.23
735.708	6.23
735.732	-0.77
735.757	11.23
735.781	6.23
735.805	6.23
735.83	-11.77
735.854	-5.77
735.879	-2.77
735.903	9.23
735.927	10.23
735.952	9.23
735.976	-0.77
736.001	-1.77
736.025	-2.77
736.049	26.23
736.074	-3.77
736.098	9.23
736.123	13.23
736.147	1.23
736.171	4.23
736.196	12.23
736.22	-8.77
736.244	2.23
736.269	-1.77
736.293	18.23
736.317	-0.77
736.342	15.23
736.366	13.23
736.39	9.23
736.415	15.23
736.439	18.23
736.463	16.23
736.488	12.23
736.512	6.23
736.536	-2.77
736.561	26.23
736.585	2.23
736.609	17.23
736.634	7.23
736.658	15.23
736.682	7.23
736.707	-6.77
736.731	11.23
736.755	-8.77
736.78	18.23
736.804	18.23
736.828	13.23
736.852	3.23
736.877	4.23
736.901	4.23
736.925	2.23
736.949	12.23
736.974	2.23
736.998	-1.77
737.022	9.23
737.047	8.23
737.071	-0.77
737.095	14.23
737.119	17.23
737.144	11.23
737.168	6.23
737.192	6.23
737.216	25.23
737.241	13.23
737.265	13.23
737.289	16.23
737.313	11.23
737.337	21.23
737.362	9.23
737.386	5.23
737.41	10.23
737.434	8.23
737.459	2.23
737.483	9.23
737.507	5.23
737.531	3.23
737.555	12.23
737.58	14.23
737.604	-1.77
737.628	-17.77
737.652	14.23
737.676	-0.77
737.701	1.23
737.725	10.23
737.749	8.23
737.773	10.23
737.797	2.23
737.821	14.23
737.846	15.23
737.87	21.23
737.894	9.23
737.918	16.23
737.942	10.23
737.966	11.23
737.99	8.23
738.015	11.23
738.039	1.23
738.063	-10.77
738.087	7.23
738.111	5.23
738.135	12.23
738.159	9.23
738.184	15.23
738.208	18.23
738.232	5.23
738.256	21.23
738.28	16.23
738.304	27.23
738.328	2.23
738.352	3.23
738.376	-5.77
738.4	4.23
738.425	15.23
738.449	4.23
738.473	26.23
738.497	12.23
738.521	17.23
738.545	16.23
738.569	10.23
738.593	16.23
738.617	13.23
738.641	3.23
738.665	18.23
738.689	17.23
738.713	0.23
738.737	10.23
738.762	14.23
738.786	18.23
738.81	-0.77
738.834	24.23
738.858	1.23
738.882	13.23
738.906	3.23
738.93	18.23
738.954	6.23
738.978	20.23
739.002	7.23
739.026	20.23
739.05	3.23
739.074	1.23
739.098	31.23
739.122	27.23
739.146	2.23
739.17	24.23
739.194	11.23
739.218	-6.77
739.242	-4.77
739.266	-1.77
739.29	21.23
739.314	12.23
739.338	9.23
739.362	18.23
739.386	17.23
739.41	12.23
739.434	5.23
739.458	10.23
739.482	30.23
739.506	19.23
739.53	-0.77
739.554	4.23
739.577	-4.77
739.601	18.23
739.625	-0.77
739.649	10.23
739.673	5.23
739.697	17.23
739.721	-0.77
739.745	7.23
739.769	4.23
739.793	17.23
739.817	-4.77
739.841	-3.77
739.865	-2.77
739.889	-11.77
739.912	11.23
739.936	5.23
739.96	3.23
739.984	2.23
740.008	19.23
740.032	-1.77
740.056	15.23
740.08	1.23
740.104	2.23
740.127	6.23
740.151	8.23
740.175	13.23
740.199	18.23
740.223	58.23
740.247	27.23
740.271	19.23
740.295	2.23
740.318	-2.77
740.342	1.23
740.366	8.23
740.39	1.23
740.414	-1.77
740.438	-2.77
740.461	20.23
740.485	-1.77
740.509	-7.77
740.533	9.23
740.557	-2.77
740.581	8.23
740.604	8.23
740.628	-7.77
740.652	17.23
740.676	5.23
740.7	22.23
740.723	8.23
740.747	10.23
740.771	9.23
740.795	-4.77
740.819	4.23
740.842	19.23
740.866	13.23
740.89	18.23
740.914	6.23
740.938	-6.77
740.961	8.23
740.985	4.23
741.009	0.23
741.033	12.23
741.056	3.23
741.08	-6.77
741.104	-5.77
741.128	-11.77
741.151	15.23
741.175	13.23
741.199	18.23
741.223	15.23
741.246	7.23
741.27	16.23
741.294	13.23
741.318	-4.77
741.341	-2.77
741.365	0.23
741.389	19.23
741.413	22.23
741.436	37.23
741.46	16.23
741.484	7.23
741.507	-18.77
741.531	25.23
741.555	10.23
741.579	11.23
741.602	19.23
741.626	7.23
741.65	11.23
741.673	20.23
741.697	14.23
741.721	5.23
741.744	-17.77
741.768	3.23
741.792	-1.77
741.815	-4.77
741.839	19.23
741.863	15.23
741.886	11.23
741.91	17.23
741.934	18.23
741.957	-11.77
741.981	19.23
742.005	7.23
742.028	-2.77
742.052	-14.77
742.075	10.23
742.099	33.23
742.123	-0.77
742.146	4.23
742.17	6.23
742.194	-6.77
742.217	7.23
742.241	1.23
742.264	7.23
742.288	13.23
742.312	5.23
742.335	15.23
742.359	18.23
742.382	6.23
742.406	9.23
742.43	11.23
742.453	6.23
742.477	-0.77
742.5	5.23
742.524	-11.77
742.548	-3.77
742.571	-8.77
742.595	1.23
742.618	9.23
742.642	1.23
742.665	8.23
742.689	11.23
742.712	13.23
742.736	13.23
742.76	18.23
742.783	4.23
742.807	15.23
742.83	18.23
742.854	-1.77
742.877	-4.77
742.901	8.23
742.924	10.23
742.948	1.23
742.971	17.23
742.995	3.23
743.018	-0.77
743.042	11.23
743.065	1.23
743.089	-5.77
743.112	25.23
743.136	9.23
743.159	-4.77
743.183	0.23
743.206	10.23
743.23	0.23
743.253	15.23
743.277	0.23
743.3	-11.77
743.324	0.23
743.347	13.23
743.371	34.23
743.394	19.23
743.418	29.23
743.441	9.23
743.465	9.23
743.488	20.23
743.512	2.23
743.535	24.23
743.558	0.23
743.582	23.23
743.605	15.23
743.629	34.23
743.652	-4.77
743.676	13.23
743.699	8.23
743.723	13.23
743.746	27.23
743.769	-6.77
743.793	19.23
743.816	22.23
743.84	16.23
743.863	18.23
743.886	15.23
743.91	28.23
743.933	8.23
743.957	11.23
743.98	13.23
744.003	21.23
744.027	-4.77
744.05	8.23
744.074	14.23
744.097	-7.77
744.12	7.23
744.144	-1.77
744.167	18.23
744.19	5.23
744.214	-2.77
744.237	5.23
744.26	14.23
744.284	10.23
744.307	-7.77
744.331	11.23
744.354	2.23
744.377	6.23
744.401	-1.77
744.424	-6.77
744.447	-9.77
744.471	-4.77
