Data from HighRes_mercury_15_13_11_07_2024_HR4C61891__57__15-14-28-886.txt Node

Date: Thu Nov 07 15:14:28 EST 2024
User: crc00042
Spectrometer: HR4C6189
Trigger mode: 4
Integration Time (sec): 1.000000E-1
Scans to average: 1
Electric dark correction enabled: true
Nonlinearity correction enabled: false
Boxcar width: 0
XAxis mode: Wavelengths
Number of Pixels in Spectrum: 3648
>>>>>Begin Spectral Data<<<<<
639.567	-62.23
639.602	-62.23
639.636	-62.23
639.67	-50.23
639.704	-31.23
639.738	2.77
639.773	17.77
639.807	-10.23
639.841	-7.23
639.875	15.77
639.909	1.77
639.943	-23.23
639.978	-2.23
640.012	4.77
640.046	18.77
640.08	-5.23
640.114	3.77
640.148	-17.23
640.182	-10.23
640.217	-18.23
640.251	7.77
640.285	6.77
640.319	-0.23
640.353	-13.23
640.387	-6.23
640.421	-17.23
640.455	-16.23
640.49	-11.23
640.524	-31.23
640.558	18.77
640.592	-1.23
640.626	3.77
640.66	-0.23
640.694	-21.23
640.728	8.77
640.762	11.77
640.796	9.77
640.83	4.77
640.865	-6.23
640.899	3.77
640.933	0.77
640.967	-13.23
641.001	2.77
641.035	4.77
641.069	-6.23
641.103	-24.23
641.137	-27.23
641.171	-15.23
641.205	-7.23
641.239	-8.23
641.273	-6.23
641.307	-1.23
641.341	3.77
641.375	1.77
641.409	-9.23
641.443	-6.23
641.477	-1.23
641.511	-1.23
641.545	-5.23
641.579	0.77
641.614	0.77
641.648	-6.23
641.682	-14.23
641.716	-5.23
641.75	4.77
641.784	-13.23
641.818	-12.23
641.852	1.77
641.886	-4.23
641.919	-2.23
641.953	-14.23
641.987	-24.23
642.021	-6.23
642.055	-4.23
642.089	-0.23
642.123	-13.23
642.157	8.77
642.191	-10.23
642.225	-4.23
642.259	-15.23
642.293	17.77
642.327	-0.23
642.361	11.77
642.395	-16.23
642.429	7.77
642.463	5.77
642.497	13.77
642.531	-9.23
642.565	-12.23
642.599	1.77
642.633	-13.23
642.666	9.77
642.7	9.77
642.734	8.77
642.768	-5.23
642.802	-4.23
642.836	6.77
642.87	-4.23
642.904	-12.23
642.938	-0.23
642.972	-2.23
643.005	-5.23
643.039	-5.23
643.073	0.77
643.107	13.77
643.141	1.77
643.175	2.77
643.209	-8.23
643.243	-15.23
643.276	-10.23
643.31	-19.23
643.344	-20.23
643.378	-15.23
643.412	-2.23
643.446	-1.23
643.48	-3.23
643.513	-1.23
643.547	-9.23
643.581	-14.23
643.615	-6.23
643.649	13.77
643.683	-2.23
643.716	-3.23
643.75	-0.23
643.784	-13.23
643.818	2.77
643.852	-4.23
643.886	-9.23
643.919	-2.23
643.953	-22.23
643.987	-23.23
644.021	-10.23
644.055	-1.23
644.088	-3.23
644.122	-24.23
644.156	-10.23
644.19	-21.23
644.224	-5.23
644.257	-2.23
644.291	2.77
644.325	17.77
644.359	0.77
644.392	-8.23
644.426	16.77
644.46	11.77
644.494	-0.23
644.527	6.77
644.561	10.77
644.595	3.77
644.629	-19.23
644.662	-8.23
644.696	0.77
644.73	-2.23
644.764	-3.23
644.797	-15.23
644.831	-9.23
644.865	3.77
644.899	5.77
644.932	10.77
644.966	0.77
645	3.77
645.033	28.77
645.067	-8.23
645.101	-3.23
645.135	-0.23
645.168	-6.23
645.202	-8.23
645.236	-2.23
645.269	-8.23
645.303	-23.23
645.337	-23.23
645.37	-13.23
645.404	14.77
645.438	-3.23
645.471	-13.23
645.505	-5.23
645.539	-5.23
645.572	-12.23
645.606	-24.23
645.64	-0.23
645.673	0.77
645.707	-7.23
645.741	-7.23
645.774	-12.23
645.808	7.77
645.842	-13.23
645.875	-10.23
645.909	-8.23
645.943	-15.23
645.976	0.77
646.01	22.77
646.043	2.77
646.077	6.77
646.111	2.77
646.144	0.77
646.178	14.77
646.212	-17.23
646.245	-11.23
646.279	-6.23
646.312	-8.23
646.346	5.77
646.38	-9.23
646.413	-2.23
646.447	7.77
646.48	-9.23
646.514	11.77
646.547	-6.23
646.581	-14.23
646.615	-2.23
646.648	-23.23
646.682	-0.23
646.715	-5.23
646.749	14.77
646.782	-13.23
646.816	-20.23
646.85	-5.23
646.883	-20.23
646.917	3.77
646.95	-6.23
646.984	-23.23
647.017	-12.23
647.051	-15.23
647.084	-4.23
647.118	-11.23
647.151	-6.23
647.185	-11.23
647.218	-21.23
647.252	3.77
647.285	-16.23
647.319	-25.23
647.353	2.77
647.386	8.77
647.42	-2.23
647.453	-5.23
647.487	8.77
647.52	0.77
647.553	6.77
647.587	-6.23
647.62	-16.23
647.654	-10.23
647.687	-16.23
647.721	10.77
647.754	-2.23
647.788	-5.23
647.821	-12.23
647.855	6.77
647.888	5.77
647.922	-0.23
647.955	-8.23
647.989	-6.23
648.022	-9.23
648.055	-1.23
648.089	-3.23
648.122	11.77
648.156	-8.23
648.189	-6.23
648.223	1.77
648.256	19.77
648.29	3.77
648.323	-6.23
648.356	-2.23
648.39	-4.23
648.423	5.77
648.457	-6.23
648.49	0.77
648.523	5.77
648.557	-2.23
648.59	-18.23
648.624	-5.23
648.657	-9.23
648.69	13.77
648.724	-3.23
648.757	-9.23
648.791	-0.23
648.824	-18.23
648.857	0.77
648.891	-8.23
648.924	0.77
648.957	15.77
648.991	-22.23
649.024	-3.23
649.057	-19.23
649.091	-22.23
649.124	-4.23
649.158	-10.23
649.191	13.77
649.224	-15.23
649.258	-0.23
649.291	0.77
649.324	-3.23
649.358	-9.23
649.391	1.77
649.424	-7.23
649.458	1.77
649.491	-9.23
649.524	-6.23
649.557	-8.23
649.591	-18.23
649.624	4.77
649.657	-3.23
649.691	6.77
649.724	-3.23
649.757	-8.23
649.791	5.77
649.824	10.77
649.857	-6.23
649.89	-11.23
649.924	-26.23
649.957	-20.23
649.99	-20.23
650.023	-13.23
650.057	-10.23
650.09	-4.23
650.123	-5.23
650.157	8.77
650.19	23.77
650.223	-7.23
650.256	-16.23
650.29	3.77
650.323	-7.23
650.356	8.77
650.389	-9.23
650.423	-25.23
650.456	-18.23
650.489	-7.23
650.522	-2.23
650.555	-3.23
650.589	-5.23
650.622	4.77
650.655	-2.23
650.688	-9.23
650.721	-6.23
650.755	-15.23
650.788	-4.23
650.821	-10.23
650.854	0.77
650.887	8.77
650.921	-2.23
650.954	-14.23
650.987	-5.23
651.02	-21.23
651.053	-18.23
651.087	-6.23
651.12	6.77
651.153	-5.23
651.186	-3.23
651.219	-24.23
651.252	-2.23
651.286	-4.23
651.319	-6.23
651.352	-13.23
651.385	-9.23
651.418	-4.23
651.451	6.77
651.484	-4.23
651.518	-3.23
651.551	3.77
651.584	-10.23
651.617	12.77
651.65	2.77
651.683	0.77
651.716	-1.23
651.749	-16.23
651.783	-13.23
651.816	0.77
651.849	14.77
651.882	-2.23
651.915	-6.23
651.948	-8.23
651.981	-7.23
652.014	-11.23
652.047	-22.23
652.08	-14.23
652.114	-2.23
652.147	-10.23
652.18	-18.23
652.213	15.77
652.246	-14.23
652.279	-12.23
652.312	3.77
652.345	-22.23
652.378	-19.23
652.411	3.77
652.444	-7.23
652.477	-16.23
652.51	-11.23
652.543	-25.23
652.576	-9.23
652.609	-18.23
652.642	-7.23
652.675	4.77
652.709	-7.23
652.742	3.77
652.775	-1.23
652.808	2.77
652.841	0.77
652.874	-4.23
652.907	-7.23
652.94	-23.23
652.973	-14.23
653.006	-16.23
653.039	-20.23
653.072	0.77
653.105	-6.23
653.138	-16.23
653.171	-9.23
653.204	-16.23
653.237	-0.23
653.27	-20.23
653.303	0.77
653.336	1.77
653.368	-15.23
653.401	-15.23
653.434	-9.23
653.467	-9.23
653.5	-23.23
653.533	-19.23
653.566	-26.23
653.599	-7.23
653.632	3.77
653.665	2.77
653.698	-21.23
653.731	-27.23
653.764	-13.23
653.797	-16.23
653.83	7.77
653.863	-14.23
653.896	-1.23
653.929	1.77
653.961	-5.23
653.994	-3.23
654.027	-18.23
654.06	-12.23
654.093	-21.23
654.126	-5.23
654.159	-12.23
654.192	2.77
654.225	-4.23
654.258	-6.23
654.29	-8.23
654.323	-7.23
654.356	-4.23
654.389	-17.23
654.422	-4.23
654.455	-6.23
654.488	-3.23
654.521	-22.23
654.553	-10.23
654.586	2.77
654.619	-7.23
654.652	-23.23
654.685	-5.23
654.718	3.77
654.751	-2.23
654.783	-10.23
654.816	2.77
654.849	-8.23
654.882	-6.23
654.915	-15.23
654.948	-16.23
654.98	-4.23
655.013	-10.23
655.046	-24.23
655.079	-16.23
655.112	-6.23
655.144	-22.23
655.177	9.77
655.21	-11.23
655.243	1.77
655.276	-12.23
655.308	-11.23
655.341	-32.23
655.374	-4.23
655.407	-14.23
655.44	-12.23
655.472	-14.23
655.505	6.77
655.538	-1.23
655.571	-0.23
655.603	-10.23
655.636	-16.23
655.669	-13.23
655.702	-18.23
655.734	-11.23
655.767	-15.23
655.8	-7.23
655.833	-11.23
655.865	-1.23
655.898	-15.23
655.931	-8.23
655.964	-5.23
655.996	-15.23
656.029	2.77
656.062	-7.23
656.095	-15.23
656.127	-18.23
656.16	-13.23
656.193	-0.23
656.225	-8.23
656.258	-10.23
656.291	-0.23
656.324	0.77
656.356	7.77
656.389	-0.23
656.422	3.77
656.454	-17.23
656.487	3.77
656.52	3.77
656.552	-9.23
656.585	-2.23
656.618	7.77
656.65	0.77
656.683	-10.23
656.716	8.77
656.748	-0.23
656.781	1.77
656.814	-25.23
656.846	-10.23
656.879	-13.23
656.912	-21.23
656.944	-10.23
656.977	-29.23
657.01	10.77
657.042	6.77
657.075	-3.23
657.108	-10.23
657.14	12.77
657.173	10.77
657.205	4.77
657.238	5.77
657.271	-1.23
657.303	-8.23
657.336	17.77
657.369	-12.23
657.401	6.77
657.434	7.77
657.466	-0.23
657.499	-4.23
657.532	-22.23
657.564	4.77
657.597	-12.23
657.629	2.77
657.662	-2.23
657.694	-0.23
657.727	-34.23
657.76	7.77
657.792	-3.23
657.825	-12.23
657.857	-10.23
657.89	-3.23
657.922	1.77
657.955	-12.23
657.987	2.77
658.02	26.77
658.053	12.77
658.085	-1.23
658.118	-5.23
658.15	8.77
658.183	17.77
658.215	-11.23
658.248	-18.23
658.28	-6.23
658.313	7.77
658.345	9.77
658.378	-4.23
658.41	-11.23
658.443	-2.23
658.475	-17.23
658.508	-16.23
658.54	-9.23
658.573	-23.23
658.605	-18.23
658.638	-8.23
658.67	-9.23
658.703	-3.23
658.735	-9.23
658.768	-2.23
658.8	-18.23
658.833	7.77
658.865	0.77
658.898	-5.23
658.93	-15.23
658.963	-6.23
658.995	-13.23
659.028	-0.23
659.06	-2.23
659.092	-13.23
659.125	-5.23
659.157	-6.23
659.19	-10.23
659.222	5.77
659.255	-6.23
659.287	-3.23
659.32	-17.23
659.352	-10.23
659.384	1.77
659.417	4.77
659.449	12.77
659.482	11.77
659.514	-24.23
659.546	-15.23
659.579	-10.23
659.611	1.77
659.644	-5.23
659.676	-21.23
659.708	-15.23
659.741	-24.23
659.773	-4.23
659.806	-2.23
659.838	-9.23
659.87	-22.23
659.903	0.77
659.935	-6.23
659.967	9.77
660	1.77
660.032	-32.23
660.065	1.77
660.097	0.77
660.129	-18.23
660.162	-6.23
660.194	-2.23
660.226	2.77
660.259	5.77
660.291	-15.23
660.323	-14.23
660.356	4.77
660.388	-1.23
660.42	-3.23
660.453	6.77
660.485	3.77
660.517	7.77
660.55	3.77
660.582	-13.23
660.614	-8.23
660.647	-9.23
660.679	-13.23
660.711	-2.23
660.743	-13.23
660.776	-6.23
660.808	-15.23
660.84	-8.23
660.873	-16.23
660.905	-4.23
660.937	-12.23
660.969	4.77
661.002	9.77
661.034	14.77
661.066	-3.23
661.099	-6.23
661.131	3.77
661.163	-11.23
661.195	-2.23
661.228	10.77
661.26	-16.23
661.292	-6.23
661.324	-0.23
661.357	2.77
661.389	-2.23
661.421	8.77
661.453	0.77
661.485	-6.23
661.518	2.77
661.55	-19.23
661.582	-18.23
661.614	-14.23
661.647	-8.23
661.679	1.77
661.711	2.77
661.743	-5.23
661.775	-7.23
661.808	17.77
661.84	2.77
661.872	-9.23
661.904	-16.23
661.936	-5.23
661.969	-21.23
662.001	-15.23
662.033	-20.23
662.065	-9.23
662.097	-2.23
662.129	-2.23
662.162	-11.23
662.194	-0.23
662.226	-6.23
662.258	-1.23
662.29	-6.23
662.322	-23.23
662.355	-15.23
662.387	13.77
662.419	-6.23
662.451	0.77
662.483	8.77
662.515	-34.23
662.547	-6.23
662.58	-15.23
662.612	-18.23
662.644	-10.23
662.676	-8.23
662.708	22.77
662.74	-4.23
662.772	-0.23
662.804	7.77
662.836	4.77
662.869	-11.23
662.901	3.77
662.933	-15.23
662.965	0.77
662.997	2.77
663.029	-8.23
663.061	-12.23
663.093	-7.23
663.125	0.77
663.157	-6.23
663.189	0.77
663.221	-6.23
663.254	-5.23
663.286	-10.23
663.318	-21.23
663.35	-5.23
663.382	-27.23
663.414	-11.23
663.446	-13.23
663.478	-25.23
663.51	21.77
663.542	-21.23
663.574	-18.23
663.606	-16.23
663.638	-25.23
663.67	6.77
663.702	9.77
663.734	-2.23
663.766	7.77
663.798	-2.23
663.83	0.77
663.862	-2.23
663.894	-5.23
663.926	-13.23
663.958	-13.23
663.99	-1.23
664.022	-2.23
664.054	-1.23
664.086	-10.23
664.118	-12.23
664.15	-12.23
664.182	-3.23
664.214	-10.23
664.246	2.77
664.278	7.77
664.31	6.77
664.342	3.77
664.374	-16.23
664.406	-9.23
664.438	-10.23
664.47	20.77
664.502	-12.23
664.534	-10.23
664.566	-6.23
664.598	-9.23
664.63	-9.23
664.662	1.77
664.693	-3.23
664.725	-31.23
664.757	-17.23
664.789	-11.23
664.821	-5.23
664.853	-21.23
664.885	-5.23
664.917	-13.23
664.949	4.77
664.981	-5.23
665.013	-20.23
665.045	-14.23
665.076	-21.23
665.108	-15.23
665.14	1.77
665.172	5.77
665.204	-14.23
665.236	-18.23
665.268	6.77
665.3	-24.23
665.331	-11.23
665.363	-3.23
665.395	-18.23
665.427	-15.23
665.459	-5.23
665.491	-6.23
665.523	-10.23
665.555	-6.23
665.586	-5.23
665.618	-1.23
665.65	-22.23
665.682	-4.23
665.714	-1.23
665.746	-13.23
665.777	-3.23
665.809	-19.23
665.841	-8.23
665.873	-8.23
665.905	0.77
665.937	7.77
665.968	-4.23
666	-4.23
666.032	-6.23
666.064	-12.23
666.096	-8.23
666.127	-15.23
666.159	-5.23
666.191	3.77
666.223	-9.23
666.255	0.77
666.286	-6.23
666.318	-8.23
666.35	14.77
666.382	4.77
666.413	-19.23
666.445	-26.23
666.477	-21.23
666.509	-16.23
666.54	-6.23
666.572	-1.23
666.604	-16.23
666.636	-3.23
666.667	10.77
666.699	-9.23
666.731	-2.23
666.763	-8.23
666.794	-21.23
666.826	-3.23
666.858	-26.23
666.89	-1.23
666.921	3.77
666.953	3.77
666.985	11.77
667.017	4.77
667.048	-13.23
667.08	-20.23
667.112	-29.23
667.143	-16.23
667.175	-12.23
667.207	-7.23
667.238	-7.23
667.27	-6.23
667.302	-4.23
667.334	-4.23
667.365	11.77
667.397	3.77
667.429	-8.23
667.46	-1.23
667.492	6.77
667.524	-4.23
667.555	-8.23
667.587	-2.23
667.619	-9.23
667.65	-19.23
667.682	6.77
667.714	11.77
667.745	-8.23
667.777	-27.23
667.808	-0.23
667.84	-7.23
667.872	-3.23
667.903	-2.23
667.935	-14.23
667.967	-4.23
667.998	-7.23
668.03	-2.23
668.061	-4.23
668.093	-9.23
668.125	-2.23
668.156	11.77
668.188	9.77
668.22	-12.23
668.251	-1.23
668.283	-9.23
668.314	14.77
668.346	1.77
668.377	1.77
668.409	-1.23
668.441	10.77
668.472	-0.23
668.504	8.77
668.535	7.77
668.567	2.77
668.599	-21.23
668.63	-5.23
668.662	-23.23
668.693	6.77
668.725	-2.23
668.756	11.77
668.788	-7.23
668.819	-7.23
668.851	-11.23
668.882	-5.23
668.914	-7.23
668.946	2.77
668.977	-7.23
669.009	2.77
669.04	-36.23
669.072	-5.23
669.103	-4.23
669.135	-16.23
669.166	-13.23
669.198	-6.23
669.229	-12.23
669.261	-11.23
669.292	-6.23
669.324	-7.23
669.355	-1.23
669.387	-14.23
669.418	-4.23
669.45	-15.23
669.481	-5.23
669.513	-3.23
669.544	1.77
669.576	-5.23
669.607	0.77
669.639	11.77
669.67	-12.23
669.701	-3.23
669.733	-19.23
669.764	1.77
669.796	-8.23
669.827	-14.23
669.859	-3.23
669.89	19.77
669.922	3.77
669.953	-11.23
669.985	0.77
670.016	5.77
670.047	-0.23
670.079	-3.23
670.11	7.77
670.142	-10.23
670.173	1.77
670.204	-26.23
670.236	-4.23
670.267	-15.23
670.299	1.77
670.33	-1.23
670.362	-0.23
670.393	-22.23
670.424	6.77
670.456	-14.23
670.487	-8.23
670.518	-9.23
670.55	-14.23
670.581	-19.23
670.613	1.77
670.644	-22.23
670.675	-15.23
670.707	-17.23
670.738	-22.23
670.769	1.77
670.801	-15.23
670.832	-15.23
670.864	-17.23
670.895	-4.23
670.926	-8.23
670.958	-2.23
670.989	-3.23
671.02	-9.23
671.052	1.77
671.083	-10.23
671.114	-25.23
671.146	17.77
671.177	3.77
671.208	-14.23
671.24	-16.23
671.271	-5.23
671.302	-4.23
671.333	-21.23
671.365	-3.23
671.396	-13.23
671.427	1.77
671.459	2.77
671.49	6.77
671.521	-10.23
671.553	-9.23
671.584	8.77
671.615	-20.23
671.646	-7.23
671.678	-10.23
671.709	-9.23
671.74	-15.23
671.771	-22.23
671.803	-15.23
671.834	-11.23
671.865	-14.23
671.896	-3.23
671.928	-25.23
671.959	-7.23
671.99	-17.23
672.021	-17.23
672.053	-18.23
672.084	5.77
672.115	-10.23
672.146	-21.23
672.178	-20.23
672.209	-25.23
672.24	-6.23
672.271	8.77
672.303	-8.23
672.334	-7.23
672.365	-13.23
672.396	0.77
672.427	-9.23
672.459	-2.23
672.49	12.77
672.521	-7.23
672.552	-11.23
672.583	-8.23
672.615	-2.23
672.646	4.77
672.677	-27.23
672.708	-13.23
672.739	-3.23
672.77	5.77
672.802	-5.23
672.833	-8.23
672.864	-6.23
672.895	-16.23
672.926	-4.23
672.957	-15.23
672.989	2.77
673.02	9.77
673.051	-14.23
673.082	15.77
673.113	-5.23
673.144	-15.23
673.175	-10.23
673.206	-3.23
673.238	-8.23
673.269	-26.23
673.3	-18.23
673.331	-3.23
673.362	-7.23
673.393	3.77
673.424	-1.23
673.455	-2.23
673.487	-14.23
673.518	-1.23
673.549	-4.23
673.58	-8.23
673.611	-8.23
673.642	-7.23
673.673	-18.23
673.704	-7.23
673.735	-21.23
673.766	-20.23
673.797	-7.23
673.828	-13.23
673.86	-32.23
673.891	-12.23
673.922	-20.23
673.953	-11.23
673.984	3.77
674.015	7.77
674.046	-1.23
674.077	-9.23
674.108	-21.23
674.139	-15.23
674.17	-11.23
674.201	-12.23
674.232	-10.23
674.263	-16.23
674.294	-7.23
674.325	-4.23
674.356	-4.23
674.387	8.77
674.418	-8.23
674.449	-26.23
674.48	-15.23
674.511	-9.23
674.542	-5.23
674.573	-8.23
674.604	9.77
674.635	-6.23
674.666	1.77
674.697	-9.23
674.728	-2.23
674.759	-11.23
674.79	-9.23
674.821	-6.23
674.852	-5.23
674.883	-3.23
674.914	-0.23
674.945	-3.23
674.976	-7.23
675.007	-5.23
675.038	-25.23
675.069	-11.23
675.1	-12.23
675.131	-8.23
675.162	-6.23
675.193	-0.23
675.224	-15.23
675.254	6.77
675.285	-19.23
675.316	11.77
675.347	3.77
675.378	-15.23
675.409	-2.23
675.44	9.77
675.471	-0.23
675.502	-3.23
675.533	1.77
675.564	-6.23
675.595	1.77
675.625	10.77
675.656	-3.23
675.687	-7.23
675.718	-30.23
675.749	1.77
675.78	-13.23
675.811	-0.23
675.842	6.77
675.873	9.77
675.903	-20.23
675.934	-9.23
675.965	-15.23
675.996	-30.23
676.027	-2.23
676.058	14.77
676.089	-17.23
676.119	-4.23
676.15	-12.23
676.181	-8.23
676.212	-5.23
676.243	12.77
676.274	-5.23
676.304	1.77
676.335	-18.23
676.366	-6.23
676.397	-9.23
676.428	6.77
676.459	1.77
676.489	1.77
676.52	-2.23
676.551	-13.23
676.582	-17.23
676.613	-5.23
676.643	-17.23
676.674	8.77
676.705	-7.23
676.736	-7.23
676.767	8.77
676.797	-7.23
676.828	4.77
676.859	-23.23
676.89	-14.23
676.92	-4.23
676.951	-12.23
676.982	4.77
677.013	3.77
677.044	19.77
677.074	-0.23
677.105	-13.23
677.136	-2.23
677.167	-3.23
677.197	2.77
677.228	-11.23
677.259	2.77
677.289	-17.23
677.32	-24.23
677.351	-7.23
677.382	-7.23
677.412	-3.23
677.443	14.77
677.474	-4.23
677.505	-11.23
677.535	-12.23
677.566	-17.23
677.597	-22.23
677.627	-14.23
677.658	-16.23
677.689	-3.23
677.72	1.77
677.75	-8.23
677.781	-20.23
677.812	-16.23
677.842	-2.23
677.873	3.77
677.904	-8.23
677.934	-11.23
677.965	0.77
677.996	-29.23
678.026	-3.23
678.057	-9.23
678.088	-13.23
678.118	-10.23
678.149	-18.23
678.18	-17.23
678.21	-8.23
678.241	-5.23
678.272	-5.23
678.302	-11.23
678.333	-6.23
678.363	14.77
678.394	-22.23
678.425	-5.23
678.455	-4.23
678.486	8.77
678.517	-5.23
678.547	-9.23
678.578	-5.23
678.608	-15.23
678.639	-0.23
678.67	2.77
678.7	-5.23
678.731	-3.23
678.761	-6.23
678.792	0.77
678.823	-1.23
678.853	-5.23
678.884	-12.23
678.914	-9.23
678.945	5.77
678.975	5.77
679.006	10.77
679.037	-23.23
679.067	29.77
679.098	-10.23
679.128	-11.23
679.159	-14.23
679.189	-5.23
679.22	-18.23
679.25	-1.23
679.281	2.77
679.312	-6.23
679.342	-8.23
679.373	27.77
679.403	1.77
679.434	1.77
679.464	-6.23
679.495	-18.23
679.525	-7.23
679.556	-1.23
679.586	-6.23
679.617	1.77
679.647	3.77
679.678	6.77
679.708	-2.23
679.739	-13.23
679.769	-9.23
679.8	-6.23
679.83	-7.23
679.861	3.77
679.891	-8.23
679.922	-22.23
679.952	-7.23
679.983	-18.23
680.013	-7.23
680.044	-25.23
680.074	7.77
680.105	7.77
680.135	0.77
680.165	-3.23
680.196	-10.23
680.226	-12.23
680.257	10.77
680.287	4.77
680.318	-4.23
680.348	-21.23
680.379	-4.23
680.409	-10.23
680.439	-11.23
680.47	-9.23
680.5	-12.23
680.531	-7.23
680.561	5.77
680.592	-3.23
680.622	10.77
680.652	-16.23
680.683	-1.23
680.713	-6.23
680.744	-22.23
680.774	-9.23
680.804	0.77
680.835	-22.23
680.865	-17.23
680.896	7.77
680.926	-10.23
680.956	-3.23
680.987	-4.23
681.017	-8.23
681.047	4.77
681.078	-14.23
681.108	-13.23
681.139	-2.23
681.169	-6.23
681.199	-14.23
681.23	-19.23
681.26	-11.23
681.29	7.77
681.321	-5.23
681.351	-10.23
681.381	-15.23
681.412	0.77
681.442	-19.23
681.472	3.77
681.503	2.77
681.533	-7.23
681.563	-9.23
681.594	-0.23
681.624	2.77
681.654	-11.23
681.685	-13.23
681.715	-11.23
681.745	-17.23
681.775	-22.23
681.806	1.77
681.836	-19.23
681.866	-1.23
681.897	-10.23
681.927	-18.23
681.957	-17.23
681.987	2.77
682.018	-3.23
682.048	-11.23
682.078	1.77
682.109	1.77
682.139	14.77
682.169	-5.23
682.199	-19.23
682.23	-25.23
682.26	-9.23
682.29	-10.23
682.32	0.77
682.351	-26.23
682.381	-9.23
682.411	-13.23
682.441	-9.23
682.472	-20.23
682.502	1.77
682.532	-11.23
682.562	-8.23
682.592	8.77
682.623	-3.23
682.653	1.77
682.683	-12.23
682.713	-14.23
682.743	-14.23
682.774	-18.23
682.804	-2.23
682.834	16.77
682.864	-12.23
682.894	-13.23
682.925	-1.23
682.955	-5.23
682.985	-10.23
683.015	-8.23
683.045	2.77
683.076	-20.23
683.106	4.77
683.136	-1.23
683.166	-3.23
683.196	0.77
683.226	-13.23
683.257	-25.23
683.287	-13.23
683.317	-22.23
683.347	-7.23
683.377	-14.23
683.407	-2.23
683.437	7.77
683.468	-3.23
683.498	-16.23
683.528	-7.23
683.558	-5.23
683.588	-18.23
683.618	-23.23
683.648	-18.23
683.678	13.77
683.708	7.77
683.739	0.77
683.769	1.77
683.799	-20.23
683.829	-1.23
683.859	-7.23
683.889	-6.23
683.919	-1.23
683.949	-14.23
683.979	-18.23
684.009	-6.23
684.039	-13.23
684.07	-12.23
684.1	-4.23
684.13	-13.23
684.16	-1.23
684.19	-16.23
684.22	-19.23
684.25	2.77
684.28	-7.23
684.31	3.77
684.34	-3.23
684.37	-4.23
684.4	-15.23
684.43	-7.23
684.46	0.77
684.49	1.77
684.52	-5.23
684.55	1.77
684.58	-4.23
684.61	-12.23
684.64	-5.23
684.67	11.77
684.7	-15.23
684.73	-0.23
684.76	0.77
684.79	13.77
684.82	1.77
684.85	-21.23
684.88	1.77
684.91	-16.23
684.94	-9.23
684.97	-15.23
685	-6.23
685.03	-16.23
685.06	-5.23
685.09	-15.23
685.12	1.77
685.15	-9.23
685.18	-0.23
685.21	2.77
685.24	3.77
685.27	9.77
685.3	-4.23
685.33	-2.23
685.36	-1.23
685.39	4.77
685.42	-2.23
685.45	-5.23
685.48	-15.23
685.51	4.77
685.54	6.77
685.569	4.77
685.599	-13.23
685.629	-2.23
685.659	-10.23
685.689	-0.23
685.719	-4.23
685.749	-9.23
685.779	-2.23
685.809	0.77
685.839	-3.23
685.869	-3.23
685.898	6.77
685.928	-8.23
685.958	-21.23
685.988	-4.23
686.018	-18.23
686.048	-5.23
686.078	8.77
686.108	9.77
686.137	-9.23
686.167	-12.23
686.197	-9.23
686.227	-14.23
686.257	13.77
686.287	1.77
686.317	-7.23
686.346	-21.23
686.376	5.77
686.406	-4.23
686.436	-5.23
686.466	-1.23
686.496	-2.23
686.525	-1.23
686.555	-14.23
686.585	18.77
686.615	30.77
686.645	-5.23
686.675	-6.23
686.704	-7.23
686.734	-14.23
686.764	-17.23
686.794	-3.23
686.824	-14.23
686.853	5.77
686.883	-4.23
686.913	6.77
686.943	4.77
686.973	-9.23
687.002	-8.23
687.032	3.77
687.062	-8.23
687.092	13.77
687.121	-13.23
687.151	-8.23
687.181	-10.23
687.211	-1.23
687.24	-7.23
687.27	-8.23
687.3	-7.23
687.33	-7.23
687.359	-10.23
687.389	8.77
687.419	-21.23
687.449	-10.23
687.478	-2.23
687.508	-1.23
687.538	3.77
687.568	12.77
687.597	-28.23
687.627	-8.23
687.657	-5.23
687.686	-5.23
687.716	9.77
687.746	-26.23
687.776	-9.23
687.805	-4.23
687.835	-1.23
687.865	10.77
687.894	-0.23
687.924	-9.23
687.954	0.77
687.983	1.77
688.013	6.77
688.043	-5.23
688.072	-7.23
688.102	-4.23
688.132	-7.23
688.161	-3.23
688.191	-7.23
688.221	-1.23
688.25	-6.23
688.28	1.77
688.31	-22.23
688.339	-15.23
688.369	-17.23
688.399	-19.23
688.428	-4.23
688.458	-0.23
688.488	-19.23
688.517	0.77
688.547	-7.23
688.576	20.77
688.606	10.77
688.636	-14.23
688.665	-12.23
688.695	-6.23
688.725	2.77
688.754	-6.23
688.784	1.77
688.813	1.77
688.843	-1.23
688.873	-19.23
688.902	-13.23
688.932	-9.23
688.961	-6.23
688.991	10.77
689.02	6.77
689.05	-22.23
689.08	-9.23
689.109	5.77
689.139	-8.23
689.168	-15.23
689.198	-11.23
689.227	-7.23
689.257	4.77
689.287	13.77
689.316	-13.23
689.346	-26.23
689.375	-9.23
689.405	-2.23
689.434	-14.23
689.464	0.77
689.493	16.77
689.523	-15.23
689.552	-15.23
689.582	-6.23
689.611	-3.23
689.641	-0.23
689.67	-8.23
689.7	-6.23
689.73	-2.23
689.759	-4.23
689.789	6.77
689.818	-6.23
689.848	-1.23
689.877	3.77
689.906	-4.23
689.936	-1.23
689.965	9.77
689.995	12.77
690.024	-15.23
690.054	-14.23
690.083	-21.23
690.113	-6.23
690.142	-9.23
690.172	-15.23
690.201	-6.23
690.231	2.77
690.26	-6.23
690.29	-2.23
690.319	-4.23
690.348	-11.23
690.378	-3.23
690.407	4.77
690.437	-5.23
690.466	-2.23
690.496	-4.23
690.525	-6.23
690.555	-22.23
690.584	-20.23
690.613	-0.23
690.643	2.77
690.672	-0.23
690.702	5.77
690.731	-7.23
690.76	1.77
690.79	47.77
690.819	36.77
690.849	39.77
690.878	21.77
690.907	6.77
690.937	22.77
690.966	9.77
690.996	-4.23
691.025	-14.23
691.054	3.77
691.084	-0.23
691.113	5.77
691.142	2.77
691.172	-13.23
691.201	-2.23
691.23	-6.23
691.26	-1.23
691.289	-2.23
691.319	-7.23
691.348	-17.23
691.377	15.77
691.407	-6.23
691.436	1.77
691.465	-2.23
691.495	-12.23
691.524	-20.23
691.553	-11.23
691.583	-20.23
691.612	-7.23
691.641	-8.23
691.67	14.77
691.7	-10.23
691.729	-18.23
691.758	1.77
691.788	-9.23
691.817	-10.23
691.846	-15.23
691.876	-9.23
691.905	-12.23
691.934	-30.23
691.963	6.77
691.993	-2.23
692.022	0.77
692.051	-18.23
692.081	0.77
692.11	7.77
692.139	-9.23
692.168	5.77
692.198	1.77
692.227	-2.23
692.256	-8.23
692.285	0.77
692.315	-10.23
692.344	0.77
692.373	5.77
692.402	-18.23
692.432	-5.23
692.461	-7.23
692.49	-6.23
692.519	4.77
692.548	7.77
692.578	-5.23
692.607	0.77
692.636	-10.23
692.665	1.77
692.694	-6.23
692.724	-14.23
692.753	-2.23
692.782	-2.23
692.811	-18.23
692.84	-12.23
692.87	-5.23
692.899	-8.23
692.928	-1.23
692.957	0.77
692.986	-9.23
693.016	-7.23
693.045	3.77
693.074	-1.23
693.103	-7.23
693.132	2.77
693.161	-2.23
693.191	-21.23
693.22	-18.23
693.249	-4.23
693.278	-13.23
693.307	13.77
693.336	-7.23
693.365	-18.23
693.395	1.77
693.424	-4.23
693.453	5.77
693.482	-14.23
693.511	-5.23
693.54	9.77
693.569	-0.23
693.598	-6.23
693.628	-6.23
693.657	4.77
693.686	-10.23
693.715	4.77
693.744	-2.23
693.773	9.77
693.802	-2.23
693.831	-3.23
693.86	6.77
693.889	-9.23
693.919	1.77
693.948	-5.23
693.977	12.77
694.006	-6.23
694.035	-6.23
694.064	-3.23
694.093	-10.23
694.122	-10.23
694.151	-19.23
694.18	7.77
694.209	5.77
694.238	-22.23
694.267	24.77
694.296	-5.23
694.325	-4.23
694.354	-2.23
694.383	23.77
694.412	1.77
694.441	-15.23
694.471	-14.23
694.5	-15.23
694.529	1.77
694.558	9.77
694.587	9.77
694.616	-6.23
694.645	-1.23
694.674	3.77
694.703	13.77
694.732	-1.23
694.761	11.77
694.79	10.77
694.819	-34.23
694.848	-16.23
694.877	9.77
694.906	17.77
694.935	4.77
694.963	4.77
694.992	-4.23
695.021	5.77
695.05	2.77
695.079	-12.23
695.108	-18.23
695.137	19.77
695.166	-2.23
695.195	1.77
695.224	-1.23
695.253	-19.23
695.282	-13.23
695.311	-9.23
695.34	-12.23
695.369	-18.23
695.398	-3.23
695.427	13.77
695.456	2.77
695.485	12.77
695.513	-5.23
695.542	-5.23
695.571	-5.23
695.6	11.77
695.629	1.77
695.658	7.77
695.687	-11.23
695.716	4.77
695.745	6.77
695.774	-7.23
695.802	-14.23
695.831	12.77
695.86	8.77
695.889	15.77
695.918	-11.23
695.947	-11.23
695.976	-20.23
696.005	-10.23
696.033	2.77
696.062	24.77
696.091	-10.23
696.12	-7.23
696.149	13.77
696.178	3.77
696.207	-6.23
696.235	-31.23
696.264	2.77
696.293	-8.23
696.322	3.77
696.351	6.77
696.38	-6.23
696.408	-7.23
696.437	-9.23
696.466	21.77
696.495	14.77
696.524	12.77
696.553	-5.23
696.581	-4.23
696.61	-11.23
696.639	-0.23
696.668	0.77
696.697	-11.23
696.725	17.77
696.754	4.77
696.783	2.77
696.812	-6.23
696.84	-12.23
696.869	-2.23
696.898	-10.23
696.927	-15.23
696.956	-8.23
696.984	-23.23
697.013	-9.23
697.042	-4.23
697.071	-10.23
697.099	-3.23
697.128	5.77
697.157	-1.23
697.186	-12.23
697.214	-17.23
697.243	-13.23
697.272	-9.23
697.301	7.77
697.329	2.77
697.358	4.77
697.387	6.77
697.415	0.77
697.444	-2.23
697.473	-6.23
697.502	-29.23
697.53	-0.23
697.559	-6.23
697.588	11.77
697.616	8.77
697.645	-7.23
697.674	2.77
697.703	-11.23
697.731	6.77
697.76	-10.23
697.789	-12.23
697.817	-2.23
697.846	4.77
697.875	-21.23
697.903	-9.23
697.932	-2.23
697.961	-10.23
697.989	2.77
698.018	5.77
698.047	0.77
698.075	4.77
698.104	-3.23
698.133	-20.23
698.161	-11.23
698.19	1.77
698.218	0.77
698.247	-3.23
698.276	-8.23
698.304	2.77
698.333	5.77
698.362	1.77
698.39	-2.23
698.419	10.77
698.447	-4.23
698.476	0.77
698.505	5.77
698.533	-1.23
698.562	11.77
698.591	-10.23
698.619	-5.23
698.648	-6.23
698.676	-9.23
698.705	-18.23
698.733	-18.23
698.762	2.77
698.791	-7.23
698.819	9.77
698.848	3.77
698.876	11.77
698.905	5.77
698.933	1.77
698.962	-4.23
698.991	-6.23
699.019	-5.23
699.048	-5.23
699.076	-0.23
699.105	-5.23
699.133	-6.23
699.162	4.77
699.19	1.77
699.219	13.77
699.248	-8.23
699.276	-8.23
699.305	-11.23
699.333	-5.23
699.362	-17.23
699.39	10.77
699.419	-5.23
699.447	-2.23
699.476	9.77
699.504	-10.23
699.533	-15.23
699.561	-24.23
699.59	-9.23
699.618	1.77
699.647	-7.23
699.675	-5.23
699.704	2.77
699.732	-0.23
699.761	-5.23
699.789	-1.23
699.818	9.77
699.846	-22.23
699.874	-10.23
699.903	4.77
699.931	-3.23
699.96	-5.23
699.988	-1.23
700.017	-13.23
700.045	-12.23
700.074	-15.23
700.102	0.77
700.13	-1.23
700.159	-6.23
700.187	-3.23
700.216	-8.23
700.244	-5.23
700.273	-6.23
700.301	-5.23
700.329	-20.23
700.358	3.77
700.386	-6.23
700.415	-0.23
700.443	-6.23
700.472	-14.23
700.5	-9.23
700.528	-5.23
700.557	-11.23
700.585	-18.23
700.614	-10.23
700.642	-5.23
700.67	12.77
700.699	-2.23
700.727	1.77
700.755	-7.23
700.784	24.77
700.812	-15.23
700.841	-9.23
700.869	-0.23
700.897	-17.23
700.926	4.77
700.954	-11.23
700.982	-1.23
701.011	-21.23
701.039	-10.23
701.067	-2.23
701.096	9.77
701.124	-15.23
701.152	-9.23
701.181	-14.23
701.209	-10.23
701.237	-2.23
701.266	-15.23
701.294	-9.23
701.322	-4.23
701.351	-13.23
701.379	-14.23
701.407	-16.23
701.435	-10.23
701.464	-4.23
701.492	-5.23
701.52	-15.23
701.549	-14.23
701.577	-19.23
701.605	-7.23
701.634	-14.23
701.662	-2.23
701.69	-29.23
701.718	-6.23
701.747	2.77
701.775	8.77
701.803	-6.23
701.831	-3.23
701.86	-14.23
701.888	1.77
701.916	-16.23
701.944	-11.23
701.973	-15.23
702.001	-8.23
702.029	-20.23
702.057	-11.23
702.086	-10.23
702.114	-5.23
702.142	-9.23
702.17	-9.23
702.199	-3.23
702.227	-10.23
702.255	1.77
702.283	-2.23
702.311	8.77
702.34	-7.23
702.368	-15.23
702.396	-2.23
702.424	-9.23
702.452	-12.23
702.481	-8.23
702.509	-10.23
702.537	15.77
702.565	-18.23
702.593	-24.23
702.621	-18.23
702.65	16.77
702.678	-15.23
702.706	-0.23
702.734	-6.23
702.762	-13.23
702.79	-13.23
702.819	3.77
702.847	-13.23
702.875	13.77
702.903	11.77
702.931	-17.23
702.959	3.77
702.988	3.77
703.016	-6.23
703.044	-17.23
703.072	-3.23
703.1	-11.23
703.128	-10.23
703.156	-2.23
703.184	5.77
703.212	8.77
703.241	-7.23
703.269	-10.23
703.297	-6.23
703.325	-2.23
703.353	5.77
703.381	-6.23
703.409	-5.23
703.437	-8.23
703.465	-19.23
703.493	-14.23
703.522	-4.23
703.55	-0.23
703.578	-5.23
703.606	-18.23
703.634	-6.23
703.662	-10.23
703.69	-8.23
703.718	-6.23
703.746	3.77
703.774	-4.23
703.802	14.77
703.83	-18.23
703.858	-25.23
703.886	-23.23
703.914	-18.23
703.942	0.77
703.97	-10.23
703.998	-8.23
704.027	-2.23
704.055	-13.23
704.083	-13.23
704.111	-2.23
704.139	-1.23
704.167	-1.23
704.195	-11.23
704.223	-8.23
704.251	-14.23
704.279	0.77
704.307	6.77
704.335	-3.23
704.363	0.77
704.391	-22.23
704.419	-13.23
704.447	-12.23
704.475	-4.23
704.503	-24.23
704.531	9.77
704.558	-10.23
704.586	-13.23
704.614	-11.23
704.642	-10.23
704.67	-20.23
704.698	-5.23
704.726	-9.23
704.754	-7.23
704.782	-8.23
704.81	-10.23
704.838	11.77
704.866	-3.23
704.894	-25.23
704.922	-7.23
704.95	-4.23
704.978	8.77
705.006	-7.23
705.034	-11.23
705.061	-18.23
705.089	-25.23
705.117	-22.23
705.145	-21.23
705.173	-1.23
705.201	-0.23
705.229	-6.23
705.257	3.77
705.285	-10.23
705.313	-8.23
705.34	-7.23
705.368	-4.23
705.396	-3.23
705.424	7.77
705.452	-24.23
705.48	2.77
705.508	-23.23
705.536	2.77
705.563	-12.23
705.591	-5.23
705.619	-0.23
705.647	-5.23
705.675	-5.23
705.703	-0.23
705.731	-7.23
705.758	8.77
705.786	-3.23
705.814	6.77
705.842	-1.23
705.87	-2.23
705.898	-1.23
705.925	-14.23
705.953	-9.23
705.981	-20.23
706.009	-3.23
706.037	-3.23
706.065	-6.23
706.092	-22.23
706.12	-10.23
706.148	-7.23
706.176	-2.23
706.204	-1.23
706.231	-10.23
706.259	-11.23
706.287	-1.23
706.315	2.77
706.342	-6.23
706.37	-7.23
706.398	-2.23
706.426	-5.23
706.454	-13.23
706.481	-1.23
706.509	16.77
706.537	-3.23
706.565	-13.23
706.592	10.77
706.62	6.77
706.648	-5.23
706.676	-29.23
706.703	-5.23
706.731	-17.23
706.759	-23.23
706.787	-0.23
706.814	-8.23
706.842	-4.23
706.87	-5.23
706.897	-6.23
706.925	-9.23
706.953	1.77
706.981	22.77
707.008	11.77
707.036	-13.23
707.064	-8.23
707.091	-28.23
707.119	3.77
707.147	-11.23
707.174	-7.23
707.202	-14.23
707.23	-17.23
707.258	-10.23
707.285	-14.23
707.313	-13.23
707.341	-18.23
707.368	-19.23
707.396	-6.23
707.424	0.77
707.451	-11.23
707.479	-4.23
707.507	-9.23
707.534	-16.23
707.562	-18.23
707.59	-10.23
707.617	-10.23
707.645	-3.23
707.672	-22.23
707.7	12.77
707.728	-1.23
707.755	12.77
707.783	-11.23
707.811	5.77
707.838	-3.23
707.866	-10.23
707.893	-11.23
707.921	-9.23
707.949	3.77
707.976	-8.23
708.004	-12.23
708.031	-11.23
708.059	-10.23
708.087	-1.23
708.114	-31.23
708.142	-22.23
708.169	-0.23
708.197	-22.23
708.225	-16.23
708.252	0.77
708.28	20.77
708.307	-9.23
708.335	-9.23
708.362	-9.23
708.39	-21.23
708.418	-9.23
708.445	-10.23
708.473	-19.23
708.5	-16.23
708.528	2.77
708.555	-10.23
708.583	-13.23
708.61	-21.23
708.638	-12.23
708.665	-17.23
708.693	-8.23
708.72	-8.23
708.748	-10.23
708.776	-4.23
708.803	24.77
708.831	-3.23
708.858	1.77
708.886	-14.23
708.913	-14.23
708.941	-6.23
708.968	2.77
708.996	-9.23
709.023	23.77
709.051	-11.23
709.078	0.77
709.105	-10.23
709.133	-15.23
709.16	-9.23
709.188	1.77
709.215	9.77
709.243	13.77
709.27	-14.23
709.298	-9.23
709.325	-17.23
709.353	-9.23
709.38	-8.23
709.408	6.77
709.435	-6.23
709.462	-10.23
709.49	-1.23
709.517	-18.23
709.545	-17.23
709.572	-4.23
709.6	-9.23
709.627	2.77
709.655	-7.23
709.682	-32.23
709.709	-11.23
709.737	-9.23
709.764	-18.23
709.792	23.77
709.819	6.77
709.846	-5.23
709.874	-3.23
709.901	6.77
709.929	20.77
709.956	-6.23
709.983	-5.23
710.011	-15.23
710.038	-5.23
710.066	10.77
710.093	3.77
710.12	2.77
710.148	-11.23
710.175	-3.23
710.202	-1.23
710.23	6.77
710.257	-17.23
710.284	-12.23
710.312	-16.23
710.339	-7.23
710.366	-9.23
710.394	-9.23
710.421	-7.23
710.448	-5.23
710.476	-13.23
710.503	-4.23
710.53	-1.23
710.558	6.77
710.585	-15.23
710.612	-24.23
710.64	-7.23
710.667	-10.23
710.694	-15.23
710.722	-7.23
710.749	-11.23
710.776	-4.23
710.804	7.77
710.831	-11.23
710.858	-14.23
710.885	-15.23
710.913	-31.23
710.94	7.77
710.967	-11.23
710.995	6.77
711.022	-6.23
711.049	5.77
711.076	-6.23
711.104	-3.23
711.131	-15.23
711.158	-30.23
711.185	-9.23
711.213	0.77
711.24	-17.23
711.267	-25.23
711.294	-26.23
711.322	-4.23
711.349	-1.23
711.376	-1.23
711.403	9.77
711.431	-15.23
711.458	-2.23
711.485	-6.23
711.512	-13.23
711.54	-3.23
711.567	-0.23
711.594	-10.23
711.621	-6.23
711.648	-4.23
711.676	-14.23
711.703	-14.23
711.73	-21.23
711.757	5.77
711.784	-2.23
711.812	-12.23
711.839	-8.23
711.866	-20.23
711.893	-14.23
711.92	-3.23
711.947	-9.23
711.975	-2.23
712.002	-1.23
712.029	7.77
712.056	-2.23
712.083	-6.23
712.11	-14.23
712.138	-2.23
712.165	-0.23
712.192	-13.23
712.219	-30.23
712.246	-24.23
712.273	-10.23
712.3	-19.23
712.328	2.77
712.355	-7.23
712.382	-21.23
712.409	5.77
712.436	-13.23
712.463	-3.23
712.49	-3.23
712.517	1.77
712.544	-8.23
712.572	-18.23
712.599	-5.23
712.626	-7.23
712.653	-17.23
712.68	-20.23
712.707	5.77
712.734	-0.23
712.761	-8.23
712.788	-11.23
712.815	-6.23
712.842	-15.23
712.87	-11.23
712.897	-27.23
712.924	-24.23
712.951	-9.23
712.978	-3.23
713.005	0.77
713.032	1.77
713.059	-15.23
713.086	-14.23
713.113	-23.23
713.14	-16.23
713.167	-7.23
713.194	2.77
713.221	-5.23
713.248	10.77
713.275	-13.23
713.302	-10.23
713.329	-6.23
713.356	5.77
713.383	-16.23
713.41	-10.23
713.437	-2.23
713.464	1.77
713.491	3.77
713.518	-1.23
713.545	-8.23
713.572	-3.23
713.599	0.77
713.626	-13.23
713.653	7.77
713.68	7.77
713.707	-3.23
713.734	-4.23
713.761	-6.23
713.788	-25.23
713.815	-5.23
713.842	-11.23
713.869	-4.23
713.896	1.77
713.923	-0.23
713.95	-9.23
713.977	-7.23
714.004	-8.23
714.031	-19.23
714.058	-11.23
714.085	-11.23
714.112	5.77
714.139	-8.23
714.165	-13.23
714.192	-16.23
714.219	-11.23
714.246	-1.23
714.273	-13.23
714.3	-9.23
714.327	-1.23
714.354	1.77
714.381	-14.23
714.408	-12.23
714.435	-19.23
714.461	-8.23
714.488	-3.23
714.515	-12.23
714.542	-9.23
714.569	-3.23
714.596	-14.23
714.623	-9.23
714.65	-29.23
714.677	-10.23
714.703	-0.23
714.73	-3.23
714.757	-12.23
714.784	-14.23
714.811	-9.23
714.838	8.77
714.865	-16.23
714.891	16.77
714.918	-22.23
714.945	-21.23
714.972	-6.23
714.999	3.77
715.026	-10.23
715.052	8.77
715.079	-5.23
715.106	-9.23
715.133	0.77
715.16	-4.23
715.187	6.77
715.213	-2.23
715.24	-14.23
715.267	-10.23
715.294	-11.23
715.321	-14.23
715.347	-4.23
715.374	-14.23
715.401	-17.23
715.428	-17.23
715.455	3.77
715.481	-23.23
715.508	-17.23
715.535	-12.23
715.562	4.77
715.588	-2.23
715.615	-13.23
715.642	-8.23
715.669	-10.23
715.695	-2.23
715.722	0.77
715.749	-16.23
715.776	-3.23
715.802	-5.23
715.829	1.77
715.856	-16.23
715.883	1.77
715.909	-7.23
715.936	-3.23
715.963	6.77
715.99	-17.23
716.016	-6.23
716.043	-6.23
716.07	-14.23
716.096	-22.23
716.123	-25.23
716.15	-2.23
716.177	-11.23
716.203	-5.23
716.23	-9.23
716.257	1.77
716.283	7.77
716.31	-8.23
716.337	-11.23
716.363	-6.23
716.39	-19.23
716.417	3.77
716.443	-3.23
716.47	5.77
716.497	0.77
716.523	9.77
716.55	1.77
716.577	7.77
716.603	-1.23
716.63	19.77
716.657	18.77
716.683	-16.23
716.71	-23.23
716.737	-19.23
716.763	-0.23
716.79	-15.23
716.817	2.77
716.843	1.77
716.87	-6.23
716.897	-3.23
716.923	1.77
716.95	-15.23
716.976	-19.23
717.003	-15.23
717.03	-20.23
717.056	-20.23
717.083	0.77
717.109	-7.23
717.136	-2.23
717.163	-6.23
717.189	-9.23
717.216	-9.23
717.242	-15.23
717.269	-8.23
717.296	0.77
717.322	-6.23
717.349	-1.23
717.375	1.77
717.402	-3.23
717.428	-11.23
717.455	-4.23
717.481	2.77
717.508	5.77
717.535	5.77
717.561	-2.23
717.588	-11.23
717.614	-1.23
717.641	-13.23
717.667	-9.23
717.694	-8.23
717.72	-7.23
717.747	10.77
717.773	-12.23
717.8	-2.23
717.826	-2.23
717.853	-4.23
717.88	-0.23
717.906	-5.23
717.933	-6.23
717.959	2.77
717.986	14.77
718.012	-17.23
718.039	-2.23
718.065	4.77
718.092	7.77
718.118	-18.23
718.144	-15.23
718.171	8.77
718.197	12.77
718.224	-10.23
718.25	-5.23
718.277	16.77
718.303	-6.23
718.33	-7.23
718.356	0.77
718.383	-44.23
718.409	-23.23
718.436	-22.23
718.462	-18.23
718.489	-14.23
718.515	22.77
718.541	10.77
718.568	10.77
718.594	-4.23
718.621	4.77
718.647	0.77
718.674	3.77
718.7	1.77
718.726	-17.23
718.753	-17.23
718.779	0.77
718.806	-14.23
718.832	-10.23
718.858	-4.23
718.885	-14.23
718.911	-2.23
718.938	18.77
718.964	0.77
718.99	1.77
719.017	-27.23
719.043	7.77
719.07	-1.23
719.096	-4.23
719.122	2.77
719.149	-3.23
719.175	-13.23
719.201	-5.23
719.228	-19.23
719.254	-1.23
719.281	-15.23
719.307	-18.23
719.333	-6.23
719.36	10.77
719.386	-2.23
719.412	5.77
719.439	-17.23
719.465	-5.23
719.491	-27.23
719.518	15.77
719.544	-10.23
719.57	-17.23
719.597	0.77
719.623	-14.23
719.649	-5.23
719.675	-7.23
719.702	7.77
719.728	13.77
719.754	-12.23
719.781	-3.23
719.807	-17.23
719.833	-8.23
719.86	1.77
719.886	-13.23
719.912	-8.23
719.938	-5.23
719.965	-0.23
719.991	-4.23
720.017	-9.23
720.044	-18.23
720.07	-14.23
720.096	-2.23
720.122	0.77
720.149	-5.23
720.175	13.77
720.201	-2.23
720.227	-2.23
720.254	-8.23
720.28	-11.23
720.306	-2.23
720.332	-13.23
720.359	-2.23
720.385	13.77
720.411	-7.23
720.437	-13.23
720.463	-3.23
720.49	-0.23
720.516	-13.23
720.542	-19.23
720.568	2.77
720.595	4.77
720.621	0.77
720.647	-14.23
720.673	-5.23
720.699	-27.23
720.725	-11.23
720.752	3.77
720.778	2.77
720.804	-5.23
720.83	1.77
720.856	-6.23
720.883	-18.23
720.909	-11.23
720.935	2.77
720.961	-1.23
720.987	-4.23
721.013	-2.23
721.04	-11.23
721.066	-18.23
721.092	-13.23
721.118	2.77
721.144	-7.23
721.17	-18.23
721.196	-9.23
721.223	-3.23
721.249	-3.23
721.275	23.77
721.301	-4.23
721.327	7.77
721.353	-23.23
721.379	-19.23
721.405	-11.23
721.432	8.77
721.458	-7.23
721.484	-8.23
721.51	-9.23
721.536	-21.23
721.562	-12.23
721.588	-10.23
721.614	-5.23
721.64	-7.23
721.666	-9.23
721.693	-9.23
721.719	-10.23
721.745	-21.23
721.771	-10.23
721.797	-5.23
721.823	4.77
721.849	9.77
721.875	1.77
721.901	-1.23
721.927	-13.23
721.953	-11.23
721.979	-1.23
722.005	-1.23
722.031	-11.23
722.057	-3.23
722.083	1.77
722.109	-3.23
722.135	-9.23
722.161	-1.23
722.187	0.77
722.214	-2.23
722.24	-12.23
722.266	-17.23
722.292	5.77
722.318	3.77
722.344	-2.23
722.37	-6.23
722.396	5.77
722.422	-19.23
722.448	-2.23
722.474	-15.23
722.5	-4.23
722.526	-8.23
722.552	-0.23
722.578	-8.23
722.603	-7.23
722.629	-18.23
722.655	-5.23
722.681	-30.23
722.707	-0.23
722.733	-11.23
722.759	-19.23
722.785	-15.23
722.811	-15.23
722.837	-9.23
722.863	-11.23
722.889	0.77
722.915	-11.23
722.941	-8.23
722.967	-3.23
722.993	7.77
723.019	1.77
723.045	-4.23
723.071	0.77
723.097	8.77
723.122	-9.23
723.148	-24.23
723.174	-14.23
723.2	-8.23
723.226	-11.23
723.252	-2.23
723.278	-11.23
723.304	-11.23
723.33	-5.23
723.356	-15.23
723.381	-16.23
723.407	-32.23
723.433	6.77
723.459	-9.23
723.485	-5.23
723.511	-1.23
723.537	-15.23
723.563	-11.23
723.588	-1.23
723.614	2.77
723.64	-3.23
723.666	-7.23
723.692	-2.23
723.718	-17.23
723.744	-4.23
723.769	-1.23
723.795	-11.23
723.821	-5.23
723.847	-4.23
723.873	-5.23
723.899	-6.23
723.924	-15.23
723.95	-10.23
723.976	-15.23
724.002	-7.23
724.028	-14.23
724.053	-19.23
724.079	-18.23
724.105	-14.23
724.131	-4.23
724.157	2.77
724.182	10.77
724.208	-13.23
724.234	2.77
724.26	-1.23
724.286	3.77
724.311	1.77
724.337	-23.23
724.363	-21.23
724.389	12.77
724.415	-5.23
724.44	8.77
724.466	3.77
724.492	17.77
724.518	-7.23
724.543	-8.23
724.569	-3.23
724.595	-5.23
724.621	5.77
724.646	-9.23
724.672	-12.23
724.698	-18.23
724.723	-14.23
724.749	-0.23
724.775	11.77
724.801	1.77
724.826	-21.23
724.852	-15.23
724.878	-17.23
724.904	-22.23
724.929	-1.23
724.955	-21.23
724.981	-2.23
725.006	-6.23
725.032	-17.23
725.058	3.77
725.083	-7.23
725.109	-11.23
725.135	-15.23
725.161	-15.23
725.186	-8.23
725.212	-5.23
725.238	-5.23
725.263	-6.23
725.289	-30.23
725.315	-7.23
725.34	-8.23
725.366	-9.23
725.392	-9.23
725.417	-19.23
725.443	-15.23
725.468	3.77
725.494	-3.23
725.52	1.77
725.545	-20.23
725.571	-1.23
725.597	-4.23
725.622	-6.23
725.648	-2.23
725.674	-5.23
725.699	-2.23
725.725	-4.23
725.75	-0.23
725.776	-7.23
725.802	1.77
725.827	-5.23
725.853	-3.23
725.878	-9.23
725.904	-6.23
725.93	-21.23
725.955	-19.23
725.981	-18.23
726.006	-8.23
726.032	-0.23
726.057	0.77
726.083	-15.23
726.109	-0.23
726.134	-4.23
726.16	5.77
726.185	2.77
726.211	-9.23
726.236	2.77
726.262	-1.23
726.288	6.77
726.313	-5.23
726.339	-2.23
726.364	-14.23
726.39	6.77
726.415	-7.23
726.441	-26.23
726.466	-11.23
726.492	-9.23
726.517	-6.23
726.543	-3.23
726.568	-19.23
726.594	-9.23
726.619	-4.23
726.645	-4.23
726.67	-6.23
726.696	-4.23
726.721	-21.23
726.747	-23.23
726.772	-9.23
726.798	-7.23
726.823	14.77
726.849	-16.23
726.874	-5.23
726.9	22.77
726.925	-2.23
726.951	-10.23
726.976	1.77
727.002	-11.23
727.027	-2.23
727.053	-16.23
727.078	-5.23
727.104	1.77
727.129	-25.23
727.155	-10.23
727.18	2.77
727.205	-10.23
727.231	-17.23
727.256	-7.23
727.282	-3.23
727.307	10.77
727.333	-3.23
727.358	-20.23
727.383	-11.23
727.409	-24.23
727.434	4.77
727.46	0.77
727.485	-7.23
727.511	12.77
727.536	-20.23
727.561	-15.23
727.587	-14.23
727.612	-19.23
727.637	-14.23
727.663	-0.23
727.688	18.77
727.714	-17.23
727.739	-17.23
727.764	-14.23
727.79	-1.23
727.815	-8.23
727.841	-2.23
727.866	-7.23
727.891	-1.23
727.917	-16.23
727.942	-23.23
727.967	6.77
727.993	-26.23
728.018	-13.23
728.043	-14.23
728.069	5.77
728.094	0.77
728.119	-17.23
728.145	6.77
728.17	6.77
728.195	-2.23
728.221	13.77
728.246	-4.23
728.271	-25.23
728.297	-15.23
728.322	-10.23
728.347	-4.23
728.373	-17.23
728.398	-4.23
728.423	-7.23
728.448	-17.23
728.474	-12.23
728.499	-4.23
728.524	-14.23
728.55	-3.23
728.575	5.77
728.6	6.77
728.625	-13.23
728.651	1.77
728.676	-7.23
728.701	-0.23
728.727	5.77
728.752	-2.23
728.777	-15.23
728.802	-16.23
728.828	-1.23
728.853	-18.23
728.878	-3.23
728.903	-5.23
728.929	-18.23
728.954	-14.23
728.979	-7.23
729.004	-16.23
729.03	-7.23
729.055	-7.23
729.08	-24.23
729.105	-4.23
729.13	7.77
729.156	1.77
729.181	4.77
729.206	-19.23
729.231	6.77
729.256	0.77
729.282	-22.23
729.307	-27.23
729.332	-10.23
729.357	-14.23
729.382	-8.23
729.408	-1.23
729.433	-3.23
729.458	4.77
729.483	21.77
729.508	5.77
729.533	-6.23
729.559	5.77
729.584	-27.23
729.609	0.77
729.634	-1.23
729.659	-22.23
729.684	-25.23
729.71	10.77
729.735	1.77
729.76	-21.23
729.785	-2.23
729.81	11.77
729.835	-14.23
729.86	-7.23
729.886	-2.23
729.911	-5.23
729.936	-0.23
729.961	1.77
729.986	9.77
730.011	34.77
730.036	186.77
730.061	1006.77
730.086	2650.77
730.112	3376.77
730.137	2817.77
730.162	2076.77
730.187	1625.77
730.212	1237.77
730.237	770.77
730.262	450.77
730.287	238.77
730.312	127.77
730.337	61.77
730.362	47.77
730.387	38.77
730.413	5.77
730.438	2.77
730.463	3.77
730.488	2.77
730.513	2.77
730.538	-5.23
730.563	16.77
730.588	16.77
730.613	20.77
730.638	17.77
730.663	-2.23
730.688	20.77
730.713	5.77
730.738	-8.23
730.763	-2.23
730.788	-9.23
730.813	0.77
730.838	-6.23
730.863	-4.23
730.888	-9.23
730.913	-18.23
730.938	-18.23
730.963	9.77
730.988	116.77
731.013	393.77
731.038	605.77
731.063	588.77
731.088	480.77
731.113	325.77
731.138	236.77
731.163	191.77
731.188	90.77
731.213	65.77
731.238	37.77
731.263	4.77
731.288	0.77
731.313	24.77
731.338	0.77
731.363	-1.23
731.388	-4.23
731.413	-14.23
731.438	13.77
731.463	1.77
731.487	1.77
731.512	-14.23
731.537	-3.23
731.562	-0.23
731.587	-6.23
731.612	-8.23
731.637	-10.23
731.662	6.77
731.687	3.77
731.712	-17.23
731.737	-29.23
731.762	-9.23
731.786	1.77
731.811	4.77
731.836	-16.23
731.861	-7.23
731.886	-14.23
731.911	4.77
731.936	-1.23
731.961	-10.23
731.986	-9.23
732.01	3.77
732.035	-4.23
732.06	2.77
732.085	-9.23
732.11	1.77
732.135	-16.23
732.16	-10.23
732.184	-4.23
732.209	1.77
732.234	-0.23
732.259	-11.23
732.284	1.77
732.309	-14.23
732.334	5.77
732.358	-11.23
732.383	-23.23
732.408	-5.23
732.433	-3.23
732.458	-4.23
732.482	-6.23
732.507	-1.23
732.532	2.77
732.557	-2.23
732.582	4.77
732.607	18.77
732.631	37.77
732.656	78.77
732.681	150.77
732.706	322.77
732.73	445.77
732.755	379.77
732.78	282.77
732.805	240.77
732.83	167.77
732.854	117.77
732.879	69.77
732.904	20.77
732.929	17.77
732.953	17.77
732.978	1.77
733.003	0.77
733.028	-20.23
733.052	-2.23
733.077	-14.23
733.102	0.77
733.127	-20.23
733.151	-6.23
733.176	6.77
733.201	1.77
733.226	-19.23
733.25	-3.23
733.275	-12.23
733.3	-16.23
733.324	8.77
733.349	5.77
733.374	-0.23
733.399	-14.23
733.423	-3.23
733.448	-0.23
733.473	-9.23
733.497	-8.23
733.522	-18.23
733.547	5.77
733.571	-7.23
733.596	1.77
733.621	0.77
733.646	-10.23
733.67	10.77
733.695	-4.23
733.72	-4.23
733.744	4.77
733.769	-3.23
733.794	3.77
733.818	-17.23
733.843	-21.23
733.867	-30.23
733.892	-3.23
733.917	-27.23
733.941	-17.23
733.966	-18.23
733.991	-6.23
734.015	-0.23
734.04	-7.23
734.065	2.77
734.089	-9.23
734.114	-11.23
734.138	9.77
734.163	-8.23
734.188	0.77
734.212	5.77
734.237	0.77
734.261	3.77
734.286	-9.23
734.311	-18.23
734.335	-14.23
734.36	-23.23
734.384	-5.23
734.409	-4.23
734.434	-15.23
734.458	-5.23
734.483	-3.23
734.507	-23.23
734.532	-22.23
734.556	-5.23
734.581	-6.23
734.606	-0.23
734.63	0.77
734.655	-0.23
734.679	-17.23
734.704	-0.23
734.728	-0.23
734.753	-4.23
734.777	8.77
734.802	-4.23
734.826	-1.23
734.851	-11.23
734.876	6.77
734.9	4.77
734.925	3.77
734.949	-16.23
734.974	-9.23
734.998	-7.23
735.023	-18.23
735.047	-15.23
735.072	8.77
735.096	-15.23
735.121	1.77
735.145	-9.23
735.17	-14.23
735.194	-16.23
735.219	-5.23
735.243	-4.23
735.268	12.77
735.292	-1.23
735.317	-0.23
735.341	1.77
735.365	-11.23
735.39	-1.23
735.414	3.77
735.439	-16.23
735.463	-16.23
735.488	-11.23
735.512	-9.23
735.537	-10.23
735.561	4.77
735.586	-11.23
735.61	3.77
735.634	0.77
735.659	-27.23
735.683	6.77
735.708	-5.23
735.732	-1.23
735.757	-3.23
735.781	-8.23
735.805	-5.23
735.83	-25.23
735.854	-13.23
735.879	-11.23
735.903	-4.23
735.927	1.77
735.952	-4.23
735.976	0.77
736.001	-12.23
736.025	-9.23
736.049	7.77
736.074	-21.23
736.098	-6.23
736.123	-9.23
736.147	13.77
736.171	-0.23
736.196	-0.23
736.22	-14.23
736.244	-6.23
736.269	-11.23
736.293	-5.23
736.317	-11.23
736.342	2.77
736.366	11.77
736.39	8.77
736.415	-4.23
736.439	-13.23
736.463	20.77
736.488	8.77
736.512	-4.23
736.536	8.77
736.561	19.77
736.585	-2.23
736.609	0.77
736.634	-7.23
736.658	-0.23
736.682	-15.23
736.707	-15.23
736.731	-19.23
736.755	-10.23
736.78	10.77
736.804	1.77
736.828	-10.23
736.852	-17.23
736.877	-6.23
736.901	-1.23
736.925	-13.23
736.949	-14.23
736.974	-14.23
736.998	-3.23
737.022	-8.23
737.047	4.77
737.071	-10.23
737.095	8.77
737.119	-2.23
737.144	-1.23
737.168	-12.23
737.192	-3.23
737.216	-5.23
737.241	-8.23
737.265	7.77
737.289	0.77
737.313	2.77
737.337	-22.23
737.362	-4.23
737.386	0.77
737.41	-16.23
737.434	-1.23
737.459	-15.23
737.483	-10.23
737.507	10.77
737.531	-7.23
737.555	3.77
737.58	1.77
737.604	11.77
737.628	-0.23
737.652	-11.23
737.676	-14.23
737.701	-3.23
737.725	-6.23
737.749	4.77
737.773	-0.23
737.797	-1.23
737.821	2.77
737.846	-0.23
737.87	-0.23
737.894	-4.23
737.918	2.77
737.942	-14.23
737.966	-6.23
737.99	-8.23
738.015	-7.23
738.039	-12.23
738.063	-19.23
738.087	4.77
738.111	8.77
738.135	21.77
738.159	2.77
738.184	-23.23
738.208	-10.23
738.232	-0.23
738.256	-3.23
738.28	-11.23
738.304	5.77
738.328	-10.23
738.352	-5.23
738.376	-4.23
738.4	-12.23
738.425	6.77
738.449	-15.23
738.473	7.77
738.497	1.77
738.521	7.77
738.545	9.77
738.569	8.77
738.593	8.77
738.617	4.77
738.641	1.77
738.665	-3.23
738.689	8.77
738.713	-3.23
738.737	-14.23
738.762	17.77
738.786	0.77
738.81	-25.23
738.834	-9.23
738.858	-12.23
738.882	-9.23
738.906	-17.23
738.93	-1.23
738.954	-4.23
738.978	1.77
739.002	4.77
739.026	-7.23
739.05	-6.23
739.074	-27.23
739.098	-0.23
739.122	2.77
739.146	10.77
739.17	-0.23
739.194	8.77
739.218	-10.23
739.242	-2.23
739.266	-13.23
739.29	18.77
739.314	-2.23
739.338	-15.23
739.362	-9.23
739.386	-3.23
739.41	-18.23
739.434	-24.23
739.458	-2.23
739.482	4.77
739.506	8.77
739.53	-22.23
739.554	5.77
739.577	-1.23
739.601	-8.23
739.625	-17.23
739.649	2.77
739.673	-8.23
739.697	8.77
739.721	-14.23
739.745	1.77
739.769	-1.23
739.793	-6.23
739.817	10.77
739.841	-15.23
739.865	0.77
739.889	-3.23
739.912	-3.23
739.936	-10.23
739.96	-11.23
739.984	-11.23
740.008	-13.23
740.032	-17.23
740.056	10.77
740.08	-10.23
740.104	-10.23
740.127	1.77
740.151	-5.23
740.175	5.77
740.199	-6.23
740.223	31.77
740.247	-2.23
740.271	2.77
740.295	-12.23
740.318	-25.23
740.342	-9.23
740.366	-11.23
740.39	-4.23
740.414	-16.23
740.438	-15.23
740.461	14.77
740.485	5.77
740.509	-6.23
740.533	-1.23
740.557	-8.23
740.581	-9.23
740.604	-24.23
740.628	-8.23
740.652	-9.23
740.676	-13.23
740.7	-1.23
740.723	-2.23
740.747	-4.23
740.771	3.77
740.795	-8.23
740.819	4.77
740.842	-17.23
740.866	9.77
740.89	3.77
740.914	-14.23
740.938	-7.23
740.961	9.77
740.985	-2.23
741.009	-4.23
741.033	7.77
741.056	-8.23
741.08	-9.23
741.104	-6.23
741.128	-15.23
741.151	-4.23
741.175	-13.23
741.199	2.77
741.223	9.77
741.246	-6.23
741.27	-14.23
741.294	-13.23
741.318	-18.23
741.341	-1.23
741.365	-2.23
741.389	-2.23
741.413	-3.23
741.436	7.77
741.46	1.77
741.484	-2.23
741.507	2.77
741.531	17.77
741.555	15.77
741.579	7.77
741.602	-3.23
741.626	3.77
741.65	-6.23
741.673	-6.23
741.697	2.77
741.721	-15.23
741.744	-30.23
741.768	-19.23
741.792	-14.23
741.815	-10.23
741.839	8.77
741.863	10.77
741.886	6.77
741.91	16.77
741.934	4.77
741.957	-27.23
741.981	-3.23
742.005	9.77
742.028	-14.23
742.052	-17.23
742.075	4.77
742.099	8.77
742.123	-9.23
742.146	-2.23
742.17	-7.23
742.194	-6.23
742.217	-20.23
742.241	-2.23
742.264	-11.23
742.288	15.77
742.312	14.77
742.335	-6.23
742.359	-2.23
742.382	17.77
742.406	6.77
742.43	-12.23
742.453	-14.23
742.477	-29.23
742.5	-15.23
742.524	-17.23
742.548	-21.23
742.571	-2.23
742.595	7.77
742.618	-11.23
742.642	-22.23
742.665	2.77
742.689	-19.23
742.712	5.77
742.736	-13.23
742.76	-7.23
742.783	-7.23
742.807	12.77
742.83	5.77
742.854	-18.23
742.877	-7.23
742.901	-13.23
742.924	-23.23
742.948	-7.23
742.971	-5.23
742.995	4.77
743.018	-17.23
743.042	-5.23
743.065	-15.23
743.089	2.77
743.112	-5.23
743.136	-2.23
743.159	-15.23
743.183	-11.23
743.206	3.77
743.23	-11.23
743.253	1.77
743.277	0.77
743.3	-7.23
743.324	-0.23
743.347	-5.23
743.371	17.77
743.394	-7.23
743.418	16.77
743.441	10.77
743.465	0.77
743.488	1.77
743.512	-14.23
743.535	-10.23
743.558	4.77
743.582	-22.23
743.605	-5.23
743.629	1.77
743.652	4.77
743.676	2.77
743.699	5.77
743.723	-15.23
743.746	-2.23
743.769	3.77
743.793	2.77
743.816	-13.23
743.84	8.77
743.863	-12.23
743.886	-6.23
743.91	17.77
743.933	6.77
743.957	-10.23
743.98	-1.23
744.003	2.77
744.027	-2.23
744.05	-4.23
744.074	-1.23
744.097	-4.23
744.12	-27.23
744.144	-9.23
744.167	-8.23
744.19	-3.23
744.214	-10.23
744.237	-10.23
744.26	5.77
744.284	-14.23
744.307	-16.23
744.331	0.77
744.354	-25.23
744.377	-20.23
744.401	-1.23
744.424	-11.23
744.447	-15.23
744.471	-30.23
