Data from HighRes_mercury_15_13_11_07_2024_HR4C61891__71__15-14-30-286.txt Node

Date: Thu Nov 07 15:14:30 EST 2024
User: crc00042
Spectrometer: HR4C6189
Trigger mode: 4
Integration Time (sec): 1.000000E-1
Scans to average: 1
Electric dark correction enabled: true
Nonlinearity correction enabled: false
Boxcar width: 0
XAxis mode: Wavelengths
Number of Pixels in Spectrum: 3648
>>>>>Begin Spectral Data<<<<<
639.567	-74.92
639.602	-74.92
639.636	-74.92
639.67	-54.92
639.704	-14.92
639.738	6.08
639.773	10.08
639.807	-18.92
639.841	8.08
639.875	21.08
639.909	3.08
639.943	-6.92
639.978	-3.92
640.012	-0.92
640.046	2.08
640.08	0.08
640.114	-1.92
640.148	-17.92
640.182	-7.92
640.217	4.08
640.251	11.08
640.285	1.08
640.319	-16.92
640.353	-12.92
640.387	-1.92
640.421	-10.92
640.455	3.08
640.49	10.08
640.524	-3.92
640.558	-5.92
640.592	-6.92
640.626	-4.92
640.66	6.08
640.694	-11.92
640.728	-7.92
640.762	12.08
640.796	6.08
640.83	12.08
640.865	-9.92
640.899	17.08
640.933	-14.92
640.967	7.08
641.001	17.08
641.035	-9.92
641.069	-16.92
641.103	-8.92
641.137	-10.92
641.171	-11.92
641.205	5.08
641.239	-0.92
641.273	5.08
641.307	2.08
641.341	9.08
641.375	-10.92
641.409	-22.92
641.443	-17.92
641.477	4.08
641.511	5.08
641.545	-4.92
641.579	-18.92
641.614	-3.92
641.648	-6.92
641.682	-24.92
641.716	3.08
641.75	4.08
641.784	-6.92
641.818	-6.92
641.852	3.08
641.886	-4.92
641.919	10.08
641.953	-2.92
641.987	-12.92
642.021	-0.92
642.055	-0.92
642.089	2.08
642.123	-11.92
642.157	6.08
642.191	-5.92
642.225	6.08
642.259	1.08
642.293	-0.92
642.327	6.08
642.361	-19.92
642.395	2.08
642.429	3.08
642.463	16.08
642.497	14.08
642.531	2.08
642.565	-13.92
642.599	11.08
642.633	-17.92
642.666	-8.92
642.7	6.08
642.734	1.08
642.768	-8.92
642.802	-9.92
642.836	-6.92
642.87	-16.92
642.904	9.08
642.938	-2.92
642.972	-7.92
643.005	-13.92
643.039	0.08
643.073	-3.92
643.107	11.08
643.141	-1.92
643.175	0.08
643.209	6.08
643.243	-3.92
643.276	-15.92
643.31	-5.92
643.344	-3.92
643.378	-14.92
643.412	17.08
643.446	7.08
643.48	-11.92
643.513	-3.92
643.547	-13.92
643.581	-4.92
643.615	1.08
643.649	1.08
643.683	12.08
643.716	-11.92
643.75	-1.92
643.784	-19.92
643.818	-2.92
643.852	-6.92
643.886	8.08
643.919	6.08
643.953	-10.92
643.987	3.08
644.021	-13.92
644.055	-0.92
644.088	16.08
644.122	0.08
644.156	-10.92
644.19	-9.92
644.224	-6.92
644.257	4.08
644.291	21.08
644.325	5.08
644.359	-7.92
644.392	22.08
644.426	15.08
644.46	13.08
644.494	5.08
644.527	-0.92
644.561	5.08
644.595	1.08
644.629	-6.92
644.662	-6.92
644.696	7.08
644.73	0.08
644.764	-0.92
644.797	-1.92
644.831	5.08
644.865	9.08
644.899	-6.92
644.932	19.08
644.966	0.08
645	11.08
645.033	10.08
645.067	-8.92
645.101	10.08
645.135	0.08
645.168	-4.92
645.202	-14.92
645.236	-7.92
645.269	18.08
645.303	-1.92
645.337	-8.92
645.37	-4.92
645.404	-1.92
645.438	-12.92
645.471	-0.92
645.505	-6.92
645.539	-6.92
645.572	-3.92
645.606	-0.92
645.64	-1.92
645.673	7.08
645.707	9.08
645.741	-11.92
645.774	-13.92
645.808	-1.92
645.842	-14.92
645.875	-2.92
645.909	-0.92
645.943	9.08
645.976	1.08
646.01	-1.92
646.043	-7.92
646.077	-9.92
646.111	10.08
646.144	8.08
646.178	7.08
646.212	-17.92
646.245	1.08
646.279	12.08
646.312	18.08
646.346	15.08
646.38	0.08
646.413	3.08
646.447	14.08
646.48	2.08
646.514	-0.92
646.547	5.08
646.581	-8.92
646.615	-9.92
646.648	-10.92
646.682	-1.92
646.715	3.08
646.749	2.08
646.782	-13.92
646.816	-7.92
646.85	9.08
646.883	-11.92
646.917	11.08
646.95	12.08
646.984	-5.92
647.017	-13.92
647.051	1.08
647.084	14.08
647.118	-10.92
647.151	-2.92
647.185	-5.92
647.218	-7.92
647.252	4.08
647.285	-14.92
647.319	-33.92
647.353	-11.92
647.386	21.08
647.42	1.08
647.453	-1.92
647.487	-5.92
647.52	-1.92
647.553	6.08
647.587	-15.92
647.62	-8.92
647.654	14.08
647.687	1.08
647.721	-1.92
647.754	0.08
647.788	0.08
647.821	-5.92
647.855	-4.92
647.888	-3.92
647.922	4.08
647.955	-0.92
647.989	2.08
648.022	-3.92
648.055	19.08
648.089	4.08
648.122	22.08
648.156	6.08
648.189	-1.92
648.223	-9.92
648.256	2.08
648.29	11.08
648.323	0.08
648.356	14.08
648.39	14.08
648.423	-2.92
648.457	-19.92
648.49	5.08
648.523	11.08
648.557	-2.92
648.59	-0.92
648.624	6.08
648.657	3.08
648.69	12.08
648.724	12.08
648.757	12.08
648.791	-0.92
648.824	4.08
648.857	20.08
648.891	-1.92
648.924	-9.92
648.957	19.08
648.991	-13.92
649.024	3.08
649.057	-4.92
649.091	-13.92
649.124	9.08
649.158	9.08
649.191	27.08
649.224	-18.92
649.258	5.08
649.291	-2.92
649.324	7.08
649.358	-5.92
649.391	-0.92
649.424	2.08
649.458	-12.92
649.491	12.08
649.524	-26.92
649.557	-11.92
649.591	-13.92
649.624	2.08
649.657	-16.92
649.691	-4.92
649.724	-6.92
649.757	-10.92
649.791	1.08
649.824	2.08
649.857	0.08
649.89	-1.92
649.924	-17.92
649.957	-8.92
649.99	-8.92
650.023	-19.92
650.057	-1.92
650.09	-0.92
650.123	-11.92
650.157	-5.92
650.19	17.08
650.223	-6.92
650.256	-20.92
650.29	-7.92
650.323	-10.92
650.356	7.08
650.389	-9.92
650.423	-18.92
650.456	-10.92
650.489	-7.92
650.522	14.08
650.555	12.08
650.589	20.08
650.622	13.08
650.655	2.08
650.688	17.08
650.721	-10.92
650.755	3.08
650.788	-3.92
650.821	-0.92
650.854	-7.92
650.887	12.08
650.921	-0.92
650.954	-12.92
650.987	-5.92
651.02	-3.92
651.053	-8.92
651.087	-16.92
651.12	23.08
651.153	11.08
651.186	0.08
651.219	7.08
651.252	27.08
651.286	10.08
651.319	-9.92
651.352	1.08
651.385	1.08
651.418	1.08
651.451	9.08
651.484	6.08
651.518	-0.92
651.551	16.08
651.584	-2.92
651.617	30.08
651.65	-4.92
651.683	11.08
651.716	-11.92
651.749	-15.92
651.783	-10.92
651.816	-9.92
651.849	2.08
651.882	-11.92
651.915	-14.92
651.948	-1.92
651.981	-4.92
652.014	-19.92
652.047	-12.92
652.08	-8.92
652.114	-2.92
652.147	-12.92
652.18	2.08
652.213	27.08
652.246	-5.92
652.279	-2.92
652.312	8.08
652.345	-10.92
652.378	-9.92
652.411	13.08
652.444	11.08
652.477	-3.92
652.51	-2.92
652.543	-22.92
652.576	-1.92
652.609	-21.92
652.642	-3.92
652.675	-8.92
652.709	2.08
652.742	-10.92
652.775	-5.92
652.808	1.08
652.841	2.08
652.874	5.08
652.907	-2.92
652.94	-15.92
652.973	-21.92
653.006	-8.92
653.039	-8.92
653.072	0.08
653.105	8.08
653.138	-20.92
653.171	-15.92
653.204	-3.92
653.237	0.08
653.27	5.08
653.303	-10.92
653.336	-4.92
653.368	-17.92
653.401	0.08
653.434	3.08
653.467	1.08
653.5	-12.92
653.533	-18.92
653.566	11.08
653.599	1.08
653.632	18.08
653.665	8.08
653.698	-20.92
653.731	-5.92
653.764	18.08
653.797	-7.92
653.83	-5.92
653.863	-4.92
653.896	-16.92
653.929	-10.92
653.961	-3.92
653.994	5.08
654.027	-18.92
654.06	-13.92
654.093	-3.92
654.126	-1.92
654.159	-20.92
654.192	8.08
654.225	7.08
654.258	-6.92
654.29	-9.92
654.323	2.08
654.356	-5.92
654.389	-12.92
654.422	-7.92
654.455	3.08
654.488	-6.92
654.521	-21.92
654.553	-26.92
654.586	2.08
654.619	14.08
654.652	-3.92
654.685	6.08
654.718	0.08
654.751	6.08
654.783	3.08
654.816	22.08
654.849	-0.92
654.882	-4.92
654.915	-6.92
654.948	-1.92
654.98	-1.92
655.013	-6.92
655.046	5.08
655.079	-12.92
655.112	-7.92
655.144	-19.92
655.177	8.08
655.21	15.08
655.243	3.08
655.276	-3.92
655.308	-12.92
655.341	-11.92
655.374	12.08
655.407	-9.92
655.44	3.08
655.472	-5.92
655.505	-3.92
655.538	-2.92
655.571	7.08
655.603	-12.92
655.636	-19.92
655.669	-2.92
655.702	-10.92
655.734	-9.92
655.767	-9.92
655.8	-1.92
655.833	11.08
655.865	-0.92
655.898	-14.92
655.931	-24.92
655.964	-1.92
655.996	6.08
656.029	1.08
656.062	-12.92
656.095	-6.92
656.127	-13.92
656.16	2.08
656.193	7.08
656.225	-16.92
656.258	-12.92
656.291	0.08
656.324	6.08
656.356	0.08
656.389	1.08
656.422	12.08
656.454	-9.92
656.487	0.08
656.52	-8.92
656.552	11.08
656.585	-2.92
656.618	8.08
656.65	-9.92
656.683	-12.92
656.716	-2.92
656.748	0.08
656.781	-9.92
656.814	-12.92
656.846	11.08
656.879	-23.92
656.912	-6.92
656.944	-14.92
656.977	-10.92
657.01	2.08
657.042	6.08
657.075	13.08
657.108	-10.92
657.14	-3.92
657.173	7.08
657.205	20.08
657.238	8.08
657.271	-4.92
657.303	-3.92
657.336	4.08
657.369	-9.92
657.401	-1.92
657.434	-18.92
657.466	10.08
657.499	-5.92
657.532	1.08
657.564	7.08
657.597	-4.92
657.629	-7.92
657.662	-12.92
657.694	-14.92
657.727	-12.92
657.76	-7.92
657.792	6.08
657.825	-4.92
657.857	-15.92
657.89	-16.92
657.922	-1.92
657.955	-0.92
657.987	-0.92
658.02	-1.92
658.053	3.08
658.085	-5.92
658.118	-4.92
658.15	11.08
658.183	14.08
658.215	-0.92
658.248	-8.92
658.28	-12.92
658.313	11.08
658.345	4.08
658.378	-13.92
658.41	5.08
658.443	-2.92
658.475	-9.92
658.508	-19.92
658.54	-1.92
658.573	-11.92
658.605	-7.92
658.638	-21.92
658.67	-13.92
658.703	0.08
658.735	-26.92
658.768	-7.92
658.8	-6.92
658.833	17.08
658.865	8.08
658.898	-8.92
658.93	0.08
658.963	-8.92
658.995	4.08
659.028	-3.92
659.06	1.08
659.092	5.08
659.125	-2.92
659.157	4.08
659.19	-2.92
659.222	-7.92
659.255	-1.92
659.287	4.08
659.32	3.08
659.352	-3.92
659.384	6.08
659.417	-4.92
659.449	-8.92
659.482	5.08
659.514	-3.92
659.546	7.08
659.579	-7.92
659.611	12.08
659.644	-8.92
659.676	-16.92
659.708	-2.92
659.741	-11.92
659.773	-2.92
659.806	-6.92
659.838	-13.92
659.87	-14.92
659.903	-20.92
659.935	5.08
659.967	2.08
660	13.08
660.032	-8.92
660.065	-1.92
660.097	-11.92
660.129	-8.92
660.162	-11.92
660.194	2.08
660.226	12.08
660.259	0.08
660.291	-20.92
660.323	-5.92
660.356	1.08
660.388	-2.92
660.42	-0.92
660.453	-3.92
660.485	3.08
660.517	4.08
660.55	9.08
660.582	-4.92
660.614	11.08
660.647	-6.92
660.679	-8.92
660.711	5.08
660.743	-4.92
660.776	-17.92
660.808	-17.92
660.84	-9.92
660.873	-7.92
660.905	-2.92
660.937	-5.92
660.969	2.08
661.002	7.08
661.034	26.08
661.066	2.08
661.099	-9.92
661.131	1.08
661.163	-7.92
661.195	7.08
661.228	21.08
661.26	-10.92
661.292	-8.92
661.324	9.08
661.357	-5.92
661.389	0.08
661.421	23.08
661.453	-1.92
661.485	15.08
661.518	9.08
661.55	3.08
661.582	-7.92
661.614	1.08
661.647	-9.92
661.679	-2.92
661.711	10.08
661.743	-4.92
661.775	0.08
661.808	14.08
661.84	-24.92
661.872	-14.92
661.904	-5.92
661.936	-2.92
661.969	6.08
662.001	-11.92
662.033	-0.92
662.065	-6.92
662.097	13.08
662.129	-3.92
662.162	-6.92
662.194	-2.92
662.226	-8.92
662.258	9.08
662.29	-0.92
662.322	1.08
662.355	-22.92
662.387	6.08
662.419	11.08
662.451	10.08
662.483	10.08
662.515	-4.92
662.547	-7.92
662.58	2.08
662.612	-4.92
662.644	-19.92
662.676	3.08
662.708	6.08
662.74	-10.92
662.772	-8.92
662.804	5.08
662.836	8.08
662.869	1.08
662.901	0.08
662.933	-3.92
662.965	-12.92
662.997	11.08
663.029	-6.92
663.061	0.08
663.093	-1.92
663.125	-2.92
663.157	-3.92
663.189	-8.92
663.221	6.08
663.254	-0.92
663.286	1.08
663.318	2.08
663.35	-6.92
663.382	0.08
663.414	18.08
663.446	10.08
663.478	-16.92
663.51	17.08
663.542	-4.92
663.574	3.08
663.606	7.08
663.638	-8.92
663.67	1.08
663.702	-6.92
663.734	-0.92
663.766	-5.92
663.798	-19.92
663.83	-3.92
663.862	6.08
663.894	-5.92
663.926	-12.92
663.958	20.08
663.99	1.08
664.022	-19.92
664.054	9.08
664.086	-7.92
664.118	-20.92
664.15	-8.92
664.182	-6.92
664.214	1.08
664.246	15.08
664.278	1.08
664.31	1.08
664.342	-15.92
664.374	-4.92
664.406	-3.92
664.438	-11.92
664.47	5.08
664.502	-4.92
664.534	-5.92
664.566	-13.92
664.598	15.08
664.63	13.08
664.662	5.08
664.693	-17.92
664.725	-30.92
664.757	-5.92
664.789	-10.92
664.821	-10.92
664.853	11.08
664.885	4.08
664.917	-14.92
664.949	10.08
664.981	25.08
665.013	0.08
665.045	-12.92
665.076	1.08
665.108	0.08
665.14	-4.92
665.172	-7.92
665.204	-9.92
665.236	-3.92
665.268	10.08
665.3	12.08
665.331	3.08
665.363	4.08
665.395	-24.92
665.427	-16.92
665.459	-1.92
665.491	-4.92
665.523	-1.92
665.555	0.08
665.586	-17.92
665.618	10.08
665.65	-27.92
665.682	10.08
665.714	-7.92
665.746	-9.92
665.777	-3.92
665.809	-14.92
665.841	-3.92
665.873	-7.92
665.905	11.08
665.937	21.08
665.968	-2.92
666	-0.92
666.032	13.08
666.064	-4.92
666.096	-4.92
666.127	9.08
666.159	4.08
666.191	7.08
666.223	7.08
666.255	1.08
666.286	-5.92
666.318	0.08
666.35	16.08
666.382	7.08
666.413	-7.92
666.445	-8.92
666.477	-20.92
666.509	9.08
666.54	-21.92
666.572	-19.92
666.604	-7.92
666.636	-0.92
666.667	2.08
666.699	8.08
666.731	2.08
666.763	-2.92
666.794	-17.92
666.826	10.08
666.858	-4.92
666.89	6.08
666.921	10.08
666.953	3.08
666.985	7.08
667.017	20.08
667.048	6.08
667.08	9.08
667.112	3.08
667.143	0.08
667.175	11.08
667.207	-9.92
667.238	-1.92
667.27	-1.92
667.302	-7.92
667.334	-8.92
667.365	6.08
667.397	-12.92
667.429	-13.92
667.46	17.08
667.492	-1.92
667.524	-19.92
667.555	-12.92
667.587	-12.92
667.619	-15.92
667.65	-13.92
667.682	4.08
667.714	8.08
667.745	9.08
667.777	13.08
667.808	21.08
667.84	-3.92
667.872	-3.92
667.903	11.08
667.935	-8.92
667.967	10.08
667.998	2.08
668.03	-9.92
668.061	9.08
668.093	-7.92
668.125	6.08
668.156	5.08
668.188	0.08
668.22	6.08
668.251	16.08
668.283	6.08
668.314	3.08
668.346	0.08
668.377	23.08
668.409	-3.92
668.441	16.08
668.472	8.08
668.504	11.08
668.535	26.08
668.567	25.08
668.599	2.08
668.63	-13.92
668.662	-4.92
668.693	4.08
668.725	-1.92
668.756	2.08
668.788	0.08
668.819	2.08
668.851	-3.92
668.882	-3.92
668.914	-14.92
668.946	2.08
668.977	-2.92
669.009	-2.92
669.04	-5.92
669.072	-7.92
669.103	-1.92
669.135	7.08
669.166	1.08
669.198	-1.92
669.229	2.08
669.261	-7.92
669.292	-7.92
669.324	-2.92
669.355	-1.92
669.387	-14.92
669.418	-0.92
669.45	-3.92
669.481	2.08
669.513	5.08
669.544	10.08
669.576	-14.92
669.607	5.08
669.639	5.08
669.67	-12.92
669.701	13.08
669.733	4.08
669.764	-12.92
669.796	-5.92
669.827	-7.92
669.859	-7.92
669.89	-3.92
669.922	7.08
669.953	-1.92
669.985	5.08
670.016	-0.92
670.047	-2.92
670.079	9.08
670.11	13.08
670.142	3.08
670.173	-3.92
670.204	0.08
670.236	-8.92
670.267	-10.92
670.299	4.08
670.33	-19.92
670.362	4.08
670.393	-20.92
670.424	2.08
670.456	-11.92
670.487	-1.92
670.518	-2.92
670.55	-8.92
670.581	-11.92
670.613	-14.92
670.644	-5.92
670.675	-19.92
670.707	-6.92
670.738	13.08
670.769	4.08
670.801	-13.92
670.832	2.08
670.864	-2.92
670.895	0.08
670.926	-14.92
670.958	-7.92
670.989	-16.92
671.02	-14.92
671.052	-2.92
671.083	21.08
671.114	0.08
671.146	0.08
671.177	1.08
671.208	-11.92
671.24	-23.92
671.271	-14.92
671.302	-3.92
671.333	-3.92
671.365	-12.92
671.396	-10.92
671.427	6.08
671.459	1.08
671.49	-6.92
671.521	-1.92
671.553	-3.92
671.584	-1.92
671.615	-7.92
671.646	5.08
671.678	0.08
671.709	-0.92
671.74	-14.92
671.771	-17.92
671.803	-18.92
671.834	-16.92
671.865	-1.92
671.896	7.08
671.928	-12.92
671.959	-6.92
671.99	-4.92
672.021	5.08
672.053	-16.92
672.084	1.08
672.115	-2.92
672.146	4.08
672.178	-2.92
672.209	-0.92
672.24	-13.92
672.271	9.08
672.303	4.08
672.334	-0.92
672.365	-17.92
672.396	5.08
672.427	9.08
672.459	11.08
672.49	29.08
672.521	-0.92
672.552	-3.92
672.583	2.08
672.615	5.08
672.646	-1.92
672.677	-17.92
672.708	-12.92
672.739	-10.92
672.77	1.08
672.802	-19.92
672.833	1.08
672.864	3.08
672.895	-16.92
672.926	-9.92
672.957	-20.92
672.989	-4.92
673.02	7.08
673.051	-5.92
673.082	9.08
673.113	2.08
673.144	5.08
673.175	-5.92
673.206	-8.92
673.238	-22.92
673.269	-5.92
673.3	-0.92
673.331	2.08
673.362	-7.92
673.393	-4.92
673.424	3.08
673.455	5.08
673.487	-0.92
673.518	8.08
673.549	8.08
673.58	4.08
673.611	4.08
673.642	-8.92
673.673	-30.92
673.704	-14.92
673.735	-10.92
673.766	1.08
673.797	-1.92
673.828	10.08
673.86	-12.92
673.891	-3.92
673.922	-4.92
673.953	-17.92
673.984	9.08
674.015	16.08
674.046	0.08
674.077	-7.92
674.108	-12.92
674.139	-9.92
674.17	-22.92
674.201	-21.92
674.232	-8.92
674.263	-1.92
674.294	-16.92
674.325	-8.92
674.356	-1.92
674.387	16.08
674.418	-2.92
674.449	9.08
674.48	-12.92
674.511	4.08
674.542	-4.92
674.573	-17.92
674.604	0.08
674.635	-9.92
674.666	8.08
674.697	0.08
674.728	3.08
674.759	-0.92
674.79	-29.92
674.821	-9.92
674.852	-7.92
674.883	-4.92
674.914	-17.92
674.945	-7.92
674.976	-7.92
675.007	-11.92
675.038	-23.92
675.069	-11.92
675.1	-18.92
675.131	-13.92
675.162	-26.92
675.193	-14.92
675.224	-16.92
675.254	-9.92
675.285	-0.92
675.316	9.08
675.347	7.08
675.378	-15.92
675.409	-16.92
675.44	-8.92
675.471	4.08
675.502	-12.92
675.533	-10.92
675.564	-3.92
675.595	-15.92
675.625	9.08
675.656	8.08
675.687	9.08
675.718	-9.92
675.749	17.08
675.78	-1.92
675.811	-11.92
675.842	-2.92
675.873	-2.92
675.903	-16.92
675.934	0.08
675.965	-16.92
675.996	-2.92
676.027	-10.92
676.058	-10.92
676.089	-6.92
676.119	-8.92
676.15	-14.92
676.181	-5.92
676.212	-3.92
676.243	4.08
676.274	-7.92
676.304	9.08
676.335	-6.92
676.366	11.08
676.397	3.08
676.428	4.08
676.459	6.08
676.489	2.08
676.52	6.08
676.551	-19.92
676.582	-1.92
676.613	8.08
676.643	-10.92
676.674	-11.92
676.705	-5.92
676.736	-12.92
676.767	6.08
676.797	6.08
676.828	2.08
676.859	-3.92
676.89	-4.92
676.92	-5.92
676.951	-6.92
676.982	-8.92
677.013	-9.92
677.044	2.08
677.074	26.08
677.105	-13.92
677.136	-0.92
677.167	4.08
677.197	0.08
677.228	-21.92
677.259	-25.92
677.289	-17.92
677.32	-33.92
677.351	-13.92
677.382	5.08
677.412	5.08
677.443	-8.92
677.474	-11.92
677.505	-16.92
677.535	-8.92
677.566	-5.92
677.597	-14.92
677.627	-15.92
677.658	-5.92
677.689	-6.92
677.72	0.08
677.75	-6.92
677.781	1.08
677.812	-18.92
677.842	7.08
677.873	-2.92
677.904	-0.92
677.934	-11.92
677.965	-21.92
677.996	-20.92
678.026	-2.92
678.057	-6.92
678.088	-23.92
678.118	0.08
678.149	-15.92
678.18	-8.92
678.21	-4.92
678.241	-1.92
678.272	-17.92
678.302	-0.92
678.333	9.08
678.363	-4.92
678.394	-0.92
678.425	8.08
678.455	0.08
678.486	11.08
678.517	1.08
678.547	-11.92
678.578	-2.92
678.608	-16.92
678.639	9.08
678.67	-1.92
678.7	-0.92
678.731	-5.92
678.761	6.08
678.792	7.08
678.823	-19.92
678.853	-3.92
678.884	-20.92
678.914	3.08
678.945	-14.92
678.975	-10.92
679.006	1.08
679.037	-16.92
679.067	25.08
679.098	-13.92
679.128	-10.92
679.159	2.08
679.189	13.08
679.22	-14.92
679.25	-1.92
679.281	-2.92
679.312	1.08
679.342	-0.92
679.373	12.08
679.403	-5.92
679.434	3.08
679.464	-17.92
679.495	2.08
679.525	8.08
679.556	-2.92
679.586	2.08
679.617	-1.92
679.647	2.08
679.678	-0.92
679.708	-0.92
679.739	-4.92
679.769	-17.92
679.8	5.08
679.83	-1.92
679.861	7.08
679.891	-1.92
679.922	-18.92
679.952	-9.92
679.983	-0.92
680.013	16.08
680.044	-7.92
680.074	17.08
680.105	4.08
680.135	6.08
680.165	-1.92
680.196	2.08
680.226	-9.92
680.257	-4.92
680.287	10.08
680.318	4.08
680.348	-3.92
680.379	12.08
680.409	1.08
680.439	-18.92
680.47	-5.92
680.5	10.08
680.531	-2.92
680.561	10.08
680.592	1.08
680.622	8.08
680.652	0.08
680.683	4.08
680.713	-19.92
680.744	-8.92
680.774	-24.92
680.804	7.08
680.835	2.08
680.865	-8.92
680.896	18.08
680.926	8.08
680.956	2.08
680.987	-8.92
681.017	-11.92
681.047	12.08
681.078	-17.92
681.108	-6.92
681.139	0.08
681.169	10.08
681.199	-0.92
681.23	14.08
681.26	-9.92
681.29	-6.92
681.321	-17.92
681.351	-13.92
681.381	-18.92
681.412	-6.92
681.442	-0.92
681.472	0.08
681.503	2.08
681.533	1.08
681.563	0.08
681.594	0.08
681.624	-4.92
681.654	0.08
681.685	-5.92
681.715	-3.92
681.745	0.08
681.775	-5.92
681.806	-4.92
681.836	-1.92
681.866	-16.92
681.897	-0.92
681.927	3.08
681.957	-20.92
681.987	-3.92
682.018	-8.92
682.048	0.08
682.078	-8.92
682.109	2.08
682.139	-3.92
682.169	-4.92
682.199	-3.92
682.23	-10.92
682.26	-0.92
682.29	-24.92
682.32	0.08
682.351	5.08
682.381	7.08
682.411	-2.92
682.441	-26.92
682.472	-10.92
682.502	0.08
682.532	-13.92
682.562	5.08
682.592	6.08
682.623	1.08
682.653	-10.92
682.683	-3.92
682.713	10.08
682.743	-6.92
682.774	-28.92
682.804	-3.92
682.834	11.08
682.864	-8.92
682.894	-16.92
682.925	-5.92
682.955	-3.92
682.985	9.08
683.015	19.08
683.045	8.08
683.076	-21.92
683.106	-7.92
683.136	-11.92
683.166	-0.92
683.196	-10.92
683.226	-8.92
683.257	-22.92
683.287	4.08
683.317	1.08
683.347	-19.92
683.377	-17.92
683.407	-4.92
683.437	2.08
683.468	13.08
683.498	-0.92
683.528	-6.92
683.558	0.08
683.588	-19.92
683.618	-25.92
683.648	-8.92
683.678	-3.92
683.708	3.08
683.739	-5.92
683.769	-5.92
683.799	3.08
683.829	3.08
683.859	3.08
683.889	13.08
683.919	-7.92
683.949	11.08
683.979	3.08
684.009	-1.92
684.039	-2.92
684.07	7.08
684.1	5.08
684.13	1.08
684.16	3.08
684.19	-11.92
684.22	-14.92
684.25	5.08
684.28	-2.92
684.31	1.08
684.34	3.08
684.37	21.08
684.4	-8.92
684.43	14.08
684.46	-0.92
684.49	-5.92
684.52	2.08
684.55	0.08
684.58	-0.92
684.61	-4.92
684.64	3.08
684.67	5.08
684.7	5.08
684.73	12.08
684.76	0.08
684.79	9.08
684.82	-5.92
684.85	-19.92
684.88	10.08
684.91	-8.92
684.94	-8.92
684.97	-9.92
685	-26.92
685.03	9.08
685.06	-2.92
685.09	-0.92
685.12	8.08
685.15	-8.92
685.18	9.08
685.21	3.08
685.24	7.08
685.27	10.08
685.3	-9.92
685.33	10.08
685.36	0.08
685.39	-6.92
685.42	0.08
685.45	-6.92
685.48	-3.92
685.51	6.08
685.54	-0.92
685.569	-3.92
685.599	1.08
685.629	10.08
685.659	4.08
685.689	-3.92
685.719	1.08
685.749	-1.92
685.779	12.08
685.809	-3.92
685.839	10.08
685.869	-5.92
685.898	6.08
685.928	4.08
685.958	-13.92
685.988	7.08
686.018	-1.92
686.048	-2.92
686.078	4.08
686.108	9.08
686.137	-4.92
686.167	20.08
686.197	-19.92
686.227	-2.92
686.257	19.08
686.287	4.08
686.317	1.08
686.346	-20.92
686.376	-4.92
686.406	0.08
686.436	6.08
686.466	-4.92
686.496	14.08
686.525	-2.92
686.555	-5.92
686.585	19.08
686.615	26.08
686.645	7.08
686.675	12.08
686.704	5.08
686.734	6.08
686.764	-20.92
686.794	-2.92
686.824	-5.92
686.853	7.08
686.883	-2.92
686.913	14.08
686.943	-11.92
686.973	6.08
687.002	8.08
687.032	-3.92
687.062	-5.92
687.092	16.08
687.121	-3.92
687.151	5.08
687.181	-10.92
687.211	-7.92
687.24	-30.92
687.27	-4.92
687.3	-12.92
687.33	11.08
687.359	-18.92
687.389	12.08
687.419	-1.92
687.449	-1.92
687.478	-3.92
687.508	-9.92
687.538	6.08
687.568	9.08
687.597	-6.92
687.627	5.08
687.657	-1.92
687.686	-2.92
687.716	13.08
687.746	-8.92
687.776	-7.92
687.805	8.08
687.835	3.08
687.865	16.08
687.894	10.08
687.924	-4.92
687.954	0.08
687.983	5.08
688.013	-2.92
688.043	4.08
688.072	-12.92
688.102	3.08
688.132	1.08
688.161	-2.92
688.191	-4.92
688.221	28.08
688.25	-12.92
688.28	0.08
688.31	-14.92
688.339	7.08
688.369	1.08
688.399	-8.92
688.428	-0.92
688.458	-5.92
688.488	-1.92
688.517	3.08
688.547	-3.92
688.576	23.08
688.606	20.08
688.636	1.08
688.665	3.08
688.695	0.08
688.725	1.08
688.754	6.08
688.784	0.08
688.813	17.08
688.843	1.08
688.873	-18.92
688.902	-1.92
688.932	-1.92
688.961	-5.92
688.991	12.08
689.02	-3.92
689.05	-1.92
689.08	5.08
689.109	-0.92
689.139	7.08
689.168	-0.92
689.198	-0.92
689.227	-15.92
689.257	-7.92
689.287	24.08
689.316	-4.92
689.346	-9.92
689.375	-10.92
689.405	9.08
689.434	-4.92
689.464	-0.92
689.493	-9.92
689.523	-4.92
689.552	-7.92
689.582	-24.92
689.611	-7.92
689.641	-1.92
689.67	-6.92
689.7	7.08
689.73	14.08
689.759	6.08
689.789	12.08
689.818	7.08
689.848	-1.92
689.877	17.08
689.906	5.08
689.936	-2.92
689.965	18.08
689.995	21.08
690.024	18.08
690.054	4.08
690.083	7.08
690.113	-0.92
690.142	2.08
690.172	2.08
690.201	3.08
690.231	7.08
690.26	2.08
690.29	-0.92
690.319	19.08
690.348	6.08
690.378	5.08
690.407	2.08
690.437	1.08
690.466	-4.92
690.496	-9.92
690.525	6.08
690.555	1.08
690.584	-2.92
690.613	-19.92
690.643	-12.92
690.672	15.08
690.702	1.08
690.731	-10.92
690.76	22.08
690.79	42.08
690.819	37.08
690.849	45.08
690.878	6.08
690.907	8.08
690.937	11.08
690.966	12.08
690.996	-15.92
691.025	-10.92
691.054	-9.92
691.084	3.08
691.113	-4.92
691.142	5.08
691.172	17.08
691.201	23.08
691.23	-5.92
691.26	-2.92
691.289	0.08
691.319	1.08
691.348	8.08
691.377	25.08
691.407	0.08
691.436	11.08
691.465	-9.92
691.495	-6.92
691.524	-14.92
691.553	1.08
691.583	-5.92
691.612	8.08
691.641	-1.92
691.67	-0.92
691.7	5.08
691.729	-8.92
691.758	5.08
691.788	-1.92
691.817	-11.92
691.846	1.08
691.876	1.08
691.905	4.08
691.934	-8.92
691.963	5.08
691.993	-1.92
692.022	0.08
692.051	-8.92
692.081	-5.92
692.11	9.08
692.139	-4.92
692.168	15.08
692.198	9.08
692.227	2.08
692.256	7.08
692.285	-6.92
692.315	-2.92
692.344	1.08
692.373	-0.92
692.402	-24.92
692.432	-14.92
692.461	-8.92
692.49	-1.92
692.519	15.08
692.548	10.08
692.578	4.08
692.607	-11.92
692.636	-9.92
692.665	11.08
692.694	-5.92
692.724	12.08
692.753	5.08
692.782	9.08
692.811	-9.92
692.84	-10.92
692.87	-17.92
692.899	-13.92
692.928	-7.92
692.957	-5.92
692.986	4.08
693.016	-2.92
693.045	3.08
693.074	8.08
693.103	-13.92
693.132	0.08
693.161	11.08
693.191	-6.92
693.22	-7.92
693.249	0.08
693.278	1.08
693.307	10.08
693.336	7.08
693.365	-14.92
693.395	-6.92
693.424	-7.92
693.453	11.08
693.482	10.08
693.511	-3.92
693.54	2.08
693.569	7.08
693.598	0.08
693.628	4.08
693.657	4.08
693.686	4.08
693.715	12.08
693.744	7.08
693.773	14.08
693.802	0.08
693.831	-1.92
693.86	18.08
693.889	-2.92
693.919	-2.92
693.948	-4.92
693.977	7.08
694.006	-11.92
694.035	5.08
694.064	-8.92
694.093	-2.92
694.122	4.08
694.151	4.08
694.18	-0.92
694.209	16.08
694.238	6.08
694.267	7.08
694.296	15.08
694.325	15.08
694.354	5.08
694.383	7.08
694.412	8.08
694.441	-9.92
694.471	-14.92
694.5	-17.92
694.529	-7.92
694.558	8.08
694.587	12.08
694.616	1.08
694.645	-4.92
694.674	16.08
694.703	25.08
694.732	10.08
694.761	3.08
694.79	11.08
694.819	-18.92
694.848	4.08
694.877	23.08
694.906	14.08
694.935	-11.92
694.963	13.08
694.992	-6.92
695.021	11.08
695.05	16.08
695.079	-1.92
695.108	-1.92
695.137	5.08
695.166	10.08
695.195	-4.92
695.224	3.08
695.253	-6.92
695.282	-5.92
695.311	-7.92
695.34	9.08
695.369	7.08
695.398	-1.92
695.427	18.08
695.456	-4.92
695.485	-2.92
695.513	-1.92
695.542	-16.92
695.571	-7.92
695.6	5.08
695.629	-6.92
695.658	7.08
695.687	-11.92
695.716	2.08
695.745	27.08
695.774	-14.92
695.802	-4.92
695.831	15.08
695.86	14.08
695.889	13.08
695.918	-4.92
695.947	-14.92
695.976	-2.92
696.005	-1.92
696.033	14.08
696.062	32.08
696.091	-5.92
696.12	3.08
696.149	9.08
696.178	-8.92
696.207	-9.92
696.235	-5.92
696.264	12.08
696.293	2.08
696.322	2.08
696.351	23.08
696.38	-3.92
696.408	-0.92
696.437	2.08
696.466	8.08
696.495	5.08
696.524	12.08
696.553	-0.92
696.581	3.08
696.61	7.08
696.639	-6.92
696.668	-12.92
696.697	3.08
696.725	-0.92
696.754	0.08
696.783	2.08
696.812	2.08
696.84	12.08
696.869	-2.92
696.898	1.08
696.927	-7.92
696.956	24.08
696.984	-0.92
697.013	8.08
697.042	11.08
697.071	7.08
697.099	15.08
697.128	4.08
697.157	6.08
697.186	5.08
697.214	2.08
697.243	-18.92
697.272	-8.92
697.301	7.08
697.329	-7.92
697.358	-8.92
697.387	23.08
697.415	5.08
697.444	-8.92
697.473	2.08
697.502	-17.92
697.53	-1.92
697.559	6.08
697.588	1.08
697.616	-4.92
697.645	-8.92
697.674	12.08
697.703	6.08
697.731	17.08
697.76	3.08
697.789	3.08
697.817	-5.92
697.846	8.08
697.875	-1.92
697.903	15.08
697.932	6.08
697.961	3.08
697.989	15.08
698.018	3.08
698.047	-3.92
698.075	-2.92
698.104	-3.92
698.133	-10.92
698.161	6.08
698.19	-4.92
698.218	-4.92
698.247	0.08
698.276	3.08
698.304	19.08
698.333	7.08
698.362	2.08
698.39	15.08
698.419	-2.92
698.447	-5.92
698.476	-17.92
698.505	1.08
698.533	5.08
698.562	-2.92
698.591	-6.92
698.619	9.08
698.648	3.08
698.676	-8.92
698.705	-3.92
698.733	-16.92
698.762	4.08
698.791	5.08
698.819	-5.92
698.848	12.08
698.876	-0.92
698.905	-1.92
698.933	0.08
698.962	2.08
698.991	-3.92
699.019	18.08
699.048	-7.92
699.076	9.08
699.105	-21.92
699.133	-4.92
699.162	2.08
699.19	15.08
699.219	1.08
699.248	-1.92
699.276	-2.92
699.305	-1.92
699.333	4.08
699.362	-6.92
699.39	11.08
699.419	-10.92
699.447	-11.92
699.476	4.08
699.504	-7.92
699.533	-9.92
699.561	-14.92
699.59	-15.92
699.618	5.08
699.647	21.08
699.675	4.08
699.704	18.08
699.732	-8.92
699.761	2.08
699.789	0.08
699.818	2.08
699.846	-10.92
699.874	-13.92
699.903	-13.92
699.931	-5.92
699.96	3.08
699.988	-11.92
700.017	7.08
700.045	4.08
700.074	-6.92
700.102	2.08
700.13	-8.92
700.159	3.08
700.187	10.08
700.216	15.08
700.244	-12.92
700.273	-8.92
700.301	-12.92
700.329	-5.92
700.358	6.08
700.386	-24.92
700.415	-0.92
700.443	-9.92
700.472	-7.92
700.5	-2.92
700.528	2.08
700.557	-2.92
700.585	-4.92
700.614	-5.92
700.642	11.08
700.67	10.08
700.699	5.08
700.727	-11.92
700.755	16.08
700.784	-5.92
700.812	-9.92
700.841	6.08
700.869	-2.92
700.897	-12.92
700.926	-0.92
700.954	0.08
700.982	-12.92
701.011	-5.92
701.039	10.08
701.067	1.08
701.096	14.08
701.124	-11.92
701.152	-4.92
701.181	-12.92
701.209	-2.92
701.237	4.08
701.266	-2.92
701.294	-8.92
701.322	-9.92
701.351	-0.92
701.379	10.08
701.407	-1.92
701.435	2.08
701.464	3.08
701.492	23.08
701.52	-8.92
701.549	-0.92
701.577	-15.92
701.605	-5.92
701.634	0.08
701.662	5.08
701.69	-19.92
701.718	-16.92
701.747	6.08
701.775	-12.92
701.803	1.08
701.831	6.08
701.86	-10.92
701.888	7.08
701.916	6.08
701.944	7.08
701.973	2.08
702.001	-17.92
702.029	-12.92
702.057	-16.92
702.086	-17.92
702.114	-10.92
702.142	-3.92
702.17	-13.92
702.199	-1.92
702.227	-2.92
702.255	-7.92
702.283	-4.92
702.311	-4.92
702.34	-13.92
702.368	-6.92
702.396	-16.92
702.424	-18.92
702.452	-16.92
702.481	3.08
702.509	-4.92
702.537	6.08
702.565	0.08
702.593	-20.92
702.621	-8.92
702.65	11.08
702.678	-0.92
702.706	5.08
702.734	-4.92
702.762	-0.92
702.79	-8.92
702.819	0.08
702.847	5.08
702.875	7.08
702.903	15.08
702.931	4.08
702.959	11.08
702.988	-1.92
703.016	-4.92
703.044	-13.92
703.072	-9.92
703.1	-3.92
703.128	7.08
703.156	-7.92
703.184	-5.92
703.212	4.08
703.241	-3.92
703.269	5.08
703.297	4.08
703.325	-3.92
703.353	-1.92
703.381	-5.92
703.409	-4.92
703.437	-5.92
703.465	6.08
703.493	2.08
703.522	3.08
703.55	4.08
703.578	-0.92
703.606	-6.92
703.634	-11.92
703.662	-9.92
703.69	-8.92
703.718	-1.92
703.746	7.08
703.774	-11.92
703.802	22.08
703.83	1.08
703.858	3.08
703.886	-10.92
703.914	-7.92
703.942	8.08
703.97	-18.92
703.998	-0.92
704.027	5.08
704.055	1.08
704.083	8.08
704.111	-0.92
704.139	4.08
704.167	-1.92
704.195	-20.92
704.223	-14.92
704.251	-6.92
704.279	-6.92
704.307	-8.92
704.335	-13.92
704.363	-3.92
704.391	-11.92
704.419	-8.92
704.447	-13.92
704.475	7.08
704.503	-14.92
704.531	5.08
704.558	9.08
704.586	-6.92
704.614	-10.92
704.642	-13.92
704.67	-18.92
704.698	-12.92
704.726	-10.92
704.754	5.08
704.782	-4.92
704.81	-0.92
704.838	14.08
704.866	-5.92
704.894	-4.92
704.922	-3.92
704.95	0.08
704.978	0.08
705.006	-0.92
705.034	11.08
705.061	-12.92
705.089	4.08
705.117	-8.92
705.145	-6.92
705.173	-6.92
705.201	11.08
705.229	8.08
705.257	-6.92
705.285	3.08
705.313	-22.92
705.34	-12.92
705.368	-7.92
705.396	0.08
705.424	-0.92
705.452	-10.92
705.48	-2.92
705.508	-4.92
705.536	-2.92
705.563	1.08
705.591	3.08
705.619	0.08
705.647	-12.92
705.675	4.08
705.703	0.08
705.731	-0.92
705.758	6.08
705.786	-3.92
705.814	16.08
705.842	7.08
705.87	20.08
705.898	17.08
705.925	0.08
705.953	11.08
705.981	-13.92
706.009	-10.92
706.037	6.08
706.065	-17.92
706.092	-30.92
706.12	-1.92
706.148	4.08
706.176	-3.92
706.204	4.08
706.231	6.08
706.259	-6.92
706.287	-10.92
706.315	-8.92
706.342	-10.92
706.37	14.08
706.398	-8.92
706.426	-13.92
706.454	-22.92
706.481	-5.92
706.509	1.08
706.537	-3.92
706.565	-12.92
706.592	3.08
706.62	2.08
706.648	-3.92
706.676	-8.92
706.703	1.08
706.731	-12.92
706.759	-11.92
706.787	8.08
706.814	-2.92
706.842	-13.92
706.87	-14.92
706.897	-1.92
706.925	15.08
706.953	13.08
706.981	19.08
707.008	-3.92
707.036	-2.92
707.064	0.08
707.091	-21.92
707.119	-1.92
707.147	-19.92
707.174	-13.92
707.202	2.08
707.23	-4.92
707.258	-2.92
707.285	-3.92
707.313	-8.92
707.341	-6.92
707.368	-12.92
707.396	-2.92
707.424	-5.92
707.451	2.08
707.479	-0.92
707.507	-4.92
707.534	-1.92
707.562	-14.92
707.59	1.08
707.617	-2.92
707.645	-0.92
707.672	-5.92
707.7	-8.92
707.728	1.08
707.755	0.08
707.783	-6.92
707.811	-3.92
707.838	-10.92
707.866	3.08
707.893	-1.92
707.921	-8.92
707.949	-24.92
707.976	-1.92
708.004	13.08
708.031	3.08
708.059	-11.92
708.087	3.08
708.114	-10.92
708.142	-0.92
708.169	-10.92
708.197	3.08
708.225	-0.92
708.252	4.08
708.28	42.08
708.307	1.08
708.335	5.08
708.362	-7.92
708.39	-17.92
708.418	-6.92
708.445	-6.92
708.473	-6.92
708.5	-15.92
708.528	5.08
708.555	-10.92
708.583	-11.92
708.61	1.08
708.638	2.08
708.665	-18.92
708.693	-11.92
708.72	-12.92
708.748	-15.92
708.776	-1.92
708.803	11.08
708.831	1.08
708.858	14.08
708.886	3.08
708.913	14.08
708.941	0.08
708.968	12.08
708.996	-14.92
709.023	23.08
709.051	17.08
709.078	-5.92
709.105	1.08
709.133	-4.92
709.16	-2.92
709.188	11.08
709.215	6.08
709.243	5.08
709.27	-14.92
709.298	-15.92
709.325	-4.92
709.353	-10.92
709.38	8.08
709.408	12.08
709.435	-6.92
709.462	2.08
709.49	1.08
709.517	-0.92
709.545	-0.92
709.572	0.08
709.6	-4.92
709.627	-5.92
709.655	-10.92
709.682	4.08
709.709	-2.92
709.737	-20.92
709.764	-15.92
709.792	3.08
709.819	-3.92
709.846	-6.92
709.874	-4.92
709.901	7.08
709.929	9.08
709.956	10.08
709.983	-3.92
710.011	-6.92
710.038	-24.92
710.066	12.08
710.093	3.08
710.12	-12.92
710.148	2.08
710.175	-13.92
710.202	-6.92
710.23	-11.92
710.257	-4.92
710.284	1.08
710.312	5.08
710.339	2.08
710.366	-0.92
710.394	2.08
710.421	-0.92
710.448	0.08
710.476	-6.92
710.503	-9.92
710.53	0.08
710.558	25.08
710.585	21.08
710.612	3.08
710.64	-3.92
710.667	2.08
710.694	-3.92
710.722	4.08
710.749	13.08
710.776	1.08
710.804	10.08
710.831	8.08
710.858	-5.92
710.885	12.08
710.913	-16.92
710.94	12.08
710.967	9.08
710.995	2.08
711.022	5.08
711.049	3.08
711.076	-19.92
711.104	1.08
711.131	-25.92
711.158	-1.92
711.185	13.08
711.213	-12.92
711.24	2.08
711.267	-6.92
711.294	3.08
711.322	14.08
711.349	0.08
711.376	-6.92
711.403	0.08
711.431	-4.92
711.458	-10.92
711.485	-1.92
711.512	-4.92
711.54	-8.92
711.567	4.08
711.594	-4.92
711.621	6.08
711.648	-8.92
711.676	-0.92
711.703	5.08
711.73	-33.92
711.757	4.08
711.784	-2.92
711.812	-1.92
711.839	-4.92
711.866	-12.92
711.893	-18.92
711.92	-1.92
711.947	0.08
711.975	6.08
712.002	0.08
712.029	21.08
712.056	-1.92
712.083	-5.92
712.11	-18.92
712.138	-5.92
712.165	-0.92
712.192	-4.92
712.219	-7.92
712.246	-5.92
712.273	-8.92
712.3	-18.92
712.328	-11.92
712.355	0.08
712.382	-2.92
712.409	3.08
712.436	-10.92
712.463	9.08
712.49	18.08
712.517	-2.92
712.544	-7.92
712.572	-0.92
712.599	3.08
712.626	-19.92
712.653	-11.92
712.68	-12.92
712.707	-9.92
712.734	-0.92
712.761	2.08
712.788	-0.92
712.815	3.08
712.842	7.08
712.87	-10.92
712.897	0.08
712.924	-11.92
712.951	7.08
712.978	5.08
713.005	6.08
713.032	2.08
713.059	-20.92
713.086	-8.92
713.113	-5.92
713.14	-9.92
713.167	8.08
713.194	11.08
713.221	-4.92
713.248	7.08
713.275	-1.92
713.302	-6.92
713.329	-2.92
713.356	-4.92
713.383	-6.92
713.41	5.08
713.437	-10.92
713.464	-0.92
713.491	18.08
713.518	10.08
713.545	-4.92
713.572	2.08
713.599	0.08
713.626	1.08
713.653	4.08
713.68	-17.92
713.707	-8.92
713.734	7.08
713.761	-9.92
713.788	-2.92
713.815	9.08
713.842	-11.92
713.869	-13.92
713.896	4.08
713.923	11.08
713.95	11.08
713.977	-10.92
714.004	-15.92
714.031	-10.92
714.058	-5.92
714.085	-1.92
714.112	9.08
714.139	6.08
714.165	-15.92
714.192	-13.92
714.219	13.08
714.246	5.08
714.273	-5.92
714.3	-4.92
714.327	-5.92
714.354	3.08
714.381	-4.92
714.408	-14.92
714.435	-13.92
714.461	-14.92
714.488	-6.92
714.515	-9.92
714.542	-36.92
714.569	-26.92
714.596	-25.92
714.623	-14.92
714.65	-5.92
714.677	-7.92
714.703	6.08
714.73	-0.92
714.757	-5.92
714.784	-6.92
714.811	-10.92
714.838	-5.92
714.865	-17.92
714.891	6.08
714.918	-2.92
714.945	-22.92
714.972	-2.92
714.999	10.08
715.026	3.08
715.052	10.08
715.079	-1.92
715.106	4.08
715.133	-6.92
715.16	-6.92
715.187	-5.92
715.213	1.08
715.24	-10.92
715.267	2.08
715.294	-2.92
715.321	-5.92
715.347	4.08
715.374	-15.92
715.401	-12.92
715.428	-18.92
715.455	-9.92
715.481	-13.92
715.508	19.08
715.535	-0.92
715.562	27.08
715.588	4.08
715.615	13.08
715.642	1.08
715.669	3.08
715.695	-24.92
715.722	-13.92
715.749	6.08
715.776	-1.92
715.802	3.08
715.829	2.08
715.856	-21.92
715.883	3.08
715.909	1.08
715.936	-6.92
715.963	-5.92
715.99	-8.92
716.016	-5.92
716.043	-16.92
716.07	-3.92
716.096	-16.92
716.123	-8.92
716.15	-9.92
716.177	2.08
716.203	-5.92
716.23	5.08
716.257	20.08
716.283	11.08
716.31	8.08
716.337	-21.92
716.363	-6.92
716.39	-2.92
716.417	5.08
716.443	8.08
716.47	8.08
716.497	1.08
716.523	9.08
716.55	-10.92
716.577	-1.92
716.603	-10.92
716.63	8.08
716.657	7.08
716.683	-0.92
716.71	-1.92
716.737	-16.92
716.763	3.08
716.79	5.08
716.817	14.08
716.843	-11.92
716.87	-12.92
716.897	7.08
716.923	16.08
716.95	-2.92
716.976	-4.92
717.003	-1.92
717.03	-3.92
717.056	-0.92
717.083	0.08
717.109	3.08
717.136	2.08
717.163	-5.92
717.189	-0.92
717.216	12.08
717.242	-7.92
717.269	10.08
717.296	3.08
717.322	7.08
717.349	12.08
717.375	1.08
717.402	-11.92
717.428	-6.92
717.455	2.08
717.481	14.08
717.508	9.08
717.535	2.08
717.561	-3.92
717.588	-12.92
717.614	-1.92
717.641	1.08
717.667	12.08
717.694	8.08
717.72	5.08
717.747	13.08
717.773	-11.92
717.8	0.08
717.826	9.08
717.853	7.08
717.88	-6.92
717.906	3.08
717.933	10.08
717.959	13.08
717.986	8.08
718.012	-8.92
718.039	0.08
718.065	11.08
718.092	-2.92
718.118	-18.92
718.144	-7.92
718.171	2.08
718.197	27.08
718.224	-8.92
718.25	-6.92
718.277	0.08
718.303	-7.92
718.33	5.08
718.356	-8.92
718.383	-14.92
718.409	17.08
718.436	-4.92
718.462	2.08
718.489	-15.92
718.515	-1.92
718.541	-0.92
718.568	6.08
718.594	-6.92
718.621	-11.92
718.647	-4.92
718.674	13.08
718.7	-2.92
718.726	-0.92
718.753	-5.92
718.779	5.08
718.806	2.08
718.832	-7.92
718.858	-9.92
718.885	-9.92
718.911	-1.92
718.938	-1.92
718.964	2.08
718.99	6.08
719.017	-6.92
719.043	10.08
719.07	-2.92
719.096	-12.92
719.122	3.08
719.149	-2.92
719.175	2.08
719.201	-0.92
719.228	2.08
719.254	9.08
719.281	-8.92
719.307	7.08
719.333	-9.92
719.36	5.08
719.386	0.08
719.412	0.08
719.439	-10.92
719.465	2.08
719.491	-14.92
719.518	5.08
719.544	2.08
719.57	8.08
719.597	3.08
719.623	-16.92
719.649	2.08
719.675	-1.92
719.702	-1.92
719.728	-0.92
719.754	-2.92
719.781	-6.92
719.807	10.08
719.833	9.08
719.86	-0.92
719.886	-9.92
719.912	3.08
719.938	-4.92
719.965	3.08
719.991	4.08
720.017	-2.92
720.044	-6.92
720.07	2.08
720.096	2.08
720.122	-1.92
720.149	2.08
720.175	4.08
720.201	5.08
720.227	-4.92
720.254	-6.92
720.28	-8.92
720.306	-20.92
720.332	9.08
720.359	-9.92
720.385	-10.92
720.411	1.08
720.437	7.08
720.463	5.08
720.49	7.08
720.516	-7.92
720.542	-13.92
720.568	-15.92
720.595	12.08
720.621	15.08
720.647	6.08
720.673	6.08
720.699	-10.92
720.725	-2.92
720.752	16.08
720.778	6.08
720.804	9.08
720.83	11.08
720.856	5.08
720.883	1.08
720.909	-8.92
720.935	3.08
720.961	13.08
720.987	-9.92
721.013	-6.92
721.04	3.08
721.066	-3.92
721.092	6.08
721.118	-0.92
721.144	5.08
721.17	-15.92
721.196	-10.92
721.223	-4.92
721.249	7.08
721.275	18.08
721.301	-4.92
721.327	17.08
721.353	6.08
721.379	2.08
721.405	1.08
721.432	14.08
721.458	10.08
721.484	10.08
721.51	-1.92
721.536	1.08
721.562	6.08
721.588	-0.92
721.614	-6.92
721.64	6.08
721.666	-0.92
721.693	-11.92
721.719	-1.92
721.745	-2.92
721.771	-2.92
721.797	-0.92
721.823	5.08
721.849	18.08
721.875	-1.92
721.901	-4.92
721.927	-6.92
721.953	-2.92
721.979	11.08
722.005	14.08
722.031	-6.92
722.057	-7.92
722.083	-6.92
722.109	4.08
722.135	6.08
722.161	9.08
722.187	-9.92
722.214	-9.92
722.24	-1.92
722.266	-8.92
722.292	-0.92
722.318	11.08
722.344	8.08
722.37	7.08
722.396	17.08
722.422	-2.92
722.448	-10.92
722.474	-15.92
722.5	13.08
722.526	11.08
722.552	-5.92
722.578	-2.92
722.603	16.08
722.629	-12.92
722.655	-8.92
722.681	-14.92
722.707	-2.92
722.733	-7.92
722.759	-8.92
722.785	11.08
722.811	-7.92
722.837	-4.92
722.863	1.08
722.889	1.08
722.915	2.08
722.941	-7.92
722.967	-1.92
722.993	9.08
723.019	-10.92
723.045	10.08
723.071	-4.92
723.097	-8.92
723.122	-4.92
723.148	-4.92
723.174	-0.92
723.2	22.08
723.226	-3.92
723.252	6.08
723.278	-1.92
723.304	-14.92
723.33	-4.92
723.356	-6.92
723.381	-12.92
723.407	-20.92
723.433	11.08
723.459	-0.92
723.485	6.08
723.511	-8.92
723.537	-10.92
723.563	-9.92
723.588	-4.92
723.614	13.08
723.64	-6.92
723.666	-4.92
723.692	3.08
723.718	6.08
723.744	-1.92
723.769	-0.92
723.795	-8.92
723.821	-8.92
723.847	-14.92
723.873	-3.92
723.899	2.08
723.924	15.08
723.95	10.08
723.976	-16.92
724.002	-7.92
724.028	-4.92
724.053	-10.92
724.079	-8.92
724.105	-1.92
724.131	-10.92
724.157	-13.92
724.182	6.08
724.208	-0.92
724.234	15.08
724.26	-14.92
724.286	13.08
724.311	8.08
724.337	-5.92
724.363	1.08
724.389	13.08
724.415	-20.92
724.44	-2.92
724.466	-2.92
724.492	8.08
724.518	20.08
724.543	-0.92
724.569	5.08
724.595	-0.92
724.621	-18.92
724.646	-0.92
724.672	1.08
724.698	-9.92
724.723	-14.92
724.749	-2.92
724.775	1.08
724.801	4.08
724.826	2.08
724.852	-21.92
724.878	-9.92
724.904	-26.92
724.929	-7.92
724.955	-17.92
724.981	-9.92
725.006	9.08
725.032	-1.92
725.058	2.08
725.083	-13.92
725.109	0.08
725.135	6.08
725.161	-6.92
725.186	-12.92
725.212	-17.92
725.238	1.08
725.263	-6.92
725.289	-2.92
725.315	-4.92
725.34	3.08
725.366	-10.92
725.392	-12.92
725.417	-6.92
725.443	4.08
725.468	-0.92
725.494	-14.92
725.52	-6.92
725.545	-12.92
725.571	-9.92
725.597	-0.92
725.622	-8.92
725.648	-12.92
725.674	7.08
725.699	-8.92
725.725	-1.92
725.75	15.08
725.776	3.08
725.802	-4.92
725.827	1.08
725.853	-14.92
725.878	-6.92
725.904	-8.92
725.93	-15.92
725.955	-17.92
725.981	-2.92
726.006	3.08
726.032	13.08
726.057	-11.92
726.083	-6.92
726.109	4.08
726.134	16.08
726.16	1.08
726.185	-0.92
726.211	-14.92
726.236	-0.92
726.262	-9.92
726.288	-1.92
726.313	4.08
726.339	6.08
726.364	10.08
726.39	14.08
726.415	-14.92
726.441	-13.92
726.466	-10.92
726.492	6.08
726.517	-2.92
726.543	-12.92
726.568	-15.92
726.594	-7.92
726.619	9.08
726.645	14.08
726.67	14.08
726.696	8.08
726.721	-18.92
726.747	-17.92
726.772	1.08
726.798	-0.92
726.823	12.08
726.849	-12.92
726.874	-1.92
726.9	28.08
726.925	2.08
726.951	5.08
726.976	12.08
727.002	-10.92
727.027	7.08
727.053	12.08
727.078	-2.92
727.104	-0.92
727.129	-2.92
727.155	1.08
727.18	12.08
727.205	-3.92
727.231	-2.92
727.256	-13.92
727.282	0.08
727.307	18.08
727.333	1.08
727.358	-9.92
727.383	-1.92
727.409	-29.92
727.434	17.08
727.46	-6.92
727.485	10.08
727.511	1.08
727.536	-16.92
727.561	-14.92
727.587	-13.92
727.612	1.08
727.637	-6.92
727.663	-1.92
727.688	9.08
727.714	-17.92
727.739	-6.92
727.764	6.08
727.79	3.08
727.815	-3.92
727.841	-6.92
727.866	-3.92
727.891	6.08
727.917	-7.92
727.942	-23.92
727.967	-13.92
727.993	-15.92
728.018	-2.92
728.043	-6.92
728.069	3.08
728.094	5.08
728.119	-12.92
728.145	22.08
728.17	-0.92
728.195	2.08
728.221	9.08
728.246	-2.92
728.271	-18.92
728.297	7.08
728.322	-3.92
728.347	-0.92
728.373	-9.92
728.398	-1.92
728.423	-0.92
728.448	-6.92
728.474	15.08
728.499	5.08
728.524	-5.92
728.55	-0.92
728.575	-5.92
728.6	-5.92
728.625	-0.92
728.651	2.08
728.676	-2.92
728.701	-13.92
728.727	-1.92
728.752	-0.92
728.777	6.08
728.802	3.08
728.828	-13.92
728.853	-9.92
728.878	-6.92
728.903	-13.92
728.929	-11.92
728.954	-13.92
728.979	-0.92
729.004	-18.92
729.03	-9.92
729.055	15.08
729.08	1.08
729.105	-6.92
729.13	14.08
729.156	-1.92
729.181	7.08
729.206	-13.92
729.231	-11.92
729.256	7.08
729.282	-0.92
729.307	-12.92
729.332	-9.92
729.357	3.08
729.382	-8.92
729.408	-2.92
729.433	-2.92
729.458	-4.92
729.483	15.08
729.508	10.08
729.533	-0.92
729.559	5.08
729.584	-15.92
729.609	10.08
729.634	3.08
729.659	1.08
729.684	-10.92
729.71	13.08
729.735	0.08
729.76	-8.92
729.785	-4.92
729.81	15.08
729.835	-9.92
729.86	-9.92
729.886	20.08
729.911	9.08
729.936	5.08
729.961	13.08
729.986	12.08
730.011	54.08
730.036	203.08
730.061	1041.08
730.086	2702.08
730.112	3393.08
730.137	2818.08
730.162	2111.08
730.187	1706.08
730.212	1290.08
730.237	795.08
730.262	444.08
730.287	250.08
730.312	146.08
730.337	72.08
730.362	60.08
730.387	23.08
730.413	17.08
730.438	13.08
730.463	12.08
730.488	-4.92
730.513	-13.92
730.538	-4.92
730.563	25.08
730.588	25.08
730.613	13.08
730.638	5.08
730.663	5.08
730.688	19.08
730.713	6.08
730.738	8.08
730.763	-12.92
730.788	-22.92
730.813	5.08
730.838	-8.92
730.863	-2.92
730.888	-3.92
730.913	-11.92
730.938	-3.92
730.963	22.08
730.988	118.08
731.013	410.08
731.038	602.08
731.063	610.08
731.088	468.08
731.113	329.08
731.138	260.08
731.163	178.08
731.188	91.08
731.213	63.08
731.238	44.08
731.263	17.08
731.288	7.08
731.313	12.08
731.338	12.08
731.363	0.08
731.388	14.08
731.413	17.08
731.438	20.08
731.463	6.08
731.487	7.08
731.512	-0.92
731.537	-11.92
731.562	-6.92
731.587	12.08
731.612	-10.92
731.637	9.08
731.662	7.08
731.687	10.08
731.712	-19.92
731.737	-6.92
731.762	-11.92
731.786	3.08
731.811	6.08
731.836	9.08
731.861	-5.92
731.886	0.08
731.911	-3.92
731.936	-1.92
731.961	-6.92
731.986	1.08
732.01	10.08
732.035	5.08
732.06	-0.92
732.085	-10.92
732.11	-11.92
732.135	-7.92
732.16	11.08
732.184	-3.92
732.209	9.08
732.234	10.08
732.259	-15.92
732.284	2.08
732.309	-11.92
732.334	7.08
732.358	-16.92
732.383	-17.92
732.408	-3.92
732.433	6.08
732.458	-3.92
732.482	-1.92
732.507	-10.92
732.532	7.08
732.557	17.08
732.582	-3.92
732.607	12.08
732.631	49.08
732.656	79.08
732.681	132.08
732.706	342.08
732.73	452.08
732.755	421.08
732.78	290.08
732.805	245.08
732.83	170.08
732.854	127.08
732.879	89.08
732.904	52.08
732.929	32.08
732.953	39.08
732.978	7.08
733.003	-1.92
733.028	1.08
733.052	21.08
733.077	-8.92
733.102	9.08
733.127	2.08
733.151	4.08
733.176	4.08
733.201	-6.92
733.226	-9.92
733.25	-0.92
733.275	-14.92
733.3	4.08
733.324	17.08
733.349	10.08
733.374	18.08
733.399	-5.92
733.423	-3.92
733.448	-4.92
733.473	-9.92
733.497	3.08
733.522	-19.92
733.547	-16.92
733.571	7.08
733.596	4.08
733.621	10.08
733.646	11.08
733.67	-1.92
733.695	-6.92
733.72	-9.92
733.744	14.08
733.769	4.08
733.794	6.08
733.818	3.08
733.843	-19.92
733.867	-16.92
733.892	1.08
733.917	-4.92
733.941	0.08
733.966	-2.92
733.991	-9.92
734.015	35.08
734.04	-1.92
734.065	1.08
734.089	12.08
734.114	-8.92
734.138	11.08
734.163	-1.92
734.188	14.08
734.212	12.08
734.237	4.08
734.261	5.08
734.286	-17.92
734.311	-1.92
734.335	-1.92
734.36	-14.92
734.384	-2.92
734.409	4.08
734.434	-18.92
734.458	2.08
734.483	-10.92
734.507	-9.92
734.532	0.08
734.556	5.08
734.581	8.08
734.606	-6.92
734.63	-7.92
734.655	1.08
734.679	-1.92
734.704	-9.92
734.728	8.08
734.753	3.08
734.777	-4.92
734.802	-10.92
734.826	3.08
734.851	14.08
734.876	1.08
734.9	-3.92
734.925	19.08
734.949	1.08
734.974	1.08
734.998	-4.92
735.023	-19.92
735.047	-15.92
735.072	15.08
735.096	10.08
735.121	6.08
735.145	-6.92
735.17	-14.92
735.194	-1.92
735.219	10.08
735.243	11.08
735.268	11.08
735.292	7.08
735.317	0.08
735.341	-8.92
735.365	-12.92
735.39	5.08
735.414	-3.92
735.439	-9.92
735.463	-14.92
735.488	20.08
735.512	3.08
735.537	5.08
735.561	0.08
735.586	-0.92
735.61	0.08
735.634	-12.92
735.659	10.08
735.683	1.08
735.708	-8.92
735.732	-2.92
735.757	3.08
735.781	7.08
735.805	-4.92
735.83	-16.92
735.854	-5.92
735.879	-14.92
735.903	-6.92
735.927	15.08
735.952	9.08
735.976	-0.92
736.001	-5.92
736.025	2.08
736.049	8.08
736.074	-4.92
736.098	-7.92
736.123	1.08
736.147	1.08
736.171	10.08
736.196	6.08
736.22	10.08
736.244	-0.92
736.269	-1.92
736.293	0.08
736.317	1.08
736.342	5.08
736.366	7.08
736.39	-0.92
736.415	8.08
736.439	1.08
736.463	-1.92
736.488	-5.92
736.512	-3.92
736.536	11.08
736.561	18.08
736.585	-2.92
736.609	10.08
736.634	-11.92
736.658	-8.92
736.682	-0.92
736.707	-8.92
736.731	-16.92
736.755	-4.92
736.78	-1.92
736.804	19.08
736.828	-2.92
736.852	-12.92
736.877	8.08
736.901	6.08
736.925	-5.92
736.949	-3.92
736.974	-6.92
736.998	-7.92
737.022	-6.92
737.047	-8.92
737.071	-15.92
737.095	14.08
737.119	32.08
737.144	16.08
737.168	-16.92
737.192	-17.92
737.216	-12.92
737.241	-0.92
737.265	5.08
737.289	-0.92
737.313	-4.92
737.337	9.08
737.362	2.08
737.386	-10.92
737.41	-3.92
737.434	12.08
737.459	-3.92
737.483	7.08
737.507	-1.92
737.531	5.08
737.555	15.08
737.58	8.08
737.604	18.08
737.628	-13.92
737.652	1.08
737.676	-9.92
737.701	-3.92
737.725	-10.92
737.749	10.08
737.773	-1.92
737.797	-1.92
737.821	-8.92
737.846	-4.92
737.87	27.08
737.894	7.08
737.918	-0.92
737.942	-7.92
737.966	2.08
737.99	1.08
738.015	4.08
738.039	-10.92
738.063	-12.92
738.087	15.08
738.111	-0.92
738.135	4.08
738.159	2.08
738.184	2.08
738.208	10.08
738.232	2.08
738.256	15.08
738.28	-14.92
738.304	-16.92
738.328	-4.92
738.352	-1.92
738.376	0.08
738.4	7.08
738.425	10.08
738.449	-3.92
738.473	19.08
738.497	1.08
738.521	0.08
738.545	-0.92
738.569	5.08
738.593	4.08
738.617	1.08
738.641	-5.92
738.665	4.08
738.689	-4.92
738.713	-9.92
738.737	1.08
738.762	10.08
738.786	-0.92
738.81	-10.92
738.834	8.08
738.858	-0.92
738.882	-5.92
738.906	-4.92
738.93	-9.92
738.954	6.08
738.978	-5.92
739.002	-15.92
739.026	10.08
739.05	-10.92
739.074	-13.92
739.098	16.08
739.122	11.08
739.146	13.08
739.17	-9.92
739.194	24.08
739.218	-2.92
739.242	-13.92
739.266	-2.92
739.29	15.08
739.314	1.08
739.338	-2.92
739.362	6.08
739.386	-12.92
739.41	-2.92
739.434	2.08
739.458	8.08
739.482	9.08
739.506	4.08
739.53	-0.92
739.554	23.08
739.577	-12.92
739.601	-6.92
739.625	-29.92
739.649	-10.92
739.673	-6.92
739.697	9.08
739.721	-1.92
739.745	11.08
739.769	11.08
739.793	5.08
739.817	-9.92
739.841	0.08
739.865	-5.92
739.889	-22.92
739.912	22.08
739.936	12.08
739.96	2.08
739.984	13.08
740.008	5.08
740.032	1.08
740.056	1.08
740.08	9.08
740.104	-8.92
740.127	7.08
740.151	9.08
740.175	6.08
740.199	1.08
740.223	31.08
740.247	2.08
740.271	9.08
740.295	-1.92
740.318	-18.92
740.342	-14.92
740.366	-10.92
740.39	13.08
740.414	1.08
740.438	-6.92
740.461	7.08
740.485	-0.92
740.509	-6.92
740.533	0.08
740.557	2.08
740.581	10.08
740.604	-8.92
740.628	-4.92
740.652	-4.92
740.676	-8.92
740.7	2.08
740.723	-12.92
740.747	-2.92
740.771	-15.92
740.795	-7.92
740.819	15.08
740.842	12.08
740.866	20.08
740.89	-2.92
740.914	-12.92
740.938	-9.92
740.961	12.08
740.985	-7.92
741.009	3.08
741.033	20.08
741.056	-3.92
741.08	-4.92
741.104	-13.92
741.128	-12.92
741.151	6.08
741.175	4.08
741.199	-2.92
741.223	2.08
741.246	-10.92
741.27	-5.92
741.294	2.08
741.318	5.08
741.341	-18.92
741.365	-1.92
741.389	-0.92
741.413	12.08
741.436	13.08
741.46	5.08
741.484	-1.92
741.507	13.08
741.531	9.08
741.555	2.08
741.579	-2.92
741.602	-0.92
741.626	7.08
741.65	-7.92
741.673	-9.92
741.697	5.08
741.721	6.08
741.744	-1.92
741.768	-21.92
741.792	7.08
741.815	-7.92
741.839	-0.92
741.863	20.08
741.886	10.08
741.91	13.08
741.934	15.08
741.957	-6.92
741.981	6.08
742.005	-7.92
742.028	-13.92
742.052	-9.92
742.075	7.08
742.099	9.08
742.123	-1.92
742.146	-4.92
742.17	-5.92
742.194	-13.92
742.217	-2.92
742.241	-16.92
742.264	-8.92
742.288	23.08
742.312	6.08
742.335	21.08
742.359	-7.92
742.382	7.08
742.406	14.08
742.43	-16.92
742.453	7.08
742.477	-16.92
742.5	-8.92
742.524	-10.92
742.548	-16.92
742.571	5.08
742.595	-4.92
742.618	3.08
742.642	-11.92
742.665	5.08
742.689	-22.92
742.712	1.08
742.736	10.08
742.76	-2.92
742.783	-5.92
742.807	-5.92
742.83	13.08
742.854	-6.92
742.877	-7.92
742.901	3.08
742.924	-11.92
742.948	-13.92
742.971	-6.92
742.995	3.08
743.018	-5.92
743.042	-13.92
743.065	-6.92
743.089	3.08
743.112	-6.92
743.136	-9.92
743.159	-9.92
743.183	-16.92
743.206	-9.92
743.23	2.08
743.253	11.08
743.277	5.08
743.3	-10.92
743.324	12.08
743.347	-13.92
743.371	-4.92
743.394	4.08
743.418	7.08
743.441	8.08
743.465	-9.92
743.488	6.08
743.512	-0.92
743.535	-8.92
743.558	2.08
743.582	-1.92
743.605	-3.92
743.629	-1.92
743.652	6.08
743.676	-6.92
743.699	10.08
743.723	13.08
743.746	8.08
743.769	-9.92
743.793	-2.92
743.816	-2.92
743.84	5.08
743.863	-8.92
743.886	-3.92
743.91	-5.92
743.933	8.08
743.957	0.08
743.98	-9.92
744.003	-15.92
744.027	-6.92
744.05	-5.92
744.074	1.08
744.097	-12.92
744.12	-11.92
744.144	-19.92
744.167	14.08
744.19	0.08
744.214	-15.92
744.237	-6.92
744.26	13.08
744.284	-2.92
744.307	-2.92
744.331	-2.92
744.354	-23.92
744.377	-1.92
744.401	2.08
744.424	0.08
744.447	-8.92
744.471	-6.92
