Data from HighRes_mercury_15_13_11_07_2024_HR4C61891__27__15-14-25-886.txt Node

Date: Thu Nov 07 15:14:25 EST 2024
User: crc00042
Spectrometer: HR4C6189
Trigger mode: 4
Integration Time (sec): 1.000000E-1
Scans to average: 1
Electric dark correction enabled: true
Nonlinearity correction enabled: false
Boxcar width: 0
XAxis mode: Wavelengths
Number of Pixels in Spectrum: 3648
>>>>>Begin Spectral Data<<<<<
639.567	-48.85
639.602	-48.85
639.636	-48.85
639.67	-36.85
639.704	-14.85
639.738	-3.85
639.773	7.15
639.807	-13.85
639.841	5.15
639.875	20.15
639.909	-2.85
639.943	-7.85
639.978	-4.85
640.012	-0.85
640.046	11.15
640.08	10.15
640.114	1.15
640.148	-20.85
640.182	-6.85
640.217	-4.85
640.251	9.15
640.285	13.15
640.319	2.15
640.353	-1.85
640.387	3.15
640.421	-10.85
640.455	2.15
640.49	3.15
640.524	9.15
640.558	7.15
640.592	-21.85
640.626	4.15
640.66	2.15
640.694	-7.85
640.728	12.15
640.762	14.15
640.796	18.15
640.83	17.15
640.865	-23.85
640.899	5.15
640.933	-15.85
640.967	10.15
641.001	17.15
641.035	6.15
641.069	3.15
641.103	-7.85
641.137	8.15
641.171	2.15
641.205	14.15
641.239	7.15
641.273	17.15
641.307	15.15
641.341	1.15
641.375	-2.85
641.409	-11.85
641.443	12.15
641.477	2.15
641.511	6.15
641.545	1.15
641.579	-23.85
641.614	7.15
641.648	1.15
641.682	-5.85
641.716	7.15
641.75	28.15
641.784	-7.85
641.818	15.15
641.852	-1.85
641.886	-7.85
641.919	32.15
641.953	2.15
641.987	2.15
642.021	10.15
642.055	5.15
642.089	7.15
642.123	0.15
642.157	1.15
642.191	-9.85
642.225	13.15
642.259	4.15
642.293	0.15
642.327	-7.85
642.361	-19.85
642.395	2.15
642.429	20.15
642.463	-1.85
642.497	30.15
642.531	2.15
642.565	-8.85
642.599	-4.85
642.633	-4.85
642.666	9.15
642.7	11.15
642.734	10.15
642.768	-9.85
642.802	-9.85
642.836	9.15
642.87	5.15
642.904	18.15
642.938	27.15
642.972	8.15
643.005	6.15
643.039	18.15
643.073	3.15
643.107	-2.85
643.141	-1.85
643.175	4.15
643.209	5.15
643.243	3.15
643.276	5.15
643.31	-4.85
643.344	10.15
643.378	-4.85
643.412	2.15
643.446	10.15
643.48	2.15
643.513	-3.85
643.547	3.15
643.581	-6.85
643.615	14.15
643.649	5.15
643.683	2.15
643.716	4.15
643.75	1.15
643.784	-17.85
643.818	2.15
643.852	-2.85
643.886	8.15
643.919	16.15
643.953	-19.85
643.987	19.15
644.021	12.15
644.055	4.15
644.088	0.15
644.122	-10.85
644.156	-18.85
644.19	-4.85
644.224	0.15
644.257	-1.85
644.291	20.15
644.325	4.15
644.359	8.15
644.392	14.15
644.426	12.15
644.46	3.15
644.494	2.15
644.527	-0.85
644.561	0.15
644.595	-7.85
644.629	-3.85
644.662	-0.85
644.696	7.15
644.73	5.15
644.764	1.15
644.797	5.15
644.831	13.15
644.865	17.15
644.899	1.15
644.932	29.15
644.966	9.15
645	12.15
645.033	11.15
645.067	3.15
645.101	9.15
645.135	3.15
645.168	-0.85
645.202	5.15
645.236	4.15
645.269	12.15
645.303	-9.85
645.337	-4.85
645.37	2.15
645.404	-0.85
645.438	5.15
645.471	-10.85
645.505	12.15
645.539	5.15
645.572	-32.85
645.606	-2.85
645.64	6.15
645.673	6.15
645.707	31.15
645.741	5.15
645.774	-4.85
645.808	16.15
645.842	3.15
645.875	29.15
645.909	-7.85
645.943	0.15
645.976	2.15
646.01	1.15
646.043	15.15
646.077	2.15
646.111	9.15
646.144	2.15
646.178	7.15
646.212	-12.85
646.245	-5.85
646.279	-0.85
646.312	6.15
646.346	12.15
646.38	-7.85
646.413	6.15
646.447	10.15
646.48	0.15
646.514	4.15
646.547	-1.85
646.581	-9.85
646.615	-2.85
646.648	-14.85
646.682	1.15
646.715	-12.85
646.749	7.15
646.782	-6.85
646.816	3.15
646.85	11.15
646.883	2.15
646.917	0.15
646.95	4.15
646.984	8.15
647.017	8.15
647.051	1.15
647.084	7.15
647.118	3.15
647.151	-9.85
647.185	-1.85
647.218	-6.85
647.252	-1.85
647.285	2.15
647.319	2.15
647.353	3.15
647.386	10.15
647.42	3.15
647.453	2.15
647.487	4.15
647.52	-2.85
647.553	4.15
647.587	-0.85
647.62	-12.85
647.654	6.15
647.687	14.15
647.721	15.15
647.754	5.15
647.788	1.15
647.821	4.15
647.855	19.15
647.888	19.15
647.922	18.15
647.955	13.15
647.989	-2.85
648.022	-1.85
648.055	16.15
648.089	-7.85
648.122	10.15
648.156	0.15
648.189	1.15
648.223	9.15
648.256	8.15
648.29	-3.85
648.323	8.15
648.356	14.15
648.39	11.15
648.423	6.15
648.457	-5.85
648.49	20.15
648.523	5.15
648.557	2.15
648.59	1.15
648.624	5.15
648.657	10.15
648.69	4.15
648.724	10.15
648.757	26.15
648.791	6.15
648.824	19.15
648.857	10.15
648.891	10.15
648.924	10.15
648.957	11.15
648.991	-16.85
649.024	19.15
649.057	9.15
649.091	-11.85
649.124	10.15
649.158	11.15
649.191	17.15
649.224	13.15
649.258	17.15
649.291	13.15
649.324	11.15
649.358	3.15
649.391	-2.85
649.424	7.15
649.458	4.15
649.491	4.15
649.524	-8.85
649.557	-16.85
649.591	-15.85
649.624	10.15
649.657	-13.85
649.691	-6.85
649.724	14.15
649.757	-3.85
649.791	-4.85
649.824	27.15
649.857	10.15
649.89	-9.85
649.924	-18.85
649.957	-9.85
649.99	-11.85
650.023	-14.85
650.057	0.15
650.09	7.15
650.123	18.15
650.157	18.15
650.19	5.15
650.223	-1.85
650.256	-3.85
650.29	-7.85
650.323	6.15
650.356	5.15
650.389	3.15
650.423	-5.85
650.456	0.15
650.489	-2.85
650.522	-1.85
650.555	8.15
650.589	1.15
650.622	0.15
650.655	14.15
650.688	1.15
650.721	-5.85
650.755	-2.85
650.788	-3.85
650.821	-0.85
650.854	-4.85
650.887	-6.85
650.921	-2.85
650.954	1.15
650.987	0.15
651.02	4.15
651.053	-8.85
651.087	-12.85
651.12	22.15
651.153	11.15
651.186	9.15
651.219	-8.85
651.252	13.15
651.286	10.15
651.319	-10.85
651.352	4.15
651.385	2.15
651.418	-1.85
651.451	1.15
651.484	-4.85
651.518	-8.85
651.551	-0.85
651.584	-22.85
651.617	14.15
651.65	20.15
651.683	19.15
651.716	7.15
651.749	0.15
651.783	5.15
651.816	-4.85
651.849	4.15
651.882	7.15
651.915	7.15
651.948	20.15
651.981	-5.85
652.014	-5.85
652.047	-5.85
652.08	-5.85
652.114	10.15
652.147	-3.85
652.18	-3.85
652.213	35.15
652.246	-8.85
652.279	-15.85
652.312	27.15
652.345	2.15
652.378	-1.85
652.411	10.15
652.444	-6.85
652.477	4.15
652.51	12.15
652.543	-24.85
652.576	-8.85
652.609	5.15
652.642	-19.85
652.675	17.15
652.709	-13.85
652.742	-5.85
652.775	1.15
652.808	35.15
652.841	0.15
652.874	2.15
652.907	4.15
652.94	-12.85
652.973	-5.85
653.006	-2.85
653.039	7.15
653.072	-3.85
653.105	-2.85
653.138	-17.85
653.171	-2.85
653.204	-8.85
653.237	-5.85
653.27	0.15
653.303	-0.85
653.336	5.15
653.368	-0.85
653.401	-7.85
653.434	3.15
653.467	8.15
653.5	0.15
653.533	-16.85
653.566	-3.85
653.599	-13.85
653.632	0.15
653.665	3.15
653.698	-13.85
653.731	-16.85
653.764	19.15
653.797	11.15
653.83	23.15
653.863	-7.85
653.896	7.15
653.929	6.15
653.961	9.15
653.994	13.15
654.027	-31.85
654.06	0.15
654.093	10.15
654.126	23.15
654.159	-12.85
654.192	0.15
654.225	-8.85
654.258	-0.85
654.29	17.15
654.323	13.15
654.356	-9.85
654.389	-4.85
654.422	14.15
654.455	-3.85
654.488	5.15
654.521	-5.85
654.553	-8.85
654.586	7.15
654.619	8.15
654.652	7.15
654.685	11.15
654.718	11.15
654.751	4.15
654.783	3.15
654.816	26.15
654.849	-12.85
654.882	-1.85
654.915	1.15
654.948	-5.85
654.98	5.15
655.013	-4.85
655.046	11.15
655.079	-3.85
655.112	9.15
655.144	-29.85
655.177	-4.85
655.21	-0.85
655.243	16.15
655.276	9.15
655.308	-6.85
655.341	-10.85
655.374	-0.85
655.407	-6.85
655.44	-10.85
655.472	7.15
655.505	8.15
655.538	-2.85
655.571	-2.85
655.603	-12.85
655.636	-10.85
655.669	-2.85
655.702	-0.85
655.734	-1.85
655.767	1.15
655.8	-5.85
655.833	7.15
655.865	3.15
655.898	-14.85
655.931	7.15
655.964	13.15
655.996	-7.85
656.029	18.15
656.062	18.15
656.095	-0.85
656.127	-23.85
656.16	2.15
656.193	14.15
656.225	7.15
656.258	-9.85
656.291	-4.85
656.324	1.15
656.356	21.15
656.389	10.15
656.422	17.15
656.454	-5.85
656.487	0.15
656.52	14.15
656.552	9.15
656.585	1.15
656.618	16.15
656.65	5.15
656.683	-4.85
656.716	4.15
656.748	4.15
656.781	1.15
656.814	-6.85
656.846	6.15
656.879	9.15
656.912	-0.85
656.944	-10.85
656.977	-5.85
657.01	15.15
657.042	14.15
657.075	23.15
657.108	-11.85
657.14	14.15
657.173	20.15
657.205	27.15
657.238	-9.85
657.271	4.15
657.303	-10.85
657.336	6.15
657.369	7.15
657.401	-9.85
657.434	2.15
657.466	3.15
657.499	-6.85
657.532	-12.85
657.564	9.15
657.597	11.15
657.629	5.15
657.662	3.15
657.694	0.15
657.727	-7.85
657.76	4.15
657.792	0.15
657.825	12.15
657.857	-5.85
657.89	-9.85
657.922	16.15
657.955	-14.85
657.987	4.15
658.02	20.15
658.053	34.15
658.085	1.15
658.118	6.15
658.15	17.15
658.183	14.15
658.215	4.15
658.248	0.15
658.28	-5.85
658.313	14.15
658.345	2.15
658.378	-6.85
658.41	-7.85
658.443	20.15
658.475	0.15
658.508	-15.85
658.54	-8.85
658.573	-4.85
658.605	3.15
658.638	10.15
658.67	3.15
658.703	-3.85
658.735	-13.85
658.768	-4.85
658.8	-15.85
658.833	6.15
658.865	-1.85
658.898	-4.85
658.93	-1.85
658.963	-3.85
658.995	-10.85
659.028	3.15
659.06	-3.85
659.092	-9.85
659.125	8.15
659.157	8.15
659.19	1.15
659.222	-1.85
659.255	17.15
659.287	-4.85
659.32	-0.85
659.352	6.15
659.384	8.15
659.417	-5.85
659.449	8.15
659.482	9.15
659.514	1.15
659.546	10.15
659.579	-2.85
659.611	-11.85
659.644	2.15
659.676	4.15
659.708	-3.85
659.741	-5.85
659.773	6.15
659.806	3.15
659.838	22.15
659.87	8.15
659.903	-0.85
659.935	-4.85
659.967	3.15
660	2.15
660.032	-10.85
660.065	32.15
660.097	6.15
660.129	3.15
660.162	-15.85
660.194	6.15
660.226	2.15
660.259	0.15
660.291	-1.85
660.323	-12.85
660.356	5.15
660.388	-5.85
660.42	-5.85
660.453	11.15
660.485	1.15
660.517	20.15
660.55	3.15
660.582	-14.85
660.614	7.15
660.647	-5.85
660.679	-5.85
660.711	-7.85
660.743	-13.85
660.776	-5.85
660.808	2.15
660.84	0.15
660.873	9.15
660.905	-5.85
660.937	-4.85
660.969	-6.85
661.002	-6.85
661.034	16.15
661.066	-8.85
661.099	-0.85
661.131	15.15
661.163	13.15
661.195	-3.85
661.228	28.15
661.26	-11.85
661.292	-11.85
661.324	1.15
661.357	-7.85
661.389	3.15
661.421	7.15
661.453	11.15
661.485	12.15
661.518	7.15
661.55	-14.85
661.582	0.15
661.614	6.15
661.647	1.15
661.679	-4.85
661.711	12.15
661.743	-12.85
661.775	-0.85
661.808	22.15
661.84	-0.85
661.872	-0.85
661.904	-1.85
661.936	-2.85
661.969	-0.85
662.001	0.15
662.033	0.15
662.065	-14.85
662.097	26.15
662.129	30.15
662.162	-6.85
662.194	2.15
662.226	4.15
662.258	5.15
662.29	-9.85
662.322	1.15
662.355	-15.85
662.387	19.15
662.419	1.15
662.451	15.15
662.483	3.15
662.515	3.15
662.547	-1.85
662.58	-13.85
662.612	6.15
662.644	-16.85
662.676	-1.85
662.708	8.15
662.74	5.15
662.772	8.15
662.804	13.15
662.836	5.15
662.869	-2.85
662.901	15.15
662.933	-1.85
662.965	16.15
662.997	17.15
663.029	-1.85
663.061	13.15
663.093	1.15
663.125	12.15
663.157	5.15
663.189	2.15
663.221	17.15
663.254	-4.85
663.286	15.15
663.318	1.15
663.35	-10.85
663.382	2.15
663.414	6.15
663.446	7.15
663.478	1.15
663.51	31.15
663.542	-11.85
663.574	-5.85
663.606	-22.85
663.638	-17.85
663.67	-13.85
663.702	-8.85
663.734	-7.85
663.766	2.15
663.798	-13.85
663.83	2.15
663.862	9.15
663.894	21.15
663.926	-1.85
663.958	24.15
663.99	3.15
664.022	2.15
664.054	10.15
664.086	-7.85
664.118	-6.85
664.15	1.15
664.182	6.15
664.214	-17.85
664.246	12.15
664.278	7.15
664.31	15.15
664.342	1.15
664.374	7.15
664.406	2.15
664.438	-6.85
664.47	7.15
664.502	-10.85
664.534	6.15
664.566	2.15
664.598	12.15
664.63	6.15
664.662	-3.85
664.693	6.15
664.725	-9.85
664.757	-14.85
664.789	-8.85
664.821	10.15
664.853	7.15
664.885	-3.85
664.917	16.15
664.949	14.15
664.981	12.15
665.013	11.15
665.045	7.15
665.076	-13.85
665.108	-5.85
665.14	-4.85
665.172	-1.85
665.204	-5.85
665.236	-0.85
665.268	11.15
665.3	-10.85
665.331	-28.85
665.363	-4.85
665.395	-7.85
665.427	-17.85
665.459	-7.85
665.491	1.15
665.523	-2.85
665.555	-5.85
665.586	5.15
665.618	2.15
665.65	-5.85
665.682	3.15
665.714	0.15
665.746	1.15
665.777	7.15
665.809	5.15
665.841	12.15
665.873	3.15
665.905	0.15
665.937	12.15
665.968	7.15
666	-3.85
666.032	-1.85
666.064	-5.85
666.096	-0.85
666.127	10.15
666.159	4.15
666.191	15.15
666.223	12.15
666.255	5.15
666.286	13.15
666.318	-4.85
666.35	10.15
666.382	14.15
666.413	-12.85
666.445	4.15
666.477	-5.85
666.509	-20.85
666.54	3.15
666.572	-16.85
666.604	-1.85
666.636	-15.85
666.667	21.15
666.699	25.15
666.731	6.15
666.763	-7.85
666.794	2.15
666.826	-9.85
666.858	-14.85
666.89	23.15
666.921	11.15
666.953	-4.85
666.985	10.15
667.017	18.15
667.048	12.15
667.08	10.15
667.112	2.15
667.143	0.15
667.175	6.15
667.207	1.15
667.238	11.15
667.27	-0.85
667.302	-11.85
667.334	-3.85
667.365	18.15
667.397	1.15
667.429	-21.85
667.46	5.15
667.492	19.15
667.524	-13.85
667.555	1.15
667.587	8.15
667.619	-4.85
667.65	-12.85
667.682	7.15
667.714	-0.85
667.745	4.15
667.777	6.15
667.808	6.15
667.84	15.15
667.872	16.15
667.903	7.15
667.935	-11.85
667.967	-5.85
667.998	-0.85
668.03	4.15
668.061	7.15
668.093	-12.85
668.125	9.15
668.156	9.15
668.188	2.15
668.22	-9.85
668.251	9.15
668.283	-1.85
668.314	22.15
668.346	10.15
668.377	16.15
668.409	9.15
668.441	24.15
668.472	4.15
668.504	-4.85
668.535	7.15
668.567	14.15
668.599	6.15
668.63	-9.85
668.662	4.15
668.693	12.15
668.725	7.15
668.756	2.15
668.788	-4.85
668.819	-4.85
668.851	5.15
668.882	5.15
668.914	-4.85
668.946	2.15
668.977	-10.85
669.009	-9.85
669.04	-13.85
669.072	-5.85
669.103	7.15
669.135	-4.85
669.166	3.15
669.198	1.15
669.229	-3.85
669.261	-0.85
669.292	-1.85
669.324	5.15
669.355	14.15
669.387	2.15
669.418	9.15
669.45	-0.85
669.481	11.15
669.513	7.15
669.544	-8.85
669.576	-16.85
669.607	11.15
669.639	4.15
669.67	12.15
669.701	18.15
669.733	-13.85
669.764	-26.85
669.796	4.15
669.827	4.15
669.859	-0.85
669.89	7.15
669.922	19.15
669.953	-9.85
669.985	6.15
670.016	7.15
670.047	4.15
670.079	-5.85
670.11	-1.85
670.142	3.15
670.173	-3.85
670.204	-2.85
670.236	15.15
670.267	-16.85
670.299	13.15
670.33	-0.85
670.362	5.15
670.393	-16.85
670.424	-1.85
670.456	-8.85
670.487	0.15
670.518	5.15
670.55	-6.85
670.581	1.15
670.613	4.15
670.644	-4.85
670.675	-6.85
670.707	1.15
670.738	5.15
670.769	3.15
670.801	-4.85
670.832	10.15
670.864	-8.85
670.895	16.15
670.926	1.15
670.958	-2.85
670.989	1.15
671.02	-2.85
671.052	-0.85
671.083	-2.85
671.114	-20.85
671.146	6.15
671.177	3.15
671.208	17.15
671.24	-5.85
671.271	-9.85
671.302	4.15
671.333	-12.85
671.365	-10.85
671.396	-7.85
671.427	-0.85
671.459	6.15
671.49	-1.85
671.521	1.15
671.553	13.15
671.584	18.15
671.615	-19.85
671.646	16.15
671.678	-5.85
671.709	-12.85
671.74	-13.85
671.771	-2.85
671.803	-14.85
671.834	-0.85
671.865	2.15
671.896	6.15
671.928	-0.85
671.959	1.15
671.99	-2.85
672.021	7.15
672.053	-15.85
672.084	2.15
672.115	-0.85
672.146	-4.85
672.178	0.15
672.209	-15.85
672.24	-5.85
672.271	34.15
672.303	-1.85
672.334	3.15
672.365	-0.85
672.396	-6.85
672.427	5.15
672.459	1.15
672.49	11.15
672.521	5.15
672.552	10.15
672.583	9.15
672.615	0.15
672.646	17.15
672.677	-9.85
672.708	-8.85
672.739	-7.85
672.77	1.15
672.802	-1.85
672.833	-1.85
672.864	2.15
672.895	5.15
672.926	3.15
672.957	-7.85
672.989	-1.85
673.02	15.15
673.051	-0.85
673.082	3.15
673.113	-0.85
673.144	3.15
673.175	-1.85
673.206	0.15
673.238	-6.85
673.269	2.15
673.3	-7.85
673.331	11.15
673.362	-8.85
673.393	4.15
673.424	1.15
673.455	7.15
673.487	4.15
673.518	6.15
673.549	-17.85
673.58	-10.85
673.611	1.15
673.642	-1.85
673.673	-22.85
673.704	0.15
673.735	-6.85
673.766	0.15
673.797	-19.85
673.828	-12.85
673.86	-10.85
673.891	3.15
673.922	-4.85
673.953	-12.85
673.984	-0.85
674.015	30.15
674.046	-1.85
674.077	1.15
674.108	-13.85
674.139	1.15
674.17	-6.85
674.201	-20.85
674.232	-16.85
674.263	-3.85
674.294	-4.85
674.325	-27.85
674.356	-1.85
674.387	6.15
674.418	-5.85
674.449	12.15
674.48	-5.85
674.511	-1.85
674.542	6.15
674.573	-7.85
674.604	-1.85
674.635	4.15
674.666	9.15
674.697	8.15
674.728	-2.85
674.759	0.15
674.79	-1.85
674.821	-17.85
674.852	-6.85
674.883	-12.85
674.914	-1.85
674.945	-10.85
674.976	-1.85
675.007	-1.85
675.038	-3.85
675.069	0.15
675.1	2.15
675.131	8.15
675.162	-8.85
675.193	2.15
675.224	-4.85
675.254	-2.85
675.285	11.15
675.316	11.15
675.347	1.15
675.378	-32.85
675.409	-23.85
675.44	8.15
675.471	5.15
675.502	-8.85
675.533	-7.85
675.564	-2.85
675.595	-6.85
675.625	22.15
675.656	20.15
675.687	9.15
675.718	-10.85
675.749	6.15
675.78	-1.85
675.811	-7.85
675.842	9.15
675.873	10.15
675.903	5.15
675.934	6.15
675.965	-5.85
675.996	-15.85
676.027	10.15
676.058	11.15
676.089	-9.85
676.119	4.15
676.15	-0.85
676.181	-1.85
676.212	-8.85
676.243	-1.85
676.274	-8.85
676.304	8.15
676.335	-27.85
676.366	-12.85
676.397	-1.85
676.428	-3.85
676.459	-12.85
676.489	-0.85
676.52	10.15
676.551	1.15
676.582	3.15
676.613	13.15
676.643	-6.85
676.674	15.15
676.705	14.15
676.736	4.15
676.767	-5.85
676.797	5.15
676.828	4.15
676.859	13.15
676.89	-10.85
676.92	-5.85
676.951	-7.85
676.982	2.15
677.013	-3.85
677.044	3.15
677.074	32.15
677.105	-27.85
677.136	11.15
677.167	6.15
677.197	3.15
677.228	8.15
677.259	-1.85
677.289	-4.85
677.32	-5.85
677.351	-6.85
677.382	3.15
677.412	-6.85
677.443	-1.85
677.474	-14.85
677.505	-10.85
677.535	5.15
677.566	-17.85
677.597	-15.85
677.627	-10.85
677.658	2.15
677.689	11.15
677.72	-3.85
677.75	0.15
677.781	3.15
677.812	11.15
677.842	12.15
677.873	15.15
677.904	4.15
677.934	3.15
677.965	1.15
677.996	-25.85
678.026	1.15
678.057	21.15
678.088	-7.85
678.118	-4.85
678.149	-13.85
678.18	-3.85
678.21	-5.85
678.241	-12.85
678.272	-13.85
678.302	12.15
678.333	7.15
678.363	8.15
678.394	-11.85
678.425	-3.85
678.455	-6.85
678.486	15.15
678.517	-2.85
678.547	-3.85
678.578	-1.85
678.608	-15.85
678.639	5.15
678.67	2.15
678.7	-10.85
678.731	-1.85
678.761	-7.85
678.792	9.15
678.823	10.15
678.853	0.15
678.884	-13.85
678.914	-1.85
678.945	4.15
678.975	4.15
679.006	-2.85
679.037	-5.85
679.067	22.15
679.098	15.15
679.128	2.15
679.159	-10.85
679.189	-1.85
679.22	-10.85
679.25	13.15
679.281	-10.85
679.312	-13.85
679.342	4.15
679.373	39.15
679.403	10.15
679.434	6.15
679.464	-11.85
679.495	6.15
679.525	8.15
679.556	0.15
679.586	10.15
679.617	12.15
679.647	-0.85
679.678	13.15
679.708	6.15
679.739	-3.85
679.769	-4.85
679.8	2.15
679.83	-3.85
679.861	12.15
679.891	4.15
679.922	-8.85
679.952	-23.85
679.983	1.15
680.013	-1.85
680.044	4.15
680.074	23.15
680.105	16.15
680.135	6.15
680.165	10.15
680.196	25.15
680.226	3.15
680.257	9.15
680.287	-11.85
680.318	-6.85
680.348	-15.85
680.379	-11.85
680.409	-0.85
680.439	-12.85
680.47	-3.85
680.5	-8.85
680.531	-5.85
680.561	25.15
680.592	20.15
680.622	15.15
680.652	-0.85
680.683	23.15
680.713	-2.85
680.744	-2.85
680.774	1.15
680.804	16.15
680.835	-3.85
680.865	0.15
680.896	22.15
680.926	14.15
680.956	-4.85
680.987	-1.85
681.017	-12.85
681.047	9.15
681.078	3.15
681.108	3.15
681.139	-0.85
681.169	-3.85
681.199	-8.85
681.23	1.15
681.26	-0.85
681.29	17.15
681.321	-17.85
681.351	-1.85
681.381	-18.85
681.412	-4.85
681.442	1.15
681.472	9.15
681.503	15.15
681.533	14.15
681.563	1.15
681.594	-1.85
681.624	8.15
681.654	-5.85
681.685	3.15
681.715	7.15
681.745	11.15
681.775	-2.85
681.806	-10.85
681.836	-5.85
681.866	-6.85
681.897	1.15
681.927	-2.85
681.957	-25.85
681.987	-2.85
682.018	-2.85
682.048	6.15
682.078	9.15
682.109	16.15
682.139	14.15
682.169	3.15
682.199	0.15
682.23	-16.85
682.26	5.15
682.29	-1.85
682.32	-0.85
682.351	-0.85
682.381	11.15
682.411	-1.85
682.441	-9.85
682.472	0.15
682.502	-14.85
682.532	-16.85
682.562	-9.85
682.592	1.15
682.623	5.15
682.653	5.15
682.683	-17.85
682.713	-5.85
682.743	-1.85
682.774	-27.85
682.804	14.15
682.834	22.15
682.864	-4.85
682.894	-0.85
682.925	-0.85
682.955	11.15
682.985	6.15
683.015	6.15
683.045	20.15
683.076	-11.85
683.106	-8.85
683.136	-5.85
683.166	4.15
683.196	-5.85
683.226	-7.85
683.257	10.15
683.287	-0.85
683.317	1.15
683.347	0.15
683.377	-13.85
683.407	1.15
683.437	1.15
683.468	16.15
683.498	-6.85
683.528	-1.85
683.558	29.15
683.588	-14.85
683.618	-2.85
683.648	-7.85
683.678	-6.85
683.708	-2.85
683.739	-2.85
683.769	11.15
683.799	-7.85
683.829	-5.85
683.859	-1.85
683.889	17.15
683.919	7.15
683.949	0.15
683.979	-9.85
684.009	-9.85
684.039	-2.85
684.07	-2.85
684.1	17.15
684.13	1.15
684.16	16.15
684.19	-11.85
684.22	-10.85
684.25	2.15
684.28	-2.85
684.31	16.15
684.34	20.15
684.37	5.15
684.4	-9.85
684.43	2.15
684.46	1.15
684.49	3.15
684.52	29.15
684.55	27.15
684.58	0.15
684.61	5.15
684.64	12.15
684.67	18.15
684.7	6.15
684.73	2.15
684.76	-5.85
684.79	7.15
684.82	0.15
684.85	5.15
684.88	2.15
684.91	16.15
684.94	6.15
684.97	0.15
685	1.15
685.03	-5.85
685.06	1.15
685.09	-1.85
685.12	15.15
685.15	2.15
685.18	8.15
685.21	-2.85
685.24	-1.85
685.27	5.15
685.3	-3.85
685.33	-3.85
685.36	2.15
685.39	22.15
685.42	-23.85
685.45	-3.85
685.48	-10.85
685.51	-11.85
685.54	6.15
685.569	-0.85
685.599	-0.85
685.629	3.15
685.659	-2.85
685.689	-1.85
685.719	-1.85
685.749	2.15
685.779	12.15
685.809	11.15
685.839	15.15
685.869	23.15
685.898	16.15
685.928	1.15
685.958	2.15
685.988	11.15
686.018	4.15
686.048	-8.85
686.078	13.15
686.108	14.15
686.137	-10.85
686.167	3.15
686.197	-9.85
686.227	-1.85
686.257	26.15
686.287	15.15
686.317	4.15
686.346	-23.85
686.376	-13.85
686.406	3.15
686.436	0.15
686.466	-16.85
686.496	8.15
686.525	15.15
686.555	-3.85
686.585	10.15
686.615	30.15
686.645	17.15
686.675	3.15
686.704	0.15
686.734	9.15
686.764	6.15
686.794	2.15
686.824	2.15
686.853	24.15
686.883	10.15
686.913	17.15
686.943	-3.85
686.973	-0.85
687.002	-3.85
687.032	7.15
687.062	3.15
687.092	14.15
687.121	3.15
687.151	11.15
687.181	1.15
687.211	15.15
687.24	1.15
687.27	9.15
687.3	21.15
687.33	-9.85
687.359	-17.85
687.389	2.15
687.419	-0.85
687.449	-7.85
687.478	27.15
687.508	-7.85
687.538	12.15
687.568	6.15
687.597	-12.85
687.627	3.15
687.657	-5.85
687.686	-0.85
687.716	32.15
687.746	-6.85
687.776	3.15
687.805	15.15
687.835	3.15
687.865	17.15
687.894	20.15
687.924	9.15
687.954	8.15
687.983	7.15
688.013	16.15
688.043	17.15
688.072	4.15
688.102	14.15
688.132	5.15
688.161	7.15
688.191	0.15
688.221	11.15
688.25	-9.85
688.28	0.15
688.31	3.15
688.339	13.15
688.369	-18.85
688.399	-11.85
688.428	3.15
688.458	12.15
688.488	2.15
688.517	-0.85
688.547	9.15
688.576	37.15
688.606	16.15
688.636	-15.85
688.665	11.15
688.695	14.15
688.725	20.15
688.754	-7.85
688.784	1.15
688.813	24.15
688.843	22.15
688.873	14.15
688.902	2.15
688.932	16.15
688.961	2.15
688.991	20.15
689.02	18.15
689.05	-4.85
689.08	9.15
689.109	9.15
689.139	9.15
689.168	5.15
689.198	4.15
689.227	-8.85
689.257	-3.85
689.287	1.15
689.316	-1.85
689.346	-9.85
689.375	1.15
689.405	0.15
689.434	1.15
689.464	29.15
689.493	-13.85
689.523	-8.85
689.552	2.15
689.582	0.15
689.611	-5.85
689.641	21.15
689.67	-11.85
689.7	12.15
689.73	12.15
689.759	1.15
689.789	6.15
689.818	-1.85
689.848	-10.85
689.877	12.15
689.906	0.15
689.936	-5.85
689.965	16.15
689.995	0.15
690.024	3.15
690.054	7.15
690.083	3.15
690.113	-10.85
690.142	-17.85
690.172	13.15
690.201	-2.85
690.231	-11.85
690.26	11.15
690.29	2.15
690.319	10.15
690.348	11.15
690.378	20.15
690.407	20.15
690.437	6.15
690.466	-17.85
690.496	-17.85
690.525	-2.85
690.555	-7.85
690.584	-7.85
690.613	13.15
690.643	-8.85
690.672	4.15
690.702	4.15
690.731	3.15
690.76	32.15
690.79	71.15
690.819	34.15
690.849	35.15
690.878	35.15
690.907	24.15
690.937	23.15
690.966	10.15
690.996	-5.85
691.025	0.15
691.054	2.15
691.084	-4.85
691.113	5.15
691.142	10.15
691.172	11.15
691.201	11.15
691.23	-5.85
691.26	10.15
691.289	8.15
691.319	10.15
691.348	-3.85
691.377	6.15
691.407	-2.85
691.436	15.15
691.465	5.15
691.495	-14.85
691.524	-4.85
691.553	0.15
691.583	7.15
691.612	30.15
691.641	11.15
691.67	7.15
691.7	6.15
691.729	-17.85
691.758	-6.85
691.788	10.15
691.817	4.15
691.846	6.15
691.876	0.15
691.905	10.15
691.934	4.15
691.963	18.15
691.993	8.15
692.022	-6.85
692.051	-10.85
692.081	-0.85
692.11	10.15
692.139	5.15
692.168	11.15
692.198	33.15
692.227	21.15
692.256	20.15
692.285	1.15
692.315	4.15
692.344	8.15
692.373	13.15
692.402	-4.85
692.432	-4.85
692.461	8.15
692.49	-2.85
692.519	4.15
692.548	18.15
692.578	3.15
692.607	-0.85
692.636	-20.85
692.665	10.15
692.694	6.15
692.724	5.15
692.753	-0.85
692.782	7.15
692.811	-2.85
692.84	9.15
692.87	8.15
692.899	-7.85
692.928	6.15
692.957	2.15
692.986	14.15
693.016	9.15
693.045	15.15
693.074	20.15
693.103	-0.85
693.132	5.15
693.161	5.15
693.191	-0.85
693.22	18.15
693.249	11.15
693.278	4.15
693.307	22.15
693.336	-11.85
693.365	-11.85
693.395	-0.85
693.424	-1.85
693.453	17.15
693.482	-7.85
693.511	5.15
693.54	3.15
693.569	22.15
693.598	-1.85
693.628	9.15
693.657	17.15
693.686	14.15
693.715	12.15
693.744	15.15
693.773	6.15
693.802	9.15
693.831	-0.85
693.86	17.15
693.889	-8.85
693.919	29.15
693.948	9.15
693.977	17.15
694.006	-1.85
694.035	7.15
694.064	2.15
694.093	-0.85
694.122	1.15
694.151	-2.85
694.18	14.15
694.209	27.15
694.238	7.15
694.267	5.15
694.296	6.15
694.325	17.15
694.354	10.15
694.383	6.15
694.412	6.15
694.441	2.15
694.471	3.15
694.5	3.15
694.529	-0.85
694.558	23.15
694.587	23.15
694.616	-10.85
694.645	1.15
694.674	9.15
694.703	16.15
694.732	-2.85
694.761	7.15
694.79	3.15
694.819	-11.85
694.848	-8.85
694.877	14.15
694.906	12.15
694.935	-0.85
694.963	16.15
694.992	1.15
695.021	9.15
695.05	12.15
695.079	-5.85
695.108	-1.85
695.137	1.15
695.166	-8.85
695.195	-11.85
695.224	20.15
695.253	10.15
695.282	-3.85
695.311	7.15
695.34	4.15
695.369	8.15
695.398	4.15
695.427	15.15
695.456	10.15
695.485	-0.85
695.513	5.15
695.542	7.15
695.571	4.15
695.6	5.15
695.629	9.15
695.658	34.15
695.687	14.15
695.716	14.15
695.745	25.15
695.774	-16.85
695.802	-10.85
695.831	8.15
695.86	14.15
695.889	21.15
695.918	13.15
695.947	7.15
695.976	16.15
696.005	11.15
696.033	8.15
696.062	15.15
696.091	11.15
696.12	2.15
696.149	17.15
696.178	-1.85
696.207	5.15
696.235	-6.85
696.264	7.15
696.293	12.15
696.322	9.15
696.351	15.15
696.38	9.15
696.408	15.15
696.437	0.15
696.466	16.15
696.495	17.15
696.524	14.15
696.553	7.15
696.581	2.15
696.61	3.15
696.639	3.15
696.668	7.15
696.697	-3.85
696.725	-11.85
696.754	3.15
696.783	2.15
696.812	-8.85
696.84	14.15
696.869	9.15
696.898	2.15
696.927	11.15
696.956	19.15
696.984	13.15
697.013	3.15
697.042	1.15
697.071	3.15
697.099	9.15
697.128	15.15
697.157	1.15
697.186	0.15
697.214	-2.85
697.243	-1.85
697.272	-8.85
697.301	7.15
697.329	16.15
697.358	-6.85
697.387	23.15
697.415	2.15
697.444	3.15
697.473	-2.85
697.502	-12.85
697.53	2.15
697.559	-12.85
697.588	2.15
697.616	10.15
697.645	1.15
697.674	22.15
697.703	-5.85
697.731	14.15
697.76	3.15
697.789	11.15
697.817	11.15
697.846	25.15
697.875	5.15
697.903	15.15
697.932	4.15
697.961	18.15
697.989	20.15
698.018	19.15
698.047	-0.85
698.075	11.15
698.104	-4.85
698.133	1.15
698.161	2.15
698.19	3.15
698.218	0.15
698.247	7.15
698.276	-0.85
698.304	22.15
698.333	21.15
698.362	-6.85
698.39	1.15
698.419	14.15
698.447	0.15
698.476	12.15
698.505	7.15
698.533	5.15
698.562	20.15
698.591	-13.85
698.619	-7.85
698.648	0.15
698.676	6.15
698.705	1.15
698.733	-6.85
698.762	-3.85
698.791	-7.85
698.819	7.15
698.848	5.15
698.876	22.15
698.905	8.15
698.933	3.15
698.962	1.15
698.991	12.15
699.019	18.15
699.048	0.15
699.076	3.15
699.105	-7.85
699.133	-4.85
699.162	1.15
699.19	25.15
699.219	11.15
699.248	10.15
699.276	-1.85
699.305	-8.85
699.333	-1.85
699.362	-1.85
699.39	12.15
699.419	13.15
699.447	8.15
699.476	14.15
699.504	1.15
699.533	11.15
699.561	-11.85
699.59	17.15
699.618	5.15
699.647	2.15
699.675	1.15
699.704	14.15
699.732	-2.85
699.761	14.15
699.789	-6.85
699.818	15.15
699.846	17.15
699.874	7.15
699.903	-2.85
699.931	-4.85
699.96	11.15
699.988	1.15
700.017	-0.85
700.045	-4.85
700.074	-9.85
700.102	8.15
700.13	-2.85
700.159	3.15
700.187	18.15
700.216	-10.85
700.244	-8.85
700.273	1.15
700.301	1.15
700.329	9.15
700.358	8.15
700.386	-17.85
700.415	1.15
700.443	-0.85
700.472	-6.85
700.5	0.15
700.528	0.15
700.557	19.15
700.585	-4.85
700.614	-7.85
700.642	14.15
700.67	26.15
700.699	-0.85
700.727	1.15
700.755	-0.85
700.784	-3.85
700.812	6.15
700.841	2.15
700.869	3.15
700.897	-10.85
700.926	8.15
700.954	12.15
700.982	11.15
701.011	-0.85
701.039	6.15
701.067	2.15
701.096	21.15
701.124	-12.85
701.152	-1.85
701.181	-0.85
701.209	-17.85
701.237	-2.85
701.266	-9.85
701.294	-16.85
701.322	7.15
701.351	14.15
701.379	-0.85
701.407	0.15
701.435	-2.85
701.464	15.15
701.492	34.15
701.52	6.15
701.549	7.15
701.577	-16.85
701.605	-10.85
701.634	8.15
701.662	21.15
701.69	-6.85
701.718	-16.85
701.747	5.15
701.775	2.15
701.803	-3.85
701.831	9.15
701.86	-0.85
701.888	19.15
701.916	-3.85
701.944	-3.85
701.973	-1.85
702.001	-17.85
702.029	-17.85
702.057	-4.85
702.086	-13.85
702.114	-10.85
702.142	0.15
702.17	6.15
702.199	-1.85
702.227	-3.85
702.255	6.15
702.283	-6.85
702.311	-0.85
702.34	-1.85
702.368	0.15
702.396	18.15
702.424	3.15
702.452	5.15
702.481	2.15
702.509	-2.85
702.537	-4.85
702.565	4.15
702.593	-11.85
702.621	-5.85
702.65	11.15
702.678	4.15
702.706	9.15
702.734	4.15
702.762	6.15
702.79	16.15
702.819	6.15
702.847	15.15
702.875	15.15
702.903	10.15
702.931	-4.85
702.959	9.15
702.988	17.15
703.016	2.15
703.044	6.15
703.072	-0.85
703.1	7.15
703.128	-1.85
703.156	3.15
703.184	-6.85
703.212	8.15
703.241	14.15
703.269	7.15
703.297	-1.85
703.325	-2.85
703.353	-9.85
703.381	0.15
703.409	9.15
703.437	-9.85
703.465	1.15
703.493	-5.85
703.522	-10.85
703.55	-5.85
703.578	16.15
703.606	0.15
703.634	-6.85
703.662	-12.85
703.69	1.15
703.718	5.15
703.746	7.15
703.774	1.15
703.802	4.15
703.83	-4.85
703.858	2.15
703.886	0.15
703.914	-2.85
703.942	11.15
703.97	-9.85
703.998	-10.85
704.027	27.15
704.055	14.15
704.083	-8.85
704.111	-5.85
704.139	-7.85
704.167	-16.85
704.195	11.15
704.223	-6.85
704.251	7.15
704.279	0.15
704.307	8.15
704.335	-18.85
704.363	-5.85
704.391	-2.85
704.419	-6.85
704.447	3.15
704.475	5.15
704.503	-30.85
704.531	-6.85
704.558	-3.85
704.586	2.15
704.614	0.15
704.642	-6.85
704.67	-23.85
704.698	-17.85
704.726	3.15
704.754	-4.85
704.782	0.15
704.81	13.15
704.838	21.15
704.866	19.15
704.894	-1.85
704.922	-6.85
704.95	14.15
704.978	20.15
705.006	2.15
705.034	6.15
705.061	-9.85
705.089	9.15
705.117	-17.85
705.145	-1.85
705.173	1.15
705.201	10.15
705.229	6.15
705.257	-5.85
705.285	1.15
705.313	-12.85
705.34	-7.85
705.368	-8.85
705.396	-2.85
705.424	-5.85
705.452	-6.85
705.48	3.15
705.508	1.15
705.536	22.15
705.563	11.15
705.591	10.15
705.619	4.15
705.647	-5.85
705.675	16.15
705.703	1.15
705.731	-0.85
705.758	2.15
705.786	14.15
705.814	26.15
705.842	17.15
705.87	16.15
705.898	24.15
705.925	0.15
705.953	6.15
705.981	-19.85
706.009	-7.85
706.037	23.15
706.065	1.15
706.092	-3.85
706.12	-10.85
706.148	-13.85
706.176	-7.85
706.204	12.15
706.231	11.15
706.259	-7.85
706.287	-5.85
706.315	4.15
706.342	-2.85
706.37	10.15
706.398	-0.85
706.426	4.15
706.454	-4.85
706.481	17.15
706.509	3.15
706.537	-6.85
706.565	1.15
706.592	6.15
706.62	7.15
706.648	17.15
706.676	-2.85
706.703	-5.85
706.731	-11.85
706.759	-2.85
706.787	3.15
706.814	9.15
706.842	1.15
706.87	0.15
706.897	-4.85
706.925	-5.85
706.953	15.15
706.981	-0.85
707.008	12.15
707.036	-3.85
707.064	-1.85
707.091	-16.85
707.119	15.15
707.147	-2.85
707.174	1.15
707.202	-2.85
707.23	-10.85
707.258	4.15
707.285	-6.85
707.313	-7.85
707.341	-23.85
707.368	-5.85
707.396	0.15
707.424	10.15
707.451	13.15
707.479	0.15
707.507	8.15
707.534	-8.85
707.562	4.15
707.59	-4.85
707.617	-7.85
707.645	-4.85
707.672	-1.85
707.7	16.15
707.728	8.15
707.755	6.15
707.783	2.15
707.811	0.15
707.838	-8.85
707.866	9.15
707.893	-6.85
707.921	-2.85
707.949	1.15
707.976	-3.85
708.004	1.15
708.031	-5.85
708.059	0.15
708.087	0.15
708.114	1.15
708.142	0.15
708.169	-6.85
708.197	-4.85
708.225	5.15
708.252	-0.85
708.28	6.15
708.307	-7.85
708.335	8.15
708.362	-11.85
708.39	-16.85
708.418	-14.85
708.445	-4.85
708.473	5.15
708.5	-13.85
708.528	7.15
708.555	-1.85
708.583	2.15
708.61	-0.85
708.638	-0.85
708.665	-6.85
708.693	-0.85
708.72	-3.85
708.748	12.15
708.776	-3.85
708.803	-1.85
708.831	-0.85
708.858	12.15
708.886	-7.85
708.913	7.15
708.941	7.15
708.968	20.15
708.996	7.15
709.023	13.15
709.051	-1.85
709.078	-10.85
709.105	-3.85
709.133	-3.85
709.16	-5.85
709.188	10.15
709.215	-4.85
709.243	9.15
709.27	-4.85
709.298	6.15
709.325	8.15
709.353	-6.85
709.38	7.15
709.408	5.15
709.435	4.15
709.462	10.15
709.49	3.15
709.517	-13.85
709.545	-6.85
709.572	7.15
709.6	11.15
709.627	10.15
709.655	-12.85
709.682	-5.85
709.709	-4.85
709.737	-8.85
709.764	-6.85
709.792	9.15
709.819	-9.85
709.846	-2.85
709.874	9.15
709.901	26.15
709.929	22.15
709.956	6.15
709.983	-4.85
710.011	-5.85
710.038	-7.85
710.066	17.15
710.093	14.15
710.12	5.15
710.148	-15.85
710.175	-9.85
710.202	-5.85
710.23	10.15
710.257	-1.85
710.284	-0.85
710.312	13.15
710.339	-9.85
710.366	-5.85
710.394	-2.85
710.421	-5.85
710.448	15.15
710.476	-12.85
710.503	10.15
710.53	9.15
710.558	22.15
710.585	17.15
710.612	0.15
710.64	3.15
710.667	-7.85
710.694	-1.85
710.722	2.15
710.749	-2.85
710.776	7.15
710.804	14.15
710.831	-3.85
710.858	3.15
710.885	-1.85
710.913	-6.85
710.94	10.15
710.967	16.15
710.995	7.15
711.022	4.15
711.049	-10.85
711.076	-12.85
711.104	-4.85
711.131	-7.85
711.158	-5.85
711.185	-0.85
711.213	-3.85
711.24	-1.85
711.267	2.15
711.294	5.15
711.322	12.15
711.349	21.15
711.376	12.15
711.403	-1.85
711.431	-4.85
711.458	8.15
711.485	-0.85
711.512	-0.85
711.54	-6.85
711.567	-5.85
711.594	-17.85
711.621	-1.85
711.648	12.15
711.676	-7.85
711.703	-5.85
711.73	-12.85
711.757	14.15
711.784	-2.85
711.812	-6.85
711.839	-1.85
711.866	-18.85
711.893	-1.85
711.92	23.15
711.947	3.15
711.975	9.15
712.002	11.15
712.029	20.15
712.056	-0.85
712.083	5.15
712.11	-6.85
712.138	7.15
712.165	-0.85
712.192	-7.85
712.219	5.15
712.246	-10.85
712.273	-8.85
712.3	-6.85
712.328	14.15
712.355	11.15
712.382	-1.85
712.409	14.15
712.436	-16.85
712.463	10.15
712.49	27.15
712.517	11.15
712.544	-1.85
712.572	11.15
712.599	7.15
712.626	5.15
712.653	-9.85
712.68	1.15
712.707	10.15
712.734	5.15
712.761	0.15
712.788	4.15
712.815	-6.85
712.842	19.15
712.87	-2.85
712.897	-17.85
712.924	-16.85
712.951	5.15
712.978	8.15
713.005	26.15
713.032	25.15
713.059	1.15
713.086	-4.85
713.113	-3.85
713.14	-9.85
713.167	11.15
713.194	10.15
713.221	-6.85
713.248	6.15
713.275	-0.85
713.302	-5.85
713.329	4.15
713.356	-2.85
713.383	7.15
713.41	25.15
713.437	3.15
713.464	2.15
713.491	15.15
713.518	-7.85
713.545	-2.85
713.572	11.15
713.599	15.15
713.626	5.15
713.653	11.15
713.68	-4.85
713.707	2.15
713.734	-6.85
713.761	9.15
713.788	-3.85
713.815	1.15
713.842	-7.85
713.869	-4.85
713.896	10.15
713.923	-7.85
713.95	1.15
713.977	-5.85
714.004	15.15
714.031	-7.85
714.058	-2.85
714.085	-6.85
714.112	19.15
714.139	8.15
714.165	1.15
714.192	-5.85
714.219	6.15
714.246	-6.85
714.273	-10.85
714.3	3.15
714.327	5.15
714.354	20.15
714.381	6.15
714.408	7.15
714.435	3.15
714.461	-0.85
714.488	-5.85
714.515	0.15
714.542	-9.85
714.569	-12.85
714.596	-8.85
714.623	-12.85
714.65	-13.85
714.677	-2.85
714.703	9.15
714.73	17.15
714.757	12.15
714.784	4.15
714.811	-15.85
714.838	1.15
714.865	9.15
714.891	-1.85
714.918	6.15
714.945	4.15
714.972	6.15
714.999	5.15
715.026	-7.85
715.052	11.15
715.079	-2.85
715.106	2.15
715.133	-7.85
715.16	-19.85
715.187	1.15
715.213	-7.85
715.24	-2.85
715.267	-8.85
715.294	-0.85
715.321	-10.85
715.347	11.15
715.374	-7.85
715.401	1.15
715.428	12.15
715.455	-1.85
715.481	-9.85
715.508	15.15
715.535	6.15
715.562	10.15
715.588	0.15
715.615	11.15
715.642	5.15
715.669	16.15
715.695	-5.85
715.722	-4.85
715.749	-0.85
715.776	2.15
715.802	4.15
715.829	-1.85
715.856	-6.85
715.883	18.15
715.909	-5.85
715.936	-0.85
715.963	8.15
715.99	-13.85
716.016	0.15
716.043	-1.85
716.07	-6.85
716.096	-19.85
716.123	6.15
716.15	2.15
716.177	3.15
716.203	1.15
716.23	-1.85
716.257	-9.85
716.283	39.15
716.31	-4.85
716.337	1.15
716.363	12.15
716.39	-1.85
716.417	20.15
716.443	2.15
716.47	7.15
716.497	9.15
716.523	10.15
716.55	9.15
716.577	24.15
716.603	3.15
716.63	-1.85
716.657	1.15
716.683	-6.85
716.71	-7.85
716.737	0.15
716.763	19.15
716.79	3.15
716.817	22.15
716.843	6.15
716.87	1.15
716.897	-6.85
716.923	14.15
716.95	13.15
716.976	-9.85
717.003	-3.85
717.03	-5.85
717.056	7.15
717.083	-11.85
717.109	9.15
717.136	11.15
717.163	11.15
717.189	14.15
717.216	4.15
717.242	-3.85
717.269	-10.85
717.296	5.15
717.322	5.15
717.349	16.15
717.375	-0.85
717.402	12.15
717.428	5.15
717.455	8.15
717.481	6.15
717.508	12.15
717.535	11.15
717.561	-9.85
717.588	-10.85
717.614	-1.85
717.641	-1.85
717.667	13.15
717.694	-2.85
717.72	2.15
717.747	15.15
717.773	-6.85
717.8	5.15
717.826	3.15
717.853	10.15
717.88	18.15
717.906	15.15
717.933	3.15
717.959	6.15
717.986	19.15
718.012	-9.85
718.039	17.15
718.065	11.15
718.092	17.15
718.118	3.15
718.144	-5.85
718.171	13.15
718.197	29.15
718.224	8.15
718.25	8.15
718.277	14.15
718.303	6.15
718.33	1.15
718.356	-2.85
718.383	-11.85
718.409	2.15
718.436	3.15
718.462	10.15
718.489	-0.85
718.515	20.15
718.541	18.15
718.568	8.15
718.594	4.15
718.621	14.15
718.647	15.15
718.674	20.15
718.7	10.15
718.726	12.15
718.753	7.15
718.779	-0.85
718.806	-7.85
718.832	19.15
718.858	2.15
718.885	6.15
718.911	13.15
718.938	9.15
718.964	-5.85
718.99	9.15
719.017	11.15
719.043	10.15
719.07	15.15
719.096	-6.85
719.122	22.15
719.149	1.15
719.175	6.15
719.201	7.15
719.228	0.15
719.254	10.15
719.281	4.15
719.307	-10.85
719.333	2.15
719.36	26.15
719.386	-2.85
719.412	2.15
719.439	-11.85
719.465	-0.85
719.491	-11.85
719.518	-10.85
719.544	-2.85
719.57	14.15
719.597	17.15
719.623	-0.85
719.649	11.15
719.675	5.15
719.702	-10.85
719.728	5.15
719.754	-5.85
719.781	5.15
719.807	-0.85
719.833	10.15
719.86	-1.85
719.886	-0.85
719.912	7.15
719.938	-2.85
719.965	1.15
719.991	20.15
720.017	8.15
720.044	-2.85
720.07	1.15
720.096	-6.85
720.122	-4.85
720.149	-0.85
720.175	21.15
720.201	12.15
720.227	-9.85
720.254	8.15
720.28	-4.85
720.306	-2.85
720.332	20.15
720.359	7.15
720.385	16.15
720.411	6.15
720.437	-2.85
720.463	-6.85
720.49	14.15
720.516	-6.85
720.542	-1.85
720.568	7.15
720.595	10.15
720.621	8.15
720.647	12.15
720.673	15.15
720.699	-1.85
720.725	-0.85
720.752	-0.85
720.778	12.15
720.804	7.15
720.83	12.15
720.856	8.15
720.883	-6.85
720.909	-6.85
720.935	-10.85
720.961	6.15
720.987	1.15
721.013	2.15
721.04	-6.85
721.066	-1.85
721.092	-6.85
721.118	27.15
721.144	17.15
721.17	-4.85
721.196	-2.85
721.223	-13.85
721.249	-7.85
721.275	21.15
721.301	-1.85
721.327	5.15
721.353	13.15
721.379	-11.85
721.405	28.15
721.432	16.15
721.458	-7.85
721.484	10.15
721.51	-5.85
721.536	12.15
721.562	-5.85
721.588	1.15
721.614	-12.85
721.64	1.15
721.666	-6.85
721.693	-14.85
721.719	-2.85
721.745	4.15
721.771	-10.85
721.797	8.15
721.823	6.15
721.849	18.15
721.875	10.15
721.901	15.15
721.927	5.15
721.953	0.15
721.979	25.15
722.005	15.15
722.031	-5.85
722.057	17.15
722.083	-2.85
722.109	3.15
722.135	5.15
722.161	23.15
722.187	5.15
722.214	-6.85
722.24	6.15
722.266	-3.85
722.292	12.15
722.318	3.15
722.344	-4.85
722.37	11.15
722.396	4.15
722.422	-2.85
722.448	14.15
722.474	-2.85
722.5	8.15
722.526	6.15
722.552	4.15
722.578	9.15
722.603	7.15
722.629	-5.85
722.655	-2.85
722.681	2.15
722.707	7.15
722.733	-0.85
722.759	4.15
722.785	8.15
722.811	1.15
722.837	11.15
722.863	5.15
722.889	15.15
722.915	6.15
722.941	-4.85
722.967	9.15
722.993	17.15
723.019	5.15
723.045	-8.85
723.071	-0.85
723.097	9.15
723.122	10.15
723.148	-2.85
723.174	-6.85
723.2	-4.85
723.226	6.15
723.252	-0.85
723.278	-12.85
723.304	5.15
723.33	11.15
723.356	2.15
723.381	-3.85
723.407	-22.85
723.433	9.15
723.459	1.15
723.485	-2.85
723.511	6.15
723.537	-0.85
723.563	5.15
723.588	-0.85
723.614	10.15
723.64	10.15
723.666	9.15
723.692	2.15
723.718	6.15
723.744	-2.85
723.769	-0.85
723.795	-4.85
723.821	6.15
723.847	-5.85
723.873	12.15
723.899	0.15
723.924	-2.85
723.95	-1.85
723.976	-10.85
724.002	11.15
724.028	8.15
724.053	0.15
724.079	-0.85
724.105	0.15
724.131	1.15
724.157	3.15
724.182	-2.85
724.208	-6.85
724.234	19.15
724.26	-10.85
724.286	9.15
724.311	-14.85
724.337	-4.85
724.363	-2.85
724.389	9.15
724.415	-0.85
724.44	21.15
724.466	2.15
724.492	-0.85
724.518	6.15
724.543	2.15
724.569	3.15
724.595	8.15
724.621	5.15
724.646	2.15
724.672	-1.85
724.698	-0.85
724.723	0.15
724.749	5.15
724.775	4.15
724.801	-2.85
724.826	-10.85
724.852	-5.85
724.878	-1.85
724.904	-14.85
724.929	0.15
724.955	-2.85
724.981	6.15
725.006	-5.85
725.032	-3.85
725.058	9.15
725.083	3.15
725.109	-1.85
725.135	2.15
725.161	1.15
725.186	-17.85
725.212	-8.85
725.238	19.15
725.263	13.15
725.289	0.15
725.315	-2.85
725.34	-10.85
725.366	-2.85
725.392	-5.85
725.417	11.15
725.443	5.15
725.468	3.15
725.494	7.15
725.52	9.15
725.545	-11.85
725.571	-6.85
725.597	5.15
725.622	3.15
725.648	3.15
725.674	19.15
725.699	-1.85
725.725	2.15
725.75	30.15
725.776	5.15
725.802	-0.85
725.827	12.15
725.853	-0.85
725.878	7.15
725.904	1.15
725.93	13.15
725.955	-7.85
725.981	-8.85
726.006	-6.85
726.032	15.15
726.057	-6.85
726.083	-13.85
726.109	-10.85
726.134	5.15
726.16	-1.85
726.185	-9.85
726.211	-1.85
726.236	0.15
726.262	-2.85
726.288	-8.85
726.313	4.15
726.339	-0.85
726.364	-5.85
726.39	-9.85
726.415	-6.85
726.441	-9.85
726.466	-12.85
726.492	4.15
726.517	11.15
726.543	-4.85
726.568	-6.85
726.594	2.15
726.619	25.15
726.645	14.15
726.67	14.15
726.696	27.15
726.721	-1.85
726.747	-8.85
726.772	-2.85
726.798	-1.85
726.823	7.15
726.849	-2.85
726.874	-10.85
726.9	20.15
726.925	21.15
726.951	-0.85
726.976	10.15
727.002	4.15
727.027	13.15
727.053	-2.85
727.078	-2.85
727.104	2.15
727.129	-3.85
727.155	-11.85
727.18	5.15
727.205	-1.85
727.231	-3.85
727.256	-1.85
727.282	15.15
727.307	14.15
727.333	10.15
727.358	7.15
727.383	2.15
727.409	1.15
727.434	8.15
727.46	5.15
727.485	4.15
727.511	1.15
727.536	-12.85
727.561	-10.85
727.587	-8.85
727.612	0.15
727.637	10.15
727.663	-8.85
727.688	5.15
727.714	-13.85
727.739	0.15
727.764	-15.85
727.79	11.15
727.815	14.15
727.841	30.15
727.866	14.15
727.891	9.15
727.917	-13.85
727.942	-1.85
727.967	-5.85
727.993	-6.85
728.018	4.15
728.043	5.15
728.069	11.15
728.094	18.15
728.119	10.15
728.145	24.15
728.17	22.15
728.195	10.15
728.221	30.15
728.246	1.15
728.271	-28.85
728.297	3.15
728.322	4.15
728.347	13.15
728.373	-5.85
728.398	13.15
728.423	11.15
728.448	2.15
728.474	-1.85
728.499	-3.85
728.524	2.15
728.55	8.15
728.575	-5.85
728.6	-2.85
728.625	10.15
728.651	4.15
728.676	-4.85
728.701	-8.85
728.727	1.15
728.752	-2.85
728.777	7.15
728.802	6.15
728.828	8.15
728.853	-2.85
728.878	-4.85
728.903	2.15
728.929	-7.85
728.954	4.15
728.979	-2.85
729.004	-1.85
729.03	-5.85
729.055	6.15
729.08	-16.85
729.105	-2.85
729.13	22.15
729.156	20.15
729.181	-4.85
729.206	-19.85
729.231	5.15
729.256	-5.85
729.282	-13.85
729.307	-6.85
729.332	-9.85
729.357	6.15
729.382	-1.85
729.408	5.15
729.433	5.15
729.458	7.15
729.483	17.15
729.508	18.15
729.533	7.15
729.559	9.15
729.584	-9.85
729.609	1.15
729.634	12.15
729.659	3.15
729.684	-0.85
729.71	18.15
729.735	3.15
729.76	11.15
729.785	2.15
729.81	5.15
729.835	9.15
729.86	10.15
729.886	9.15
729.911	8.15
729.936	9.15
729.961	17.15
729.986	10.15
730.011	63.15
730.036	215.15
730.061	1027.15
730.086	2692.15
730.112	3373.15
730.137	2788.15
730.162	2078.15
730.187	1609.15
730.212	1255.15
730.237	773.15
730.262	455.15
730.287	240.15
730.312	137.15
730.337	72.15
730.362	72.15
730.387	34.15
730.413	13.15
730.438	15.15
730.463	19.15
730.488	2.15
730.513	8.15
730.538	5.15
730.563	19.15
730.588	12.15
730.613	34.15
730.638	14.15
730.663	5.15
730.688	28.15
730.713	22.15
730.738	7.15
730.763	16.15
730.788	-2.85
730.813	7.15
730.838	-6.85
730.863	-7.85
730.888	3.15
730.913	2.15
730.938	-1.85
730.963	27.15
730.988	118.15
731.013	394.15
731.038	628.15
731.063	605.15
731.088	468.15
731.113	325.15
731.138	255.15
731.163	190.15
731.188	96.15
731.213	61.15
731.238	34.15
731.263	12.15
731.288	11.15
731.313	15.15
731.338	1.15
731.363	2.15
731.388	2.15
731.413	15.15
731.438	23.15
731.463	5.15
731.487	7.15
731.512	5.15
731.537	10.15
731.562	18.15
731.587	8.15
731.612	-4.85
731.637	-4.85
731.662	-2.85
731.687	4.15
731.712	-9.85
731.737	-3.85
731.762	7.15
731.786	1.15
731.811	14.15
731.836	9.15
731.861	4.15
731.886	-1.85
731.911	6.15
731.936	15.15
731.961	0.15
731.986	-10.85
732.01	-4.85
732.035	4.15
732.06	9.15
732.085	6.15
732.11	0.15
732.135	-8.85
732.16	13.15
732.184	-1.85
732.209	7.15
732.234	10.15
732.259	-8.85
732.284	16.15
732.309	-4.85
732.334	-11.85
732.358	-15.85
732.383	-6.85
732.408	-12.85
732.433	3.15
732.458	-5.85
732.482	1.15
732.507	11.15
732.532	-14.85
732.557	-2.85
732.582	8.15
732.607	30.15
732.631	50.15
732.656	97.15
732.681	131.15
732.706	332.15
732.73	443.15
732.755	382.15
732.78	294.15
732.805	225.15
732.83	181.15
732.854	132.15
732.879	88.15
732.904	37.15
732.929	15.15
732.953	27.15
732.978	4.15
733.003	6.15
733.028	-11.85
733.052	9.15
733.077	-2.85
733.102	5.15
733.127	-0.85
733.151	12.15
733.176	14.15
733.201	6.15
733.226	-27.85
733.25	0.15
733.275	2.15
733.3	5.15
733.324	11.15
733.349	-6.85
733.374	9.15
733.399	-2.85
733.423	-8.85
733.448	2.15
733.473	1.15
733.497	-5.85
733.522	2.15
733.547	9.15
733.571	18.15
733.596	-7.85
733.621	6.15
733.646	-5.85
733.67	23.15
733.695	2.15
733.72	6.15
733.744	13.15
733.769	15.15
733.794	22.15
733.818	15.15
733.843	-3.85
733.867	-17.85
733.892	-17.85
733.917	-10.85
733.941	-3.85
733.966	-21.85
733.991	-2.85
734.015	17.15
734.04	6.15
734.065	5.15
734.089	12.15
734.114	-5.85
734.138	3.15
734.163	-4.85
734.188	-2.85
734.212	10.15
734.237	12.15
734.261	2.15
734.286	3.15
734.311	1.15
734.335	10.15
734.36	1.15
734.384	-5.85
734.409	-6.85
734.434	-12.85
734.458	11.15
734.483	2.15
734.507	-11.85
734.532	-2.85
734.556	2.15
734.581	5.15
734.606	9.15
734.63	2.15
734.655	6.15
734.679	18.15
734.704	-0.85
734.728	-3.85
734.753	-6.85
734.777	17.15
734.802	5.15
734.826	-0.85
734.851	-1.85
734.876	9.15
734.9	22.15
734.925	19.15
734.949	-1.85
734.974	-2.85
734.998	15.15
735.023	5.15
735.047	-10.85
735.072	17.15
735.096	-0.85
735.121	10.15
735.145	-12.85
735.17	-1.85
735.194	3.15
735.219	3.15
735.243	15.15
735.268	16.15
735.292	2.15
735.317	0.15
735.341	0.15
735.365	-10.85
735.39	6.15
735.414	3.15
735.439	2.15
735.463	1.15
735.488	18.15
735.512	-6.85
735.537	-9.85
735.561	-0.85
735.586	8.15
735.61	12.15
735.634	-1.85
735.659	-6.85
735.683	19.15
735.708	9.15
735.732	-3.85
735.757	5.15
735.781	1.15
735.805	-11.85
735.83	-22.85
735.854	-17.85
735.879	5.15
735.903	23.15
735.927	10.15
735.952	3.15
735.976	-6.85
736.001	2.15
736.025	10.15
736.049	5.15
736.074	-9.85
736.098	-7.85
736.123	-1.85
736.147	-3.85
736.171	2.15
736.196	13.15
736.22	-10.85
736.244	5.15
736.269	3.15
736.293	-5.85
736.317	6.15
736.342	-2.85
736.366	14.15
736.39	8.15
736.415	-2.85
736.439	6.15
736.463	14.15
736.488	11.15
736.512	1.15
736.536	21.15
736.561	8.15
736.585	-6.85
736.609	-1.85
736.634	-6.85
736.658	-6.85
736.682	-4.85
736.707	-6.85
736.731	-14.85
736.755	1.15
736.78	24.15
736.804	10.15
736.828	0.15
736.852	-4.85
736.877	1.15
736.901	4.15
736.925	-11.85
736.949	6.15
736.974	4.15
736.998	-12.85
737.022	8.15
737.047	-5.85
737.071	1.15
737.095	14.15
737.119	13.15
737.144	5.15
737.168	6.15
737.192	-7.85
737.216	11.15
737.241	1.15
737.265	3.15
737.289	4.15
737.313	7.15
737.337	13.15
737.362	6.15
737.386	-17.85
737.41	-7.85
737.434	0.15
737.459	18.15
737.483	2.15
737.507	13.15
737.531	14.15
737.555	-2.85
737.58	14.15
737.604	13.15
737.628	-9.85
737.652	-2.85
737.676	-18.85
737.701	-0.85
737.725	3.15
737.749	21.15
737.773	10.15
737.797	-3.85
737.821	14.15
737.846	-3.85
737.87	18.15
737.894	7.15
737.918	-1.85
737.942	-8.85
737.966	12.15
737.99	4.15
738.015	7.15
738.039	10.15
738.063	-0.85
738.087	6.15
738.111	7.15
738.135	20.15
738.159	-4.85
738.184	-5.85
738.208	-4.85
738.232	7.15
738.256	14.15
738.28	4.15
738.304	5.15
738.328	-7.85
738.352	1.15
738.376	1.15
738.4	5.15
738.425	6.15
738.449	-15.85
738.473	9.15
738.497	5.15
738.521	25.15
738.545	5.15
738.569	25.15
738.593	20.15
738.617	13.15
738.641	-1.85
738.665	7.15
738.689	11.15
738.713	5.15
738.737	24.15
738.762	8.15
738.786	0.15
738.81	0.15
738.834	17.15
738.858	-4.85
738.882	-2.85
738.906	-6.85
738.93	-9.85
738.954	-10.85
738.978	2.15
739.002	-13.85
739.026	-3.85
739.05	1.15
739.074	4.15
739.098	29.15
739.122	8.15
739.146	12.15
739.17	9.15
739.194	17.15
739.218	-6.85
739.242	-6.85
739.266	-10.85
739.29	7.15
739.314	16.15
739.338	15.15
739.362	3.15
739.386	21.15
739.41	7.15
739.434	-2.85
739.458	9.15
739.482	9.15
739.506	11.15
739.53	-2.85
739.554	-3.85
739.577	5.15
739.601	-2.85
739.625	-2.85
739.649	5.15
739.673	0.15
739.697	24.15
739.721	-1.85
739.745	17.15
739.769	13.15
739.793	14.15
739.817	10.15
739.841	-5.85
739.865	-2.85
739.889	-2.85
739.912	17.15
739.936	8.15
739.96	14.15
739.984	6.15
740.008	3.15
740.032	-25.85
740.056	-10.85
740.08	-2.85
740.104	-4.85
740.127	9.15
740.151	16.15
740.175	11.15
740.199	20.15
740.223	45.15
740.247	4.15
740.271	17.15
740.295	-5.85
740.318	-24.85
740.342	-17.85
740.366	2.15
740.39	-7.85
740.414	-5.85
740.438	-5.85
740.461	16.15
740.485	3.15
740.509	-10.85
740.533	2.15
740.557	-4.85
740.581	-6.85
740.604	-14.85
740.628	5.15
740.652	11.15
740.676	0.15
740.7	11.15
740.723	6.15
740.747	-11.85
740.771	3.15
740.795	3.15
740.819	6.15
740.842	11.15
740.866	16.15
740.89	6.15
740.914	3.15
740.938	-5.85
740.961	16.15
740.985	13.15
741.009	-9.85
741.033	7.15
741.056	5.15
741.08	-6.85
741.104	-7.85
741.128	0.15
741.151	-3.85
741.175	5.15
741.199	7.15
741.223	11.15
741.246	-1.85
741.27	-2.85
741.294	9.15
741.318	-6.85
741.341	1.15
741.365	13.15
741.389	2.15
741.413	1.15
741.436	3.15
741.46	15.15
741.484	24.15
741.507	7.15
741.531	11.15
741.555	7.15
741.579	9.15
741.602	5.15
741.626	4.15
741.65	4.15
741.673	4.15
741.697	-0.85
741.721	-6.85
741.744	-4.85
741.768	1.15
741.792	-1.85
741.815	11.15
741.839	0.15
741.863	15.15
741.886	10.15
741.91	20.15
741.934	15.15
741.957	-16.85
741.981	16.15
742.005	-4.85
742.028	2.15
742.052	-1.85
742.075	-4.85
742.099	7.15
742.123	3.15
742.146	14.15
742.17	3.15
742.194	-17.85
742.217	3.15
742.241	2.15
742.264	-3.85
742.288	10.15
742.312	2.15
742.335	5.15
742.359	-2.85
742.382	2.15
742.406	8.15
742.43	-23.85
742.453	-4.85
742.477	-6.85
742.5	1.15
742.524	-11.85
742.548	-19.85
742.571	-2.85
742.595	-5.85
742.618	-11.85
742.642	-6.85
742.665	4.15
742.689	-2.85
742.712	6.15
742.736	4.15
742.76	3.15
742.783	4.15
742.807	25.15
742.83	17.15
742.854	17.15
742.877	1.15
742.901	-6.85
742.924	-9.85
742.948	11.15
742.971	11.15
742.995	3.15
743.018	-0.85
743.042	-6.85
743.065	2.15
743.089	-16.85
743.112	22.15
743.136	-1.85
743.159	-6.85
743.183	-1.85
743.206	-2.85
743.23	-4.85
743.253	18.15
743.277	14.15
743.3	-13.85
743.324	14.15
743.347	2.15
743.371	17.15
743.394	3.15
743.418	-0.85
743.441	8.15
743.465	-0.85
743.488	1.15
743.512	-9.85
743.535	14.15
743.558	6.15
743.582	-1.85
743.605	1.15
743.629	12.15
743.652	16.15
743.676	0.15
743.699	8.15
743.723	0.15
743.746	12.15
743.769	-9.85
743.793	0.15
743.816	16.15
743.84	25.15
743.863	-4.85
743.886	5.15
743.91	19.15
743.933	14.15
743.957	7.15
743.98	4.15
744.003	-9.85
744.027	-1.85
744.05	9.15
744.074	18.15
744.097	-15.85
744.12	-2.85
744.144	-12.85
744.167	19.15
744.19	0.15
744.214	2.15
744.237	-3.85
744.26	7.15
744.284	5.15
744.307	-5.85
744.331	6.15
744.354	-12.85
744.377	-2.85
744.401	9.15
744.424	-5.85
744.447	-17.85
744.471	-21.85
