Data from HighRes_mercury_15_13_11_07_2024_HR4C61891__33__15-14-26-486.txt Node

Date: Thu Nov 07 15:14:26 EST 2024
User: crc00042
Spectrometer: HR4C6189
Trigger mode: 4
Integration Time (sec): 1.000000E-1
Scans to average: 1
Electric dark correction enabled: true
Nonlinearity correction enabled: false
Boxcar width: 0
XAxis mode: Wavelengths
Number of Pixels in Spectrum: 3648
>>>>>Begin Spectral Data<<<<<
639.567	-48.38
639.602	-48.38
639.636	-48.38
639.67	-47.38
639.704	-21.38
639.738	-21.38
639.773	15.62
639.807	-9.38
639.841	8.62
639.875	10.62
639.909	-4.38
639.943	-1.38
639.978	-7.38
640.012	12.62
640.046	29.62
640.08	-5.38
640.114	-0.38
640.148	-27.38
640.182	-16.38
640.217	-8.38
640.251	18.62
640.285	12.62
640.319	-11.38
640.353	1.62
640.387	5.62
640.421	1.62
640.455	-0.38
640.49	-12.38
640.524	-4.38
640.558	6.62
640.592	-0.38
640.626	17.62
640.66	11.62
640.694	-8.38
640.728	1.62
640.762	-0.38
640.796	6.62
640.83	18.62
640.865	4.62
640.899	3.62
640.933	7.62
640.967	8.62
641.001	15.62
641.035	1.62
641.069	-9.38
641.103	-4.38
641.137	0.62
641.171	2.62
641.205	7.62
641.239	11.62
641.273	3.62
641.307	2.62
641.341	6.62
641.375	1.62
641.409	-6.38
641.443	1.62
641.477	11.62
641.511	17.62
641.545	0.62
641.579	5.62
641.614	16.62
641.648	20.62
641.682	-21.38
641.716	6.62
641.75	13.62
641.784	5.62
641.818	-5.38
641.852	3.62
641.886	2.62
641.919	14.62
641.953	-7.38
641.987	-24.38
642.021	-8.38
642.055	7.62
642.089	3.62
642.123	-15.38
642.157	5.62
642.191	10.62
642.225	5.62
642.259	0.62
642.293	-1.38
642.327	-1.38
642.361	-13.38
642.395	12.62
642.429	8.62
642.463	-3.38
642.497	22.62
642.531	2.62
642.565	4.62
642.599	8.62
642.633	9.62
642.666	6.62
642.7	2.62
642.734	16.62
642.768	-7.38
642.802	11.62
642.836	7.62
642.87	7.62
642.904	-5.38
642.938	14.62
642.972	-2.38
643.005	-2.38
643.039	15.62
643.073	11.62
643.107	0.62
643.141	8.62
643.175	3.62
643.209	-13.38
643.243	-1.38
643.276	3.62
643.31	2.62
643.344	-3.38
643.378	-7.38
643.412	0.62
643.446	-3.38
643.48	-11.38
643.513	24.62
643.547	5.62
643.581	-6.38
643.615	15.62
643.649	16.62
643.683	-15.38
643.716	0.62
643.75	-0.38
643.784	-14.38
643.818	3.62
643.852	3.62
643.886	5.62
643.919	4.62
643.953	1.62
643.987	3.62
644.021	10.62
644.055	6.62
644.088	1.62
644.122	1.62
644.156	-8.38
644.19	7.62
644.224	11.62
644.257	7.62
644.291	17.62
644.325	4.62
644.359	9.62
644.392	22.62
644.426	14.62
644.46	7.62
644.494	7.62
644.527	-1.38
644.561	0.62
644.595	-1.38
644.629	0.62
644.662	-6.38
644.696	8.62
644.73	-3.38
644.764	-5.38
644.797	-4.38
644.831	1.62
644.865	17.62
644.899	3.62
644.932	9.62
644.966	7.62
645	12.62
645.033	18.62
645.067	-7.38
645.101	-0.38
645.135	3.62
645.168	-0.38
645.202	4.62
645.236	6.62
645.269	8.62
645.303	-11.38
645.337	-19.38
645.37	-1.38
645.404	0.62
645.438	2.62
645.471	-2.38
645.505	3.62
645.539	-7.38
645.572	7.62
645.606	5.62
645.64	10.62
645.673	-1.38
645.707	20.62
645.741	0.62
645.774	-16.38
645.808	0.62
645.842	-2.38
645.875	5.62
645.909	0.62
645.943	6.62
645.976	-4.38
646.01	11.62
646.043	12.62
646.077	15.62
646.111	2.62
646.144	14.62
646.178	16.62
646.212	-11.38
646.245	1.62
646.279	5.62
646.312	3.62
646.346	-5.38
646.38	6.62
646.413	10.62
646.447	18.62
646.48	-9.38
646.514	3.62
646.547	11.62
646.581	5.62
646.615	6.62
646.648	4.62
646.682	-1.38
646.715	10.62
646.749	17.62
646.782	-4.38
646.816	-9.38
646.85	4.62
646.883	-0.38
646.917	3.62
646.95	4.62
646.984	10.62
647.017	-1.38
647.051	17.62
647.084	1.62
647.118	-4.38
647.151	0.62
647.185	3.62
647.218	-14.38
647.252	8.62
647.285	-9.38
647.319	-1.38
647.353	6.62
647.386	17.62
647.42	2.62
647.453	9.62
647.487	13.62
647.52	11.62
647.553	11.62
647.587	-5.38
647.62	-4.38
647.654	2.62
647.687	-14.38
647.721	12.62
647.754	3.62
647.788	18.62
647.821	-12.38
647.855	4.62
647.888	4.62
647.922	23.62
647.955	7.62
647.989	8.62
648.022	10.62
648.055	6.62
648.089	0.62
648.122	11.62
648.156	-5.38
648.189	1.62
648.223	14.62
648.256	26.62
648.29	3.62
648.323	-8.38
648.356	5.62
648.39	4.62
648.423	-2.38
648.457	2.62
648.49	8.62
648.523	17.62
648.557	-7.38
648.59	-0.38
648.624	4.62
648.657	4.62
648.69	21.62
648.724	10.62
648.757	4.62
648.791	20.62
648.824	12.62
648.857	21.62
648.891	4.62
648.924	6.62
648.957	22.62
648.991	-1.38
649.024	12.62
649.057	15.62
649.091	4.62
649.124	6.62
649.158	4.62
649.191	18.62
649.224	10.62
649.258	2.62
649.291	8.62
649.324	1.62
649.358	14.62
649.391	19.62
649.424	5.62
649.458	12.62
649.491	10.62
649.524	-2.38
649.557	-14.38
649.591	2.62
649.624	7.62
649.657	-2.38
649.691	-0.38
649.724	4.62
649.757	4.62
649.791	-10.38
649.824	11.62
649.857	23.62
649.89	8.62
649.924	-6.38
649.957	-8.38
649.99	-18.38
650.023	-8.38
650.057	-16.38
650.09	3.62
650.123	2.62
650.157	11.62
650.19	1.62
650.223	-6.38
650.256	0.62
650.29	-4.38
650.323	0.62
650.356	26.62
650.389	3.62
650.423	0.62
650.456	-1.38
650.489	-2.38
650.522	-4.38
650.555	7.62
650.589	5.62
650.622	-4.38
650.655	-3.38
650.688	6.62
650.721	-4.38
650.755	-8.38
650.788	14.62
650.821	12.62
650.854	-13.38
650.887	-0.38
650.921	6.62
650.954	3.62
650.987	4.62
651.02	-6.38
651.053	-1.38
651.087	1.62
651.12	31.62
651.153	20.62
651.186	-7.38
651.219	-12.38
651.252	15.62
651.286	7.62
651.319	-3.38
651.352	0.62
651.385	11.62
651.418	5.62
651.451	8.62
651.484	3.62
651.518	-15.38
651.551	30.62
651.584	-9.38
651.617	8.62
651.65	14.62
651.683	10.62
651.716	3.62
651.749	2.62
651.783	9.62
651.816	8.62
651.849	6.62
651.882	5.62
651.915	-0.38
651.948	17.62
651.981	-6.38
652.014	-11.38
652.047	-12.38
652.08	-20.38
652.114	12.62
652.147	-6.38
652.18	-3.38
652.213	25.62
652.246	12.62
652.279	2.62
652.312	14.62
652.345	5.62
652.378	18.62
652.411	4.62
652.444	10.62
652.477	-0.38
652.51	7.62
652.543	-8.38
652.576	13.62
652.609	2.62
652.642	4.62
652.675	19.62
652.709	-7.38
652.742	10.62
652.775	0.62
652.808	5.62
652.841	-7.38
652.874	-6.38
652.907	-2.38
652.94	5.62
652.973	-9.38
653.006	1.62
653.039	9.62
653.072	-4.38
653.105	6.62
653.138	-0.38
653.171	-11.38
653.204	-13.38
653.237	9.62
653.27	-6.38
653.303	5.62
653.336	-0.38
653.368	-3.38
653.401	-2.38
653.434	-13.38
653.467	0.62
653.5	-7.38
653.533	-15.38
653.566	9.62
653.599	15.62
653.632	-0.38
653.665	5.62
653.698	-13.38
653.731	-1.38
653.764	8.62
653.797	16.62
653.83	5.62
653.863	2.62
653.896	2.62
653.929	12.62
653.961	1.62
653.994	-7.38
654.027	-24.38
654.06	6.62
654.093	-1.38
654.126	19.62
654.159	-1.38
654.192	1.62
654.225	0.62
654.258	7.62
654.29	-6.38
654.323	11.62
654.356	3.62
654.389	-8.38
654.422	-3.38
654.455	10.62
654.488	-6.38
654.521	-20.38
654.553	-1.38
654.586	12.62
654.619	6.62
654.652	7.62
654.685	5.62
654.718	-4.38
654.751	2.62
654.783	-8.38
654.816	10.62
654.849	1.62
654.882	6.62
654.915	-7.38
654.948	5.62
654.98	3.62
655.013	5.62
655.046	-3.38
655.079	-2.38
655.112	9.62
655.144	-9.38
655.177	-7.38
655.21	12.62
655.243	10.62
655.276	8.62
655.308	-6.38
655.341	-1.38
655.374	16.62
655.407	-5.38
655.44	-4.38
655.472	15.62
655.505	9.62
655.538	-10.38
655.571	15.62
655.603	-1.38
655.636	8.62
655.669	7.62
655.702	-17.38
655.734	-14.38
655.767	-8.38
655.8	11.62
655.833	8.62
655.865	22.62
655.898	0.62
655.931	1.62
655.964	10.62
655.996	9.62
656.029	11.62
656.062	-0.38
656.095	4.62
656.127	-25.38
656.16	5.62
656.193	7.62
656.225	14.62
656.258	-3.38
656.291	1.62
656.324	7.62
656.356	17.62
656.389	16.62
656.422	24.62
656.454	-4.38
656.487	-11.38
656.52	18.62
656.552	16.62
656.585	15.62
656.618	4.62
656.65	0.62
656.683	-7.38
656.716	3.62
656.748	3.62
656.781	-2.38
656.814	-24.38
656.846	10.62
656.879	0.62
656.912	-1.38
656.944	-11.38
656.977	-17.38
657.01	-18.38
657.042	0.62
657.075	4.62
657.108	-2.38
657.14	6.62
657.173	9.62
657.205	19.62
657.238	11.62
657.271	10.62
657.303	-8.38
657.336	8.62
657.369	-4.38
657.401	10.62
657.434	-0.38
657.466	-8.38
657.499	-6.38
657.532	-2.38
657.564	-1.38
657.597	1.62
657.629	-11.38
657.662	2.62
657.694	2.62
657.727	-12.38
657.76	23.62
657.792	-15.38
657.825	7.62
657.857	-3.38
657.89	-11.38
657.922	4.62
657.955	-13.38
657.987	4.62
658.02	-9.38
658.053	8.62
658.085	-6.38
658.118	2.62
658.15	4.62
658.183	21.62
658.215	8.62
658.248	-10.38
658.28	-6.38
658.313	13.62
658.345	3.62
658.378	-5.38
658.41	1.62
658.443	12.62
658.475	-2.38
658.508	-4.38
658.54	8.62
658.573	10.62
658.605	13.62
658.638	1.62
658.67	1.62
658.703	1.62
658.735	-1.38
658.768	-1.38
658.8	-2.38
658.833	31.62
658.865	12.62
658.898	14.62
658.93	-4.38
658.963	3.62
658.995	-7.38
659.028	12.62
659.06	2.62
659.092	-0.38
659.125	2.62
659.157	3.62
659.19	-10.38
659.222	0.62
659.255	7.62
659.287	-1.38
659.32	6.62
659.352	1.62
659.384	20.62
659.417	10.62
659.449	8.62
659.482	9.62
659.514	-3.38
659.546	6.62
659.579	-20.38
659.611	-19.38
659.644	-10.38
659.676	-10.38
659.708	5.62
659.741	1.62
659.773	7.62
659.806	8.62
659.838	10.62
659.87	-1.38
659.903	-8.38
659.935	15.62
659.967	6.62
660	4.62
660.032	-18.38
660.065	9.62
660.097	0.62
660.129	-0.38
660.162	-16.38
660.194	7.62
660.226	9.62
660.259	3.62
660.291	0.62
660.323	14.62
660.356	19.62
660.388	1.62
660.42	3.62
660.453	-1.38
660.485	9.62
660.517	9.62
660.55	5.62
660.582	4.62
660.614	15.62
660.647	-6.38
660.679	-20.38
660.711	14.62
660.743	-4.38
660.776	-11.38
660.808	3.62
660.84	8.62
660.873	7.62
660.905	-5.38
660.937	-1.38
660.969	-7.38
661.002	-14.38
661.034	5.62
661.066	-3.38
661.099	16.62
661.131	17.62
661.163	-6.38
661.195	-10.38
661.228	9.62
661.26	-1.38
661.292	-3.38
661.324	-2.38
661.357	1.62
661.389	-0.38
661.421	8.62
661.453	3.62
661.485	4.62
661.518	1.62
661.55	-14.38
661.582	-12.38
661.614	-4.38
661.647	-2.38
661.679	1.62
661.711	5.62
661.743	-21.38
661.775	-0.38
661.808	25.62
661.84	-17.38
661.872	7.62
661.904	-10.38
661.936	2.62
661.969	-8.38
662.001	10.62
662.033	12.62
662.065	0.62
662.097	26.62
662.129	16.62
662.162	-1.38
662.194	1.62
662.226	2.62
662.258	4.62
662.29	1.62
662.322	-4.38
662.355	-12.38
662.387	18.62
662.419	24.62
662.451	2.62
662.483	-0.38
662.515	4.62
662.547	-12.38
662.58	-21.38
662.612	-3.38
662.644	-13.38
662.676	-15.38
662.708	7.62
662.74	-6.38
662.772	4.62
662.804	14.62
662.836	18.62
662.869	-21.38
662.901	-8.38
662.933	-2.38
662.965	9.62
662.997	6.62
663.029	-5.38
663.061	3.62
663.093	2.62
663.125	11.62
663.157	-2.38
663.189	9.62
663.221	10.62
663.254	0.62
663.286	6.62
663.318	5.62
663.35	-9.38
663.382	11.62
663.414	3.62
663.446	-5.38
663.478	-7.38
663.51	15.62
663.542	-6.38
663.574	6.62
663.606	17.62
663.638	-11.38
663.67	9.62
663.702	-13.38
663.734	-2.38
663.766	4.62
663.798	-0.38
663.83	23.62
663.862	3.62
663.894	6.62
663.926	1.62
663.958	5.62
663.99	5.62
664.022	1.62
664.054	-0.38
664.086	-3.38
664.118	-5.38
664.15	-4.38
664.182	7.62
664.214	2.62
664.246	7.62
664.278	10.62
664.31	18.62
664.342	-3.38
664.374	0.62
664.406	-10.38
664.438	8.62
664.47	6.62
664.502	-12.38
664.534	-13.38
664.566	5.62
664.598	20.62
664.63	-6.38
664.662	-2.38
664.693	12.62
664.725	-4.38
664.757	-12.38
664.789	-16.38
664.821	7.62
664.853	12.62
664.885	-1.38
664.917	-2.38
664.949	7.62
664.981	4.62
665.013	12.62
665.045	-4.38
665.076	-8.38
665.108	2.62
665.14	-11.38
665.172	-9.38
665.204	1.62
665.236	1.62
665.268	22.62
665.3	3.62
665.331	-7.38
665.363	3.62
665.395	-7.38
665.427	3.62
665.459	18.62
665.491	-10.38
665.523	3.62
665.555	-17.38
665.586	-2.38
665.618	1.62
665.65	-16.38
665.682	5.62
665.714	13.62
665.746	-6.38
665.777	3.62
665.809	-7.38
665.841	15.62
665.873	4.62
665.905	-17.38
665.937	4.62
665.968	3.62
666	6.62
666.032	19.62
666.064	-19.38
666.096	-10.38
666.127	24.62
666.159	16.62
666.191	-3.38
666.223	-6.38
666.255	4.62
666.286	-11.38
666.318	-8.38
666.35	18.62
666.382	3.62
666.413	-16.38
666.445	-2.38
666.477	-18.38
666.509	-15.38
666.54	-6.38
666.572	-8.38
666.604	-4.38
666.636	3.62
666.667	29.62
666.699	23.62
666.731	8.62
666.763	-7.38
666.794	2.62
666.826	-2.38
666.858	-12.38
666.89	-4.38
666.921	18.62
666.953	-9.38
666.985	-7.38
667.017	17.62
667.048	2.62
667.08	10.62
667.112	16.62
667.143	-5.38
667.175	18.62
667.207	0.62
667.238	14.62
667.27	9.62
667.302	3.62
667.334	1.62
667.365	22.62
667.397	-1.38
667.429	-10.38
667.46	14.62
667.492	5.62
667.524	-11.38
667.555	-19.38
667.587	0.62
667.619	2.62
667.65	-8.38
667.682	10.62
667.714	6.62
667.745	-7.38
667.777	2.62
667.808	-3.38
667.84	-6.38
667.872	-11.38
667.903	21.62
667.935	3.62
667.967	3.62
667.998	9.62
668.03	-22.38
668.061	-1.38
668.093	6.62
668.125	16.62
668.156	3.62
668.188	-8.38
668.22	-12.38
668.251	2.62
668.283	8.62
668.314	24.62
668.346	14.62
668.377	25.62
668.409	0.62
668.441	23.62
668.472	14.62
668.504	15.62
668.535	17.62
668.567	8.62
668.599	-2.38
668.63	-9.38
668.662	-7.38
668.693	22.62
668.725	11.62
668.756	10.62
668.788	-9.38
668.819	-19.38
668.851	-1.38
668.882	-2.38
668.914	-9.38
668.946	12.62
668.977	-0.38
669.009	-15.38
669.04	-9.38
669.072	-1.38
669.103	4.62
669.135	1.62
669.166	9.62
669.198	0.62
669.229	-3.38
669.261	7.62
669.292	2.62
669.324	9.62
669.355	7.62
669.387	-13.38
669.418	2.62
669.45	-4.38
669.481	14.62
669.513	-2.38
669.544	4.62
669.576	2.62
669.607	10.62
669.639	9.62
669.67	-5.38
669.701	4.62
669.733	-9.38
669.764	-2.38
669.796	-9.38
669.827	-18.38
669.859	-7.38
669.89	9.62
669.922	15.62
669.953	2.62
669.985	0.62
670.016	9.62
670.047	9.62
670.079	0.62
670.11	10.62
670.142	-8.38
670.173	5.62
670.204	1.62
670.236	3.62
670.267	-0.38
670.299	-2.38
670.33	-1.38
670.362	7.62
670.393	-19.38
670.424	4.62
670.456	-12.38
670.487	-4.38
670.518	-2.38
670.55	2.62
670.581	-8.38
670.613	-9.38
670.644	-12.38
670.675	0.62
670.707	3.62
670.738	6.62
670.769	-3.38
670.801	2.62
670.832	8.62
670.864	-25.38
670.895	4.62
670.926	-0.38
670.958	-6.38
670.989	17.62
671.02	-1.38
671.052	-18.38
671.083	-3.38
671.114	-0.38
671.146	13.62
671.177	6.62
671.208	8.62
671.24	1.62
671.271	-1.38
671.302	10.62
671.333	-5.38
671.365	-0.38
671.396	-5.38
671.427	16.62
671.459	4.62
671.49	9.62
671.521	8.62
671.553	1.62
671.584	11.62
671.615	-7.38
671.646	0.62
671.678	0.62
671.709	-18.38
671.74	-20.38
671.771	-8.38
671.803	-4.38
671.834	0.62
671.865	-0.38
671.896	8.62
671.928	2.62
671.959	-4.38
671.99	-1.38
672.021	-1.38
672.053	-2.38
672.084	10.62
672.115	8.62
672.146	6.62
672.178	-22.38
672.209	0.62
672.24	-8.38
672.271	29.62
672.303	12.62
672.334	1.62
672.365	-14.38
672.396	-6.38
672.427	3.62
672.459	18.62
672.49	18.62
672.521	12.62
672.552	4.62
672.583	15.62
672.615	-4.38
672.646	5.62
672.677	-1.38
672.708	-10.38
672.739	-1.38
672.77	16.62
672.802	16.62
672.833	6.62
672.864	11.62
672.895	-4.38
672.926	1.62
672.957	-10.38
672.989	-0.38
673.02	8.62
673.051	-8.38
673.082	23.62
673.113	-4.38
673.144	-0.38
673.175	20.62
673.206	10.62
673.238	2.62
673.269	-4.38
673.3	-21.38
673.331	0.62
673.362	-4.38
673.393	7.62
673.424	8.62
673.455	15.62
673.487	-16.38
673.518	10.62
673.549	3.62
673.58	-8.38
673.611	4.62
673.642	14.62
673.673	-10.38
673.704	-1.38
673.735	-13.38
673.766	-4.38
673.797	-11.38
673.828	2.62
673.86	-0.38
673.891	-6.38
673.922	-13.38
673.953	6.62
673.984	10.62
674.015	4.62
674.046	2.62
674.077	12.62
674.108	-5.38
674.139	-3.38
674.17	2.62
674.201	-9.38
674.232	-12.38
674.263	-0.38
674.294	-26.38
674.325	0.62
674.356	2.62
674.387	22.62
674.418	7.62
674.449	-6.38
674.48	-13.38
674.511	2.62
674.542	-4.38
674.573	-5.38
674.604	16.62
674.635	-4.38
674.666	16.62
674.697	-2.38
674.728	4.62
674.759	5.62
674.79	-12.38
674.821	-9.38
674.852	-9.38
674.883	-0.38
674.914	-10.38
674.945	-7.38
674.976	-1.38
675.007	-15.38
675.038	7.62
675.069	-15.38
675.1	-1.38
675.131	1.62
675.162	4.62
675.193	-8.38
675.224	-6.38
675.254	1.62
675.285	-4.38
675.316	14.62
675.347	-4.38
675.378	-7.38
675.409	-14.38
675.44	9.62
675.471	8.62
675.502	-1.38
675.533	-2.38
675.564	2.62
675.595	-4.38
675.625	16.62
675.656	16.62
675.687	4.62
675.718	-1.38
675.749	7.62
675.78	3.62
675.811	3.62
675.842	-4.38
675.873	-4.38
675.903	3.62
675.934	6.62
675.965	11.62
675.996	-1.38
676.027	11.62
676.058	6.62
676.089	-4.38
676.119	2.62
676.15	-4.38
676.181	-10.38
676.212	-7.38
676.243	26.62
676.274	-2.38
676.304	9.62
676.335	5.62
676.366	10.62
676.397	5.62
676.428	-16.38
676.459	9.62
676.489	6.62
676.52	20.62
676.551	7.62
676.582	-2.38
676.613	-5.38
676.643	-5.38
676.674	14.62
676.705	0.62
676.736	-6.38
676.767	11.62
676.797	9.62
676.828	5.62
676.859	-6.38
676.89	-5.38
676.92	6.62
676.951	2.62
676.982	3.62
677.013	2.62
677.044	21.62
677.074	34.62
677.105	0.62
677.136	-3.38
677.167	1.62
677.197	29.62
677.228	13.62
677.259	-0.38
677.289	1.62
677.32	-9.38
677.351	-5.38
677.382	-1.38
677.412	-6.38
677.443	4.62
677.474	-2.38
677.505	-17.38
677.535	0.62
677.566	-6.38
677.597	5.62
677.627	2.62
677.658	-1.38
677.689	3.62
677.72	1.62
677.75	-15.38
677.781	7.62
677.812	-5.38
677.842	9.62
677.873	-1.38
677.904	13.62
677.934	3.62
677.965	-9.38
677.996	-5.38
678.026	9.62
678.057	15.62
678.088	-1.38
678.118	-7.38
678.149	-12.38
678.18	8.62
678.21	-1.38
678.241	11.62
678.272	3.62
678.302	3.62
678.333	8.62
678.363	8.62
678.394	-3.38
678.425	7.62
678.455	2.62
678.486	9.62
678.517	10.62
678.547	12.62
678.578	8.62
678.608	-6.38
678.639	11.62
678.67	3.62
678.7	-1.38
678.731	0.62
678.761	-7.38
678.792	-0.38
678.823	11.62
678.853	15.62
678.884	-2.38
678.914	12.62
678.945	-1.38
678.975	-4.38
679.006	8.62
679.037	1.62
679.067	18.62
679.098	-2.38
679.128	-9.38
679.159	1.62
679.189	7.62
679.22	-2.38
679.25	-2.38
679.281	-6.38
679.312	6.62
679.342	13.62
679.373	21.62
679.403	15.62
679.434	2.62
679.464	1.62
679.495	5.62
679.525	7.62
679.556	-13.38
679.586	6.62
679.617	8.62
679.647	2.62
679.678	-14.38
679.708	-6.38
679.739	25.62
679.769	-0.38
679.8	-15.38
679.83	-11.38
679.861	19.62
679.891	0.62
679.922	-7.38
679.952	8.62
679.983	5.62
680.013	11.62
680.044	-13.38
680.074	14.62
680.105	1.62
680.135	6.62
680.165	19.62
680.196	16.62
680.226	2.62
680.257	4.62
680.287	7.62
680.318	-2.38
680.348	-6.38
680.379	16.62
680.409	6.62
680.439	4.62
680.47	2.62
680.5	3.62
680.531	-3.38
680.561	14.62
680.592	20.62
680.622	32.62
680.652	2.62
680.683	-0.38
680.713	-4.38
680.744	-14.38
680.774	-1.38
680.804	35.62
680.835	3.62
680.865	-4.38
680.896	15.62
680.926	5.62
680.956	-7.38
680.987	1.62
681.017	-2.38
681.047	14.62
681.078	-6.38
681.108	3.62
681.139	-4.38
681.169	-0.38
681.199	8.62
681.23	9.62
681.26	-3.38
681.29	6.62
681.321	-0.38
681.351	6.62
681.381	-11.38
681.412	-9.38
681.442	-6.38
681.472	7.62
681.503	6.62
681.533	12.62
681.563	20.62
681.594	12.62
681.624	20.62
681.654	-17.38
681.685	-6.38
681.715	-10.38
681.745	-11.38
681.775	-1.38
681.806	-3.38
681.836	-4.38
681.866	-17.38
681.897	-1.38
681.927	10.62
681.957	-29.38
681.987	1.62
682.018	-1.38
682.048	7.62
682.078	-5.38
682.109	10.62
682.139	8.62
682.169	12.62
682.199	1.62
682.23	-16.38
682.26	15.62
682.29	6.62
682.32	0.62
682.351	4.62
682.381	7.62
682.411	1.62
682.441	-0.38
682.472	0.62
682.502	-9.38
682.532	-9.38
682.562	6.62
682.592	2.62
682.623	10.62
682.653	8.62
682.683	-20.38
682.713	1.62
682.743	4.62
682.774	7.62
682.804	0.62
682.834	17.62
682.864	-1.38
682.894	-2.38
682.925	12.62
682.955	-2.38
682.985	-6.38
683.015	6.62
683.045	11.62
683.076	-14.38
683.106	1.62
683.136	4.62
683.166	5.62
683.196	16.62
683.226	-9.38
683.257	-6.38
683.287	-13.38
683.317	-1.38
683.347	-18.38
683.377	5.62
683.407	-4.38
683.437	12.62
683.468	2.62
683.498	2.62
683.528	4.62
683.558	-6.38
683.588	10.62
683.618	1.62
683.648	0.62
683.678	-0.38
683.708	2.62
683.739	-7.38
683.769	-15.38
683.799	9.62
683.829	10.62
683.859	-0.38
683.889	1.62
683.919	6.62
683.949	7.62
683.979	1.62
684.009	0.62
684.039	-11.38
684.07	-10.38
684.1	16.62
684.13	13.62
684.16	15.62
684.19	4.62
684.22	-1.38
684.25	3.62
684.28	-0.38
684.31	31.62
684.34	7.62
684.37	13.62
684.4	0.62
684.43	-4.38
684.46	12.62
684.49	3.62
684.52	12.62
684.55	23.62
684.58	12.62
684.61	10.62
684.64	2.62
684.67	12.62
684.7	11.62
684.73	15.62
684.76	-1.38
684.79	26.62
684.82	-4.38
684.85	-5.38
684.88	-0.38
684.91	6.62
684.94	0.62
684.97	1.62
685	0.62
685.03	-23.38
685.06	-7.38
685.09	-6.38
685.12	10.62
685.15	3.62
685.18	9.62
685.21	0.62
685.24	11.62
685.27	19.62
685.3	-6.38
685.33	6.62
685.36	0.62
685.39	5.62
685.42	3.62
685.45	-10.38
685.48	-9.38
685.51	-0.38
685.54	5.62
685.569	20.62
685.599	11.62
685.629	12.62
685.659	-7.38
685.689	1.62
685.719	10.62
685.749	-1.38
685.779	1.62
685.809	6.62
685.839	1.62
685.869	10.62
685.898	9.62
685.928	0.62
685.958	-1.38
685.988	7.62
686.018	7.62
686.048	4.62
686.078	14.62
686.108	18.62
686.137	-2.38
686.167	9.62
686.197	-14.38
686.227	11.62
686.257	16.62
686.287	15.62
686.317	-8.38
686.346	-14.38
686.376	6.62
686.406	-10.38
686.436	17.62
686.466	1.62
686.496	-3.38
686.525	6.62
686.555	13.62
686.585	29.62
686.615	13.62
686.645	6.62
686.675	-5.38
686.704	0.62
686.734	-0.38
686.764	-12.38
686.794	2.62
686.824	-13.38
686.853	3.62
686.883	-4.38
686.913	12.62
686.943	0.62
686.973	0.62
687.002	2.62
687.032	-5.38
687.062	-6.38
687.092	16.62
687.121	-10.38
687.151	-3.38
687.181	16.62
687.211	19.62
687.24	-3.38
687.27	11.62
687.3	3.62
687.33	-3.38
687.359	-14.38
687.389	0.62
687.419	7.62
687.449	8.62
687.478	17.62
687.508	-1.38
687.538	0.62
687.568	15.62
687.597	-9.38
687.627	5.62
687.657	3.62
687.686	15.62
687.716	27.62
687.746	13.62
687.776	-0.38
687.805	10.62
687.835	7.62
687.865	27.62
687.894	2.62
687.924	2.62
687.954	1.62
687.983	3.62
688.013	4.62
688.043	10.62
688.072	-4.38
688.102	18.62
688.132	-1.38
688.161	2.62
688.191	-1.38
688.221	16.62
688.25	-1.38
688.28	-1.38
688.31	-4.38
688.339	-10.38
688.369	-8.38
688.399	-5.38
688.428	-8.38
688.458	3.62
688.488	-16.38
688.517	-0.38
688.547	-4.38
688.576	30.62
688.606	18.62
688.636	-3.38
688.665	9.62
688.695	8.62
688.725	19.62
688.754	18.62
688.784	14.62
688.813	11.62
688.843	11.62
688.873	12.62
688.902	7.62
688.932	7.62
688.961	6.62
688.991	8.62
689.02	5.62
689.05	-5.38
689.08	33.62
689.109	25.62
689.139	6.62
689.168	8.62
689.198	-10.38
689.227	-8.38
689.257	15.62
689.287	5.62
689.316	6.62
689.346	6.62
689.375	-9.38
689.405	-1.38
689.434	-11.38
689.464	2.62
689.493	-4.38
689.523	1.62
689.552	5.62
689.582	8.62
689.611	0.62
689.641	4.62
689.67	-4.38
689.7	1.62
689.73	25.62
689.759	2.62
689.789	26.62
689.818	-5.38
689.848	3.62
689.877	16.62
689.906	0.62
689.936	-11.38
689.965	-6.38
689.995	12.62
690.024	17.62
690.054	8.62
690.083	11.62
690.113	18.62
690.142	-1.38
690.172	7.62
690.201	-3.38
690.231	-0.38
690.26	2.62
690.29	-0.38
690.319	1.62
690.348	-9.38
690.378	15.62
690.407	16.62
690.437	7.62
690.466	5.62
690.496	5.62
690.525	1.62
690.555	-7.38
690.584	-3.38
690.613	1.62
690.643	2.62
690.672	14.62
690.702	6.62
690.731	14.62
690.76	5.62
690.79	31.62
690.819	46.62
690.849	26.62
690.878	22.62
690.907	-2.38
690.937	23.62
690.966	14.62
690.996	9.62
691.025	10.62
691.054	8.62
691.084	-9.38
691.113	18.62
691.142	12.62
691.172	26.62
691.201	16.62
691.23	3.62
691.26	20.62
691.289	4.62
691.319	-11.38
691.348	-1.38
691.377	22.62
691.407	1.62
691.436	16.62
691.465	0.62
691.495	-1.38
691.524	-2.38
691.553	-9.38
691.583	-1.38
691.612	28.62
691.641	-1.38
691.67	4.62
691.7	1.62
691.729	-11.38
691.758	6.62
691.788	5.62
691.817	0.62
691.846	3.62
691.876	-4.38
691.905	-6.38
691.934	-12.38
691.963	-1.38
691.993	2.62
692.022	-7.38
692.051	-8.38
692.081	14.62
692.11	17.62
692.139	1.62
692.168	11.62
692.198	40.62
692.227	5.62
692.256	-7.38
692.285	5.62
692.315	-7.38
692.344	6.62
692.373	7.62
692.402	3.62
692.432	-5.38
692.461	-12.38
692.49	-0.38
692.519	0.62
692.548	7.62
692.578	24.62
692.607	-0.38
692.636	-9.38
692.665	12.62
692.694	8.62
692.724	1.62
692.753	16.62
692.782	-0.38
692.811	-5.38
692.84	5.62
692.87	6.62
692.899	-1.38
692.928	0.62
692.957	10.62
692.986	7.62
693.016	7.62
693.045	11.62
693.074	0.62
693.103	-1.38
693.132	-5.38
693.161	19.62
693.191	14.62
693.22	-0.38
693.249	6.62
693.278	11.62
693.307	18.62
693.336	-12.38
693.365	-22.38
693.395	0.62
693.424	6.62
693.453	15.62
693.482	1.62
693.511	8.62
693.54	2.62
693.569	3.62
693.598	-13.38
693.628	17.62
693.657	16.62
693.686	18.62
693.715	6.62
693.744	12.62
693.773	13.62
693.802	14.62
693.831	-2.38
693.86	30.62
693.889	0.62
693.919	14.62
693.948	5.62
693.977	20.62
694.006	5.62
694.035	7.62
694.064	-5.38
694.093	4.62
694.122	-6.38
694.151	3.62
694.18	-2.38
694.209	24.62
694.238	11.62
694.267	26.62
694.296	10.62
694.325	12.62
694.354	9.62
694.383	-0.38
694.412	-10.38
694.441	-7.38
694.471	-0.38
694.5	-9.38
694.529	-9.38
694.558	14.62
694.587	5.62
694.616	15.62
694.645	6.62
694.674	11.62
694.703	9.62
694.732	1.62
694.761	12.62
694.79	8.62
694.819	-9.38
694.848	6.62
694.877	34.62
694.906	20.62
694.935	2.62
694.963	16.62
694.992	-5.38
695.021	-6.38
695.05	13.62
695.079	-1.38
695.108	6.62
695.137	17.62
695.166	0.62
695.195	2.62
695.224	21.62
695.253	16.62
695.282	20.62
695.311	0.62
695.34	-6.38
695.369	0.62
695.398	-0.38
695.427	32.62
695.456	3.62
695.485	-7.38
695.513	3.62
695.542	10.62
695.571	2.62
695.6	18.62
695.629	16.62
695.658	20.62
695.687	26.62
695.716	-0.38
695.745	31.62
695.774	-2.38
695.802	-7.38
695.831	16.62
695.86	1.62
695.889	12.62
695.918	18.62
695.947	2.62
695.976	-2.38
696.005	16.62
696.033	18.62
696.062	17.62
696.091	10.62
696.12	10.62
696.149	20.62
696.178	10.62
696.207	4.62
696.235	-11.38
696.264	15.62
696.293	5.62
696.322	10.62
696.351	9.62
696.38	-2.38
696.408	9.62
696.437	3.62
696.466	11.62
696.495	25.62
696.524	14.62
696.553	-1.38
696.581	29.62
696.61	11.62
696.639	-2.38
696.668	5.62
696.697	6.62
696.725	8.62
696.754	-5.38
696.783	5.62
696.812	6.62
696.84	5.62
696.869	17.62
696.898	-3.38
696.927	8.62
696.956	18.62
696.984	-7.38
697.013	2.62
697.042	14.62
697.071	9.62
697.099	21.62
697.128	-6.38
697.157	4.62
697.186	8.62
697.214	0.62
697.243	5.62
697.272	2.62
697.301	7.62
697.329	6.62
697.358	7.62
697.387	6.62
697.415	4.62
697.444	10.62
697.473	8.62
697.502	-4.38
697.53	-2.38
697.559	5.62
697.588	3.62
697.616	2.62
697.645	-2.38
697.674	0.62
697.703	7.62
697.731	4.62
697.76	2.62
697.789	5.62
697.817	14.62
697.846	17.62
697.875	12.62
697.903	22.62
697.932	15.62
697.961	11.62
697.989	5.62
698.018	3.62
698.047	1.62
698.075	2.62
698.104	6.62
698.133	-2.38
698.161	2.62
698.19	5.62
698.218	-0.38
698.247	-6.38
698.276	-1.38
698.304	16.62
698.333	-0.38
698.362	-1.38
698.39	-6.38
698.419	9.62
698.447	1.62
698.476	15.62
698.505	20.62
698.533	14.62
698.562	13.62
698.591	-5.38
698.619	3.62
698.648	9.62
698.676	8.62
698.705	11.62
698.733	-2.38
698.762	10.62
698.791	-2.38
698.819	0.62
698.848	4.62
698.876	9.62
698.905	-0.38
698.933	5.62
698.962	13.62
698.991	1.62
699.019	23.62
699.048	10.62
699.076	-1.38
699.105	-3.38
699.133	-9.38
699.162	2.62
699.19	3.62
699.219	11.62
699.248	2.62
699.276	10.62
699.305	-4.38
699.333	18.62
699.362	2.62
699.39	8.62
699.419	7.62
699.447	11.62
699.476	10.62
699.504	2.62
699.533	8.62
699.561	11.62
699.59	7.62
699.618	-0.38
699.647	-1.38
699.675	7.62
699.704	8.62
699.732	2.62
699.761	9.62
699.789	6.62
699.818	-11.38
699.846	-0.38
699.874	-3.38
699.903	3.62
699.931	7.62
699.96	1.62
699.988	2.62
700.017	0.62
700.045	10.62
700.074	-2.38
700.102	11.62
700.13	3.62
700.159	6.62
700.187	-5.38
700.216	4.62
700.244	-9.38
700.273	-11.38
700.301	-1.38
700.329	15.62
700.358	8.62
700.386	-3.38
700.415	-0.38
700.443	7.62
700.472	-6.38
700.5	2.62
700.528	-0.38
700.557	1.62
700.585	-13.38
700.614	0.62
700.642	11.62
700.67	21.62
700.699	9.62
700.727	12.62
700.755	-0.38
700.784	9.62
700.812	14.62
700.841	13.62
700.869	7.62
700.897	-8.38
700.926	10.62
700.954	6.62
700.982	2.62
701.011	-8.38
701.039	6.62
701.067	1.62
701.096	8.62
701.124	6.62
701.152	-4.38
701.181	9.62
701.209	-5.38
701.237	2.62
701.266	-4.38
701.294	-4.38
701.322	8.62
701.351	12.62
701.379	5.62
701.407	16.62
701.435	17.62
701.464	9.62
701.492	36.62
701.52	13.62
701.549	3.62
701.577	-5.38
701.605	6.62
701.634	12.62
701.662	7.62
701.69	-1.38
701.718	-0.38
701.747	19.62
701.775	5.62
701.803	-16.38
701.831	12.62
701.86	1.62
701.888	22.62
701.916	-11.38
701.944	-3.38
701.973	-12.38
702.001	-15.38
702.029	5.62
702.057	-3.38
702.086	-8.38
702.114	-20.38
702.142	6.62
702.17	-4.38
702.199	8.62
702.227	1.62
702.255	-4.38
702.283	-8.38
702.311	5.62
702.34	8.62
702.368	7.62
702.396	1.62
702.424	6.62
702.452	-15.38
702.481	-12.38
702.509	1.62
702.537	1.62
702.565	-1.38
702.593	-14.38
702.621	-7.38
702.65	10.62
702.678	-1.38
702.706	11.62
702.734	-11.38
702.762	-9.38
702.79	-4.38
702.819	22.62
702.847	2.62
702.875	17.62
702.903	-0.38
702.931	-4.38
702.959	-5.38
702.988	1.62
703.016	-9.38
703.044	2.62
703.072	-9.38
703.1	4.62
703.128	9.62
703.156	2.62
703.184	1.62
703.212	22.62
703.241	9.62
703.269	1.62
703.297	-0.38
703.325	0.62
703.353	-8.38
703.381	-11.38
703.409	-3.38
703.437	3.62
703.465	6.62
703.493	1.62
703.522	-3.38
703.55	4.62
703.578	19.62
703.606	0.62
703.634	-9.38
703.662	-10.38
703.69	-12.38
703.718	6.62
703.746	2.62
703.774	3.62
703.802	21.62
703.83	-6.38
703.858	-0.38
703.886	-13.38
703.914	-6.38
703.942	16.62
703.97	-8.38
703.998	-3.38
704.027	10.62
704.055	8.62
704.083	6.62
704.111	-12.38
704.139	2.62
704.167	-4.38
704.195	-1.38
704.223	5.62
704.251	3.62
704.279	2.62
704.307	2.62
704.335	-20.38
704.363	-0.38
704.391	-10.38
704.419	-10.38
704.447	-1.38
704.475	-1.38
704.503	-6.38
704.531	6.62
704.558	-0.38
704.586	16.62
704.614	-2.38
704.642	10.62
704.67	-6.38
704.698	-7.38
704.726	4.62
704.754	3.62
704.782	-1.38
704.81	-1.38
704.838	9.62
704.866	11.62
704.894	-17.38
704.922	2.62
704.95	9.62
704.978	22.62
705.006	2.62
705.034	8.62
705.061	9.62
705.089	-2.38
705.117	-21.38
705.145	1.62
705.173	8.62
705.201	7.62
705.229	6.62
705.257	-0.38
705.285	1.62
705.313	14.62
705.34	1.62
705.368	-4.38
705.396	12.62
705.424	-2.38
705.452	-13.38
705.48	1.62
705.508	-1.38
705.536	1.62
705.563	5.62
705.591	-2.38
705.619	5.62
705.647	-2.38
705.675	-9.38
705.703	2.62
705.731	2.62
705.758	-1.38
705.786	1.62
705.814	10.62
705.842	1.62
705.87	14.62
705.898	18.62
705.925	5.62
705.953	2.62
705.981	-4.38
706.009	-0.38
706.037	14.62
706.065	2.62
706.092	-10.38
706.12	-18.38
706.148	-5.38
706.176	-2.38
706.204	9.62
706.231	1.62
706.259	-12.38
706.287	-3.38
706.315	14.62
706.342	-13.38
706.37	-4.38
706.398	-6.38
706.426	-12.38
706.454	3.62
706.481	18.62
706.509	2.62
706.537	5.62
706.565	1.62
706.592	9.62
706.62	-10.38
706.648	-7.38
706.676	-28.38
706.703	-6.38
706.731	-11.38
706.759	-0.38
706.787	-0.38
706.814	17.62
706.842	-13.38
706.87	-2.38
706.897	3.62
706.925	12.62
706.953	32.62
706.981	21.62
707.008	14.62
707.036	0.62
707.064	-7.38
707.091	-21.38
707.119	2.62
707.147	-0.38
707.174	-10.38
707.202	-1.38
707.23	-5.38
707.258	8.62
707.285	-11.38
707.313	-10.38
707.341	-6.38
707.368	-1.38
707.396	6.62
707.424	6.62
707.451	12.62
707.479	6.62
707.507	9.62
707.534	2.62
707.562	6.62
707.59	6.62
707.617	1.62
707.645	-1.38
707.672	-2.38
707.7	11.62
707.728	3.62
707.755	3.62
707.783	-5.38
707.811	6.62
707.838	-5.38
707.866	10.62
707.893	-6.38
707.921	-2.38
707.949	-6.38
707.976	1.62
708.004	-6.38
708.031	-2.38
708.059	-9.38
708.087	4.62
708.114	-8.38
708.142	-10.38
708.169	-4.38
708.197	-11.38
708.225	-3.38
708.252	-5.38
708.28	17.62
708.307	21.62
708.335	12.62
708.362	-0.38
708.39	2.62
708.418	-6.38
708.445	3.62
708.473	-12.38
708.5	-6.38
708.528	0.62
708.555	-1.38
708.583	6.62
708.61	-8.38
708.638	-6.38
708.665	-5.38
708.693	1.62
708.72	-0.38
708.748	0.62
708.776	11.62
708.803	24.62
708.831	4.62
708.858	20.62
708.886	8.62
708.913	17.62
708.941	-9.38
708.968	11.62
708.996	-7.38
709.023	38.62
709.051	2.62
709.078	-5.38
709.105	6.62
709.133	9.62
709.16	-4.38
709.188	13.62
709.215	-6.38
709.243	10.62
709.27	-1.38
709.298	-0.38
709.325	-11.38
709.353	-8.38
709.38	6.62
709.408	14.62
709.435	11.62
709.462	16.62
709.49	5.62
709.517	-16.38
709.545	-3.38
709.572	-12.38
709.6	-2.38
709.627	-4.38
709.655	-5.38
709.682	-7.38
709.709	5.62
709.737	-4.38
709.764	-1.38
709.792	15.62
709.819	15.62
709.846	-1.38
709.874	-2.38
709.901	9.62
709.929	8.62
709.956	18.62
709.983	1.62
710.011	7.62
710.038	14.62
710.066	8.62
710.093	1.62
710.12	5.62
710.148	-10.38
710.175	-4.38
710.202	-13.38
710.23	-1.38
710.257	1.62
710.284	6.62
710.312	11.62
710.339	7.62
710.366	3.62
710.394	-10.38
710.421	2.62
710.448	12.62
710.476	-1.38
710.503	0.62
710.53	9.62
710.558	22.62
710.585	3.62
710.612	1.62
710.64	-6.38
710.667	-9.38
710.694	-10.38
710.722	-12.38
710.749	12.62
710.776	11.62
710.804	13.62
710.831	14.62
710.858	16.62
710.885	-2.38
710.913	-2.38
710.94	22.62
710.967	1.62
710.995	1.62
711.022	1.62
711.049	6.62
711.076	3.62
711.104	8.62
711.131	-15.38
711.158	6.62
711.185	17.62
711.213	-13.38
711.24	-23.38
711.267	-5.38
711.294	-1.38
711.322	0.62
711.349	-8.38
711.376	-9.38
711.403	1.62
711.431	-6.38
711.458	-7.38
711.485	-1.38
711.512	9.62
711.54	-6.38
711.567	-2.38
711.594	-7.38
711.621	-7.38
711.648	3.62
711.676	6.62
711.703	1.62
711.73	-16.38
711.757	-0.38
711.784	18.62
711.812	16.62
711.839	8.62
711.866	6.62
711.893	2.62
711.92	17.62
711.947	3.62
711.975	25.62
712.002	-0.38
712.029	6.62
712.056	14.62
712.083	0.62
712.11	-14.38
712.138	-2.38
712.165	-9.38
712.192	-15.38
712.219	-9.38
712.246	-0.38
712.273	-5.38
712.3	-4.38
712.328	-0.38
712.355	-4.38
712.382	11.62
712.409	22.62
712.436	-18.38
712.463	-2.38
712.49	1.62
712.517	12.62
712.544	-6.38
712.572	-1.38
712.599	-7.38
712.626	10.62
712.653	-1.38
712.68	-9.38
712.707	-2.38
712.734	4.62
712.761	9.62
712.788	12.62
712.815	8.62
712.842	8.62
712.87	1.62
712.897	-7.38
712.924	6.62
712.951	5.62
712.978	8.62
713.005	21.62
713.032	13.62
713.059	3.62
713.086	0.62
713.113	-10.38
713.14	-9.38
713.167	0.62
713.194	17.62
713.221	-5.38
713.248	0.62
713.275	-1.38
713.302	-3.38
713.329	19.62
713.356	-8.38
713.383	22.62
713.41	5.62
713.437	-25.38
713.464	-1.38
713.491	15.62
713.518	9.62
713.545	-6.38
713.572	4.62
713.599	6.62
713.626	3.62
713.653	5.62
713.68	-2.38
713.707	-7.38
713.734	-0.38
713.761	-7.38
713.788	0.62
713.815	8.62
713.842	19.62
713.869	-4.38
713.896	8.62
713.923	-6.38
713.95	5.62
713.977	-16.38
714.004	-10.38
714.031	-0.38
714.058	5.62
714.085	10.62
714.112	16.62
714.139	11.62
714.165	0.62
714.192	-1.38
714.219	6.62
714.246	-5.38
714.273	-0.38
714.3	1.62
714.327	11.62
714.354	-2.38
714.381	2.62
714.408	-6.38
714.435	-10.38
714.461	0.62
714.488	14.62
714.515	-4.38
714.542	-6.38
714.569	-5.38
714.596	-13.38
714.623	-7.38
714.65	1.62
714.677	12.62
714.703	6.62
714.73	9.62
714.757	3.62
714.784	18.62
714.811	1.62
714.838	9.62
714.865	3.62
714.891	12.62
714.918	-1.38
714.945	-10.38
714.972	-2.38
714.999	13.62
715.026	-9.38
715.052	9.62
715.079	-0.38
715.106	14.62
715.133	12.62
715.16	-0.38
715.187	5.62
715.213	10.62
715.24	-0.38
715.267	0.62
715.294	2.62
715.321	-1.38
715.347	-1.38
715.374	-12.38
715.401	12.62
715.428	2.62
715.455	-0.38
715.481	-5.38
715.508	23.62
715.535	2.62
715.562	14.62
715.588	4.62
715.615	-0.38
715.642	-2.38
715.669	5.62
715.695	-15.38
715.722	5.62
715.749	1.62
715.776	9.62
715.802	-8.38
715.829	-8.38
715.856	-10.38
715.883	20.62
715.909	11.62
715.936	11.62
715.963	-0.38
715.99	-0.38
716.016	23.62
716.043	-6.38
716.07	-11.38
716.096	0.62
716.123	-10.38
716.15	7.62
716.177	1.62
716.203	16.62
716.23	6.62
716.257	-0.38
716.283	17.62
716.31	-2.38
716.337	-1.38
716.363	2.62
716.39	22.62
716.417	23.62
716.443	4.62
716.47	16.62
716.497	12.62
716.523	10.62
716.55	0.62
716.577	15.62
716.603	-3.38
716.63	11.62
716.657	9.62
716.683	-2.38
716.71	-11.38
716.737	5.62
716.763	2.62
716.79	3.62
716.817	15.62
716.843	12.62
716.87	-15.38
716.897	-7.38
716.923	27.62
716.95	-1.38
716.976	-16.38
717.003	-7.38
717.03	2.62
717.056	3.62
717.083	4.62
717.109	7.62
717.136	9.62
717.163	-2.38
717.189	10.62
717.216	-2.38
717.242	-3.38
717.269	-3.38
717.296	12.62
717.322	13.62
717.349	18.62
717.375	12.62
717.402	-2.38
717.428	-1.38
717.455	17.62
717.481	-3.38
717.508	10.62
717.535	2.62
717.561	6.62
717.588	5.62
717.614	7.62
717.641	-1.38
717.667	-6.38
717.694	8.62
717.72	-0.38
717.747	11.62
717.773	-24.38
717.8	12.62
717.826	6.62
717.853	3.62
717.88	10.62
717.906	-0.38
717.933	23.62
717.959	-0.38
717.986	-10.38
718.012	-4.38
718.039	12.62
718.065	9.62
718.092	9.62
718.118	-13.38
718.144	2.62
718.171	-0.38
718.197	23.62
718.224	-6.38
718.25	-14.38
718.277	-2.38
718.303	11.62
718.33	0.62
718.356	-1.38
718.383	3.62
718.409	5.62
718.436	4.62
718.462	1.62
718.489	-13.38
718.515	5.62
718.541	23.62
718.568	1.62
718.594	-6.38
718.621	1.62
718.647	-2.38
718.674	15.62
718.7	6.62
718.726	-10.38
718.753	14.62
718.779	1.62
718.806	-2.38
718.832	-6.38
718.858	10.62
718.885	-4.38
718.911	-1.38
718.938	7.62
718.964	-6.38
718.99	-1.38
719.017	4.62
719.043	3.62
719.07	6.62
719.096	-14.38
719.122	0.62
719.149	0.62
719.175	9.62
719.201	11.62
719.228	-1.38
719.254	11.62
719.281	-7.38
719.307	-9.38
719.333	6.62
719.36	2.62
719.386	5.62
719.412	10.62
719.439	-16.38
719.465	-7.38
719.491	-13.38
719.518	-0.38
719.544	-17.38
719.57	9.62
719.597	1.62
719.623	-2.38
719.649	-2.38
719.675	-6.38
719.702	5.62
719.728	13.62
719.754	2.62
719.781	-11.38
719.807	-3.38
719.833	7.62
719.86	6.62
719.886	-2.38
719.912	13.62
719.938	6.62
719.965	-5.38
719.991	1.62
720.017	-3.38
720.044	-6.38
720.07	5.62
720.096	3.62
720.122	-7.38
720.149	-0.38
720.175	25.62
720.201	-1.38
720.227	6.62
720.254	6.62
720.28	4.62
720.306	-11.38
720.332	-2.38
720.359	-15.38
720.385	-1.38
720.411	3.62
720.437	18.62
720.463	-10.38
720.49	2.62
720.516	-2.38
720.542	9.62
720.568	11.62
720.595	11.62
720.621	1.62
720.647	15.62
720.673	-2.38
720.699	8.62
720.725	-3.38
720.752	22.62
720.778	4.62
720.804	22.62
720.83	14.62
720.856	5.62
720.883	-13.38
720.909	-1.38
720.935	10.62
720.961	7.62
720.987	9.62
721.013	1.62
721.04	8.62
721.066	-0.38
721.092	-3.38
721.118	10.62
721.144	-5.38
721.17	-4.38
721.196	11.62
721.223	3.62
721.249	1.62
721.275	9.62
721.301	3.62
721.327	10.62
721.353	9.62
721.379	-4.38
721.405	6.62
721.432	22.62
721.458	5.62
721.484	-1.38
721.51	-11.38
721.536	8.62
721.562	0.62
721.588	-2.38
721.614	2.62
721.64	-10.38
721.666	3.62
721.693	-4.38
721.719	3.62
721.745	6.62
721.771	-7.38
721.797	-2.38
721.823	23.62
721.849	2.62
721.875	-1.38
721.901	1.62
721.927	4.62
721.953	-7.38
721.979	-0.38
722.005	6.62
722.031	-4.38
722.057	1.62
722.083	26.62
722.109	2.62
722.135	15.62
722.161	17.62
722.187	-5.38
722.214	9.62
722.24	14.62
722.266	-14.38
722.292	6.62
722.318	6.62
722.344	-1.38
722.37	16.62
722.396	7.62
722.422	-8.38
722.448	-2.38
722.474	-0.38
722.5	8.62
722.526	7.62
722.552	-0.38
722.578	6.62
722.603	11.62
722.629	-0.38
722.655	0.62
722.681	-7.38
722.707	3.62
722.733	1.62
722.759	-1.38
722.785	3.62
722.811	3.62
722.837	4.62
722.863	15.62
722.889	-7.38
722.915	6.62
722.941	7.62
722.967	14.62
722.993	5.62
723.019	-1.38
723.045	4.62
723.071	20.62
723.097	5.62
723.122	9.62
723.148	5.62
723.174	5.62
723.2	0.62
723.226	4.62
723.252	-0.38
723.278	-14.38
723.304	-18.38
723.33	-3.38
723.356	-8.38
723.381	-15.38
723.407	-6.38
723.433	9.62
723.459	-0.38
723.485	-0.38
723.511	10.62
723.537	-1.38
723.563	5.62
723.588	1.62
723.614	10.62
723.64	-4.38
723.666	-0.38
723.692	3.62
723.718	-1.38
723.744	1.62
723.769	1.62
723.795	2.62
723.821	2.62
723.847	-0.38
723.873	-8.38
723.899	8.62
723.924	-1.38
723.95	-0.38
723.976	-8.38
724.002	8.62
724.028	10.62
724.053	2.62
724.079	15.62
724.105	8.62
724.131	2.62
724.157	-2.38
724.182	11.62
724.208	5.62
724.234	3.62
724.26	5.62
724.286	-0.38
724.311	-11.38
724.337	-10.38
724.363	2.62
724.389	1.62
724.415	12.62
724.44	18.62
724.466	3.62
724.492	-1.38
724.518	16.62
724.543	4.62
724.569	3.62
724.595	0.62
724.621	5.62
724.646	2.62
724.672	-0.38
724.698	17.62
724.723	5.62
724.749	-5.38
724.775	9.62
724.801	10.62
724.826	1.62
724.852	-0.38
724.878	-12.38
724.904	-12.38
724.929	0.62
724.955	-23.38
724.981	2.62
725.006	4.62
725.032	3.62
725.058	4.62
725.083	-8.38
725.109	-4.38
725.135	-2.38
725.161	14.62
725.186	-6.38
725.212	-6.38
725.238	-4.38
725.263	-7.38
725.289	-17.38
725.315	-2.38
725.34	16.62
725.366	1.62
725.392	-5.38
725.417	-13.38
725.443	-8.38
725.468	0.62
725.494	-4.38
725.52	17.62
725.545	-7.38
725.571	1.62
725.597	-4.38
725.622	-5.38
725.648	1.62
725.674	9.62
725.699	-5.38
725.725	-2.38
725.75	10.62
725.776	0.62
725.802	-4.38
725.827	-0.38
725.853	-0.38
725.878	7.62
725.904	7.62
725.93	17.62
725.955	8.62
725.981	-2.38
726.006	5.62
726.032	7.62
726.057	6.62
726.083	-0.38
726.109	7.62
726.134	11.62
726.16	-2.38
726.185	-5.38
726.211	5.62
726.236	13.62
726.262	2.62
726.288	10.62
726.313	-0.38
726.339	5.62
726.364	-2.38
726.39	21.62
726.415	-8.38
726.441	-13.38
726.466	-2.38
726.492	7.62
726.517	-2.38
726.543	9.62
726.568	-12.38
726.594	9.62
726.619	9.62
726.645	1.62
726.67	-1.38
726.696	12.62
726.721	1.62
726.747	3.62
726.772	-10.38
726.798	-0.38
726.823	10.62
726.849	-2.38
726.874	1.62
726.9	21.62
726.925	30.62
726.951	14.62
726.976	10.62
727.002	-3.38
727.027	-0.38
727.053	-4.38
727.078	6.62
727.104	6.62
727.129	-4.38
727.155	-10.38
727.18	10.62
727.205	-1.38
727.231	-2.38
727.256	-1.38
727.282	1.62
727.307	0.62
727.333	-6.38
727.358	-0.38
727.383	1.62
727.409	-1.38
727.434	8.62
727.46	-6.38
727.485	-0.38
727.511	11.62
727.536	-9.38
727.561	-2.38
727.587	-0.38
727.612	-2.38
727.637	-9.38
727.663	-4.38
727.688	8.62
727.714	-5.38
727.739	-8.38
727.764	-9.38
727.79	-15.38
727.815	1.62
727.841	18.62
727.866	2.62
727.891	2.62
727.917	-16.38
727.942	-20.38
727.967	3.62
727.993	-20.38
728.018	-0.38
728.043	2.62
728.069	6.62
728.094	18.62
728.119	9.62
728.145	11.62
728.17	-3.38
728.195	13.62
728.221	15.62
728.246	15.62
728.271	5.62
728.297	-5.38
728.322	-4.38
728.347	9.62
728.373	17.62
728.398	22.62
728.423	-14.38
728.448	1.62
728.474	3.62
728.499	9.62
728.524	-1.38
728.55	-12.38
728.575	11.62
728.6	-8.38
728.625	-0.38
728.651	-0.38
728.676	-6.38
728.701	-6.38
728.727	15.62
728.752	-2.38
728.777	14.62
728.802	-9.38
728.828	-4.38
728.853	-0.38
728.878	6.62
728.903	-12.38
728.929	-11.38
728.954	-6.38
728.979	10.62
729.004	-0.38
729.03	-0.38
729.055	1.62
729.08	-11.38
729.105	-14.38
729.13	19.62
729.156	10.62
729.181	3.62
729.206	-24.38
729.231	-13.38
729.256	6.62
729.282	19.62
729.307	-7.38
729.332	-14.38
729.357	0.62
729.382	3.62
729.408	21.62
729.433	15.62
729.458	23.62
729.483	22.62
729.508	13.62
729.533	11.62
729.559	5.62
729.584	-4.38
729.609	6.62
729.634	0.62
729.659	0.62
729.684	-18.38
729.71	26.62
729.735	8.62
729.76	1.62
729.785	9.62
729.81	15.62
729.835	3.62
729.86	6.62
729.886	11.62
729.911	5.62
729.936	8.62
729.961	26.62
729.986	21.62
730.011	69.62
730.036	218.62
730.061	1017.62
730.086	2730.62
730.112	3424.62
730.137	2834.62
730.162	2081.62
730.187	1642.62
730.212	1329.62
730.237	802.62
730.262	476.62
730.287	237.62
730.312	138.62
730.337	69.62
730.362	61.62
730.387	38.62
730.413	15.62
730.438	19.62
730.463	19.62
730.488	26.62
730.513	13.62
730.538	14.62
730.563	28.62
730.588	25.62
730.613	18.62
730.638	14.62
730.663	-4.38
730.688	31.62
730.713	19.62
730.738	5.62
730.763	9.62
730.788	-4.38
730.813	22.62
730.838	10.62
730.863	7.62
730.888	-4.38
730.913	-2.38
730.938	1.62
730.963	25.62
730.988	124.62
731.013	417.62
731.038	639.62
731.063	599.62
731.088	457.62
731.113	339.62
731.138	261.62
731.163	194.62
731.188	106.62
731.213	66.62
731.238	50.62
731.263	9.62
731.288	-0.38
731.313	13.62
731.338	6.62
731.363	-7.38
731.388	17.62
731.413	8.62
731.438	2.62
731.463	9.62
731.487	6.62
731.512	-2.38
731.537	-1.38
731.562	-1.38
731.587	2.62
731.612	2.62
731.637	-7.38
731.662	-0.38
731.687	-2.38
731.712	-6.38
731.737	6.62
731.762	-18.38
731.786	-1.38
731.811	10.62
731.836	5.62
731.861	-1.38
731.886	-3.38
731.911	3.62
731.936	9.62
731.961	3.62
731.986	-7.38
732.01	11.62
732.035	-1.38
732.06	12.62
732.085	7.62
732.11	4.62
732.135	-10.38
732.16	-5.38
732.184	1.62
732.209	10.62
732.234	12.62
732.259	-7.38
732.284	7.62
732.309	-20.38
732.334	-2.38
732.358	-28.38
732.383	-30.38
732.408	-5.38
732.433	15.62
732.458	11.62
732.482	3.62
732.507	-5.38
732.532	9.62
732.557	16.62
732.582	15.62
732.607	23.62
732.631	51.62
732.656	91.62
732.681	166.62
732.706	319.62
732.73	445.62
732.755	396.62
732.78	282.62
732.805	231.62
732.83	178.62
732.854	139.62
732.879	80.62
732.904	38.62
732.929	19.62
732.953	-1.38
732.978	9.62
733.003	-5.38
733.028	8.62
733.052	15.62
733.077	9.62
733.102	6.62
733.127	9.62
733.151	9.62
733.176	1.62
733.201	-1.38
733.226	4.62
733.25	3.62
733.275	5.62
733.3	-10.38
733.324	30.62
733.349	-0.38
733.374	19.62
733.399	18.62
733.423	1.62
733.448	-0.38
733.473	2.62
733.497	-7.38
733.522	-13.38
733.547	12.62
733.571	23.62
733.596	7.62
733.621	8.62
733.646	0.62
733.67	-2.38
733.695	-2.38
733.72	5.62
733.744	0.62
733.769	6.62
733.794	12.62
733.818	-5.38
733.843	-2.38
733.867	-1.38
733.892	1.62
733.917	10.62
733.941	-2.38
733.966	-17.38
733.991	3.62
734.015	12.62
734.04	-0.38
734.065	-6.38
734.089	6.62
734.114	-5.38
734.138	5.62
734.163	-2.38
734.188	16.62
734.212	-2.38
734.237	8.62
734.261	2.62
734.286	-4.38
734.311	-0.38
734.335	6.62
734.36	3.62
734.384	1.62
734.409	12.62
734.434	14.62
734.458	6.62
734.483	1.62
734.507	-8.38
734.532	-4.38
734.556	17.62
734.581	12.62
734.606	5.62
734.63	-18.38
734.655	-1.38
734.679	6.62
734.704	-7.38
734.728	3.62
734.753	5.62
734.777	7.62
734.802	-4.38
734.826	11.62
734.851	17.62
734.876	18.62
734.9	5.62
734.925	9.62
734.949	7.62
734.974	-5.38
734.998	8.62
735.023	-2.38
735.047	-14.38
735.072	12.62
735.096	8.62
735.121	8.62
735.145	5.62
735.17	18.62
735.194	6.62
735.219	2.62
735.243	-1.38
735.268	18.62
735.292	1.62
735.317	-10.38
735.341	18.62
735.365	-18.38
735.39	7.62
735.414	8.62
735.439	1.62
735.463	14.62
735.488	15.62
735.512	4.62
735.537	-1.38
735.561	-0.38
735.586	1.62
735.61	2.62
735.634	-6.38
735.659	20.62
735.683	14.62
735.708	0.62
735.732	2.62
735.757	-10.38
735.781	-5.38
735.805	-2.38
735.83	-5.38
735.854	-6.38
735.879	6.62
735.903	13.62
735.927	13.62
735.952	0.62
735.976	0.62
736.001	-1.38
736.025	10.62
736.049	19.62
736.074	-4.38
736.098	-9.38
736.123	6.62
736.147	-8.38
736.171	-0.38
736.196	14.62
736.22	-0.38
736.244	11.62
736.269	9.62
736.293	-1.38
736.317	3.62
736.342	3.62
736.366	24.62
736.39	26.62
736.415	3.62
736.439	17.62
736.463	11.62
736.488	0.62
736.512	2.62
736.536	7.62
736.561	23.62
736.585	7.62
736.609	11.62
736.634	4.62
736.658	0.62
736.682	9.62
736.707	-21.38
736.731	-13.38
736.755	5.62
736.78	17.62
736.804	7.62
736.828	14.62
736.852	6.62
736.877	7.62
736.901	7.62
736.925	9.62
736.949	7.62
736.974	-2.38
736.998	-2.38
737.022	10.62
737.047	-6.38
737.071	4.62
737.095	9.62
737.119	19.62
737.144	0.62
737.168	-4.38
737.192	-12.38
737.216	7.62
737.241	-5.38
737.265	-10.38
737.289	-3.38
737.313	-7.38
737.337	13.62
737.362	7.62
737.386	-6.38
737.41	-7.38
737.434	8.62
737.459	-5.38
737.483	14.62
737.507	21.62
737.531	33.62
737.555	11.62
737.58	12.62
737.604	-5.38
737.628	-10.38
737.652	-2.38
737.676	1.62
737.701	2.62
737.725	16.62
737.749	13.62
737.773	12.62
737.797	0.62
737.821	8.62
737.846	6.62
737.87	16.62
737.894	3.62
737.918	-0.38
737.942	5.62
737.966	11.62
737.99	5.62
738.015	12.62
738.039	11.62
738.063	-4.38
738.087	36.62
738.111	12.62
738.135	16.62
738.159	1.62
738.184	-2.38
738.208	5.62
738.232	-1.38
738.256	22.62
738.28	9.62
738.304	16.62
738.328	6.62
738.352	7.62
738.376	-3.38
738.4	1.62
738.425	4.62
738.449	-4.38
738.473	16.62
738.497	6.62
738.521	11.62
738.545	5.62
738.569	-2.38
738.593	19.62
738.617	14.62
738.641	-5.38
738.665	7.62
738.689	4.62
738.713	5.62
738.737	-0.38
738.762	11.62
738.786	19.62
738.81	-6.38
738.834	14.62
738.858	2.62
738.882	5.62
738.906	2.62
738.93	-6.38
738.954	2.62
738.978	15.62
739.002	-13.38
739.026	-5.38
739.05	0.62
739.074	1.62
739.098	36.62
739.122	29.62
739.146	15.62
739.17	11.62
739.194	4.62
739.218	5.62
739.242	-1.38
739.266	-1.38
739.29	21.62
739.314	12.62
739.338	6.62
739.362	11.62
739.386	10.62
739.41	-6.38
739.434	-5.38
739.458	20.62
739.482	17.62
739.506	-3.38
739.53	7.62
739.554	18.62
739.577	-6.38
739.601	5.62
739.625	-8.38
739.649	-5.38
739.673	-18.38
739.697	-4.38
739.721	-1.38
739.745	14.62
739.769	10.62
739.793	-0.38
739.817	16.62
739.841	1.62
739.865	-4.38
739.889	-11.38
739.912	22.62
739.936	-6.38
739.96	-0.38
739.984	29.62
740.008	7.62
740.032	-13.38
740.056	5.62
740.08	11.62
740.104	-6.38
740.127	-3.38
740.151	5.62
740.175	19.62
740.199	15.62
740.223	46.62
740.247	6.62
740.271	6.62
740.295	5.62
740.318	-18.38
740.342	3.62
740.366	-3.38
740.39	3.62
740.414	5.62
740.438	-21.38
740.461	11.62
740.485	2.62
740.509	-13.38
740.533	-4.38
740.557	-6.38
740.581	-0.38
740.604	-18.38
740.628	-12.38
740.652	-16.38
740.676	-2.38
740.7	27.62
740.723	-2.38
740.747	4.62
740.771	6.62
740.795	2.62
740.819	11.62
740.842	8.62
740.866	2.62
740.89	-5.38
740.914	-1.38
740.938	-5.38
740.961	14.62
740.985	4.62
741.009	-7.38
741.033	12.62
741.056	1.62
741.08	-22.38
741.104	0.62
741.128	-1.38
741.151	16.62
741.175	17.62
741.199	16.62
741.223	7.62
741.246	-22.38
741.27	5.62
741.294	-10.38
741.318	6.62
741.341	-16.38
741.365	8.62
741.389	4.62
741.413	1.62
741.436	12.62
741.46	-0.38
741.484	12.62
741.507	5.62
741.531	27.62
741.555	19.62
741.579	-6.38
741.602	-0.38
741.626	10.62
741.65	-7.38
741.673	5.62
741.697	2.62
741.721	1.62
741.744	-12.38
741.768	-0.38
741.792	-1.38
741.815	-5.38
741.839	25.62
741.863	30.62
741.886	15.62
741.91	24.62
741.934	7.62
741.957	-16.38
741.981	14.62
742.005	13.62
742.028	-9.38
742.052	-4.38
742.075	14.62
742.099	23.62
742.123	6.62
742.146	5.62
742.17	11.62
742.194	-5.38
742.217	14.62
742.241	11.62
742.264	-9.38
742.288	37.62
742.312	16.62
742.335	-8.38
742.359	9.62
742.382	5.62
742.406	10.62
742.43	-7.38
742.453	-3.38
742.477	-15.38
742.5	-0.38
742.524	-9.38
742.548	5.62
742.571	5.62
742.595	-28.38
742.618	-8.38
742.642	-7.38
742.665	9.62
742.689	-7.38
742.712	16.62
742.736	-4.38
742.76	3.62
742.783	-0.38
742.807	10.62
742.83	16.62
742.854	-12.38
742.877	-0.38
742.901	-0.38
742.924	-7.38
742.948	-2.38
742.971	23.62
742.995	7.62
743.018	-5.38
743.042	1.62
743.065	-2.38
743.089	-7.38
743.112	7.62
743.136	-2.38
743.159	4.62
743.183	5.62
743.206	0.62
743.23	-4.38
743.253	6.62
743.277	6.62
743.3	-5.38
743.324	2.62
743.347	-9.38
743.371	22.62
743.394	4.62
743.418	8.62
743.441	2.62
743.465	15.62
743.488	9.62
743.512	7.62
743.535	11.62
743.558	24.62
743.582	22.62
743.605	18.62
743.629	3.62
743.652	10.62
743.676	-2.38
743.699	16.62
743.723	14.62
743.746	11.62
743.769	-2.38
743.793	0.62
743.816	1.62
743.84	3.62
743.863	17.62
743.886	15.62
743.91	33.62
743.933	2.62
743.957	-1.38
743.98	-11.38
744.003	2.62
744.027	-4.38
744.05	1.62
744.074	0.62
744.097	-12.38
744.12	3.62
744.144	-9.38
744.167	11.62
744.19	5.62
744.214	-8.38
744.237	-0.38
744.26	15.62
744.284	6.62
744.307	-13.38
744.331	-1.38
744.354	-3.38
744.377	2.62
744.401	-3.38
744.424	-13.38
744.447	-11.38
744.471	-8.38
