Data from HighRes_mercury_15_13_11_07_2024_HR4C61891__91__15-14-32-285.txt Node

Date: Thu Nov 07 15:14:32 EST 2024
User: crc00042
Spectrometer: HR4C6189
Trigger mode: 4
Integration Time (sec): 1.000000E-1
Scans to average: 1
Electric dark correction enabled: true
Nonlinearity correction enabled: false
Boxcar width: 0
XAxis mode: Wavelengths
Number of Pixels in Spectrum: 3648
>>>>>Begin Spectral Data<<<<<
639.567	-37.38
639.602	-37.38
639.636	-37.38
639.67	-59.38
639.704	-34.38
639.738	7.62
639.773	15.62
639.807	-8.38
639.841	1.62
639.875	19.62
639.909	-5.38
639.943	-10.38
639.978	-12.38
640.012	-8.38
640.046	7.62
640.08	-4.38
640.114	2.62
640.148	-5.38
640.182	-16.38
640.217	-5.38
640.251	3.62
640.285	-5.38
640.319	-12.38
640.353	-3.38
640.387	3.62
640.421	5.62
640.455	11.62
640.49	-2.38
640.524	-7.38
640.558	10.62
640.592	-10.38
640.626	-0.38
640.66	8.62
640.694	-14.38
640.728	8.62
640.762	12.62
640.796	23.62
640.83	8.62
640.865	-10.38
640.899	-7.38
640.933	-22.38
640.967	-2.38
641.001	5.62
641.035	-8.38
641.069	-6.38
641.103	5.62
641.137	-10.38
641.171	-12.38
641.205	7.62
641.239	8.62
641.273	-4.38
641.307	1.62
641.341	-9.38
641.375	8.62
641.409	-13.38
641.443	-5.38
641.477	8.62
641.511	4.62
641.545	2.62
641.579	4.62
641.614	8.62
641.648	5.62
641.682	-24.38
641.716	-1.38
641.75	11.62
641.784	10.62
641.818	-7.38
641.852	-3.38
641.886	-12.38
641.919	17.62
641.953	-1.38
641.987	-6.38
642.021	-14.38
642.055	1.62
642.089	-6.38
642.123	-8.38
642.157	8.62
642.191	-5.38
642.225	22.62
642.259	-3.38
642.293	23.62
642.327	-20.38
642.361	-3.38
642.395	11.62
642.429	20.62
642.463	23.62
642.497	9.62
642.531	-2.38
642.565	-5.38
642.599	17.62
642.633	5.62
642.666	4.62
642.7	19.62
642.734	25.62
642.768	-1.38
642.802	6.62
642.836	-1.38
642.87	-7.38
642.904	-7.38
642.938	1.62
642.972	-11.38
643.005	4.62
643.039	25.62
643.073	4.62
643.107	7.62
643.141	-11.38
643.175	1.62
643.209	11.62
643.243	10.62
643.276	0.62
643.31	-10.38
643.344	-10.38
643.378	7.62
643.412	6.62
643.446	1.62
643.48	4.62
643.513	-17.38
643.547	2.62
643.581	4.62
643.615	13.62
643.649	0.62
643.683	-2.38
643.716	9.62
643.75	9.62
643.784	-13.38
643.818	7.62
643.852	0.62
643.886	0.62
643.919	19.62
643.953	16.62
643.987	-14.38
644.021	3.62
644.055	4.62
644.088	-4.38
644.122	1.62
644.156	8.62
644.19	10.62
644.224	3.62
644.257	12.62
644.291	26.62
644.325	6.62
644.359	-0.38
644.392	13.62
644.426	15.62
644.46	-8.38
644.494	2.62
644.527	-4.38
644.561	4.62
644.595	0.62
644.629	-0.38
644.662	3.62
644.696	9.62
644.73	3.62
644.764	10.62
644.797	9.62
644.831	7.62
644.865	11.62
644.899	-0.38
644.932	35.62
644.966	7.62
645	31.62
645.033	15.62
645.067	-17.38
645.101	-4.38
645.135	-2.38
645.168	11.62
645.202	5.62
645.236	-0.38
645.269	2.62
645.303	4.62
645.337	-11.38
645.37	11.62
645.404	6.62
645.438	7.62
645.471	-6.38
645.505	11.62
645.539	-6.38
645.572	1.62
645.606	5.62
645.64	9.62
645.673	-9.38
645.707	9.62
645.741	8.62
645.774	-5.38
645.808	7.62
645.842	-5.38
645.875	29.62
645.909	5.62
645.943	5.62
645.976	5.62
646.01	6.62
646.043	24.62
646.077	7.62
646.111	10.62
646.144	15.62
646.178	15.62
646.212	6.62
646.245	8.62
646.279	6.62
646.312	3.62
646.346	21.62
646.38	1.62
646.413	5.62
646.447	-8.38
646.48	-6.38
646.514	-3.38
646.547	5.62
646.581	-10.38
646.615	3.62
646.648	-16.38
646.682	0.62
646.715	-1.38
646.749	1.62
646.782	-22.38
646.816	-5.38
646.85	15.62
646.883	-0.38
646.917	6.62
646.95	6.62
646.984	10.62
647.017	-10.38
647.051	-0.38
647.084	-5.38
647.118	-10.38
647.151	-0.38
647.185	-2.38
647.218	-27.38
647.252	1.62
647.285	-10.38
647.319	-10.38
647.353	5.62
647.386	11.62
647.42	-1.38
647.453	-6.38
647.487	2.62
647.52	10.62
647.553	-5.38
647.587	-14.38
647.62	-8.38
647.654	5.62
647.687	1.62
647.721	13.62
647.754	-0.38
647.788	8.62
647.821	-2.38
647.855	13.62
647.888	6.62
647.922	10.62
647.955	-4.38
647.989	-8.38
648.022	11.62
648.055	7.62
648.089	-2.38
648.122	16.62
648.156	-3.38
648.189	0.62
648.223	8.62
648.256	17.62
648.29	2.62
648.323	0.62
648.356	21.62
648.39	-0.38
648.423	5.62
648.457	-14.38
648.49	3.62
648.523	16.62
648.557	3.62
648.59	-1.38
648.624	16.62
648.657	0.62
648.69	18.62
648.724	13.62
648.757	22.62
648.791	7.62
648.824	0.62
648.857	15.62
648.891	-13.38
648.924	-4.38
648.957	14.62
648.991	-10.38
649.024	25.62
649.057	4.62
649.091	-6.38
649.124	3.62
649.158	6.62
649.191	33.62
649.224	10.62
649.258	2.62
649.291	0.62
649.324	22.62
649.358	22.62
649.391	16.62
649.424	13.62
649.458	12.62
649.491	3.62
649.524	-6.38
649.557	-15.38
649.591	-14.38
649.624	-0.38
649.657	-8.38
649.691	-1.38
649.724	12.62
649.757	6.62
649.791	6.62
649.824	29.62
649.857	13.62
649.89	1.62
649.924	-7.38
649.957	3.62
649.99	-10.38
650.023	-0.38
650.057	-11.38
650.09	19.62
650.123	2.62
650.157	12.62
650.19	15.62
650.223	-15.38
650.256	-16.38
650.29	-12.38
650.323	-16.38
650.356	2.62
650.389	-5.38
650.423	-13.38
650.456	17.62
650.489	-9.38
650.522	6.62
650.555	22.62
650.589	11.62
650.622	3.62
650.655	13.62
650.688	13.62
650.721	10.62
650.755	6.62
650.788	11.62
650.821	-1.38
650.854	1.62
650.887	1.62
650.921	-4.38
650.954	0.62
650.987	6.62
651.02	-18.38
651.053	-3.38
651.087	-4.38
651.12	21.62
651.153	16.62
651.186	2.62
651.219	1.62
651.252	0.62
651.286	-0.38
651.319	-10.38
651.352	-18.38
651.385	4.62
651.418	14.62
651.451	20.62
651.484	21.62
651.518	0.62
651.551	31.62
651.584	-3.38
651.617	8.62
651.65	-7.38
651.683	-3.38
651.716	-12.38
651.749	2.62
651.783	-2.38
651.816	0.62
651.849	8.62
651.882	14.62
651.915	-1.38
651.948	6.62
651.981	1.62
652.014	-11.38
652.047	-2.38
652.08	-15.38
652.114	16.62
652.147	7.62
652.18	-0.38
652.213	25.62
652.246	3.62
652.279	-14.38
652.312	16.62
652.345	1.62
652.378	-1.38
652.411	31.62
652.444	19.62
652.477	-8.38
652.51	1.62
652.543	-13.38
652.576	-7.38
652.609	-12.38
652.642	0.62
652.675	5.62
652.709	2.62
652.742	17.62
652.775	5.62
652.808	4.62
652.841	-9.38
652.874	-1.38
652.907	-1.38
652.94	-0.38
652.973	-1.38
653.006	-12.38
653.039	-1.38
653.072	-3.38
653.105	-6.38
653.138	-11.38
653.171	-14.38
653.204	5.62
653.237	6.62
653.27	-12.38
653.303	11.62
653.336	7.62
653.368	-1.38
653.401	10.62
653.434	8.62
653.467	4.62
653.5	-16.38
653.533	5.62
653.566	3.62
653.599	6.62
653.632	-0.38
653.665	0.62
653.698	-8.38
653.731	-14.38
653.764	1.62
653.797	7.62
653.83	16.62
653.863	-7.38
653.896	5.62
653.929	2.62
653.961	23.62
653.994	-1.38
654.027	-7.38
654.06	1.62
654.093	-1.38
654.126	-2.38
654.159	-3.38
654.192	-11.38
654.225	-16.38
654.258	-10.38
654.29	-15.38
654.323	2.62
654.356	-2.38
654.389	-10.38
654.422	7.62
654.455	9.62
654.488	-9.38
654.521	-9.38
654.553	-7.38
654.586	10.62
654.619	-0.38
654.652	-3.38
654.685	-14.38
654.718	16.62
654.751	11.62
654.783	-9.38
654.816	11.62
654.849	1.62
654.882	-8.38
654.915	-12.38
654.948	-7.38
654.98	-6.38
655.013	-1.38
655.046	-5.38
655.079	-18.38
655.112	-3.38
655.144	-3.38
655.177	-7.38
655.21	2.62
655.243	27.62
655.276	6.62
655.308	-2.38
655.341	-5.38
655.374	-1.38
655.407	-6.38
655.44	-10.38
655.472	3.62
655.505	5.62
655.538	-5.38
655.571	13.62
655.603	9.62
655.636	3.62
655.669	0.62
655.702	-3.38
655.734	-12.38
655.767	-10.38
655.8	14.62
655.833	0.62
655.865	-3.38
655.898	2.62
655.931	-9.38
655.964	1.62
655.996	5.62
656.029	-2.38
656.062	-13.38
656.095	9.62
656.127	-3.38
656.16	0.62
656.193	-0.38
656.225	2.62
656.258	12.62
656.291	-6.38
656.324	13.62
656.356	4.62
656.389	-7.38
656.422	5.62
656.454	-5.38
656.487	9.62
656.52	4.62
656.552	-4.38
656.585	3.62
656.618	8.62
656.65	24.62
656.683	-8.38
656.716	-7.38
656.748	-1.38
656.781	0.62
656.814	-4.38
656.846	5.62
656.879	3.62
656.912	6.62
656.944	3.62
656.977	-12.38
657.01	-12.38
657.042	8.62
657.075	5.62
657.108	-0.38
657.14	8.62
657.173	17.62
657.205	11.62
657.238	17.62
657.271	1.62
657.303	-14.38
657.336	1.62
657.369	-3.38
657.401	5.62
657.434	6.62
657.466	14.62
657.499	11.62
657.532	16.62
657.564	16.62
657.597	8.62
657.629	9.62
657.662	-12.38
657.694	4.62
657.727	-15.38
657.76	8.62
657.792	0.62
657.825	-17.38
657.857	-3.38
657.89	4.62
657.922	-0.38
657.955	-3.38
657.987	11.62
658.02	5.62
658.053	11.62
658.085	-1.38
658.118	7.62
658.15	20.62
658.183	22.62
658.215	1.62
658.248	-4.38
658.28	-10.38
658.313	7.62
658.345	16.62
658.378	-2.38
658.41	-9.38
658.443	-6.38
658.475	3.62
658.508	-3.38
658.54	-3.38
658.573	-11.38
658.605	-16.38
658.638	-6.38
658.67	-4.38
658.703	-6.38
658.735	-8.38
658.768	-19.38
658.8	-11.38
658.833	19.62
658.865	10.62
658.898	3.62
658.93	-7.38
658.963	-5.38
658.995	-23.38
659.028	2.62
659.06	-2.38
659.092	4.62
659.125	-5.38
659.157	-0.38
659.19	0.62
659.222	-17.38
659.255	-6.38
659.287	-11.38
659.32	-6.38
659.352	-14.38
659.384	10.62
659.417	-2.38
659.449	2.62
659.482	4.62
659.514	-0.38
659.546	-0.38
659.579	-20.38
659.611	4.62
659.644	0.62
659.676	-22.38
659.708	-4.38
659.741	-12.38
659.773	0.62
659.806	11.62
659.838	6.62
659.87	-2.38
659.903	-15.38
659.935	9.62
659.967	-6.38
660	3.62
660.032	-19.38
660.065	7.62
660.097	-0.38
660.129	-0.38
660.162	-13.38
660.194	-2.38
660.226	0.62
660.259	0.62
660.291	3.62
660.323	1.62
660.356	2.62
660.388	0.62
660.42	2.62
660.453	16.62
660.485	3.62
660.517	4.62
660.55	-9.38
660.582	-0.38
660.614	0.62
660.647	-12.38
660.679	-4.38
660.711	-11.38
660.743	-22.38
660.776	-16.38
660.808	-14.38
660.84	-2.38
660.873	17.62
660.905	-6.38
660.937	4.62
660.969	8.62
661.002	10.62
661.034	8.62
661.066	6.62
661.099	20.62
661.131	-3.38
661.163	-7.38
661.195	12.62
661.228	12.62
661.26	-4.38
661.292	-6.38
661.324	6.62
661.357	-1.38
661.389	17.62
661.421	10.62
661.453	1.62
661.485	-0.38
661.518	9.62
661.55	-10.38
661.582	-22.38
661.614	-7.38
661.647	-5.38
661.679	-11.38
661.711	1.62
661.743	-4.38
661.775	-4.38
661.808	20.62
661.84	-18.38
661.872	-15.38
661.904	14.62
661.936	-7.38
661.969	-15.38
662.001	-9.38
662.033	-4.38
662.065	-2.38
662.097	11.62
662.129	6.62
662.162	3.62
662.194	0.62
662.226	-2.38
662.258	5.62
662.29	-19.38
662.322	-4.38
662.355	-17.38
662.387	24.62
662.419	15.62
662.451	24.62
662.483	1.62
662.515	6.62
662.547	-6.38
662.58	-0.38
662.612	-3.38
662.644	-9.38
662.676	-3.38
662.708	22.62
662.74	-10.38
662.772	-1.38
662.804	-2.38
662.836	15.62
662.869	11.62
662.901	17.62
662.933	-2.38
662.965	21.62
662.997	-5.38
663.029	-2.38
663.061	-11.38
663.093	-1.38
663.125	3.62
663.157	4.62
663.189	-4.38
663.221	1.62
663.254	10.62
663.286	7.62
663.318	-21.38
663.35	-13.38
663.382	-10.38
663.414	11.62
663.446	-0.38
663.478	-5.38
663.51	12.62
663.542	-9.38
663.574	16.62
663.606	1.62
663.638	-2.38
663.67	-7.38
663.702	-7.38
663.734	-10.38
663.766	20.62
663.798	5.62
663.83	0.62
663.862	13.62
663.894	7.62
663.926	4.62
663.958	0.62
663.99	-4.38
664.022	-3.38
664.054	11.62
664.086	-14.38
664.118	-5.38
664.15	-14.38
664.182	1.62
664.214	-7.38
664.246	17.62
664.278	10.62
664.31	16.62
664.342	13.62
664.374	6.62
664.406	4.62
664.438	-3.38
664.47	9.62
664.502	-2.38
664.534	1.62
664.566	-26.38
664.598	5.62
664.63	-15.38
664.662	-6.38
664.693	1.62
664.725	11.62
664.757	-3.38
664.789	-15.38
664.821	-3.38
664.853	16.62
664.885	0.62
664.917	-1.38
664.949	31.62
664.981	18.62
665.013	1.62
665.045	-5.38
665.076	-0.38
665.108	7.62
665.14	17.62
665.172	-5.38
665.204	-7.38
665.236	-5.38
665.268	9.62
665.3	4.62
665.331	-1.38
665.363	11.62
665.395	-16.38
665.427	-0.38
665.459	3.62
665.491	-5.38
665.523	-0.38
665.555	-22.38
665.586	5.62
665.618	-2.38
665.65	-1.38
665.682	15.62
665.714	7.62
665.746	-13.38
665.777	2.62
665.809	-2.38
665.841	5.62
665.873	-5.38
665.905	-0.38
665.937	16.62
665.968	28.62
666	19.62
666.032	11.62
666.064	-1.38
666.096	-1.38
666.127	4.62
666.159	6.62
666.191	8.62
666.223	3.62
666.255	7.62
666.286	-0.38
666.318	-20.38
666.35	16.62
666.382	-7.38
666.413	-1.38
666.445	-8.38
666.477	3.62
666.509	-17.38
666.54	-4.38
666.572	-14.38
666.604	-1.38
666.636	-0.38
666.667	20.62
666.699	20.62
666.731	-12.38
666.763	-1.38
666.794	-13.38
666.826	-0.38
666.858	3.62
666.89	4.62
666.921	-4.38
666.953	-4.38
666.985	0.62
667.017	23.62
667.048	7.62
667.08	-0.38
667.112	-9.38
667.143	-17.38
667.175	30.62
667.207	15.62
667.238	11.62
667.27	-5.38
667.302	3.62
667.334	-6.38
667.365	9.62
667.397	-2.38
667.429	-10.38
667.46	-2.38
667.492	2.62
667.524	3.62
667.555	-2.38
667.587	-14.38
667.619	2.62
667.65	-15.38
667.682	4.62
667.714	7.62
667.745	14.62
667.777	15.62
667.808	5.62
667.84	-3.38
667.872	1.62
667.903	23.62
667.935	-11.38
667.967	-2.38
667.998	4.62
668.03	1.62
668.061	14.62
668.093	10.62
668.125	24.62
668.156	4.62
668.188	6.62
668.22	-4.38
668.251	-2.38
668.283	4.62
668.314	10.62
668.346	-11.38
668.377	11.62
668.409	11.62
668.441	33.62
668.472	3.62
668.504	9.62
668.535	6.62
668.567	23.62
668.599	-5.38
668.63	-1.38
668.662	3.62
668.693	23.62
668.725	7.62
668.756	2.62
668.788	-6.38
668.819	7.62
668.851	-1.38
668.882	9.62
668.914	9.62
668.946	4.62
668.977	-12.38
669.009	0.62
669.04	-7.38
669.072	7.62
669.103	14.62
669.135	-11.38
669.166	-1.38
669.198	-4.38
669.229	-0.38
669.261	18.62
669.292	6.62
669.324	7.62
669.355	-1.38
669.387	0.62
669.418	8.62
669.45	-8.38
669.481	9.62
669.513	7.62
669.544	9.62
669.576	2.62
669.607	-1.38
669.639	6.62
669.67	0.62
669.701	23.62
669.733	-24.38
669.764	-17.38
669.796	4.62
669.827	-4.38
669.859	-6.38
669.89	0.62
669.922	21.62
669.953	-0.38
669.985	3.62
670.016	25.62
670.047	14.62
670.079	-11.38
670.11	10.62
670.142	-12.38
670.173	8.62
670.204	-17.38
670.236	9.62
670.267	-7.38
670.299	3.62
670.33	9.62
670.362	6.62
670.393	-1.38
670.424	10.62
670.456	-22.38
670.487	-2.38
670.518	-0.38
670.55	8.62
670.581	-10.38
670.613	6.62
670.644	-0.38
670.675	-1.38
670.707	-13.38
670.738	-0.38
670.769	-4.38
670.801	-3.38
670.832	6.62
670.864	-6.38
670.895	4.62
670.926	-10.38
670.958	11.62
670.989	9.62
671.02	1.62
671.052	-4.38
671.083	7.62
671.114	-16.38
671.146	8.62
671.177	11.62
671.208	10.62
671.24	0.62
671.271	-2.38
671.302	7.62
671.333	-2.38
671.365	2.62
671.396	-2.38
671.427	-6.38
671.459	-3.38
671.49	13.62
671.521	1.62
671.553	-2.38
671.584	7.62
671.615	-1.38
671.646	9.62
671.678	4.62
671.709	-3.38
671.74	-26.38
671.771	-15.38
671.803	-19.38
671.834	-9.38
671.865	-6.38
671.896	9.62
671.928	-6.38
671.959	-3.38
671.99	0.62
672.021	-13.38
672.053	-6.38
672.084	-5.38
672.115	-15.38
672.146	0.62
672.178	-19.38
672.209	-11.38
672.24	-3.38
672.271	27.62
672.303	-1.38
672.334	-2.38
672.365	-0.38
672.396	0.62
672.427	25.62
672.459	8.62
672.49	35.62
672.521	3.62
672.552	1.62
672.583	8.62
672.615	-2.38
672.646	-1.38
672.677	-10.38
672.708	4.62
672.739	7.62
672.77	12.62
672.802	-9.38
672.833	-13.38
672.864	-3.38
672.895	-8.38
672.926	0.62
672.957	-10.38
672.989	-16.38
673.02	14.62
673.051	4.62
673.082	-6.38
673.113	3.62
673.144	-7.38
673.175	-10.38
673.206	-3.38
673.238	-4.38
673.269	9.62
673.3	3.62
673.331	1.62
673.362	4.62
673.393	-2.38
673.424	7.62
673.455	12.62
673.487	12.62
673.518	9.62
673.549	-5.38
673.58	-0.38
673.611	1.62
673.642	-4.38
673.673	-0.38
673.704	14.62
673.735	6.62
673.766	14.62
673.797	4.62
673.828	-4.38
673.86	-16.38
673.891	-19.38
673.922	-10.38
673.953	-16.38
673.984	-5.38
674.015	3.62
674.046	4.62
674.077	3.62
674.108	-6.38
674.139	5.62
674.17	-7.38
674.201	-10.38
674.232	-10.38
674.263	-11.38
674.294	-22.38
674.325	-17.38
674.356	0.62
674.387	14.62
674.418	7.62
674.449	-11.38
674.48	1.62
674.511	-1.38
674.542	-0.38
674.573	-21.38
674.604	11.62
674.635	-14.38
674.666	0.62
674.697	-7.38
674.728	4.62
674.759	2.62
674.79	-11.38
674.821	0.62
674.852	-4.38
674.883	-5.38
674.914	15.62
674.945	5.62
674.976	3.62
675.007	-7.38
675.038	-3.38
675.069	-19.38
675.1	-2.38
675.131	6.62
675.162	-17.38
675.193	-23.38
675.224	2.62
675.254	4.62
675.285	11.62
675.316	10.62
675.347	8.62
675.378	9.62
675.409	12.62
675.44	7.62
675.471	0.62
675.502	-16.38
675.533	-14.38
675.564	2.62
675.595	5.62
675.625	10.62
675.656	-0.38
675.687	-4.38
675.718	-9.38
675.749	-4.38
675.78	8.62
675.811	6.62
675.842	14.62
675.873	12.62
675.903	-7.38
675.934	-17.38
675.965	-2.38
675.996	-7.38
676.027	0.62
676.058	-6.38
676.089	-6.38
676.119	9.62
676.15	8.62
676.181	-0.38
676.212	-7.38
676.243	-1.38
676.274	-18.38
676.304	14.62
676.335	-27.38
676.366	6.62
676.397	10.62
676.428	19.62
676.459	9.62
676.489	17.62
676.52	0.62
676.551	-8.38
676.582	-17.38
676.613	0.62
676.643	-2.38
676.674	16.62
676.705	12.62
676.736	6.62
676.767	14.62
676.797	2.62
676.828	9.62
676.859	-1.38
676.89	3.62
676.92	-9.38
676.951	-3.38
676.982	-4.38
677.013	-9.38
677.044	0.62
677.074	32.62
677.105	-0.38
677.136	-3.38
677.167	11.62
677.197	16.62
677.228	-13.38
677.259	-7.38
677.289	-3.38
677.32	-26.38
677.351	-2.38
677.382	7.62
677.412	-6.38
677.443	-8.38
677.474	-2.38
677.505	4.62
677.535	-1.38
677.566	-5.38
677.597	1.62
677.627	-15.38
677.658	-8.38
677.689	-11.38
677.72	4.62
677.75	-1.38
677.781	23.62
677.812	0.62
677.842	8.62
677.873	1.62
677.904	-14.38
677.934	-5.38
677.965	-21.38
677.996	-26.38
678.026	5.62
678.057	10.62
678.088	-28.38
678.118	0.62
678.149	-14.38
678.18	-9.38
678.21	1.62
678.241	0.62
678.272	2.62
678.302	2.62
678.333	-1.38
678.363	3.62
678.394	-6.38
678.425	-9.38
678.455	16.62
678.486	16.62
678.517	-4.38
678.547	1.62
678.578	1.62
678.608	-4.38
678.639	6.62
678.67	-1.38
678.7	1.62
678.731	5.62
678.761	13.62
678.792	-3.38
678.823	3.62
678.853	0.62
678.884	-2.38
678.914	-8.38
678.945	-7.38
678.975	-14.38
679.006	7.62
679.037	-13.38
679.067	21.62
679.098	11.62
679.128	1.62
679.159	-1.38
679.189	-2.38
679.22	-12.38
679.25	-0.38
679.281	3.62
679.312	1.62
679.342	6.62
679.373	25.62
679.403	9.62
679.434	6.62
679.464	-3.38
679.495	1.62
679.525	-6.38
679.556	-16.38
679.586	-1.38
679.617	7.62
679.647	-4.38
679.678	-4.38
679.708	-13.38
679.739	4.62
679.769	6.62
679.8	-1.38
679.83	5.62
679.861	-4.38
679.891	4.62
679.922	-6.38
679.952	-1.38
679.983	0.62
680.013	9.62
680.044	0.62
680.074	2.62
680.105	12.62
680.135	1.62
680.165	15.62
680.196	8.62
680.226	1.62
680.257	8.62
680.287	-5.38
680.318	-0.38
680.348	-12.38
680.379	2.62
680.409	8.62
680.439	-0.38
680.47	0.62
680.5	-2.38
680.531	-10.38
680.561	13.62
680.592	16.62
680.622	15.62
680.652	-18.38
680.683	16.62
680.713	-1.38
680.744	8.62
680.774	-3.38
680.804	31.62
680.835	-2.38
680.865	-6.38
680.896	16.62
680.926	17.62
680.956	9.62
680.987	5.62
681.017	0.62
681.047	-8.38
681.078	-3.38
681.108	0.62
681.139	-1.38
681.169	1.62
681.199	-1.38
681.23	21.62
681.26	-6.38
681.29	2.62
681.321	-3.38
681.351	-3.38
681.381	-8.38
681.412	0.62
681.442	-1.38
681.472	20.62
681.503	8.62
681.533	7.62
681.563	-17.38
681.594	-4.38
681.624	-6.38
681.654	2.62
681.685	-5.38
681.715	-3.38
681.745	-3.38
681.775	-6.38
681.806	6.62
681.836	5.62
681.866	-14.38
681.897	10.62
681.927	-1.38
681.957	-18.38
681.987	8.62
682.018	10.62
682.048	1.62
682.078	2.62
682.109	18.62
682.139	2.62
682.169	-1.38
682.199	2.62
682.23	-11.38
682.26	0.62
682.29	9.62
682.32	-11.38
682.351	-2.38
682.381	-14.38
682.411	6.62
682.441	-7.38
682.472	0.62
682.502	-7.38
682.532	-8.38
682.562	0.62
682.592	5.62
682.623	8.62
682.653	0.62
682.683	-11.38
682.713	9.62
682.743	-1.38
682.774	-2.38
682.804	-4.38
682.834	7.62
682.864	1.62
682.894	0.62
682.925	0.62
682.955	-4.38
682.985	-4.38
683.015	-6.38
683.045	2.62
683.076	-9.38
683.106	-1.38
683.136	3.62
683.166	-15.38
683.196	-10.38
683.226	-1.38
683.257	0.62
683.287	-10.38
683.317	-3.38
683.347	-14.38
683.377	-5.38
683.407	-16.38
683.437	-6.38
683.468	3.62
683.498	-9.38
683.528	-2.38
683.558	10.62
683.588	-7.38
683.618	6.62
683.648	11.62
683.678	16.62
683.708	21.62
683.739	-1.38
683.769	8.62
683.799	0.62
683.829	6.62
683.859	7.62
683.889	7.62
683.919	-6.38
683.949	5.62
683.979	5.62
684.009	1.62
684.039	-7.38
684.07	-0.38
684.1	19.62
684.13	-3.38
684.16	0.62
684.19	-3.38
684.22	-2.38
684.25	-2.38
684.28	-8.38
684.31	18.62
684.34	9.62
684.37	10.62
684.4	-3.38
684.43	-1.38
684.46	3.62
684.49	9.62
684.52	16.62
684.55	14.62
684.58	0.62
684.61	-3.38
684.64	11.62
684.67	11.62
684.7	-10.38
684.73	22.62
684.76	-4.38
684.79	4.62
684.82	-5.38
684.85	-24.38
684.88	4.62
684.91	-1.38
684.94	1.62
684.97	-12.38
685	-3.38
685.03	-15.38
685.06	-4.38
685.09	-6.38
685.12	0.62
685.15	-13.38
685.18	13.62
685.21	5.62
685.24	5.62
685.27	16.62
685.3	6.62
685.33	-7.38
685.36	-9.38
685.39	2.62
685.42	-1.38
685.45	2.62
685.48	-0.38
685.51	-8.38
685.54	3.62
685.569	-8.38
685.599	-5.38
685.629	-10.38
685.659	-13.38
685.689	-2.38
685.719	1.62
685.749	-6.38
685.779	4.62
685.809	9.62
685.839	2.62
685.869	-1.38
685.898	19.62
685.928	9.62
685.958	2.62
685.988	8.62
686.018	-12.38
686.048	-6.38
686.078	16.62
686.108	6.62
686.137	-1.38
686.167	13.62
686.197	-9.38
686.227	-2.38
686.257	12.62
686.287	33.62
686.317	2.62
686.346	3.62
686.376	-7.38
686.406	-10.38
686.436	5.62
686.466	-8.38
686.496	7.62
686.525	2.62
686.555	-14.38
686.585	15.62
686.615	25.62
686.645	5.62
686.675	13.62
686.704	-1.38
686.734	-1.38
686.764	7.62
686.794	2.62
686.824	7.62
686.853	8.62
686.883	21.62
686.913	24.62
686.943	4.62
686.973	9.62
687.002	1.62
687.032	7.62
687.062	4.62
687.092	16.62
687.121	-11.38
687.151	-4.38
687.181	-7.38
687.211	5.62
687.24	-2.38
687.27	-2.38
687.3	-15.38
687.33	-6.38
687.359	-16.38
687.389	3.62
687.419	-4.38
687.449	3.62
687.478	7.62
687.508	2.62
687.538	11.62
687.568	2.62
687.597	9.62
687.627	-9.38
687.657	-0.38
687.686	-5.38
687.716	8.62
687.746	2.62
687.776	9.62
687.805	15.62
687.835	1.62
687.865	23.62
687.894	17.62
687.924	4.62
687.954	-17.38
687.983	-3.38
688.013	14.62
688.043	4.62
688.072	-1.38
688.102	-10.38
688.132	16.62
688.161	8.62
688.191	-8.38
688.221	20.62
688.25	-12.38
688.28	17.62
688.31	4.62
688.339	-1.38
688.369	1.62
688.399	-12.38
688.428	-8.38
688.458	2.62
688.488	-14.38
688.517	8.62
688.547	-19.38
688.576	20.62
688.606	10.62
688.636	1.62
688.665	1.62
688.695	16.62
688.725	15.62
688.754	17.62
688.784	14.62
688.813	17.62
688.843	-3.38
688.873	1.62
688.902	-16.38
688.932	-1.38
688.961	2.62
688.991	9.62
689.02	5.62
689.05	1.62
689.08	18.62
689.109	26.62
689.139	0.62
689.168	9.62
689.198	12.62
689.227	0.62
689.257	0.62
689.287	22.62
689.316	-7.38
689.346	-5.38
689.375	-0.38
689.405	9.62
689.434	-13.38
689.464	-8.38
689.493	5.62
689.523	-9.38
689.552	-10.38
689.582	-3.38
689.611	-10.38
689.641	12.62
689.67	13.62
689.7	15.62
689.73	14.62
689.759	9.62
689.789	15.62
689.818	1.62
689.848	3.62
689.877	24.62
689.906	10.62
689.936	-9.38
689.965	-4.38
689.995	17.62
690.024	13.62
690.054	-12.38
690.083	1.62
690.113	-6.38
690.142	0.62
690.172	5.62
690.201	4.62
690.231	-10.38
690.26	22.62
690.29	9.62
690.319	14.62
690.348	-5.38
690.378	3.62
690.407	-5.38
690.437	-3.38
690.466	-6.38
690.496	-12.38
690.525	10.62
690.555	1.62
690.584	-15.38
690.613	-3.38
690.643	12.62
690.672	-0.38
690.702	-1.38
690.731	4.62
690.76	22.62
690.79	47.62
690.819	50.62
690.849	40.62
690.878	34.62
690.907	18.62
690.937	32.62
690.966	19.62
690.996	4.62
691.025	11.62
691.054	12.62
691.084	11.62
691.113	-5.38
691.142	8.62
691.172	8.62
691.201	23.62
691.23	7.62
691.26	10.62
691.289	17.62
691.319	-0.38
691.348	2.62
691.377	2.62
691.407	-8.38
691.436	-3.38
691.465	-3.38
691.495	2.62
691.524	-2.38
691.553	-7.38
691.583	2.62
691.612	33.62
691.641	-3.38
691.67	-2.38
691.7	10.62
691.729	-14.38
691.758	0.62
691.788	-2.38
691.817	0.62
691.846	-1.38
691.876	-9.38
691.905	1.62
691.934	-15.38
691.963	13.62
691.993	2.62
692.022	-13.38
692.051	5.62
692.081	10.62
692.11	17.62
692.139	-1.38
692.168	-1.38
692.198	17.62
692.227	10.62
692.256	11.62
692.285	-5.38
692.315	-7.38
692.344	3.62
692.373	1.62
692.402	-5.38
692.432	-10.38
692.461	2.62
692.49	7.62
692.519	9.62
692.548	21.62
692.578	21.62
692.607	-2.38
692.636	-10.38
692.665	9.62
692.694	-3.38
692.724	9.62
692.753	2.62
692.782	19.62
692.811	-1.38
692.84	-3.38
692.87	-4.38
692.899	0.62
692.928	9.62
692.957	11.62
692.986	-3.38
693.016	3.62
693.045	7.62
693.074	13.62
693.103	-7.38
693.132	3.62
693.161	15.62
693.191	-5.38
693.22	-18.38
693.249	7.62
693.278	0.62
693.307	19.62
693.336	-26.38
693.365	-13.38
693.395	-7.38
693.424	15.62
693.453	31.62
693.482	-2.38
693.511	8.62
693.54	22.62
693.569	15.62
693.598	-2.38
693.628	21.62
693.657	23.62
693.686	14.62
693.715	-0.38
693.744	7.62
693.773	5.62
693.802	1.62
693.831	6.62
693.86	19.62
693.889	-1.38
693.919	4.62
693.948	22.62
693.977	0.62
694.006	10.62
694.035	-6.38
694.064	-0.38
694.093	-1.38
694.122	-6.38
694.151	2.62
694.18	17.62
694.209	20.62
694.238	4.62
694.267	17.62
694.296	1.62
694.325	23.62
694.354	11.62
694.383	8.62
694.412	9.62
694.441	-3.38
694.471	-6.38
694.5	-7.38
694.529	8.62
694.558	33.62
694.587	21.62
694.616	0.62
694.645	8.62
694.674	20.62
694.703	16.62
694.732	-2.38
694.761	17.62
694.79	17.62
694.819	-6.38
694.848	-3.38
694.877	25.62
694.906	14.62
694.935	-1.38
694.963	19.62
694.992	10.62
695.021	12.62
695.05	11.62
695.079	10.62
695.108	4.62
695.137	13.62
695.166	8.62
695.195	6.62
695.224	2.62
695.253	-0.38
695.282	12.62
695.311	7.62
695.34	6.62
695.369	3.62
695.398	13.62
695.427	19.62
695.456	4.62
695.485	-2.38
695.513	2.62
695.542	6.62
695.571	1.62
695.6	20.62
695.629	6.62
695.658	17.62
695.687	16.62
695.716	13.62
695.745	34.62
695.774	-11.38
695.802	-19.38
695.831	-8.38
695.86	2.62
695.889	9.62
695.918	12.62
695.947	-4.38
695.976	4.62
696.005	16.62
696.033	17.62
696.062	12.62
696.091	-1.38
696.12	-2.38
696.149	22.62
696.178	13.62
696.207	2.62
696.235	2.62
696.264	4.62
696.293	0.62
696.322	6.62
696.351	8.62
696.38	-1.38
696.408	10.62
696.437	-19.38
696.466	13.62
696.495	12.62
696.524	8.62
696.553	28.62
696.581	16.62
696.61	2.62
696.639	4.62
696.668	3.62
696.697	-2.38
696.725	12.62
696.754	18.62
696.783	-13.38
696.812	-4.38
696.84	12.62
696.869	8.62
696.898	13.62
696.927	-15.38
696.956	19.62
696.984	-3.38
697.013	-9.38
697.042	6.62
697.071	21.62
697.099	13.62
697.128	5.62
697.157	-17.38
697.186	6.62
697.214	1.62
697.243	-3.38
697.272	-8.38
697.301	5.62
697.329	3.62
697.358	-5.38
697.387	24.62
697.415	8.62
697.444	10.62
697.473	9.62
697.502	4.62
697.53	27.62
697.559	21.62
697.588	11.62
697.616	7.62
697.645	7.62
697.674	16.62
697.703	-2.38
697.731	23.62
697.76	21.62
697.789	2.62
697.817	-1.38
697.846	7.62
697.875	11.62
697.903	13.62
697.932	14.62
697.961	3.62
697.989	0.62
698.018	-3.38
698.047	-3.38
698.075	12.62
698.104	10.62
698.133	-9.38
698.161	-13.38
698.19	21.62
698.218	-2.38
698.247	3.62
698.276	-1.38
698.304	8.62
698.333	2.62
698.362	5.62
698.39	3.62
698.419	27.62
698.447	6.62
698.476	3.62
698.505	13.62
698.533	16.62
698.562	4.62
698.591	-0.38
698.619	-20.38
698.648	2.62
698.676	-2.38
698.705	0.62
698.733	-8.38
698.762	-2.38
698.791	9.62
698.819	12.62
698.848	9.62
698.876	21.62
698.905	9.62
698.933	12.62
698.962	7.62
698.991	-11.38
699.019	4.62
699.048	-9.38
699.076	-0.38
699.105	-13.38
699.133	4.62
699.162	3.62
699.19	9.62
699.219	9.62
699.248	6.62
699.276	-3.38
699.305	-6.38
699.333	7.62
699.362	1.62
699.39	8.62
699.419	-6.38
699.447	1.62
699.476	8.62
699.504	-2.38
699.533	-3.38
699.561	-17.38
699.59	2.62
699.618	2.62
699.647	7.62
699.675	-9.38
699.704	9.62
699.732	-2.38
699.761	9.62
699.789	4.62
699.818	6.62
699.846	-6.38
699.874	5.62
699.903	-13.38
699.931	-6.38
699.96	6.62
699.988	7.62
700.017	-7.38
700.045	7.62
700.074	-3.38
700.102	-0.38
700.13	-14.38
700.159	-14.38
700.187	-2.38
700.216	-1.38
700.244	-10.38
700.273	3.62
700.301	-2.38
700.329	-1.38
700.358	24.62
700.386	9.62
700.415	4.62
700.443	-14.38
700.472	-6.38
700.5	-2.38
700.528	8.62
700.557	7.62
700.585	-6.38
700.614	-5.38
700.642	21.62
700.67	29.62
700.699	10.62
700.727	1.62
700.755	4.62
700.784	0.62
700.812	-3.38
700.841	5.62
700.869	14.62
700.897	0.62
700.926	-2.38
700.954	-2.38
700.982	-7.38
701.011	-12.38
701.039	7.62
701.067	-9.38
701.096	-1.38
701.124	-6.38
701.152	-0.38
701.181	-7.38
701.209	-8.38
701.237	3.62
701.266	2.62
701.294	-3.38
701.322	-3.38
701.351	21.62
701.379	6.62
701.407	1.62
701.435	11.62
701.464	9.62
701.492	22.62
701.52	3.62
701.549	-3.38
701.577	-6.38
701.605	-6.38
701.634	-3.38
701.662	11.62
701.69	-6.38
701.718	-11.38
701.747	10.62
701.775	-7.38
701.803	-9.38
701.831	19.62
701.86	2.62
701.888	10.62
701.916	-1.38
701.944	-1.38
701.973	-3.38
702.001	-15.38
702.029	-13.38
702.057	3.62
702.086	-13.38
702.114	-16.38
702.142	-2.38
702.17	2.62
702.199	10.62
702.227	-3.38
702.255	6.62
702.283	-4.38
702.311	6.62
702.34	10.62
702.368	-2.38
702.396	-7.38
702.424	0.62
702.452	1.62
702.481	-7.38
702.509	-2.38
702.537	16.62
702.565	13.62
702.593	-21.38
702.621	0.62
702.65	3.62
702.678	7.62
702.706	8.62
702.734	-12.38
702.762	-8.38
702.79	-4.38
702.819	-11.38
702.847	1.62
702.875	18.62
702.903	23.62
702.931	9.62
702.959	11.62
702.988	12.62
703.016	-5.38
703.044	18.62
703.072	-7.38
703.1	-13.38
703.128	-4.38
703.156	-3.38
703.184	-3.38
703.212	9.62
703.241	6.62
703.269	-8.38
703.297	-2.38
703.325	7.62
703.353	-6.38
703.381	-5.38
703.409	-0.38
703.437	9.62
703.465	11.62
703.493	-13.38
703.522	15.62
703.55	0.62
703.578	2.62
703.606	-2.38
703.634	-4.38
703.662	-13.38
703.69	-3.38
703.718	0.62
703.746	20.62
703.774	5.62
703.802	8.62
703.83	2.62
703.858	0.62
703.886	-2.38
703.914	-0.38
703.942	13.62
703.97	-3.38
703.998	9.62
704.027	28.62
704.055	16.62
704.083	-10.38
704.111	-2.38
704.139	7.62
704.167	2.62
704.195	15.62
704.223	1.62
704.251	4.62
704.279	10.62
704.307	5.62
704.335	0.62
704.363	9.62
704.391	-9.38
704.419	-5.38
704.447	-5.38
704.475	-1.38
704.503	5.62
704.531	10.62
704.558	14.62
704.586	8.62
704.614	-5.38
704.642	-2.38
704.67	-6.38
704.698	-10.38
704.726	1.62
704.754	-1.38
704.782	2.62
704.81	-8.38
704.838	11.62
704.866	10.62
704.894	-8.38
704.922	-11.38
704.95	3.62
704.978	1.62
705.006	4.62
705.034	8.62
705.061	-6.38
705.089	-10.38
705.117	-14.38
705.145	-7.38
705.173	2.62
705.201	-1.38
705.229	-1.38
705.257	8.62
705.285	8.62
705.313	9.62
705.34	-1.38
705.368	11.62
705.396	18.62
705.424	-2.38
705.452	-14.38
705.48	-5.38
705.508	-2.38
705.536	1.62
705.563	-5.38
705.591	19.62
705.619	2.62
705.647	-10.38
705.675	9.62
705.703	9.62
705.731	12.62
705.758	10.62
705.786	-0.38
705.814	13.62
705.842	6.62
705.87	19.62
705.898	15.62
705.925	-5.38
705.953	5.62
705.981	-5.38
706.009	-5.38
706.037	-5.38
706.065	6.62
706.092	-7.38
706.12	-5.38
706.148	-13.38
706.176	10.62
706.204	-5.38
706.231	-12.38
706.259	-14.38
706.287	-13.38
706.315	-2.38
706.342	11.62
706.37	18.62
706.398	4.62
706.426	4.62
706.454	4.62
706.481	15.62
706.509	-5.38
706.537	-3.38
706.565	-12.38
706.592	-5.38
706.62	4.62
706.648	9.62
706.676	-6.38
706.703	5.62
706.731	-1.38
706.759	1.62
706.787	4.62
706.814	8.62
706.842	7.62
706.87	2.62
706.897	2.62
706.925	4.62
706.953	11.62
706.981	8.62
707.008	5.62
707.036	14.62
707.064	5.62
707.091	-20.38
707.119	15.62
707.147	14.62
707.174	-12.38
707.202	-5.38
707.23	-3.38
707.258	9.62
707.285	0.62
707.313	3.62
707.341	-10.38
707.368	-13.38
707.396	9.62
707.424	24.62
707.451	14.62
707.479	9.62
707.507	7.62
707.534	-3.38
707.562	-6.38
707.59	0.62
707.617	-7.38
707.645	-1.38
707.672	-0.38
707.7	-8.38
707.728	-0.38
707.755	-13.38
707.783	-0.38
707.811	-1.38
707.838	-7.38
707.866	16.62
707.893	-1.38
707.921	12.62
707.949	-5.38
707.976	5.62
708.004	-1.38
708.031	-15.38
708.059	-16.38
708.087	7.62
708.114	9.62
708.142	-12.38
708.169	1.62
708.197	-4.38
708.225	2.62
708.252	24.62
708.28	15.62
708.307	15.62
708.335	1.62
708.362	-5.38
708.39	5.62
708.418	0.62
708.445	8.62
708.473	-11.38
708.5	-15.38
708.528	7.62
708.555	-2.38
708.583	-0.38
708.61	2.62
708.638	3.62
708.665	0.62
708.693	6.62
708.72	-16.38
708.748	-0.38
708.776	-6.38
708.803	24.62
708.831	14.62
708.858	4.62
708.886	-5.38
708.913	3.62
708.941	-4.38
708.968	5.62
708.996	8.62
709.023	29.62
709.051	-3.38
709.078	0.62
709.105	-4.38
709.133	5.62
709.16	-3.38
709.188	6.62
709.215	-3.38
709.243	11.62
709.27	-7.38
709.298	-7.38
709.325	-11.38
709.353	-2.38
709.38	6.62
709.408	2.62
709.435	2.62
709.462	8.62
709.49	1.62
709.517	4.62
709.545	14.62
709.572	4.62
709.6	-10.38
709.627	8.62
709.655	-11.38
709.682	-1.38
709.709	-3.38
709.737	1.62
709.764	-13.38
709.792	11.62
709.819	-14.38
709.846	-22.38
709.874	-19.38
709.901	-1.38
709.929	8.62
709.956	10.62
709.983	-7.38
710.011	9.62
710.038	-3.38
710.066	6.62
710.093	12.62
710.12	13.62
710.148	-1.38
710.175	-10.38
710.202	-9.38
710.23	13.62
710.257	-0.38
710.284	-4.38
710.312	-7.38
710.339	-5.38
710.366	4.62
710.394	-2.38
710.421	-1.38
710.448	-19.38
710.476	-14.38
710.503	1.62
710.53	12.62
710.558	11.62
710.585	-6.38
710.612	-1.38
710.64	-6.38
710.667	-9.38
710.694	-5.38
710.722	3.62
710.749	4.62
710.776	10.62
710.804	24.62
710.831	-3.38
710.858	-8.38
710.885	-2.38
710.913	4.62
710.94	25.62
710.967	-2.38
710.995	8.62
711.022	8.62
711.049	6.62
711.076	-3.38
711.104	-11.38
711.131	-19.38
711.158	8.62
711.185	17.62
711.213	-17.38
711.24	-12.38
711.267	-6.38
711.294	-0.38
711.322	7.62
711.349	-12.38
711.376	-10.38
711.403	7.62
711.431	-11.38
711.458	-2.38
711.485	-7.38
711.512	0.62
711.54	5.62
711.567	3.62
711.594	-6.38
711.621	-7.38
711.648	2.62
711.676	-2.38
711.703	4.62
711.73	-32.38
711.757	-0.38
711.784	1.62
711.812	-7.38
711.839	0.62
711.866	-0.38
711.893	1.62
711.92	6.62
711.947	10.62
711.975	9.62
712.002	2.62
712.029	9.62
712.056	-9.38
712.083	17.62
712.11	-22.38
712.138	11.62
712.165	15.62
712.192	5.62
712.219	-9.38
712.246	-2.38
712.273	-4.38
712.3	-17.38
712.328	2.62
712.355	-6.38
712.382	-13.38
712.409	16.62
712.436	-24.38
712.463	5.62
712.49	2.62
712.517	1.62
712.544	1.62
712.572	-11.38
712.599	-8.38
712.626	2.62
712.653	1.62
712.68	-8.38
712.707	-0.38
712.734	14.62
712.761	5.62
712.788	4.62
712.815	15.62
712.842	23.62
712.87	-4.38
712.897	-10.38
712.924	-6.38
712.951	9.62
712.978	14.62
713.005	13.62
713.032	13.62
713.059	-0.38
713.086	-6.38
713.113	-5.38
713.14	-7.38
713.167	-0.38
713.194	7.62
713.221	-10.38
713.248	-3.38
713.275	1.62
713.302	4.62
713.329	1.62
713.356	8.62
713.383	7.62
713.41	13.62
713.437	-15.38
713.464	9.62
713.491	25.62
713.518	4.62
713.545	-12.38
713.572	-8.38
713.599	26.62
713.626	-0.38
713.653	1.62
713.68	-5.38
713.707	-3.38
713.734	-2.38
713.761	-6.38
713.788	-5.38
713.815	-10.38
713.842	-6.38
713.869	4.62
713.896	-5.38
713.923	8.62
713.95	1.62
713.977	-8.38
714.004	13.62
714.031	1.62
714.058	0.62
714.085	-6.38
714.112	6.62
714.139	-3.38
714.165	-7.38
714.192	-5.38
714.219	3.62
714.246	3.62
714.273	2.62
714.3	-3.38
714.327	10.62
714.354	6.62
714.381	-5.38
714.408	1.62
714.435	-3.38
714.461	-0.38
714.488	12.62
714.515	-12.38
714.542	0.62
714.569	-1.38
714.596	-3.38
714.623	-1.38
714.65	-4.38
714.677	6.62
714.703	-5.38
714.73	-8.38
714.757	15.62
714.784	0.62
714.811	-13.38
714.838	5.62
714.865	2.62
714.891	13.62
714.918	8.62
714.945	-7.38
714.972	0.62
714.999	21.62
715.026	-13.38
715.052	10.62
715.079	3.62
715.106	-2.38
715.133	-5.38
715.16	-2.38
715.187	5.62
715.213	20.62
715.24	6.62
715.267	4.62
715.294	6.62
715.321	1.62
715.347	-7.38
715.374	-7.38
715.401	-10.38
715.428	6.62
715.455	2.62
715.481	1.62
715.508	18.62
715.535	-4.38
715.562	16.62
715.588	-2.38
715.615	-1.38
715.642	-1.38
715.669	16.62
715.695	7.62
715.722	0.62
715.749	6.62
715.776	2.62
715.802	13.62
715.829	-6.38
715.856	-22.38
715.883	0.62
715.909	-3.38
715.936	-0.38
715.963	13.62
715.99	3.62
716.016	4.62
716.043	7.62
716.07	-17.38
716.096	-9.38
716.123	-3.38
716.15	8.62
716.177	17.62
716.203	17.62
716.23	-2.38
716.257	-1.38
716.283	-2.38
716.31	5.62
716.337	-1.38
716.363	-2.38
716.39	3.62
716.417	14.62
716.443	-0.38
716.47	5.62
716.497	6.62
716.523	4.62
716.55	0.62
716.577	8.62
716.603	13.62
716.63	7.62
716.657	14.62
716.683	-0.38
716.71	-7.38
716.737	0.62
716.763	17.62
716.79	-0.38
716.817	5.62
716.843	9.62
716.87	13.62
716.897	11.62
716.923	12.62
716.95	7.62
716.976	-5.38
717.003	8.62
717.03	-5.38
717.056	6.62
717.083	-1.38
717.109	17.62
717.136	9.62
717.163	9.62
717.189	7.62
717.216	5.62
717.242	5.62
717.269	-3.38
717.296	-6.38
717.322	8.62
717.349	25.62
717.375	8.62
717.402	3.62
717.428	-1.38
717.455	4.62
717.481	3.62
717.508	16.62
717.535	0.62
717.561	2.62
717.588	9.62
717.614	-3.38
717.641	2.62
717.667	0.62
717.694	12.62
717.72	-3.38
717.747	11.62
717.773	-10.38
717.8	5.62
717.826	10.62
717.853	5.62
717.88	10.62
717.906	4.62
717.933	11.62
717.959	8.62
717.986	5.62
718.012	3.62
718.039	10.62
718.065	14.62
718.092	-5.38
718.118	-7.38
718.144	-9.38
718.171	5.62
718.197	14.62
718.224	0.62
718.25	8.62
718.277	-8.38
718.303	6.62
718.33	10.62
718.356	-8.38
718.383	-11.38
718.409	7.62
718.436	-0.38
718.462	2.62
718.489	-1.38
718.515	26.62
718.541	5.62
718.568	9.62
718.594	6.62
718.621	1.62
718.647	1.62
718.674	5.62
718.7	18.62
718.726	2.62
718.753	3.62
718.779	14.62
718.806	4.62
718.832	-7.38
718.858	-8.38
718.885	3.62
718.911	1.62
718.938	-8.38
718.964	-9.38
718.99	17.62
719.017	8.62
719.043	-2.38
719.07	5.62
719.096	-5.38
719.122	9.62
719.149	-1.38
719.175	5.62
719.201	2.62
719.228	-0.38
719.254	9.62
719.281	-5.38
719.307	-2.38
719.333	1.62
719.36	8.62
719.386	4.62
719.412	3.62
719.439	0.62
719.465	5.62
719.491	-3.38
719.518	9.62
719.544	0.62
719.57	14.62
719.597	10.62
719.623	1.62
719.649	16.62
719.675	14.62
719.702	18.62
719.728	17.62
719.754	-11.38
719.781	-22.38
719.807	9.62
719.833	3.62
719.86	2.62
719.886	-1.38
719.912	-5.38
719.938	-2.38
719.965	-7.38
719.991	6.62
720.017	5.62
720.044	0.62
720.07	-3.38
720.096	4.62
720.122	0.62
720.149	5.62
720.175	21.62
720.201	24.62
720.227	1.62
720.254	-7.38
720.28	-7.38
720.306	-8.38
720.332	14.62
720.359	-6.38
720.385	-4.38
720.411	-6.38
720.437	2.62
720.463	-2.38
720.49	13.62
720.516	-7.38
720.542	-16.38
720.568	5.62
720.595	24.62
720.621	12.62
720.647	8.62
720.673	18.62
720.699	4.62
720.725	-2.38
720.752	10.62
720.778	9.62
720.804	1.62
720.83	12.62
720.856	5.62
720.883	0.62
720.909	11.62
720.935	16.62
720.961	13.62
720.987	2.62
721.013	10.62
721.04	4.62
721.066	-0.38
721.092	2.62
721.118	12.62
721.144	0.62
721.17	-2.38
721.196	8.62
721.223	4.62
721.249	5.62
721.275	16.62
721.301	3.62
721.327	7.62
721.353	12.62
721.379	20.62
721.405	21.62
721.432	2.62
721.458	1.62
721.484	15.62
721.51	-5.38
721.536	7.62
721.562	9.62
721.588	-1.38
721.614	-2.38
721.64	-9.38
721.666	-4.38
721.693	1.62
721.719	16.62
721.745	-17.38
721.771	1.62
721.797	14.62
721.823	18.62
721.849	17.62
721.875	2.62
721.901	-6.38
721.927	-2.38
721.953	-4.38
721.979	8.62
722.005	3.62
722.031	-1.38
722.057	20.62
722.083	-3.38
722.109	-3.38
722.135	4.62
722.161	4.62
722.187	-3.38
722.214	8.62
722.24	10.62
722.266	-6.38
722.292	26.62
722.318	23.62
722.344	5.62
722.37	5.62
722.396	-3.38
722.422	-4.38
722.448	0.62
722.474	-12.38
722.5	8.62
722.526	-5.38
722.552	10.62
722.578	-5.38
722.603	13.62
722.629	-0.38
722.655	6.62
722.681	0.62
722.707	11.62
722.733	-12.38
722.759	-17.38
722.785	11.62
722.811	-2.38
722.837	8.62
722.863	14.62
722.889	12.62
722.915	9.62
722.941	4.62
722.967	10.62
722.993	8.62
723.019	5.62
723.045	2.62
723.071	-0.38
723.097	0.62
723.122	7.62
723.148	4.62
723.174	3.62
723.2	8.62
723.226	-2.38
723.252	5.62
723.278	-5.38
723.304	-3.38
723.33	9.62
723.356	-6.38
723.381	-8.38
723.407	-14.38
723.433	3.62
723.459	-1.38
723.485	0.62
723.511	8.62
723.537	3.62
723.563	-5.38
723.588	5.62
723.614	16.62
723.64	14.62
723.666	-2.38
723.692	16.62
723.718	-6.38
723.744	5.62
723.769	0.62
723.795	-4.38
723.821	-2.38
723.847	6.62
723.873	-6.38
723.899	1.62
723.924	-6.38
723.95	-7.38
723.976	-13.38
724.002	2.62
724.028	10.62
724.053	5.62
724.079	-15.38
724.105	-1.38
724.131	-6.38
724.157	-0.38
724.182	10.62
724.208	-6.38
724.234	1.62
724.26	5.62
724.286	20.62
724.311	8.62
724.337	-0.38
724.363	1.62
724.389	17.62
724.415	0.62
724.44	7.62
724.466	-7.38
724.492	4.62
724.518	2.62
724.543	1.62
724.569	-7.38
724.595	21.62
724.621	5.62
724.646	6.62
724.672	-6.38
724.698	-5.38
724.723	-10.38
724.749	-0.38
724.775	10.62
724.801	9.62
724.826	-6.38
724.852	-1.38
724.878	-3.38
724.904	-15.38
724.929	5.62
724.955	-5.38
724.981	19.62
725.006	-5.38
725.032	1.62
725.058	26.62
725.083	6.62
725.109	-3.38
725.135	-8.38
725.161	-3.38
725.186	-6.38
725.212	1.62
725.238	7.62
725.263	-6.38
725.289	-23.38
725.315	-16.38
725.34	-7.38
725.366	11.62
725.392	9.62
725.417	4.62
725.443	0.62
725.468	-2.38
725.494	0.62
725.52	7.62
725.545	-13.38
725.571	1.62
725.597	1.62
725.622	-2.38
725.648	7.62
725.674	5.62
725.699	-10.38
725.725	9.62
725.75	26.62
725.776	-6.38
725.802	3.62
725.827	12.62
725.853	13.62
725.878	5.62
725.904	9.62
725.93	3.62
725.955	-2.38
725.981	-7.38
726.006	-7.38
726.032	7.62
726.057	-9.38
726.083	-14.38
726.109	1.62
726.134	4.62
726.16	-9.38
726.185	-2.38
726.211	-4.38
726.236	-3.38
726.262	-11.38
726.288	-6.38
726.313	12.62
726.339	6.62
726.364	-0.38
726.39	-3.38
726.415	7.62
726.441	0.62
726.466	13.62
726.492	1.62
726.517	3.62
726.543	7.62
726.568	-16.38
726.594	-7.38
726.619	2.62
726.645	11.62
726.67	5.62
726.696	1.62
726.721	-4.38
726.747	-19.38
726.772	-6.38
726.798	1.62
726.823	4.62
726.849	-2.38
726.874	0.62
726.9	10.62
726.925	13.62
726.951	-3.38
726.976	10.62
727.002	4.62
727.027	14.62
727.053	13.62
727.078	7.62
727.104	-3.38
727.129	-9.38
727.155	-11.38
727.18	9.62
727.205	0.62
727.231	-9.38
727.256	13.62
727.282	1.62
727.307	11.62
727.333	-7.38
727.358	-13.38
727.383	-0.38
727.409	6.62
727.434	12.62
727.46	-5.38
727.485	-10.38
727.511	10.62
727.536	-13.38
727.561	-10.38
727.587	5.62
727.612	3.62
727.637	1.62
727.663	-15.38
727.688	10.62
727.714	-6.38
727.739	-8.38
727.764	0.62
727.79	14.62
727.815	2.62
727.841	0.62
727.866	-2.38
727.891	-7.38
727.917	-3.38
727.942	-6.38
727.967	-6.38
727.993	-19.38
728.018	-1.38
728.043	-3.38
728.069	10.62
728.094	4.62
728.119	-2.38
728.145	3.62
728.17	-7.38
728.195	14.62
728.221	3.62
728.246	4.62
728.271	-0.38
728.297	-1.38
728.322	1.62
728.347	-8.38
728.373	0.62
728.398	5.62
728.423	-4.38
728.448	5.62
728.474	-6.38
728.499	17.62
728.524	-22.38
728.55	-24.38
728.575	-13.38
728.6	-14.38
728.625	-10.38
728.651	-0.38
728.676	4.62
728.701	-1.38
728.727	14.62
728.752	-6.38
728.777	-2.38
728.802	5.62
728.828	10.62
728.853	-8.38
728.878	0.62
728.903	-10.38
728.929	-9.38
728.954	-5.38
728.979	9.62
729.004	-2.38
729.03	-0.38
729.055	0.62
729.08	0.62
729.105	-2.38
729.13	13.62
729.156	-6.38
729.181	6.62
729.206	-21.38
729.231	-9.38
729.256	12.62
729.282	1.62
729.307	-7.38
729.332	4.62
729.357	-2.38
729.382	-2.38
729.408	-2.38
729.433	-5.38
729.458	-3.38
729.483	6.62
729.508	24.62
729.533	3.62
729.559	1.62
729.584	-11.38
729.609	-1.38
729.634	25.62
729.659	-0.38
729.684	-3.38
729.71	10.62
729.735	1.62
729.76	1.62
729.785	4.62
729.81	8.62
729.835	-5.38
729.86	-4.38
729.886	19.62
729.911	15.62
729.936	-0.38
729.961	12.62
729.986	16.62
730.011	45.62
730.036	216.62
730.061	1002.62
730.086	2656.62
730.112	3374.62
730.137	2816.62
730.162	2083.62
730.187	1637.62
730.212	1266.62
730.237	797.62
730.262	482.62
730.287	241.62
730.312	154.62
730.337	73.62
730.362	47.62
730.387	36.62
730.413	16.62
730.438	6.62
730.463	14.62
730.488	15.62
730.513	3.62
730.538	11.62
730.563	11.62
730.588	23.62
730.613	19.62
730.638	1.62
730.663	3.62
730.688	14.62
730.713	13.62
730.738	8.62
730.763	8.62
730.788	-7.38
730.813	10.62
730.838	2.62
730.863	-9.38
730.888	2.62
730.913	-8.38
730.938	1.62
730.963	26.62
730.988	120.62
731.013	404.62
731.038	634.62
731.063	607.62
731.088	474.62
731.113	354.62
731.138	256.62
731.163	192.62
731.188	108.62
731.213	57.62
731.238	45.62
731.263	24.62
731.288	13.62
731.313	20.62
731.338	10.62
731.363	3.62
731.388	-3.38
731.413	2.62
731.438	17.62
731.463	2.62
731.487	9.62
731.512	3.62
731.537	-18.38
731.562	-12.38
731.587	-3.38
731.612	0.62
731.637	-5.38
731.662	12.62
731.687	-4.38
731.712	-26.38
731.737	0.62
731.762	0.62
731.786	-2.38
731.811	0.62
731.836	-6.38
731.861	-5.38
731.886	-6.38
731.911	11.62
731.936	10.62
731.961	-2.38
731.986	-13.38
732.01	-3.38
732.035	11.62
732.06	4.62
732.085	-1.38
732.11	8.62
732.135	-11.38
732.16	6.62
732.184	0.62
732.209	3.62
732.234	9.62
732.259	-0.38
732.284	1.62
732.309	-17.38
732.334	-1.38
732.358	-14.38
732.383	-10.38
732.408	-7.38
732.433	8.62
732.458	-0.38
732.482	-7.38
732.507	1.62
732.532	2.62
732.557	14.62
732.582	5.62
732.607	36.62
732.631	45.62
732.656	72.62
732.681	146.62
732.706	348.62
732.73	477.62
732.755	398.62
732.78	291.62
732.805	247.62
732.83	177.62
732.854	112.62
732.879	98.62
732.904	40.62
732.929	26.62
732.953	9.62
732.978	13.62
733.003	-2.38
733.028	-1.38
733.052	22.62
733.077	2.62
733.102	-3.38
733.127	-13.38
733.151	-10.38
733.176	2.62
733.201	-6.38
733.226	-22.38
733.25	2.62
733.275	-14.38
733.3	1.62
733.324	18.62
733.349	6.62
733.374	13.62
733.399	-1.38
733.423	-6.38
733.448	-8.38
733.473	-11.38
733.497	0.62
733.522	-11.38
733.547	11.62
733.571	6.62
733.596	-0.38
733.621	8.62
733.646	-2.38
733.67	9.62
733.695	-4.38
733.72	-9.38
733.744	6.62
733.769	-2.38
733.794	15.62
733.818	3.62
733.843	0.62
733.867	-6.38
733.892	-7.38
733.917	-1.38
733.941	13.62
733.966	1.62
733.991	0.62
734.015	9.62
734.04	0.62
734.065	10.62
734.089	9.62
734.114	-13.38
734.138	4.62
734.163	-0.38
734.188	-2.38
734.212	12.62
734.237	11.62
734.261	6.62
734.286	-12.38
734.311	-7.38
734.335	-3.38
734.36	-3.38
734.384	-1.38
734.409	-1.38
734.434	-21.38
734.458	6.62
734.483	4.62
734.507	-7.38
734.532	-15.38
734.556	12.62
734.581	-0.38
734.606	-6.38
734.63	-7.38
734.655	13.62
734.679	4.62
734.704	2.62
734.728	6.62
734.753	1.62
734.777	-5.38
734.802	2.62
734.826	-6.38
734.851	0.62
734.876	7.62
734.9	15.62
734.925	4.62
734.949	17.62
734.974	-1.38
734.998	5.62
735.023	-17.38
735.047	-22.38
735.072	17.62
735.096	0.62
735.121	-6.38
735.145	7.62
735.17	-8.38
735.194	6.62
735.219	2.62
735.243	19.62
735.268	21.62
735.292	-3.38
735.317	-0.38
735.341	-0.38
735.365	-16.38
735.39	28.62
735.414	-6.38
735.439	6.62
735.463	-6.38
735.488	20.62
735.512	-0.38
735.537	7.62
735.561	-0.38
735.586	-3.38
735.61	-6.38
735.634	-17.38
735.659	1.62
735.683	8.62
735.708	-2.38
735.732	7.62
735.757	-12.38
735.781	-2.38
735.805	2.62
735.83	-5.38
735.854	-3.38
735.879	-8.38
735.903	16.62
735.927	6.62
735.952	8.62
735.976	-5.38
736.001	6.62
736.025	0.62
736.049	9.62
736.074	-2.38
736.098	-1.38
736.123	20.62
736.147	-13.38
736.171	8.62
736.196	0.62
736.22	-10.38
736.244	14.62
736.269	10.62
736.293	-18.38
736.317	1.62
736.342	0.62
736.366	11.62
736.39	13.62
736.415	-8.38
736.439	5.62
736.463	11.62
736.488	13.62
736.512	1.62
736.536	19.62
736.561	28.62
736.585	-8.38
736.609	9.62
736.634	-5.38
736.658	-13.38
736.682	-9.38
736.707	-16.38
736.731	-8.38
736.755	-7.38
736.78	13.62
736.804	-2.38
736.828	18.62
736.852	8.62
736.877	-11.38
736.901	6.62
736.925	1.62
736.949	-1.38
736.974	-7.38
736.998	-12.38
737.022	9.62
737.047	-8.38
737.071	-8.38
737.095	17.62
737.119	15.62
737.144	-5.38
737.168	-1.38
737.192	-0.38
737.216	17.62
737.241	-8.38
737.265	-6.38
737.289	0.62
737.313	13.62
737.337	9.62
737.362	-0.38
737.386	-0.38
737.41	-7.38
737.434	1.62
737.459	7.62
737.483	9.62
737.507	2.62
737.531	30.62
737.555	23.62
737.58	21.62
737.604	9.62
737.628	-12.38
737.652	-3.38
737.676	3.62
737.701	2.62
737.725	5.62
737.749	20.62
737.773	4.62
737.797	-3.38
737.821	13.62
737.846	9.62
737.87	33.62
737.894	10.62
737.918	-10.38
737.942	10.62
737.966	22.62
737.99	23.62
738.015	4.62
738.039	13.62
738.063	5.62
738.087	15.62
738.111	6.62
738.135	16.62
738.159	-5.38
738.184	4.62
738.208	6.62
738.232	4.62
738.256	4.62
738.28	-7.38
738.304	12.62
738.328	-7.38
738.352	-0.38
738.376	-8.38
738.4	5.62
738.425	2.62
738.449	-3.38
738.473	29.62
738.497	17.62
738.521	12.62
738.545	16.62
738.569	25.62
738.593	30.62
738.617	6.62
738.641	10.62
738.665	11.62
738.689	3.62
738.713	-7.38
738.737	-2.38
738.762	6.62
738.786	25.62
738.81	-10.38
738.834	3.62
738.858	1.62
738.882	-2.38
738.906	-2.38
738.93	2.62
738.954	3.62
738.978	13.62
739.002	0.62
739.026	-2.38
739.05	2.62
739.074	-11.38
739.098	27.62
739.122	23.62
739.146	8.62
739.17	28.62
739.194	1.62
739.218	0.62
739.242	10.62
739.266	-3.38
739.29	2.62
739.314	14.62
739.338	10.62
739.362	8.62
739.386	11.62
739.41	-9.38
739.434	-6.38
739.458	17.62
739.482	18.62
739.506	22.62
739.53	0.62
739.554	13.62
739.577	-1.38
739.601	13.62
739.625	2.62
739.649	-1.38
739.673	-5.38
739.697	3.62
739.721	11.62
739.745	5.62
739.769	9.62
739.793	13.62
739.817	16.62
739.841	-11.38
739.865	5.62
739.889	-6.38
739.912	6.62
739.936	-1.38
739.96	-1.38
739.984	15.62
740.008	13.62
740.032	-2.38
740.056	-3.38
740.08	2.62
740.104	-3.38
740.127	7.62
740.151	14.62
740.175	16.62
740.199	11.62
740.223	32.62
740.247	9.62
740.271	15.62
740.295	1.62
740.318	-3.38
740.342	-9.38
740.366	13.62
740.39	0.62
740.414	-13.38
740.438	-6.38
740.461	26.62
740.485	11.62
740.509	-8.38
740.533	9.62
740.557	2.62
740.581	-2.38
740.604	-7.38
740.628	-3.38
740.652	11.62
740.676	11.62
740.7	11.62
740.723	8.62
740.747	-9.38
740.771	-7.38
740.795	-18.38
740.819	3.62
740.842	1.62
740.866	19.62
740.89	15.62
740.914	-7.38
740.938	-7.38
740.961	7.62
740.985	4.62
741.009	15.62
741.033	17.62
741.056	7.62
741.08	7.62
741.104	-2.38
741.128	-0.38
741.151	3.62
741.175	13.62
741.199	0.62
741.223	-6.38
741.246	-12.38
741.27	-6.38
741.294	-4.38
741.318	-0.38
741.341	-3.38
741.365	11.62
741.389	7.62
741.413	19.62
741.436	27.62
741.46	7.62
741.484	9.62
741.507	6.62
741.531	28.62
741.555	26.62
741.579	4.62
741.602	13.62
741.626	3.62
741.65	-4.38
741.673	15.62
741.697	4.62
741.721	1.62
741.744	2.62
741.768	-12.38
741.792	15.62
741.815	-2.38
741.839	6.62
741.863	8.62
741.886	14.62
741.91	9.62
741.934	-3.38
741.957	2.62
741.981	5.62
742.005	-5.38
742.028	-9.38
742.052	5.62
742.075	10.62
742.099	16.62
742.123	0.62
742.146	5.62
742.17	10.62
742.194	-0.38
742.217	-9.38
742.241	-18.38
742.264	6.62
742.288	22.62
742.312	8.62
742.335	13.62
742.359	-3.38
742.382	13.62
742.406	7.62
742.43	-19.38
742.453	-13.38
742.477	-11.38
742.5	1.62
742.524	7.62
742.548	-11.38
742.571	0.62
742.595	1.62
742.618	-5.38
742.642	0.62
742.665	11.62
742.689	-6.38
742.712	3.62
742.736	14.62
742.76	-1.38
742.783	0.62
742.807	4.62
742.83	16.62
742.854	6.62
742.877	9.62
742.901	4.62
742.924	-13.38
742.948	6.62
742.971	-0.38
742.995	-3.38
743.018	-15.38
743.042	-3.38
743.065	-2.38
743.089	-12.38
743.112	2.62
743.136	0.62
743.159	-10.38
743.183	-7.38
743.206	15.62
743.23	-10.38
743.253	8.62
743.277	1.62
743.3	4.62
743.324	5.62
743.347	-0.38
743.371	12.62
743.394	1.62
743.418	25.62
743.441	-1.38
743.465	9.62
743.488	17.62
743.512	-10.38
743.535	-1.38
743.558	12.62
743.582	-4.38
743.605	0.62
743.629	-1.38
743.652	6.62
743.676	5.62
743.699	15.62
743.723	13.62
743.746	16.62
743.769	3.62
743.793	7.62
743.816	-11.38
743.84	10.62
743.863	-1.38
743.886	5.62
743.91	10.62
743.933	6.62
743.957	5.62
743.98	16.62
744.003	-3.38
744.027	-2.38
744.05	-10.38
744.074	-5.38
744.097	-12.38
744.12	-21.38
744.144	-14.38
744.167	9.62
744.19	-1.38
744.214	-1.38
744.237	3.62
744.26	15.62
744.284	-8.38
744.307	-1.38
744.331	-1.38
744.354	-15.38
744.377	-2.38
744.401	16.62
744.424	-6.38
744.447	-10.38
744.471	-12.38
