Data from HighRes_mercury_15_13_11_07_2024_HR4C61891__48__15-14-27-986.txt Node

Date: Thu Nov 07 15:14:27 EST 2024
User: crc00042
Spectrometer: HR4C6189
Trigger mode: 4
Integration Time (sec): 1.000000E-1
Scans to average: 1
Electric dark correction enabled: true
Nonlinearity correction enabled: false
Boxcar width: 0
XAxis mode: Wavelengths
Number of Pixels in Spectrum: 3648
>>>>>Begin Spectral Data<<<<<
639.567	-76.46
639.602	-76.46
639.636	-76.46
639.67	-32.46
639.704	-8.46
639.738	-4.46
639.773	9.54
639.807	-26.46
639.841	3.54
639.875	13.54
639.909	-1.46
639.943	-15.46
639.978	-8.46
640.012	9.54
640.046	16.54
640.08	0.54
640.114	-0.46
640.148	3.54
640.182	2.54
640.217	-6.46
640.251	8.54
640.285	10.54
640.319	-13.46
640.353	11.54
640.387	2.54
640.421	2.54
640.455	1.54
640.49	3.54
640.524	13.54
640.558	25.54
640.592	0.54
640.626	8.54
640.66	17.54
640.694	-10.46
640.728	15.54
640.762	9.54
640.796	24.54
640.83	26.54
640.865	18.54
640.899	12.54
640.933	8.54
640.967	-3.46
641.001	15.54
641.035	-8.46
641.069	9.54
641.103	-15.46
641.137	0.54
641.171	-12.46
641.205	7.54
641.239	2.54
641.273	7.54
641.307	11.54
641.341	3.54
641.375	-9.46
641.409	-1.46
641.443	-3.46
641.477	3.54
641.511	9.54
641.545	10.54
641.579	11.54
641.614	0.54
641.648	12.54
641.682	-1.46
641.716	13.54
641.75	39.54
641.784	7.54
641.818	4.54
641.852	6.54
641.886	-6.46
641.919	20.54
641.953	-2.46
641.987	-6.46
642.021	-1.46
642.055	1.54
642.089	-11.46
642.123	1.54
642.157	5.54
642.191	-1.46
642.225	7.54
642.259	10.54
642.293	11.54
642.327	7.54
642.361	5.54
642.395	9.54
642.429	19.54
642.463	11.54
642.497	-2.46
642.531	8.54
642.565	6.54
642.599	25.54
642.633	-11.46
642.666	12.54
642.7	15.54
642.734	23.54
642.768	1.54
642.802	8.54
642.836	4.54
642.87	2.54
642.904	19.54
642.938	12.54
642.972	4.54
643.005	6.54
643.039	19.54
643.073	2.54
643.107	-0.46
643.141	8.54
643.175	0.54
643.209	-11.46
643.243	10.54
643.276	28.54
643.31	-0.46
643.344	-4.46
643.378	-8.46
643.412	10.54
643.446	3.54
643.48	-1.46
643.513	2.54
643.547	12.54
643.581	-18.46
643.615	18.54
643.649	-2.46
643.683	-9.46
643.716	-1.46
643.75	8.54
643.784	2.54
643.818	5.54
643.852	-15.46
643.886	-3.46
643.919	21.54
643.953	1.54
643.987	-0.46
644.021	1.54
644.055	14.54
644.088	-8.46
644.122	-5.46
644.156	-9.46
644.19	15.54
644.224	-1.46
644.257	4.54
644.291	32.54
644.325	2.54
644.359	6.54
644.392	18.54
644.426	7.54
644.46	-0.46
644.494	12.54
644.527	-2.46
644.561	7.54
644.595	-3.46
644.629	-6.46
644.662	-5.46
644.696	17.54
644.73	0.54
644.764	7.54
644.797	5.54
644.831	-4.46
644.865	3.54
644.899	9.54
644.932	28.54
644.966	5.54
645	11.54
645.033	20.54
645.067	6.54
645.101	-6.46
645.135	-0.46
645.168	13.54
645.202	2.54
645.236	10.54
645.269	19.54
645.303	-3.46
645.337	-19.46
645.37	-8.46
645.404	4.54
645.438	15.54
645.471	-4.46
645.505	0.54
645.539	-4.46
645.572	-0.46
645.606	-2.46
645.64	4.54
645.673	23.54
645.707	14.54
645.741	-3.46
645.774	-6.46
645.808	4.54
645.842	-11.46
645.875	4.54
645.909	9.54
645.943	-19.46
645.976	7.54
646.01	7.54
646.043	15.54
646.077	31.54
646.111	2.54
646.144	17.54
646.178	18.54
646.212	-1.46
646.245	2.54
646.279	9.54
646.312	11.54
646.346	3.54
646.38	-12.46
646.413	12.54
646.447	13.54
646.48	5.54
646.514	27.54
646.547	0.54
646.581	-3.46
646.615	-4.46
646.648	-1.46
646.682	-6.46
646.715	0.54
646.749	18.54
646.782	5.54
646.816	-1.46
646.85	6.54
646.883	12.54
646.917	21.54
646.95	4.54
646.984	4.54
647.017	1.54
647.051	3.54
647.084	13.54
647.118	6.54
647.151	1.54
647.185	7.54
647.218	-3.46
647.252	9.54
647.285	-12.46
647.319	-16.46
647.353	17.54
647.386	22.54
647.42	13.54
647.453	4.54
647.487	3.54
647.52	-7.46
647.553	9.54
647.587	8.54
647.62	9.54
647.654	8.54
647.687	13.54
647.721	8.54
647.754	3.54
647.788	-1.46
647.821	8.54
647.855	10.54
647.888	3.54
647.922	23.54
647.955	11.54
647.989	6.54
648.022	-3.46
648.055	21.54
648.089	16.54
648.122	35.54
648.156	18.54
648.189	-23.46
648.223	15.54
648.256	17.54
648.29	5.54
648.323	10.54
648.356	9.54
648.39	17.54
648.423	15.54
648.457	1.54
648.49	12.54
648.523	7.54
648.557	-5.46
648.59	-2.46
648.624	0.54
648.657	14.54
648.69	17.54
648.724	19.54
648.757	23.54
648.791	6.54
648.824	9.54
648.857	11.54
648.891	-5.46
648.924	-14.46
648.957	9.54
648.991	16.54
649.024	22.54
649.057	10.54
649.091	3.54
649.124	27.54
649.158	25.54
649.191	47.54
649.224	2.54
649.258	12.54
649.291	16.54
649.324	-6.46
649.358	5.54
649.391	18.54
649.424	6.54
649.458	6.54
649.491	12.54
649.524	-1.46
649.557	0.54
649.591	-10.46
649.624	9.54
649.657	-2.46
649.691	4.54
649.724	-6.46
649.757	5.54
649.791	-7.46
649.824	9.54
649.857	8.54
649.89	-18.46
649.924	-12.46
649.957	-0.46
649.99	0.54
650.023	3.54
650.057	-11.46
650.09	2.54
650.123	7.54
650.157	4.54
650.19	17.54
650.223	1.54
650.256	-16.46
650.29	9.54
650.323	1.54
650.356	14.54
650.389	1.54
650.423	-15.46
650.456	6.54
650.489	-2.46
650.522	1.54
650.555	15.54
650.589	15.54
650.622	-0.46
650.655	21.54
650.688	8.54
650.721	-2.46
650.755	5.54
650.788	10.54
650.821	9.54
650.854	-13.46
650.887	-20.46
650.921	-4.46
650.954	-0.46
650.987	6.54
651.02	-19.46
651.053	-28.46
651.087	-13.46
651.12	22.54
651.153	11.54
651.186	7.54
651.219	-8.46
651.252	9.54
651.286	8.54
651.319	-9.46
651.352	3.54
651.385	11.54
651.418	1.54
651.451	19.54
651.484	12.54
651.518	-11.46
651.551	15.54
651.584	-8.46
651.617	9.54
651.65	6.54
651.683	25.54
651.716	-17.46
651.749	2.54
651.783	3.54
651.816	-3.46
651.849	-0.46
651.882	1.54
651.915	-14.46
651.948	5.54
651.981	-2.46
652.014	-4.46
652.047	-2.46
652.08	6.54
652.114	0.54
652.147	-20.46
652.18	2.54
652.213	24.54
652.246	9.54
652.279	-1.46
652.312	15.54
652.345	-18.46
652.378	-5.46
652.411	15.54
652.444	-3.46
652.477	-8.46
652.51	-6.46
652.543	8.54
652.576	0.54
652.609	-7.46
652.642	5.54
652.675	19.54
652.709	7.54
652.742	7.54
652.775	4.54
652.808	9.54
652.841	-9.46
652.874	4.54
652.907	3.54
652.94	-3.46
652.973	-24.46
653.006	-8.46
653.039	-7.46
653.072	1.54
653.105	5.54
653.138	-13.46
653.171	-4.46
653.204	-5.46
653.237	13.54
653.27	-6.46
653.303	8.54
653.336	18.54
653.368	6.54
653.401	8.54
653.434	-9.46
653.467	17.54
653.5	-4.46
653.533	-14.46
653.566	-0.46
653.599	4.54
653.632	13.54
653.665	5.54
653.698	-7.46
653.731	-11.46
653.764	9.54
653.797	-2.46
653.83	1.54
653.863	6.54
653.896	-6.46
653.929	6.54
653.961	-9.46
653.994	-14.46
654.027	0.54
654.06	0.54
654.093	7.54
654.126	-8.46
654.159	-5.46
654.192	17.54
654.225	13.54
654.258	6.54
654.29	8.54
654.323	7.54
654.356	8.54
654.389	2.54
654.422	-2.46
654.455	5.54
654.488	-7.46
654.521	-2.46
654.553	-10.46
654.586	6.54
654.619	-2.46
654.652	3.54
654.685	2.54
654.718	6.54
654.751	4.54
654.783	-6.46
654.816	21.54
654.849	6.54
654.882	-12.46
654.915	-14.46
654.948	11.54
654.98	1.54
655.013	-8.46
655.046	-4.46
655.079	1.54
655.112	0.54
655.144	-16.46
655.177	17.54
655.21	25.54
655.243	8.54
655.276	-6.46
655.308	1.54
655.341	1.54
655.374	10.54
655.407	-5.46
655.44	-7.46
655.472	-10.46
655.505	13.54
655.538	-1.46
655.571	16.54
655.603	-2.46
655.636	0.54
655.669	5.54
655.702	-0.46
655.734	-21.46
655.767	-3.46
655.8	7.54
655.833	4.54
655.865	-6.46
655.898	-8.46
655.931	-10.46
655.964	-13.46
655.996	1.54
656.029	16.54
656.062	4.54
656.095	6.54
656.127	6.54
656.16	-3.46
656.193	2.54
656.225	13.54
656.258	-1.46
656.291	12.54
656.324	17.54
656.356	5.54
656.389	13.54
656.422	17.54
656.454	-1.46
656.487	-8.46
656.52	2.54
656.552	10.54
656.585	-6.46
656.618	21.54
656.65	14.54
656.683	-8.46
656.716	17.54
656.748	6.54
656.781	-9.46
656.814	3.54
656.846	5.54
656.879	0.54
656.912	7.54
656.944	-1.46
656.977	-4.46
657.01	8.54
657.042	27.54
657.075	17.54
657.108	-4.46
657.14	4.54
657.173	7.54
657.205	41.54
657.238	19.54
657.271	4.54
657.303	-21.46
657.336	2.54
657.369	-4.46
657.401	8.54
657.434	8.54
657.466	7.54
657.499	-8.46
657.532	-14.46
657.564	19.54
657.597	-8.46
657.629	10.54
657.662	9.54
657.694	-1.46
657.727	-17.46
657.76	10.54
657.792	2.54
657.825	1.54
657.857	-3.46
657.89	-3.46
657.922	0.54
657.955	-9.46
657.987	14.54
658.02	6.54
658.053	12.54
658.085	19.54
658.118	11.54
658.15	13.54
658.183	17.54
658.215	5.54
658.248	12.54
658.28	0.54
658.313	1.54
658.345	6.54
658.378	-0.46
658.41	13.54
658.443	7.54
658.475	3.54
658.508	2.54
658.54	-10.46
658.573	0.54
658.605	4.54
658.638	9.54
658.67	1.54
658.703	-10.46
658.735	-27.46
658.768	-6.46
658.8	-7.46
658.833	18.54
658.865	15.54
658.898	3.54
658.93	-1.46
658.963	-4.46
658.995	-12.46
659.028	3.54
659.06	1.54
659.092	1.54
659.125	-5.46
659.157	8.54
659.19	-13.46
659.222	1.54
659.255	-8.46
659.287	4.54
659.32	-0.46
659.352	5.54
659.384	4.54
659.417	-14.46
659.449	10.54
659.482	14.54
659.514	5.54
659.546	2.54
659.579	-16.46
659.611	14.54
659.644	19.54
659.676	10.54
659.708	-5.46
659.741	-16.46
659.773	6.54
659.806	8.54
659.838	8.54
659.87	-10.46
659.903	-10.46
659.935	3.54
659.967	15.54
660	5.54
660.032	-21.46
660.065	25.54
660.097	18.54
660.129	17.54
660.162	-2.46
660.194	8.54
660.226	11.54
660.259	15.54
660.291	-20.46
660.323	-4.46
660.356	0.54
660.388	-7.46
660.42	-10.46
660.453	5.54
660.485	-3.46
660.517	7.54
660.55	21.54
660.582	11.54
660.614	11.54
660.647	18.54
660.679	-11.46
660.711	7.54
660.743	-17.46
660.776	-17.46
660.808	-5.46
660.84	-11.46
660.873	6.54
660.905	5.54
660.937	-0.46
660.969	-4.46
661.002	1.54
661.034	17.54
661.066	13.54
661.099	22.54
661.131	5.54
661.163	3.54
661.195	8.54
661.228	5.54
661.26	7.54
661.292	9.54
661.324	9.54
661.357	-3.46
661.389	13.54
661.421	19.54
661.453	15.54
661.485	22.54
661.518	-6.46
661.55	-11.46
661.582	-5.46
661.614	7.54
661.647	14.54
661.679	9.54
661.711	5.54
661.743	-7.46
661.775	-3.46
661.808	14.54
661.84	-4.46
661.872	2.54
661.904	2.54
661.936	2.54
661.969	-4.46
662.001	-13.46
662.033	13.54
662.065	-1.46
662.097	6.54
662.129	15.54
662.162	-7.46
662.194	6.54
662.226	-0.46
662.258	7.54
662.29	-6.46
662.322	-0.46
662.355	-20.46
662.387	10.54
662.419	7.54
662.451	2.54
662.483	5.54
662.515	1.54
662.547	6.54
662.58	-9.46
662.612	-16.46
662.644	-20.46
662.676	0.54
662.708	35.54
662.74	2.54
662.772	7.54
662.804	13.54
662.836	16.54
662.869	5.54
662.901	10.54
662.933	5.54
662.965	15.54
662.997	-9.46
663.029	-1.46
663.061	-4.46
663.093	21.54
663.125	12.54
663.157	19.54
663.189	-9.46
663.221	-3.46
663.254	-7.46
663.286	4.54
663.318	5.54
663.35	2.54
663.382	-4.46
663.414	-5.46
663.446	19.54
663.478	-19.46
663.51	27.54
663.542	7.54
663.574	-4.46
663.606	6.54
663.638	6.54
663.67	-6.46
663.702	-1.46
663.734	2.54
663.766	1.54
663.798	-5.46
663.83	12.54
663.862	6.54
663.894	11.54
663.926	14.54
663.958	9.54
663.99	13.54
664.022	-5.46
664.054	-5.46
664.086	6.54
664.118	-12.46
664.15	-13.46
664.182	8.54
664.214	-2.46
664.246	14.54
664.278	7.54
664.31	15.54
664.342	4.54
664.374	-3.46
664.406	13.54
664.438	-2.46
664.47	9.54
664.502	-4.46
664.534	2.54
664.566	-14.46
664.598	17.54
664.63	-11.46
664.662	6.54
664.693	5.54
664.725	-4.46
664.757	-0.46
664.789	-22.46
664.821	16.54
664.853	17.54
664.885	5.54
664.917	-3.46
664.949	-3.46
664.981	18.54
665.013	-1.46
665.045	-3.46
665.076	-2.46
665.108	-4.46
665.14	-0.46
665.172	0.54
665.204	6.54
665.236	8.54
665.268	17.54
665.3	-5.46
665.331	-10.46
665.363	-15.46
665.395	-2.46
665.427	4.54
665.459	4.54
665.491	0.54
665.523	-16.46
665.555	-10.46
665.586	-12.46
665.618	0.54
665.65	-19.46
665.682	8.54
665.714	10.54
665.746	-3.46
665.777	-5.46
665.809	3.54
665.841	-23.46
665.873	-2.46
665.905	15.54
665.937	26.54
665.968	5.54
666	3.54
666.032	0.54
666.064	3.54
666.096	15.54
666.127	18.54
666.159	7.54
666.191	15.54
666.223	0.54
666.255	9.54
666.286	13.54
666.318	14.54
666.35	31.54
666.382	-2.46
666.413	-16.46
666.445	-3.46
666.477	-4.46
666.509	7.54
666.54	2.54
666.572	2.54
666.604	-10.46
666.636	-7.46
666.667	12.54
666.699	17.54
666.731	9.54
666.763	-16.46
666.794	1.54
666.826	-5.46
666.858	-26.46
666.89	12.54
666.921	0.54
666.953	-4.46
666.985	6.54
667.017	8.54
667.048	8.54
667.08	-10.46
667.112	-10.46
667.143	-5.46
667.175	24.54
667.207	4.54
667.238	2.54
667.27	15.54
667.302	-1.46
667.334	-5.46
667.365	14.54
667.397	7.54
667.429	-8.46
667.46	-3.46
667.492	-1.46
667.524	-14.46
667.555	-9.46
667.587	25.54
667.619	11.54
667.65	0.54
667.682	9.54
667.714	19.54
667.745	20.54
667.777	14.54
667.808	10.54
667.84	1.54
667.872	-3.46
667.903	20.54
667.935	-3.46
667.967	1.54
667.998	12.54
668.03	9.54
668.061	18.54
668.093	-5.46
668.125	12.54
668.156	19.54
668.188	-6.46
668.22	2.54
668.251	7.54
668.283	3.54
668.314	18.54
668.346	-8.46
668.377	17.54
668.409	11.54
668.441	25.54
668.472	24.54
668.504	18.54
668.535	8.54
668.567	19.54
668.599	-0.46
668.63	-5.46
668.662	-0.46
668.693	17.54
668.725	5.54
668.756	22.54
668.788	3.54
668.819	27.54
668.851	-1.46
668.882	11.54
668.914	-8.46
668.946	-2.46
668.977	-5.46
669.009	-0.46
669.04	-22.46
669.072	7.54
669.103	12.54
669.135	6.54
669.166	-4.46
669.198	6.54
669.229	9.54
669.261	7.54
669.292	2.54
669.324	7.54
669.355	12.54
669.387	-4.46
669.418	12.54
669.45	-2.46
669.481	-0.46
669.513	0.54
669.544	0.54
669.576	6.54
669.607	16.54
669.639	13.54
669.67	2.54
669.701	9.54
669.733	-16.46
669.764	-0.46
669.796	-0.46
669.827	-1.46
669.859	-4.46
669.89	3.54
669.922	11.54
669.953	3.54
669.985	3.54
670.016	-1.46
670.047	8.54
670.079	5.54
670.11	15.54
670.142	23.54
670.173	6.54
670.204	6.54
670.236	-17.46
670.267	8.54
670.299	3.54
670.33	1.54
670.362	16.54
670.393	-26.46
670.424	25.54
670.456	-1.46
670.487	-13.46
670.518	-5.46
670.55	15.54
670.581	-10.46
670.613	-1.46
670.644	-4.46
670.675	2.54
670.707	11.54
670.738	7.54
670.769	-2.46
670.801	-10.46
670.832	0.54
670.864	-12.46
670.895	0.54
670.926	-4.46
670.958	12.54
670.989	13.54
671.02	3.54
671.052	0.54
671.083	-6.46
671.114	-11.46
671.146	12.54
671.177	1.54
671.208	-19.46
671.24	-18.46
671.271	-13.46
671.302	-3.46
671.333	4.54
671.365	-2.46
671.396	-0.46
671.427	-14.46
671.459	7.54
671.49	13.54
671.521	7.54
671.553	6.54
671.584	10.54
671.615	-7.46
671.646	4.54
671.678	16.54
671.709	-1.46
671.74	-21.46
671.771	-11.46
671.803	1.54
671.834	3.54
671.865	11.54
671.896	6.54
671.928	5.54
671.959	-15.46
671.99	-7.46
672.021	13.54
672.053	1.54
672.084	10.54
672.115	10.54
672.146	-6.46
672.178	-11.46
672.209	2.54
672.24	-0.46
672.271	30.54
672.303	1.54
672.334	13.54
672.365	4.54
672.396	26.54
672.427	9.54
672.459	15.54
672.49	30.54
672.521	1.54
672.552	9.54
672.583	2.54
672.615	-6.46
672.646	5.54
672.677	-10.46
672.708	-1.46
672.739	-8.46
672.77	2.54
672.802	11.54
672.833	4.54
672.864	-8.46
672.895	-5.46
672.926	14.54
672.957	7.54
672.989	1.54
673.02	10.54
673.051	3.54
673.082	18.54
673.113	7.54
673.144	8.54
673.175	-3.46
673.206	-5.46
673.238	-1.46
673.269	-6.46
673.3	-2.46
673.331	0.54
673.362	7.54
673.393	6.54
673.424	13.54
673.455	8.54
673.487	3.54
673.518	-2.46
673.549	1.54
673.58	4.54
673.611	13.54
673.642	-1.46
673.673	-9.46
673.704	7.54
673.735	5.54
673.766	-2.46
673.797	-6.46
673.828	8.54
673.86	0.54
673.891	5.54
673.922	-6.46
673.953	-12.46
673.984	-6.46
674.015	-7.46
674.046	-5.46
674.077	21.54
674.108	-5.46
674.139	-9.46
674.17	7.54
674.201	2.54
674.232	-15.46
674.263	17.54
674.294	4.54
674.325	-20.46
674.356	9.54
674.387	4.54
674.418	9.54
674.449	-6.46
674.48	-8.46
674.511	0.54
674.542	-4.46
674.573	-2.46
674.604	1.54
674.635	7.54
674.666	9.54
674.697	10.54
674.728	8.54
674.759	0.54
674.79	-7.46
674.821	6.54
674.852	3.54
674.883	-17.46
674.914	-2.46
674.945	3.54
674.976	10.54
675.007	-7.46
675.038	-8.46
675.069	-17.46
675.1	1.54
675.131	3.54
675.162	-5.46
675.193	-8.46
675.224	1.54
675.254	19.54
675.285	7.54
675.316	6.54
675.347	-6.46
675.378	-4.46
675.409	-9.46
675.44	13.54
675.471	8.54
675.502	-10.46
675.533	-6.46
675.564	5.54
675.595	6.54
675.625	25.54
675.656	13.54
675.687	-3.46
675.718	-20.46
675.749	-1.46
675.78	12.54
675.811	4.54
675.842	8.54
675.873	1.54
675.903	-1.46
675.934	6.54
675.965	-12.46
675.996	2.54
676.027	13.54
676.058	7.54
676.089	2.54
676.119	15.54
676.15	14.54
676.181	2.54
676.212	0.54
676.243	25.54
676.274	-0.46
676.304	11.54
676.335	-15.46
676.366	9.54
676.397	7.54
676.428	15.54
676.459	33.54
676.489	7.54
676.52	17.54
676.551	-5.46
676.582	-14.46
676.613	-3.46
676.643	-16.46
676.674	19.54
676.705	8.54
676.736	8.54
676.767	3.54
676.797	-4.46
676.828	8.54
676.859	0.54
676.89	-8.46
676.92	9.54
676.951	-2.46
676.982	6.54
677.013	-11.46
677.044	8.54
677.074	23.54
677.105	0.54
677.136	6.54
677.167	11.54
677.197	12.54
677.228	-0.46
677.259	-7.46
677.289	10.54
677.32	-31.46
677.351	-17.46
677.382	-5.46
677.412	-9.46
677.443	-4.46
677.474	3.54
677.505	-2.46
677.535	3.54
677.566	-7.46
677.597	-19.46
677.627	-2.46
677.658	-19.46
677.689	5.54
677.72	-11.46
677.75	-9.46
677.781	-19.46
677.812	-8.46
677.842	10.54
677.873	13.54
677.904	3.54
677.934	2.54
677.965	3.54
677.996	3.54
678.026	-2.46
678.057	7.54
678.088	2.54
678.118	5.54
678.149	-7.46
678.18	11.54
678.21	3.54
678.241	14.54
678.272	5.54
678.302	-0.46
678.333	9.54
678.363	4.54
678.394	4.54
678.425	2.54
678.455	-0.46
678.486	20.54
678.517	6.54
678.547	-5.46
678.578	6.54
678.608	1.54
678.639	-4.46
678.67	2.54
678.7	-8.46
678.731	-7.46
678.761	1.54
678.792	13.54
678.823	3.54
678.853	7.54
678.884	-2.46
678.914	12.54
678.945	10.54
678.975	-10.46
679.006	1.54
679.037	0.54
679.067	23.54
679.098	-1.46
679.128	-8.46
679.159	1.54
679.189	15.54
679.22	5.54
679.25	12.54
679.281	0.54
679.312	2.54
679.342	5.54
679.373	30.54
679.403	9.54
679.434	1.54
679.464	-3.46
679.495	1.54
679.525	9.54
679.556	2.54
679.586	11.54
679.617	3.54
679.647	11.54
679.678	-0.46
679.708	-1.46
679.739	8.54
679.769	4.54
679.8	5.54
679.83	-1.46
679.861	2.54
679.891	-3.46
679.922	-1.46
679.952	4.54
679.983	12.54
680.013	8.54
680.044	5.54
680.074	13.54
680.105	-4.46
680.135	-5.46
680.165	6.54
680.196	1.54
680.226	7.54
680.257	11.54
680.287	9.54
680.318	2.54
680.348	-9.46
680.379	13.54
680.409	1.54
680.439	-16.46
680.47	-13.46
680.5	-3.46
680.531	13.54
680.561	3.54
680.592	-0.46
680.622	16.54
680.652	0.54
680.683	3.54
680.713	4.54
680.744	-2.46
680.774	-0.46
680.804	11.54
680.835	16.54
680.865	-3.46
680.896	7.54
680.926	11.54
680.956	14.54
680.987	1.54
681.017	-11.46
681.047	11.54
681.078	8.54
681.108	2.54
681.139	-0.46
681.169	3.54
681.199	-7.46
681.23	10.54
681.26	7.54
681.29	0.54
681.321	-3.46
681.351	2.54
681.381	-3.46
681.412	1.54
681.442	-4.46
681.472	12.54
681.503	11.54
681.533	2.54
681.563	-0.46
681.594	-13.46
681.624	-3.46
681.654	-9.46
681.685	-6.46
681.715	-4.46
681.745	3.54
681.775	0.54
681.806	-7.46
681.836	19.54
681.866	-16.46
681.897	-12.46
681.927	-5.46
681.957	-23.46
681.987	11.54
682.018	2.54
682.048	1.54
682.078	1.54
682.109	8.54
682.139	10.54
682.169	12.54
682.199	-0.46
682.23	-18.46
682.26	-9.46
682.29	13.54
682.32	5.54
682.351	-4.46
682.381	8.54
682.411	5.54
682.441	-10.46
682.472	0.54
682.502	4.54
682.532	-4.46
682.562	0.54
682.592	-5.46
682.623	13.54
682.653	20.54
682.683	-0.46
682.713	18.54
682.743	4.54
682.774	2.54
682.804	1.54
682.834	17.54
682.864	-3.46
682.894	-4.46
682.925	1.54
682.955	-10.46
682.985	-10.46
683.015	12.54
683.045	11.54
683.076	-11.46
683.106	0.54
683.136	-0.46
683.166	-1.46
683.196	2.54
683.226	-0.46
683.257	0.54
683.287	-1.46
683.317	-7.46
683.347	-10.46
683.377	-3.46
683.407	2.54
683.437	5.54
683.468	19.54
683.498	6.54
683.528	-0.46
683.558	16.54
683.588	18.54
683.618	-5.46
683.648	4.54
683.678	12.54
683.708	13.54
683.739	12.54
683.769	10.54
683.799	12.54
683.829	4.54
683.859	-3.46
683.889	18.54
683.919	1.54
683.949	-0.46
683.979	12.54
684.009	0.54
684.039	8.54
684.07	-0.46
684.1	28.54
684.13	18.54
684.16	6.54
684.19	8.54
684.22	-5.46
684.25	1.54
684.28	2.54
684.31	24.54
684.34	16.54
684.37	11.54
684.4	-0.46
684.43	1.54
684.46	-0.46
684.49	7.54
684.52	4.54
684.55	10.54
684.58	7.54
684.61	1.54
684.64	13.54
684.67	7.54
684.7	-9.46
684.73	7.54
684.76	7.54
684.79	4.54
684.82	1.54
684.85	-4.46
684.88	2.54
684.91	-4.46
684.94	8.54
684.97	8.54
685	-7.46
685.03	-11.46
685.06	-15.46
685.09	-0.46
685.12	22.54
685.15	-1.46
685.18	9.54
685.21	15.54
685.24	0.54
685.27	-1.46
685.3	5.54
685.33	-0.46
685.36	2.54
685.39	5.54
685.42	1.54
685.45	9.54
685.48	1.54
685.51	7.54
685.54	19.54
685.569	7.54
685.599	9.54
685.629	4.54
685.659	-0.46
685.689	1.54
685.719	-0.46
685.749	-7.46
685.779	11.54
685.809	3.54
685.839	1.54
685.869	11.54
685.898	8.54
685.928	-3.46
685.958	2.54
685.988	15.54
686.018	8.54
686.048	3.54
686.078	15.54
686.108	13.54
686.137	5.54
686.167	33.54
686.197	-10.46
686.227	-6.46
686.257	8.54
686.287	8.54
686.317	9.54
686.346	-11.46
686.376	-6.46
686.406	-4.46
686.436	12.54
686.466	5.54
686.496	-0.46
686.525	-7.46
686.555	5.54
686.585	22.54
686.615	29.54
686.645	25.54
686.675	1.54
686.704	23.54
686.734	4.54
686.764	-14.46
686.794	-12.46
686.824	8.54
686.853	9.54
686.883	3.54
686.913	16.54
686.943	20.54
686.973	0.54
687.002	-9.46
687.032	-7.46
687.062	0.54
687.092	3.54
687.121	0.54
687.151	9.54
687.181	1.54
687.211	15.54
687.24	4.54
687.27	22.54
687.3	3.54
687.33	1.54
687.359	-6.46
687.389	11.54
687.419	-4.46
687.449	0.54
687.478	23.54
687.508	-9.46
687.538	16.54
687.568	18.54
687.597	6.54
687.627	10.54
687.657	2.54
687.686	3.54
687.716	24.54
687.746	11.54
687.776	4.54
687.805	10.54
687.835	4.54
687.865	14.54
687.894	-5.46
687.924	2.54
687.954	10.54
687.983	18.54
688.013	23.54
688.043	8.54
688.072	5.54
688.102	-0.46
688.132	-1.46
688.161	-8.46
688.191	-6.46
688.221	28.54
688.25	-13.46
688.28	-6.46
688.31	5.54
688.339	12.54
688.369	-15.46
688.399	-5.46
688.428	-15.46
688.458	-0.46
688.488	-3.46
688.517	17.54
688.547	3.54
688.576	38.54
688.606	23.54
688.636	9.54
688.665	6.54
688.695	22.54
688.725	31.54
688.754	9.54
688.784	-5.46
688.813	4.54
688.843	7.54
688.873	7.54
688.902	3.54
688.932	-3.46
688.961	4.54
688.991	18.54
689.02	15.54
689.05	-5.46
689.08	7.54
689.109	16.54
689.139	-13.46
689.168	8.54
689.198	7.54
689.227	-4.46
689.257	5.54
689.287	12.54
689.316	4.54
689.346	-1.46
689.375	-10.46
689.405	9.54
689.434	4.54
689.464	10.54
689.493	19.54
689.523	8.54
689.552	-11.46
689.582	7.54
689.611	-0.46
689.641	-1.46
689.67	4.54
689.7	10.54
689.73	19.54
689.759	5.54
689.789	2.54
689.818	-1.46
689.848	-9.46
689.877	28.54
689.906	-1.46
689.936	-13.46
689.965	2.54
689.995	3.54
690.024	7.54
690.054	-0.46
690.083	7.54
690.113	-19.46
690.142	-13.46
690.172	-0.46
690.201	13.54
690.231	-11.46
690.26	5.54
690.29	-4.46
690.319	7.54
690.348	0.54
690.378	3.54
690.407	23.54
690.437	-6.46
690.466	-3.46
690.496	8.54
690.525	10.54
690.555	-6.46
690.584	-0.46
690.613	-0.46
690.643	17.54
690.672	8.54
690.702	-5.46
690.731	-0.46
690.76	30.54
690.79	52.54
690.819	33.54
690.849	44.54
690.878	26.54
690.907	26.54
690.937	34.54
690.966	17.54
690.996	7.54
691.025	3.54
691.054	2.54
691.084	6.54
691.113	2.54
691.142	7.54
691.172	16.54
691.201	15.54
691.23	5.54
691.26	8.54
691.289	5.54
691.319	1.54
691.348	-6.46
691.377	16.54
691.407	15.54
691.436	18.54
691.465	5.54
691.495	2.54
691.524	-4.46
691.553	-8.46
691.583	-0.46
691.612	20.54
691.641	4.54
691.67	11.54
691.7	6.54
691.729	-6.46
691.758	-4.46
691.788	-1.46
691.817	9.54
691.846	13.54
691.876	15.54
691.905	3.54
691.934	1.54
691.963	16.54
691.993	18.54
692.022	6.54
692.051	-6.46
692.081	-1.46
692.11	14.54
692.139	3.54
692.168	3.54
692.198	7.54
692.227	4.54
692.256	9.54
692.285	-10.46
692.315	1.54
692.344	9.54
692.373	5.54
692.402	-11.46
692.432	-1.46
692.461	-0.46
692.49	11.54
692.519	-0.46
692.548	13.54
692.578	11.54
692.607	-2.46
692.636	-6.46
692.665	18.54
692.694	-3.46
692.724	-9.46
692.753	-0.46
692.782	19.54
692.811	-1.46
692.84	-0.46
692.87	4.54
692.899	23.54
692.928	-1.46
692.957	-1.46
692.986	4.54
693.016	-19.46
693.045	14.54
693.074	-0.46
693.103	5.54
693.132	-0.46
693.161	11.54
693.191	-0.46
693.22	-9.46
693.249	20.54
693.278	3.54
693.307	22.54
693.336	7.54
693.365	-13.46
693.395	12.54
693.424	15.54
693.453	16.54
693.482	3.54
693.511	-3.46
693.54	14.54
693.569	16.54
693.598	-10.46
693.628	13.54
693.657	9.54
693.686	21.54
693.715	10.54
693.744	31.54
693.773	36.54
693.802	18.54
693.831	9.54
693.86	25.54
693.889	-6.46
693.919	-2.46
693.948	6.54
693.977	1.54
694.006	-1.46
694.035	17.54
694.064	10.54
694.093	9.54
694.122	4.54
694.151	-0.46
694.18	13.54
694.209	30.54
694.238	8.54
694.267	26.54
694.296	1.54
694.325	8.54
694.354	18.54
694.383	23.54
694.412	1.54
694.441	-9.46
694.471	-0.46
694.5	-7.46
694.529	-6.46
694.558	20.54
694.587	19.54
694.616	-0.46
694.645	3.54
694.674	6.54
694.703	14.54
694.732	6.54
694.761	6.54
694.79	26.54
694.819	-4.46
694.848	-3.46
694.877	8.54
694.906	7.54
694.935	29.54
694.963	28.54
694.992	-0.46
695.021	17.54
695.05	12.54
695.079	26.54
695.108	7.54
695.137	14.54
695.166	17.54
695.195	-8.46
695.224	21.54
695.253	7.54
695.282	4.54
695.311	14.54
695.34	-6.46
695.369	1.54
695.398	20.54
695.427	27.54
695.456	4.54
695.485	4.54
695.513	20.54
695.542	-7.46
695.571	-7.46
695.6	18.54
695.629	26.54
695.658	12.54
695.687	3.54
695.716	9.54
695.745	23.54
695.774	-10.46
695.802	3.54
695.831	4.54
695.86	-0.46
695.889	19.54
695.918	16.54
695.947	-3.46
695.976	4.54
696.005	5.54
696.033	9.54
696.062	17.54
696.091	-8.46
696.12	1.54
696.149	12.54
696.178	18.54
696.207	23.54
696.235	2.54
696.264	5.54
696.293	6.54
696.322	13.54
696.351	29.54
696.38	5.54
696.408	0.54
696.437	1.54
696.466	6.54
696.495	24.54
696.524	23.54
696.553	13.54
696.581	9.54
696.61	5.54
696.639	8.54
696.668	10.54
696.697	0.54
696.725	6.54
696.754	-0.46
696.783	8.54
696.812	18.54
696.84	21.54
696.869	23.54
696.898	7.54
696.927	18.54
696.956	24.54
696.984	1.54
697.013	9.54
697.042	2.54
697.071	8.54
697.099	9.54
697.128	15.54
697.157	3.54
697.186	-0.46
697.214	0.54
697.243	1.54
697.272	0.54
697.301	8.54
697.329	11.54
697.358	23.54
697.387	20.54
697.415	6.54
697.444	10.54
697.473	7.54
697.502	15.54
697.53	19.54
697.559	7.54
697.588	2.54
697.616	13.54
697.645	-0.46
697.674	14.54
697.703	-11.46
697.731	5.54
697.76	7.54
697.789	-0.46
697.817	5.54
697.846	31.54
697.875	19.54
697.903	47.54
697.932	23.54
697.961	17.54
697.989	10.54
698.018	12.54
698.047	3.54
698.075	23.54
698.104	11.54
698.133	14.54
698.161	-10.46
698.19	-12.46
698.218	-6.46
698.247	11.54
698.276	-1.46
698.304	11.54
698.333	5.54
698.362	-1.46
698.39	2.54
698.419	1.54
698.447	9.54
698.476	4.54
698.505	21.54
698.533	3.54
698.562	16.54
698.591	3.54
698.619	-3.46
698.648	-1.46
698.676	-3.46
698.705	-10.46
698.733	-6.46
698.762	3.54
698.791	3.54
698.819	16.54
698.848	-1.46
698.876	9.54
698.905	8.54
698.933	-4.46
698.962	4.54
698.991	4.54
699.019	22.54
699.048	7.54
699.076	5.54
699.105	-1.46
699.133	1.54
699.162	10.54
699.19	16.54
699.219	-6.46
699.248	-4.46
699.276	-1.46
699.305	7.54
699.333	18.54
699.362	1.54
699.39	24.54
699.419	0.54
699.447	13.54
699.476	-3.46
699.504	-6.46
699.533	6.54
699.561	-4.46
699.59	7.54
699.618	-11.46
699.647	16.54
699.675	24.54
699.704	30.54
699.732	-5.46
699.761	2.54
699.789	-2.46
699.818	16.54
699.846	0.54
699.874	2.54
699.903	-8.46
699.931	-7.46
699.96	1.54
699.988	-5.46
700.017	-11.46
700.045	10.54
700.074	-1.46
700.102	1.54
700.13	-15.46
700.159	-6.46
700.187	24.54
700.216	3.54
700.244	3.54
700.273	-5.46
700.301	0.54
700.329	-10.46
700.358	11.54
700.386	-9.46
700.415	-0.46
700.443	6.54
700.472	9.54
700.5	3.54
700.528	7.54
700.557	11.54
700.585	-6.46
700.614	-10.46
700.642	5.54
700.67	34.54
700.699	29.54
700.727	8.54
700.755	2.54
700.784	12.54
700.812	9.54
700.841	13.54
700.869	-11.46
700.897	-2.46
700.926	5.54
700.954	10.54
700.982	14.54
701.011	1.54
701.039	14.54
701.067	0.54
701.096	-3.46
701.124	-0.46
701.152	1.54
701.181	-2.46
701.209	-2.46
701.237	-9.46
701.266	9.54
701.294	-13.46
701.322	-8.46
701.351	8.54
701.379	2.54
701.407	-6.46
701.435	-2.46
701.464	12.54
701.492	18.54
701.52	-0.46
701.549	3.54
701.577	-2.46
701.605	-6.46
701.634	-0.46
701.662	13.54
701.69	-20.46
701.718	-7.46
701.747	12.54
701.775	-4.46
701.803	3.54
701.831	11.54
701.86	-3.46
701.888	5.54
701.916	21.54
701.944	5.54
701.973	15.54
702.001	-5.46
702.029	-4.46
702.057	-4.46
702.086	4.54
702.114	-8.46
702.142	-11.46
702.17	-8.46
702.199	-1.46
702.227	-6.46
702.255	-12.46
702.283	1.54
702.311	9.54
702.34	5.54
702.368	-4.46
702.396	7.54
702.424	-7.46
702.452	4.54
702.481	3.54
702.509	-8.46
702.537	-4.46
702.565	2.54
702.593	3.54
702.621	5.54
702.65	7.54
702.678	-1.46
702.706	6.54
702.734	-6.46
702.762	3.54
702.79	-9.46
702.819	1.54
702.847	8.54
702.875	11.54
702.903	18.54
702.931	-3.46
702.959	-6.46
702.988	0.54
703.016	-5.46
703.044	2.54
703.072	-0.46
703.1	-3.46
703.128	-5.46
703.156	6.54
703.184	2.54
703.212	4.54
703.241	0.54
703.269	-13.46
703.297	12.54
703.325	-6.46
703.353	-3.46
703.381	-5.46
703.409	9.54
703.437	-4.46
703.465	4.54
703.493	-14.46
703.522	12.54
703.55	15.54
703.578	2.54
703.606	-7.46
703.634	-0.46
703.662	-0.46
703.69	12.54
703.718	3.54
703.746	19.54
703.774	7.54
703.802	17.54
703.83	1.54
703.858	-0.46
703.886	-9.46
703.914	-8.46
703.942	26.54
703.97	1.54
703.998	-4.46
704.027	9.54
704.055	8.54
704.083	-3.46
704.111	-15.46
704.139	6.54
704.167	-4.46
704.195	-5.46
704.223	-5.46
704.251	18.54
704.279	14.54
704.307	11.54
704.335	-2.46
704.363	-3.46
704.391	2.54
704.419	-7.46
704.447	-8.46
704.475	-2.46
704.503	-4.46
704.531	10.54
704.558	10.54
704.586	5.54
704.614	2.54
704.642	10.54
704.67	-32.46
704.698	0.54
704.726	-0.46
704.754	1.54
704.782	-4.46
704.81	5.54
704.838	5.54
704.866	14.54
704.894	-11.46
704.922	-20.46
704.95	6.54
704.978	18.54
705.006	-4.46
705.034	14.54
705.061	-6.46
705.089	-8.46
705.117	0.54
705.145	1.54
705.173	1.54
705.201	4.54
705.229	18.54
705.257	13.54
705.285	19.54
705.313	7.54
705.34	4.54
705.368	-8.46
705.396	13.54
705.424	13.54
705.452	2.54
705.48	1.54
705.508	-13.46
705.536	6.54
705.563	-6.46
705.591	11.54
705.619	-1.46
705.647	-12.46
705.675	1.54
705.703	4.54
705.731	11.54
705.758	12.54
705.786	2.54
705.814	30.54
705.842	7.54
705.87	23.54
705.898	14.54
705.925	-0.46
705.953	9.54
705.981	2.54
706.009	7.54
706.037	1.54
706.065	-3.46
706.092	-2.46
706.12	10.54
706.148	1.54
706.176	2.54
706.204	13.54
706.231	-1.46
706.259	-11.46
706.287	10.54
706.315	18.54
706.342	-0.46
706.37	-3.46
706.398	-9.46
706.426	7.54
706.454	9.54
706.481	19.54
706.509	1.54
706.537	2.54
706.565	-12.46
706.592	5.54
706.62	8.54
706.648	10.54
706.676	-3.46
706.703	18.54
706.731	-19.46
706.759	-15.46
706.787	7.54
706.814	-2.46
706.842	0.54
706.87	-11.46
706.897	-9.46
706.925	7.54
706.953	14.54
706.981	20.54
707.008	13.54
707.036	9.54
707.064	5.54
707.091	2.54
707.119	17.54
707.147	-10.46
707.174	-7.46
707.202	15.54
707.23	4.54
707.258	-3.46
707.285	-15.46
707.313	2.54
707.341	-16.46
707.368	-5.46
707.396	8.54
707.424	12.54
707.451	16.54
707.479	0.54
707.507	2.54
707.534	-11.46
707.562	4.54
707.59	-7.46
707.617	-22.46
707.645	-24.46
707.672	4.54
707.7	7.54
707.728	7.54
707.755	4.54
707.783	-7.46
707.811	0.54
707.838	5.54
707.866	-6.46
707.893	-2.46
707.921	-0.46
707.949	8.54
707.976	13.54
708.004	9.54
708.031	2.54
708.059	-0.46
708.087	-12.46
708.114	-13.46
708.142	-8.46
708.169	0.54
708.197	-12.46
708.225	-4.46
708.252	5.54
708.28	16.54
708.307	11.54
708.335	11.54
708.362	10.54
708.39	-14.46
708.418	18.54
708.445	-2.46
708.473	-6.46
708.5	-13.46
708.528	10.54
708.555	13.54
708.583	1.54
708.61	5.54
708.638	8.54
708.665	-13.46
708.693	10.54
708.72	-17.46
708.748	-16.46
708.776	-0.46
708.803	22.54
708.831	13.54
708.858	18.54
708.886	1.54
708.913	9.54
708.941	3.54
708.968	13.54
708.996	-0.46
709.023	29.54
709.051	3.54
709.078	4.54
709.105	-9.46
709.133	-7.46
709.16	4.54
709.188	17.54
709.215	9.54
709.243	-1.46
709.27	-3.46
709.298	-5.46
709.325	2.54
709.353	0.54
709.38	13.54
709.408	17.54
709.435	6.54
709.462	-12.46
709.49	-8.46
709.517	2.54
709.545	5.54
709.572	-3.46
709.6	-1.46
709.627	-2.46
709.655	-8.46
709.682	-4.46
709.709	-5.46
709.737	-0.46
709.764	-13.46
709.792	7.54
709.819	2.54
709.846	3.54
709.874	16.54
709.901	19.54
709.929	21.54
709.956	7.54
709.983	-9.46
710.011	-7.46
710.038	-1.46
710.066	14.54
710.093	20.54
710.12	-10.46
710.148	-3.46
710.175	-13.46
710.202	-4.46
710.23	7.54
710.257	7.54
710.284	-5.46
710.312	-6.46
710.339	-7.46
710.366	12.54
710.394	11.54
710.421	-1.46
710.448	0.54
710.476	-23.46
710.503	-1.46
710.53	14.54
710.558	21.54
710.585	28.54
710.612	-6.46
710.64	9.54
710.667	10.54
710.694	2.54
710.722	13.54
710.749	-1.46
710.776	11.54
710.804	15.54
710.831	-3.46
710.858	1.54
710.885	-4.46
710.913	0.54
710.94	26.54
710.967	14.54
710.995	-1.46
711.022	8.54
711.049	-2.46
711.076	-17.46
711.104	-4.46
711.131	-9.46
711.158	2.54
711.185	4.54
711.213	-1.46
711.24	-7.46
711.267	-21.46
711.294	3.54
711.322	21.54
711.349	6.54
711.376	-5.46
711.403	3.54
711.431	-1.46
711.458	0.54
711.485	-2.46
711.512	3.54
711.54	0.54
711.567	7.54
711.594	4.54
711.621	8.54
711.648	7.54
711.676	3.54
711.703	-6.46
711.73	-20.46
711.757	6.54
711.784	9.54
711.812	3.54
711.839	15.54
711.866	4.54
711.893	-0.46
711.92	22.54
711.947	-0.46
711.975	-2.46
712.002	0.54
712.029	-0.46
712.056	-1.46
712.083	16.54
712.11	0.54
712.138	22.54
712.165	10.54
712.192	0.54
712.219	-11.46
712.246	-1.46
712.273	-0.46
712.3	8.54
712.328	8.54
712.355	-5.46
712.382	-11.46
712.409	4.54
712.436	-5.46
712.463	10.54
712.49	9.54
712.517	1.54
712.544	-2.46
712.572	3.54
712.599	5.54
712.626	19.54
712.653	-7.46
712.68	-18.46
712.707	5.54
712.734	9.54
712.761	10.54
712.788	-7.46
712.815	-1.46
712.842	12.54
712.87	-5.46
712.897	-0.46
712.924	-14.46
712.951	20.54
712.978	19.54
713.005	11.54
713.032	18.54
713.059	9.54
713.086	-7.46
713.113	-4.46
713.14	-9.46
713.167	2.54
713.194	8.54
713.221	5.54
713.248	13.54
713.275	1.54
713.302	5.54
713.329	18.54
713.356	15.54
713.383	6.54
713.41	2.54
713.437	4.54
713.464	7.54
713.491	26.54
713.518	9.54
713.545	4.54
713.572	-5.46
713.599	17.54
713.626	-11.46
713.653	28.54
713.68	2.54
713.707	-9.46
713.734	13.54
713.761	-4.46
713.788	-1.46
713.815	9.54
713.842	14.54
713.869	-4.46
713.896	5.54
713.923	2.54
713.95	-1.46
713.977	-5.46
714.004	-3.46
714.031	-14.46
714.058	-9.46
714.085	-6.46
714.112	14.54
714.139	0.54
714.165	3.54
714.192	-2.46
714.219	18.54
714.246	22.54
714.273	4.54
714.3	6.54
714.327	6.54
714.354	13.54
714.381	-5.46
714.408	-5.46
714.435	-0.46
714.461	-1.46
714.488	2.54
714.515	-3.46
714.542	-0.46
714.569	-4.46
714.596	-15.46
714.623	-5.46
714.65	7.54
714.677	1.54
714.703	4.54
714.73	5.54
714.757	11.54
714.784	3.54
714.811	-7.46
714.838	12.54
714.865	-6.46
714.891	6.54
714.918	-7.46
714.945	-15.46
714.972	-7.46
714.999	16.54
715.026	1.54
715.052	-0.46
715.079	14.54
715.106	9.54
715.133	10.54
715.16	1.54
715.187	5.54
715.213	11.54
715.24	10.54
715.267	-11.46
715.294	6.54
715.321	8.54
715.347	0.54
715.374	-5.46
715.401	-4.46
715.428	-5.46
715.455	-1.46
715.481	-3.46
715.508	21.54
715.535	2.54
715.562	12.54
715.588	4.54
715.615	-3.46
715.642	-4.46
715.669	0.54
715.695	-5.46
715.722	-11.46
715.749	3.54
715.776	20.54
715.802	-5.46
715.829	-7.46
715.856	5.54
715.883	15.54
715.909	-6.46
715.936	-5.46
715.963	10.54
715.99	-17.46
716.016	4.54
716.043	5.54
716.07	0.54
716.096	-13.46
716.123	6.54
716.15	0.54
716.177	14.54
716.203	19.54
716.23	8.54
716.257	-6.46
716.283	14.54
716.31	7.54
716.337	13.54
716.363	6.54
716.39	15.54
716.417	9.54
716.443	4.54
716.47	21.54
716.497	13.54
716.523	9.54
716.55	-6.46
716.577	2.54
716.603	6.54
716.63	7.54
716.657	5.54
716.683	3.54
716.71	2.54
716.737	4.54
716.763	4.54
716.79	6.54
716.817	21.54
716.843	15.54
716.87	4.54
716.897	7.54
716.923	10.54
716.95	-7.46
716.976	9.54
717.003	-5.46
717.03	1.54
717.056	-8.46
717.083	-1.46
717.109	8.54
717.136	10.54
717.163	-7.46
717.189	-11.46
717.216	-3.46
717.242	-5.46
717.269	13.54
717.296	4.54
717.322	10.54
717.349	16.54
717.375	5.54
717.402	-4.46
717.428	3.54
717.455	-2.46
717.481	3.54
717.508	9.54
717.535	16.54
717.561	0.54
717.588	-2.46
717.614	2.54
717.641	8.54
717.667	3.54
717.694	5.54
717.72	6.54
717.747	2.54
717.773	-3.46
717.8	4.54
717.826	5.54
717.853	8.54
717.88	11.54
717.906	8.54
717.933	2.54
717.959	9.54
717.986	-0.46
718.012	-8.46
718.039	7.54
718.065	7.54
718.092	-3.46
718.118	-1.46
718.144	-2.46
718.171	17.54
718.197	12.54
718.224	4.54
718.25	2.54
718.277	12.54
718.303	-1.46
718.33	4.54
718.356	-7.46
718.383	-8.46
718.409	-3.46
718.436	-7.46
718.462	14.54
718.489	-3.46
718.515	5.54
718.541	19.54
718.568	-1.46
718.594	14.54
718.621	7.54
718.647	9.54
718.674	13.54
718.7	20.54
718.726	-0.46
718.753	6.54
718.779	9.54
718.806	-7.46
718.832	-6.46
718.858	3.54
718.885	1.54
718.911	14.54
718.938	7.54
718.964	-0.46
718.99	7.54
719.017	10.54
719.043	8.54
719.07	28.54
719.096	-3.46
719.122	2.54
719.149	-0.46
719.175	8.54
719.201	-4.46
719.228	4.54
719.254	1.54
719.281	-9.46
719.307	-8.46
719.333	-20.46
719.36	2.54
719.386	1.54
719.412	12.54
719.439	2.54
719.465	12.54
719.491	-5.46
719.518	17.54
719.544	9.54
719.57	14.54
719.597	-0.46
719.623	-7.46
719.649	2.54
719.675	6.54
719.702	4.54
719.728	2.54
719.754	-12.46
719.781	3.54
719.807	2.54
719.833	4.54
719.86	-7.46
719.886	-5.46
719.912	-8.46
719.938	15.54
719.965	0.54
719.991	11.54
720.017	12.54
720.044	2.54
720.07	10.54
720.096	5.54
720.122	9.54
720.149	-3.46
720.175	21.54
720.201	2.54
720.227	2.54
720.254	3.54
720.28	-2.46
720.306	-7.46
720.332	16.54
720.359	12.54
720.385	23.54
720.411	1.54
720.437	8.54
720.463	4.54
720.49	0.54
720.516	0.54
720.542	8.54
720.568	4.54
720.595	20.54
720.621	11.54
720.647	3.54
720.673	4.54
720.699	-5.46
720.725	-8.46
720.752	14.54
720.778	13.54
720.804	7.54
720.83	14.54
720.856	4.54
720.883	-9.46
720.909	1.54
720.935	7.54
720.961	-1.46
720.987	5.54
721.013	10.54
721.04	8.54
721.066	-12.46
721.092	0.54
721.118	23.54
721.144	5.54
721.17	3.54
721.196	-0.46
721.223	-9.46
721.249	12.54
721.275	19.54
721.301	9.54
721.327	16.54
721.353	9.54
721.379	2.54
721.405	19.54
721.432	4.54
721.458	4.54
721.484	13.54
721.51	2.54
721.536	4.54
721.562	8.54
721.588	12.54
721.614	11.54
721.64	3.54
721.666	15.54
721.693	4.54
721.719	9.54
721.745	-13.46
721.771	12.54
721.797	15.54
721.823	14.54
721.849	20.54
721.875	19.54
721.901	17.54
721.927	-4.46
721.953	7.54
721.979	24.54
722.005	10.54
722.031	8.54
722.057	2.54
722.083	14.54
722.109	7.54
722.135	11.54
722.161	9.54
722.187	1.54
722.214	-13.46
722.24	11.54
722.266	-0.46
722.292	21.54
722.318	8.54
722.344	8.54
722.37	14.54
722.396	-0.46
722.422	2.54
722.448	19.54
722.474	-3.46
722.5	2.54
722.526	12.54
722.552	-4.46
722.578	2.54
722.603	-8.46
722.629	-9.46
722.655	-8.46
722.681	-2.46
722.707	4.54
722.733	-3.46
722.759	-5.46
722.785	0.54
722.811	1.54
722.837	1.54
722.863	-9.46
722.889	10.54
722.915	4.54
722.941	-4.46
722.967	10.54
722.993	13.54
723.019	-12.46
723.045	11.54
723.071	6.54
723.097	-0.46
723.122	10.54
723.148	-5.46
723.174	4.54
723.2	2.54
723.226	-11.46
723.252	-1.46
723.278	6.54
723.304	5.54
723.33	7.54
723.356	3.54
723.381	-3.46
723.407	-12.46
723.433	20.54
723.459	-6.46
723.485	-3.46
723.511	10.54
723.537	-0.46
723.563	-8.46
723.588	12.54
723.614	17.54
723.64	8.54
723.666	4.54
723.692	12.54
723.718	2.54
723.744	2.54
723.769	-1.46
723.795	3.54
723.821	1.54
723.847	-11.46
723.873	8.54
723.899	1.54
723.924	-4.46
723.95	0.54
723.976	-0.46
724.002	6.54
724.028	14.54
724.053	0.54
724.079	-12.46
724.105	13.54
724.131	-3.46
724.157	6.54
724.182	6.54
724.208	-1.46
724.234	14.54
724.26	-12.46
724.286	13.54
724.311	1.54
724.337	-23.46
724.363	-7.46
724.389	5.54
724.415	2.54
724.44	27.54
724.466	-0.46
724.492	-4.46
724.518	-6.46
724.543	-5.46
724.569	19.54
724.595	8.54
724.621	-5.46
724.646	-8.46
724.672	-0.46
724.698	1.54
724.723	2.54
724.749	-7.46
724.775	1.54
724.801	4.54
724.826	-12.46
724.852	4.54
724.878	-5.46
724.904	-10.46
724.929	8.54
724.955	-13.46
724.981	19.54
725.006	-6.46
725.032	4.54
725.058	4.54
725.083	-5.46
725.109	22.54
725.135	-0.46
725.161	-5.46
725.186	2.54
725.212	-3.46
725.238	16.54
725.263	9.54
725.289	-0.46
725.315	-4.46
725.34	7.54
725.366	7.54
725.392	-12.46
725.417	-7.46
725.443	-11.46
725.468	1.54
725.494	10.54
725.52	3.54
725.545	4.54
725.571	-3.46
725.597	5.54
725.622	9.54
725.648	-5.46
725.674	5.54
725.699	-8.46
725.725	2.54
725.75	43.54
725.776	-7.46
725.802	3.54
725.827	3.54
725.853	-0.46
725.878	8.54
725.904	-2.46
725.93	0.54
725.955	1.54
725.981	-12.46
726.006	-5.46
726.032	12.54
726.057	-6.46
726.083	2.54
726.109	-1.46
726.134	22.54
726.16	0.54
726.185	-5.46
726.211	-9.46
726.236	11.54
726.262	9.54
726.288	6.54
726.313	11.54
726.339	7.54
726.364	1.54
726.39	20.54
726.415	12.54
726.441	-13.46
726.466	-0.46
726.492	-0.46
726.517	7.54
726.543	-0.46
726.568	-14.46
726.594	4.54
726.619	24.54
726.645	10.54
726.67	9.54
726.696	17.54
726.721	-5.46
726.747	-11.46
726.772	0.54
726.798	4.54
726.823	18.54
726.849	1.54
726.874	22.54
726.9	27.54
726.925	0.54
726.951	-11.46
726.976	9.54
727.002	16.54
727.027	6.54
727.053	-7.46
727.078	-7.46
727.104	15.54
727.129	-11.46
727.155	-3.46
727.18	5.54
727.205	3.54
727.231	5.54
727.256	6.54
727.282	4.54
727.307	12.54
727.333	8.54
727.358	-10.46
727.383	-5.46
727.409	-3.46
727.434	9.54
727.46	-15.46
727.485	-12.46
727.511	9.54
727.536	-11.46
727.561	-19.46
727.587	-11.46
727.612	-12.46
727.637	2.54
727.663	1.54
727.688	3.54
727.714	-6.46
727.739	-11.46
727.764	-4.46
727.79	19.54
727.815	10.54
727.841	4.54
727.866	4.54
727.891	-8.46
727.917	0.54
727.942	10.54
727.967	9.54
727.993	-15.46
728.018	25.54
728.043	8.54
728.069	-2.46
728.094	0.54
728.119	0.54
728.145	26.54
728.17	8.54
728.195	9.54
728.221	15.54
728.246	-2.46
728.271	-9.46
728.297	-4.46
728.322	5.54
728.347	-0.46
728.373	8.54
728.398	8.54
728.423	-8.46
728.448	6.54
728.474	-1.46
728.499	13.54
728.524	3.54
728.55	2.54
728.575	2.54
728.6	6.54
728.625	-5.46
728.651	6.54
728.676	-4.46
728.701	-14.46
728.727	-8.46
728.752	-17.46
728.777	8.54
728.802	15.54
728.828	19.54
728.853	-1.46
728.878	5.54
728.903	-0.46
728.929	-5.46
728.954	-0.46
728.979	15.54
729.004	9.54
729.03	6.54
729.055	17.54
729.08	3.54
729.105	-5.46
729.13	10.54
729.156	3.54
729.181	3.54
729.206	-13.46
729.231	-10.46
729.256	20.54
729.282	5.54
729.307	-10.46
729.332	12.54
729.357	14.54
729.382	8.54
729.408	1.54
729.433	7.54
729.458	10.54
729.483	-3.46
729.508	14.54
729.533	2.54
729.559	7.54
729.584	-11.46
729.609	10.54
729.634	26.54
729.659	-4.46
729.684	-10.46
729.71	23.54
729.735	8.54
729.76	15.54
729.785	5.54
729.81	18.54
729.835	8.54
729.86	-1.46
729.886	18.54
729.911	23.54
729.936	7.54
729.961	30.54
729.986	19.54
730.011	48.54
730.036	222.54
730.061	1018.54
730.086	2721.54
730.112	3394.54
730.137	2892.54
730.162	2161.54
730.187	1659.54
730.212	1255.54
730.237	810.54
730.262	465.54
730.287	250.54
730.312	159.54
730.337	58.54
730.362	74.54
730.387	62.54
730.413	17.54
730.438	16.54
730.463	19.54
730.488	12.54
730.513	8.54
730.538	4.54
730.563	12.54
730.588	13.54
730.613	21.54
730.638	11.54
730.663	13.54
730.688	20.54
730.713	12.54
730.738	6.54
730.763	2.54
730.788	-15.46
730.813	8.54
730.838	-0.46
730.863	18.54
730.888	-4.46
730.913	-1.46
730.938	2.54
730.963	26.54
730.988	126.54
731.013	416.54
731.038	612.54
731.063	596.54
731.088	457.54
731.113	369.54
731.138	294.54
731.163	208.54
731.188	111.54
731.213	51.54
731.238	43.54
731.263	24.54
731.288	16.54
731.313	16.54
731.338	6.54
731.363	10.54
731.388	10.54
731.413	8.54
731.438	25.54
731.463	15.54
731.487	20.54
731.512	2.54
731.537	4.54
731.562	12.54
731.587	12.54
731.612	0.54
731.637	-9.46
731.662	0.54
731.687	13.54
731.712	3.54
731.737	3.54
731.762	3.54
731.786	10.54
731.811	3.54
731.836	1.54
731.861	16.54
731.886	-3.46
731.911	1.54
731.936	19.54
731.961	8.54
731.986	14.54
732.01	-4.46
732.035	1.54
732.06	28.54
732.085	-0.46
732.11	3.54
732.135	0.54
732.16	-0.46
732.184	5.54
732.209	15.54
732.234	9.54
732.259	-0.46
732.284	17.54
732.309	7.54
732.334	7.54
732.358	-9.46
732.383	-11.46
732.408	8.54
732.433	10.54
732.458	5.54
732.482	11.54
732.507	9.54
732.532	-4.46
732.557	8.54
732.582	18.54
732.607	30.54
732.631	55.54
732.656	84.54
732.681	149.54
732.706	343.54
732.73	466.54
732.755	416.54
732.78	310.54
732.805	222.54
732.83	195.54
732.854	131.54
732.879	80.54
732.904	46.54
732.929	24.54
732.953	16.54
732.978	-0.46
733.003	-8.46
733.028	-1.46
733.052	8.54
733.077	10.54
733.102	11.54
733.127	2.54
733.151	-5.46
733.176	7.54
733.201	9.54
733.226	2.54
733.25	15.54
733.275	-4.46
733.3	1.54
733.324	18.54
733.349	7.54
733.374	23.54
733.399	2.54
733.423	1.54
733.448	-8.46
733.473	-8.46
733.497	-4.46
733.522	4.54
733.547	16.54
733.571	15.54
733.596	1.54
733.621	1.54
733.646	-2.46
733.67	10.54
733.695	-3.46
733.72	6.54
733.744	-0.46
733.769	5.54
733.794	16.54
733.818	-10.46
733.843	3.54
733.867	2.54
733.892	-13.46
733.917	2.54
733.941	10.54
733.966	-12.46
733.991	4.54
734.015	11.54
734.04	8.54
734.065	2.54
734.089	-3.46
734.114	-6.46
734.138	-3.46
734.163	1.54
734.188	-0.46
734.212	0.54
734.237	9.54
734.261	5.54
734.286	7.54
734.311	3.54
734.335	13.54
734.36	-9.46
734.384	1.54
734.409	3.54
734.434	4.54
734.458	10.54
734.483	6.54
734.507	-19.46
734.532	-4.46
734.556	-0.46
734.581	-3.46
734.606	6.54
734.63	-14.46
734.655	-3.46
734.679	-3.46
734.704	-0.46
734.728	-10.46
734.753	-19.46
734.777	-7.46
734.802	10.54
734.826	2.54
734.851	-1.46
734.876	11.54
734.9	12.54
734.925	12.54
734.949	13.54
734.974	-7.46
734.998	20.54
735.023	8.54
735.047	-0.46
735.072	5.54
735.096	4.54
735.121	-0.46
735.145	0.54
735.17	12.54
735.194	9.54
735.219	0.54
735.243	13.54
735.268	21.54
735.292	7.54
735.317	7.54
735.341	16.54
735.365	8.54
735.39	10.54
735.414	-7.46
735.439	11.54
735.463	-1.46
735.488	2.54
735.512	6.54
735.537	1.54
735.561	-0.46
735.586	-3.46
735.61	8.54
735.634	0.54
735.659	2.54
735.683	28.54
735.708	6.54
735.732	0.54
735.757	0.54
735.781	8.54
735.805	-4.46
735.83	-11.46
735.854	-3.46
735.879	6.54
735.903	-1.46
735.927	10.54
735.952	6.54
735.976	-6.46
736.001	5.54
736.025	-1.46
736.049	5.54
736.074	-0.46
736.098	6.54
736.123	-9.46
736.147	-0.46
736.171	10.54
736.196	15.54
736.22	-5.46
736.244	12.54
736.269	-1.46
736.293	-7.46
736.317	6.54
736.342	15.54
736.366	14.54
736.39	16.54
736.415	6.54
736.439	-0.46
736.463	1.54
736.488	11.54
736.512	13.54
736.536	8.54
736.561	11.54
736.585	13.54
736.609	-0.46
736.634	1.54
736.658	1.54
736.682	-7.46
736.707	-14.46
736.731	-5.46
736.755	5.54
736.78	16.54
736.804	18.54
736.828	6.54
736.852	-4.46
736.877	15.54
736.901	0.54
736.925	4.54
736.949	14.54
736.974	4.54
736.998	-6.46
737.022	5.54
737.047	-1.46
737.071	14.54
737.095	26.54
737.119	31.54
737.144	20.54
737.168	0.54
737.192	7.54
737.216	16.54
737.241	-3.46
737.265	9.54
737.289	-1.46
737.313	7.54
737.337	-0.46
737.362	4.54
737.386	-6.46
737.41	-6.46
737.434	5.54
737.459	-7.46
737.483	7.54
737.507	29.54
737.531	10.54
737.555	-5.46
737.58	22.54
737.604	6.54
737.628	-4.46
737.652	5.54
737.676	6.54
737.701	3.54
737.725	0.54
737.749	9.54
737.773	11.54
737.797	-5.46
737.821	1.54
737.846	14.54
737.87	12.54
737.894	-9.46
737.918	7.54
737.942	-0.46
737.966	-6.46
737.99	6.54
738.015	18.54
738.039	15.54
738.063	2.54
738.087	25.54
738.111	-6.46
738.135	13.54
738.159	-5.46
738.184	-5.46
738.208	6.54
738.232	20.54
738.256	10.54
738.28	3.54
738.304	18.54
738.328	-12.46
738.352	-5.46
738.376	-6.46
738.4	-10.46
738.425	14.54
738.449	-0.46
738.473	15.54
738.497	14.54
738.521	2.54
738.545	6.54
738.569	29.54
738.593	14.54
738.617	12.54
738.641	-4.46
738.665	-1.46
738.689	-1.46
738.713	0.54
738.737	14.54
738.762	36.54
738.786	-0.46
738.81	-12.46
738.834	-4.46
738.858	6.54
738.882	10.54
738.906	3.54
738.93	12.54
738.954	11.54
738.978	19.54
739.002	10.54
739.026	11.54
739.05	9.54
739.074	-3.46
739.098	32.54
739.122	13.54
739.146	2.54
739.17	16.54
739.194	15.54
739.218	-11.46
739.242	2.54
739.266	-3.46
739.29	16.54
739.314	-7.46
739.338	9.54
739.362	12.54
739.386	-8.46
739.41	-21.46
739.434	1.54
739.458	18.54
739.482	-2.46
739.506	-12.46
739.53	8.54
739.554	14.54
739.577	3.54
739.601	0.54
739.625	-25.46
739.649	-8.46
739.673	-8.46
739.697	-0.46
739.721	3.54
739.745	11.54
739.769	16.54
739.793	15.54
739.817	18.54
739.841	-12.46
739.865	9.54
739.889	1.54
739.912	3.54
739.936	-5.46
739.96	-9.46
739.984	4.54
740.008	14.54
740.032	2.54
740.056	-12.46
740.08	10.54
740.104	-4.46
740.127	11.54
740.151	7.54
740.175	2.54
740.199	14.54
740.223	30.54
740.247	16.54
740.271	5.54
740.295	0.54
740.318	2.54
740.342	-4.46
740.366	5.54
740.39	-1.46
740.414	-12.46
740.438	-6.46
740.461	15.54
740.485	11.54
740.509	-10.46
740.533	5.54
740.557	-11.46
740.581	-8.46
740.604	-9.46
740.628	-1.46
740.652	4.54
740.676	-4.46
740.7	19.54
740.723	4.54
740.747	-4.46
740.771	11.54
740.795	-8.46
740.819	2.54
740.842	4.54
740.866	15.54
740.89	-3.46
740.914	6.54
740.938	5.54
740.961	0.54
740.985	-6.46
741.009	-5.46
741.033	8.54
741.056	10.54
741.08	-4.46
741.104	-3.46
741.128	12.54
741.151	-3.46
741.175	-0.46
741.199	6.54
741.223	12.54
741.246	-13.46
741.27	6.54
741.294	12.54
741.318	3.54
741.341	4.54
741.365	-0.46
741.389	-7.46
741.413	4.54
741.436	22.54
741.46	1.54
741.484	4.54
741.507	-8.46
741.531	34.54
741.555	10.54
741.579	3.54
741.602	4.54
741.626	-1.46
741.65	-9.46
741.673	0.54
741.697	18.54
741.721	5.54
741.744	-13.46
741.768	-2.46
741.792	10.54
741.815	13.54
741.839	28.54
741.863	12.54
741.886	11.54
741.91	-1.46
741.934	1.54
741.957	-21.46
741.981	9.54
742.005	-3.46
742.028	3.54
742.052	-0.46
742.075	6.54
742.099	16.54
742.123	-1.46
742.146	-1.46
742.17	5.54
742.194	-17.46
742.217	-7.46
742.241	6.54
742.264	2.54
742.288	31.54
742.312	11.54
742.335	10.54
742.359	6.54
742.382	18.54
742.406	27.54
742.43	-15.46
742.453	10.54
742.477	-1.46
742.5	11.54
742.524	-5.46
742.548	-15.46
742.571	2.54
742.595	2.54
742.618	-1.46
742.642	-3.46
742.665	0.54
742.689	-8.46
742.712	3.54
742.736	-11.46
742.76	-6.46
742.783	-11.46
742.807	7.54
742.83	18.54
742.854	-10.46
742.877	3.54
742.901	5.54
742.924	-4.46
742.948	-7.46
742.971	-4.46
742.995	-4.46
743.018	-11.46
743.042	-4.46
743.065	1.54
743.089	3.54
743.112	-1.46
743.136	-4.46
743.159	-15.46
743.183	3.54
743.206	-6.46
743.23	-8.46
743.253	-1.46
743.277	6.54
743.3	7.54
743.324	-5.46
743.347	-11.46
743.371	6.54
743.394	17.54
743.418	20.54
743.441	15.54
743.465	18.54
743.488	8.54
743.512	-0.46
743.535	-9.46
743.558	5.54
743.582	-2.46
743.605	-1.46
743.629	-1.46
743.652	3.54
743.676	4.54
743.699	16.54
743.723	2.54
743.746	12.54
743.769	-4.46
743.793	-0.46
743.816	0.54
743.84	16.54
743.863	8.54
743.886	6.54
743.91	8.54
743.933	2.54
743.957	-4.46
743.98	-5.46
744.003	-0.46
744.027	14.54
744.05	-12.46
744.074	-1.46
744.097	-9.46
744.12	6.54
744.144	-6.46
744.167	10.54
744.19	9.54
744.214	-5.46
744.237	-15.46
744.26	18.54
744.284	-6.46
744.307	-14.46
744.331	2.54
744.354	-22.46
744.377	-10.46
744.401	-0.46
744.424	-6.46
744.447	-12.46
744.471	2.54
