Data from HighRes_mercury_15_13_11_07_2024_HR4C61891__56__15-14-28-786.txt Node

Date: Thu Nov 07 15:14:28 EST 2024
User: crc00042
Spectrometer: HR4C6189
Trigger mode: 4
Integration Time (sec): 1.000000E-1
Scans to average: 1
Electric dark correction enabled: true
Nonlinearity correction enabled: false
Boxcar width: 0
XAxis mode: Wavelengths
Number of Pixels in Spectrum: 3648
>>>>>Begin Spectral Data<<<<<
639.567	-60.77
639.602	-60.77
639.636	-60.77
639.67	-51.77
639.704	-12.77
639.738	11.23
639.773	3.23
639.807	-21.77
639.841	1.23
639.875	9.23
639.909	9.23
639.943	3.23
639.978	-1.77
640.012	-7.77
640.046	4.23
640.08	7.23
640.114	1.23
640.148	-18.77
640.182	-7.77
640.217	12.23
640.251	20.23
640.285	3.23
640.319	-10.77
640.353	-2.77
640.387	13.23
640.421	-8.77
640.455	-4.77
640.49	-23.77
640.524	1.23
640.558	17.23
640.592	0.23
640.626	15.23
640.66	7.23
640.694	-8.77
640.728	-4.77
640.762	1.23
640.796	19.23
640.83	15.23
640.865	-6.77
640.899	5.23
640.933	-6.77
640.967	5.23
641.001	8.23
641.035	9.23
641.069	18.23
641.103	-1.77
641.137	-2.77
641.171	-9.77
641.205	8.23
641.239	-2.77
641.273	10.23
641.307	11.23
641.341	6.23
641.375	12.23
641.409	-1.77
641.443	2.23
641.477	2.23
641.511	17.23
641.545	13.23
641.579	2.23
641.614	2.23
641.648	-0.77
641.682	-5.77
641.716	5.23
641.75	13.23
641.784	7.23
641.818	3.23
641.852	9.23
641.886	-9.77
641.919	29.23
641.953	8.23
641.987	-9.77
642.021	-13.77
642.055	0.23
642.089	-2.77
642.123	3.23
642.157	-7.77
642.191	-0.77
642.225	1.23
642.259	-6.77
642.293	2.23
642.327	8.23
642.361	-5.77
642.395	1.23
642.429	10.23
642.463	12.23
642.497	8.23
642.531	6.23
642.565	0.23
642.599	4.23
642.633	-2.77
642.666	1.23
642.7	10.23
642.734	13.23
642.768	-12.77
642.802	10.23
642.836	9.23
642.87	7.23
642.904	13.23
642.938	7.23
642.972	7.23
643.005	9.23
643.039	21.23
643.073	-8.77
643.107	5.23
643.141	-6.77
643.175	-0.77
643.209	9.23
643.243	-9.77
643.276	-10.77
643.31	-2.77
643.344	-6.77
643.378	-5.77
643.412	9.23
643.446	9.23
643.48	10.23
643.513	5.23
643.547	-2.77
643.581	-6.77
643.615	13.23
643.649	5.23
643.683	11.23
643.716	-7.77
643.75	21.23
643.784	-10.77
643.818	17.23
643.852	-0.77
643.886	-0.77
643.919	10.23
643.953	-1.77
643.987	-3.77
644.021	15.23
644.055	8.23
644.088	-2.77
644.122	-17.77
644.156	-8.77
644.19	-0.77
644.224	-3.77
644.257	-7.77
644.291	0.23
644.325	5.23
644.359	-3.77
644.392	29.23
644.426	22.23
644.46	3.23
644.494	15.23
644.527	-2.77
644.561	6.23
644.595	-6.77
644.629	0.23
644.662	7.23
644.696	2.23
644.73	12.23
644.764	-3.77
644.797	-6.77
644.831	3.23
644.865	5.23
644.899	-7.77
644.932	26.23
644.966	-7.77
645	21.23
645.033	15.23
645.067	-9.77
645.101	1.23
645.135	8.23
645.168	18.23
645.202	9.23
645.236	-1.77
645.269	-1.77
645.303	-8.77
645.337	-5.77
645.37	-14.77
645.404	4.23
645.438	10.23
645.471	-10.77
645.505	4.23
645.539	-6.77
645.572	-16.77
645.606	-14.77
645.64	-1.77
645.673	-2.77
645.707	18.23
645.741	17.23
645.774	-3.77
645.808	6.23
645.842	6.23
645.875	7.23
645.909	-7.77
645.943	-12.77
645.976	1.23
646.01	6.23
646.043	10.23
646.077	7.23
646.111	7.23
646.144	0.23
646.178	14.23
646.212	-3.77
646.245	8.23
646.279	1.23
646.312	3.23
646.346	25.23
646.38	-2.77
646.413	4.23
646.447	-5.77
646.48	7.23
646.514	3.23
646.547	-4.77
646.581	0.23
646.615	15.23
646.648	-13.77
646.682	-0.77
646.715	-1.77
646.749	9.23
646.782	-17.77
646.816	-12.77
646.85	5.23
646.883	-2.77
646.917	-0.77
646.95	-7.77
646.984	2.23
647.017	4.23
647.051	4.23
647.084	-3.77
647.118	-7.77
647.151	-7.77
647.185	4.23
647.218	-15.77
647.252	-0.77
647.285	-9.77
647.319	-9.77
647.353	5.23
647.386	18.23
647.42	1.23
647.453	-4.77
647.487	19.23
647.52	7.23
647.553	17.23
647.587	5.23
647.62	-1.77
647.654	11.23
647.687	5.23
647.721	18.23
647.754	-3.77
647.788	-8.77
647.821	-1.77
647.855	-0.77
647.888	13.23
647.922	0.23
647.955	-0.77
647.989	8.23
648.022	-2.77
648.055	10.23
648.089	3.23
648.122	7.23
648.156	4.23
648.189	10.23
648.223	14.23
648.256	23.23
648.29	-1.77
648.323	5.23
648.356	1.23
648.39	-8.77
648.423	6.23
648.457	-9.77
648.49	6.23
648.523	11.23
648.557	-7.77
648.59	2.23
648.624	4.23
648.657	6.23
648.69	-1.77
648.724	3.23
648.757	14.23
648.791	-0.77
648.824	-3.77
648.857	23.23
648.891	10.23
648.924	17.23
648.957	11.23
648.991	-6.77
649.024	-10.77
649.057	-11.77
649.091	-7.77
649.124	8.23
649.158	16.23
649.191	16.23
649.224	15.23
649.258	1.23
649.291	8.23
649.324	25.23
649.358	-3.77
649.391	4.23
649.424	0.23
649.458	-3.77
649.491	2.23
649.524	-9.77
649.557	2.23
649.591	-14.77
649.624	0.23
649.657	-5.77
649.691	7.23
649.724	-3.77
649.757	3.23
649.791	-5.77
649.824	14.23
649.857	-9.77
649.89	2.23
649.924	-15.77
649.957	-15.77
649.99	-21.77
650.023	-10.77
650.057	7.23
650.09	6.23
650.123	2.23
650.157	8.23
650.19	29.23
650.223	-7.77
650.256	-8.77
650.29	-3.77
650.323	2.23
650.356	11.23
650.389	-1.77
650.423	-13.77
650.456	-1.77
650.489	-4.77
650.522	9.23
650.555	8.23
650.589	3.23
650.622	13.23
650.655	8.23
650.688	10.23
650.721	-4.77
650.755	8.23
650.788	2.23
650.821	7.23
650.854	1.23
650.887	-2.77
650.921	11.23
650.954	-17.77
650.987	-4.77
651.02	-4.77
651.053	1.23
651.087	-23.77
651.12	18.23
651.153	19.23
651.186	5.23
651.219	-9.77
651.252	9.23
651.286	-2.77
651.319	-14.77
651.352	-2.77
651.385	-4.77
651.418	9.23
651.451	-8.77
651.484	17.23
651.518	-10.77
651.551	11.23
651.584	-13.77
651.617	20.23
651.65	11.23
651.683	-0.77
651.716	-0.77
651.749	-9.77
651.783	-5.77
651.816	16.23
651.849	5.23
651.882	9.23
651.915	-15.77
651.948	6.23
651.981	1.23
652.014	7.23
652.047	-11.77
652.08	-16.77
652.114	4.23
652.147	-12.77
652.18	-12.77
652.213	17.23
652.246	-11.77
652.279	-13.77
652.312	9.23
652.345	3.23
652.378	8.23
652.411	8.23
652.444	-1.77
652.477	-8.77
652.51	-3.77
652.543	-10.77
652.576	9.23
652.609	-27.77
652.642	-5.77
652.675	13.23
652.709	9.23
652.742	25.23
652.775	7.23
652.808	6.23
652.841	5.23
652.874	6.23
652.907	5.23
652.94	1.23
652.973	-6.77
653.006	-17.77
653.039	-4.77
653.072	2.23
653.105	-6.77
653.138	-14.77
653.171	-12.77
653.204	-17.77
653.237	-4.77
653.27	-16.77
653.303	17.23
653.336	1.23
653.368	0.23
653.401	8.23
653.434	-17.77
653.467	2.23
653.5	-7.77
653.533	-11.77
653.566	-5.77
653.599	-3.77
653.632	-2.77
653.665	6.23
653.698	-15.77
653.731	-5.77
653.764	-10.77
653.797	2.23
653.83	4.23
653.863	8.23
653.896	1.23
653.929	-7.77
653.961	3.23
653.994	-0.77
654.027	-14.77
654.06	21.23
654.093	18.23
654.126	4.23
654.159	-12.77
654.192	-11.77
654.225	-8.77
654.258	-2.77
654.29	5.23
654.323	-11.77
654.356	-15.77
654.389	0.23
654.422	-5.77
654.455	-6.77
654.488	-0.77
654.521	-22.77
654.553	-17.77
654.586	6.23
654.619	-0.77
654.652	-8.77
654.685	14.23
654.718	13.23
654.751	15.23
654.783	-10.77
654.816	0.23
654.849	0.23
654.882	-6.77
654.915	1.23
654.948	9.23
654.98	-2.77
655.013	2.23
655.046	-5.77
655.079	-12.77
655.112	3.23
655.144	-7.77
655.177	10.23
655.21	3.23
655.243	5.23
655.276	2.23
655.308	-1.77
655.341	-7.77
655.374	-8.77
655.407	-16.77
655.44	-8.77
655.472	-0.77
655.505	0.23
655.538	-5.77
655.571	3.23
655.603	11.23
655.636	-5.77
655.669	-6.77
655.702	-1.77
655.734	-27.77
655.767	-13.77
655.8	9.23
655.833	9.23
655.865	2.23
655.898	-7.77
655.931	-8.77
655.964	2.23
655.996	-0.77
656.029	13.23
656.062	2.23
656.095	-8.77
656.127	-24.77
656.16	-0.77
656.193	-8.77
656.225	4.23
656.258	9.23
656.291	4.23
656.324	12.23
656.356	4.23
656.389	20.23
656.422	10.23
656.454	1.23
656.487	-11.77
656.52	0.23
656.552	3.23
656.585	2.23
656.618	19.23
656.65	21.23
656.683	6.23
656.716	-0.77
656.748	-5.77
656.781	-0.77
656.814	-2.77
656.846	9.23
656.879	-7.77
656.912	0.23
656.944	-7.77
656.977	-18.77
657.01	-7.77
657.042	-3.77
657.075	2.23
657.108	-2.77
657.14	11.23
657.173	13.23
657.205	45.23
657.238	20.23
657.271	4.23
657.303	-2.77
657.336	-4.77
657.369	3.23
657.401	-6.77
657.434	7.23
657.466	-2.77
657.499	6.23
657.532	-13.77
657.564	6.23
657.597	-17.77
657.629	7.23
657.662	9.23
657.694	3.23
657.727	-21.77
657.76	-0.77
657.792	-27.77
657.825	1.23
657.857	1.23
657.89	-9.77
657.922	8.23
657.955	-3.77
657.987	3.23
658.02	7.23
658.053	16.23
658.085	8.23
658.118	17.23
658.15	2.23
658.183	4.23
658.215	-12.77
658.248	-10.77
658.28	-5.77
658.313	6.23
658.345	11.23
658.378	4.23
658.41	-5.77
658.443	2.23
658.475	-2.77
658.508	-0.77
658.54	-5.77
658.573	-2.77
658.605	-8.77
658.638	-3.77
658.67	-11.77
658.703	-8.77
658.735	-1.77
658.768	10.23
658.8	-6.77
658.833	0.23
658.865	7.23
658.898	3.23
658.93	-1.77
658.963	-1.77
658.995	-18.77
659.028	0.23
659.06	-0.77
659.092	-7.77
659.125	1.23
659.157	8.23
659.19	-11.77
659.222	-0.77
659.255	2.23
659.287	1.23
659.32	2.23
659.352	15.23
659.384	5.23
659.417	-4.77
659.449	16.23
659.482	3.23
659.514	-13.77
659.546	-0.77
659.579	-17.77
659.611	0.23
659.644	0.23
659.676	-10.77
659.708	2.23
659.741	-15.77
659.773	21.23
659.806	19.23
659.838	5.23
659.87	11.23
659.903	-7.77
659.935	17.23
659.967	-0.77
660	10.23
660.032	-29.77
660.065	8.23
660.097	-3.77
660.129	1.23
660.162	-2.77
660.194	-2.77
660.226	1.23
660.259	7.23
660.291	6.23
660.323	1.23
660.356	2.23
660.388	0.23
660.42	6.23
660.453	8.23
660.485	14.23
660.517	2.23
660.55	17.23
660.582	0.23
660.614	17.23
660.647	-15.77
660.679	-0.77
660.711	3.23
660.743	-2.77
660.776	-10.77
660.808	-32.77
660.84	-6.77
660.873	1.23
660.905	3.23
660.937	10.23
660.969	-7.77
661.002	-0.77
661.034	2.23
661.066	4.23
661.099	3.23
661.131	10.23
661.163	-1.77
661.195	-2.77
661.228	20.23
661.26	8.23
661.292	8.23
661.324	10.23
661.357	16.23
661.389	9.23
661.421	-9.77
661.453	-3.77
661.485	-3.77
661.518	1.23
661.55	-5.77
661.582	-17.77
661.614	1.23
661.647	10.23
661.679	-6.77
661.711	10.23
661.743	-4.77
661.775	2.23
661.808	24.23
661.84	5.23
661.872	3.23
661.904	-3.77
661.936	-2.77
661.969	-2.77
662.001	0.23
662.033	1.23
662.065	-4.77
662.097	15.23
662.129	-1.77
662.162	-20.77
662.194	3.23
662.226	-0.77
662.258	5.23
662.29	2.23
662.322	-5.77
662.355	-17.77
662.387	26.23
662.419	8.23
662.451	14.23
662.483	15.23
662.515	6.23
662.547	9.23
662.58	-0.77
662.612	-2.77
662.644	-9.77
662.676	13.23
662.708	13.23
662.74	0.23
662.772	6.23
662.804	16.23
662.836	11.23
662.869	-9.77
662.901	2.23
662.933	6.23
662.965	10.23
662.997	10.23
663.029	1.23
663.061	-2.77
663.093	-17.77
663.125	2.23
663.157	12.23
663.189	-4.77
663.221	4.23
663.254	-1.77
663.286	7.23
663.318	-4.77
663.35	-2.77
663.382	7.23
663.414	0.23
663.446	12.23
663.478	-10.77
663.51	36.23
663.542	-1.77
663.574	7.23
663.606	2.23
663.638	-5.77
663.67	-9.77
663.702	8.23
663.734	1.23
663.766	11.23
663.798	-1.77
663.83	0.23
663.862	3.23
663.894	3.23
663.926	4.23
663.958	1.23
663.99	3.23
664.022	-19.77
664.054	12.23
664.086	-7.77
664.118	-1.77
664.15	-3.77
664.182	2.23
664.214	-2.77
664.246	8.23
664.278	-5.77
664.31	15.23
664.342	2.23
664.374	7.23
664.406	9.23
664.438	-4.77
664.47	3.23
664.502	5.23
664.534	0.23
664.566	4.23
664.598	5.23
664.63	-1.77
664.662	-0.77
664.693	0.23
664.725	-14.77
664.757	-15.77
664.789	1.23
664.821	12.23
664.853	5.23
664.885	-11.77
664.917	-12.77
664.949	22.23
664.981	28.23
665.013	9.23
665.045	-5.77
665.076	-2.77
665.108	2.23
665.14	-1.77
665.172	-9.77
665.204	-7.77
665.236	6.23
665.268	5.23
665.3	-5.77
665.331	-17.77
665.363	-11.77
665.395	-10.77
665.427	-7.77
665.459	0.23
665.491	10.23
665.523	-3.77
665.555	-7.77
665.586	-1.77
665.618	-10.77
665.65	-2.77
665.682	5.23
665.714	-13.77
665.746	-10.77
665.777	-3.77
665.809	-2.77
665.841	9.23
665.873	-7.77
665.905	13.23
665.937	3.23
665.968	9.23
666	5.23
666.032	0.23
666.064	-25.77
666.096	-6.77
666.127	-10.77
666.159	6.23
666.191	26.23
666.223	8.23
666.255	3.23
666.286	20.23
666.318	-5.77
666.35	4.23
666.382	4.23
666.413	1.23
666.445	-14.77
666.477	-12.77
666.509	4.23
666.54	3.23
666.572	7.23
666.604	-9.77
666.636	15.23
666.667	19.23
666.699	17.23
666.731	2.23
666.763	-5.77
666.794	1.23
666.826	2.23
666.858	-10.77
666.89	11.23
666.921	-6.77
666.953	-2.77
666.985	12.23
667.017	11.23
667.048	13.23
667.08	2.23
667.112	-0.77
667.143	-0.77
667.175	-1.77
667.207	-8.77
667.238	-2.77
667.27	0.23
667.302	0.23
667.334	-17.77
667.365	13.23
667.397	3.23
667.429	-0.77
667.46	13.23
667.492	10.23
667.524	-2.77
667.555	8.23
667.587	-2.77
667.619	-4.77
667.65	-2.77
667.682	-4.77
667.714	7.23
667.745	-5.77
667.777	-7.77
667.808	-16.77
667.84	14.23
667.872	1.23
667.903	12.23
667.935	-7.77
667.967	2.23
667.998	3.23
668.03	3.23
668.061	13.23
668.093	-10.77
668.125	2.23
668.156	0.23
668.188	-2.77
668.22	-20.77
668.251	5.23
668.283	-5.77
668.314	7.23
668.346	-1.77
668.377	11.23
668.409	19.23
668.441	18.23
668.472	0.23
668.504	3.23
668.535	3.23
668.567	19.23
668.599	11.23
668.63	0.23
668.662	-17.77
668.693	8.23
668.725	7.23
668.756	-2.77
668.788	-4.77
668.819	0.23
668.851	2.23
668.882	0.23
668.914	6.23
668.946	-2.77
668.977	-15.77
669.009	-8.77
669.04	-17.77
669.072	13.23
669.103	5.23
669.135	-3.77
669.166	7.23
669.198	2.23
669.229	12.23
669.261	4.23
669.292	11.23
669.324	1.23
669.355	2.23
669.387	1.23
669.418	7.23
669.45	-4.77
669.481	0.23
669.513	1.23
669.544	8.23
669.576	7.23
669.607	2.23
669.639	15.23
669.67	-3.77
669.701	10.23
669.733	-1.77
669.764	-16.77
669.796	-7.77
669.827	1.23
669.859	-1.77
669.89	2.23
669.922	23.23
669.953	-11.77
669.985	-5.77
670.016	8.23
670.047	8.23
670.079	-11.77
670.11	9.23
670.142	3.23
670.173	-5.77
670.204	-9.77
670.236	-5.77
670.267	-14.77
670.299	-8.77
670.33	5.23
670.362	-2.77
670.393	-11.77
670.424	-5.77
670.456	-6.77
670.487	2.23
670.518	-0.77
670.55	5.23
670.581	-7.77
670.613	12.23
670.644	-19.77
670.675	-17.77
670.707	-12.77
670.738	-2.77
670.769	5.23
670.801	-6.77
670.832	7.23
670.864	-6.77
670.895	0.23
670.926	0.23
670.958	-12.77
670.989	-12.77
671.02	1.23
671.052	-5.77
671.083	-0.77
671.114	-6.77
671.146	11.23
671.177	17.23
671.208	-11.77
671.24	-0.77
671.271	1.23
671.302	2.23
671.333	-2.77
671.365	-18.77
671.396	-11.77
671.427	1.23
671.459	12.23
671.49	7.23
671.521	8.23
671.553	5.23
671.584	-1.77
671.615	8.23
671.646	5.23
671.678	2.23
671.709	-0.77
671.74	-18.77
671.771	-7.77
671.803	10.23
671.834	5.23
671.865	-17.77
671.896	-1.77
671.928	0.23
671.959	-4.77
671.99	-17.77
672.021	-11.77
672.053	-10.77
672.084	9.23
672.115	10.23
672.146	-4.77
672.178	-14.77
672.209	-2.77
672.24	-2.77
672.271	23.23
672.303	-21.77
672.334	2.23
672.365	-17.77
672.396	-11.77
672.427	1.23
672.459	18.23
672.49	19.23
672.521	0.23
672.552	-1.77
672.583	7.23
672.615	17.23
672.646	11.23
672.677	-2.77
672.708	10.23
672.739	-6.77
672.77	18.23
672.802	2.23
672.833	0.23
672.864	-2.77
672.895	2.23
672.926	25.23
672.957	0.23
672.989	10.23
673.02	16.23
673.051	3.23
673.082	12.23
673.113	4.23
673.144	9.23
673.175	18.23
673.206	-4.77
673.238	3.23
673.269	-14.77
673.3	-6.77
673.331	1.23
673.362	-6.77
673.393	4.23
673.424	6.23
673.455	-1.77
673.487	-22.77
673.518	1.23
673.549	-5.77
673.58	-5.77
673.611	1.23
673.642	1.23
673.673	-15.77
673.704	1.23
673.735	-0.77
673.766	1.23
673.797	2.23
673.828	-3.77
673.86	-14.77
673.891	-24.77
673.922	-18.77
673.953	-5.77
673.984	-3.77
674.015	6.23
674.046	5.23
674.077	1.23
674.108	1.23
674.139	-6.77
674.17	-15.77
674.201	-15.77
674.232	-14.77
674.263	-7.77
674.294	-5.77
674.325	-11.77
674.356	7.23
674.387	9.23
674.418	4.23
674.449	-19.77
674.48	-5.77
674.511	3.23
674.542	3.23
674.573	-17.77
674.604	-6.77
674.635	-1.77
674.666	-0.77
674.697	9.23
674.728	6.23
674.759	2.23
674.79	-18.77
674.821	4.23
674.852	6.23
674.883	1.23
674.914	9.23
674.945	-0.77
674.976	18.23
675.007	-8.77
675.038	-24.77
675.069	-11.77
675.1	-10.77
675.131	-3.77
675.162	-1.77
675.193	-1.77
675.224	-0.77
675.254	-3.77
675.285	15.23
675.316	8.23
675.347	4.23
675.378	-12.77
675.409	-27.77
675.44	9.23
675.471	5.23
675.502	-0.77
675.533	-2.77
675.564	-1.77
675.595	8.23
675.625	3.23
675.656	1.23
675.687	-6.77
675.718	-15.77
675.749	3.23
675.78	1.23
675.811	4.23
675.842	5.23
675.873	3.23
675.903	-2.77
675.934	0.23
675.965	-16.77
675.996	-9.77
676.027	-1.77
676.058	-0.77
676.089	-12.77
676.119	-12.77
676.15	-7.77
676.181	1.23
676.212	-0.77
676.243	6.23
676.274	5.23
676.304	16.23
676.335	-8.77
676.366	4.23
676.397	-14.77
676.428	1.23
676.459	11.23
676.489	-14.77
676.52	5.23
676.551	-9.77
676.582	-4.77
676.613	7.23
676.643	-9.77
676.674	-8.77
676.705	8.23
676.736	5.23
676.767	6.23
676.797	10.23
676.828	-8.77
676.859	4.23
676.89	-10.77
676.92	-8.77
676.951	-0.77
676.982	7.23
677.013	-5.77
677.044	23.23
677.074	25.23
677.105	-5.77
677.136	11.23
677.167	3.23
677.197	8.23
677.228	4.23
677.259	-6.77
677.289	5.23
677.32	-0.77
677.351	-12.77
677.382	-11.77
677.412	-13.77
677.443	-8.77
677.474	1.23
677.505	-4.77
677.535	-3.77
677.566	-8.77
677.597	-11.77
677.627	-17.77
677.658	-5.77
677.689	-2.77
677.72	1.23
677.75	4.23
677.781	3.23
677.812	-8.77
677.842	-2.77
677.873	11.23
677.904	-3.77
677.934	-7.77
677.965	-17.77
677.996	-5.77
678.026	-4.77
678.057	-9.77
678.088	-0.77
678.118	-5.77
678.149	-14.77
678.18	-2.77
678.21	0.23
678.241	0.23
678.272	11.23
678.302	3.23
678.333	5.23
678.363	2.23
678.394	12.23
678.425	3.23
678.455	1.23
678.486	5.23
678.517	16.23
678.547	1.23
678.578	1.23
678.608	-15.77
678.639	9.23
678.67	2.23
678.7	-18.77
678.731	2.23
678.761	-2.77
678.792	-0.77
678.823	0.23
678.853	13.23
678.884	-9.77
678.914	1.23
678.945	15.23
678.975	-5.77
679.006	-4.77
679.037	-6.77
679.067	23.23
679.098	6.23
679.128	-8.77
679.159	-7.77
679.189	16.23
679.22	-0.77
679.25	5.23
679.281	-8.77
679.312	-8.77
679.342	10.23
679.373	26.23
679.403	9.23
679.434	8.23
679.464	-15.77
679.495	-7.77
679.525	-23.77
679.556	-8.77
679.586	4.23
679.617	12.23
679.647	-2.77
679.678	-6.77
679.708	-8.77
679.739	-1.77
679.769	-8.77
679.8	-1.77
679.83	4.23
679.861	-6.77
679.891	-2.77
679.922	-15.77
679.952	-17.77
679.983	0.23
680.013	11.23
680.044	-3.77
680.074	14.23
680.105	-2.77
680.135	-1.77
680.165	5.23
680.196	13.23
680.226	-0.77
680.257	7.23
680.287	10.23
680.318	-2.77
680.348	-6.77
680.379	8.23
680.409	1.23
680.439	-10.77
680.47	-2.77
680.5	2.23
680.531	6.23
680.561	12.23
680.592	-0.77
680.622	6.23
680.652	-1.77
680.683	4.23
680.713	-8.77
680.744	0.23
680.774	-8.77
680.804	10.23
680.835	-3.77
680.865	-2.77
680.896	17.23
680.926	17.23
680.956	0.23
680.987	-6.77
681.017	0.23
681.047	12.23
681.078	-9.77
681.108	3.23
681.139	-2.77
681.169	-11.77
681.199	9.23
681.23	8.23
681.26	-10.77
681.29	8.23
681.321	-0.77
681.351	6.23
681.381	-15.77
681.412	0.23
681.442	-0.77
681.472	4.23
681.503	5.23
681.533	8.23
681.563	-7.77
681.594	-0.77
681.624	-13.77
681.654	-11.77
681.685	-15.77
681.715	9.23
681.745	2.23
681.775	7.23
681.806	-1.77
681.836	9.23
681.866	-15.77
681.897	-1.77
681.927	-6.77
681.957	-29.77
681.987	4.23
682.018	3.23
682.048	6.23
682.078	-0.77
682.109	16.23
682.139	7.23
682.169	2.23
682.199	2.23
682.23	-14.77
682.26	0.23
682.29	-10.77
682.32	-1.77
682.351	8.23
682.381	-1.77
682.411	-2.77
682.441	-5.77
682.472	-20.77
682.502	-3.77
682.532	-3.77
682.562	0.23
682.592	8.23
682.623	16.23
682.653	9.23
682.683	-0.77
682.713	4.23
682.743	1.23
682.774	-1.77
682.804	5.23
682.834	2.23
682.864	-4.77
682.894	-5.77
682.925	-7.77
682.955	4.23
682.985	-3.77
683.015	4.23
683.045	11.23
683.076	-15.77
683.106	3.23
683.136	-6.77
683.166	3.23
683.196	-3.77
683.226	-1.77
683.257	-0.77
683.287	13.23
683.317	-1.77
683.347	-16.77
683.377	6.23
683.407	6.23
683.437	-10.77
683.468	-2.77
683.498	8.23
683.528	6.23
683.558	-6.77
683.588	3.23
683.618	-4.77
683.648	10.23
683.678	7.23
683.708	-2.77
683.739	-7.77
683.769	8.23
683.799	6.23
683.829	-2.77
683.859	-4.77
683.889	5.23
683.919	-6.77
683.949	5.23
683.979	-11.77
684.009	-10.77
684.039	-4.77
684.07	10.23
684.1	13.23
684.13	-2.77
684.16	3.23
684.19	-0.77
684.22	9.23
684.25	7.23
684.28	-10.77
684.31	3.23
684.34	14.23
684.37	8.23
684.4	-11.77
684.43	5.23
684.46	2.23
684.49	3.23
684.52	4.23
684.55	3.23
684.58	-0.77
684.61	14.23
684.64	3.23
684.67	11.23
684.7	11.23
684.73	5.23
684.76	-16.77
684.79	19.23
684.82	-1.77
684.85	-11.77
684.88	8.23
684.91	14.23
684.94	6.23
684.97	-11.77
685	-12.77
685.03	-2.77
685.06	-3.77
685.09	2.23
685.12	14.23
685.15	-9.77
685.18	9.23
685.21	6.23
685.24	17.23
685.27	8.23
685.3	2.23
685.33	-2.77
685.36	-4.77
685.39	-23.77
685.42	-14.77
685.45	2.23
685.48	1.23
685.51	1.23
685.54	7.23
685.569	23.23
685.599	6.23
685.629	-1.77
685.659	7.23
685.689	-4.77
685.719	4.23
685.749	-10.77
685.779	13.23
685.809	11.23
685.839	12.23
685.869	13.23
685.898	29.23
685.928	8.23
685.958	-9.77
685.988	10.23
686.018	9.23
686.048	7.23
686.078	13.23
686.108	7.23
686.137	11.23
686.167	1.23
686.197	-11.77
686.227	4.23
686.257	26.23
686.287	23.23
686.317	-0.77
686.346	-6.77
686.376	-11.77
686.406	4.23
686.436	17.23
686.466	-8.77
686.496	-0.77
686.525	4.23
686.555	0.23
686.585	18.23
686.615	21.23
686.645	5.23
686.675	5.23
686.704	10.23
686.734	8.23
686.764	9.23
686.794	9.23
686.824	-3.77
686.853	6.23
686.883	8.23
686.913	20.23
686.943	-0.77
686.973	-2.77
687.002	-5.77
687.032	13.23
687.062	-0.77
687.092	13.23
687.121	-10.77
687.151	2.23
687.181	-3.77
687.211	9.23
687.24	-17.77
687.27	-3.77
687.3	7.23
687.33	5.23
687.359	-22.77
687.389	-15.77
687.419	1.23
687.449	-5.77
687.478	-2.77
687.508	7.23
687.538	5.23
687.568	8.23
687.597	-7.77
687.627	2.23
687.657	-5.77
687.686	-0.77
687.716	30.23
687.746	-0.77
687.776	-0.77
687.805	-3.77
687.835	-18.77
687.865	9.23
687.894	13.23
687.924	3.23
687.954	-2.77
687.983	-6.77
688.013	0.23
688.043	9.23
688.072	6.23
688.102	18.23
688.132	-11.77
688.161	-10.77
688.191	-7.77
688.221	14.23
688.25	-2.77
688.28	18.23
688.31	-6.77
688.339	7.23
688.369	0.23
688.399	-6.77
688.428	3.23
688.458	12.23
688.488	-16.77
688.517	1.23
688.547	-4.77
688.576	37.23
688.606	1.23
688.636	6.23
688.665	1.23
688.695	6.23
688.725	11.23
688.754	16.23
688.784	9.23
688.813	4.23
688.843	2.23
688.873	1.23
688.902	13.23
688.932	-2.77
688.961	1.23
688.991	18.23
689.02	8.23
689.05	2.23
689.08	-1.77
689.109	1.23
689.139	-9.77
689.168	-1.77
689.198	14.23
689.227	4.23
689.257	-0.77
689.287	16.23
689.316	-1.77
689.346	2.23
689.375	-17.77
689.405	-1.77
689.434	-5.77
689.464	-3.77
689.493	4.23
689.523	5.23
689.552	-4.77
689.582	5.23
689.611	5.23
689.641	-13.77
689.67	-0.77
689.7	6.23
689.73	28.23
689.759	8.23
689.789	6.23
689.818	-2.77
689.848	-8.77
689.877	11.23
689.906	-2.77
689.936	3.23
689.965	5.23
689.995	8.23
690.024	10.23
690.054	5.23
690.083	8.23
690.113	-5.77
690.142	6.23
690.172	8.23
690.201	10.23
690.231	-4.77
690.26	-9.77
690.29	-3.77
690.319	4.23
690.348	3.23
690.378	13.23
690.407	-2.77
690.437	1.23
690.466	8.23
690.496	-3.77
690.525	2.23
690.555	-8.77
690.584	1.23
690.613	-4.77
690.643	16.23
690.672	11.23
690.702	8.23
690.731	-3.77
690.76	13.23
690.79	49.23
690.819	33.23
690.849	36.23
690.878	34.23
690.907	14.23
690.937	20.23
690.966	2.23
690.996	6.23
691.025	1.23
691.054	14.23
691.084	-2.77
691.113	11.23
691.142	21.23
691.172	10.23
691.201	2.23
691.23	8.23
691.26	10.23
691.289	10.23
691.319	-0.77
691.348	-11.77
691.377	23.23
691.407	15.23
691.436	13.23
691.465	8.23
691.495	3.23
691.524	0.23
691.553	5.23
691.583	-11.77
691.612	16.23
691.641	4.23
691.67	2.23
691.7	-6.77
691.729	-16.77
691.758	-0.77
691.788	5.23
691.817	10.23
691.846	-7.77
691.876	-1.77
691.905	14.23
691.934	10.23
691.963	23.23
691.993	11.23
692.022	-17.77
692.051	-16.77
692.081	4.23
692.11	13.23
692.139	-0.77
692.168	6.23
692.198	17.23
692.227	11.23
692.256	15.23
692.285	-2.77
692.315	4.23
692.344	3.23
692.373	2.23
692.402	-9.77
692.432	-3.77
692.461	-10.77
692.49	-4.77
692.519	-8.77
692.548	15.23
692.578	10.23
692.607	1.23
692.636	-12.77
692.665	15.23
692.694	14.23
692.724	-1.77
692.753	15.23
692.782	7.23
692.811	-19.77
692.84	1.23
692.87	6.23
692.899	-3.77
692.928	5.23
692.957	7.23
692.986	12.23
693.016	-9.77
693.045	-3.77
693.074	13.23
693.103	-6.77
693.132	17.23
693.161	8.23
693.191	-3.77
693.22	-6.77
693.249	-7.77
693.278	-2.77
693.307	13.23
693.336	4.23
693.365	-5.77
693.395	-10.77
693.424	3.23
693.453	19.23
693.482	-5.77
693.511	30.23
693.54	16.23
693.569	13.23
693.598	6.23
693.628	8.23
693.657	4.23
693.686	14.23
693.715	3.23
693.744	14.23
693.773	5.23
693.802	5.23
693.831	2.23
693.86	10.23
693.889	-5.77
693.919	6.23
693.948	10.23
693.977	15.23
694.006	-6.77
694.035	-18.77
694.064	-9.77
694.093	-8.77
694.122	-13.77
694.151	-6.77
694.18	-2.77
694.209	27.23
694.238	8.23
694.267	23.23
694.296	18.23
694.325	0.23
694.354	25.23
694.383	-0.77
694.412	-10.77
694.441	-0.77
694.471	-10.77
694.5	-8.77
694.529	-1.77
694.558	31.23
694.587	16.23
694.616	-8.77
694.645	0.23
694.674	17.23
694.703	5.23
694.732	5.23
694.761	28.23
694.79	13.23
694.819	-7.77
694.848	11.23
694.877	13.23
694.906	17.23
694.935	1.23
694.963	27.23
694.992	-2.77
695.021	0.23
695.05	-1.77
695.079	4.23
695.108	-6.77
695.137	25.23
695.166	13.23
695.195	-0.77
695.224	-2.77
695.253	0.23
695.282	4.23
695.311	6.23
695.34	-5.77
695.369	25.23
695.398	-0.77
695.427	6.23
695.456	-9.77
695.485	16.23
695.513	9.23
695.542	-0.77
695.571	-1.77
695.6	34.23
695.629	16.23
695.658	1.23
695.687	11.23
695.716	5.23
695.745	17.23
695.774	-3.77
695.802	-10.77
695.831	4.23
695.86	25.23
695.889	25.23
695.918	2.23
695.947	-10.77
695.976	10.23
696.005	12.23
696.033	1.23
696.062	20.23
696.091	6.23
696.12	18.23
696.149	24.23
696.178	-3.77
696.207	9.23
696.235	-6.77
696.264	8.23
696.293	1.23
696.322	-4.77
696.351	9.23
696.38	1.23
696.408	8.23
696.437	-13.77
696.466	18.23
696.495	22.23
696.524	23.23
696.553	13.23
696.581	12.23
696.61	17.23
696.639	-2.77
696.668	9.23
696.697	-1.77
696.725	11.23
696.754	3.23
696.783	-0.77
696.812	2.23
696.84	9.23
696.869	3.23
696.898	-12.77
696.927	-15.77
696.956	9.23
696.984	5.23
697.013	12.23
697.042	9.23
697.071	9.23
697.099	36.23
697.128	10.23
697.157	-7.77
697.186	-9.77
697.214	10.23
697.243	16.23
697.272	3.23
697.301	3.23
697.329	6.23
697.358	23.23
697.387	24.23
697.415	3.23
697.444	3.23
697.473	8.23
697.502	13.23
697.53	34.23
697.559	-2.77
697.588	12.23
697.616	3.23
697.645	-5.77
697.674	20.23
697.703	1.23
697.731	13.23
697.76	11.23
697.789	16.23
697.817	8.23
697.846	14.23
697.875	12.23
697.903	13.23
697.932	4.23
697.961	15.23
697.989	6.23
698.018	9.23
698.047	-1.77
698.075	5.23
698.104	3.23
698.133	-1.77
698.161	9.23
698.19	-7.77
698.218	1.23
698.247	16.23
698.276	-2.77
698.304	14.23
698.333	2.23
698.362	-7.77
698.39	6.23
698.419	5.23
698.447	0.23
698.476	2.23
698.505	28.23
698.533	13.23
698.562	3.23
698.591	-8.77
698.619	-1.77
698.648	-2.77
698.676	-3.77
698.705	2.23
698.733	-2.77
698.762	9.23
698.791	1.23
698.819	0.23
698.848	-4.77
698.876	25.23
698.905	4.23
698.933	11.23
698.962	0.23
698.991	5.23
699.019	12.23
699.048	3.23
699.076	3.23
699.105	-6.77
699.133	-7.77
699.162	7.23
699.19	8.23
699.219	5.23
699.248	7.23
699.276	9.23
699.305	-0.77
699.333	12.23
699.362	2.23
699.39	10.23
699.419	-19.77
699.447	16.23
699.476	9.23
699.504	-6.77
699.533	-0.77
699.561	-2.77
699.59	9.23
699.618	2.23
699.647	-12.77
699.675	8.23
699.704	-5.77
699.732	-6.77
699.761	9.23
699.789	5.23
699.818	-1.77
699.846	2.23
699.874	-16.77
699.903	-18.77
699.931	-1.77
699.96	1.23
699.988	-0.77
700.017	4.23
700.045	1.23
700.074	5.23
700.102	-8.77
700.13	-5.77
700.159	1.23
700.187	-1.77
700.216	1.23
700.244	-2.77
700.273	2.23
700.301	8.23
700.329	-4.77
700.358	8.23
700.386	-1.77
700.415	6.23
700.443	1.23
700.472	-2.77
700.5	7.23
700.528	7.23
700.557	10.23
700.585	5.23
700.614	-7.77
700.642	1.23
700.67	22.23
700.699	24.23
700.727	9.23
700.755	-10.77
700.784	11.23
700.812	-8.77
700.841	5.23
700.869	-2.77
700.897	-18.77
700.926	2.23
700.954	4.23
700.982	-5.77
701.011	7.23
701.039	3.23
701.067	8.23
701.096	0.23
701.124	-3.77
701.152	0.23
701.181	-1.77
701.209	-2.77
701.237	-6.77
701.266	-4.77
701.294	-4.77
701.322	13.23
701.351	-9.77
701.379	0.23
701.407	-9.77
701.435	0.23
701.464	15.23
701.492	30.23
701.52	18.23
701.549	7.23
701.577	-7.77
701.605	2.23
701.634	2.23
701.662	-0.77
701.69	1.23
701.718	-4.77
701.747	4.23
701.775	-2.77
701.803	0.23
701.831	17.23
701.86	4.23
701.888	4.23
701.916	-1.77
701.944	-3.77
701.973	-6.77
702.001	-11.77
702.029	-9.77
702.057	-6.77
702.086	-2.77
702.114	-17.77
702.142	11.23
702.17	-10.77
702.199	-2.77
702.227	11.23
702.255	-6.77
702.283	-1.77
702.311	4.23
702.34	14.23
702.368	-1.77
702.396	6.23
702.424	-21.77
702.452	1.23
702.481	-6.77
702.509	3.23
702.537	15.23
702.565	-5.77
702.593	2.23
702.621	-1.77
702.65	15.23
702.678	6.23
702.706	7.23
702.734	-4.77
702.762	-9.77
702.79	5.23
702.819	1.23
702.847	8.23
702.875	3.23
702.903	4.23
702.931	-25.77
702.959	-14.77
702.988	2.23
703.016	-14.77
703.044	-0.77
703.072	6.23
703.1	-13.77
703.128	5.23
703.156	11.23
703.184	6.23
703.212	11.23
703.241	1.23
703.269	9.23
703.297	18.23
703.325	6.23
703.353	-6.77
703.381	-10.77
703.409	15.23
703.437	-15.77
703.465	12.23
703.493	-15.77
703.522	16.23
703.55	13.23
703.578	7.23
703.606	-6.77
703.634	-11.77
703.662	-1.77
703.69	-2.77
703.718	-10.77
703.746	8.23
703.774	0.23
703.802	2.23
703.83	2.23
703.858	8.23
703.886	-7.77
703.914	-12.77
703.942	10.23
703.97	-1.77
703.998	-3.77
704.027	13.23
704.055	5.23
704.083	-4.77
704.111	-16.77
704.139	9.23
704.167	-14.77
704.195	-0.77
704.223	-5.77
704.251	-10.77
704.279	8.23
704.307	6.23
704.335	-6.77
704.363	1.23
704.391	5.23
704.419	-2.77
704.447	-13.77
704.475	5.23
704.503	-9.77
704.531	7.23
704.558	9.23
704.586	8.23
704.614	3.23
704.642	-8.77
704.67	-29.77
704.698	-2.77
704.726	9.23
704.754	2.23
704.782	-5.77
704.81	-2.77
704.838	-0.77
704.866	-2.77
704.894	-4.77
704.922	1.23
704.95	-3.77
704.978	9.23
705.006	6.23
705.034	4.23
705.061	-9.77
705.089	-5.77
705.117	-0.77
705.145	5.23
705.173	-1.77
705.201	-1.77
705.229	-1.77
705.257	1.23
705.285	-6.77
705.313	3.23
705.34	-0.77
705.368	-2.77
705.396	5.23
705.424	-12.77
705.452	-4.77
705.48	12.23
705.508	-16.77
705.536	2.23
705.563	-2.77
705.591	7.23
705.619	0.23
705.647	-10.77
705.675	2.23
705.703	13.23
705.731	-16.77
705.758	15.23
705.786	-0.77
705.814	10.23
705.842	2.23
705.87	16.23
705.898	14.23
705.925	-12.77
705.953	0.23
705.981	-2.77
706.009	-3.77
706.037	15.23
706.065	2.23
706.092	-0.77
706.12	8.23
706.148	-13.77
706.176	-2.77
706.204	11.23
706.231	-5.77
706.259	-7.77
706.287	5.23
706.315	1.23
706.342	-1.77
706.37	13.23
706.398	-6.77
706.426	-6.77
706.454	17.23
706.481	18.23
706.509	10.23
706.537	-6.77
706.565	-9.77
706.592	-6.77
706.62	-3.77
706.648	-7.77
706.676	4.23
706.703	10.23
706.731	-4.77
706.759	4.23
706.787	5.23
706.814	4.23
706.842	1.23
706.87	-1.77
706.897	5.23
706.925	-1.77
706.953	10.23
706.981	17.23
707.008	6.23
707.036	-2.77
707.064	-2.77
707.091	-12.77
707.119	10.23
707.147	1.23
707.174	-12.77
707.202	4.23
707.23	-16.77
707.258	2.23
707.285	-9.77
707.313	0.23
707.341	-4.77
707.368	-15.77
707.396	22.23
707.424	17.23
707.451	4.23
707.479	6.23
707.507	-8.77
707.534	-9.77
707.562	-1.77
707.59	-14.77
707.617	-6.77
707.645	-6.77
707.672	4.23
707.7	3.23
707.728	8.23
707.755	8.23
707.783	-1.77
707.811	-6.77
707.838	-8.77
707.866	3.23
707.893	2.23
707.921	-15.77
707.949	-1.77
707.976	20.23
708.004	6.23
708.031	-17.77
708.059	-9.77
708.087	8.23
708.114	-2.77
708.142	-7.77
708.169	-6.77
708.197	-9.77
708.225	-6.77
708.252	6.23
708.28	25.23
708.307	8.23
708.335	7.23
708.362	-7.77
708.39	-13.77
708.418	3.23
708.445	0.23
708.473	-8.77
708.5	5.23
708.528	9.23
708.555	-16.77
708.583	-1.77
708.61	11.23
708.638	9.23
708.665	-12.77
708.693	-4.77
708.72	-9.77
708.748	-21.77
708.776	-9.77
708.803	14.23
708.831	8.23
708.858	20.23
708.886	2.23
708.913	7.23
708.941	12.23
708.968	8.23
708.996	-3.77
709.023	38.23
709.051	-11.77
709.078	-4.77
709.105	0.23
709.133	2.23
709.16	1.23
709.188	0.23
709.215	-4.77
709.243	6.23
709.27	-11.77
709.298	3.23
709.325	-2.77
709.353	5.23
709.38	-5.77
709.408	-5.77
709.435	5.23
709.462	11.23
709.49	4.23
709.517	-9.77
709.545	-15.77
709.572	-6.77
709.6	-13.77
709.627	1.23
709.655	-5.77
709.682	-5.77
709.709	-7.77
709.737	-3.77
709.764	-6.77
709.792	0.23
709.819	9.23
709.846	7.23
709.874	-3.77
709.901	11.23
709.929	16.23
709.956	-3.77
709.983	-9.77
710.011	-6.77
710.038	-2.77
710.066	12.23
710.093	17.23
710.12	6.23
710.148	-2.77
710.175	-9.77
710.202	-8.77
710.23	8.23
710.257	0.23
710.284	3.23
710.312	1.23
710.339	-0.77
710.366	10.23
710.394	-12.77
710.421	3.23
710.448	-3.77
710.476	-12.77
710.503	2.23
710.53	5.23
710.558	17.23
710.585	6.23
710.612	-4.77
710.64	-1.77
710.667	-14.77
710.694	-14.77
710.722	-7.77
710.749	10.23
710.776	-3.77
710.804	16.23
710.831	-1.77
710.858	-7.77
710.885	6.23
710.913	5.23
710.94	14.23
710.967	6.23
710.995	-14.77
711.022	-7.77
711.049	-0.77
711.076	-23.77
711.104	-4.77
711.131	-21.77
711.158	7.23
711.185	9.23
711.213	-17.77
711.24	-10.77
711.267	-3.77
711.294	-5.77
711.322	13.23
711.349	-0.77
711.376	-6.77
711.403	1.23
711.431	-12.77
711.458	-7.77
711.485	9.23
711.512	12.23
711.54	-3.77
711.567	4.23
711.594	2.23
711.621	14.23
711.648	-2.77
711.676	7.23
711.703	7.23
711.73	-18.77
711.757	2.23
711.784	5.23
711.812	-3.77
711.839	-4.77
711.866	-10.77
711.893	-19.77
711.92	-2.77
711.947	-7.77
711.975	-5.77
712.002	5.23
712.029	1.23
712.056	5.23
712.083	13.23
712.11	-10.77
712.138	-0.77
712.165	10.23
712.192	16.23
712.219	-3.77
712.246	-19.77
712.273	-4.77
712.3	-13.77
712.328	9.23
712.355	2.23
712.382	1.23
712.409	38.23
712.436	-7.77
712.463	13.23
712.49	17.23
712.517	6.23
712.544	-11.77
712.572	1.23
712.599	-6.77
712.626	-0.77
712.653	-5.77
712.68	-9.77
712.707	-4.77
712.734	14.23
712.761	4.23
712.788	16.23
712.815	-1.77
712.842	5.23
712.87	-2.77
712.897	-4.77
712.924	-3.77
712.951	8.23
712.978	15.23
713.005	4.23
713.032	6.23
713.059	5.23
713.086	-2.77
713.113	-11.77
713.14	-5.77
713.167	9.23
713.194	-0.77
713.221	-0.77
713.248	5.23
713.275	8.23
713.302	-12.77
713.329	-3.77
713.356	19.23
713.383	7.23
713.41	17.23
713.437	0.23
713.464	-3.77
713.491	10.23
713.518	-2.77
713.545	-7.77
713.572	8.23
713.599	16.23
713.626	8.23
713.653	18.23
713.68	-24.77
713.707	-3.77
713.734	5.23
713.761	5.23
713.788	8.23
713.815	15.23
713.842	8.23
713.869	1.23
713.896	0.23
713.923	4.23
713.95	13.23
713.977	-9.77
714.004	-6.77
714.031	-10.77
714.058	-10.77
714.085	1.23
714.112	10.23
714.139	7.23
714.165	0.23
714.192	-3.77
714.219	4.23
714.246	-2.77
714.273	1.23
714.3	0.23
714.327	-5.77
714.354	2.23
714.381	-2.77
714.408	10.23
714.435	-7.77
714.461	-1.77
714.488	19.23
714.515	-3.77
714.542	-2.77
714.569	-8.77
714.596	-1.77
714.623	11.23
714.65	-13.77
714.677	-2.77
714.703	5.23
714.73	-6.77
714.757	2.23
714.784	2.23
714.811	4.23
714.838	10.23
714.865	4.23
714.891	4.23
714.918	1.23
714.945	-14.77
714.972	-4.77
714.999	-1.77
715.026	-2.77
715.052	19.23
715.079	18.23
715.106	8.23
715.133	0.23
715.16	1.23
715.187	5.23
715.213	-1.77
715.24	-2.77
715.267	-2.77
715.294	6.23
715.321	-6.77
715.347	-15.77
715.374	-6.77
715.401	-10.77
715.428	-3.77
715.455	1.23
715.481	-14.77
715.508	24.23
715.535	1.23
715.562	20.23
715.588	8.23
715.615	14.23
715.642	-1.77
715.669	18.23
715.695	-6.77
715.722	-12.77
715.749	6.23
715.776	14.23
715.802	12.23
715.829	4.23
715.856	-25.77
715.883	12.23
715.909	0.23
715.936	-1.77
715.963	3.23
715.99	-14.77
716.016	0.23
716.043	20.23
716.07	-0.77
716.096	-0.77
716.123	0.23
716.15	7.23
716.177	2.23
716.203	21.23
716.23	15.23
716.257	7.23
716.283	13.23
716.31	0.23
716.337	6.23
716.363	13.23
716.39	-4.77
716.417	5.23
716.443	11.23
716.47	17.23
716.497	14.23
716.523	4.23
716.55	0.23
716.577	5.23
716.603	6.23
716.63	9.23
716.657	13.23
716.683	-2.77
716.71	-9.77
716.737	-15.77
716.763	0.23
716.79	-3.77
716.817	4.23
716.843	22.23
716.87	-7.77
716.897	2.23
716.923	25.23
716.95	-1.77
716.976	-0.77
717.003	13.23
717.03	-4.77
717.056	-0.77
717.083	6.23
717.109	16.23
717.136	4.23
717.163	-5.77
717.189	10.23
717.216	7.23
717.242	-18.77
717.269	-15.77
717.296	4.23
717.322	15.23
717.349	11.23
717.375	12.23
717.402	-0.77
717.428	-5.77
717.455	-7.77
717.481	-9.77
717.508	9.23
717.535	11.23
717.561	15.23
717.588	1.23
717.614	-9.77
717.641	8.23
717.667	7.23
717.694	25.23
717.72	-5.77
717.747	16.23
717.773	8.23
717.8	10.23
717.826	13.23
717.853	18.23
717.88	20.23
717.906	-2.77
717.933	5.23
717.959	19.23
717.986	-0.77
718.012	-2.77
718.039	17.23
718.065	22.23
718.092	2.23
718.118	12.23
718.144	6.23
718.171	16.23
718.197	14.23
718.224	5.23
718.25	-2.77
718.277	10.23
718.303	3.23
718.33	-9.77
718.356	-6.77
718.383	-17.77
718.409	5.23
718.436	4.23
718.462	-3.77
718.489	-1.77
718.515	21.23
718.541	15.23
718.568	8.23
718.594	1.23
718.621	8.23
718.647	-6.77
718.674	-6.77
718.7	10.23
718.726	-7.77
718.753	9.23
718.779	17.23
718.806	9.23
718.832	-2.77
718.858	6.23
718.885	-6.77
718.911	8.23
718.938	6.23
718.964	2.23
718.99	-3.77
719.017	-7.77
719.043	12.23
719.07	15.23
719.096	-6.77
719.122	18.23
719.149	1.23
719.175	25.23
719.201	1.23
719.228	-0.77
719.254	16.23
719.281	-3.77
719.307	19.23
719.333	-9.77
719.36	6.23
719.386	-3.77
719.412	10.23
719.439	-7.77
719.465	1.23
719.491	-23.77
719.518	19.23
719.544	2.23
719.57	21.23
719.597	11.23
719.623	0.23
719.649	0.23
719.675	8.23
719.702	-6.77
719.728	6.23
719.754	-10.77
719.781	1.23
719.807	-3.77
719.833	-10.77
719.86	6.23
719.886	-26.77
719.912	4.23
719.938	-3.77
719.965	17.23
719.991	14.23
720.017	13.23
720.044	0.23
720.07	-0.77
720.096	10.23
720.122	-5.77
720.149	14.23
720.175	14.23
720.201	7.23
720.227	2.23
720.254	6.23
720.28	-1.77
720.306	1.23
720.332	0.23
720.359	8.23
720.385	1.23
720.411	-1.77
720.437	-4.77
720.463	5.23
720.49	6.23
720.516	5.23
720.542	0.23
720.568	8.23
720.595	4.23
720.621	5.23
720.647	-3.77
720.673	6.23
720.699	11.23
720.725	10.23
720.752	7.23
720.778	-0.77
720.804	3.23
720.83	12.23
720.856	-2.77
720.883	-6.77
720.909	-4.77
720.935	2.23
720.961	26.23
720.987	7.23
721.013	5.23
721.04	2.23
721.066	-6.77
721.092	-7.77
721.118	4.23
721.144	15.23
721.17	-2.77
721.196	-11.77
721.223	-3.77
721.249	-3.77
721.275	6.23
721.301	-4.77
721.327	12.23
721.353	3.23
721.379	-2.77
721.405	2.23
721.432	10.23
721.458	-5.77
721.484	-3.77
721.51	-11.77
721.536	7.23
721.562	4.23
721.588	-7.77
721.614	-7.77
721.64	0.23
721.666	-14.77
721.693	-23.77
721.719	-11.77
721.745	-0.77
721.771	0.23
721.797	12.23
721.823	2.23
721.849	1.23
721.875	3.23
721.901	2.23
721.927	-9.77
721.953	-8.77
721.979	19.23
722.005	34.23
722.031	0.23
722.057	12.23
722.083	8.23
722.109	7.23
722.135	9.23
722.161	9.23
722.187	7.23
722.214	4.23
722.24	-2.77
722.266	-9.77
722.292	-0.77
722.318	8.23
722.344	1.23
722.37	13.23
722.396	-6.77
722.422	7.23
722.448	-1.77
722.474	-5.77
722.5	5.23
722.526	6.23
722.552	-4.77
722.578	-10.77
722.603	4.23
722.629	-4.77
722.655	5.23
722.681	-2.77
722.707	4.23
722.733	-5.77
722.759	15.23
722.785	9.23
722.811	-7.77
722.837	1.23
722.863	3.23
722.889	-7.77
722.915	1.23
722.941	12.23
722.967	-9.77
722.993	2.23
723.019	-7.77
723.045	1.23
723.071	8.23
723.097	2.23
723.122	-4.77
723.148	-1.77
723.174	4.23
723.2	11.23
723.226	-3.77
723.252	9.23
723.278	-3.77
723.304	-7.77
723.33	-8.77
723.356	2.23
723.381	1.23
723.407	-16.77
723.433	-1.77
723.459	-10.77
723.485	4.23
723.511	-11.77
723.537	-6.77
723.563	2.23
723.588	-2.77
723.614	5.23
723.64	7.23
723.666	-7.77
723.692	3.23
723.718	5.23
723.744	-2.77
723.769	-3.77
723.795	-5.77
723.821	2.23
723.847	10.23
723.873	8.23
723.899	2.23
723.924	-1.77
723.95	-1.77
723.976	-7.77
724.002	9.23
724.028	-0.77
724.053	-0.77
724.079	-5.77
724.105	16.23
724.131	-4.77
724.157	5.23
724.182	12.23
724.208	6.23
724.234	3.23
724.26	-13.77
724.286	16.23
724.311	-8.77
724.337	-22.77
724.363	-11.77
724.389	-2.77
724.415	-2.77
724.44	-11.77
724.466	-9.77
724.492	-1.77
724.518	4.23
724.543	-10.77
724.569	1.23
724.595	2.23
724.621	-8.77
724.646	-2.77
724.672	-3.77
724.698	-0.77
724.723	-7.77
724.749	-0.77
724.775	11.23
724.801	-2.77
724.826	3.23
724.852	-2.77
724.878	-9.77
724.904	-11.77
724.929	6.23
724.955	-5.77
724.981	-5.77
725.006	1.23
725.032	1.23
725.058	4.23
725.083	-3.77
725.109	-7.77
725.135	1.23
725.161	-1.77
725.186	-0.77
725.212	5.23
725.238	8.23
725.263	-6.77
725.289	-7.77
725.315	-11.77
725.34	-17.77
725.366	-3.77
725.392	-11.77
725.417	2.23
725.443	-17.77
725.468	8.23
725.494	7.23
725.52	4.23
725.545	-0.77
725.571	-0.77
725.597	16.23
725.622	-5.77
725.648	0.23
725.674	12.23
725.699	7.23
725.725	7.23
725.75	46.23
725.776	-5.77
725.802	-6.77
725.827	-8.77
725.853	14.23
725.878	17.23
725.904	2.23
725.93	-1.77
725.955	-11.77
725.981	8.23
726.006	14.23
726.032	19.23
726.057	8.23
726.083	-30.77
726.109	-2.77
726.134	-1.77
726.16	0.23
726.185	-3.77
726.211	-2.77
726.236	-2.77
726.262	0.23
726.288	7.23
726.313	11.23
726.339	-1.77
726.364	17.23
726.39	9.23
726.415	1.23
726.441	8.23
726.466	-7.77
726.492	-11.77
726.517	14.23
726.543	-5.77
726.568	-17.77
726.594	-13.77
726.619	21.23
726.645	10.23
726.67	0.23
726.696	-5.77
726.721	3.23
726.747	-11.77
726.772	-10.77
726.798	1.23
726.823	8.23
726.849	2.23
726.874	-3.77
726.9	22.23
726.925	7.23
726.951	-7.77
726.976	10.23
727.002	-12.77
727.027	2.23
727.053	12.23
727.078	-5.77
727.104	-7.77
727.129	-17.77
727.155	1.23
727.18	17.23
727.205	8.23
727.231	-9.77
727.256	-4.77
727.282	-3.77
727.307	16.23
727.333	-5.77
727.358	-2.77
727.383	8.23
727.409	13.23
727.434	11.23
727.46	-9.77
727.485	8.23
727.511	8.23
727.536	-22.77
727.561	-7.77
727.587	-2.77
727.612	8.23
727.637	-8.77
727.663	-17.77
727.688	21.23
727.714	-17.77
727.739	-19.77
727.764	-4.77
727.79	6.23
727.815	-3.77
727.841	8.23
727.866	1.23
727.891	-9.77
727.917	-1.77
727.942	-16.77
727.967	0.23
727.993	-19.77
728.018	3.23
728.043	14.23
728.069	15.23
728.094	20.23
728.119	-7.77
728.145	10.23
728.17	1.23
728.195	8.23
728.221	16.23
728.246	-10.77
728.271	-8.77
728.297	8.23
728.322	3.23
728.347	9.23
728.373	2.23
728.398	5.23
728.423	2.23
728.448	-2.77
728.474	5.23
728.499	14.23
728.524	-6.77
728.55	-19.77
728.575	-8.77
728.6	11.23
728.625	-1.77
728.651	10.23
728.676	-1.77
728.701	-9.77
728.727	-7.77
728.752	4.23
728.777	-6.77
728.802	0.23
728.828	15.23
728.853	5.23
728.878	-0.77
728.903	-10.77
728.929	-12.77
728.954	1.23
728.979	6.23
729.004	-8.77
729.03	-6.77
729.055	21.23
729.08	-18.77
729.105	-2.77
729.13	16.23
729.156	4.23
729.181	6.23
729.206	-5.77
729.231	-7.77
729.256	6.23
729.282	15.23
729.307	-5.77
729.332	-15.77
729.357	-14.77
729.382	2.23
729.408	-7.77
729.433	2.23
729.458	5.23
729.483	16.23
729.508	23.23
729.533	10.23
729.559	16.23
729.584	-8.77
729.609	4.23
729.634	13.23
729.659	0.23
729.684	-14.77
729.71	1.23
729.735	-3.77
729.76	-3.77
729.785	14.23
729.81	9.23
729.835	3.23
729.86	-16.77
729.886	-0.77
729.911	13.23
729.936	11.23
729.961	38.23
729.986	25.23
730.011	60.23
730.036	202.23
730.061	977.23
730.086	2677.23
730.112	3363.23
730.137	2838.23
730.162	2125.23
730.187	1631.23
730.212	1236.23
730.237	812.23
730.262	446.23
730.287	230.23
730.312	136.23
730.337	62.23
730.362	59.23
730.387	40.23
730.413	-0.77
730.438	7.23
730.463	11.23
730.488	5.23
730.513	8.23
730.538	-3.77
730.563	20.23
730.588	26.23
730.613	14.23
730.638	8.23
730.663	-1.77
730.688	31.23
730.713	5.23
730.738	22.23
730.763	14.23
730.788	-5.77
730.813	5.23
730.838	-1.77
730.863	3.23
730.888	-6.77
730.913	-9.77
730.938	-1.77
730.963	11.23
730.988	108.23
731.013	391.23
731.038	599.23
731.063	599.23
731.088	436.23
731.113	337.23
731.138	253.23
731.163	194.23
731.188	102.23
731.213	82.23
731.238	39.23
731.263	14.23
731.288	10.23
731.313	9.23
731.338	0.23
731.363	-5.77
731.388	8.23
731.413	13.23
731.438	16.23
731.463	8.23
731.487	5.23
731.512	1.23
731.537	14.23
731.562	-2.77
731.587	-0.77
731.612	2.23
731.637	-6.77
731.662	-2.77
731.687	-8.77
731.712	-30.77
731.737	7.23
731.762	-2.77
731.786	3.23
731.811	10.23
731.836	8.23
731.861	-7.77
731.886	2.23
731.911	12.23
731.936	9.23
731.961	-10.77
731.986	-2.77
732.01	6.23
732.035	0.23
732.06	5.23
732.085	-0.77
732.11	1.23
732.135	-11.77
732.16	-16.77
732.184	-2.77
732.209	-15.77
732.234	5.23
732.259	-0.77
732.284	19.23
732.309	-0.77
732.334	-7.77
732.358	-25.77
732.383	-18.77
732.408	-1.77
732.433	10.23
732.458	10.23
732.482	13.23
732.507	-7.77
732.532	2.23
732.557	14.23
732.582	34.23
732.607	39.23
732.631	79.23
732.656	93.23
732.681	148.23
732.706	327.23
732.73	460.23
732.755	398.23
732.78	300.23
732.805	223.23
732.83	168.23
732.854	133.23
732.879	99.23
732.904	44.23
732.929	23.23
732.953	25.23
732.978	-0.77
733.003	-14.77
733.028	-11.77
733.052	11.23
733.077	0.23
733.102	19.23
733.127	-5.77
733.151	-13.77
733.176	1.23
733.201	-13.77
733.226	-14.77
733.25	3.23
733.275	-3.77
733.3	-14.77
733.324	12.23
733.349	20.23
733.374	25.23
733.399	-6.77
733.423	4.23
733.448	5.23
733.473	-9.77
733.497	-13.77
733.522	-11.77
733.547	9.23
733.571	29.23
733.596	23.23
733.621	8.23
733.646	-1.77
733.67	3.23
733.695	5.23
733.72	3.23
733.744	14.23
733.769	9.23
733.794	23.23
733.818	-9.77
733.843	0.23
733.867	-0.77
733.892	-2.77
733.917	1.23
733.941	-7.77
733.966	-10.77
733.991	3.23
734.015	13.23
734.04	6.23
734.065	17.23
734.089	16.23
734.114	3.23
734.138	-2.77
734.163	-0.77
734.188	-5.77
734.212	9.23
734.237	1.23
734.261	-3.77
734.286	-9.77
734.311	-2.77
734.335	-1.77
734.36	4.23
734.384	15.23
734.409	-10.77
734.434	-2.77
734.458	6.23
734.483	-0.77
734.507	-14.77
734.532	-10.77
734.556	-10.77
734.581	-10.77
734.606	-5.77
734.63	-17.77
734.655	1.23
734.679	-3.77
734.704	6.23
734.728	-5.77
734.753	-3.77
734.777	1.23
734.802	-15.77
734.826	1.23
734.851	-3.77
734.876	4.23
734.9	7.23
734.925	29.23
734.949	0.23
734.974	6.23
734.998	-1.77
735.023	-10.77
735.047	-11.77
735.072	8.23
735.096	6.23
735.121	2.23
735.145	3.23
735.17	-10.77
735.194	-3.77
735.219	13.23
735.243	6.23
735.268	7.23
735.292	6.23
735.317	6.23
735.341	1.23
735.365	-14.77
735.39	8.23
735.414	17.23
735.439	10.23
735.463	-0.77
735.488	0.23
735.512	0.23
735.537	3.23
735.561	7.23
735.586	10.23
735.61	-7.77
735.634	-6.77
735.659	6.23
735.683	22.23
735.708	-2.77
735.732	-10.77
735.757	-4.77
735.781	10.23
735.805	-1.77
735.83	-20.77
735.854	-12.77
735.879	1.23
735.903	25.23
735.927	-5.77
735.952	-6.77
735.976	-6.77
736.001	-10.77
736.025	-7.77
736.049	6.23
736.074	-5.77
736.098	-5.77
736.123	8.23
736.147	1.23
736.171	8.23
736.196	12.23
736.22	-8.77
736.244	5.23
736.269	-0.77
736.293	0.23
736.317	4.23
736.342	3.23
736.366	7.23
736.39	13.23
736.415	8.23
736.439	-7.77
736.463	-1.77
736.488	5.23
736.512	10.23
736.536	2.23
736.561	9.23
736.585	0.23
736.609	5.23
736.634	5.23
736.658	9.23
736.682	-5.77
736.707	-9.77
736.731	0.23
736.755	0.23
736.78	17.23
736.804	9.23
736.828	4.23
736.852	-11.77
736.877	16.23
736.901	9.23
736.925	1.23
736.949	3.23
736.974	-7.77
736.998	1.23
737.022	12.23
737.047	3.23
737.071	3.23
737.095	9.23
737.119	19.23
737.144	20.23
737.168	4.23
737.192	-0.77
737.216	-6.77
737.241	-17.77
737.265	1.23
737.289	-0.77
737.313	2.23
737.337	-3.77
737.362	0.23
737.386	-1.77
737.41	-12.77
737.434	16.23
737.459	-1.77
737.483	20.23
737.507	20.23
737.531	13.23
737.555	7.23
737.58	18.23
737.604	16.23
737.628	-16.77
737.652	-12.77
737.676	2.23
737.701	-3.77
737.725	8.23
737.749	2.23
737.773	4.23
737.797	-6.77
737.821	-0.77
737.846	-3.77
737.87	24.23
737.894	0.23
737.918	6.23
737.942	-6.77
737.966	15.23
737.99	13.23
738.015	-7.77
738.039	3.23
738.063	-1.77
738.087	19.23
738.111	17.23
738.135	19.23
738.159	2.23
738.184	-2.77
738.208	-2.77
738.232	2.23
738.256	9.23
738.28	2.23
738.304	17.23
738.328	-0.77
738.352	18.23
738.376	2.23
738.4	6.23
738.425	16.23
738.449	9.23
738.473	19.23
738.497	12.23
738.521	8.23
738.545	12.23
738.569	9.23
738.593	21.23
738.617	-0.77
738.641	-3.77
738.665	-0.77
738.689	11.23
738.713	11.23
738.737	4.23
738.762	15.23
738.786	5.23
738.81	-22.77
738.834	12.23
738.858	0.23
738.882	10.23
738.906	-3.77
738.93	0.23
738.954	6.23
738.978	3.23
739.002	6.23
739.026	14.23
739.05	16.23
739.074	-1.77
739.098	21.23
739.122	11.23
739.146	3.23
739.17	21.23
739.194	1.23
739.218	-17.77
739.242	-6.77
739.266	20.23
739.29	12.23
739.314	8.23
739.338	12.23
739.362	10.23
739.386	13.23
739.41	0.23
739.434	-3.77
739.458	10.23
739.482	4.23
739.506	7.23
739.53	-6.77
739.554	12.23
739.577	-4.77
739.601	5.23
739.625	-10.77
739.649	-3.77
739.673	6.23
739.697	-2.77
739.721	-4.77
739.745	5.23
739.769	18.23
739.793	8.23
739.817	14.23
739.841	-8.77
739.865	8.23
739.889	-2.77
739.912	5.23
739.936	-7.77
739.96	5.23
739.984	-1.77
740.008	-14.77
740.032	-3.77
740.056	4.23
740.08	2.23
740.104	-9.77
740.127	20.23
740.151	2.23
740.175	1.23
740.199	-0.77
740.223	46.23
740.247	13.23
740.271	7.23
740.295	-7.77
740.318	-6.77
740.342	-8.77
740.366	9.23
740.39	9.23
740.414	6.23
740.438	-8.77
740.461	9.23
740.485	-4.77
740.509	-11.77
740.533	14.23
740.557	1.23
740.581	-0.77
740.604	-9.77
740.628	2.23
740.652	9.23
740.676	-5.77
740.7	22.23
740.723	-0.77
740.747	-6.77
740.771	-11.77
740.795	1.23
740.819	18.23
740.842	21.23
740.866	16.23
740.89	13.23
740.914	1.23
740.938	-6.77
740.961	21.23
740.985	5.23
741.009	-2.77
741.033	1.23
741.056	-5.77
741.08	-15.77
741.104	-15.77
741.128	-9.77
741.151	8.23
741.175	13.23
741.199	6.23
741.223	-2.77
741.246	-5.77
741.27	5.23
741.294	8.23
741.318	-15.77
741.341	5.23
741.365	2.23
741.389	5.23
741.413	22.23
741.436	19.23
741.46	10.23
741.484	10.23
741.507	-6.77
741.531	33.23
741.555	1.23
741.579	0.23
741.602	3.23
741.626	-1.77
741.65	-5.77
741.673	-6.77
741.697	5.23
741.721	-2.77
741.744	-15.77
741.768	-15.77
741.792	20.23
741.815	5.23
741.839	8.23
741.863	21.23
741.886	6.23
741.91	18.23
741.934	24.23
741.957	-9.77
741.981	15.23
742.005	-3.77
742.028	-22.77
742.052	-5.77
742.075	0.23
742.099	4.23
742.123	0.23
742.146	1.23
742.17	8.23
742.194	-1.77
742.217	10.23
742.241	2.23
742.264	5.23
742.288	19.23
742.312	-3.77
742.335	-1.77
742.359	-1.77
742.382	-0.77
742.406	11.23
742.43	-15.77
742.453	-4.77
742.477	-8.77
742.5	-6.77
742.524	-6.77
742.548	-1.77
742.571	-2.77
742.595	-8.77
742.618	-8.77
742.642	-7.77
742.665	-0.77
742.689	7.23
742.712	9.23
742.736	-9.77
742.76	-17.77
742.783	-1.77
742.807	2.23
742.83	8.23
742.854	-10.77
742.877	-19.77
742.901	-5.77
742.924	-3.77
742.948	2.23
742.971	6.23
742.995	13.23
743.018	-2.77
743.042	10.23
743.065	-1.77
743.089	-7.77
743.112	-7.77
743.136	6.23
743.159	-11.77
743.183	5.23
743.206	3.23
743.23	-2.77
743.253	7.23
743.277	-3.77
743.3	-5.77
743.324	-15.77
743.347	-2.77
743.371	24.23
743.394	9.23
743.418	8.23
743.441	-2.77
743.465	14.23
743.488	0.23
743.512	-10.77
743.535	-3.77
743.558	8.23
743.582	9.23
743.605	-3.77
743.629	8.23
743.652	16.23
743.676	-0.77
743.699	-1.77
743.723	-5.77
743.746	-8.77
743.769	-10.77
743.793	8.23
743.816	2.23
743.84	8.23
743.863	3.23
743.886	-5.77
743.91	-2.77
743.933	-6.77
743.957	8.23
743.98	2.23
744.003	2.23
744.027	-9.77
744.05	-14.77
744.074	11.23
744.097	-3.77
744.12	1.23
744.144	-22.77
744.167	-6.77
744.19	12.23
744.214	-5.77
744.237	-7.77
744.26	18.23
744.284	1.23
744.307	-26.77
744.331	-6.77
744.354	-6.77
744.377	4.23
744.401	-0.77
744.424	3.23
744.447	-11.77
744.471	-17.77
