Data from HighRes_mercury_15_13_11_07_2024_HR4C61891__18__15-14-24-986.txt Node

Date: Thu Nov 07 15:14:24 EST 2024
User: crc00042
Spectrometer: HR4C6189
Trigger mode: 4
Integration Time (sec): 1.000000E-1
Scans to average: 1
Electric dark correction enabled: true
Nonlinearity correction enabled: false
Boxcar width: 0
XAxis mode: Wavelengths
Number of Pixels in Spectrum: 3648
>>>>>Begin Spectral Data<<<<<
639.567	-28.23
639.602	-28.23
639.636	-28.23
639.67	-49.23
639.704	-7.23
639.738	-3.23
639.773	4.77
639.807	-29.23
639.841	11.77
639.875	14.77
639.909	10.77
639.943	-11.23
639.978	-14.23
640.012	-3.23
640.046	13.77
640.08	7.77
640.114	8.77
640.148	-11.23
640.182	-3.23
640.217	-7.23
640.251	20.77
640.285	12.77
640.319	-20.23
640.353	-2.23
640.387	5.77
640.421	-1.23
640.455	2.77
640.49	-2.23
640.524	-9.23
640.558	12.77
640.592	-7.23
640.626	-3.23
640.66	2.77
640.694	4.77
640.728	-3.23
640.762	8.77
640.796	21.77
640.83	1.77
640.865	-7.23
640.899	-2.23
640.933	4.77
640.967	1.77
641.001	3.77
641.035	1.77
641.069	-5.23
641.103	-15.23
641.137	-14.23
641.171	-11.23
641.205	3.77
641.239	-3.23
641.273	25.77
641.307	0.77
641.341	-12.23
641.375	13.77
641.409	-9.23
641.443	-35.23
641.477	5.77
641.511	7.77
641.545	7.77
641.579	-11.23
641.614	-1.23
641.648	1.77
641.682	-31.23
641.716	-4.23
641.75	-0.23
641.784	-28.23
641.818	0.77
641.852	2.77
641.886	-13.23
641.919	15.77
641.953	-1.23
641.987	-2.23
642.021	-7.23
642.055	-3.23
642.089	-1.23
642.123	-23.23
642.157	-13.23
642.191	-0.23
642.225	15.77
642.259	-17.23
642.293	6.77
642.327	5.77
642.361	-28.23
642.395	3.77
642.429	11.77
642.463	5.77
642.497	1.77
642.531	-11.23
642.565	0.77
642.599	8.77
642.633	-16.23
642.666	4.77
642.7	4.77
642.734	5.77
642.768	-19.23
642.802	10.77
642.836	-19.23
642.87	-8.23
642.904	-0.23
642.938	-4.23
642.972	-7.23
643.005	-1.23
643.039	6.77
643.073	-4.23
643.107	22.77
643.141	-11.23
643.175	3.77
643.209	3.77
643.243	-1.23
643.276	3.77
643.31	-14.23
643.344	7.77
643.378	-2.23
643.412	1.77
643.446	14.77
643.48	-0.23
643.513	7.77
643.547	-3.23
643.581	-2.23
643.615	9.77
643.649	-6.23
643.683	3.77
643.716	-3.23
643.75	-1.23
643.784	-27.23
643.818	1.77
643.852	-19.23
643.886	5.77
643.919	14.77
643.953	4.77
643.987	-4.23
644.021	3.77
644.055	3.77
644.088	-0.23
644.122	-4.23
644.156	10.77
644.19	-0.23
644.224	-7.23
644.257	4.77
644.291	6.77
644.325	-10.23
644.359	-1.23
644.392	20.77
644.426	18.77
644.46	6.77
644.494	-0.23
644.527	-14.23
644.561	10.77
644.595	-7.23
644.629	-13.23
644.662	0.77
644.696	19.77
644.73	-8.23
644.764	-10.23
644.797	-4.23
644.831	-0.23
644.865	11.77
644.899	5.77
644.932	5.77
644.966	-0.23
645	15.77
645.033	27.77
645.067	1.77
645.101	9.77
645.135	-8.23
645.168	-13.23
645.202	-1.23
645.236	-12.23
645.269	0.77
645.303	-7.23
645.337	-0.23
645.37	-12.23
645.404	26.77
645.438	13.77
645.471	-3.23
645.505	3.77
645.539	-8.23
645.572	-14.23
645.606	-17.23
645.64	-1.23
645.673	-3.23
645.707	7.77
645.741	-1.23
645.774	-13.23
645.808	-4.23
645.842	-1.23
645.875	6.77
645.909	-15.23
645.943	-2.23
645.976	15.77
646.01	-9.23
646.043	11.77
646.077	-5.23
646.111	2.77
646.144	4.77
646.178	18.77
646.212	-20.23
646.245	-9.23
646.279	-10.23
646.312	2.77
646.346	12.77
646.38	-4.23
646.413	9.77
646.447	-6.23
646.48	-7.23
646.514	9.77
646.547	-5.23
646.581	6.77
646.615	-10.23
646.648	-18.23
646.682	-8.23
646.715	-12.23
646.749	3.77
646.782	3.77
646.816	-8.23
646.85	-7.23
646.883	0.77
646.917	-0.23
646.95	-0.23
646.984	6.77
647.017	4.77
647.051	13.77
647.084	12.77
647.118	10.77
647.151	1.77
647.185	3.77
647.218	-27.23
647.252	-0.23
647.285	-15.23
647.319	-7.23
647.353	-1.23
647.386	6.77
647.42	2.77
647.453	-5.23
647.487	-3.23
647.52	-4.23
647.553	-3.23
647.587	1.77
647.62	-7.23
647.654	1.77
647.687	1.77
647.721	21.77
647.754	20.77
647.788	-0.23
647.821	-3.23
647.855	2.77
647.888	9.77
647.922	1.77
647.955	-3.23
647.989	-0.23
648.022	0.77
648.055	13.77
648.089	3.77
648.122	31.77
648.156	-9.23
648.189	25.77
648.223	12.77
648.256	10.77
648.29	5.77
648.323	-3.23
648.356	7.77
648.39	19.77
648.423	4.77
648.457	1.77
648.49	13.77
648.523	10.77
648.557	6.77
648.59	1.77
648.624	6.77
648.657	-0.23
648.69	10.77
648.724	13.77
648.757	3.77
648.791	-5.23
648.824	0.77
648.857	8.77
648.891	11.77
648.924	13.77
648.957	11.77
648.991	-3.23
649.024	11.77
649.057	3.77
649.091	9.77
649.124	9.77
649.158	-10.23
649.191	20.77
649.224	-3.23
649.258	-1.23
649.291	-6.23
649.324	-4.23
649.358	-0.23
649.391	9.77
649.424	-1.23
649.458	2.77
649.491	-8.23
649.524	-7.23
649.557	-7.23
649.591	-21.23
649.624	8.77
649.657	-3.23
649.691	-19.23
649.724	1.77
649.757	12.77
649.791	-8.23
649.824	20.77
649.857	-2.23
649.89	5.77
649.924	-13.23
649.957	-1.23
649.99	-14.23
650.023	-1.23
650.057	8.77
650.09	-1.23
650.123	11.77
650.157	14.77
650.19	15.77
650.223	2.77
650.256	-7.23
650.29	-4.23
650.323	-0.23
650.356	7.77
650.389	-0.23
650.423	-9.23
650.456	-8.23
650.489	21.77
650.522	4.77
650.555	3.77
650.589	4.77
650.622	-1.23
650.655	5.77
650.688	7.77
650.721	-0.23
650.755	1.77
650.788	6.77
650.821	-11.23
650.854	5.77
650.887	2.77
650.921	-8.23
650.954	1.77
650.987	0.77
651.02	-7.23
651.053	-4.23
651.087	4.77
651.12	16.77
651.153	16.77
651.186	3.77
651.219	-16.23
651.252	-7.23
651.286	-0.23
651.319	-0.23
651.352	2.77
651.385	5.77
651.418	10.77
651.451	20.77
651.484	13.77
651.518	12.77
651.551	27.77
651.584	-3.23
651.617	12.77
651.65	-3.23
651.683	12.77
651.716	1.77
651.749	0.77
651.783	-0.23
651.816	29.77
651.849	-0.23
651.882	1.77
651.915	-0.23
651.948	13.77
651.981	-6.23
652.014	-16.23
652.047	-6.23
652.08	3.77
652.114	-1.23
652.147	-13.23
652.18	2.77
652.213	16.77
652.246	-16.23
652.279	-4.23
652.312	-4.23
652.345	1.77
652.378	-2.23
652.411	28.77
652.444	10.77
652.477	-0.23
652.51	-1.23
652.543	-11.23
652.576	5.77
652.609	-5.23
652.642	-8.23
652.675	2.77
652.709	5.77
652.742	-3.23
652.775	4.77
652.808	6.77
652.841	8.77
652.874	5.77
652.907	0.77
652.94	-7.23
652.973	-4.23
653.006	-2.23
653.039	3.77
653.072	-7.23
653.105	-7.23
653.138	-13.23
653.171	-1.23
653.204	7.77
653.237	14.77
653.27	0.77
653.303	-2.23
653.336	15.77
653.368	-2.23
653.401	14.77
653.434	-4.23
653.467	9.77
653.5	-8.23
653.533	-10.23
653.566	-0.23
653.599	6.77
653.632	6.77
653.665	-12.23
653.698	-16.23
653.731	-6.23
653.764	14.77
653.797	-1.23
653.83	-6.23
653.863	-4.23
653.896	-14.23
653.929	-10.23
653.961	-6.23
653.994	5.77
654.027	-20.23
654.06	6.77
654.093	5.77
654.126	2.77
654.159	-10.23
654.192	5.77
654.225	-10.23
654.258	-8.23
654.29	-7.23
654.323	4.77
654.356	-3.23
654.389	9.77
654.422	-2.23
654.455	-4.23
654.488	3.77
654.521	-2.23
654.553	-3.23
654.586	12.77
654.619	3.77
654.652	-5.23
654.685	-1.23
654.718	8.77
654.751	8.77
654.783	-10.23
654.816	-4.23
654.849	-9.23
654.882	-8.23
654.915	-11.23
654.948	-3.23
654.98	-17.23
655.013	-3.23
655.046	-5.23
655.079	-2.23
655.112	4.77
655.144	-20.23
655.177	-3.23
655.21	-0.23
655.243	14.77
655.276	7.77
655.308	-11.23
655.341	-10.23
655.374	-2.23
655.407	1.77
655.44	-5.23
655.472	-6.23
655.505	-4.23
655.538	-7.23
655.571	10.77
655.603	-2.23
655.636	-1.23
655.669	6.77
655.702	-2.23
655.734	-7.23
655.767	3.77
655.8	-12.23
655.833	1.77
655.865	20.77
655.898	-1.23
655.931	-3.23
655.964	-2.23
655.996	-0.23
656.029	14.77
656.062	-4.23
656.095	17.77
656.127	-13.23
656.16	-2.23
656.193	-11.23
656.225	14.77
656.258	-9.23
656.291	-8.23
656.324	8.77
656.356	10.77
656.389	-2.23
656.422	8.77
656.454	-0.23
656.487	-11.23
656.52	8.77
656.552	-12.23
656.585	-8.23
656.618	1.77
656.65	18.77
656.683	-4.23
656.716	6.77
656.748	-9.23
656.781	1.77
656.814	-12.23
656.846	4.77
656.879	-4.23
656.912	-9.23
656.944	-20.23
656.977	-26.23
657.01	-13.23
657.042	13.77
657.075	6.77
657.108	-11.23
657.14	6.77
657.173	5.77
657.205	17.77
657.238	14.77
657.271	0.77
657.303	-23.23
657.336	7.77
657.369	-3.23
657.401	-3.23
657.434	-2.23
657.466	9.77
657.499	0.77
657.532	2.77
657.564	5.77
657.597	-15.23
657.629	-5.23
657.662	1.77
657.694	-1.23
657.727	-23.23
657.76	3.77
657.792	0.77
657.825	-14.23
657.857	-4.23
657.89	-3.23
657.922	14.77
657.955	-17.23
657.987	9.77
658.02	3.77
658.053	6.77
658.085	-2.23
658.118	7.77
658.15	8.77
658.183	18.77
658.215	5.77
658.248	-4.23
658.28	-3.23
658.313	21.77
658.345	-0.23
658.378	-8.23
658.41	-2.23
658.443	4.77
658.475	-0.23
658.508	-4.23
658.54	-1.23
658.573	1.77
658.605	12.77
658.638	2.77
658.67	-20.23
658.703	3.77
658.735	1.77
658.768	16.77
658.8	1.77
658.833	35.77
658.865	6.77
658.898	-2.23
658.93	-5.23
658.963	-8.23
658.995	-19.23
659.028	3.77
659.06	-7.23
659.092	-24.23
659.125	-2.23
659.157	-5.23
659.19	-6.23
659.222	-12.23
659.255	3.77
659.287	-0.23
659.32	-4.23
659.352	-0.23
659.384	7.77
659.417	-24.23
659.449	21.77
659.482	0.77
659.514	-29.23
659.546	-12.23
659.579	-18.23
659.611	5.77
659.644	-2.23
659.676	-22.23
659.708	-8.23
659.741	-18.23
659.773	7.77
659.806	-11.23
659.838	-3.23
659.87	3.77
659.903	-12.23
659.935	-7.23
659.967	-0.23
660	5.77
660.032	-7.23
660.065	21.77
660.097	-0.23
660.129	-0.23
660.162	-19.23
660.194	0.77
660.226	6.77
660.259	-2.23
660.291	-16.23
660.323	-11.23
660.356	1.77
660.388	-16.23
660.42	-20.23
660.453	3.77
660.485	-5.23
660.517	14.77
660.55	9.77
660.582	-10.23
660.614	14.77
660.647	-7.23
660.679	-21.23
660.711	-8.23
660.743	-9.23
660.776	-23.23
660.808	2.77
660.84	-13.23
660.873	-1.23
660.905	0.77
660.937	-10.23
660.969	-23.23
661.002	-0.23
661.034	8.77
661.066	7.77
661.099	9.77
661.131	18.77
661.163	-13.23
661.195	3.77
661.228	-7.23
661.26	0.77
661.292	-0.23
661.324	-4.23
661.357	2.77
661.389	4.77
661.421	-7.23
661.453	-0.23
661.485	4.77
661.518	13.77
661.55	-13.23
661.582	-6.23
661.614	7.77
661.647	26.77
661.679	9.77
661.711	-7.23
661.743	3.77
661.775	3.77
661.808	15.77
661.84	-7.23
661.872	-5.23
661.904	-11.23
661.936	-3.23
661.969	-11.23
662.001	-16.23
662.033	-0.23
662.065	-9.23
662.097	2.77
662.129	5.77
662.162	-8.23
662.194	-12.23
662.226	8.77
662.258	8.77
662.29	-11.23
662.322	-12.23
662.355	-13.23
662.387	12.77
662.419	1.77
662.451	2.77
662.483	9.77
662.515	6.77
662.547	-0.23
662.58	0.77
662.612	-3.23
662.644	-9.23
662.676	-16.23
662.708	11.77
662.74	-3.23
662.772	-6.23
662.804	5.77
662.836	-1.23
662.869	-10.23
662.901	-4.23
662.933	-15.23
662.965	13.77
662.997	5.77
663.029	-23.23
663.061	-3.23
663.093	-3.23
663.125	-4.23
663.157	7.77
663.189	-9.23
663.221	-3.23
663.254	-10.23
663.286	6.77
663.318	-11.23
663.35	-26.23
663.382	5.77
663.414	5.77
663.446	-3.23
663.478	-17.23
663.51	35.77
663.542	-3.23
663.574	-0.23
663.606	8.77
663.638	-1.23
663.67	-6.23
663.702	-17.23
663.734	-15.23
663.766	11.77
663.798	3.77
663.83	4.77
663.862	3.77
663.894	1.77
663.926	-9.23
663.958	4.77
663.99	12.77
664.022	1.77
664.054	-0.23
664.086	-11.23
664.118	-19.23
664.15	-10.23
664.182	0.77
664.214	-11.23
664.246	-7.23
664.278	7.77
664.31	23.77
664.342	8.77
664.374	-7.23
664.406	-0.23
664.438	-8.23
664.47	-1.23
664.502	-0.23
664.534	1.77
664.566	-6.23
664.598	7.77
664.63	-17.23
664.662	1.77
664.693	-5.23
664.725	-0.23
664.757	-3.23
664.789	-12.23
664.821	-1.23
664.853	1.77
664.885	-0.23
664.917	-13.23
664.949	11.77
664.981	21.77
665.013	2.77
665.045	-4.23
665.076	0.77
665.108	-11.23
665.14	-9.23
665.172	4.77
665.204	-13.23
665.236	-10.23
665.268	5.77
665.3	-5.23
665.331	-16.23
665.363	-4.23
665.395	-2.23
665.427	-6.23
665.459	-4.23
665.491	-23.23
665.523	-17.23
665.555	-9.23
665.586	-11.23
665.618	-10.23
665.65	-8.23
665.682	6.77
665.714	5.77
665.746	-20.23
665.777	8.77
665.809	-4.23
665.841	-2.23
665.873	1.77
665.905	9.77
665.937	10.77
665.968	5.77
666	6.77
666.032	-0.23
666.064	0.77
666.096	-7.23
666.127	-1.23
666.159	10.77
666.191	2.77
666.223	3.77
666.255	2.77
666.286	2.77
666.318	0.77
666.35	5.77
666.382	5.77
666.413	2.77
666.445	-7.23
666.477	-19.23
666.509	-20.23
666.54	-3.23
666.572	-10.23
666.604	-16.23
666.636	-7.23
666.667	9.77
666.699	7.77
666.731	-2.23
666.763	-1.23
666.794	-0.23
666.826	0.77
666.858	-9.23
666.89	-2.23
666.921	5.77
666.953	-8.23
666.985	2.77
667.017	2.77
667.048	2.77
667.08	13.77
667.112	4.77
667.143	-2.23
667.175	3.77
667.207	-2.23
667.238	1.77
667.27	-13.23
667.302	-16.23
667.334	-9.23
667.365	11.77
667.397	-4.23
667.429	-3.23
667.46	7.77
667.492	0.77
667.524	-9.23
667.555	-16.23
667.587	-3.23
667.619	-1.23
667.65	-5.23
667.682	-9.23
667.714	-11.23
667.745	-6.23
667.777	-16.23
667.808	-4.23
667.84	-10.23
667.872	4.77
667.903	11.77
667.935	-9.23
667.967	-3.23
667.998	-10.23
668.03	-2.23
668.061	8.77
668.093	-1.23
668.125	-0.23
668.156	4.77
668.188	6.77
668.22	-17.23
668.251	-1.23
668.283	-5.23
668.314	19.77
668.346	8.77
668.377	9.77
668.409	13.77
668.441	20.77
668.472	4.77
668.504	9.77
668.535	-2.23
668.567	0.77
668.599	-1.23
668.63	-11.23
668.662	-9.23
668.693	-0.23
668.725	-0.23
668.756	-0.23
668.788	-6.23
668.819	-9.23
668.851	7.77
668.882	7.77
668.914	2.77
668.946	-8.23
668.977	-1.23
669.009	6.77
669.04	-12.23
669.072	16.77
669.103	7.77
669.135	2.77
669.166	5.77
669.198	14.77
669.229	-0.23
669.261	-7.23
669.292	-13.23
669.324	0.77
669.355	12.77
669.387	-0.23
669.418	4.77
669.45	-16.23
669.481	-0.23
669.513	9.77
669.544	0.77
669.576	0.77
669.607	4.77
669.639	20.77
669.67	8.77
669.701	7.77
669.733	-5.23
669.764	-15.23
669.796	-7.23
669.827	-16.23
669.859	2.77
669.89	8.77
669.922	8.77
669.953	1.77
669.985	-2.23
670.016	0.77
670.047	4.77
670.079	-10.23
670.11	2.77
670.142	1.77
670.173	4.77
670.204	-13.23
670.236	3.77
670.267	-14.23
670.299	-0.23
670.33	-6.23
670.362	7.77
670.393	-24.23
670.424	9.77
670.456	-9.23
670.487	-1.23
670.518	-3.23
670.55	3.77
670.581	-2.23
670.613	-8.23
670.644	-16.23
670.675	-8.23
670.707	-15.23
670.738	-6.23
670.769	-10.23
670.801	-16.23
670.832	8.77
670.864	-5.23
670.895	-12.23
670.926	-1.23
670.958	-13.23
670.989	2.77
671.02	-5.23
671.052	4.77
671.083	8.77
671.114	0.77
671.146	27.77
671.177	6.77
671.208	-8.23
671.24	-9.23
671.271	-9.23
671.302	9.77
671.333	-3.23
671.365	-7.23
671.396	-6.23
671.427	-1.23
671.459	-0.23
671.49	4.77
671.521	0.77
671.553	2.77
671.584	11.77
671.615	-4.23
671.646	-0.23
671.678	6.77
671.709	-13.23
671.74	-20.23
671.771	-10.23
671.803	-20.23
671.834	10.77
671.865	6.77
671.896	-6.23
671.928	-0.23
671.959	1.77
671.99	2.77
672.021	-6.23
672.053	-15.23
672.084	21.77
672.115	-6.23
672.146	-9.23
672.178	-27.23
672.209	-3.23
672.24	-10.23
672.271	35.77
672.303	3.77
672.334	-4.23
672.365	-4.23
672.396	2.77
672.427	-0.23
672.459	9.77
672.49	14.77
672.521	2.77
672.552	-1.23
672.583	-17.23
672.615	11.77
672.646	12.77
672.677	-4.23
672.708	-16.23
672.739	0.77
672.77	3.77
672.802	-5.23
672.833	-9.23
672.864	15.77
672.895	0.77
672.926	-15.23
672.957	-6.23
672.989	-6.23
673.02	-5.23
673.051	-11.23
673.082	3.77
673.113	1.77
673.144	13.77
673.175	-3.23
673.206	-11.23
673.238	-8.23
673.269	6.77
673.3	-10.23
673.331	-0.23
673.362	4.77
673.393	-0.23
673.424	6.77
673.455	16.77
673.487	1.77
673.518	18.77
673.549	-3.23
673.58	-16.23
673.611	6.77
673.642	9.77
673.673	-22.23
673.704	2.77
673.735	-1.23
673.766	-10.23
673.797	-25.23
673.828	9.77
673.86	-12.23
673.891	-13.23
673.922	-10.23
673.953	-8.23
673.984	6.77
674.015	10.77
674.046	3.77
674.077	1.77
674.108	-7.23
674.139	0.77
674.17	-8.23
674.201	-1.23
674.232	-12.23
674.263	-4.23
674.294	-10.23
674.325	-14.23
674.356	-6.23
674.387	7.77
674.418	-5.23
674.449	-10.23
674.48	-24.23
674.511	2.77
674.542	9.77
674.573	-10.23
674.604	3.77
674.635	-6.23
674.666	-0.23
674.697	-1.23
674.728	12.77
674.759	-1.23
674.79	-12.23
674.821	-14.23
674.852	-2.23
674.883	-8.23
674.914	-18.23
674.945	-9.23
674.976	2.77
675.007	-15.23
675.038	-4.23
675.069	-23.23
675.1	-4.23
675.131	-1.23
675.162	-16.23
675.193	-16.23
675.224	-12.23
675.254	4.77
675.285	-6.23
675.316	20.77
675.347	5.77
675.378	0.77
675.409	-3.23
675.44	-6.23
675.471	-12.23
675.502	5.77
675.533	-2.23
675.564	-3.23
675.595	3.77
675.625	12.77
675.656	6.77
675.687	7.77
675.718	-19.23
675.749	-1.23
675.78	-1.23
675.811	-0.23
675.842	-8.23
675.873	-6.23
675.903	1.77
675.934	-3.23
675.965	4.77
675.996	-14.23
676.027	8.77
676.058	-4.23
676.089	-9.23
676.119	-11.23
676.15	-12.23
676.181	-10.23
676.212	-8.23
676.243	-8.23
676.274	-1.23
676.304	14.77
676.335	-12.23
676.366	0.77
676.397	-18.23
676.428	5.77
676.459	-9.23
676.489	-4.23
676.52	-5.23
676.551	-9.23
676.582	-20.23
676.613	-12.23
676.643	-14.23
676.674	16.77
676.705	-9.23
676.736	-4.23
676.767	12.77
676.797	-1.23
676.828	9.77
676.859	-10.23
676.89	11.77
676.92	-3.23
676.951	21.77
676.982	0.77
677.013	-2.23
677.044	7.77
677.074	13.77
677.105	-7.23
677.136	19.77
677.167	9.77
677.197	1.77
677.228	-9.23
677.259	0.77
677.289	2.77
677.32	-21.23
677.351	-14.23
677.382	-1.23
677.412	-23.23
677.443	4.77
677.474	6.77
677.505	-10.23
677.535	12.77
677.566	-7.23
677.597	-12.23
677.627	-8.23
677.658	-3.23
677.689	3.77
677.72	-2.23
677.75	-16.23
677.781	1.77
677.812	0.77
677.842	17.77
677.873	-3.23
677.904	1.77
677.934	-4.23
677.965	2.77
677.996	-1.23
678.026	-7.23
678.057	4.77
678.088	-15.23
678.118	-4.23
678.149	7.77
678.18	5.77
678.21	8.77
678.241	9.77
678.272	-1.23
678.302	-0.23
678.333	7.77
678.363	0.77
678.394	16.77
678.425	-20.23
678.455	-5.23
678.486	-2.23
678.517	1.77
678.547	-1.23
678.578	-7.23
678.608	-20.23
678.639	9.77
678.67	-1.23
678.7	-18.23
678.731	2.77
678.761	15.77
678.792	8.77
678.823	6.77
678.853	-12.23
678.884	-17.23
678.914	1.77
678.945	-6.23
678.975	-1.23
679.006	-0.23
679.037	0.77
679.067	17.77
679.098	-13.23
679.128	2.77
679.159	0.77
679.189	9.77
679.22	-2.23
679.25	-10.23
679.281	-0.23
679.312	0.77
679.342	-14.23
679.373	16.77
679.403	-3.23
679.434	-16.23
679.464	-7.23
679.495	1.77
679.525	2.77
679.556	0.77
679.586	6.77
679.617	8.77
679.647	8.77
679.678	0.77
679.708	-4.23
679.739	-7.23
679.769	-9.23
679.8	-8.23
679.83	-6.23
679.861	8.77
679.891	-14.23
679.922	-8.23
679.952	4.77
679.983	13.77
680.013	-7.23
680.044	8.77
680.074	7.77
680.105	9.77
680.135	4.77
680.165	-3.23
680.196	13.77
680.226	16.77
680.257	7.77
680.287	11.77
680.318	2.77
680.348	-12.23
680.379	1.77
680.409	3.77
680.439	-5.23
680.47	-3.23
680.5	5.77
680.531	6.77
680.561	0.77
680.592	-1.23
680.622	9.77
680.652	3.77
680.683	16.77
680.713	3.77
680.744	-0.23
680.774	-13.23
680.804	0.77
680.835	-3.23
680.865	-5.23
680.896	19.77
680.926	1.77
680.956	-0.23
680.987	-11.23
681.017	-9.23
681.047	19.77
681.078	-14.23
681.108	6.77
681.139	9.77
681.169	1.77
681.199	2.77
681.23	2.77
681.26	-3.23
681.29	6.77
681.321	-9.23
681.351	2.77
681.381	-8.23
681.412	8.77
681.442	0.77
681.472	3.77
681.503	-4.23
681.533	8.77
681.563	2.77
681.594	-6.23
681.624	-1.23
681.654	-22.23
681.685	-20.23
681.715	-3.23
681.745	-5.23
681.775	2.77
681.806	17.77
681.836	5.77
681.866	0.77
681.897	-2.23
681.927	-7.23
681.957	-14.23
681.987	14.77
682.018	-8.23
682.048	1.77
682.078	6.77
682.109	18.77
682.139	12.77
682.169	-3.23
682.199	-4.23
682.23	-9.23
682.26	-0.23
682.29	-13.23
682.32	14.77
682.351	-20.23
682.381	-17.23
682.411	-7.23
682.441	-4.23
682.472	-12.23
682.502	15.77
682.532	-3.23
682.562	-1.23
682.592	5.77
682.623	5.77
682.653	2.77
682.683	2.77
682.713	0.77
682.743	-1.23
682.774	3.77
682.804	-0.23
682.834	24.77
682.864	-3.23
682.894	1.77
682.925	-5.23
682.955	-14.23
682.985	-7.23
683.015	8.77
683.045	19.77
683.076	2.77
683.106	-19.23
683.136	-11.23
683.166	-8.23
683.196	-4.23
683.226	-2.23
683.257	-4.23
683.287	-5.23
683.317	-15.23
683.347	-3.23
683.377	-2.23
683.407	-4.23
683.437	-12.23
683.468	-1.23
683.498	-3.23
683.528	0.77
683.558	11.77
683.588	1.77
683.618	-4.23
683.648	-15.23
683.678	9.77
683.708	2.77
683.739	-12.23
683.769	-5.23
683.799	3.77
683.829	14.77
683.859	5.77
683.889	3.77
683.919	-9.23
683.949	-5.23
683.979	-2.23
684.009	-18.23
684.039	5.77
684.07	-11.23
684.1	6.77
684.13	1.77
684.16	12.77
684.19	-10.23
684.22	-5.23
684.25	-4.23
684.28	-1.23
684.31	10.77
684.34	12.77
684.37	13.77
684.4	0.77
684.43	-0.23
684.46	-3.23
684.49	-3.23
684.52	-7.23
684.55	5.77
684.58	0.77
684.61	1.77
684.64	15.77
684.67	2.77
684.7	-0.23
684.73	0.77
684.76	-9.23
684.79	3.77
684.82	-15.23
684.85	-9.23
684.88	8.77
684.91	-0.23
684.94	-6.23
684.97	-11.23
685	-18.23
685.03	0.77
685.06	-14.23
685.09	1.77
685.12	24.77
685.15	-2.23
685.18	15.77
685.21	3.77
685.24	20.77
685.27	18.77
685.3	-4.23
685.33	-5.23
685.36	1.77
685.39	-2.23
685.42	-9.23
685.45	-3.23
685.48	7.77
685.51	-10.23
685.54	-2.23
685.569	5.77
685.599	0.77
685.629	-12.23
685.659	-7.23
685.689	1.77
685.719	8.77
685.749	4.77
685.779	-7.23
685.809	-3.23
685.839	7.77
685.869	10.77
685.898	19.77
685.928	-1.23
685.958	-6.23
685.988	3.77
686.018	7.77
686.048	8.77
686.078	7.77
686.108	5.77
686.137	8.77
686.167	4.77
686.197	-5.23
686.227	0.77
686.257	28.77
686.287	19.77
686.317	-1.23
686.346	-19.23
686.376	-4.23
686.406	-7.23
686.436	10.77
686.466	-20.23
686.496	-1.23
686.525	5.77
686.555	-11.23
686.585	11.77
686.615	26.77
686.645	16.77
686.675	-7.23
686.704	-2.23
686.734	0.77
686.764	3.77
686.794	0.77
686.824	-8.23
686.853	6.77
686.883	2.77
686.913	6.77
686.943	14.77
686.973	-5.23
687.002	13.77
687.032	15.77
687.062	2.77
687.092	18.77
687.121	-22.23
687.151	-15.23
687.181	-9.23
687.211	9.77
687.24	-3.23
687.27	-12.23
687.3	2.77
687.33	-6.23
687.359	-26.23
687.389	-18.23
687.419	-1.23
687.449	-4.23
687.478	4.77
687.508	-0.23
687.538	5.77
687.568	-8.23
687.597	-20.23
687.627	7.77
687.657	-1.23
687.686	5.77
687.716	23.77
687.746	-1.23
687.776	-0.23
687.805	7.77
687.835	-6.23
687.865	20.77
687.894	-1.23
687.924	-5.23
687.954	-8.23
687.983	-14.23
688.013	-9.23
688.043	12.77
688.072	4.77
688.102	9.77
688.132	4.77
688.161	0.77
688.191	10.77
688.221	3.77
688.25	0.77
688.28	12.77
688.31	-4.23
688.339	-11.23
688.369	-23.23
688.399	-4.23
688.428	10.77
688.458	4.77
688.488	-12.23
688.517	2.77
688.547	-19.23
688.576	9.77
688.606	7.77
688.636	-6.23
688.665	1.77
688.695	2.77
688.725	8.77
688.754	-7.23
688.784	7.77
688.813	20.77
688.843	1.77
688.873	-15.23
688.902	-2.23
688.932	-13.23
688.961	-1.23
688.991	-3.23
689.02	-3.23
689.05	-10.23
689.08	19.77
689.109	11.77
689.139	-9.23
689.168	7.77
689.198	4.77
689.227	-10.23
689.257	7.77
689.287	26.77
689.316	12.77
689.346	-4.23
689.375	-21.23
689.405	15.77
689.434	6.77
689.464	4.77
689.493	7.77
689.523	-12.23
689.552	-13.23
689.582	-1.23
689.611	-9.23
689.641	2.77
689.67	-14.23
689.7	21.77
689.73	11.77
689.759	6.77
689.789	7.77
689.818	-8.23
689.848	4.77
689.877	6.77
689.906	4.77
689.936	-15.23
689.965	2.77
689.995	-1.23
690.024	-3.23
690.054	-5.23
690.083	-1.23
690.113	3.77
690.142	0.77
690.172	5.77
690.201	3.77
690.231	-7.23
690.26	18.77
690.29	-3.23
690.319	-4.23
690.348	-8.23
690.378	-18.23
690.407	0.77
690.437	-14.23
690.466	9.77
690.496	-7.23
690.525	-4.23
690.555	-14.23
690.584	-7.23
690.613	-1.23
690.643	-1.23
690.672	-1.23
690.702	3.77
690.731	-3.23
690.76	22.77
690.79	51.77
690.819	56.77
690.849	48.77
690.878	32.77
690.907	9.77
690.937	8.77
690.966	19.77
690.996	6.77
691.025	11.77
691.054	1.77
691.084	5.77
691.113	-4.23
691.142	5.77
691.172	-0.23
691.201	12.77
691.23	-3.23
691.26	20.77
691.289	0.77
691.319	-3.23
691.348	-4.23
691.377	18.77
691.407	7.77
691.436	-1.23
691.465	-4.23
691.495	-20.23
691.524	-23.23
691.553	-6.23
691.583	-8.23
691.612	13.77
691.641	8.77
691.67	-4.23
691.7	8.77
691.729	-4.23
691.758	0.77
691.788	1.77
691.817	-7.23
691.846	-14.23
691.876	2.77
691.905	7.77
691.934	-0.23
691.963	-0.23
691.993	6.77
692.022	3.77
692.051	-7.23
692.081	12.77
692.11	22.77
692.139	5.77
692.168	8.77
692.198	16.77
692.227	12.77
692.256	-0.23
692.285	-10.23
692.315	-2.23
692.344	16.77
692.373	3.77
692.402	-7.23
692.432	-10.23
692.461	-8.23
692.49	-12.23
692.519	-1.23
692.548	3.77
692.578	20.77
692.607	-3.23
692.636	-2.23
692.665	23.77
692.694	-9.23
692.724	3.77
692.753	8.77
692.782	20.77
692.811	-13.23
692.84	4.77
692.87	6.77
692.899	2.77
692.928	-17.23
692.957	-2.23
692.986	12.77
693.016	21.77
693.045	0.77
693.074	10.77
693.103	14.77
693.132	6.77
693.161	4.77
693.191	-8.23
693.22	-8.23
693.249	5.77
693.278	4.77
693.307	4.77
693.336	-17.23
693.365	-19.23
693.395	-0.23
693.424	-2.23
693.453	3.77
693.482	-14.23
693.511	2.77
693.54	-8.23
693.569	-0.23
693.598	-12.23
693.628	7.77
693.657	20.77
693.686	30.77
693.715	2.77
693.744	7.77
693.773	14.77
693.802	0.77
693.831	-3.23
693.86	18.77
693.889	-11.23
693.919	7.77
693.948	-6.23
693.977	4.77
694.006	-4.23
694.035	-1.23
694.064	-4.23
694.093	-12.23
694.122	-11.23
694.151	-8.23
694.18	-3.23
694.209	13.77
694.238	19.77
694.267	26.77
694.296	15.77
694.325	18.77
694.354	21.77
694.383	2.77
694.412	-2.23
694.441	5.77
694.471	-2.23
694.5	-11.23
694.529	-5.23
694.558	11.77
694.587	9.77
694.616	-1.23
694.645	1.77
694.674	11.77
694.703	11.77
694.732	-2.23
694.761	19.77
694.79	19.77
694.819	-16.23
694.848	4.77
694.877	10.77
694.906	23.77
694.935	4.77
694.963	10.77
694.992	-4.23
695.021	11.77
695.05	9.77
695.079	4.77
695.108	4.77
695.137	22.77
695.166	15.77
695.195	6.77
695.224	13.77
695.253	-0.23
695.282	10.77
695.311	5.77
695.34	5.77
695.369	0.77
695.398	-0.23
695.427	18.77
695.456	9.77
695.485	11.77
695.513	-0.23
695.542	-0.23
695.571	-9.23
695.6	3.77
695.629	-3.23
695.658	18.77
695.687	10.77
695.716	1.77
695.745	5.77
695.774	-3.23
695.802	1.77
695.831	12.77
695.86	14.77
695.889	21.77
695.918	-0.23
695.947	6.77
695.976	-11.23
696.005	-15.23
696.033	1.77
696.062	24.77
696.091	8.77
696.12	2.77
696.149	5.77
696.178	-0.23
696.207	12.77
696.235	-3.23
696.264	3.77
696.293	7.77
696.322	7.77
696.351	12.77
696.38	-13.23
696.408	11.77
696.437	-2.23
696.466	14.77
696.495	26.77
696.524	-3.23
696.553	9.77
696.581	20.77
696.61	9.77
696.639	3.77
696.668	9.77
696.697	-4.23
696.725	7.77
696.754	7.77
696.783	9.77
696.812	-0.23
696.84	6.77
696.869	14.77
696.898	-5.23
696.927	13.77
696.956	14.77
696.984	2.77
697.013	4.77
697.042	6.77
697.071	5.77
697.099	7.77
697.128	9.77
697.157	13.77
697.186	-7.23
697.214	6.77
697.243	-6.23
697.272	-5.23
697.301	7.77
697.329	-2.23
697.358	8.77
697.387	18.77
697.415	0.77
697.444	-1.23
697.473	0.77
697.502	-1.23
697.53	12.77
697.559	3.77
697.588	7.77
697.616	8.77
697.645	1.77
697.674	23.77
697.703	0.77
697.731	7.77
697.76	8.77
697.789	-1.23
697.817	6.77
697.846	9.77
697.875	8.77
697.903	30.77
697.932	16.77
697.961	-0.23
697.989	5.77
698.018	16.77
698.047	13.77
698.075	13.77
698.104	-12.23
698.133	0.77
698.161	5.77
698.19	3.77
698.218	11.77
698.247	14.77
698.276	-5.23
698.304	12.77
698.333	7.77
698.362	-3.23
698.39	-13.23
698.419	0.77
698.447	-5.23
698.476	-1.23
698.505	5.77
698.533	7.77
698.562	9.77
698.591	-4.23
698.619	-18.23
698.648	-2.23
698.676	-1.23
698.705	2.77
698.733	10.77
698.762	14.77
698.791	8.77
698.819	0.77
698.848	-3.23
698.876	19.77
698.905	4.77
698.933	11.77
698.962	6.77
698.991	0.77
699.019	15.77
699.048	-4.23
699.076	-2.23
699.105	2.77
699.133	29.77
699.162	12.77
699.19	18.77
699.219	12.77
699.248	-5.23
699.276	5.77
699.305	-5.23
699.333	3.77
699.362	1.77
699.39	14.77
699.419	-1.23
699.447	2.77
699.476	16.77
699.504	4.77
699.533	17.77
699.561	-4.23
699.59	9.77
699.618	7.77
699.647	15.77
699.675	6.77
699.704	11.77
699.732	-13.23
699.761	-5.23
699.789	-5.23
699.818	8.77
699.846	-9.23
699.874	-9.23
699.903	-8.23
699.931	7.77
699.96	11.77
699.988	7.77
700.017	-4.23
700.045	7.77
700.074	-10.23
700.102	-10.23
700.13	-18.23
700.159	12.77
700.187	12.77
700.216	7.77
700.244	2.77
700.273	-0.23
700.301	4.77
700.329	7.77
700.358	12.77
700.386	-6.23
700.415	-4.23
700.443	-3.23
700.472	2.77
700.5	9.77
700.528	-0.23
700.557	-2.23
700.585	-17.23
700.614	-1.23
700.642	21.77
700.67	21.77
700.699	-1.23
700.727	-3.23
700.755	10.77
700.784	-1.23
700.812	-1.23
700.841	15.77
700.869	-7.23
700.897	-4.23
700.926	-1.23
700.954	-5.23
700.982	12.77
701.011	6.77
701.039	6.77
701.067	0.77
701.096	14.77
701.124	-3.23
701.152	-7.23
701.181	-32.23
701.209	-23.23
701.237	-4.23
701.266	4.77
701.294	-10.23
701.322	7.77
701.351	0.77
701.379	2.77
701.407	2.77
701.435	-2.23
701.464	-4.23
701.492	24.77
701.52	-1.23
701.549	-13.23
701.577	-5.23
701.605	-11.23
701.634	1.77
701.662	-1.23
701.69	-21.23
701.718	0.77
701.747	2.77
701.775	15.77
701.803	2.77
701.831	11.77
701.86	-4.23
701.888	-3.23
701.916	5.77
701.944	-13.23
701.973	-5.23
702.001	-8.23
702.029	-2.23
702.057	-16.23
702.086	-18.23
702.114	-20.23
702.142	-9.23
702.17	-15.23
702.199	2.77
702.227	0.77
702.255	-1.23
702.283	-5.23
702.311	19.77
702.34	-2.23
702.368	-7.23
702.396	-11.23
702.424	-4.23
702.452	1.77
702.481	10.77
702.509	3.77
702.537	8.77
702.565	7.77
702.593	-3.23
702.621	-0.23
702.65	13.77
702.678	14.77
702.706	19.77
702.734	-6.23
702.762	5.77
702.79	-2.23
702.819	-3.23
702.847	-0.23
702.875	12.77
702.903	1.77
702.931	5.77
702.959	4.77
702.988	10.77
703.016	-3.23
703.044	0.77
703.072	-1.23
703.1	-10.23
703.128	3.77
703.156	15.77
703.184	-0.23
703.212	13.77
703.241	-2.23
703.269	-0.23
703.297	-13.23
703.325	-4.23
703.353	-3.23
703.381	-9.23
703.409	0.77
703.437	12.77
703.465	3.77
703.493	-16.23
703.522	-1.23
703.55	0.77
703.578	16.77
703.606	-7.23
703.634	-8.23
703.662	-10.23
703.69	2.77
703.718	3.77
703.746	21.77
703.774	-8.23
703.802	15.77
703.83	-5.23
703.858	-14.23
703.886	-10.23
703.914	-12.23
703.942	-3.23
703.97	-16.23
703.998	-18.23
704.027	7.77
704.055	2.77
704.083	5.77
704.111	-18.23
704.139	1.77
704.167	0.77
704.195	6.77
704.223	-8.23
704.251	-6.23
704.279	14.77
704.307	-12.23
704.335	-5.23
704.363	5.77
704.391	-8.23
704.419	5.77
704.447	0.77
704.475	-8.23
704.503	3.77
704.531	9.77
704.558	4.77
704.586	7.77
704.614	5.77
704.642	-1.23
704.67	-14.23
704.698	-5.23
704.726	5.77
704.754	-5.23
704.782	-1.23
704.81	-8.23
704.838	2.77
704.866	-12.23
704.894	-25.23
704.922	-5.23
704.95	15.77
704.978	5.77
705.006	2.77
705.034	10.77
705.061	-1.23
705.089	2.77
705.117	-18.23
705.145	-13.23
705.173	3.77
705.201	-1.23
705.229	-12.23
705.257	7.77
705.285	5.77
705.313	-6.23
705.34	-7.23
705.368	-8.23
705.396	6.77
705.424	-13.23
705.452	-4.23
705.48	5.77
705.508	-18.23
705.536	-1.23
705.563	6.77
705.591	8.77
705.619	1.77
705.647	-25.23
705.675	-7.23
705.703	7.77
705.731	5.77
705.758	11.77
705.786	1.77
705.814	7.77
705.842	-8.23
705.87	-9.23
705.898	4.77
705.925	-14.23
705.953	-9.23
705.981	-13.23
706.009	-12.23
706.037	0.77
706.065	-3.23
706.092	0.77
706.12	-5.23
706.148	-12.23
706.176	-5.23
706.204	14.77
706.231	10.77
706.259	-1.23
706.287	-0.23
706.315	1.77
706.342	-5.23
706.37	2.77
706.398	1.77
706.426	-2.23
706.454	9.77
706.481	6.77
706.509	-0.23
706.537	-2.23
706.565	1.77
706.592	5.77
706.62	3.77
706.648	-3.23
706.676	-18.23
706.703	-5.23
706.731	-3.23
706.759	-10.23
706.787	-3.23
706.814	7.77
706.842	8.77
706.87	-12.23
706.897	-3.23
706.925	3.77
706.953	23.77
706.981	6.77
707.008	-2.23
707.036	-2.23
707.064	-0.23
707.091	-23.23
707.119	17.77
707.147	20.77
707.174	-11.23
707.202	0.77
707.23	-7.23
707.258	8.77
707.285	2.77
707.313	-1.23
707.341	-4.23
707.368	-5.23
707.396	-5.23
707.424	31.77
707.451	5.77
707.479	6.77
707.507	-9.23
707.534	-11.23
707.562	-11.23
707.59	-8.23
707.617	-4.23
707.645	0.77
707.672	13.77
707.7	5.77
707.728	0.77
707.755	-0.23
707.783	1.77
707.811	8.77
707.838	4.77
707.866	-1.23
707.893	1.77
707.921	-7.23
707.949	-9.23
707.976	-1.23
708.004	-8.23
708.031	2.77
708.059	-12.23
708.087	3.77
708.114	-13.23
708.142	0.77
708.169	-7.23
708.197	-23.23
708.225	1.77
708.252	1.77
708.28	24.77
708.307	11.77
708.335	12.77
708.362	-0.23
708.39	-7.23
708.418	-5.23
708.445	-19.23
708.473	12.77
708.5	-9.23
708.528	0.77
708.555	-17.23
708.583	-0.23
708.61	-14.23
708.638	2.77
708.665	2.77
708.693	0.77
708.72	-7.23
708.748	-3.23
708.776	-17.23
708.803	15.77
708.831	19.77
708.858	27.77
708.886	-10.23
708.913	5.77
708.941	2.77
708.968	16.77
708.996	-10.23
709.023	24.77
709.051	-12.23
709.078	-8.23
709.105	-3.23
709.133	-11.23
709.16	-0.23
709.188	13.77
709.215	2.77
709.243	-4.23
709.27	-14.23
709.298	-1.23
709.325	4.77
709.353	8.77
709.38	-15.23
709.408	22.77
709.435	10.77
709.462	-1.23
709.49	-1.23
709.517	-10.23
709.545	0.77
709.572	-21.23
709.6	-11.23
709.627	0.77
709.655	-10.23
709.682	-14.23
709.709	-8.23
709.737	-3.23
709.764	-12.23
709.792	8.77
709.819	1.77
709.846	-0.23
709.874	8.77
709.901	6.77
709.929	24.77
709.956	22.77
709.983	-32.23
710.011	-6.23
710.038	2.77
710.066	4.77
710.093	8.77
710.12	1.77
710.148	-6.23
710.175	-9.23
710.202	-25.23
710.23	2.77
710.257	-7.23
710.284	7.77
710.312	-6.23
710.339	0.77
710.366	2.77
710.394	-5.23
710.421	-8.23
710.448	8.77
710.476	-11.23
710.503	-8.23
710.53	-0.23
710.558	9.77
710.585	6.77
710.612	-13.23
710.64	-5.23
710.667	2.77
710.694	-11.23
710.722	-4.23
710.749	-1.23
710.776	-5.23
710.804	5.77
710.831	-8.23
710.858	4.77
710.885	-0.23
710.913	3.77
710.94	14.77
710.967	-6.23
710.995	-21.23
711.022	-0.23
711.049	6.77
711.076	-8.23
711.104	-15.23
711.131	-7.23
711.158	-5.23
711.185	-2.23
711.213	-9.23
711.24	-15.23
711.267	3.77
711.294	-17.23
711.322	8.77
711.349	-11.23
711.376	-19.23
711.403	-7.23
711.431	-17.23
711.458	-0.23
711.485	-7.23
711.512	12.77
711.54	-3.23
711.567	-3.23
711.594	-7.23
711.621	-13.23
711.648	4.77
711.676	-5.23
711.703	-6.23
711.73	-25.23
711.757	1.77
711.784	3.77
711.812	0.77
711.839	0.77
711.866	-9.23
711.893	-1.23
711.92	2.77
711.947	-2.23
711.975	-5.23
712.002	-4.23
712.029	2.77
712.056	-14.23
712.083	-11.23
712.11	-43.23
712.138	2.77
712.165	10.77
712.192	8.77
712.219	-10.23
712.246	-13.23
712.273	-16.23
712.3	-7.23
712.328	13.77
712.355	-5.23
712.382	-10.23
712.409	-0.23
712.436	-31.23
712.463	0.77
712.49	-4.23
712.517	10.77
712.544	-0.23
712.572	0.77
712.599	-1.23
712.626	-4.23
712.653	-9.23
712.68	-11.23
712.707	-1.23
712.734	-6.23
712.761	-1.23
712.788	4.77
712.815	-3.23
712.842	26.77
712.87	-12.23
712.897	-11.23
712.924	-21.23
712.951	7.77
712.978	9.77
713.005	3.77
713.032	1.77
713.059	0.77
713.086	-9.23
713.113	-8.23
713.14	-12.23
713.167	7.77
713.194	13.77
713.221	-6.23
713.248	1.77
713.275	-5.23
713.302	-5.23
713.329	8.77
713.356	-9.23
713.383	12.77
713.41	9.77
713.437	-13.23
713.464	6.77
713.491	7.77
713.518	0.77
713.545	3.77
713.572	2.77
713.599	-0.23
713.626	-2.23
713.653	3.77
713.68	-10.23
713.707	-4.23
713.734	-0.23
713.761	-17.23
713.788	-9.23
713.815	4.77
713.842	7.77
713.869	-9.23
713.896	-2.23
713.923	0.77
713.95	-3.23
713.977	-0.23
714.004	-17.23
714.031	-9.23
714.058	-8.23
714.085	1.77
714.112	12.77
714.139	3.77
714.165	-3.23
714.192	2.77
714.219	7.77
714.246	4.77
714.273	-8.23
714.3	-25.23
714.327	-12.23
714.354	-1.23
714.381	-1.23
714.408	6.77
714.435	3.77
714.461	-5.23
714.488	5.77
714.515	-8.23
714.542	-9.23
714.569	-4.23
714.596	-26.23
714.623	-1.23
714.65	-16.23
714.677	-10.23
714.703	-8.23
714.73	-6.23
714.757	4.77
714.784	1.77
714.811	-8.23
714.838	-1.23
714.865	0.77
714.891	18.77
714.918	9.77
714.945	5.77
714.972	5.77
714.999	0.77
715.026	-7.23
715.052	2.77
715.079	-4.23
715.106	-10.23
715.133	6.77
715.16	-6.23
715.187	-8.23
715.213	4.77
715.24	-8.23
715.267	13.77
715.294	11.77
715.321	-5.23
715.347	-4.23
715.374	-12.23
715.401	-2.23
715.428	-0.23
715.455	4.77
715.481	-5.23
715.508	22.77
715.535	-3.23
715.562	15.77
715.588	4.77
715.615	-8.23
715.642	1.77
715.669	15.77
715.695	-8.23
715.722	-15.23
715.749	3.77
715.776	8.77
715.802	-1.23
715.829	-13.23
715.856	-18.23
715.883	10.77
715.909	-7.23
715.936	-0.23
715.963	-4.23
715.99	-5.23
716.016	-8.23
716.043	4.77
716.07	-12.23
716.096	-15.23
716.123	-14.23
716.15	1.77
716.177	-1.23
716.203	6.77
716.23	6.77
716.257	4.77
716.283	-4.23
716.31	-0.23
716.337	3.77
716.363	-6.23
716.39	11.77
716.417	17.77
716.443	13.77
716.47	12.77
716.497	19.77
716.523	3.77
716.55	8.77
716.577	10.77
716.603	10.77
716.63	-11.23
716.657	4.77
716.683	-10.23
716.71	-8.23
716.737	-11.23
716.763	3.77
716.79	-15.23
716.817	11.77
716.843	2.77
716.87	-15.23
716.897	1.77
716.923	3.77
716.95	-5.23
716.976	-11.23
717.003	15.77
717.03	7.77
717.056	0.77
717.083	8.77
717.109	3.77
717.136	16.77
717.163	-6.23
717.189	-0.23
717.216	3.77
717.242	-3.23
717.269	-7.23
717.296	-2.23
717.322	9.77
717.349	6.77
717.375	6.77
717.402	-4.23
717.428	14.77
717.455	5.77
717.481	5.77
717.508	15.77
717.535	2.77
717.561	9.77
717.588	-14.23
717.614	10.77
717.641	3.77
717.667	-1.23
717.694	2.77
717.72	-13.23
717.747	1.77
717.773	-2.23
717.8	8.77
717.826	9.77
717.853	-0.23
717.88	10.77
717.906	9.77
717.933	11.77
717.959	2.77
717.986	11.77
718.012	-6.23
718.039	-2.23
718.065	8.77
718.092	-0.23
718.118	-25.23
718.144	-11.23
718.171	15.77
718.197	20.77
718.224	-3.23
718.25	10.77
718.277	8.77
718.303	-1.23
718.33	0.77
718.356	4.77
718.383	-20.23
718.409	-1.23
718.436	-1.23
718.462	-2.23
718.489	-1.23
718.515	1.77
718.541	11.77
718.568	12.77
718.594	13.77
718.621	13.77
718.647	3.77
718.674	24.77
718.7	14.77
718.726	-15.23
718.753	-4.23
718.779	15.77
718.806	0.77
718.832	4.77
718.858	3.77
718.885	-6.23
718.911	4.77
718.938	-1.23
718.964	-2.23
718.99	-8.23
719.017	0.77
719.043	8.77
719.07	28.77
719.096	4.77
719.122	-0.23
719.149	-3.23
719.175	2.77
719.201	-3.23
719.228	-2.23
719.254	5.77
719.281	-6.23
719.307	-5.23
719.333	3.77
719.36	6.77
719.386	-2.23
719.412	8.77
719.439	-15.23
719.465	-6.23
719.491	7.77
719.518	7.77
719.544	0.77
719.57	26.77
719.597	4.77
719.623	-10.23
719.649	-4.23
719.675	7.77
719.702	-6.23
719.728	13.77
719.754	-15.23
719.781	-9.23
719.807	3.77
719.833	7.77
719.86	2.77
719.886	-5.23
719.912	7.77
719.938	-20.23
719.965	-6.23
719.991	-2.23
720.017	2.77
720.044	-8.23
720.07	4.77
720.096	-0.23
720.122	-11.23
720.149	-12.23
720.175	12.77
720.201	15.77
720.227	-0.23
720.254	-2.23
720.28	-8.23
720.306	1.77
720.332	-11.23
720.359	-4.23
720.385	0.77
720.411	5.77
720.437	2.77
720.463	-1.23
720.49	15.77
720.516	6.77
720.542	-17.23
720.568	-8.23
720.595	5.77
720.621	2.77
720.647	5.77
720.673	8.77
720.699	4.77
720.725	-4.23
720.752	-0.23
720.778	0.77
720.804	34.77
720.83	21.77
720.856	-14.23
720.883	-0.23
720.909	-3.23
720.935	6.77
720.961	9.77
720.987	15.77
721.013	-9.23
721.04	-12.23
721.066	-9.23
721.092	-10.23
721.118	5.77
721.144	-3.23
721.17	-5.23
721.196	9.77
721.223	-11.23
721.249	-20.23
721.275	16.77
721.301	-6.23
721.327	12.77
721.353	1.77
721.379	-2.23
721.405	13.77
721.432	16.77
721.458	-5.23
721.484	10.77
721.51	-7.23
721.536	-4.23
721.562	5.77
721.588	11.77
721.614	-11.23
721.64	-9.23
721.666	1.77
721.693	-10.23
721.719	-4.23
721.745	0.77
721.771	-12.23
721.797	-5.23
721.823	10.77
721.849	22.77
721.875	8.77
721.901	4.77
721.927	4.77
721.953	1.77
721.979	0.77
722.005	4.77
722.031	-10.23
722.057	5.77
722.083	-7.23
722.109	0.77
722.135	19.77
722.161	12.77
722.187	-6.23
722.214	-0.23
722.24	-0.23
722.266	-15.23
722.292	19.77
722.318	23.77
722.344	7.77
722.37	9.77
722.396	5.77
722.422	5.77
722.448	-0.23
722.474	-10.23
722.5	12.77
722.526	-0.23
722.552	-6.23
722.578	1.77
722.603	10.77
722.629	-12.23
722.655	-5.23
722.681	-8.23
722.707	-4.23
722.733	-1.23
722.759	-0.23
722.785	0.77
722.811	3.77
722.837	-4.23
722.863	0.77
722.889	3.77
722.915	-2.23
722.941	-5.23
722.967	3.77
722.993	0.77
723.019	-13.23
723.045	10.77
723.071	5.77
723.097	-1.23
723.122	-0.23
723.148	-12.23
723.174	-5.23
723.2	6.77
723.226	-11.23
723.252	8.77
723.278	-7.23
723.304	-11.23
723.33	-9.23
723.356	-18.23
723.381	-23.23
723.407	-9.23
723.433	15.77
723.459	-12.23
723.485	-13.23
723.511	7.77
723.537	0.77
723.563	-7.23
723.588	11.77
723.614	1.77
723.64	-2.23
723.666	-5.23
723.692	9.77
723.718	10.77
723.744	-8.23
723.769	-5.23
723.795	-15.23
723.821	2.77
723.847	-1.23
723.873	4.77
723.899	5.77
723.924	-9.23
723.95	-1.23
723.976	-4.23
724.002	3.77
724.028	18.77
724.053	7.77
724.079	2.77
724.105	6.77
724.131	-7.23
724.157	14.77
724.182	19.77
724.208	17.77
724.234	-7.23
724.26	-1.23
724.286	21.77
724.311	-1.23
724.337	8.77
724.363	-5.23
724.389	18.77
724.415	3.77
724.44	18.77
724.466	5.77
724.492	4.77
724.518	-5.23
724.543	2.77
724.569	5.77
724.595	4.77
724.621	7.77
724.646	-17.23
724.672	-4.23
724.698	-2.23
724.723	-14.23
724.749	-5.23
724.775	-5.23
724.801	5.77
724.826	6.77
724.852	8.77
724.878	2.77
724.904	-11.23
724.929	11.77
724.955	-8.23
724.981	0.77
725.006	-3.23
725.032	3.77
725.058	9.77
725.083	-11.23
725.109	-13.23
725.135	0.77
725.161	4.77
725.186	-6.23
725.212	-19.23
725.238	7.77
725.263	-7.23
725.289	-12.23
725.315	-12.23
725.34	-5.23
725.366	-11.23
725.392	-9.23
725.417	0.77
725.443	-0.23
725.468	-1.23
725.494	11.77
725.52	5.77
725.545	-8.23
725.571	-5.23
725.597	-7.23
725.622	1.77
725.648	5.77
725.674	11.77
725.699	9.77
725.725	6.77
725.75	26.77
725.776	-4.23
725.802	6.77
725.827	0.77
725.853	-9.23
725.878	2.77
725.904	-4.23
725.93	0.77
725.955	-8.23
725.981	0.77
726.006	-5.23
726.032	5.77
726.057	-14.23
726.083	-15.23
726.109	0.77
726.134	4.77
726.16	2.77
726.185	7.77
726.211	-5.23
726.236	7.77
726.262	2.77
726.288	-3.23
726.313	14.77
726.339	-2.23
726.364	-1.23
726.39	0.77
726.415	-1.23
726.441	-12.23
726.466	-5.23
726.492	-0.23
726.517	11.77
726.543	4.77
726.568	-0.23
726.594	10.77
726.619	1.77
726.645	-2.23
726.67	10.77
726.696	4.77
726.721	-1.23
726.747	-20.23
726.772	1.77
726.798	-15.23
726.823	2.77
726.849	-8.23
726.874	2.77
726.9	23.77
726.925	11.77
726.951	19.77
726.976	22.77
727.002	-5.23
727.027	-5.23
727.053	7.77
727.078	-14.23
727.104	0.77
727.129	-15.23
727.155	-14.23
727.18	6.77
727.205	7.77
727.231	-1.23
727.256	-9.23
727.282	-13.23
727.307	9.77
727.333	-8.23
727.358	-2.23
727.383	-4.23
727.409	-13.23
727.434	4.77
727.46	-3.23
727.485	-9.23
727.511	2.77
727.536	-13.23
727.561	-7.23
727.587	1.77
727.612	10.77
727.637	5.77
727.663	-3.23
727.688	26.77
727.714	-1.23
727.739	-5.23
727.764	-7.23
727.79	7.77
727.815	-2.23
727.841	12.77
727.866	9.77
727.891	0.77
727.917	-17.23
727.942	-13.23
727.967	-12.23
727.993	-15.23
728.018	-0.23
728.043	-11.23
728.069	-2.23
728.094	3.77
728.119	-10.23
728.145	13.77
728.17	19.77
728.195	7.77
728.221	11.77
728.246	-14.23
728.271	-18.23
728.297	14.77
728.322	13.77
728.347	5.77
728.373	-13.23
728.398	1.77
728.423	-8.23
728.448	-5.23
728.474	4.77
728.499	9.77
728.524	-3.23
728.55	0.77
728.575	-9.23
728.6	0.77
728.625	2.77
728.651	-0.23
728.676	-7.23
728.701	-12.23
728.727	-0.23
728.752	-3.23
728.777	-6.23
728.802	-5.23
728.828	0.77
728.853	-1.23
728.878	-0.23
728.903	-3.23
728.929	2.77
728.954	8.77
728.979	0.77
729.004	-13.23
729.03	-8.23
729.055	16.77
729.08	-17.23
729.105	-3.23
729.13	10.77
729.156	5.77
729.181	7.77
729.206	-14.23
729.231	-0.23
729.256	1.77
729.282	-7.23
729.307	-7.23
729.332	-18.23
729.357	-0.23
729.382	-7.23
729.408	-5.23
729.433	4.77
729.458	9.77
729.483	11.77
729.508	10.77
729.533	5.77
729.559	-9.23
729.584	-8.23
729.609	5.77
729.634	1.77
729.659	-17.23
729.684	-14.23
729.71	18.77
729.735	3.77
729.76	-3.23
729.785	1.77
729.81	15.77
729.835	6.77
729.86	0.77
729.886	3.77
729.911	17.77
729.936	8.77
729.961	24.77
729.986	18.77
730.011	73.77
730.036	192.77
730.061	1026.77
730.086	2734.77
730.112	3488.77
730.137	2914.77
730.162	2187.77
730.187	1690.77
730.212	1270.77
730.237	824.77
730.262	449.77
730.287	257.77
730.312	147.77
730.337	71.77
730.362	62.77
730.387	27.77
730.413	19.77
730.438	5.77
730.463	18.77
730.488	5.77
730.513	4.77
730.538	-0.23
730.563	16.77
730.588	13.77
730.613	1.77
730.638	-3.23
730.663	5.77
730.688	11.77
730.713	14.77
730.738	10.77
730.763	18.77
730.788	-6.23
730.813	-0.23
730.838	-9.23
730.863	1.77
730.888	2.77
730.913	5.77
730.938	9.77
730.963	14.77
730.988	102.77
731.013	407.77
731.038	610.77
731.063	594.77
731.088	455.77
731.113	354.77
731.138	289.77
731.163	180.77
731.188	96.77
731.213	46.77
731.238	35.77
731.263	11.77
731.288	5.77
731.313	12.77
731.338	-0.23
731.363	-11.23
731.388	10.77
731.413	5.77
731.438	4.77
731.463	-0.23
731.487	0.77
731.512	-4.23
731.537	-0.23
731.562	-2.23
731.587	7.77
731.612	4.77
731.637	-3.23
731.662	4.77
731.687	-7.23
731.712	-22.23
731.737	-11.23
731.762	3.77
731.786	4.77
731.811	27.77
731.836	12.77
731.861	-2.23
731.886	-3.23
731.911	-5.23
731.936	5.77
731.961	-1.23
731.986	-8.23
732.01	0.77
732.035	10.77
732.06	-6.23
732.085	-17.23
732.11	1.77
732.135	-21.23
732.16	11.77
732.184	-3.23
732.209	-4.23
732.234	5.77
732.259	-9.23
732.284	3.77
732.309	-9.23
732.334	10.77
732.358	-12.23
732.383	-7.23
732.408	-3.23
732.433	0.77
732.458	-7.23
732.482	8.77
732.507	-3.23
732.532	4.77
732.557	12.77
732.582	6.77
732.607	17.77
732.631	54.77
732.656	72.77
732.681	148.77
732.706	335.77
732.73	469.77
732.755	389.77
732.78	304.77
732.805	242.77
732.83	184.77
732.854	117.77
732.879	72.77
732.904	38.77
732.929	13.77
732.953	7.77
732.978	4.77
733.003	-3.23
733.028	4.77
733.052	-5.23
733.077	8.77
733.102	12.77
733.127	-7.23
733.151	-19.23
733.176	0.77
733.201	14.77
733.226	-0.23
733.25	1.77
733.275	-4.23
733.3	-2.23
733.324	22.77
733.349	13.77
733.374	7.77
733.399	-5.23
733.423	3.77
733.448	0.77
733.473	-0.23
733.497	-5.23
733.522	-8.23
733.547	9.77
733.571	-0.23
733.596	1.77
733.621	-5.23
733.646	-13.23
733.67	5.77
733.695	7.77
733.72	17.77
733.744	13.77
733.769	-4.23
733.794	-0.23
733.818	-1.23
733.843	-12.23
733.867	-6.23
733.892	8.77
733.917	-8.23
733.941	-2.23
733.966	-4.23
733.991	-6.23
734.015	13.77
734.04	4.77
734.065	20.77
734.089	5.77
734.114	-7.23
734.138	14.77
734.163	-6.23
734.188	10.77
734.212	4.77
734.237	2.77
734.261	13.77
734.286	2.77
734.311	8.77
734.335	-1.23
734.36	1.77
734.384	2.77
734.409	-0.23
734.434	-16.23
734.458	3.77
734.483	-7.23
734.507	-17.23
734.532	-12.23
734.556	-4.23
734.581	-7.23
734.606	12.77
734.63	-5.23
734.655	15.77
734.679	-3.23
734.704	-8.23
734.728	-5.23
734.753	-7.23
734.777	-1.23
734.802	-0.23
734.826	4.77
734.851	0.77
734.876	7.77
734.9	0.77
734.925	5.77
734.949	8.77
734.974	-4.23
734.998	7.77
735.023	1.77
735.047	-15.23
735.072	8.77
735.096	2.77
735.121	18.77
735.145	6.77
735.17	-3.23
735.194	-8.23
735.219	-1.23
735.243	22.77
735.268	2.77
735.292	7.77
735.317	-5.23
735.341	-8.23
735.365	-8.23
735.39	10.77
735.414	3.77
735.439	1.77
735.463	10.77
735.488	-8.23
735.512	7.77
735.537	7.77
735.561	-4.23
735.586	-2.23
735.61	7.77
735.634	-9.23
735.659	-4.23
735.683	8.77
735.708	16.77
735.732	-17.23
735.757	6.77
735.781	8.77
735.805	5.77
735.83	-12.23
735.854	-1.23
735.879	-8.23
735.903	4.77
735.927	3.77
735.952	6.77
735.976	4.77
736.001	0.77
736.025	-1.23
736.049	-1.23
736.074	-3.23
736.098	-8.23
736.123	6.77
736.147	-1.23
736.171	6.77
736.196	9.77
736.22	-17.23
736.244	1.77
736.269	-2.23
736.293	-8.23
736.317	-10.23
736.342	12.77
736.366	-2.23
736.39	4.77
736.415	-0.23
736.439	-0.23
736.463	11.77
736.488	-2.23
736.512	4.77
736.536	19.77
736.561	13.77
736.585	-2.23
736.609	8.77
736.634	-8.23
736.658	1.77
736.682	-4.23
736.707	-11.23
736.731	-10.23
736.755	-4.23
736.78	6.77
736.804	25.77
736.828	4.77
736.852	-7.23
736.877	4.77
736.901	15.77
736.925	5.77
736.949	9.77
736.974	-12.23
736.998	13.77
737.022	0.77
737.047	-4.23
737.071	-11.23
737.095	7.77
737.119	12.77
737.144	3.77
737.168	-3.23
737.192	-9.23
737.216	15.77
737.241	5.77
737.265	2.77
737.289	0.77
737.313	-6.23
737.337	4.77
737.362	-2.23
737.386	-13.23
737.41	-15.23
737.434	-15.23
737.459	-1.23
737.483	7.77
737.507	3.77
737.531	9.77
737.555	3.77
737.58	2.77
737.604	-7.23
737.628	-2.23
737.652	-4.23
737.676	-4.23
737.701	8.77
737.725	7.77
737.749	13.77
737.773	-10.23
737.797	-10.23
737.821	11.77
737.846	6.77
737.87	33.77
737.894	-5.23
737.918	-3.23
737.942	-1.23
737.966	33.77
737.99	20.77
738.015	11.77
738.039	2.77
738.063	8.77
738.087	20.77
738.111	-7.23
738.135	14.77
738.159	10.77
738.184	12.77
738.208	12.77
738.232	-7.23
738.256	17.77
738.28	14.77
738.304	17.77
738.328	-5.23
738.352	6.77
738.376	-7.23
738.4	-9.23
738.425	10.77
738.449	-12.23
738.473	25.77
738.497	18.77
738.521	16.77
738.545	1.77
738.569	8.77
738.593	17.77
738.617	8.77
738.641	-7.23
738.665	-4.23
738.689	11.77
738.713	-1.23
738.737	15.77
738.762	9.77
738.786	6.77
738.81	-7.23
738.834	-4.23
738.858	-7.23
738.882	18.77
738.906	5.77
738.93	8.77
738.954	4.77
738.978	15.77
739.002	-11.23
739.026	-11.23
739.05	8.77
739.074	6.77
739.098	8.77
739.122	8.77
739.146	11.77
739.17	7.77
739.194	4.77
739.218	-5.23
739.242	9.77
739.266	5.77
739.29	-0.23
739.314	-0.23
739.338	1.77
739.362	-2.23
739.386	8.77
739.41	-4.23
739.434	-11.23
739.458	11.77
739.482	11.77
739.506	-3.23
739.53	-4.23
739.554	22.77
739.577	6.77
739.601	16.77
739.625	-11.23
739.649	-8.23
739.673	-13.23
739.697	-3.23
739.721	3.77
739.745	-4.23
739.769	3.77
739.793	4.77
739.817	16.77
739.841	4.77
739.865	9.77
739.889	-17.23
739.912	2.77
739.936	3.77
739.96	0.77
739.984	14.77
740.008	6.77
740.032	-5.23
740.056	1.77
740.08	-4.23
740.104	-1.23
740.127	18.77
740.151	5.77
740.175	2.77
740.199	11.77
740.223	46.77
740.247	6.77
740.271	20.77
740.295	0.77
740.318	-32.23
740.342	-1.23
740.366	-1.23
740.39	-0.23
740.414	-12.23
740.438	-0.23
740.461	7.77
740.485	2.77
740.509	-13.23
740.533	6.77
740.557	-11.23
740.581	-10.23
740.604	-20.23
740.628	3.77
740.652	22.77
740.676	-6.23
740.7	7.77
740.723	-3.23
740.747	-1.23
740.771	5.77
740.795	-4.23
740.819	0.77
740.842	14.77
740.866	1.77
740.89	6.77
740.914	-5.23
740.938	-4.23
740.961	8.77
740.985	-7.23
741.009	-6.23
741.033	10.77
741.056	-5.23
741.08	-20.23
741.104	-7.23
741.128	5.77
741.151	12.77
741.175	19.77
741.199	-1.23
741.223	30.77
741.246	-13.23
741.27	15.77
741.294	-4.23
741.318	3.77
741.341	11.77
741.365	8.77
741.389	12.77
741.413	15.77
741.436	6.77
741.46	7.77
741.484	18.77
741.507	10.77
741.531	24.77
741.555	20.77
741.579	14.77
741.602	-10.23
741.626	0.77
741.65	8.77
741.673	18.77
741.697	18.77
741.721	2.77
741.744	-11.23
741.768	-11.23
741.792	10.77
741.815	-2.23
741.839	-0.23
741.863	19.77
741.886	9.77
741.91	18.77
741.934	-4.23
741.957	-13.23
741.981	11.77
742.005	1.77
742.028	-9.23
742.052	-11.23
742.075	8.77
742.099	19.77
742.123	-4.23
742.146	7.77
742.17	5.77
742.194	-4.23
742.217	9.77
742.241	-13.23
742.264	-12.23
742.288	19.77
742.312	15.77
742.335	1.77
742.359	-4.23
742.382	10.77
742.406	15.77
742.43	7.77
742.453	3.77
742.477	-7.23
742.5	-15.23
742.524	-5.23
742.548	-5.23
742.571	2.77
742.595	0.77
742.618	-13.23
742.642	-5.23
742.665	7.77
742.689	-13.23
742.712	-3.23
742.736	-4.23
742.76	13.77
742.783	3.77
742.807	5.77
742.83	9.77
742.854	-11.23
742.877	1.77
742.901	-8.23
742.924	-7.23
742.948	-13.23
742.971	6.77
742.995	2.77
743.018	-9.23
743.042	-8.23
743.065	-2.23
743.089	-13.23
743.112	4.77
743.136	-11.23
743.159	5.77
743.183	2.77
743.206	16.77
743.23	16.77
743.253	6.77
743.277	14.77
743.3	-5.23
743.324	-0.23
743.347	-3.23
743.371	10.77
743.394	-4.23
743.418	14.77
743.441	6.77
743.465	9.77
743.488	12.77
743.512	-16.23
743.535	2.77
743.558	-0.23
743.582	8.77
743.605	-8.23
743.629	13.77
743.652	13.77
743.676	-9.23
743.699	8.77
743.723	7.77
743.746	10.77
743.769	14.77
743.793	6.77
743.816	-2.23
743.84	9.77
743.863	1.77
743.886	12.77
743.91	-0.23
743.933	8.77
743.957	12.77
743.98	-1.23
744.003	6.77
744.027	6.77
744.05	0.77
744.074	13.77
744.097	-8.23
744.12	-10.23
744.144	-15.23
744.167	0.77
744.19	-5.23
744.214	5.77
744.237	-9.23
744.26	-2.23
744.284	-2.23
744.307	-8.23
744.331	11.77
744.354	1.77
744.377	-5.23
744.401	-1.23
744.424	-8.23
744.447	-12.23
744.471	-0.23
