Data from HighRes_mercury_15_13_11_07_2024_HR4C61891__50__15-14-28-186.txt Node

Date: Thu Nov 07 15:14:28 EST 2024
User: crc00042
Spectrometer: HR4C6189
Trigger mode: 4
Integration Time (sec): 1.000000E-1
Scans to average: 1
Electric dark correction enabled: true
Nonlinearity correction enabled: false
Boxcar width: 0
XAxis mode: Wavelengths
Number of Pixels in Spectrum: 3648
>>>>>Begin Spectral Data<<<<<
639.567	-55.23
639.602	-55.23
639.636	-55.23
639.67	-36.23
639.704	-5.23
639.738	0.77
639.773	5.77
639.807	-19.23
639.841	-1.23
639.875	7.77
639.909	-1.23
639.943	-4.23
639.978	-9.23
640.012	9.77
640.046	11.77
640.08	4.77
640.114	-4.23
640.148	-1.23
640.182	-19.23
640.217	-13.23
640.251	19.77
640.285	9.77
640.319	-0.23
640.353	12.77
640.387	10.77
640.421	-8.23
640.455	-15.23
640.49	3.77
640.524	-5.23
640.558	5.77
640.592	-5.23
640.626	16.77
640.66	-0.23
640.694	-12.23
640.728	-11.23
640.762	-3.23
640.796	18.77
640.83	5.77
640.865	-12.23
640.899	2.77
640.933	-7.23
640.967	-0.23
641.001	3.77
641.035	2.77
641.069	8.77
641.103	-5.23
641.137	-2.23
641.171	-16.23
641.205	9.77
641.239	2.77
641.273	11.77
641.307	3.77
641.341	7.77
641.375	0.77
641.409	-16.23
641.443	-13.23
641.477	-1.23
641.511	4.77
641.545	-1.23
641.579	5.77
641.614	7.77
641.648	8.77
641.682	-9.23
641.716	7.77
641.75	16.77
641.784	7.77
641.818	-4.23
641.852	3.77
641.886	-6.23
641.919	27.77
641.953	8.77
641.987	-2.23
642.021	-0.23
642.055	16.77
642.089	1.77
642.123	-7.23
642.157	-2.23
642.191	-3.23
642.225	12.77
642.259	-7.23
642.293	8.77
642.327	8.77
642.361	-7.23
642.395	-0.23
642.429	17.77
642.463	19.77
642.497	28.77
642.531	0.77
642.565	-15.23
642.599	8.77
642.633	-23.23
642.666	15.77
642.7	0.77
642.734	19.77
642.768	-13.23
642.802	-12.23
642.836	4.77
642.87	-5.23
642.904	1.77
642.938	1.77
642.972	0.77
643.005	-0.23
643.039	-0.23
643.073	-13.23
643.107	-4.23
643.141	1.77
643.175	-0.23
643.209	0.77
643.243	2.77
643.276	-0.23
643.31	1.77
643.344	-10.23
643.378	-5.23
643.412	14.77
643.446	16.77
643.48	-2.23
643.513	7.77
643.547	0.77
643.581	-6.23
643.615	-2.23
643.649	5.77
643.683	15.77
643.716	-1.23
643.75	6.77
643.784	-15.23
643.818	12.77
643.852	-5.23
643.886	-1.23
643.919	6.77
643.953	4.77
643.987	-2.23
644.021	22.77
644.055	8.77
644.088	-2.23
644.122	-10.23
644.156	0.77
644.19	2.77
644.224	-7.23
644.257	12.77
644.291	-2.23
644.325	-0.23
644.359	-0.23
644.392	17.77
644.426	20.77
644.46	6.77
644.494	5.77
644.527	-24.23
644.561	14.77
644.595	14.77
644.629	-10.23
644.662	1.77
644.696	6.77
644.73	5.77
644.764	12.77
644.797	1.77
644.831	2.77
644.865	3.77
644.899	10.77
644.932	19.77
644.966	9.77
645	0.77
645.033	5.77
645.067	-10.23
645.101	-2.23
645.135	-7.23
645.168	2.77
645.202	1.77
645.236	9.77
645.269	1.77
645.303	6.77
645.337	1.77
645.37	-7.23
645.404	7.77
645.438	-7.23
645.471	-2.23
645.505	4.77
645.539	10.77
645.572	-15.23
645.606	0.77
645.64	-2.23
645.673	2.77
645.707	15.77
645.741	-2.23
645.774	-18.23
645.808	11.77
645.842	0.77
645.875	4.77
645.909	3.77
645.943	-3.23
645.976	-1.23
646.01	12.77
646.043	12.77
646.077	6.77
646.111	10.77
646.144	20.77
646.178	4.77
646.212	-15.23
646.245	-2.23
646.279	9.77
646.312	4.77
646.346	5.77
646.38	-2.23
646.413	8.77
646.447	-6.23
646.48	-4.23
646.514	0.77
646.547	2.77
646.581	-7.23
646.615	-11.23
646.648	-10.23
646.682	-3.23
646.715	10.77
646.749	8.77
646.782	5.77
646.816	-5.23
646.85	11.77
646.883	-9.23
646.917	22.77
646.95	4.77
646.984	1.77
647.017	-3.23
647.051	13.77
647.084	-1.23
647.118	-2.23
647.151	0.77
647.185	3.77
647.218	-2.23
647.252	-0.23
647.285	-13.23
647.319	-1.23
647.353	-12.23
647.386	7.77
647.42	0.77
647.453	6.77
647.487	1.77
647.52	6.77
647.553	4.77
647.587	-7.23
647.62	-4.23
647.654	-0.23
647.687	3.77
647.721	-1.23
647.754	4.77
647.788	11.77
647.821	-4.23
647.855	-5.23
647.888	17.77
647.922	4.77
647.955	-10.23
647.989	3.77
648.022	11.77
648.055	9.77
648.089	1.77
648.122	21.77
648.156	-14.23
648.189	-22.23
648.223	10.77
648.256	14.77
648.29	6.77
648.323	-2.23
648.356	16.77
648.39	8.77
648.423	0.77
648.457	-9.23
648.49	5.77
648.523	2.77
648.557	-2.23
648.59	-13.23
648.624	2.77
648.657	-12.23
648.69	12.77
648.724	3.77
648.757	14.77
648.791	3.77
648.824	10.77
648.857	12.77
648.891	0.77
648.924	-6.23
648.957	13.77
648.991	-5.23
649.024	21.77
649.057	-0.23
649.091	9.77
649.124	24.77
649.158	8.77
649.191	37.77
649.224	13.77
649.258	15.77
649.291	-1.23
649.324	15.77
649.358	6.77
649.391	14.77
649.424	7.77
649.458	10.77
649.491	-2.23
649.524	-13.23
649.557	-9.23
649.591	-10.23
649.624	1.77
649.657	-13.23
649.691	-2.23
649.724	-2.23
649.757	-11.23
649.791	-6.23
649.824	9.77
649.857	3.77
649.89	20.77
649.924	-6.23
649.957	-4.23
649.99	-1.23
650.023	7.77
650.057	-16.23
650.09	8.77
650.123	15.77
650.157	-4.23
650.19	3.77
650.223	-4.23
650.256	-11.23
650.29	9.77
650.323	-6.23
650.356	1.77
650.389	-10.23
650.423	2.77
650.456	4.77
650.489	15.77
650.522	16.77
650.555	13.77
650.589	-4.23
650.622	10.77
650.655	22.77
650.688	-13.23
650.721	-4.23
650.755	-4.23
650.788	7.77
650.821	6.77
650.854	19.77
650.887	7.77
650.921	0.77
650.954	3.77
650.987	14.77
651.02	-5.23
651.053	0.77
651.087	10.77
651.12	25.77
651.153	11.77
651.186	3.77
651.219	-19.23
651.252	6.77
651.286	9.77
651.319	7.77
651.352	-1.23
651.385	-0.23
651.418	-1.23
651.451	0.77
651.484	8.77
651.518	-11.23
651.551	21.77
651.584	-10.23
651.617	-0.23
651.65	1.77
651.683	17.77
651.716	-8.23
651.749	-17.23
651.783	-8.23
651.816	-10.23
651.849	2.77
651.882	-2.23
651.915	15.77
651.948	1.77
651.981	-9.23
652.014	-18.23
652.047	-14.23
652.08	-9.23
652.114	-12.23
652.147	-1.23
652.18	0.77
652.213	34.77
652.246	1.77
652.279	-6.23
652.312	10.77
652.345	-2.23
652.378	10.77
652.411	20.77
652.444	-3.23
652.477	-4.23
652.51	8.77
652.543	-24.23
652.576	-5.23
652.609	-5.23
652.642	-2.23
652.675	24.77
652.709	15.77
652.742	-0.23
652.775	-5.23
652.808	1.77
652.841	2.77
652.874	-3.23
652.907	-3.23
652.94	-5.23
652.973	-7.23
653.006	-3.23
653.039	0.77
653.072	16.77
653.105	9.77
653.138	-5.23
653.171	-6.23
653.204	-6.23
653.237	2.77
653.27	-1.23
653.303	8.77
653.336	2.77
653.368	-6.23
653.401	1.77
653.434	-0.23
653.467	12.77
653.5	0.77
653.533	-10.23
653.566	6.77
653.599	12.77
653.632	2.77
653.665	4.77
653.698	2.77
653.731	2.77
653.764	16.77
653.797	7.77
653.83	0.77
653.863	-5.23
653.896	-1.23
653.929	-16.23
653.961	-5.23
653.994	14.77
654.027	3.77
654.06	6.77
654.093	13.77
654.126	8.77
654.159	-3.23
654.192	-0.23
654.225	-6.23
654.258	-13.23
654.29	0.77
654.323	-7.23
654.356	-3.23
654.389	-10.23
654.422	-12.23
654.455	-1.23
654.488	14.77
654.521	-4.23
654.553	-17.23
654.586	13.77
654.619	0.77
654.652	4.77
654.685	4.77
654.718	11.77
654.751	15.77
654.783	16.77
654.816	15.77
654.849	2.77
654.882	-11.23
654.915	-16.23
654.948	-0.23
654.98	-7.23
655.013	-3.23
655.046	-12.23
655.079	-18.23
655.112	1.77
655.144	-9.23
655.177	-0.23
655.21	19.77
655.243	15.77
655.276	11.77
655.308	-4.23
655.341	-4.23
655.374	-0.23
655.407	-2.23
655.44	-8.23
655.472	4.77
655.505	-0.23
655.538	4.77
655.571	13.77
655.603	-2.23
655.636	4.77
655.669	1.77
655.702	12.77
655.734	-29.23
655.767	-12.23
655.8	-2.23
655.833	-5.23
655.865	-3.23
655.898	-18.23
655.931	-0.23
655.964	-6.23
655.996	-2.23
656.029	1.77
656.062	-4.23
656.095	-5.23
656.127	-4.23
656.16	-4.23
656.193	0.77
656.225	7.77
656.258	8.77
656.291	-3.23
656.324	2.77
656.356	0.77
656.389	2.77
656.422	-8.23
656.454	-29.23
656.487	-14.23
656.52	-3.23
656.552	-0.23
656.585	9.77
656.618	2.77
656.65	4.77
656.683	-3.23
656.716	-1.23
656.748	0.77
656.781	2.77
656.814	-14.23
656.846	13.77
656.879	7.77
656.912	-2.23
656.944	-36.23
656.977	-17.23
657.01	-3.23
657.042	11.77
657.075	21.77
657.108	-8.23
657.14	11.77
657.173	4.77
657.205	15.77
657.238	14.77
657.271	-2.23
657.303	-2.23
657.336	26.77
657.369	8.77
657.401	-2.23
657.434	10.77
657.466	8.77
657.499	0.77
657.532	2.77
657.564	6.77
657.597	1.77
657.629	5.77
657.662	-17.23
657.694	-9.23
657.727	-13.23
657.76	9.77
657.792	4.77
657.825	-13.23
657.857	-4.23
657.89	4.77
657.922	16.77
657.955	-10.23
657.987	-2.23
658.02	7.77
658.053	16.77
658.085	20.77
658.118	-9.23
658.15	11.77
658.183	23.77
658.215	16.77
658.248	2.77
658.28	-6.23
658.313	17.77
658.345	3.77
658.378	7.77
658.41	-1.23
658.443	0.77
658.475	3.77
658.508	0.77
658.54	-6.23
658.573	1.77
658.605	5.77
658.638	-17.23
658.67	-7.23
658.703	8.77
658.735	-7.23
658.768	1.77
658.8	-5.23
658.833	15.77
658.865	2.77
658.898	0.77
658.93	3.77
658.963	8.77
658.995	-8.23
659.028	-2.23
659.06	-3.23
659.092	-8.23
659.125	-16.23
659.157	21.77
659.19	1.77
659.222	-4.23
659.255	1.77
659.287	16.77
659.32	7.77
659.352	0.77
659.384	3.77
659.417	-7.23
659.449	1.77
659.482	0.77
659.514	6.77
659.546	4.77
659.579	-14.23
659.611	-3.23
659.644	-4.23
659.676	11.77
659.708	-13.23
659.741	-19.23
659.773	-10.23
659.806	5.77
659.838	0.77
659.87	-1.23
659.903	-23.23
659.935	4.77
659.967	10.77
660	-9.23
660.032	-15.23
660.065	18.77
660.097	-16.23
660.129	-11.23
660.162	-20.23
660.194	8.77
660.226	7.77
660.259	5.77
660.291	0.77
660.323	-10.23
660.356	-0.23
660.388	-21.23
660.42	-4.23
660.453	5.77
660.485	13.77
660.517	1.77
660.55	2.77
660.582	7.77
660.614	11.77
660.647	-1.23
660.679	-17.23
660.711	-5.23
660.743	-4.23
660.776	-9.23
660.808	-11.23
660.84	-5.23
660.873	7.77
660.905	-2.23
660.937	0.77
660.969	-2.23
661.002	-10.23
661.034	10.77
661.066	15.77
661.099	8.77
661.131	21.77
661.163	-6.23
661.195	7.77
661.228	11.77
661.26	-3.23
661.292	3.77
661.324	3.77
661.357	13.77
661.389	5.77
661.421	4.77
661.453	-19.23
661.485	7.77
661.518	5.77
661.55	-5.23
661.582	-25.23
661.614	1.77
661.647	10.77
661.679	-2.23
661.711	-7.23
661.743	-10.23
661.775	-14.23
661.808	16.77
661.84	2.77
661.872	1.77
661.904	-15.23
661.936	-9.23
661.969	-15.23
662.001	-6.23
662.033	2.77
662.065	-18.23
662.097	3.77
662.129	6.77
662.162	-14.23
662.194	3.77
662.226	9.77
662.258	12.77
662.29	3.77
662.322	-4.23
662.355	0.77
662.387	22.77
662.419	11.77
662.451	4.77
662.483	13.77
662.515	-3.23
662.547	-12.23
662.58	-9.23
662.612	-13.23
662.644	-32.23
662.676	2.77
662.708	8.77
662.74	-4.23
662.772	8.77
662.804	9.77
662.836	7.77
662.869	-7.23
662.901	8.77
662.933	-19.23
662.965	9.77
662.997	4.77
663.029	-18.23
663.061	-6.23
663.093	-13.23
663.125	-3.23
663.157	12.77
663.189	13.77
663.221	11.77
663.254	16.77
663.286	5.77
663.318	3.77
663.35	-6.23
663.382	-12.23
663.414	8.77
663.446	-6.23
663.478	-18.23
663.51	19.77
663.542	-12.23
663.574	-6.23
663.606	-3.23
663.638	-10.23
663.67	7.77
663.702	3.77
663.734	2.77
663.766	3.77
663.798	0.77
663.83	11.77
663.862	0.77
663.894	9.77
663.926	4.77
663.958	-0.23
663.99	-11.23
664.022	-5.23
664.054	7.77
664.086	-2.23
664.118	-3.23
664.15	-7.23
664.182	1.77
664.214	-0.23
664.246	15.77
664.278	15.77
664.31	21.77
664.342	5.77
664.374	-4.23
664.406	-8.23
664.438	-7.23
664.47	4.77
664.502	-4.23
664.534	8.77
664.566	-7.23
664.598	15.77
664.63	-9.23
664.662	-11.23
664.693	-7.23
664.725	-13.23
664.757	-1.23
664.789	-26.23
664.821	8.77
664.853	-2.23
664.885	8.77
664.917	3.77
664.949	21.77
664.981	12.77
665.013	1.77
665.045	-11.23
665.076	2.77
665.108	-3.23
665.14	-12.23
665.172	3.77
665.204	-15.23
665.236	1.77
665.268	21.77
665.3	-7.23
665.331	-19.23
665.363	-2.23
665.395	-5.23
665.427	-8.23
665.459	5.77
665.491	-18.23
665.523	4.77
665.555	-2.23
665.586	-7.23
665.618	0.77
665.65	1.77
665.682	22.77
665.714	4.77
665.746	9.77
665.777	-6.23
665.809	-7.23
665.841	-8.23
665.873	-8.23
665.905	0.77
665.937	4.77
665.968	3.77
666	-2.23
666.032	-16.23
666.064	2.77
666.096	-4.23
666.127	10.77
666.159	5.77
666.191	14.77
666.223	4.77
666.255	10.77
666.286	-7.23
666.318	-7.23
666.35	10.77
666.382	-2.23
666.413	-9.23
666.445	-18.23
666.477	-27.23
666.509	-7.23
666.54	-2.23
666.572	-28.23
666.604	-5.23
666.636	6.77
666.667	10.77
666.699	14.77
666.731	-6.23
666.763	-29.23
666.794	-2.23
666.826	9.77
666.858	-11.23
666.89	2.77
666.921	4.77
666.953	-3.23
666.985	11.77
667.017	30.77
667.048	3.77
667.08	0.77
667.112	1.77
667.143	3.77
667.175	2.77
667.207	-1.23
667.238	14.77
667.27	17.77
667.302	1.77
667.334	-6.23
667.365	22.77
667.397	12.77
667.429	-0.23
667.46	14.77
667.492	-0.23
667.524	5.77
667.555	-11.23
667.587	-0.23
667.619	-10.23
667.65	-16.23
667.682	11.77
667.714	12.77
667.745	10.77
667.777	-14.23
667.808	6.77
667.84	4.77
667.872	-7.23
667.903	9.77
667.935	-1.23
667.967	0.77
667.998	9.77
668.03	0.77
668.061	6.77
668.093	-6.23
668.125	5.77
668.156	-2.23
668.188	-0.23
668.22	-18.23
668.251	6.77
668.283	8.77
668.314	28.77
668.346	3.77
668.377	20.77
668.409	7.77
668.441	24.77
668.472	9.77
668.504	8.77
668.535	-0.23
668.567	-1.23
668.599	4.77
668.63	6.77
668.662	-3.23
668.693	3.77
668.725	10.77
668.756	4.77
668.788	10.77
668.819	-7.23
668.851	0.77
668.882	6.77
668.914	5.77
668.946	-3.23
668.977	-24.23
669.009	-12.23
669.04	-2.23
669.072	8.77
669.103	-20.23
669.135	-14.23
669.166	-3.23
669.198	10.77
669.229	1.77
669.261	7.77
669.292	-8.23
669.324	-0.23
669.355	9.77
669.387	-10.23
669.418	4.77
669.45	-7.23
669.481	5.77
669.513	-15.23
669.544	0.77
669.576	-1.23
669.607	26.77
669.639	10.77
669.67	-6.23
669.701	1.77
669.733	-27.23
669.764	-9.23
669.796	-8.23
669.827	-3.23
669.859	9.77
669.89	8.77
669.922	20.77
669.953	-0.23
669.985	-4.23
670.016	4.77
670.047	4.77
670.079	-9.23
670.11	-6.23
670.142	-19.23
670.173	-0.23
670.204	-3.23
670.236	-1.23
670.267	-5.23
670.299	5.77
670.33	-9.23
670.362	11.77
670.393	-13.23
670.424	18.77
670.456	-24.23
670.487	-6.23
670.518	1.77
670.55	5.77
670.581	-14.23
670.613	1.77
670.644	-4.23
670.675	-12.23
670.707	-15.23
670.738	-7.23
670.769	-9.23
670.801	-10.23
670.832	-1.23
670.864	-0.23
670.895	6.77
670.926	-1.23
670.958	3.77
670.989	-15.23
671.02	-19.23
671.052	-12.23
671.083	0.77
671.114	-8.23
671.146	-8.23
671.177	-3.23
671.208	-2.23
671.24	-15.23
671.271	-0.23
671.302	5.77
671.333	-15.23
671.365	-0.23
671.396	-10.23
671.427	19.77
671.459	5.77
671.49	11.77
671.521	3.77
671.553	9.77
671.584	9.77
671.615	18.77
671.646	7.77
671.678	4.77
671.709	-3.23
671.74	-19.23
671.771	-23.23
671.803	-7.23
671.834	14.77
671.865	0.77
671.896	20.77
671.928	-1.23
671.959	-3.23
671.99	-18.23
672.021	-1.23
672.053	-1.23
672.084	2.77
672.115	8.77
672.146	-9.23
672.178	-17.23
672.209	-21.23
672.24	-4.23
672.271	15.77
672.303	2.77
672.334	-1.23
672.365	-23.23
672.396	4.77
672.427	6.77
672.459	-1.23
672.49	20.77
672.521	2.77
672.552	8.77
672.583	5.77
672.615	-7.23
672.646	0.77
672.677	-18.23
672.708	-3.23
672.739	-6.23
672.77	6.77
672.802	-0.23
672.833	-11.23
672.864	-6.23
672.895	-3.23
672.926	-8.23
672.957	-8.23
672.989	-3.23
673.02	-3.23
673.051	6.77
673.082	14.77
673.113	-4.23
673.144	4.77
673.175	10.77
673.206	3.77
673.238	-6.23
673.269	-2.23
673.3	-1.23
673.331	4.77
673.362	3.77
673.393	-5.23
673.424	18.77
673.455	3.77
673.487	0.77
673.518	20.77
673.549	6.77
673.58	0.77
673.611	12.77
673.642	2.77
673.673	-18.23
673.704	-14.23
673.735	-3.23
673.766	-8.23
673.797	-11.23
673.828	8.77
673.86	-18.23
673.891	-16.23
673.922	-9.23
673.953	-7.23
673.984	-4.23
674.015	6.77
674.046	-9.23
674.077	-11.23
674.108	-3.23
674.139	7.77
674.17	-15.23
674.201	-7.23
674.232	-8.23
674.263	-14.23
674.294	-2.23
674.325	-11.23
674.356	-7.23
674.387	14.77
674.418	-6.23
674.449	-16.23
674.48	4.77
674.511	3.77
674.542	13.77
674.573	9.77
674.604	24.77
674.635	6.77
674.666	16.77
674.697	3.77
674.728	-6.23
674.759	-16.23
674.79	-15.23
674.821	-7.23
674.852	-3.23
674.883	3.77
674.914	-2.23
674.945	-0.23
674.976	6.77
675.007	-20.23
675.038	-25.23
675.069	-17.23
675.1	-10.23
675.131	1.77
675.162	-8.23
675.193	-1.23
675.224	8.77
675.254	5.77
675.285	7.77
675.316	17.77
675.347	-0.23
675.378	-3.23
675.409	-0.23
675.44	0.77
675.471	-6.23
675.502	5.77
675.533	-19.23
675.564	-13.23
675.595	-3.23
675.625	12.77
675.656	7.77
675.687	4.77
675.718	-4.23
675.749	13.77
675.78	14.77
675.811	-3.23
675.842	5.77
675.873	4.77
675.903	6.77
675.934	0.77
675.965	6.77
675.996	0.77
676.027	12.77
676.058	0.77
676.089	-18.23
676.119	8.77
676.15	-8.23
676.181	-1.23
676.212	-13.23
676.243	1.77
676.274	-14.23
676.304	8.77
676.335	-0.23
676.366	10.77
676.397	4.77
676.428	4.77
676.459	2.77
676.489	20.77
676.52	-4.23
676.551	4.77
676.582	-4.23
676.613	-5.23
676.643	-17.23
676.674	-3.23
676.705	-6.23
676.736	-0.23
676.767	5.77
676.797	12.77
676.828	2.77
676.859	-1.23
676.89	-11.23
676.92	4.77
676.951	-5.23
676.982	-0.23
677.013	-2.23
677.044	9.77
677.074	22.77
677.105	-20.23
677.136	-2.23
677.167	-12.23
677.197	13.77
677.228	11.77
677.259	5.77
677.289	12.77
677.32	-26.23
677.351	-9.23
677.382	-10.23
677.412	-20.23
677.443	9.77
677.474	-2.23
677.505	-8.23
677.535	4.77
677.566	-5.23
677.597	-10.23
677.627	-22.23
677.658	2.77
677.689	1.77
677.72	1.77
677.75	-25.23
677.781	5.77
677.812	-2.23
677.842	7.77
677.873	-2.23
677.904	-1.23
677.934	-2.23
677.965	-10.23
677.996	-0.23
678.026	2.77
678.057	-15.23
678.088	-12.23
678.118	-14.23
678.149	-10.23
678.18	-27.23
678.21	-12.23
678.241	0.77
678.272	11.77
678.302	4.77
678.333	17.77
678.363	17.77
678.394	3.77
678.425	-11.23
678.455	14.77
678.486	-0.23
678.517	-4.23
678.547	-0.23
678.578	-1.23
678.608	-9.23
678.639	16.77
678.67	18.77
678.7	-11.23
678.731	3.77
678.761	-5.23
678.792	-2.23
678.823	16.77
678.853	2.77
678.884	-13.23
678.914	14.77
678.945	2.77
678.975	-4.23
679.006	2.77
679.037	-9.23
679.067	20.77
679.098	5.77
679.128	-11.23
679.159	-16.23
679.189	-1.23
679.22	-9.23
679.25	-6.23
679.281	-5.23
679.312	-9.23
679.342	1.77
679.373	12.77
679.403	-9.23
679.434	9.77
679.464	-8.23
679.495	1.77
679.525	-6.23
679.556	-8.23
679.586	8.77
679.617	0.77
679.647	-1.23
679.678	15.77
679.708	-2.23
679.739	0.77
679.769	-5.23
679.8	-7.23
679.83	7.77
679.861	12.77
679.891	-9.23
679.922	-4.23
679.952	4.77
679.983	2.77
680.013	12.77
680.044	-26.23
680.074	4.77
680.105	-3.23
680.135	-3.23
680.165	7.77
680.196	-10.23
680.226	14.77
680.257	8.77
680.287	-3.23
680.318	6.77
680.348	-8.23
680.379	10.77
680.409	9.77
680.439	-0.23
680.47	8.77
680.5	7.77
680.531	4.77
680.561	0.77
680.592	0.77
680.622	23.77
680.652	2.77
680.683	11.77
680.713	-6.23
680.744	-7.23
680.774	1.77
680.804	22.77
680.835	-0.23
680.865	-16.23
680.896	18.77
680.926	8.77
680.956	-2.23
680.987	0.77
681.017	-3.23
681.047	11.77
681.078	-7.23
681.108	-9.23
681.139	6.77
681.169	13.77
681.199	0.77
681.23	2.77
681.26	-19.23
681.29	-3.23
681.321	-25.23
681.351	6.77
681.381	-13.23
681.412	-5.23
681.442	2.77
681.472	5.77
681.503	-0.23
681.533	11.77
681.563	2.77
681.594	-13.23
681.624	8.77
681.654	7.77
681.685	-1.23
681.715	-3.23
681.745	14.77
681.775	-11.23
681.806	-3.23
681.836	-4.23
681.866	-15.23
681.897	-6.23
681.927	-20.23
681.957	-7.23
681.987	13.77
682.018	-11.23
682.048	-1.23
682.078	1.77
682.109	25.77
682.139	13.77
682.169	4.77
682.199	-4.23
682.23	-16.23
682.26	-8.23
682.29	-10.23
682.32	-4.23
682.351	8.77
682.381	0.77
682.411	-0.23
682.441	-14.23
682.472	-26.23
682.502	-6.23
682.532	-21.23
682.562	-3.23
682.592	12.77
682.623	12.77
682.653	3.77
682.683	1.77
682.713	11.77
682.743	-13.23
682.774	-11.23
682.804	-10.23
682.834	4.77
682.864	0.77
682.894	-7.23
682.925	-10.23
682.955	-2.23
682.985	0.77
683.015	-0.23
683.045	7.77
683.076	-8.23
683.106	3.77
683.136	-10.23
683.166	-4.23
683.196	-9.23
683.226	-0.23
683.257	-8.23
683.287	-6.23
683.317	-17.23
683.347	-10.23
683.377	-8.23
683.407	2.77
683.437	-2.23
683.468	9.77
683.498	-11.23
683.528	-5.23
683.558	6.77
683.588	-8.23
683.618	-14.23
683.648	3.77
683.678	4.77
683.708	17.77
683.739	0.77
683.769	1.77
683.799	3.77
683.829	-9.23
683.859	-0.23
683.889	12.77
683.919	17.77
683.949	-1.23
683.979	-1.23
684.009	1.77
684.039	2.77
684.07	3.77
684.1	15.77
684.13	11.77
684.16	4.77
684.19	1.77
684.22	-6.23
684.25	-0.23
684.28	-15.23
684.31	11.77
684.34	7.77
684.37	5.77
684.4	7.77
684.43	18.77
684.46	3.77
684.49	8.77
684.52	1.77
684.55	8.77
684.58	-12.23
684.61	5.77
684.64	6.77
684.67	6.77
684.7	8.77
684.73	-3.23
684.76	-7.23
684.79	4.77
684.82	-12.23
684.85	2.77
684.88	3.77
684.91	10.77
684.94	-1.23
684.97	1.77
685	-4.23
685.03	-16.23
685.06	-10.23
685.09	-8.23
685.12	11.77
685.15	-5.23
685.18	4.77
685.21	0.77
685.24	20.77
685.27	0.77
685.3	-8.23
685.33	2.77
685.36	-5.23
685.39	-3.23
685.42	-4.23
685.45	-12.23
685.48	-12.23
685.51	-6.23
685.54	8.77
685.569	9.77
685.599	3.77
685.629	-3.23
685.659	-3.23
685.689	-3.23
685.719	9.77
685.749	-11.23
685.779	8.77
685.809	7.77
685.839	13.77
685.869	9.77
685.898	2.77
685.928	1.77
685.958	-7.23
685.988	17.77
686.018	3.77
686.048	0.77
686.078	2.77
686.108	7.77
686.137	1.77
686.167	17.77
686.197	-7.23
686.227	3.77
686.257	12.77
686.287	11.77
686.317	-7.23
686.346	-2.23
686.376	-10.23
686.406	-3.23
686.436	14.77
686.466	0.77
686.496	8.77
686.525	1.77
686.555	-7.23
686.585	6.77
686.615	16.77
686.645	-2.23
686.675	-8.23
686.704	-0.23
686.734	-4.23
686.764	-7.23
686.794	-5.23
686.824	-8.23
686.853	8.77
686.883	3.77
686.913	8.77
686.943	9.77
686.973	-2.23
687.002	12.77
687.032	7.77
687.062	3.77
687.092	9.77
687.121	-12.23
687.151	0.77
687.181	-9.23
687.211	10.77
687.24	7.77
687.27	0.77
687.3	9.77
687.33	7.77
687.359	-5.23
687.389	9.77
687.419	-13.23
687.449	1.77
687.478	2.77
687.508	9.77
687.538	12.77
687.568	-6.23
687.597	-14.23
687.627	-8.23
687.657	5.77
687.686	18.77
687.716	9.77
687.746	-20.23
687.776	-4.23
687.805	15.77
687.835	1.77
687.865	13.77
687.894	7.77
687.924	0.77
687.954	10.77
687.983	3.77
688.013	12.77
688.043	9.77
688.072	6.77
688.102	12.77
688.132	4.77
688.161	8.77
688.191	-8.23
688.221	17.77
688.25	-8.23
688.28	1.77
688.31	-1.23
688.339	-3.23
688.369	-3.23
688.399	-16.23
688.428	4.77
688.458	-9.23
688.488	-3.23
688.517	14.77
688.547	-10.23
688.576	35.77
688.606	26.77
688.636	0.77
688.665	7.77
688.695	-3.23
688.725	3.77
688.754	1.77
688.784	-5.23
688.813	9.77
688.843	6.77
688.873	-4.23
688.902	-0.23
688.932	-1.23
688.961	-2.23
688.991	3.77
689.02	12.77
689.05	-12.23
689.08	-9.23
689.109	22.77
689.139	-2.23
689.168	11.77
689.198	-4.23
689.227	-1.23
689.257	5.77
689.287	16.77
689.316	12.77
689.346	-2.23
689.375	-14.23
689.405	1.77
689.434	-3.23
689.464	-7.23
689.493	-17.23
689.523	-17.23
689.552	-4.23
689.582	-3.23
689.611	-8.23
689.641	5.77
689.67	-1.23
689.7	7.77
689.73	4.77
689.759	-1.23
689.789	2.77
689.818	4.77
689.848	-0.23
689.877	-1.23
689.906	7.77
689.936	-4.23
689.965	-11.23
689.995	6.77
690.024	7.77
690.054	11.77
690.083	-3.23
690.113	2.77
690.142	4.77
690.172	2.77
690.201	-5.23
690.231	-3.23
690.26	9.77
690.29	7.77
690.319	15.77
690.348	-4.23
690.378	-1.23
690.407	21.77
690.437	-3.23
690.466	3.77
690.496	9.77
690.525	5.77
690.555	-7.23
690.584	-12.23
690.613	-10.23
690.643	-16.23
690.672	2.77
690.702	6.77
690.731	2.77
690.76	15.77
690.79	52.77
690.819	43.77
690.849	36.77
690.878	33.77
690.907	4.77
690.937	25.77
690.966	13.77
690.996	0.77
691.025	-14.23
691.054	7.77
691.084	23.77
691.113	-1.23
691.142	0.77
691.172	5.77
691.201	18.77
691.23	-0.23
691.26	10.77
691.289	8.77
691.319	-16.23
691.348	-1.23
691.377	5.77
691.407	-7.23
691.436	10.77
691.465	-1.23
691.495	11.77
691.524	-4.23
691.553	-11.23
691.583	-5.23
691.612	9.77
691.641	4.77
691.67	-5.23
691.7	18.77
691.729	-10.23
691.758	3.77
691.788	-7.23
691.817	-9.23
691.846	-8.23
691.876	-1.23
691.905	2.77
691.934	-0.23
691.963	15.77
691.993	-6.23
692.022	-2.23
692.051	5.77
692.081	8.77
692.11	33.77
692.139	5.77
692.168	9.77
692.198	9.77
692.227	12.77
692.256	7.77
692.285	-6.23
692.315	4.77
692.344	12.77
692.373	-8.23
692.402	-23.23
692.432	-23.23
692.461	-13.23
692.49	0.77
692.519	-0.23
692.548	16.77
692.578	15.77
692.607	-0.23
692.636	-3.23
692.665	23.77
692.694	-3.23
692.724	-2.23
692.753	1.77
692.782	11.77
692.811	-6.23
692.84	-1.23
692.87	23.77
692.899	5.77
692.928	-1.23
692.957	-13.23
692.986	12.77
693.016	6.77
693.045	0.77
693.074	1.77
693.103	-8.23
693.132	-3.23
693.161	8.77
693.191	-7.23
693.22	-13.23
693.249	2.77
693.278	8.77
693.307	29.77
693.336	-3.23
693.365	-9.23
693.395	-14.23
693.424	4.77
693.453	9.77
693.482	-3.23
693.511	2.77
693.54	-1.23
693.569	4.77
693.598	3.77
693.628	6.77
693.657	22.77
693.686	23.77
693.715	7.77
693.744	15.77
693.773	21.77
693.802	7.77
693.831	4.77
693.86	17.77
693.889	-8.23
693.919	1.77
693.948	6.77
693.977	0.77
694.006	-22.23
694.035	1.77
694.064	-7.23
694.093	-2.23
694.122	-1.23
694.151	-3.23
694.18	2.77
694.209	37.77
694.238	10.77
694.267	18.77
694.296	10.77
694.325	-0.23
694.354	8.77
694.383	9.77
694.412	-0.23
694.441	-5.23
694.471	-16.23
694.5	-16.23
694.529	6.77
694.558	20.77
694.587	9.77
694.616	-2.23
694.645	5.77
694.674	4.77
694.703	-7.23
694.732	4.77
694.761	11.77
694.79	5.77
694.819	-3.23
694.848	-6.23
694.877	18.77
694.906	21.77
694.935	7.77
694.963	33.77
694.992	11.77
695.021	5.77
695.05	12.77
695.079	6.77
695.108	-8.23
695.137	14.77
695.166	10.77
695.195	-12.23
695.224	11.77
695.253	-4.23
695.282	17.77
695.311	9.77
695.34	8.77
695.369	1.77
695.398	-3.23
695.427	27.77
695.456	-3.23
695.485	22.77
695.513	-5.23
695.542	-3.23
695.571	1.77
695.6	19.77
695.629	12.77
695.658	8.77
695.687	0.77
695.716	5.77
695.745	9.77
695.774	10.77
695.802	-4.23
695.831	22.77
695.86	12.77
695.889	10.77
695.918	7.77
695.947	-11.23
695.976	-6.23
696.005	7.77
696.033	7.77
696.062	12.77
696.091	-1.23
696.12	-0.23
696.149	3.77
696.178	-9.23
696.207	14.77
696.235	-16.23
696.264	0.77
696.293	14.77
696.322	-0.23
696.351	10.77
696.38	-2.23
696.408	14.77
696.437	-8.23
696.466	6.77
696.495	22.77
696.524	3.77
696.553	9.77
696.581	13.77
696.61	1.77
696.639	-1.23
696.668	10.77
696.697	-7.23
696.725	19.77
696.754	0.77
696.783	10.77
696.812	9.77
696.84	3.77
696.869	8.77
696.898	12.77
696.927	-4.23
696.956	16.77
696.984	-1.23
697.013	0.77
697.042	6.77
697.071	2.77
697.099	24.77
697.128	11.77
697.157	16.77
697.186	-2.23
697.214	-3.23
697.243	13.77
697.272	-5.23
697.301	0.77
697.329	-4.23
697.358	1.77
697.387	16.77
697.415	-11.23
697.444	13.77
697.473	12.77
697.502	-6.23
697.53	0.77
697.559	-5.23
697.588	12.77
697.616	9.77
697.645	-9.23
697.674	0.77
697.703	4.77
697.731	22.77
697.76	17.77
697.789	-2.23
697.817	12.77
697.846	9.77
697.875	-7.23
697.903	19.77
697.932	14.77
697.961	12.77
697.989	-0.23
698.018	5.77
698.047	9.77
698.075	26.77
698.104	-2.23
698.133	-5.23
698.161	-9.23
698.19	-6.23
698.218	8.77
698.247	12.77
698.276	-8.23
698.304	8.77
698.333	15.77
698.362	16.77
698.39	10.77
698.419	10.77
698.447	-6.23
698.476	7.77
698.505	2.77
698.533	1.77
698.562	-2.23
698.591	-16.23
698.619	-3.23
698.648	-2.23
698.676	1.77
698.705	-2.23
698.733	-4.23
698.762	15.77
698.791	0.77
698.819	1.77
698.848	-4.23
698.876	8.77
698.905	-4.23
698.933	-1.23
698.962	5.77
698.991	4.77
699.019	17.77
699.048	11.77
699.076	3.77
699.105	-4.23
699.133	-7.23
699.162	-1.23
699.19	14.77
699.219	8.77
699.248	8.77
699.276	-0.23
699.305	-1.23
699.333	-3.23
699.362	-8.23
699.39	0.77
699.419	-15.23
699.447	-3.23
699.476	4.77
699.504	-6.23
699.533	-8.23
699.561	0.77
699.59	3.77
699.618	3.77
699.647	20.77
699.675	12.77
699.704	13.77
699.732	3.77
699.761	12.77
699.789	-4.23
699.818	6.77
699.846	-4.23
699.874	-8.23
699.903	-15.23
699.931	-21.23
699.96	-4.23
699.988	-7.23
700.017	-14.23
700.045	12.77
700.074	-3.23
700.102	4.77
700.13	5.77
700.159	25.77
700.187	12.77
700.216	-9.23
700.244	-10.23
700.273	-2.23
700.301	-4.23
700.329	-0.23
700.358	9.77
700.386	6.77
700.415	-15.23
700.443	-5.23
700.472	17.77
700.5	5.77
700.528	9.77
700.557	-6.23
700.585	4.77
700.614	-2.23
700.642	4.77
700.67	15.77
700.699	16.77
700.727	10.77
700.755	-7.23
700.784	-2.23
700.812	-13.23
700.841	25.77
700.869	3.77
700.897	-11.23
700.926	-6.23
700.954	-10.23
700.982	-17.23
701.011	4.77
701.039	-8.23
701.067	3.77
701.096	17.77
701.124	0.77
701.152	-2.23
701.181	-1.23
701.209	-9.23
701.237	3.77
701.266	-3.23
701.294	-13.23
701.322	18.77
701.351	-1.23
701.379	8.77
701.407	-9.23
701.435	14.77
701.464	12.77
701.492	24.77
701.52	-21.23
701.549	13.77
701.577	-17.23
701.605	-10.23
701.634	-6.23
701.662	14.77
701.69	1.77
701.718	-5.23
701.747	1.77
701.775	8.77
701.803	-7.23
701.831	7.77
701.86	-11.23
701.888	-1.23
701.916	4.77
701.944	-6.23
701.973	-3.23
702.001	-4.23
702.029	-9.23
702.057	-3.23
702.086	-7.23
702.114	-7.23
702.142	-4.23
702.17	-12.23
702.199	-2.23
702.227	8.77
702.255	-4.23
702.283	-7.23
702.311	-10.23
702.34	-9.23
702.368	-3.23
702.396	17.77
702.424	2.77
702.452	8.77
702.481	-0.23
702.509	7.77
702.537	-0.23
702.565	7.77
702.593	-9.23
702.621	3.77
702.65	5.77
702.678	10.77
702.706	1.77
702.734	-4.23
702.762	14.77
702.79	0.77
702.819	-4.23
702.847	9.77
702.875	11.77
702.903	7.77
702.931	-8.23
702.959	-0.23
702.988	10.77
703.016	-3.23
703.044	6.77
703.072	1.77
703.1	-22.23
703.128	4.77
703.156	4.77
703.184	-2.23
703.212	20.77
703.241	5.77
703.269	3.77
703.297	0.77
703.325	1.77
703.353	-18.23
703.381	-6.23
703.409	5.77
703.437	-13.23
703.465	-4.23
703.493	-14.23
703.522	9.77
703.55	7.77
703.578	4.77
703.606	-18.23
703.634	-9.23
703.662	-10.23
703.69	3.77
703.718	0.77
703.746	5.77
703.774	0.77
703.802	0.77
703.83	11.77
703.858	16.77
703.886	9.77
703.914	-0.23
703.942	19.77
703.97	1.77
703.998	8.77
704.027	15.77
704.055	1.77
704.083	-11.23
704.111	-6.23
704.139	-8.23
704.167	-8.23
704.195	-15.23
704.223	-3.23
704.251	-14.23
704.279	7.77
704.307	-0.23
704.335	-34.23
704.363	-11.23
704.391	-12.23
704.419	0.77
704.447	-21.23
704.475	-10.23
704.503	-1.23
704.531	31.77
704.558	10.77
704.586	-7.23
704.614	-12.23
704.642	8.77
704.67	-9.23
704.698	-0.23
704.726	0.77
704.754	-1.23
704.782	10.77
704.81	13.77
704.838	11.77
704.866	-7.23
704.894	-11.23
704.922	-3.23
704.95	1.77
704.978	18.77
705.006	11.77
705.034	16.77
705.061	-17.23
705.089	-0.23
705.117	-12.23
705.145	-7.23
705.173	0.77
705.201	-9.23
705.229	-6.23
705.257	-1.23
705.285	17.77
705.313	14.77
705.34	-8.23
705.368	4.77
705.396	17.77
705.424	0.77
705.452	-3.23
705.48	-2.23
705.508	1.77
705.536	1.77
705.563	-8.23
705.591	-5.23
705.619	-9.23
705.647	7.77
705.675	-2.23
705.703	4.77
705.731	3.77
705.758	18.77
705.786	12.77
705.814	17.77
705.842	2.77
705.87	17.77
705.898	25.77
705.925	-3.23
705.953	6.77
705.981	-0.23
706.009	-3.23
706.037	7.77
706.065	-1.23
706.092	-16.23
706.12	-6.23
706.148	0.77
706.176	-2.23
706.204	-0.23
706.231	-1.23
706.259	-12.23
706.287	-15.23
706.315	5.77
706.342	3.77
706.37	8.77
706.398	17.77
706.426	17.77
706.454	-2.23
706.481	8.77
706.509	-1.23
706.537	-9.23
706.565	-1.23
706.592	13.77
706.62	0.77
706.648	-2.23
706.676	-5.23
706.703	4.77
706.731	-0.23
706.759	1.77
706.787	-1.23
706.814	6.77
706.842	6.77
706.87	-7.23
706.897	-3.23
706.925	7.77
706.953	13.77
706.981	6.77
707.008	12.77
707.036	-3.23
707.064	6.77
707.091	-7.23
707.119	0.77
707.147	5.77
707.174	3.77
707.202	14.77
707.23	3.77
707.258	3.77
707.285	-19.23
707.313	-7.23
707.341	-6.23
707.368	-5.23
707.396	-0.23
707.424	0.77
707.451	2.77
707.479	-6.23
707.507	6.77
707.534	14.77
707.562	0.77
707.59	-9.23
707.617	-10.23
707.645	-13.23
707.672	1.77
707.7	7.77
707.728	-0.23
707.755	9.77
707.783	4.77
707.811	2.77
707.838	0.77
707.866	7.77
707.893	14.77
707.921	2.77
707.949	-9.23
707.976	-5.23
708.004	-1.23
708.031	-16.23
708.059	-4.23
708.087	5.77
708.114	5.77
708.142	-6.23
708.169	-23.23
708.197	-8.23
708.225	-8.23
708.252	13.77
708.28	22.77
708.307	8.77
708.335	8.77
708.362	-3.23
708.39	-9.23
708.418	-0.23
708.445	0.77
708.473	-24.23
708.5	-15.23
708.528	-0.23
708.555	-10.23
708.583	8.77
708.61	-8.23
708.638	-0.23
708.665	-13.23
708.693	-5.23
708.72	-18.23
708.748	-7.23
708.776	-6.23
708.803	10.77
708.831	6.77
708.858	0.77
708.886	-2.23
708.913	-2.23
708.941	-2.23
708.968	-2.23
708.996	-8.23
709.023	44.77
709.051	-7.23
709.078	-20.23
709.105	8.77
709.133	-4.23
709.16	-4.23
709.188	4.77
709.215	-6.23
709.243	-2.23
709.27	-7.23
709.298	-3.23
709.325	-18.23
709.353	-4.23
709.38	11.77
709.408	4.77
709.435	2.77
709.462	13.77
709.49	14.77
709.517	-3.23
709.545	1.77
709.572	6.77
709.6	13.77
709.627	27.77
709.655	-5.23
709.682	-1.23
709.709	-1.23
709.737	10.77
709.764	-6.23
709.792	6.77
709.819	3.77
709.846	-1.23
709.874	5.77
709.901	24.77
709.929	21.77
709.956	1.77
709.983	-0.23
710.011	-4.23
710.038	-4.23
710.066	1.77
710.093	16.77
710.12	-8.23
710.148	-5.23
710.175	-4.23
710.202	-7.23
710.23	15.77
710.257	-9.23
710.284	11.77
710.312	8.77
710.339	5.77
710.366	10.77
710.394	0.77
710.421	8.77
710.448	5.77
710.476	-12.23
710.503	-4.23
710.53	7.77
710.558	23.77
710.585	22.77
710.612	-11.23
710.64	-16.23
710.667	-15.23
710.694	1.77
710.722	-0.23
710.749	-1.23
710.776	-3.23
710.804	27.77
710.831	-4.23
710.858	-11.23
710.885	-16.23
710.913	-11.23
710.94	12.77
710.967	-6.23
710.995	0.77
711.022	-4.23
711.049	-0.23
711.076	-4.23
711.104	-7.23
711.131	-6.23
711.158	-5.23
711.185	3.77
711.213	-9.23
711.24	-14.23
711.267	-22.23
711.294	-6.23
711.322	3.77
711.349	7.77
711.376	9.77
711.403	0.77
711.431	-2.23
711.458	2.77
711.485	2.77
711.512	3.77
711.54	-17.23
711.567	-3.23
711.594	-9.23
711.621	-15.23
711.648	-2.23
711.676	2.77
711.703	4.77
711.73	-14.23
711.757	-2.23
711.784	13.77
711.812	2.77
711.839	-6.23
711.866	-11.23
711.893	-7.23
711.92	-9.23
711.947	0.77
711.975	-2.23
712.002	-16.23
712.029	6.77
712.056	4.77
712.083	4.77
712.11	-10.23
712.138	8.77
712.165	7.77
712.192	-10.23
712.219	-18.23
712.246	-2.23
712.273	-6.23
712.3	-11.23
712.328	19.77
712.355	-4.23
712.382	-7.23
712.409	3.77
712.436	-1.23
712.463	21.77
712.49	11.77
712.517	-4.23
712.544	-10.23
712.572	-0.23
712.599	-13.23
712.626	-1.23
712.653	10.77
712.68	-7.23
712.707	23.77
712.734	12.77
712.761	7.77
712.788	15.77
712.815	10.77
712.842	13.77
712.87	1.77
712.897	-8.23
712.924	-13.23
712.951	2.77
712.978	13.77
713.005	0.77
713.032	8.77
713.059	20.77
713.086	-6.23
713.113	-10.23
713.14	-12.23
713.167	-0.23
713.194	4.77
713.221	-1.23
713.248	18.77
713.275	-1.23
713.302	-3.23
713.329	4.77
713.356	2.77
713.383	13.77
713.41	-1.23
713.437	-7.23
713.464	9.77
713.491	11.77
713.518	1.77
713.545	-3.23
713.572	-0.23
713.599	12.77
713.626	5.77
713.653	16.77
713.68	-23.23
713.707	-9.23
713.734	6.77
713.761	-8.23
713.788	-9.23
713.815	-8.23
713.842	8.77
713.869	-2.23
713.896	3.77
713.923	0.77
713.95	-2.23
713.977	-7.23
714.004	2.77
714.031	2.77
714.058	-15.23
714.085	1.77
714.112	16.77
714.139	-6.23
714.165	-10.23
714.192	1.77
714.219	7.77
714.246	20.77
714.273	7.77
714.3	1.77
714.327	-7.23
714.354	-0.23
714.381	-4.23
714.408	2.77
714.435	-0.23
714.461	5.77
714.488	-3.23
714.515	5.77
714.542	-9.23
714.569	-2.23
714.596	-14.23
714.623	8.77
714.65	6.77
714.677	0.77
714.703	1.77
714.73	-2.23
714.757	-2.23
714.784	1.77
714.811	-19.23
714.838	5.77
714.865	-0.23
714.891	10.77
714.918	-0.23
714.945	-11.23
714.972	-6.23
714.999	-9.23
715.026	-19.23
715.052	4.77
715.079	-0.23
715.106	-4.23
715.133	-0.23
715.16	-16.23
715.187	5.77
715.213	5.77
715.24	-16.23
715.267	-4.23
715.294	-11.23
715.321	3.77
715.347	0.77
715.374	-9.23
715.401	-23.23
715.428	-5.23
715.455	-16.23
715.481	-22.23
715.508	3.77
715.535	-6.23
715.562	14.77
715.588	-1.23
715.615	-0.23
715.642	-6.23
715.669	-0.23
715.695	-8.23
715.722	-16.23
715.749	-0.23
715.776	-3.23
715.802	-6.23
715.829	1.77
715.856	-7.23
715.883	11.77
715.909	-10.23
715.936	-6.23
715.963	2.77
715.99	-23.23
716.016	-16.23
716.043	4.77
716.07	-12.23
716.096	-5.23
716.123	-11.23
716.15	-2.23
716.177	7.77
716.203	11.77
716.23	17.77
716.257	2.77
716.283	-3.23
716.31	-2.23
716.337	-11.23
716.363	4.77
716.39	-3.23
716.417	4.77
716.443	-1.23
716.47	14.77
716.497	19.77
716.523	19.77
716.55	8.77
716.577	11.77
716.603	7.77
716.63	-2.23
716.657	7.77
716.683	-8.23
716.71	-0.23
716.737	8.77
716.763	0.77
716.79	-6.23
716.817	9.77
716.843	-2.23
716.87	-4.23
716.897	1.77
716.923	23.77
716.95	-1.23
716.976	-6.23
717.003	-0.23
717.03	7.77
717.056	4.77
717.083	-1.23
717.109	7.77
717.136	6.77
717.163	-12.23
717.189	6.77
717.216	-10.23
717.242	1.77
717.269	3.77
717.296	8.77
717.322	25.77
717.349	13.77
717.375	21.77
717.402	5.77
717.428	-1.23
717.455	15.77
717.481	8.77
717.508	10.77
717.535	0.77
717.561	1.77
717.588	-0.23
717.614	0.77
717.641	15.77
717.667	12.77
717.694	4.77
717.72	4.77
717.747	3.77
717.773	-14.23
717.8	1.77
717.826	9.77
717.853	3.77
717.88	17.77
717.906	12.77
717.933	13.77
717.959	5.77
717.986	2.77
718.012	1.77
718.039	6.77
718.065	24.77
718.092	14.77
718.118	1.77
718.144	1.77
718.171	5.77
718.197	13.77
718.224	-1.23
718.25	3.77
718.277	-5.23
718.303	1.77
718.33	5.77
718.356	-3.23
718.383	-14.23
718.409	-4.23
718.436	7.77
718.462	-0.23
718.489	-0.23
718.515	13.77
718.541	20.77
718.568	1.77
718.594	2.77
718.621	-2.23
718.647	5.77
718.674	7.77
718.7	16.77
718.726	-8.23
718.753	-3.23
718.779	7.77
718.806	-4.23
718.832	5.77
718.858	-10.23
718.885	-22.23
718.911	4.77
718.938	11.77
718.964	-16.23
718.99	1.77
719.017	-6.23
719.043	11.77
719.07	19.77
719.096	-5.23
719.122	11.77
719.149	3.77
719.175	-6.23
719.201	-10.23
719.228	-10.23
719.254	-1.23
719.281	-10.23
719.307	-14.23
719.333	3.77
719.36	19.77
719.386	-2.23
719.412	3.77
719.439	-4.23
719.465	-7.23
719.491	-15.23
719.518	6.77
719.544	16.77
719.57	9.77
719.597	-0.23
719.623	-4.23
719.649	-3.23
719.675	-9.23
719.702	2.77
719.728	8.77
719.754	-13.23
719.781	-8.23
719.807	-4.23
719.833	7.77
719.86	-3.23
719.886	-4.23
719.912	7.77
719.938	-18.23
719.965	-7.23
719.991	-0.23
720.017	1.77
720.044	-8.23
720.07	-0.23
720.096	9.77
720.122	-0.23
720.149	9.77
720.175	25.77
720.201	-6.23
720.227	-10.23
720.254	-1.23
720.28	-3.23
720.306	1.77
720.332	-0.23
720.359	1.77
720.385	3.77
720.411	10.77
720.437	13.77
720.463	-10.23
720.49	13.77
720.516	8.77
720.542	-16.23
720.568	-1.23
720.595	5.77
720.621	2.77
720.647	5.77
720.673	-14.23
720.699	-7.23
720.725	-0.23
720.752	4.77
720.778	-0.23
720.804	4.77
720.83	4.77
720.856	-6.23
720.883	-4.23
720.909	-4.23
720.935	-3.23
720.961	12.77
720.987	15.77
721.013	9.77
721.04	-3.23
721.066	-2.23
721.092	-0.23
721.118	4.77
721.144	9.77
721.17	-4.23
721.196	-9.23
721.223	-6.23
721.249	-4.23
721.275	-1.23
721.301	7.77
721.327	16.77
721.353	-0.23
721.379	-5.23
721.405	5.77
721.432	16.77
721.458	6.77
721.484	15.77
721.51	-7.23
721.536	3.77
721.562	-0.23
721.588	8.77
721.614	-6.23
721.64	3.77
721.666	0.77
721.693	-19.23
721.719	-10.23
721.745	-8.23
721.771	-16.23
721.797	0.77
721.823	4.77
721.849	24.77
721.875	0.77
721.901	-7.23
721.927	0.77
721.953	16.77
721.979	34.77
722.005	15.77
722.031	4.77
722.057	-2.23
722.083	12.77
722.109	4.77
722.135	14.77
722.161	-12.23
722.187	-0.23
722.214	-4.23
722.24	5.77
722.266	-10.23
722.292	12.77
722.318	8.77
722.344	0.77
722.37	-2.23
722.396	22.77
722.422	0.77
722.448	6.77
722.474	-8.23
722.5	7.77
722.526	10.77
722.552	5.77
722.578	5.77
722.603	15.77
722.629	-7.23
722.655	12.77
722.681	-0.23
722.707	-3.23
722.733	-11.23
722.759	-5.23
722.785	-12.23
722.811	7.77
722.837	-12.23
722.863	19.77
722.889	14.77
722.915	-0.23
722.941	-9.23
722.967	1.77
722.993	11.77
723.019	-8.23
723.045	-2.23
723.071	15.77
723.097	8.77
723.122	5.77
723.148	-10.23
723.174	-22.23
723.2	3.77
723.226	-1.23
723.252	-10.23
723.278	-9.23
723.304	-10.23
723.33	-0.23
723.356	-7.23
723.381	-10.23
723.407	-2.23
723.433	-3.23
723.459	3.77
723.485	0.77
723.511	5.77
723.537	-0.23
723.563	0.77
723.588	5.77
723.614	5.77
723.64	-11.23
723.666	-12.23
723.692	-6.23
723.718	1.77
723.744	-0.23
723.769	-15.23
723.795	-19.23
723.821	4.77
723.847	-4.23
723.873	9.77
723.899	-12.23
723.924	-10.23
723.95	-6.23
723.976	-11.23
724.002	-0.23
724.028	-1.23
724.053	-20.23
724.079	-15.23
724.105	-9.23
724.131	2.77
724.157	-11.23
724.182	4.77
724.208	0.77
724.234	-5.23
724.26	-4.23
724.286	-0.23
724.311	-11.23
724.337	-13.23
724.363	5.77
724.389	-0.23
724.415	-5.23
724.44	11.77
724.466	-3.23
724.492	-8.23
724.518	2.77
724.543	1.77
724.569	-5.23
724.595	6.77
724.621	-7.23
724.646	-10.23
724.672	-14.23
724.698	-4.23
724.723	11.77
724.749	-7.23
724.775	13.77
724.801	4.77
724.826	-6.23
724.852	-7.23
724.878	-7.23
724.904	-25.23
724.929	-13.23
724.955	-8.23
724.981	-3.23
725.006	5.77
725.032	8.77
725.058	8.77
725.083	-7.23
725.109	-11.23
725.135	-7.23
725.161	9.77
725.186	-0.23
725.212	-0.23
725.238	3.77
725.263	2.77
725.289	-4.23
725.315	4.77
725.34	-8.23
725.366	1.77
725.392	-9.23
725.417	-14.23
725.443	4.77
725.468	16.77
725.494	8.77
725.52	6.77
725.545	-17.23
725.571	-9.23
725.597	-5.23
725.622	1.77
725.648	-2.23
725.674	7.77
725.699	7.77
725.725	12.77
725.75	16.77
725.776	0.77
725.802	17.77
725.827	3.77
725.853	-8.23
725.878	-1.23
725.904	9.77
725.93	16.77
725.955	-10.23
725.981	-15.23
726.006	-4.23
726.032	11.77
726.057	-14.23
726.083	4.77
726.109	1.77
726.134	-0.23
726.16	9.77
726.185	-2.23
726.211	-0.23
726.236	11.77
726.262	-6.23
726.288	0.77
726.313	12.77
726.339	7.77
726.364	17.77
726.39	20.77
726.415	-8.23
726.441	0.77
726.466	1.77
726.492	6.77
726.517	10.77
726.543	3.77
726.568	-13.23
726.594	-4.23
726.619	0.77
726.645	-2.23
726.67	-3.23
726.696	16.77
726.721	-4.23
726.747	-11.23
726.772	-11.23
726.798	-11.23
726.823	9.77
726.849	-3.23
726.874	5.77
726.9	26.77
726.925	12.77
726.951	11.77
726.976	29.77
727.002	-4.23
727.027	14.77
727.053	5.77
727.078	0.77
727.104	19.77
727.129	-0.23
727.155	-2.23
727.18	0.77
727.205	9.77
727.231	9.77
727.256	-7.23
727.282	1.77
727.307	2.77
727.333	-1.23
727.358	-17.23
727.383	-0.23
727.409	-5.23
727.434	13.77
727.46	-3.23
727.485	2.77
727.511	0.77
727.536	-23.23
727.561	-8.23
727.587	0.77
727.612	-6.23
727.637	-0.23
727.663	-10.23
727.688	9.77
727.714	2.77
727.739	-0.23
727.764	-0.23
727.79	8.77
727.815	-8.23
727.841	-2.23
727.866	12.77
727.891	8.77
727.917	-7.23
727.942	-9.23
727.967	-14.23
727.993	-12.23
728.018	-4.23
728.043	-3.23
728.069	-10.23
728.094	2.77
728.119	-10.23
728.145	17.77
728.17	3.77
728.195	-1.23
728.221	-3.23
728.246	-11.23
728.271	-8.23
728.297	5.77
728.322	8.77
728.347	9.77
728.373	0.77
728.398	15.77
728.423	-13.23
728.448	0.77
728.474	4.77
728.499	9.77
728.524	-17.23
728.55	-22.23
728.575	-4.23
728.6	-4.23
728.625	-4.23
728.651	0.77
728.676	-2.23
728.701	15.77
728.727	-4.23
728.752	-16.23
728.777	-0.23
728.802	-9.23
728.828	6.77
728.853	-7.23
728.878	-9.23
728.903	-0.23
728.929	-17.23
728.954	0.77
728.979	-2.23
729.004	-12.23
729.03	-7.23
729.055	4.77
729.08	-8.23
729.105	-12.23
729.13	3.77
729.156	1.77
729.181	-3.23
729.206	-11.23
729.231	-7.23
729.256	3.77
729.282	-0.23
729.307	-17.23
729.332	-5.23
729.357	-7.23
729.382	-7.23
729.408	-5.23
729.433	3.77
729.458	-2.23
729.483	8.77
729.508	24.77
729.533	8.77
729.559	8.77
729.584	-1.23
729.609	1.77
729.634	-2.23
729.659	-18.23
729.684	-11.23
729.71	15.77
729.735	2.77
729.76	-9.23
729.785	-7.23
729.81	29.77
729.835	-0.23
729.86	5.77
729.886	4.77
729.911	5.77
729.936	8.77
729.961	21.77
729.986	13.77
730.011	68.77
730.036	225.77
730.061	998.77
730.086	2715.77
730.112	3348.77
730.137	2835.77
730.162	2097.77
730.187	1685.77
730.212	1293.77
730.237	801.77
730.262	445.77
730.287	231.77
730.312	144.77
730.337	75.77
730.362	48.77
730.387	47.77
730.413	11.77
730.438	8.77
730.463	27.77
730.488	15.77
730.513	5.77
730.538	12.77
730.563	16.77
730.588	20.77
730.613	4.77
730.638	-3.23
730.663	5.77
730.688	34.77
730.713	15.77
730.738	5.77
730.763	-5.23
730.788	0.77
730.813	12.77
730.838	14.77
730.863	-1.23
730.888	1.77
730.913	5.77
730.938	-4.23
730.963	43.77
730.988	109.77
731.013	428.77
731.038	622.77
731.063	610.77
731.088	459.77
731.113	354.77
731.138	262.77
731.163	201.77
731.188	125.77
731.213	49.77
731.238	35.77
731.263	8.77
731.288	9.77
731.313	-0.23
731.338	-4.23
731.363	0.77
731.388	2.77
731.413	-1.23
731.438	6.77
731.463	7.77
731.487	6.77
731.512	1.77
731.537	7.77
731.562	-4.23
731.587	-4.23
731.612	-7.23
731.637	-4.23
731.662	0.77
731.687	5.77
731.712	-9.23
731.737	4.77
731.762	-0.23
731.786	-6.23
731.811	13.77
731.836	4.77
731.861	-6.23
731.886	-9.23
731.911	5.77
731.936	20.77
731.961	-9.23
731.986	-9.23
732.01	-2.23
732.035	3.77
732.06	14.77
732.085	2.77
732.11	8.77
732.135	-12.23
732.16	9.77
732.184	10.77
732.209	5.77
732.234	5.77
732.259	-7.23
732.284	25.77
732.309	-9.23
732.334	-17.23
732.358	-13.23
732.383	-14.23
732.408	2.77
732.433	7.77
732.458	0.77
732.482	-10.23
732.507	-10.23
732.532	4.77
732.557	9.77
732.582	19.77
732.607	25.77
732.631	54.77
732.656	80.77
732.681	146.77
732.706	335.77
732.73	448.77
732.755	406.77
732.78	301.77
732.805	240.77
732.83	178.77
732.854	126.77
732.879	76.77
732.904	29.77
732.929	6.77
732.953	6.77
732.978	-6.23
733.003	2.77
733.028	-16.23
733.052	4.77
733.077	-1.23
733.102	13.77
733.127	-4.23
733.151	-10.23
733.176	0.77
733.201	-8.23
733.226	-10.23
733.25	3.77
733.275	-0.23
733.3	9.77
733.324	19.77
733.349	0.77
733.374	1.77
733.399	-7.23
733.423	-0.23
733.448	6.77
733.473	-9.23
733.497	1.77
733.522	-9.23
733.547	14.77
733.571	19.77
733.596	17.77
733.621	-7.23
733.646	-3.23
733.67	2.77
733.695	-15.23
733.72	8.77
733.744	-2.23
733.769	-6.23
733.794	7.77
733.818	13.77
733.843	-13.23
733.867	-16.23
733.892	1.77
733.917	5.77
733.941	-0.23
733.966	-17.23
733.991	-8.23
734.015	1.77
734.04	5.77
734.065	3.77
734.089	10.77
734.114	-0.23
734.138	4.77
734.163	7.77
734.188	3.77
734.212	9.77
734.237	-4.23
734.261	-4.23
734.286	-13.23
734.311	1.77
734.335	-6.23
734.36	-1.23
734.384	-14.23
734.409	1.77
734.434	-14.23
734.458	-2.23
734.483	-0.23
734.507	-5.23
734.532	-8.23
734.556	-7.23
734.581	-1.23
734.606	9.77
734.63	-11.23
734.655	5.77
734.679	-10.23
734.704	-6.23
734.728	-14.23
734.753	-8.23
734.777	0.77
734.802	-9.23
734.826	-3.23
734.851	-6.23
734.876	-2.23
734.9	-2.23
734.925	8.77
734.949	16.77
734.974	-9.23
734.998	10.77
735.023	0.77
735.047	-18.23
735.072	12.77
735.096	-1.23
735.121	7.77
735.145	-4.23
735.17	-18.23
735.194	5.77
735.219	-19.23
735.243	-6.23
735.268	2.77
735.292	-4.23
735.317	-0.23
735.341	6.77
735.365	-19.23
735.39	-0.23
735.414	2.77
735.439	-3.23
735.463	4.77
735.488	12.77
735.512	1.77
735.537	-15.23
735.561	1.77
735.586	-4.23
735.61	-0.23
735.634	6.77
735.659	1.77
735.683	-5.23
735.708	-8.23
735.732	-3.23
735.757	-3.23
735.781	7.77
735.805	2.77
735.83	-9.23
735.854	-4.23
735.879	-20.23
735.903	7.77
735.927	-0.23
735.952	-8.23
735.976	-8.23
736.001	-2.23
736.025	0.77
736.049	5.77
736.074	7.77
736.098	2.77
736.123	-6.23
736.147	-5.23
736.171	4.77
736.196	4.77
736.22	-12.23
736.244	-10.23
736.269	-18.23
736.293	-0.23
736.317	-6.23
736.342	4.77
736.366	10.77
736.39	8.77
736.415	-8.23
736.439	1.77
736.463	9.77
736.488	-8.23
736.512	-2.23
736.536	-4.23
736.561	19.77
736.585	1.77
736.609	-25.23
736.634	-5.23
736.658	-8.23
736.682	-22.23
736.707	-11.23
736.731	-17.23
736.755	-10.23
736.78	11.77
736.804	18.77
736.828	5.77
736.852	-5.23
736.877	3.77
736.901	-3.23
736.925	-14.23
736.949	-4.23
736.974	-7.23
736.998	-2.23
737.022	-3.23
737.047	-7.23
737.071	-5.23
737.095	0.77
737.119	22.77
737.144	5.77
737.168	-11.23
737.192	-1.23
737.216	6.77
737.241	1.77
737.265	1.77
737.289	-15.23
737.313	-2.23
737.337	-5.23
737.362	15.77
737.386	4.77
737.41	-0.23
737.434	-3.23
737.459	-10.23
737.483	-3.23
737.507	5.77
737.531	5.77
737.555	0.77
737.58	5.77
737.604	-6.23
737.628	-2.23
737.652	-15.23
737.676	-2.23
737.701	11.77
737.725	3.77
737.749	18.77
737.773	4.77
737.797	-0.23
737.821	-3.23
737.846	-28.23
737.87	27.77
737.894	4.77
737.918	-8.23
737.942	8.77
737.966	12.77
737.99	15.77
738.015	5.77
738.039	6.77
738.063	-3.23
738.087	16.77
738.111	-6.23
738.135	8.77
738.159	-0.23
738.184	-10.23
738.208	-7.23
738.232	-8.23
738.256	11.77
738.28	6.77
738.304	9.77
738.328	-8.23
738.352	9.77
738.376	8.77
738.4	11.77
738.425	3.77
738.449	-0.23
738.473	24.77
738.497	9.77
738.521	8.77
738.545	12.77
738.569	18.77
738.593	12.77
738.617	3.77
738.641	-4.23
738.665	-11.23
738.689	9.77
738.713	3.77
738.737	9.77
738.762	5.77
738.786	-0.23
738.81	-9.23
738.834	7.77
738.858	-10.23
738.882	2.77
738.906	1.77
738.93	2.77
738.954	3.77
738.978	0.77
739.002	-8.23
739.026	7.77
739.05	4.77
739.074	1.77
739.098	15.77
739.122	12.77
739.146	-1.23
739.17	0.77
739.194	0.77
739.218	-17.23
739.242	-11.23
739.266	-7.23
739.29	20.77
739.314	8.77
739.338	0.77
739.362	-2.23
739.386	1.77
739.41	7.77
739.434	-8.23
739.458	27.77
739.482	15.77
739.506	14.77
739.53	-9.23
739.554	7.77
739.577	-9.23
739.601	8.77
739.625	-8.23
739.649	-3.23
739.673	0.77
739.697	9.77
739.721	-12.23
739.745	4.77
739.769	14.77
739.793	5.77
739.817	16.77
739.841	-22.23
739.865	-0.23
739.889	-14.23
739.912	5.77
739.936	4.77
739.96	-0.23
739.984	14.77
740.008	-4.23
740.032	-9.23
740.056	0.77
740.08	-0.23
740.104	-8.23
740.127	-0.23
740.151	9.77
740.175	-10.23
740.199	-8.23
740.223	45.77
740.247	0.77
740.271	-8.23
740.295	-2.23
740.318	-16.23
740.342	-15.23
740.366	-10.23
740.39	-1.23
740.414	3.77
740.438	2.77
740.461	14.77
740.485	23.77
740.509	3.77
740.533	11.77
740.557	0.77
740.581	-1.23
740.604	-6.23
740.628	5.77
740.652	5.77
740.676	-11.23
740.7	8.77
740.723	10.77
740.747	-16.23
740.771	-3.23
740.795	-1.23
740.819	9.77
740.842	0.77
740.866	23.77
740.89	6.77
740.914	-2.23
740.938	-4.23
740.961	17.77
740.985	3.77
741.009	4.77
741.033	-6.23
741.056	8.77
741.08	-4.23
741.104	-6.23
741.128	-1.23
741.151	13.77
741.175	14.77
741.199	11.77
741.223	1.77
741.246	-0.23
741.27	18.77
741.294	10.77
741.318	-9.23
741.341	-10.23
741.365	-3.23
741.389	-1.23
741.413	6.77
741.436	13.77
741.46	0.77
741.484	13.77
741.507	-3.23
741.531	22.77
741.555	12.77
741.579	-8.23
741.602	13.77
741.626	4.77
741.65	-2.23
741.673	12.77
741.697	18.77
741.721	-2.23
741.744	-16.23
741.768	-4.23
741.792	8.77
741.815	-9.23
741.839	6.77
741.863	12.77
741.886	5.77
741.91	15.77
741.934	0.77
741.957	-9.23
741.981	8.77
742.005	-11.23
742.028	-15.23
742.052	-15.23
742.075	-0.23
742.099	8.77
742.123	5.77
742.146	5.77
742.17	5.77
742.194	-10.23
742.217	-3.23
742.241	-9.23
742.264	9.77
742.288	3.77
742.312	14.77
742.335	-4.23
742.359	-11.23
742.382	0.77
742.406	12.77
742.43	-15.23
742.453	-1.23
742.477	-6.23
742.5	-12.23
742.524	-1.23
742.548	-7.23
742.571	-1.23
742.595	-5.23
742.618	-12.23
742.642	4.77
742.665	16.77
742.689	9.77
742.712	3.77
742.736	-1.23
742.76	6.77
742.783	-4.23
742.807	8.77
742.83	12.77
742.854	-13.23
742.877	-3.23
742.901	5.77
742.924	-0.23
742.948	11.77
742.971	-4.23
742.995	-1.23
743.018	-4.23
743.042	2.77
743.065	-0.23
743.089	-3.23
743.112	4.77
743.136	-4.23
743.159	-0.23
743.183	-10.23
743.206	9.77
743.23	-1.23
743.253	8.77
743.277	7.77
743.3	-7.23
743.324	-10.23
743.347	-7.23
743.371	16.77
743.394	11.77
743.418	14.77
743.441	14.77
743.465	11.77
743.488	12.77
743.512	-12.23
743.535	9.77
743.558	-1.23
743.582	4.77
743.605	1.77
743.629	7.77
743.652	12.77
743.676	5.77
743.699	9.77
743.723	6.77
743.746	14.77
743.769	-3.23
743.793	10.77
743.816	-7.23
743.84	16.77
743.863	-1.23
743.886	-7.23
743.91	20.77
743.933	13.77
743.957	1.77
743.98	7.77
744.003	3.77
744.027	1.77
744.05	-15.23
744.074	-3.23
744.097	-16.23
744.12	-9.23
744.144	-11.23
744.167	-0.23
744.19	-0.23
744.214	7.77
744.237	-4.23
744.26	12.77
744.284	0.77
744.307	-18.23
744.331	-4.23
744.354	-12.23
744.377	-1.23
744.401	-8.23
744.424	1.77
744.447	-16.23
744.471	-16.23
