Data from HighRes_mercury_15_13_11_07_2024_HR4C61891__82__15-14-31-386.txt Node

Date: Thu Nov 07 15:14:31 EST 2024
User: crc00042
Spectrometer: HR4C6189
Trigger mode: 4
Integration Time (sec): 1.000000E-1
Scans to average: 1
Electric dark correction enabled: true
Nonlinearity correction enabled: false
Boxcar width: 0
XAxis mode: Wavelengths
Number of Pixels in Spectrum: 3648
>>>>>Begin Spectral Data<<<<<
639.567	-69.38
639.602	-69.38
639.636	-69.38
639.67	-56.38
639.704	-29.38
639.738	-14.38
639.773	3.62
639.807	-13.38
639.841	-12.38
639.875	17.62
639.909	0.62
639.943	-16.38
639.978	-0.38
640.012	5.62
640.046	24.62
640.08	9.62
640.114	7.62
640.148	-12.38
640.182	1.62
640.217	0.62
640.251	8.62
640.285	14.62
640.319	-0.38
640.353	-17.38
640.387	2.62
640.421	-4.38
640.455	-3.38
640.49	-22.38
640.524	2.62
640.558	13.62
640.592	9.62
640.626	-7.38
640.66	7.62
640.694	-6.38
640.728	4.62
640.762	14.62
640.796	14.62
640.83	22.62
640.865	1.62
640.899	5.62
640.933	-7.38
640.967	-5.38
641.001	17.62
641.035	-9.38
641.069	3.62
641.103	8.62
641.137	7.62
641.171	-5.38
641.205	-7.38
641.239	-1.38
641.273	5.62
641.307	17.62
641.341	0.62
641.375	10.62
641.409	-13.38
641.443	-14.38
641.477	-3.38
641.511	-11.38
641.545	10.62
641.579	5.62
641.614	-1.38
641.648	11.62
641.682	7.62
641.716	13.62
641.75	24.62
641.784	-1.38
641.818	0.62
641.852	6.62
641.886	7.62
641.919	28.62
641.953	1.62
641.987	2.62
642.021	4.62
642.055	15.62
642.089	16.62
642.123	-8.38
642.157	-10.38
642.191	-11.38
642.225	3.62
642.259	-3.38
642.293	4.62
642.327	7.62
642.361	6.62
642.395	22.62
642.429	5.62
642.463	10.62
642.497	10.62
642.531	-19.38
642.565	-14.38
642.599	4.62
642.633	-8.38
642.666	18.62
642.7	5.62
642.734	11.62
642.768	-22.38
642.802	3.62
642.836	9.62
642.87	7.62
642.904	8.62
642.938	13.62
642.972	-11.38
643.005	-0.38
643.039	16.62
643.073	9.62
643.107	15.62
643.141	-3.38
643.175	-2.38
643.209	19.62
643.243	7.62
643.276	2.62
643.31	1.62
643.344	8.62
643.378	-9.38
643.412	15.62
643.446	-3.38
643.48	-14.38
643.513	-15.38
643.547	2.62
643.581	-2.38
643.615	12.62
643.649	18.62
643.683	6.62
643.716	-7.38
643.75	4.62
643.784	-16.38
643.818	-3.38
643.852	12.62
643.886	17.62
643.919	16.62
643.953	-1.38
643.987	5.62
644.021	7.62
644.055	-3.38
644.088	10.62
644.122	1.62
644.156	3.62
644.19	1.62
644.224	2.62
644.257	9.62
644.291	22.62
644.325	3.62
644.359	6.62
644.392	14.62
644.426	18.62
644.46	2.62
644.494	5.62
644.527	-15.38
644.561	-8.38
644.595	5.62
644.629	6.62
644.662	0.62
644.696	15.62
644.73	6.62
644.764	5.62
644.797	-12.38
644.831	19.62
644.865	26.62
644.899	17.62
644.932	19.62
644.966	-4.38
645	16.62
645.033	33.62
645.067	-5.38
645.101	13.62
645.135	-6.38
645.168	-4.38
645.202	-7.38
645.236	2.62
645.269	25.62
645.303	-9.38
645.337	-34.38
645.37	-1.38
645.404	5.62
645.438	4.62
645.471	-4.38
645.505	12.62
645.539	6.62
645.572	0.62
645.606	6.62
645.64	-0.38
645.673	-10.38
645.707	12.62
645.741	9.62
645.774	-6.38
645.808	3.62
645.842	-10.38
645.875	15.62
645.909	-13.38
645.943	-7.38
645.976	7.62
646.01	20.62
646.043	19.62
646.077	13.62
646.111	-1.38
646.144	11.62
646.178	12.62
646.212	-21.38
646.245	-7.38
646.279	13.62
646.312	-1.38
646.346	19.62
646.38	4.62
646.413	19.62
646.447	-0.38
646.48	-4.38
646.514	7.62
646.547	-1.38
646.581	-9.38
646.615	0.62
646.648	0.62
646.682	4.62
646.715	-15.38
646.749	10.62
646.782	-8.38
646.816	-9.38
646.85	2.62
646.883	7.62
646.917	14.62
646.95	3.62
646.984	8.62
647.017	-9.38
647.051	0.62
647.084	9.62
647.118	-10.38
647.151	9.62
647.185	10.62
647.218	-1.38
647.252	6.62
647.285	-21.38
647.319	-19.38
647.353	-9.38
647.386	18.62
647.42	-6.38
647.453	-1.38
647.487	13.62
647.52	-5.38
647.553	14.62
647.587	-10.38
647.62	-17.38
647.654	-2.38
647.687	3.62
647.721	9.62
647.754	-14.38
647.788	6.62
647.821	-17.38
647.855	3.62
647.888	23.62
647.922	8.62
647.955	12.62
647.989	0.62
648.022	18.62
648.055	11.62
648.089	2.62
648.122	23.62
648.156	1.62
648.189	-14.38
648.223	3.62
648.256	17.62
648.29	14.62
648.323	2.62
648.356	10.62
648.39	-4.38
648.423	11.62
648.457	0.62
648.49	2.62
648.523	11.62
648.557	-7.38
648.59	-23.38
648.624	-7.38
648.657	15.62
648.69	19.62
648.724	24.62
648.757	25.62
648.791	4.62
648.824	14.62
648.857	16.62
648.891	-4.38
648.924	12.62
648.957	27.62
648.991	-17.38
649.024	18.62
649.057	2.62
649.091	0.62
649.124	22.62
649.158	-6.38
649.191	16.62
649.224	6.62
649.258	0.62
649.291	7.62
649.324	6.62
649.358	8.62
649.391	6.62
649.424	-4.38
649.458	4.62
649.491	9.62
649.524	0.62
649.557	-9.38
649.591	-10.38
649.624	9.62
649.657	-2.38
649.691	-6.38
649.724	9.62
649.757	-4.38
649.791	2.62
649.824	12.62
649.857	-5.38
649.89	18.62
649.924	-21.38
649.957	-9.38
649.99	-30.38
650.023	-16.38
650.057	-3.38
650.09	-1.38
650.123	-3.38
650.157	13.62
650.19	13.62
650.223	-0.38
650.256	-12.38
650.29	2.62
650.323	9.62
650.356	14.62
650.389	1.62
650.423	5.62
650.456	-7.38
650.489	-0.38
650.522	-2.38
650.555	27.62
650.589	14.62
650.622	8.62
650.655	25.62
650.688	9.62
650.721	-3.38
650.755	-1.38
650.788	10.62
650.821	-9.38
650.854	8.62
650.887	-5.38
650.921	8.62
650.954	-11.38
650.987	8.62
651.02	-4.38
651.053	3.62
651.087	-7.38
651.12	7.62
651.153	12.62
651.186	2.62
651.219	-13.38
651.252	0.62
651.286	1.62
651.319	-9.38
651.352	-3.38
651.385	-4.38
651.418	3.62
651.451	3.62
651.484	-0.38
651.518	-2.38
651.551	7.62
651.584	2.62
651.617	3.62
651.65	-1.38
651.683	14.62
651.716	-5.38
651.749	-0.38
651.783	-0.38
651.816	4.62
651.849	4.62
651.882	7.62
651.915	-6.38
651.948	5.62
651.981	-5.38
652.014	-1.38
652.047	-12.38
652.08	3.62
652.114	3.62
652.147	-10.38
652.18	11.62
652.213	17.62
652.246	-4.38
652.279	-23.38
652.312	-3.38
652.345	-5.38
652.378	-4.38
652.411	0.62
652.444	6.62
652.477	16.62
652.51	-7.38
652.543	-5.38
652.576	7.62
652.609	-16.38
652.642	11.62
652.675	15.62
652.709	-13.38
652.742	8.62
652.775	-4.38
652.808	10.62
652.841	3.62
652.874	-0.38
652.907	-1.38
652.94	7.62
652.973	-21.38
653.006	-10.38
653.039	-8.38
653.072	-4.38
653.105	-5.38
653.138	-12.38
653.171	-16.38
653.204	-12.38
653.237	21.62
653.27	2.62
653.303	13.62
653.336	6.62
653.368	-1.38
653.401	-1.38
653.434	-12.38
653.467	0.62
653.5	-10.38
653.533	-12.38
653.566	4.62
653.599	-9.38
653.632	2.62
653.665	1.62
653.698	-5.38
653.731	-25.38
653.764	-0.38
653.797	-25.38
653.83	15.62
653.863	24.62
653.896	1.62
653.929	-8.38
653.961	6.62
653.994	1.62
654.027	-5.38
654.06	-1.38
654.093	5.62
654.126	3.62
654.159	-10.38
654.192	2.62
654.225	7.62
654.258	3.62
654.29	-10.38
654.323	2.62
654.356	-9.38
654.389	2.62
654.422	7.62
654.455	7.62
654.488	4.62
654.521	-2.38
654.553	-13.38
654.586	8.62
654.619	-5.38
654.652	-9.38
654.685	-4.38
654.718	-3.38
654.751	8.62
654.783	-7.38
654.816	27.62
654.849	4.62
654.882	3.62
654.915	-8.38
654.948	-2.38
654.98	1.62
655.013	16.62
655.046	-0.38
655.079	-8.38
655.112	6.62
655.144	-11.38
655.177	-3.38
655.21	11.62
655.243	24.62
655.276	13.62
655.308	0.62
655.341	-2.38
655.374	5.62
655.407	-6.38
655.44	-2.38
655.472	20.62
655.505	18.62
655.538	4.62
655.571	3.62
655.603	3.62
655.636	8.62
655.669	6.62
655.702	-2.38
655.734	4.62
655.767	-6.38
655.8	11.62
655.833	22.62
655.865	5.62
655.898	7.62
655.931	-9.38
655.964	3.62
655.996	9.62
656.029	12.62
656.062	8.62
656.095	4.62
656.127	-8.38
656.16	-2.38
656.193	4.62
656.225	4.62
656.258	9.62
656.291	-4.38
656.324	7.62
656.356	4.62
656.389	4.62
656.422	26.62
656.454	-7.38
656.487	5.62
656.52	2.62
656.552	-20.38
656.585	3.62
656.618	15.62
656.65	14.62
656.683	-8.38
656.716	14.62
656.748	6.62
656.781	5.62
656.814	8.62
656.846	21.62
656.879	16.62
656.912	-1.38
656.944	-4.38
656.977	5.62
657.01	6.62
657.042	1.62
657.075	4.62
657.108	-0.38
657.14	-6.38
657.173	16.62
657.205	31.62
657.238	11.62
657.271	2.62
657.303	-1.38
657.336	3.62
657.369	1.62
657.401	-3.38
657.434	2.62
657.466	-1.38
657.499	9.62
657.532	-2.38
657.564	-1.38
657.597	2.62
657.629	14.62
657.662	5.62
657.694	13.62
657.727	-3.38
657.76	10.62
657.792	1.62
657.825	7.62
657.857	2.62
657.89	0.62
657.922	17.62
657.955	-10.38
657.987	-5.38
658.02	1.62
658.053	27.62
658.085	16.62
658.118	11.62
658.15	1.62
658.183	20.62
658.215	-0.38
658.248	2.62
658.28	1.62
658.313	9.62
658.345	5.62
658.378	4.62
658.41	-5.38
658.443	19.62
658.475	8.62
658.508	1.62
658.54	-6.38
658.573	-3.38
658.605	-0.38
658.638	-5.38
658.67	12.62
658.703	4.62
658.735	-5.38
658.768	10.62
658.8	6.62
658.833	19.62
658.865	7.62
658.898	-2.38
658.93	0.62
658.963	-0.38
658.995	-25.38
659.028	9.62
659.06	8.62
659.092	5.62
659.125	5.62
659.157	12.62
659.19	2.62
659.222	-4.38
659.255	20.62
659.287	-4.38
659.32	-0.38
659.352	-6.38
659.384	17.62
659.417	-0.38
659.449	17.62
659.482	16.62
659.514	-13.38
659.546	18.62
659.579	-7.38
659.611	5.62
659.644	-4.38
659.676	-10.38
659.708	10.62
659.741	-12.38
659.773	2.62
659.806	9.62
659.838	1.62
659.87	3.62
659.903	-3.38
659.935	3.62
659.967	-2.38
660	10.62
660.032	-4.38
660.065	26.62
660.097	-8.38
660.129	2.62
660.162	-19.38
660.194	0.62
660.226	12.62
660.259	27.62
660.291	7.62
660.323	-14.38
660.356	0.62
660.388	-6.38
660.42	6.62
660.453	4.62
660.485	3.62
660.517	14.62
660.55	22.62
660.582	17.62
660.614	-0.38
660.647	-7.38
660.679	-4.38
660.711	7.62
660.743	-4.38
660.776	1.62
660.808	-5.38
660.84	-2.38
660.873	-1.38
660.905	-2.38
660.937	-0.38
660.969	1.62
661.002	-2.38
661.034	11.62
661.066	-3.38
661.099	3.62
661.131	12.62
661.163	2.62
661.195	-2.38
661.228	8.62
661.26	-0.38
661.292	-2.38
661.324	3.62
661.357	2.62
661.389	5.62
661.421	16.62
661.453	-2.38
661.485	2.62
661.518	-7.38
661.55	-9.38
661.582	-13.38
661.614	14.62
661.647	-1.38
661.679	0.62
661.711	15.62
661.743	-17.38
661.775	6.62
661.808	27.62
661.84	-7.38
661.872	7.62
661.904	15.62
661.936	-1.38
661.969	-22.38
662.001	-11.38
662.033	8.62
662.065	-9.38
662.097	7.62
662.129	16.62
662.162	10.62
662.194	7.62
662.226	-0.38
662.258	15.62
662.29	-1.38
662.322	3.62
662.355	-9.38
662.387	22.62
662.419	18.62
662.451	17.62
662.483	9.62
662.515	-1.38
662.547	-2.38
662.58	-10.38
662.612	6.62
662.644	-5.38
662.676	4.62
662.708	15.62
662.74	10.62
662.772	5.62
662.804	8.62
662.836	15.62
662.869	-4.38
662.901	3.62
662.933	11.62
662.965	24.62
662.997	15.62
663.029	-3.38
663.061	-4.38
663.093	-5.38
663.125	4.62
663.157	1.62
663.189	-4.38
663.221	5.62
663.254	-2.38
663.286	10.62
663.318	2.62
663.35	-1.38
663.382	4.62
663.414	22.62
663.446	8.62
663.478	4.62
663.51	27.62
663.542	6.62
663.574	-3.38
663.606	3.62
663.638	-10.38
663.67	-0.38
663.702	4.62
663.734	10.62
663.766	8.62
663.798	-9.38
663.83	7.62
663.862	-0.38
663.894	11.62
663.926	9.62
663.958	22.62
663.99	3.62
664.022	-11.38
664.054	10.62
664.086	-4.38
664.118	-32.38
664.15	-0.38
664.182	11.62
664.214	0.62
664.246	15.62
664.278	-9.38
664.31	11.62
664.342	6.62
664.374	1.62
664.406	4.62
664.438	-14.38
664.47	10.62
664.502	2.62
664.534	3.62
664.566	-9.38
664.598	-2.38
664.63	-8.38
664.662	11.62
664.693	12.62
664.725	13.62
664.757	12.62
664.789	-9.38
664.821	-1.38
664.853	10.62
664.885	2.62
664.917	-3.38
664.949	11.62
664.981	27.62
665.013	-2.38
665.045	-17.38
665.076	-2.38
665.108	2.62
665.14	-14.38
665.172	1.62
665.204	-7.38
665.236	4.62
665.268	11.62
665.3	9.62
665.331	-0.38
665.363	5.62
665.395	-5.38
665.427	5.62
665.459	0.62
665.491	-5.38
665.523	-5.38
665.555	-12.38
665.586	6.62
665.618	-3.38
665.65	-8.38
665.682	4.62
665.714	1.62
665.746	-5.38
665.777	-12.38
665.809	0.62
665.841	5.62
665.873	-6.38
665.905	7.62
665.937	5.62
665.968	7.62
666	-8.38
666.032	4.62
666.064	5.62
666.096	4.62
666.127	15.62
666.159	18.62
666.191	2.62
666.223	-12.38
666.255	1.62
666.286	2.62
666.318	1.62
666.35	29.62
666.382	13.62
666.413	-17.38
666.445	-14.38
666.477	-10.38
666.509	0.62
666.54	0.62
666.572	9.62
666.604	10.62
666.636	-7.38
666.667	16.62
666.699	22.62
666.731	10.62
666.763	1.62
666.794	-5.38
666.826	3.62
666.858	-16.38
666.89	-1.38
666.921	-4.38
666.953	6.62
666.985	-0.38
667.017	18.62
667.048	15.62
667.08	-5.38
667.112	-2.38
667.143	-21.38
667.175	22.62
667.207	3.62
667.238	12.62
667.27	9.62
667.302	0.62
667.334	2.62
667.365	20.62
667.397	8.62
667.429	-3.38
667.46	14.62
667.492	2.62
667.524	-10.38
667.555	-7.38
667.587	2.62
667.619	1.62
667.65	-24.38
667.682	1.62
667.714	7.62
667.745	-6.38
667.777	17.62
667.808	3.62
667.84	-0.38
667.872	-6.38
667.903	17.62
667.935	-4.38
667.967	7.62
667.998	6.62
668.03	7.62
668.061	6.62
668.093	3.62
668.125	6.62
668.156	6.62
668.188	3.62
668.22	5.62
668.251	0.62
668.283	12.62
668.314	17.62
668.346	5.62
668.377	13.62
668.409	24.62
668.441	24.62
668.472	16.62
668.504	10.62
668.535	-1.38
668.567	1.62
668.599	14.62
668.63	2.62
668.662	-1.38
668.693	22.62
668.725	14.62
668.756	20.62
668.788	6.62
668.819	21.62
668.851	6.62
668.882	11.62
668.914	-0.38
668.946	2.62
668.977	-8.38
669.009	6.62
669.04	-17.38
669.072	-1.38
669.103	3.62
669.135	14.62
669.166	11.62
669.198	-8.38
669.229	4.62
669.261	-3.38
669.292	-6.38
669.324	4.62
669.355	-2.38
669.387	-26.38
669.418	23.62
669.45	-13.38
669.481	-1.38
669.513	9.62
669.544	13.62
669.576	0.62
669.607	19.62
669.639	7.62
669.67	-1.38
669.701	2.62
669.733	-16.38
669.764	0.62
669.796	1.62
669.827	-3.38
669.859	4.62
669.89	15.62
669.922	18.62
669.953	19.62
669.985	14.62
670.016	13.62
670.047	2.62
670.079	10.62
670.11	14.62
670.142	14.62
670.173	8.62
670.204	4.62
670.236	17.62
670.267	0.62
670.299	7.62
670.33	10.62
670.362	10.62
670.393	4.62
670.424	10.62
670.456	-19.38
670.487	14.62
670.518	10.62
670.55	3.62
670.581	-4.38
670.613	9.62
670.644	-7.38
670.675	-17.38
670.707	-14.38
670.738	-0.38
670.769	-5.38
670.801	-15.38
670.832	-0.38
670.864	-2.38
670.895	-4.38
670.926	2.62
670.958	-9.38
670.989	-4.38
671.02	-10.38
671.052	-7.38
671.083	12.62
671.114	1.62
671.146	19.62
671.177	2.62
671.208	-16.38
671.24	-9.38
671.271	-17.38
671.302	12.62
671.333	-2.38
671.365	2.62
671.396	2.62
671.427	3.62
671.459	-2.38
671.49	8.62
671.521	-3.38
671.553	-8.38
671.584	3.62
671.615	-8.38
671.646	0.62
671.678	11.62
671.709	-13.38
671.74	-8.38
671.771	-5.38
671.803	-3.38
671.834	9.62
671.865	3.62
671.896	3.62
671.928	5.62
671.959	-1.38
671.99	-4.38
672.021	-2.38
672.053	-6.38
672.084	21.62
672.115	-0.38
672.146	-2.38
672.178	-11.38
672.209	3.62
672.24	4.62
672.271	30.62
672.303	9.62
672.334	7.62
672.365	1.62
672.396	8.62
672.427	2.62
672.459	-2.38
672.49	16.62
672.521	2.62
672.552	15.62
672.583	5.62
672.615	2.62
672.646	13.62
672.677	6.62
672.708	16.62
672.739	5.62
672.77	9.62
672.802	14.62
672.833	0.62
672.864	9.62
672.895	-0.38
672.926	-1.38
672.957	-18.38
672.989	-5.38
673.02	7.62
673.051	2.62
673.082	11.62
673.113	2.62
673.144	-0.38
673.175	-1.38
673.206	-11.38
673.238	1.62
673.269	18.62
673.3	-23.38
673.331	-5.38
673.362	10.62
673.393	4.62
673.424	12.62
673.455	29.62
673.487	17.62
673.518	21.62
673.549	-16.38
673.58	-12.38
673.611	0.62
673.642	-8.38
673.673	-7.38
673.704	7.62
673.735	26.62
673.766	5.62
673.797	-11.38
673.828	-8.38
673.86	-4.38
673.891	-20.38
673.922	-8.38
673.953	-17.38
673.984	-4.38
674.015	1.62
674.046	9.62
674.077	20.62
674.108	-1.38
674.139	-3.38
674.17	-5.38
674.201	4.62
674.232	2.62
674.263	4.62
674.294	-6.38
674.325	-1.38
674.356	0.62
674.387	4.62
674.418	-9.38
674.449	-23.38
674.48	-22.38
674.511	-2.38
674.542	18.62
674.573	-15.38
674.604	-10.38
674.635	-9.38
674.666	6.62
674.697	-8.38
674.728	-5.38
674.759	5.62
674.79	-6.38
674.821	-11.38
674.852	-8.38
674.883	-10.38
674.914	-17.38
674.945	7.62
674.976	1.62
675.007	2.62
675.038	-0.38
675.069	-5.38
675.1	-9.38
675.131	-3.38
675.162	-9.38
675.193	-14.38
675.224	-6.38
675.254	6.62
675.285	0.62
675.316	18.62
675.347	2.62
675.378	4.62
675.409	-4.38
675.44	10.62
675.471	-9.38
675.502	-5.38
675.533	-5.38
675.564	3.62
675.595	-1.38
675.625	22.62
675.656	0.62
675.687	9.62
675.718	-12.38
675.749	-5.38
675.78	3.62
675.811	-15.38
675.842	-8.38
675.873	4.62
675.903	-6.38
675.934	3.62
675.965	-5.38
675.996	-4.38
676.027	-0.38
676.058	-5.38
676.089	-5.38
676.119	4.62
676.15	-7.38
676.181	4.62
676.212	-2.38
676.243	18.62
676.274	-2.38
676.304	12.62
676.335	-11.38
676.366	-6.38
676.397	10.62
676.428	8.62
676.459	-15.38
676.489	15.62
676.52	14.62
676.551	8.62
676.582	-14.38
676.613	-7.38
676.643	-14.38
676.674	3.62
676.705	3.62
676.736	2.62
676.767	16.62
676.797	16.62
676.828	11.62
676.859	-8.38
676.89	-3.38
676.92	2.62
676.951	9.62
676.982	11.62
677.013	7.62
677.044	36.62
677.074	31.62
677.105	-7.38
677.136	8.62
677.167	4.62
677.197	11.62
677.228	4.62
677.259	-9.38
677.289	-0.38
677.32	-16.38
677.351	-8.38
677.382	-7.38
677.412	-20.38
677.443	6.62
677.474	-1.38
677.505	-6.38
677.535	0.62
677.566	-6.38
677.597	-7.38
677.627	-7.38
677.658	-3.38
677.689	-11.38
677.72	-1.38
677.75	2.62
677.781	3.62
677.812	16.62
677.842	2.62
677.873	10.62
677.904	-2.38
677.934	0.62
677.965	8.62
677.996	-15.38
678.026	0.62
678.057	0.62
678.088	-11.38
678.118	-7.38
678.149	-11.38
678.18	0.62
678.21	9.62
678.241	11.62
678.272	8.62
678.302	-8.38
678.333	16.62
678.363	12.62
678.394	18.62
678.425	1.62
678.455	10.62
678.486	16.62
678.517	2.62
678.547	6.62
678.578	-6.38
678.608	-8.38
678.639	2.62
678.67	-1.38
678.7	14.62
678.731	5.62
678.761	3.62
678.792	5.62
678.823	5.62
678.853	-4.38
678.884	-5.38
678.914	-1.38
678.945	-3.38
678.975	-5.38
679.006	5.62
679.037	-8.38
679.067	16.62
679.098	20.62
679.128	10.62
679.159	4.62
679.189	-0.38
679.22	3.62
679.25	13.62
679.281	3.62
679.312	10.62
679.342	0.62
679.373	10.62
679.403	15.62
679.434	10.62
679.464	-4.38
679.495	3.62
679.525	1.62
679.556	-6.38
679.586	4.62
679.617	-2.38
679.647	-15.38
679.678	12.62
679.708	1.62
679.739	-7.38
679.769	5.62
679.8	0.62
679.83	1.62
679.861	16.62
679.891	4.62
679.922	-4.38
679.952	-17.38
679.983	8.62
680.013	11.62
680.044	1.62
680.074	9.62
680.105	2.62
680.135	12.62
680.165	14.62
680.196	16.62
680.226	-1.38
680.257	32.62
680.287	-4.38
680.318	-0.38
680.348	-8.38
680.379	9.62
680.409	7.62
680.439	2.62
680.47	-5.38
680.5	2.62
680.531	9.62
680.561	11.62
680.592	-0.38
680.622	12.62
680.652	0.62
680.683	7.62
680.713	7.62
680.744	8.62
680.774	7.62
680.804	25.62
680.835	1.62
680.865	-4.38
680.896	5.62
680.926	8.62
680.956	3.62
680.987	16.62
681.017	-4.38
681.047	4.62
681.078	-10.38
681.108	11.62
681.139	5.62
681.169	3.62
681.199	5.62
681.23	8.62
681.26	23.62
681.29	9.62
681.321	-12.38
681.351	0.62
681.381	-14.38
681.412	-0.38
681.442	1.62
681.472	9.62
681.503	8.62
681.533	3.62
681.563	2.62
681.594	1.62
681.624	-2.38
681.654	0.62
681.685	13.62
681.715	11.62
681.745	-13.38
681.775	-2.38
681.806	-2.38
681.836	-3.38
681.866	5.62
681.897	5.62
681.927	4.62
681.957	-9.38
681.987	10.62
682.018	8.62
682.048	20.62
682.078	6.62
682.109	14.62
682.139	16.62
682.169	5.62
682.199	-2.38
682.23	7.62
682.26	2.62
682.29	2.62
682.32	6.62
682.351	6.62
682.381	1.62
682.411	21.62
682.441	-3.38
682.472	-6.38
682.502	-2.38
682.532	-7.38
682.562	7.62
682.592	9.62
682.623	15.62
682.653	10.62
682.683	14.62
682.713	11.62
682.743	8.62
682.774	-3.38
682.804	12.62
682.834	9.62
682.864	2.62
682.894	4.62
682.925	7.62
682.955	8.62
682.985	-12.38
683.015	1.62
683.045	2.62
683.076	-7.38
683.106	5.62
683.136	5.62
683.166	1.62
683.196	5.62
683.226	-0.38
683.257	0.62
683.287	-12.38
683.317	-7.38
683.347	4.62
683.377	-1.38
683.407	7.62
683.437	2.62
683.468	6.62
683.498	-2.38
683.528	2.62
683.558	-11.38
683.588	5.62
683.618	0.62
683.648	2.62
683.678	8.62
683.708	5.62
683.739	2.62
683.769	8.62
683.799	-14.38
683.829	0.62
683.859	-0.38
683.889	6.62
683.919	-10.38
683.949	1.62
683.979	-2.38
684.009	-0.38
684.039	2.62
684.07	-5.38
684.1	17.62
684.13	9.62
684.16	-4.38
684.19	7.62
684.22	-2.38
684.25	14.62
684.28	-11.38
684.31	17.62
684.34	15.62
684.37	11.62
684.4	14.62
684.43	14.62
684.46	6.62
684.49	18.62
684.52	11.62
684.55	0.62
684.58	1.62
684.61	-0.38
684.64	21.62
684.67	5.62
684.7	-6.38
684.73	8.62
684.76	14.62
684.79	8.62
684.82	1.62
684.85	-3.38
684.88	18.62
684.91	3.62
684.94	10.62
684.97	-13.38
685	-11.38
685.03	-14.38
685.06	-4.38
685.09	-1.38
685.12	22.62
685.15	5.62
685.18	4.62
685.21	3.62
685.24	6.62
685.27	19.62
685.3	-7.38
685.33	5.62
685.36	-4.38
685.39	4.62
685.42	-12.38
685.45	-8.38
685.48	-3.38
685.51	-5.38
685.54	9.62
685.569	14.62
685.599	-5.38
685.629	0.62
685.659	7.62
685.689	-0.38
685.719	7.62
685.749	5.62
685.779	0.62
685.809	8.62
685.839	3.62
685.869	11.62
685.898	-0.38
685.928	-1.38
685.958	-6.38
685.988	5.62
686.018	4.62
686.048	13.62
686.078	16.62
686.108	27.62
686.137	8.62
686.167	12.62
686.197	2.62
686.227	11.62
686.257	28.62
686.287	13.62
686.317	6.62
686.346	13.62
686.376	-5.38
686.406	-23.38
686.436	9.62
686.466	-3.38
686.496	13.62
686.525	14.62
686.555	-2.38
686.585	17.62
686.615	41.62
686.645	11.62
686.675	8.62
686.704	6.62
686.734	-0.38
686.764	-1.38
686.794	8.62
686.824	-2.38
686.853	0.62
686.883	-1.38
686.913	10.62
686.943	-1.38
686.973	-7.38
687.002	14.62
687.032	7.62
687.062	1.62
687.092	21.62
687.121	-6.38
687.151	14.62
687.181	5.62
687.211	0.62
687.24	-4.38
687.27	10.62
687.3	-2.38
687.33	1.62
687.359	-9.38
687.389	20.62
687.419	1.62
687.449	2.62
687.478	13.62
687.508	5.62
687.538	16.62
687.568	13.62
687.597	-4.38
687.627	6.62
687.657	-8.38
687.686	2.62
687.716	6.62
687.746	-0.38
687.776	-6.38
687.805	9.62
687.835	7.62
687.865	20.62
687.894	8.62
687.924	5.62
687.954	11.62
687.983	1.62
688.013	1.62
688.043	3.62
688.072	-0.38
688.102	4.62
688.132	-2.38
688.161	2.62
688.191	-2.38
688.221	29.62
688.25	-10.38
688.28	2.62
688.31	3.62
688.339	4.62
688.369	-0.38
688.399	2.62
688.428	-2.38
688.458	0.62
688.488	-19.38
688.517	-2.38
688.547	-7.38
688.576	16.62
688.606	9.62
688.636	-7.38
688.665	4.62
688.695	6.62
688.725	0.62
688.754	-0.38
688.784	-3.38
688.813	14.62
688.843	-4.38
688.873	-0.38
688.902	-14.38
688.932	-3.38
688.961	1.62
688.991	21.62
689.02	14.62
689.05	-8.38
689.08	4.62
689.109	23.62
689.139	12.62
689.168	23.62
689.198	-1.38
689.227	-2.38
689.257	19.62
689.287	7.62
689.316	7.62
689.346	-3.38
689.375	-7.38
689.405	11.62
689.434	-11.38
689.464	5.62
689.493	-4.38
689.523	9.62
689.552	-5.38
689.582	0.62
689.611	13.62
689.641	18.62
689.67	2.62
689.7	1.62
689.73	5.62
689.759	4.62
689.789	19.62
689.818	-3.38
689.848	2.62
689.877	21.62
689.906	-11.38
689.936	-2.38
689.965	7.62
689.995	4.62
690.024	16.62
690.054	6.62
690.083	6.62
690.113	3.62
690.142	5.62
690.172	13.62
690.201	12.62
690.231	-9.38
690.26	8.62
690.29	15.62
690.319	-0.38
690.348	-2.38
690.378	0.62
690.407	10.62
690.437	1.62
690.466	9.62
690.496	-7.38
690.525	-4.38
690.555	-1.38
690.584	3.62
690.613	1.62
690.643	6.62
690.672	10.62
690.702	26.62
690.731	13.62
690.76	30.62
690.79	52.62
690.819	54.62
690.849	45.62
690.878	41.62
690.907	23.62
690.937	35.62
690.966	21.62
690.996	3.62
691.025	-12.38
691.054	-8.38
691.084	26.62
691.113	-0.38
691.142	12.62
691.172	9.62
691.201	24.62
691.23	-0.38
691.26	5.62
691.289	1.62
691.319	-3.38
691.348	-2.38
691.377	19.62
691.407	13.62
691.436	14.62
691.465	0.62
691.495	-4.38
691.524	-8.38
691.553	-11.38
691.583	2.62
691.612	19.62
691.641	-4.38
691.67	1.62
691.7	-4.38
691.729	-9.38
691.758	4.62
691.788	10.62
691.817	11.62
691.846	-7.38
691.876	13.62
691.905	6.62
691.934	9.62
691.963	14.62
691.993	4.62
692.022	-6.38
692.051	-8.38
692.081	1.62
692.11	8.62
692.139	0.62
692.168	14.62
692.198	21.62
692.227	16.62
692.256	12.62
692.285	4.62
692.315	14.62
692.344	2.62
692.373	8.62
692.402	-14.38
692.432	-6.38
692.461	-1.38
692.49	-3.38
692.519	-10.38
692.548	6.62
692.578	-1.38
692.607	-4.38
692.636	-6.38
692.665	6.62
692.694	-11.38
692.724	-11.38
692.753	11.62
692.782	6.62
692.811	2.62
692.84	1.62
692.87	16.62
692.899	8.62
692.928	-4.38
692.957	1.62
692.986	1.62
693.016	-5.38
693.045	11.62
693.074	9.62
693.103	3.62
693.132	3.62
693.161	22.62
693.191	1.62
693.22	-1.38
693.249	0.62
693.278	5.62
693.307	17.62
693.336	-12.38
693.365	-2.38
693.395	7.62
693.424	11.62
693.453	22.62
693.482	1.62
693.511	-12.38
693.54	6.62
693.569	0.62
693.598	21.62
693.628	22.62
693.657	11.62
693.686	10.62
693.715	5.62
693.744	21.62
693.773	22.62
693.802	-4.38
693.831	-20.38
693.86	13.62
693.889	-5.38
693.919	0.62
693.948	11.62
693.977	5.62
694.006	-2.38
694.035	-10.38
694.064	-9.38
694.093	0.62
694.122	3.62
694.151	-6.38
694.18	9.62
694.209	19.62
694.238	20.62
694.267	44.62
694.296	2.62
694.325	8.62
694.354	1.62
694.383	14.62
694.412	-0.38
694.441	1.62
694.471	0.62
694.5	-16.38
694.529	-17.38
694.558	4.62
694.587	2.62
694.616	1.62
694.645	-0.38
694.674	4.62
694.703	25.62
694.732	-4.38
694.761	6.62
694.79	16.62
694.819	-13.38
694.848	-4.38
694.877	26.62
694.906	27.62
694.935	13.62
694.963	25.62
694.992	7.62
695.021	0.62
695.05	14.62
695.079	9.62
695.108	3.62
695.137	12.62
695.166	15.62
695.195	8.62
695.224	10.62
695.253	5.62
695.282	9.62
695.311	32.62
695.34	25.62
695.369	21.62
695.398	-0.38
695.427	10.62
695.456	11.62
695.485	13.62
695.513	10.62
695.542	21.62
695.571	1.62
695.6	15.62
695.629	4.62
695.658	19.62
695.687	3.62
695.716	-2.38
695.745	31.62
695.774	-12.38
695.802	1.62
695.831	13.62
695.86	3.62
695.889	23.62
695.918	-0.38
695.947	-9.38
695.976	-1.38
696.005	1.62
696.033	18.62
696.062	19.62
696.091	-10.38
696.12	6.62
696.149	3.62
696.178	-6.38
696.207	3.62
696.235	1.62
696.264	7.62
696.293	9.62
696.322	1.62
696.351	24.62
696.38	-6.38
696.408	9.62
696.437	2.62
696.466	9.62
696.495	30.62
696.524	19.62
696.553	6.62
696.581	18.62
696.61	5.62
696.639	7.62
696.668	7.62
696.697	-4.38
696.725	-0.38
696.754	-3.38
696.783	0.62
696.812	-1.38
696.84	10.62
696.869	13.62
696.898	15.62
696.927	8.62
696.956	-1.38
696.984	-4.38
697.013	11.62
697.042	5.62
697.071	8.62
697.099	6.62
697.128	-0.38
697.157	7.62
697.186	-5.38
697.214	-5.38
697.243	-7.38
697.272	3.62
697.301	29.62
697.329	15.62
697.358	-0.38
697.387	15.62
697.415	9.62
697.444	-0.38
697.473	0.62
697.502	-1.38
697.53	19.62
697.559	14.62
697.588	10.62
697.616	-1.38
697.645	-11.38
697.674	8.62
697.703	-3.38
697.731	0.62
697.76	1.62
697.789	0.62
697.817	8.62
697.846	13.62
697.875	2.62
697.903	20.62
697.932	8.62
697.961	-0.38
697.989	5.62
698.018	3.62
698.047	16.62
698.075	1.62
698.104	2.62
698.133	-2.38
698.161	-0.38
698.19	2.62
698.218	7.62
698.247	-7.38
698.276	14.62
698.304	5.62
698.333	13.62
698.362	7.62
698.39	10.62
698.419	19.62
698.447	2.62
698.476	1.62
698.505	7.62
698.533	12.62
698.562	6.62
698.591	-1.38
698.619	-12.38
698.648	6.62
698.676	4.62
698.705	-1.38
698.733	-12.38
698.762	6.62
698.791	2.62
698.819	11.62
698.848	9.62
698.876	3.62
698.905	3.62
698.933	-0.38
698.962	5.62
698.991	6.62
699.019	4.62
699.048	9.62
699.076	8.62
699.105	-6.38
699.133	-11.38
699.162	-2.38
699.19	15.62
699.219	15.62
699.248	16.62
699.276	-16.38
699.305	2.62
699.333	24.62
699.362	1.62
699.39	-8.38
699.419	-21.38
699.447	22.62
699.476	14.62
699.504	1.62
699.533	-5.38
699.561	-15.38
699.59	-1.38
699.618	-6.38
699.647	1.62
699.675	0.62
699.704	16.62
699.732	2.62
699.761	4.62
699.789	5.62
699.818	34.62
699.846	1.62
699.874	-12.38
699.903	-8.38
699.931	-8.38
699.96	-1.38
699.988	-0.38
700.017	2.62
700.045	-3.38
700.074	19.62
700.102	13.62
700.13	3.62
700.159	2.62
700.187	13.62
700.216	2.62
700.244	-2.38
700.273	6.62
700.301	3.62
700.329	14.62
700.358	16.62
700.386	2.62
700.415	1.62
700.443	6.62
700.472	9.62
700.5	16.62
700.528	11.62
700.557	-9.38
700.585	-4.38
700.614	-5.38
700.642	16.62
700.67	11.62
700.699	13.62
700.727	6.62
700.755	-8.38
700.784	0.62
700.812	8.62
700.841	11.62
700.869	3.62
700.897	-13.38
700.926	-11.38
700.954	9.62
700.982	13.62
701.011	15.62
701.039	12.62
701.067	9.62
701.096	3.62
701.124	-16.38
701.152	-1.38
701.181	-5.38
701.209	-24.38
701.237	-3.38
701.266	-5.38
701.294	4.62
701.322	-0.38
701.351	13.62
701.379	-11.38
701.407	-4.38
701.435	12.62
701.464	12.62
701.492	19.62
701.52	-1.38
701.549	-0.38
701.577	5.62
701.605	1.62
701.634	-3.38
701.662	-1.38
701.69	-17.38
701.718	-4.38
701.747	3.62
701.775	12.62
701.803	6.62
701.831	0.62
701.86	-2.38
701.888	18.62
701.916	-2.38
701.944	-1.38
701.973	9.62
702.001	2.62
702.029	-0.38
702.057	11.62
702.086	-3.38
702.114	-15.38
702.142	-3.38
702.17	-5.38
702.199	-10.38
702.227	-7.38
702.255	0.62
702.283	5.62
702.311	-4.38
702.34	-9.38
702.368	-8.38
702.396	-12.38
702.424	1.62
702.452	-8.38
702.481	16.62
702.509	4.62
702.537	5.62
702.565	-7.38
702.593	-29.38
702.621	-5.38
702.65	13.62
702.678	22.62
702.706	1.62
702.734	-6.38
702.762	15.62
702.79	9.62
702.819	7.62
702.847	-1.38
702.875	14.62
702.903	23.62
702.931	5.62
702.959	1.62
702.988	5.62
703.016	-8.38
703.044	-9.38
703.072	19.62
703.1	-15.38
703.128	2.62
703.156	-5.38
703.184	3.62
703.212	23.62
703.241	9.62
703.269	-12.38
703.297	-7.38
703.325	1.62
703.353	-3.38
703.381	-2.38
703.409	9.62
703.437	-12.38
703.465	2.62
703.493	-9.38
703.522	3.62
703.55	8.62
703.578	4.62
703.606	-9.38
703.634	8.62
703.662	-9.38
703.69	9.62
703.718	4.62
703.746	23.62
703.774	13.62
703.802	17.62
703.83	4.62
703.858	-1.38
703.886	-5.38
703.914	-3.38
703.942	16.62
703.97	8.62
703.998	9.62
704.027	16.62
704.055	18.62
704.083	7.62
704.111	-9.38
704.139	-3.38
704.167	6.62
704.195	12.62
704.223	3.62
704.251	-4.38
704.279	2.62
704.307	1.62
704.335	-8.38
704.363	10.62
704.391	8.62
704.419	15.62
704.447	-4.38
704.475	-5.38
704.503	0.62
704.531	19.62
704.558	13.62
704.586	1.62
704.614	0.62
704.642	-0.38
704.67	-8.38
704.698	2.62
704.726	-0.38
704.754	1.62
704.782	11.62
704.81	-2.38
704.838	25.62
704.866	11.62
704.894	-9.38
704.922	3.62
704.95	23.62
704.978	7.62
705.006	1.62
705.034	9.62
705.061	7.62
705.089	-1.38
705.117	-0.38
705.145	-7.38
705.173	9.62
705.201	8.62
705.229	8.62
705.257	18.62
705.285	23.62
705.313	10.62
705.34	-14.38
705.368	-7.38
705.396	0.62
705.424	10.62
705.452	11.62
705.48	4.62
705.508	9.62
705.536	7.62
705.563	-13.38
705.591	2.62
705.619	2.62
705.647	-15.38
705.675	-6.38
705.703	10.62
705.731	14.62
705.758	12.62
705.786	13.62
705.814	22.62
705.842	2.62
705.87	25.62
705.898	6.62
705.925	-15.38
705.953	-1.38
705.981	-2.38
706.009	2.62
706.037	10.62
706.065	-9.38
706.092	-18.38
706.12	1.62
706.148	-2.38
706.176	9.62
706.204	14.62
706.231	4.62
706.259	-1.38
706.287	5.62
706.315	-4.38
706.342	-14.38
706.37	-1.38
706.398	11.62
706.426	2.62
706.454	1.62
706.481	9.62
706.509	1.62
706.537	-4.38
706.565	-8.38
706.592	0.62
706.62	5.62
706.648	0.62
706.676	-5.38
706.703	5.62
706.731	-2.38
706.759	4.62
706.787	8.62
706.814	-4.38
706.842	1.62
706.87	-3.38
706.897	19.62
706.925	-4.38
706.953	14.62
706.981	11.62
707.008	0.62
707.036	-2.38
707.064	3.62
707.091	-8.38
707.119	16.62
707.147	6.62
707.174	-8.38
707.202	15.62
707.23	-2.38
707.258	-0.38
707.285	-12.38
707.313	-9.38
707.341	-6.38
707.368	-3.38
707.396	-8.38
707.424	8.62
707.451	9.62
707.479	1.62
707.507	4.62
707.534	-4.38
707.562	-6.38
707.59	-4.38
707.617	-7.38
707.645	-0.38
707.672	-0.38
707.7	-7.38
707.728	12.62
707.755	0.62
707.783	-13.38
707.811	10.62
707.838	-7.38
707.866	3.62
707.893	5.62
707.921	7.62
707.949	6.62
707.976	16.62
708.004	3.62
708.031	-7.38
708.059	-7.38
708.087	-8.38
708.114	-12.38
708.142	3.62
708.169	-7.38
708.197	-12.38
708.225	5.62
708.252	6.62
708.28	-2.38
708.307	-2.38
708.335	7.62
708.362	-2.38
708.39	-11.38
708.418	-3.38
708.445	-22.38
708.473	-20.38
708.5	-0.38
708.528	-3.38
708.555	2.62
708.583	0.62
708.61	5.62
708.638	16.62
708.665	-11.38
708.693	-1.38
708.72	-2.38
708.748	-28.38
708.776	-10.38
708.803	8.62
708.831	7.62
708.858	0.62
708.886	12.62
708.913	8.62
708.941	18.62
708.968	18.62
708.996	2.62
709.023	23.62
709.051	-1.38
709.078	-1.38
709.105	8.62
709.133	5.62
709.16	9.62
709.188	20.62
709.215	16.62
709.243	4.62
709.27	-6.38
709.298	-6.38
709.325	-13.38
709.353	6.62
709.38	10.62
709.408	14.62
709.435	15.62
709.462	10.62
709.49	14.62
709.517	-7.38
709.545	3.62
709.572	3.62
709.6	-8.38
709.627	4.62
709.655	-6.38
709.682	-9.38
709.709	9.62
709.737	-0.38
709.764	-6.38
709.792	2.62
709.819	-8.38
709.846	-5.38
709.874	15.62
709.901	13.62
709.929	21.62
709.956	16.62
709.983	1.62
710.011	0.62
710.038	-5.38
710.066	-0.38
710.093	24.62
710.12	1.62
710.148	-12.38
710.175	-6.38
710.202	-14.38
710.23	5.62
710.257	3.62
710.284	17.62
710.312	-2.38
710.339	5.62
710.366	-1.38
710.394	-8.38
710.421	2.62
710.448	14.62
710.476	-2.38
710.503	9.62
710.53	8.62
710.558	30.62
710.585	8.62
710.612	-16.38
710.64	-8.38
710.667	1.62
710.694	5.62
710.722	11.62
710.749	4.62
710.776	8.62
710.804	18.62
710.831	2.62
710.858	-1.38
710.885	14.62
710.913	8.62
710.94	19.62
710.967	10.62
710.995	11.62
711.022	-12.38
711.049	-0.38
711.076	-15.38
711.104	-1.38
711.131	-8.38
711.158	-0.38
711.185	5.62
711.213	-16.38
711.24	-6.38
711.267	6.62
711.294	-0.38
711.322	9.62
711.349	4.62
711.376	-0.38
711.403	14.62
711.431	0.62
711.458	1.62
711.485	8.62
711.512	3.62
711.54	-10.38
711.567	-1.38
711.594	15.62
711.621	2.62
711.648	-1.38
711.676	-5.38
711.703	-3.38
711.73	-6.38
711.757	8.62
711.784	-1.38
711.812	-2.38
711.839	4.62
711.866	-3.38
711.893	-2.38
711.92	4.62
711.947	-2.38
711.975	-5.38
712.002	-8.38
712.029	8.62
712.056	14.62
712.083	9.62
712.11	1.62
712.138	2.62
712.165	4.62
712.192	2.62
712.219	1.62
712.246	-7.38
712.273	-6.38
712.3	-7.38
712.328	10.62
712.355	6.62
712.382	-0.38
712.409	30.62
712.436	-5.38
712.463	4.62
712.49	6.62
712.517	11.62
712.544	10.62
712.572	14.62
712.599	5.62
712.626	19.62
712.653	8.62
712.68	-12.38
712.707	2.62
712.734	1.62
712.761	5.62
712.788	-1.38
712.815	3.62
712.842	19.62
712.87	-9.38
712.897	-12.38
712.924	-3.38
712.951	-0.38
712.978	2.62
713.005	-1.38
713.032	7.62
713.059	-3.38
713.086	-4.38
713.113	-9.38
713.14	-8.38
713.167	-0.38
713.194	16.62
713.221	-11.38
713.248	1.62
713.275	-2.38
713.302	-11.38
713.329	4.62
713.356	7.62
713.383	-3.38
713.41	23.62
713.437	-2.38
713.464	11.62
713.491	24.62
713.518	1.62
713.545	1.62
713.572	3.62
713.599	15.62
713.626	5.62
713.653	0.62
713.68	-17.38
713.707	-3.38
713.734	-0.38
713.761	-10.38
713.788	2.62
713.815	3.62
713.842	17.62
713.869	-0.38
713.896	5.62
713.923	-1.38
713.95	-2.38
713.977	-3.38
714.004	-23.38
714.031	-18.38
714.058	-7.38
714.085	-2.38
714.112	18.62
714.139	-2.38
714.165	-6.38
714.192	-4.38
714.219	2.62
714.246	5.62
714.273	-16.38
714.3	-1.38
714.327	-11.38
714.354	8.62
714.381	1.62
714.408	18.62
714.435	-7.38
714.461	8.62
714.488	14.62
714.515	-4.38
714.542	-11.38
714.569	-5.38
714.596	-7.38
714.623	-11.38
714.65	-2.38
714.677	-2.38
714.703	2.62
714.73	-2.38
714.757	18.62
714.784	20.62
714.811	2.62
714.838	-7.38
714.865	-11.38
714.891	14.62
714.918	8.62
714.945	-6.38
714.972	-9.38
714.999	3.62
715.026	2.62
715.052	0.62
715.079	0.62
715.106	6.62
715.133	18.62
715.16	-8.38
715.187	1.62
715.213	-2.38
715.24	-8.38
715.267	7.62
715.294	-0.38
715.321	-2.38
715.347	-6.38
715.374	-0.38
715.401	-8.38
715.428	-10.38
715.455	8.62
715.481	0.62
715.508	10.62
715.535	-1.38
715.562	11.62
715.588	-0.38
715.615	16.62
715.642	11.62
715.669	7.62
715.695	-4.38
715.722	-7.38
715.749	13.62
715.776	14.62
715.802	-5.38
715.829	4.62
715.856	-11.38
715.883	27.62
715.909	-3.38
715.936	-13.38
715.963	-13.38
715.99	-9.38
716.016	5.62
716.043	5.62
716.07	9.62
716.096	-18.38
716.123	-1.38
716.15	-2.38
716.177	3.62
716.203	-0.38
716.23	10.62
716.257	4.62
716.283	7.62
716.31	9.62
716.337	2.62
716.363	-5.38
716.39	-3.38
716.417	7.62
716.443	3.62
716.47	23.62
716.497	8.62
716.523	4.62
716.55	8.62
716.577	14.62
716.603	1.62
716.63	13.62
716.657	9.62
716.683	-4.38
716.71	-7.38
716.737	-1.38
716.763	0.62
716.79	6.62
716.817	9.62
716.843	1.62
716.87	-5.38
716.897	9.62
716.923	-0.38
716.95	-10.38
716.976	2.62
717.003	6.62
717.03	6.62
717.056	15.62
717.083	3.62
717.109	14.62
717.136	8.62
717.163	-1.38
717.189	2.62
717.216	3.62
717.242	-11.38
717.269	4.62
717.296	10.62
717.322	6.62
717.349	15.62
717.375	14.62
717.402	14.62
717.428	6.62
717.455	12.62
717.481	21.62
717.508	10.62
717.535	-2.38
717.561	5.62
717.588	-0.38
717.614	-5.38
717.641	2.62
717.667	7.62
717.694	11.62
717.72	-1.38
717.747	0.62
717.773	-16.38
717.8	14.62
717.826	-1.38
717.853	-12.38
717.88	16.62
717.906	8.62
717.933	13.62
717.959	-4.38
717.986	10.62
718.012	-10.38
718.039	9.62
718.065	12.62
718.092	16.62
718.118	-5.38
718.144	-9.38
718.171	20.62
718.197	27.62
718.224	11.62
718.25	0.62
718.277	5.62
718.303	0.62
718.33	14.62
718.356	-8.38
718.383	-10.38
718.409	6.62
718.436	-5.38
718.462	-8.38
718.489	-3.38
718.515	9.62
718.541	-5.38
718.568	14.62
718.594	-1.38
718.621	-2.38
718.647	2.62
718.674	3.62
718.7	-4.38
718.726	7.62
718.753	9.62
718.779	14.62
718.806	6.62
718.832	-0.38
718.858	8.62
718.885	-8.38
718.911	-2.38
718.938	18.62
718.964	1.62
718.99	5.62
719.017	2.62
719.043	-3.38
719.07	3.62
719.096	-1.38
719.122	4.62
719.149	-4.38
719.175	21.62
719.201	3.62
719.228	-11.38
719.254	0.62
719.281	-1.38
719.307	2.62
719.333	1.62
719.36	24.62
719.386	-3.38
719.412	5.62
719.439	-25.38
719.465	2.62
719.491	-7.38
719.518	11.62
719.544	17.62
719.57	-6.38
719.597	-0.38
719.623	-8.38
719.649	4.62
719.675	7.62
719.702	-7.38
719.728	7.62
719.754	-5.38
719.781	-11.38
719.807	-3.38
719.833	-8.38
719.86	6.62
719.886	-9.38
719.912	3.62
719.938	-4.38
719.965	-6.38
719.991	0.62
720.017	7.62
720.044	-22.38
720.07	2.62
720.096	5.62
720.122	-4.38
720.149	10.62
720.175	22.62
720.201	11.62
720.227	9.62
720.254	1.62
720.28	4.62
720.306	5.62
720.332	0.62
720.359	-1.38
720.385	1.62
720.411	2.62
720.437	7.62
720.463	3.62
720.49	-1.38
720.516	-16.38
720.542	-4.38
720.568	4.62
720.595	24.62
720.621	-5.38
720.647	-18.38
720.673	15.62
720.699	-6.38
720.725	4.62
720.752	8.62
720.778	-5.38
720.804	5.62
720.83	3.62
720.856	-4.38
720.883	-13.38
720.909	18.62
720.935	14.62
720.961	20.62
720.987	9.62
721.013	7.62
721.04	-4.38
721.066	-13.38
721.092	-7.38
721.118	13.62
721.144	11.62
721.17	0.62
721.196	6.62
721.223	-26.38
721.249	-13.38
721.275	21.62
721.301	2.62
721.327	11.62
721.353	-5.38
721.379	-9.38
721.405	13.62
721.432	23.62
721.458	2.62
721.484	14.62
721.51	-12.38
721.536	9.62
721.562	-2.38
721.588	-8.38
721.614	-2.38
721.64	14.62
721.666	2.62
721.693	5.62
721.719	10.62
721.745	-11.38
721.771	-12.38
721.797	-15.38
721.823	6.62
721.849	-0.38
721.875	14.62
721.901	15.62
721.927	-1.38
721.953	6.62
721.979	23.62
722.005	10.62
722.031	-2.38
722.057	11.62
722.083	0.62
722.109	8.62
722.135	15.62
722.161	13.62
722.187	0.62
722.214	6.62
722.24	2.62
722.266	-11.38
722.292	3.62
722.318	21.62
722.344	6.62
722.37	-2.38
722.396	-5.38
722.422	-2.38
722.448	7.62
722.474	-12.38
722.5	12.62
722.526	9.62
722.552	0.62
722.578	3.62
722.603	10.62
722.629	-7.38
722.655	-14.38
722.681	-4.38
722.707	-1.38
722.733	0.62
722.759	3.62
722.785	10.62
722.811	10.62
722.837	18.62
722.863	9.62
722.889	5.62
722.915	4.62
722.941	-16.38
722.967	-0.38
722.993	4.62
723.019	7.62
723.045	6.62
723.071	8.62
723.097	0.62
723.122	-1.38
723.148	-2.38
723.174	-1.38
723.2	19.62
723.226	0.62
723.252	-1.38
723.278	-6.38
723.304	-2.38
723.33	7.62
723.356	-10.38
723.381	-15.38
723.407	-18.38
723.433	-0.38
723.459	-7.38
723.485	-0.38
723.511	7.62
723.537	1.62
723.563	-2.38
723.588	0.62
723.614	12.62
723.64	7.62
723.666	-8.38
723.692	-6.38
723.718	13.62
723.744	15.62
723.769	-1.38
723.795	-1.38
723.821	-2.38
723.847	-6.38
723.873	2.62
723.899	11.62
723.924	9.62
723.95	9.62
723.976	-4.38
724.002	4.62
724.028	4.62
724.053	1.62
724.079	5.62
724.105	1.62
724.131	1.62
724.157	5.62
724.182	6.62
724.208	1.62
724.234	-3.38
724.26	15.62
724.286	16.62
724.311	-5.38
724.337	3.62
724.363	-2.38
724.389	13.62
724.415	3.62
724.44	7.62
724.466	4.62
724.492	-8.38
724.518	15.62
724.543	3.62
724.569	-1.38
724.595	16.62
724.621	8.62
724.646	-16.38
724.672	-17.38
724.698	-9.38
724.723	-14.38
724.749	-3.38
724.775	7.62
724.801	18.62
724.826	5.62
724.852	-8.38
724.878	-10.38
724.904	2.62
724.929	-7.38
724.955	-18.38
724.981	-4.38
725.006	6.62
725.032	2.62
725.058	7.62
725.083	3.62
725.109	-2.38
725.135	-8.38
725.161	-1.38
725.186	-23.38
725.212	3.62
725.238	-0.38
725.263	-0.38
725.289	-5.38
725.315	9.62
725.34	0.62
725.366	17.62
725.392	-1.38
725.417	-7.38
725.443	-5.38
725.468	14.62
725.494	7.62
725.52	-1.38
725.545	-18.38
725.571	-2.38
725.597	6.62
725.622	4.62
725.648	-1.38
725.674	-4.38
725.699	0.62
725.725	8.62
725.75	24.62
725.776	-12.38
725.802	-6.38
725.827	-3.38
725.853	-8.38
725.878	-0.38
725.904	2.62
725.93	-6.38
725.955	4.62
725.981	2.62
726.006	6.62
726.032	21.62
726.057	-12.38
726.083	-2.38
726.109	0.62
726.134	-5.38
726.16	-1.38
726.185	1.62
726.211	-13.38
726.236	1.62
726.262	5.62
726.288	6.62
726.313	16.62
726.339	7.62
726.364	6.62
726.39	22.62
726.415	-0.38
726.441	-5.38
726.466	-11.38
726.492	-12.38
726.517	4.62
726.543	-6.38
726.568	-10.38
726.594	-12.38
726.619	8.62
726.645	9.62
726.67	10.62
726.696	12.62
726.721	-9.38
726.747	-14.38
726.772	-12.38
726.798	-5.38
726.823	11.62
726.849	-7.38
726.874	-2.38
726.9	11.62
726.925	1.62
726.951	1.62
726.976	6.62
727.002	-1.38
727.027	14.62
727.053	15.62
727.078	8.62
727.104	-16.38
727.129	-13.38
727.155	1.62
727.18	5.62
727.205	16.62
727.231	6.62
727.256	-2.38
727.282	-13.38
727.307	7.62
727.333	-6.38
727.358	-8.38
727.383	-8.38
727.409	1.62
727.434	12.62
727.46	2.62
727.485	-6.38
727.511	-3.38
727.536	-13.38
727.561	-6.38
727.587	7.62
727.612	-2.38
727.637	-9.38
727.663	-10.38
727.688	18.62
727.714	1.62
727.739	-9.38
727.764	-7.38
727.79	-5.38
727.815	-2.38
727.841	9.62
727.866	3.62
727.891	26.62
727.917	0.62
727.942	-13.38
727.967	-17.38
727.993	-11.38
728.018	3.62
728.043	-9.38
728.069	10.62
728.094	6.62
728.119	5.62
728.145	-3.38
728.17	13.62
728.195	5.62
728.221	18.62
728.246	2.62
728.271	-14.38
728.297	3.62
728.322	10.62
728.347	-2.38
728.373	5.62
728.398	19.62
728.423	4.62
728.448	-4.38
728.474	-3.38
728.499	5.62
728.524	1.62
728.55	3.62
728.575	-4.38
728.6	16.62
728.625	4.62
728.651	11.62
728.676	0.62
728.701	6.62
728.727	-8.38
728.752	-5.38
728.777	-4.38
728.802	13.62
728.828	-6.38
728.853	-3.38
728.878	-0.38
728.903	-3.38
728.929	-0.38
728.954	4.62
728.979	11.62
729.004	-9.38
729.03	-9.38
729.055	21.62
729.08	-23.38
729.105	10.62
729.13	2.62
729.156	13.62
729.181	-5.38
729.206	-14.38
729.231	-15.38
729.256	-4.38
729.282	12.62
729.307	-7.38
729.332	8.62
729.357	-6.38
729.382	3.62
729.408	0.62
729.433	-0.38
729.458	9.62
729.483	21.62
729.508	17.62
729.533	4.62
729.559	14.62
729.584	-2.38
729.609	0.62
729.634	18.62
729.659	8.62
729.684	-16.38
729.71	12.62
729.735	-0.38
729.76	10.62
729.785	-13.38
729.81	15.62
729.835	2.62
729.86	-5.38
729.886	21.62
729.911	14.62
729.936	3.62
729.961	22.62
729.986	25.62
730.011	67.62
730.036	218.62
730.061	995.62
730.086	2698.62
730.112	3408.62
730.137	2813.62
730.162	2135.62
730.187	1652.62
730.212	1301.62
730.237	785.62
730.262	440.62
730.287	247.62
730.312	147.62
730.337	79.62
730.362	64.62
730.387	29.62
730.413	1.62
730.438	5.62
730.463	25.62
730.488	4.62
730.513	10.62
730.538	7.62
730.563	18.62
730.588	2.62
730.613	19.62
730.638	2.62
730.663	5.62
730.688	27.62
730.713	22.62
730.738	19.62
730.763	0.62
730.788	-2.38
730.813	3.62
730.838	-6.38
730.863	10.62
730.888	1.62
730.913	3.62
730.938	-6.38
730.963	16.62
730.988	123.62
731.013	422.62
731.038	598.62
731.063	611.62
731.088	461.62
731.113	369.62
731.138	262.62
731.163	189.62
731.188	110.62
731.213	66.62
731.238	51.62
731.263	7.62
731.288	12.62
731.313	10.62
731.338	10.62
731.363	9.62
731.388	-0.38
731.413	-5.38
731.438	19.62
731.463	23.62
731.487	8.62
731.512	-4.38
731.537	-22.38
731.562	-9.38
731.587	11.62
731.612	9.62
731.637	-7.38
731.662	1.62
731.687	-0.38
731.712	-10.38
731.737	18.62
731.762	9.62
731.786	3.62
731.811	13.62
731.836	23.62
731.861	12.62
731.886	13.62
731.911	10.62
731.936	35.62
731.961	9.62
731.986	-2.38
732.01	13.62
732.035	13.62
732.06	5.62
732.085	-8.38
732.11	-7.38
732.135	-1.38
732.16	-8.38
732.184	-2.38
732.209	-1.38
732.234	1.62
732.259	-0.38
732.284	12.62
732.309	-3.38
732.334	-17.38
732.358	-14.38
732.383	-18.38
732.408	-15.38
732.433	5.62
732.458	3.62
732.482	13.62
732.507	8.62
732.532	13.62
732.557	7.62
732.582	12.62
732.607	24.62
732.631	42.62
732.656	78.62
732.681	149.62
732.706	335.62
732.73	455.62
732.755	413.62
732.78	315.62
732.805	240.62
732.83	176.62
732.854	125.62
732.879	84.62
732.904	32.62
732.929	12.62
732.953	21.62
732.978	10.62
733.003	1.62
733.028	8.62
733.052	14.62
733.077	-2.38
733.102	17.62
733.127	-4.38
733.151	-0.38
733.176	0.62
733.201	0.62
733.226	-7.38
733.25	1.62
733.275	9.62
733.3	6.62
733.324	1.62
733.349	-8.38
733.374	28.62
733.399	-1.38
733.423	12.62
733.448	-2.38
733.473	-10.38
733.497	-0.38
733.522	-3.38
733.547	9.62
733.571	12.62
733.596	11.62
733.621	5.62
733.646	-8.38
733.67	0.62
733.695	-11.38
733.72	9.62
733.744	7.62
733.769	9.62
733.794	12.62
733.818	10.62
733.843	-1.38
733.867	-12.38
733.892	-8.38
733.917	0.62
733.941	13.62
733.966	-15.38
733.991	2.62
734.015	24.62
734.04	26.62
734.065	18.62
734.089	26.62
734.114	12.62
734.138	-3.38
734.163	0.62
734.188	-5.38
734.212	6.62
734.237	8.62
734.261	-10.38
734.286	-5.38
734.311	-1.38
734.335	-5.38
734.36	-5.38
734.384	17.62
734.409	-0.38
734.434	-23.38
734.458	0.62
734.483	5.62
734.507	-6.38
734.532	-8.38
734.556	-3.38
734.581	-8.38
734.606	-0.38
734.63	-9.38
734.655	3.62
734.679	17.62
734.704	1.62
734.728	-8.38
734.753	-7.38
734.777	-3.38
734.802	-1.38
734.826	3.62
734.851	7.62
734.876	9.62
734.9	14.62
734.925	17.62
734.949	6.62
734.974	10.62
734.998	18.62
735.023	-0.38
735.047	-5.38
735.072	12.62
735.096	3.62
735.121	2.62
735.145	3.62
735.17	-0.38
735.194	-3.38
735.219	1.62
735.243	-0.38
735.268	16.62
735.292	2.62
735.317	-3.38
735.341	5.62
735.365	-17.38
735.39	19.62
735.414	7.62
735.439	2.62
735.463	-1.38
735.488	17.62
735.512	-10.38
735.537	1.62
735.561	8.62
735.586	-0.38
735.61	5.62
735.634	-1.38
735.659	-2.38
735.683	18.62
735.708	14.62
735.732	5.62
735.757	3.62
735.781	20.62
735.805	9.62
735.83	-2.38
735.854	-9.38
735.879	-1.38
735.903	17.62
735.927	6.62
735.952	17.62
735.976	-1.38
736.001	-2.38
736.025	-13.38
736.049	-11.38
736.074	5.62
736.098	18.62
736.123	9.62
736.147	3.62
736.171	18.62
736.196	18.62
736.22	-2.38
736.244	9.62
736.269	6.62
736.293	6.62
736.317	-8.38
736.342	14.62
736.366	22.62
736.39	17.62
736.415	6.62
736.439	-1.38
736.463	3.62
736.488	16.62
736.512	17.62
736.536	7.62
736.561	10.62
736.585	-4.38
736.609	1.62
736.634	1.62
736.658	0.62
736.682	-0.38
736.707	-26.38
736.731	-6.38
736.755	-2.38
736.78	18.62
736.804	-6.38
736.828	6.62
736.852	-16.38
736.877	5.62
736.901	4.62
736.925	-2.38
736.949	10.62
736.974	-0.38
736.998	-5.38
737.022	6.62
737.047	-2.38
737.071	-6.38
737.095	16.62
737.119	14.62
737.144	4.62
737.168	1.62
737.192	-8.38
737.216	11.62
737.241	0.62
737.265	-2.38
737.289	-13.38
737.313	-10.38
737.337	3.62
737.362	14.62
737.386	-9.38
737.41	-5.38
737.434	5.62
737.459	3.62
737.483	14.62
737.507	12.62
737.531	17.62
737.555	7.62
737.58	5.62
737.604	-1.38
737.628	-18.38
737.652	-5.38
737.676	2.62
737.701	8.62
737.725	3.62
737.749	-0.38
737.773	-4.38
737.797	-8.38
737.821	-8.38
737.846	0.62
737.87	24.62
737.894	-0.38
737.918	-13.38
737.942	-12.38
737.966	15.62
737.99	18.62
738.015	8.62
738.039	-3.38
738.063	-8.38
738.087	16.62
738.111	-2.38
738.135	2.62
738.159	0.62
738.184	0.62
738.208	-8.38
738.232	5.62
738.256	17.62
738.28	13.62
738.304	20.62
738.328	-13.38
738.352	3.62
738.376	3.62
738.4	11.62
738.425	7.62
738.449	-1.38
738.473	17.62
738.497	13.62
738.521	-1.38
738.545	18.62
738.569	6.62
738.593	7.62
738.617	10.62
738.641	7.62
738.665	4.62
738.689	11.62
738.713	-1.38
738.737	14.62
738.762	13.62
738.786	19.62
738.81	-13.38
738.834	16.62
738.858	2.62
738.882	-6.38
738.906	-2.38
738.93	10.62
738.954	-3.38
738.978	10.62
739.002	1.62
739.026	14.62
739.05	21.62
739.074	-4.38
739.098	12.62
739.122	14.62
739.146	1.62
739.17	17.62
739.194	14.62
739.218	2.62
739.242	-5.38
739.266	-0.38
739.29	13.62
739.314	10.62
739.338	-0.38
739.362	9.62
739.386	14.62
739.41	-5.38
739.434	-11.38
739.458	9.62
739.482	21.62
739.506	12.62
739.53	-10.38
739.554	8.62
739.577	0.62
739.601	1.62
739.625	-15.38
739.649	-5.38
739.673	-10.38
739.697	-2.38
739.721	-10.38
739.745	17.62
739.769	20.62
739.793	9.62
739.817	17.62
739.841	5.62
739.865	1.62
739.889	-10.38
739.912	12.62
739.936	-7.38
739.96	10.62
739.984	16.62
740.008	-1.38
740.032	-6.38
740.056	-11.38
740.08	10.62
740.104	-0.38
740.127	8.62
740.151	22.62
740.175	9.62
740.199	14.62
740.223	41.62
740.247	16.62
740.271	2.62
740.295	-5.38
740.318	-12.38
740.342	-6.38
740.366	6.62
740.39	3.62
740.414	-9.38
740.438	-10.38
740.461	7.62
740.485	-6.38
740.509	-2.38
740.533	9.62
740.557	-13.38
740.581	11.62
740.604	-4.38
740.628	5.62
740.652	-16.38
740.676	-5.38
740.7	10.62
740.723	3.62
740.747	0.62
740.771	-8.38
740.795	-10.38
740.819	10.62
740.842	0.62
740.866	18.62
740.89	-2.38
740.914	16.62
740.938	2.62
740.961	10.62
740.985	6.62
741.009	3.62
741.033	10.62
741.056	6.62
741.08	18.62
741.104	-1.38
741.128	5.62
741.151	10.62
741.175	-6.38
741.199	3.62
741.223	9.62
741.246	-1.38
741.27	0.62
741.294	5.62
741.318	4.62
741.341	-5.38
741.365	24.62
741.389	5.62
741.413	5.62
741.436	24.62
741.46	9.62
741.484	6.62
741.507	-1.38
741.531	35.62
741.555	1.62
741.579	1.62
741.602	16.62
741.626	5.62
741.65	-1.38
741.673	4.62
741.697	4.62
741.721	14.62
741.744	-22.38
741.768	-5.38
741.792	3.62
741.815	-9.38
741.839	26.62
741.863	17.62
741.886	21.62
741.91	4.62
741.934	7.62
741.957	-20.38
741.981	3.62
742.005	2.62
742.028	-2.38
742.052	-5.38
742.075	8.62
742.099	-6.38
742.123	-17.38
742.146	-1.38
742.17	-2.38
742.194	-10.38
742.217	-8.38
742.241	-2.38
742.264	-3.38
742.288	21.62
742.312	3.62
742.335	-0.38
742.359	1.62
742.382	9.62
742.406	20.62
742.43	-6.38
742.453	-3.38
742.477	-21.38
742.5	0.62
742.524	2.62
742.548	-13.38
742.571	-8.38
742.595	-5.38
742.618	2.62
742.642	3.62
742.665	16.62
742.689	-24.38
742.712	11.62
742.736	1.62
742.76	1.62
742.783	-6.38
742.807	15.62
742.83	11.62
742.854	-7.38
742.877	-13.38
742.901	-0.38
742.924	7.62
742.948	-3.38
742.971	-1.38
742.995	-11.38
743.018	-23.38
743.042	-10.38
743.065	-2.38
743.089	-7.38
743.112	-2.38
743.136	-0.38
743.159	-3.38
743.183	-9.38
743.206	6.62
743.23	-13.38
743.253	-2.38
743.277	6.62
743.3	-2.38
743.324	1.62
743.347	-14.38
743.371	8.62
743.394	18.62
743.418	15.62
743.441	4.62
743.465	-11.38
743.488	3.62
743.512	-10.38
743.535	-15.38
743.558	5.62
743.582	-9.38
743.605	8.62
743.629	20.62
743.652	10.62
743.676	1.62
743.699	10.62
743.723	3.62
743.746	9.62
743.769	1.62
743.793	22.62
743.816	8.62
743.84	14.62
743.863	5.62
743.886	2.62
743.91	22.62
743.933	7.62
743.957	-2.38
743.98	-1.38
744.003	-2.38
744.027	12.62
744.05	4.62
744.074	1.62
744.097	-0.38
744.12	-4.38
744.144	-16.38
744.167	4.62
744.19	11.62
744.214	-0.38
744.237	-11.38
744.26	-1.38
744.284	-3.38
744.307	-17.38
744.331	16.62
744.354	2.62
744.377	-5.38
744.401	-5.38
744.424	-3.38
744.447	-14.38
744.471	-14.38
