Data from HighRes_mercury_15_13_11_07_2024_HR4C61891__53__15-14-28-486.txt Node

Date: Thu Nov 07 15:14:28 EST 2024
User: crc00042
Spectrometer: HR4C6189
Trigger mode: 4
Integration Time (sec): 1.000000E-1
Scans to average: 1
Electric dark correction enabled: true
Nonlinearity correction enabled: false
Boxcar width: 0
XAxis mode: Wavelengths
Number of Pixels in Spectrum: 3648
>>>>>Begin Spectral Data<<<<<
639.567	-51.08
639.602	-51.08
639.636	-51.08
639.67	-47.08
639.704	-30.08
639.738	-0.08
639.773	16.92
639.807	-21.08
639.841	6.92
639.875	4.92
639.909	0.92
639.943	-9.08
639.978	-8.08
640.012	-1.08
640.046	25.92
640.08	1.92
640.114	-2.08
640.148	-16.08
640.182	-17.08
640.217	5.92
640.251	17.92
640.285	0.92
640.319	-0.08
640.353	-6.08
640.387	-1.08
640.421	2.92
640.455	7.92
640.49	6.92
640.524	7.92
640.558	1.92
640.592	-9.08
640.626	0.92
640.66	5.92
640.694	-2.08
640.728	-2.08
640.762	18.92
640.796	3.92
640.83	15.92
640.865	-10.08
640.899	2.92
640.933	11.92
640.967	-8.08
641.001	11.92
641.035	10.92
641.069	0.92
641.103	1.92
641.137	5.92
641.171	2.92
641.205	17.92
641.239	2.92
641.273	10.92
641.307	10.92
641.341	-4.08
641.375	7.92
641.409	-3.08
641.443	8.92
641.477	11.92
641.511	-1.08
641.545	3.92
641.579	4.92
641.614	12.92
641.648	-9.08
641.682	-2.08
641.716	11.92
641.75	6.92
641.784	2.92
641.818	-14.08
641.852	3.92
641.886	-2.08
641.919	34.92
641.953	7.92
641.987	-11.08
642.021	-1.08
642.055	17.92
642.089	9.92
642.123	-3.08
642.157	-14.08
642.191	-18.08
642.225	4.92
642.259	-3.08
642.293	7.92
642.327	13.92
642.361	-5.08
642.395	10.92
642.429	7.92
642.463	16.92
642.497	23.92
642.531	10.92
642.565	-9.08
642.599	6.92
642.633	-13.08
642.666	3.92
642.7	6.92
642.734	17.92
642.768	5.92
642.802	-0.08
642.836	12.92
642.87	1.92
642.904	-10.08
642.938	20.92
642.972	-19.08
643.005	1.92
643.039	7.92
643.073	-3.08
643.107	1.92
643.141	-3.08
643.175	-4.08
643.209	5.92
643.243	3.92
643.276	4.92
643.31	-6.08
643.344	-6.08
643.378	7.92
643.412	13.92
643.446	1.92
643.48	-8.08
643.513	7.92
643.547	5.92
643.581	-7.08
643.615	6.92
643.649	-5.08
643.683	-0.08
643.716	-0.08
643.75	16.92
643.784	-10.08
643.818	-14.08
643.852	1.92
643.886	0.92
643.919	5.92
643.953	-0.08
643.987	9.92
644.021	-4.08
644.055	-9.08
644.088	-7.08
644.122	1.92
644.156	-7.08
644.19	4.92
644.224	6.92
644.257	16.92
644.291	28.92
644.325	13.92
644.359	-0.08
644.392	21.92
644.426	23.92
644.46	-2.08
644.494	8.92
644.527	-6.08
644.561	-4.08
644.595	6.92
644.629	-6.08
644.662	2.92
644.696	12.92
644.73	14.92
644.764	18.92
644.797	2.92
644.831	-2.08
644.865	11.92
644.899	-2.08
644.932	8.92
644.966	-11.08
645	2.92
645.033	15.92
645.067	-11.08
645.101	8.92
645.135	7.92
645.168	-1.08
645.202	-2.08
645.236	13.92
645.269	8.92
645.303	0.92
645.337	-4.08
645.37	4.92
645.404	-13.08
645.438	6.92
645.471	25.92
645.505	6.92
645.539	-14.08
645.572	-7.08
645.606	8.92
645.64	8.92
645.673	3.92
645.707	19.92
645.741	6.92
645.774	-4.08
645.808	15.92
645.842	-5.08
645.875	11.92
645.909	-10.08
645.943	-6.08
645.976	12.92
646.01	4.92
646.043	-0.08
646.077	22.92
646.111	6.92
646.144	2.92
646.178	0.92
646.212	-4.08
646.245	-5.08
646.279	3.92
646.312	13.92
646.346	21.92
646.38	-1.08
646.413	1.92
646.447	12.92
646.48	8.92
646.514	10.92
646.547	-5.08
646.581	-1.08
646.615	-13.08
646.648	-9.08
646.682	6.92
646.715	5.92
646.749	3.92
646.782	5.92
646.816	-1.08
646.85	14.92
646.883	-10.08
646.917	-4.08
646.95	-11.08
646.984	5.92
647.017	-8.08
647.051	9.92
647.084	0.92
647.118	-8.08
647.151	6.92
647.185	11.92
647.218	-3.08
647.252	9.92
647.285	-24.08
647.319	-15.08
647.353	11.92
647.386	19.92
647.42	10.92
647.453	0.92
647.487	1.92
647.52	-6.08
647.553	-2.08
647.587	1.92
647.62	0.92
647.654	1.92
647.687	2.92
647.721	3.92
647.754	14.92
647.788	-7.08
647.821	-7.08
647.855	0.92
647.888	2.92
647.922	15.92
647.955	4.92
647.989	1.92
648.022	1.92
648.055	3.92
648.089	-6.08
648.122	16.92
648.156	-9.08
648.189	-6.08
648.223	10.92
648.256	18.92
648.29	-4.08
648.323	3.92
648.356	-1.08
648.39	4.92
648.423	-0.08
648.457	3.92
648.49	15.92
648.523	-4.08
648.557	-18.08
648.59	-8.08
648.624	11.92
648.657	8.92
648.69	0.92
648.724	21.92
648.757	30.92
648.791	17.92
648.824	7.92
648.857	26.92
648.891	-3.08
648.924	-2.08
648.957	13.92
648.991	-23.08
649.024	17.92
649.057	4.92
649.091	-8.08
649.124	12.92
649.158	12.92
649.191	22.92
649.224	3.92
649.258	15.92
649.291	17.92
649.324	4.92
649.358	-6.08
649.391	7.92
649.424	6.92
649.458	4.92
649.491	-13.08
649.524	-13.08
649.557	-3.08
649.591	-19.08
649.624	4.92
649.657	-10.08
649.691	-0.08
649.724	9.92
649.757	3.92
649.791	-5.08
649.824	13.92
649.857	9.92
649.89	1.92
649.924	10.92
649.957	11.92
649.99	-16.08
650.023	-1.08
650.057	-1.08
650.09	-5.08
650.123	-0.08
650.157	12.92
650.19	19.92
650.223	0.92
650.256	-6.08
650.29	-3.08
650.323	4.92
650.356	-5.08
650.389	11.92
650.423	-8.08
650.456	-14.08
650.489	-2.08
650.522	7.92
650.555	16.92
650.589	37.92
650.622	1.92
650.655	1.92
650.688	1.92
650.721	-0.08
650.755	5.92
650.788	15.92
650.821	-1.08
650.854	4.92
650.887	2.92
650.921	-17.08
650.954	1.92
650.987	-11.08
651.02	-13.08
651.053	-7.08
651.087	-27.08
651.12	4.92
651.153	7.92
651.186	-22.08
651.219	-10.08
651.252	7.92
651.286	10.92
651.319	-6.08
651.352	1.92
651.385	0.92
651.418	-2.08
651.451	-0.08
651.484	-6.08
651.518	-12.08
651.551	14.92
651.584	1.92
651.617	10.92
651.65	-2.08
651.683	12.92
651.716	-12.08
651.749	-4.08
651.783	4.92
651.816	3.92
651.849	2.92
651.882	-5.08
651.915	-3.08
651.948	-4.08
651.981	-1.08
652.014	-5.08
652.047	-30.08
652.08	-4.08
652.114	0.92
652.147	-7.08
652.18	4.92
652.213	23.92
652.246	9.92
652.279	-14.08
652.312	-8.08
652.345	-4.08
652.378	0.92
652.411	11.92
652.444	11.92
652.477	5.92
652.51	2.92
652.543	-6.08
652.576	8.92
652.609	-5.08
652.642	-17.08
652.675	15.92
652.709	-4.08
652.742	2.92
652.775	-11.08
652.808	2.92
652.841	12.92
652.874	-0.08
652.907	-12.08
652.94	-16.08
652.973	-14.08
653.006	-10.08
653.039	-2.08
653.072	-1.08
653.105	-13.08
653.138	-9.08
653.171	-4.08
653.204	1.92
653.237	-2.08
653.27	-5.08
653.303	-0.08
653.336	4.92
653.368	0.92
653.401	-1.08
653.434	-11.08
653.467	-3.08
653.5	-10.08
653.533	-6.08
653.566	-8.08
653.599	-4.08
653.632	-27.08
653.665	-3.08
653.698	-12.08
653.731	-13.08
653.764	1.92
653.797	0.92
653.83	24.92
653.863	-3.08
653.896	-5.08
653.929	-3.08
653.961	2.92
653.994	-1.08
654.027	-7.08
654.06	-2.08
654.093	-2.08
654.126	5.92
654.159	-18.08
654.192	4.92
654.225	-1.08
654.258	-6.08
654.29	2.92
654.323	4.92
654.356	9.92
654.389	-4.08
654.422	12.92
654.455	0.92
654.488	0.92
654.521	-26.08
654.553	-3.08
654.586	6.92
654.619	-5.08
654.652	-5.08
654.685	12.92
654.718	-0.08
654.751	17.92
654.783	-5.08
654.816	15.92
654.849	-0.08
654.882	-14.08
654.915	-10.08
654.948	2.92
654.98	-13.08
655.013	2.92
655.046	4.92
655.079	-15.08
655.112	-12.08
655.144	-7.08
655.177	6.92
655.21	19.92
655.243	11.92
655.276	1.92
655.308	-4.08
655.341	-5.08
655.374	8.92
655.407	1.92
655.44	-1.08
655.472	-3.08
655.505	-2.08
655.538	1.92
655.571	11.92
655.603	6.92
655.636	6.92
655.669	13.92
655.702	7.92
655.734	-15.08
655.767	7.92
655.8	-6.08
655.833	-3.08
655.865	0.92
655.898	-9.08
655.931	-12.08
655.964	8.92
655.996	10.92
656.029	11.92
656.062	5.92
656.095	-1.08
656.127	-10.08
656.16	-6.08
656.193	9.92
656.225	-9.08
656.258	-7.08
656.291	-1.08
656.324	8.92
656.356	16.92
656.389	-1.08
656.422	4.92
656.454	-6.08
656.487	-4.08
656.52	13.92
656.552	-9.08
656.585	1.92
656.618	5.92
656.65	4.92
656.683	1.92
656.716	-6.08
656.748	12.92
656.781	-12.08
656.814	-8.08
656.846	-6.08
656.879	-19.08
656.912	-4.08
656.944	-19.08
656.977	-16.08
657.01	-1.08
657.042	1.92
657.075	26.92
657.108	2.92
657.14	-3.08
657.173	7.92
657.205	23.92
657.238	6.92
657.271	3.92
657.303	-7.08
657.336	9.92
657.369	-12.08
657.401	1.92
657.434	-2.08
657.466	11.92
657.499	-2.08
657.532	-7.08
657.564	4.92
657.597	-5.08
657.629	-5.08
657.662	11.92
657.694	19.92
657.727	-11.08
657.76	13.92
657.792	-11.08
657.825	-4.08
657.857	-2.08
657.89	-9.08
657.922	8.92
657.955	-8.08
657.987	-2.08
658.02	12.92
658.053	9.92
658.085	0.92
658.118	5.92
658.15	0.92
658.183	17.92
658.215	-4.08
658.248	-1.08
658.28	-23.08
658.313	5.92
658.345	6.92
658.378	-3.08
658.41	-7.08
658.443	4.92
658.475	0.92
658.508	-2.08
658.54	-2.08
658.573	-15.08
658.605	-8.08
658.638	3.92
658.67	-4.08
658.703	13.92
658.735	-9.08
658.768	8.92
658.8	-7.08
658.833	11.92
658.865	-3.08
658.898	-9.08
658.93	-10.08
658.963	-13.08
658.995	3.92
659.028	7.92
659.06	-9.08
659.092	-9.08
659.125	3.92
659.157	-0.08
659.19	-4.08
659.222	-3.08
659.255	4.92
659.287	4.92
659.32	2.92
659.352	3.92
659.384	1.92
659.417	-2.08
659.449	-2.08
659.482	7.92
659.514	-14.08
659.546	0.92
659.579	-28.08
659.611	0.92
659.644	-0.08
659.676	-5.08
659.708	-1.08
659.741	-8.08
659.773	4.92
659.806	-2.08
659.838	9.92
659.87	-10.08
659.903	-9.08
659.935	4.92
659.967	14.92
660	6.92
660.032	-11.08
660.065	20.92
660.097	3.92
660.129	-7.08
660.162	-9.08
660.194	4.92
660.226	8.92
660.259	1.92
660.291	-4.08
660.323	-13.08
660.356	-11.08
660.388	-2.08
660.42	8.92
660.453	1.92
660.485	6.92
660.517	13.92
660.55	21.92
660.582	-12.08
660.614	4.92
660.647	-2.08
660.679	-16.08
660.711	0.92
660.743	-9.08
660.776	-1.08
660.808	0.92
660.84	-7.08
660.873	-2.08
660.905	-8.08
660.937	5.92
660.969	15.92
661.002	3.92
661.034	9.92
661.066	-3.08
661.099	12.92
661.131	12.92
661.163	7.92
661.195	10.92
661.228	6.92
661.26	-17.08
661.292	-16.08
661.324	12.92
661.357	23.92
661.389	14.92
661.421	-0.08
661.453	-4.08
661.485	8.92
661.518	2.92
661.55	0.92
661.582	-29.08
661.614	-14.08
661.647	15.92
661.679	-5.08
661.711	1.92
661.743	1.92
661.775	7.92
661.808	16.92
661.84	-16.08
661.872	0.92
661.904	2.92
661.936	-3.08
661.969	-4.08
662.001	-10.08
662.033	4.92
662.065	-10.08
662.097	1.92
662.129	-1.08
662.162	-5.08
662.194	-5.08
662.226	-7.08
662.258	-1.08
662.29	-5.08
662.322	-17.08
662.355	-10.08
662.387	14.92
662.419	11.92
662.451	20.92
662.483	8.92
662.515	17.92
662.547	3.92
662.58	20.92
662.612	6.92
662.644	-15.08
662.676	-1.08
662.708	3.92
662.74	-11.08
662.772	0.92
662.804	15.92
662.836	27.92
662.869	19.92
662.901	-0.08
662.933	-7.08
662.965	21.92
662.997	1.92
663.029	1.92
663.061	-1.08
663.093	1.92
663.125	17.92
663.157	8.92
663.189	5.92
663.221	26.92
663.254	16.92
663.286	5.92
663.318	-4.08
663.35	-7.08
663.382	-8.08
663.414	1.92
663.446	9.92
663.478	-8.08
663.51	16.92
663.542	-1.08
663.574	4.92
663.606	11.92
663.638	-12.08
663.67	-6.08
663.702	7.92
663.734	-4.08
663.766	18.92
663.798	-10.08
663.83	13.92
663.862	2.92
663.894	-9.08
663.926	-13.08
663.958	-2.08
663.99	3.92
664.022	7.92
664.054	2.92
664.086	-8.08
664.118	-5.08
664.15	1.92
664.182	-0.08
664.214	7.92
664.246	30.92
664.278	-0.08
664.31	14.92
664.342	0.92
664.374	12.92
664.406	-10.08
664.438	-4.08
664.47	15.92
664.502	-6.08
664.534	10.92
664.566	-6.08
664.598	-9.08
664.63	-3.08
664.662	4.92
664.693	-14.08
664.725	-18.08
664.757	-8.08
664.789	-14.08
664.821	-6.08
664.853	9.92
664.885	-5.08
664.917	5.92
664.949	19.92
664.981	19.92
665.013	-1.08
665.045	-8.08
665.076	-10.08
665.108	2.92
665.14	3.92
665.172	8.92
665.204	0.92
665.236	-3.08
665.268	-1.08
665.3	-1.08
665.331	-9.08
665.363	-2.08
665.395	-0.08
665.427	-6.08
665.459	2.92
665.491	1.92
665.523	1.92
665.555	5.92
665.586	7.92
665.618	-17.08
665.65	-16.08
665.682	9.92
665.714	4.92
665.746	-1.08
665.777	-0.08
665.809	0.92
665.841	2.92
665.873	-5.08
665.905	15.92
665.937	17.92
665.968	17.92
666	6.92
666.032	-2.08
666.064	-0.08
666.096	-2.08
666.127	10.92
666.159	6.92
666.191	4.92
666.223	4.92
666.255	11.92
666.286	9.92
666.318	5.92
666.35	6.92
666.382	11.92
666.413	-24.08
666.445	-13.08
666.477	-8.08
666.509	1.92
666.54	-3.08
666.572	-32.08
666.604	-1.08
666.636	10.92
666.667	13.92
666.699	16.92
666.731	8.92
666.763	-13.08
666.794	-14.08
666.826	10.92
666.858	-22.08
666.89	22.92
666.921	2.92
666.953	-0.08
666.985	8.92
667.017	4.92
667.048	-6.08
667.08	-4.08
667.112	-3.08
667.143	-24.08
667.175	-5.08
667.207	-13.08
667.238	4.92
667.27	14.92
667.302	-2.08
667.334	2.92
667.365	13.92
667.397	-2.08
667.429	-3.08
667.46	-0.08
667.492	13.92
667.524	-11.08
667.555	-11.08
667.587	7.92
667.619	1.92
667.65	-5.08
667.682	2.92
667.714	11.92
667.745	8.92
667.777	0.92
667.808	9.92
667.84	2.92
667.872	1.92
667.903	5.92
667.935	-2.08
667.967	-10.08
667.998	8.92
668.03	2.92
668.061	17.92
668.093	-9.08
668.125	1.92
668.156	27.92
668.188	0.92
668.22	-8.08
668.251	15.92
668.283	9.92
668.314	22.92
668.346	11.92
668.377	25.92
668.409	-4.08
668.441	31.92
668.472	13.92
668.504	5.92
668.535	2.92
668.567	16.92
668.599	6.92
668.63	2.92
668.662	1.92
668.693	12.92
668.725	2.92
668.756	3.92
668.788	-5.08
668.819	1.92
668.851	-0.08
668.882	-3.08
668.914	-2.08
668.946	1.92
668.977	6.92
669.009	7.92
669.04	-13.08
669.072	12.92
669.103	-4.08
669.135	-8.08
669.166	-0.08
669.198	14.92
669.229	5.92
669.261	-10.08
669.292	-9.08
669.324	-2.08
669.355	10.92
669.387	-19.08
669.418	9.92
669.45	-8.08
669.481	0.92
669.513	3.92
669.544	-5.08
669.576	-4.08
669.607	1.92
669.639	4.92
669.67	-1.08
669.701	2.92
669.733	-14.08
669.764	-9.08
669.796	-3.08
669.827	-11.08
669.859	9.92
669.89	24.92
669.922	18.92
669.953	16.92
669.985	-4.08
670.016	-11.08
670.047	13.92
670.079	8.92
670.11	4.92
670.142	7.92
670.173	-3.08
670.204	-1.08
670.236	18.92
670.267	6.92
670.299	21.92
670.33	0.92
670.362	-3.08
670.393	-9.08
670.424	-6.08
670.456	-9.08
670.487	-9.08
670.518	5.92
670.55	2.92
670.581	-3.08
670.613	0.92
670.644	-1.08
670.675	-5.08
670.707	-7.08
670.738	-6.08
670.769	7.92
670.801	3.92
670.832	8.92
670.864	-8.08
670.895	2.92
670.926	-6.08
670.958	-14.08
670.989	3.92
671.02	-5.08
671.052	-0.08
671.083	1.92
671.114	-10.08
671.146	2.92
671.177	3.92
671.208	-16.08
671.24	-11.08
671.271	0.92
671.302	6.92
671.333	1.92
671.365	-0.08
671.396	-8.08
671.427	5.92
671.459	11.92
671.49	13.92
671.521	8.92
671.553	-5.08
671.584	3.92
671.615	-0.08
671.646	5.92
671.678	9.92
671.709	-5.08
671.74	-15.08
671.771	2.92
671.803	-15.08
671.834	-2.08
671.865	-6.08
671.896	8.92
671.928	-10.08
671.959	-12.08
671.99	-4.08
672.021	-4.08
672.053	-8.08
672.084	17.92
672.115	15.92
672.146	2.92
672.178	-10.08
672.209	-22.08
672.24	-6.08
672.271	19.92
672.303	4.92
672.334	-2.08
672.365	-8.08
672.396	-10.08
672.427	11.92
672.459	21.92
672.49	22.92
672.521	0.92
672.552	1.92
672.583	6.92
672.615	4.92
672.646	9.92
672.677	-19.08
672.708	-9.08
672.739	-10.08
672.77	6.92
672.802	3.92
672.833	4.92
672.864	5.92
672.895	2.92
672.926	0.92
672.957	-6.08
672.989	6.92
673.02	-6.08
673.051	2.92
673.082	-0.08
673.113	4.92
673.144	15.92
673.175	-5.08
673.206	-11.08
673.238	-0.08
673.269	8.92
673.3	-10.08
673.331	4.92
673.362	6.92
673.393	16.92
673.424	2.92
673.455	22.92
673.487	-1.08
673.518	7.92
673.549	1.92
673.58	-7.08
673.611	3.92
673.642	0.92
673.673	-9.08
673.704	-5.08
673.735	-9.08
673.766	2.92
673.797	-4.08
673.828	-4.08
673.86	-4.08
673.891	-12.08
673.922	-18.08
673.953	-6.08
673.984	9.92
674.015	8.92
674.046	5.92
674.077	3.92
674.108	-11.08
674.139	-9.08
674.17	-0.08
674.201	-10.08
674.232	-7.08
674.263	5.92
674.294	7.92
674.325	-6.08
674.356	5.92
674.387	1.92
674.418	0.92
674.449	-1.08
674.48	2.92
674.511	-3.08
674.542	-0.08
674.573	-0.08
674.604	4.92
674.635	-2.08
674.666	-2.08
674.697	4.92
674.728	2.92
674.759	-10.08
674.79	-18.08
674.821	-32.08
674.852	-2.08
674.883	-0.08
674.914	-7.08
674.945	0.92
674.976	12.92
675.007	-11.08
675.038	-7.08
675.069	-17.08
675.1	-11.08
675.131	0.92
675.162	-2.08
675.193	0.92
675.224	-6.08
675.254	4.92
675.285	11.92
675.316	28.92
675.347	1.92
675.378	-7.08
675.409	-12.08
675.44	0.92
675.471	-6.08
675.502	-5.08
675.533	8.92
675.564	-2.08
675.595	4.92
675.625	14.92
675.656	9.92
675.687	2.92
675.718	6.92
675.749	18.92
675.78	-3.08
675.811	-8.08
675.842	-14.08
675.873	-10.08
675.903	-3.08
675.934	-5.08
675.965	2.92
675.996	0.92
676.027	-0.08
676.058	2.92
676.089	-6.08
676.119	-15.08
676.15	-14.08
676.181	2.92
676.212	-4.08
676.243	18.92
676.274	-6.08
676.304	15.92
676.335	-20.08
676.366	1.92
676.397	3.92
676.428	12.92
676.459	20.92
676.489	18.92
676.52	12.92
676.551	-7.08
676.582	-23.08
676.613	8.92
676.643	0.92
676.674	10.92
676.705	2.92
676.736	4.92
676.767	1.92
676.797	7.92
676.828	1.92
676.859	-17.08
676.89	2.92
676.92	-5.08
676.951	5.92
676.982	7.92
677.013	6.92
677.044	17.92
677.074	31.92
677.105	-18.08
677.136	-0.08
677.167	1.92
677.197	2.92
677.228	-6.08
677.259	-13.08
677.289	-14.08
677.32	-36.08
677.351	-12.08
677.382	8.92
677.412	11.92
677.443	2.92
677.474	7.92
677.505	-23.08
677.535	-15.08
677.566	-21.08
677.597	-15.08
677.627	-5.08
677.658	-2.08
677.689	3.92
677.72	-6.08
677.75	-9.08
677.781	6.92
677.812	9.92
677.842	6.92
677.873	-4.08
677.904	-5.08
677.934	-6.08
677.965	-2.08
677.996	-6.08
678.026	-5.08
678.057	10.92
678.088	-9.08
678.118	7.92
678.149	-3.08
678.18	-4.08
678.21	-3.08
678.241	0.92
678.272	-0.08
678.302	-9.08
678.333	7.92
678.363	14.92
678.394	-8.08
678.425	-3.08
678.455	15.92
678.486	0.92
678.517	-4.08
678.547	-4.08
678.578	1.92
678.608	-8.08
678.639	20.92
678.67	7.92
678.7	-3.08
678.731	7.92
678.761	2.92
678.792	8.92
678.823	14.92
678.853	-3.08
678.884	-8.08
678.914	-1.08
678.945	6.92
678.975	-11.08
679.006	0.92
679.037	-15.08
679.067	20.92
679.098	1.92
679.128	-8.08
679.159	-5.08
679.189	-5.08
679.22	-19.08
679.25	4.92
679.281	-3.08
679.312	-13.08
679.342	11.92
679.373	21.92
679.403	6.92
679.434	21.92
679.464	-9.08
679.495	2.92
679.525	9.92
679.556	6.92
679.586	3.92
679.617	-2.08
679.647	-1.08
679.678	0.92
679.708	-8.08
679.739	1.92
679.769	4.92
679.8	-14.08
679.83	-4.08
679.861	4.92
679.891	3.92
679.922	-22.08
679.952	2.92
679.983	3.92
680.013	2.92
680.044	1.92
680.074	14.92
680.105	6.92
680.135	6.92
680.165	20.92
680.196	15.92
680.226	-0.08
680.257	-9.08
680.287	-10.08
680.318	-7.08
680.348	2.92
680.379	21.92
680.409	-1.08
680.439	-3.08
680.47	3.92
680.5	6.92
680.531	4.92
680.561	5.92
680.592	1.92
680.622	18.92
680.652	1.92
680.683	22.92
680.713	2.92
680.744	-7.08
680.774	-3.08
680.804	7.92
680.835	10.92
680.865	-0.08
680.896	17.92
680.926	9.92
680.956	25.92
680.987	-12.08
681.017	-8.08
681.047	6.92
681.078	10.92
681.108	5.92
681.139	5.92
681.169	16.92
681.199	-12.08
681.23	4.92
681.26	-15.08
681.29	0.92
681.321	-9.08
681.351	-5.08
681.381	-20.08
681.412	4.92
681.442	1.92
681.472	15.92
681.503	-4.08
681.533	-7.08
681.563	-8.08
681.594	13.92
681.624	-2.08
681.654	-6.08
681.685	-0.08
681.715	7.92
681.745	-6.08
681.775	-15.08
681.806	-10.08
681.836	-7.08
681.866	-3.08
681.897	1.92
681.927	-2.08
681.957	-8.08
681.987	11.92
682.018	9.92
682.048	22.92
682.078	5.92
682.109	21.92
682.139	12.92
682.169	-6.08
682.199	-7.08
682.23	-7.08
682.26	2.92
682.29	-6.08
682.32	-0.08
682.351	4.92
682.381	-6.08
682.411	9.92
682.441	-6.08
682.472	-2.08
682.502	0.92
682.532	0.92
682.562	0.92
682.592	-0.08
682.623	15.92
682.653	10.92
682.683	-16.08
682.713	1.92
682.743	-12.08
682.774	-20.08
682.804	-2.08
682.834	20.92
682.864	-14.08
682.894	-9.08
682.925	9.92
682.955	12.92
682.985	-10.08
683.015	-7.08
683.045	5.92
683.076	-10.08
683.106	-2.08
683.136	9.92
683.166	-9.08
683.196	-13.08
683.226	-0.08
683.257	13.92
683.287	0.92
683.317	-4.08
683.347	-1.08
683.377	2.92
683.407	2.92
683.437	4.92
683.468	12.92
683.498	-1.08
683.528	2.92
683.558	3.92
683.588	3.92
683.618	-0.08
683.648	-7.08
683.678	9.92
683.708	11.92
683.739	0.92
683.769	1.92
683.799	5.92
683.829	-1.08
683.859	12.92
683.889	21.92
683.919	-6.08
683.949	0.92
683.979	1.92
684.009	8.92
684.039	5.92
684.07	-14.08
684.1	5.92
684.13	-0.08
684.16	-1.08
684.19	4.92
684.22	15.92
684.25	-2.08
684.28	-7.08
684.31	16.92
684.34	4.92
684.37	-8.08
684.4	-2.08
684.43	-2.08
684.46	14.92
684.49	7.92
684.52	11.92
684.55	13.92
684.58	4.92
684.61	8.92
684.64	23.92
684.67	10.92
684.7	-1.08
684.73	16.92
684.76	5.92
684.79	21.92
684.82	-6.08
684.85	-6.08
684.88	4.92
684.91	-8.08
684.94	4.92
684.97	-17.08
685	-9.08
685.03	-10.08
685.06	-17.08
685.09	-6.08
685.12	12.92
685.15	3.92
685.18	3.92
685.21	2.92
685.24	24.92
685.27	16.92
685.3	-0.08
685.33	11.92
685.36	5.92
685.39	6.92
685.42	-8.08
685.45	-10.08
685.48	-4.08
685.51	1.92
685.54	0.92
685.569	-4.08
685.599	0.92
685.629	5.92
685.659	0.92
685.689	-6.08
685.719	-1.08
685.749	-8.08
685.779	11.92
685.809	19.92
685.839	2.92
685.869	-12.08
685.898	15.92
685.928	9.92
685.958	12.92
685.988	17.92
686.018	10.92
686.048	-6.08
686.078	15.92
686.108	18.92
686.137	-7.08
686.167	18.92
686.197	-1.08
686.227	-3.08
686.257	9.92
686.287	11.92
686.317	3.92
686.346	-1.08
686.376	-7.08
686.406	-17.08
686.436	13.92
686.466	-4.08
686.496	7.92
686.525	-0.08
686.555	-7.08
686.585	11.92
686.615	27.92
686.645	14.92
686.675	12.92
686.704	4.92
686.734	19.92
686.764	7.92
686.794	1.92
686.824	10.92
686.853	9.92
686.883	14.92
686.913	1.92
686.943	-6.08
686.973	5.92
687.002	6.92
687.032	4.92
687.062	-7.08
687.092	5.92
687.121	-2.08
687.151	3.92
687.181	-3.08
687.211	17.92
687.24	9.92
687.27	4.92
687.3	-12.08
687.33	-2.08
687.359	1.92
687.389	-5.08
687.419	3.92
687.449	12.92
687.478	15.92
687.508	-2.08
687.538	0.92
687.568	-1.08
687.597	-22.08
687.627	-3.08
687.657	10.92
687.686	17.92
687.716	15.92
687.746	-1.08
687.776	-9.08
687.805	12.92
687.835	-0.08
687.865	23.92
687.894	8.92
687.924	5.92
687.954	-0.08
687.983	2.92
688.013	12.92
688.043	5.92
688.072	23.92
688.102	7.92
688.132	0.92
688.161	-0.08
688.191	20.92
688.221	27.92
688.25	3.92
688.28	10.92
688.31	-0.08
688.339	17.92
688.369	-6.08
688.399	4.92
688.428	2.92
688.458	6.92
688.488	-1.08
688.517	-10.08
688.547	-19.08
688.576	15.92
688.606	14.92
688.636	-2.08
688.665	7.92
688.695	-1.08
688.725	-2.08
688.754	26.92
688.784	-1.08
688.813	6.92
688.843	4.92
688.873	-1.08
688.902	-6.08
688.932	-10.08
688.961	-2.08
688.991	2.92
689.02	18.92
689.05	-1.08
689.08	10.92
689.109	-3.08
689.139	-9.08
689.168	9.92
689.198	15.92
689.227	7.92
689.257	1.92
689.287	18.92
689.316	3.92
689.346	-5.08
689.375	-15.08
689.405	11.92
689.434	-5.08
689.464	-0.08
689.493	1.92
689.523	-7.08
689.552	-6.08
689.582	-3.08
689.611	-1.08
689.641	18.92
689.67	4.92
689.7	10.92
689.73	1.92
689.759	6.92
689.789	12.92
689.818	-0.08
689.848	13.92
689.877	8.92
689.906	6.92
689.936	-5.08
689.965	-2.08
689.995	15.92
690.024	4.92
690.054	11.92
690.083	7.92
690.113	2.92
690.142	-3.08
690.172	6.92
690.201	7.92
690.231	-23.08
690.26	8.92
690.29	-4.08
690.319	11.92
690.348	17.92
690.378	17.92
690.407	0.92
690.437	-7.08
690.466	-1.08
690.496	-0.08
690.525	6.92
690.555	0.92
690.584	5.92
690.613	4.92
690.643	14.92
690.672	13.92
690.702	8.92
690.731	17.92
690.76	30.92
690.79	58.92
690.819	51.92
690.849	50.92
690.878	33.92
690.907	33.92
690.937	26.92
690.966	5.92
690.996	-2.08
691.025	2.92
691.054	6.92
691.084	-2.08
691.113	2.92
691.142	8.92
691.172	21.92
691.201	9.92
691.23	1.92
691.26	7.92
691.289	20.92
691.319	5.92
691.348	5.92
691.377	13.92
691.407	15.92
691.436	4.92
691.465	-3.08
691.495	16.92
691.524	-7.08
691.553	-4.08
691.583	-6.08
691.612	32.92
691.641	0.92
691.67	1.92
691.7	20.92
691.729	-3.08
691.758	25.92
691.788	9.92
691.817	6.92
691.846	-3.08
691.876	9.92
691.905	2.92
691.934	7.92
691.963	6.92
691.993	-1.08
692.022	-16.08
692.051	-9.08
692.081	11.92
692.11	16.92
692.139	14.92
692.168	6.92
692.198	19.92
692.227	11.92
692.256	7.92
692.285	20.92
692.315	-7.08
692.344	12.92
692.373	4.92
692.402	-3.08
692.432	-7.08
692.461	10.92
692.49	0.92
692.519	8.92
692.548	13.92
692.578	-3.08
692.607	-14.08
692.636	0.92
692.665	2.92
692.694	1.92
692.724	9.92
692.753	3.92
692.782	4.92
692.811	3.92
692.84	-5.08
692.87	15.92
692.899	5.92
692.928	-0.08
692.957	-2.08
692.986	11.92
693.016	3.92
693.045	13.92
693.074	12.92
693.103	-11.08
693.132	13.92
693.161	5.92
693.191	12.92
693.22	0.92
693.249	13.92
693.278	-9.08
693.307	8.92
693.336	-2.08
693.365	0.92
693.395	6.92
693.424	6.92
693.453	31.92
693.482	0.92
693.511	6.92
693.54	8.92
693.569	5.92
693.598	4.92
693.628	16.92
693.657	10.92
693.686	14.92
693.715	4.92
693.744	14.92
693.773	15.92
693.802	2.92
693.831	-8.08
693.86	10.92
693.889	-10.08
693.919	8.92
693.948	1.92
693.977	14.92
694.006	-14.08
694.035	-2.08
694.064	-2.08
694.093	6.92
694.122	-6.08
694.151	-1.08
694.18	4.92
694.209	28.92
694.238	-4.08
694.267	15.92
694.296	9.92
694.325	19.92
694.354	13.92
694.383	11.92
694.412	-3.08
694.441	-1.08
694.471	6.92
694.5	-7.08
694.529	-0.08
694.558	12.92
694.587	22.92
694.616	10.92
694.645	21.92
694.674	12.92
694.703	16.92
694.732	7.92
694.761	38.92
694.79	16.92
694.819	-6.08
694.848	-10.08
694.877	32.92
694.906	37.92
694.935	-13.08
694.963	15.92
694.992	-1.08
695.021	5.92
695.05	10.92
695.079	5.92
695.108	4.92
695.137	7.92
695.166	9.92
695.195	1.92
695.224	3.92
695.253	0.92
695.282	3.92
695.311	2.92
695.34	1.92
695.369	6.92
695.398	15.92
695.427	41.92
695.456	11.92
695.485	2.92
695.513	25.92
695.542	16.92
695.571	-2.08
695.6	13.92
695.629	9.92
695.658	1.92
695.687	-8.08
695.716	-2.08
695.745	31.92
695.774	2.92
695.802	2.92
695.831	11.92
695.86	0.92
695.889	19.92
695.918	15.92
695.947	4.92
695.976	10.92
696.005	7.92
696.033	-4.08
696.062	16.92
696.091	11.92
696.12	-4.08
696.149	8.92
696.178	12.92
696.207	15.92
696.235	1.92
696.264	14.92
696.293	-9.08
696.322	6.92
696.351	16.92
696.38	-9.08
696.408	7.92
696.437	-3.08
696.466	3.92
696.495	4.92
696.524	29.92
696.553	12.92
696.581	14.92
696.61	10.92
696.639	0.92
696.668	8.92
696.697	5.92
696.725	10.92
696.754	13.92
696.783	11.92
696.812	0.92
696.84	15.92
696.869	12.92
696.898	14.92
696.927	10.92
696.956	28.92
696.984	-6.08
697.013	-3.08
697.042	1.92
697.071	10.92
697.099	18.92
697.128	9.92
697.157	1.92
697.186	3.92
697.214	15.92
697.243	0.92
697.272	-2.08
697.301	6.92
697.329	1.92
697.358	7.92
697.387	29.92
697.415	11.92
697.444	-2.08
697.473	4.92
697.502	14.92
697.53	2.92
697.559	-8.08
697.588	23.92
697.616	-0.08
697.645	9.92
697.674	18.92
697.703	4.92
697.731	21.92
697.76	20.92
697.789	17.92
697.817	3.92
697.846	21.92
697.875	-0.08
697.903	23.92
697.932	19.92
697.961	-6.08
697.989	5.92
698.018	15.92
698.047	11.92
698.075	21.92
698.104	-2.08
698.133	-9.08
698.161	-0.08
698.19	9.92
698.218	-1.08
698.247	1.92
698.276	7.92
698.304	10.92
698.333	2.92
698.362	11.92
698.39	-3.08
698.419	5.92
698.447	1.92
698.476	7.92
698.505	15.92
698.533	8.92
698.562	9.92
698.591	-2.08
698.619	-5.08
698.648	8.92
698.676	1.92
698.705	6.92
698.733	6.92
698.762	-2.08
698.791	3.92
698.819	1.92
698.848	3.92
698.876	19.92
698.905	-0.08
698.933	8.92
698.962	4.92
698.991	1.92
699.019	23.92
699.048	1.92
699.076	-4.08
699.105	-9.08
699.133	-6.08
699.162	8.92
699.19	16.92
699.219	11.92
699.248	14.92
699.276	1.92
699.305	-8.08
699.333	1.92
699.362	-8.08
699.39	6.92
699.419	-1.08
699.447	-2.08
699.476	12.92
699.504	-1.08
699.533	12.92
699.561	-11.08
699.59	8.92
699.618	1.92
699.647	17.92
699.675	5.92
699.704	-4.08
699.732	-1.08
699.761	3.92
699.789	-5.08
699.818	9.92
699.846	-6.08
699.874	-1.08
699.903	6.92
699.931	-0.08
699.96	18.92
699.988	2.92
700.017	-2.08
700.045	2.92
700.074	-15.08
700.102	-3.08
700.13	9.92
700.159	18.92
700.187	1.92
700.216	2.92
700.244	-17.08
700.273	-1.08
700.301	9.92
700.329	19.92
700.358	8.92
700.386	-9.08
700.415	-6.08
700.443	-2.08
700.472	-0.08
700.5	7.92
700.528	14.92
700.557	10.92
700.585	6.92
700.614	7.92
700.642	21.92
700.67	16.92
700.699	6.92
700.727	0.92
700.755	-3.08
700.784	-0.08
700.812	1.92
700.841	-1.08
700.869	2.92
700.897	-22.08
700.926	-7.08
700.954	9.92
700.982	13.92
701.011	-3.08
701.039	1.92
701.067	10.92
701.096	29.92
701.124	-7.08
701.152	-1.08
701.181	0.92
701.209	-14.08
701.237	-5.08
701.266	-10.08
701.294	-15.08
701.322	5.92
701.351	16.92
701.379	7.92
701.407	5.92
701.435	2.92
701.464	21.92
701.492	4.92
701.52	-6.08
701.549	-7.08
701.577	0.92
701.605	-7.08
701.634	-1.08
701.662	5.92
701.69	-6.08
701.718	-5.08
701.747	7.92
701.775	-9.08
701.803	-2.08
701.831	15.92
701.86	0.92
701.888	10.92
701.916	5.92
701.944	11.92
701.973	-6.08
702.001	-16.08
702.029	-12.08
702.057	-8.08
702.086	1.92
702.114	-8.08
702.142	4.92
702.17	3.92
702.199	-0.08
702.227	-13.08
702.255	4.92
702.283	6.92
702.311	5.92
702.34	5.92
702.368	-3.08
702.396	4.92
702.424	4.92
702.452	17.92
702.481	13.92
702.509	1.92
702.537	14.92
702.565	-1.08
702.593	-11.08
702.621	-8.08
702.65	16.92
702.678	-5.08
702.706	1.92
702.734	-11.08
702.762	13.92
702.79	7.92
702.819	0.92
702.847	9.92
702.875	23.92
702.903	8.92
702.931	3.92
702.959	2.92
702.988	15.92
703.016	-3.08
703.044	-4.08
703.072	9.92
703.1	-12.08
703.128	6.92
703.156	-6.08
703.184	3.92
703.212	5.92
703.241	-1.08
703.269	9.92
703.297	-1.08
703.325	4.92
703.353	-8.08
703.381	-10.08
703.409	13.92
703.437	-2.08
703.465	-5.08
703.493	-4.08
703.522	3.92
703.55	6.92
703.578	-15.08
703.606	-17.08
703.634	-15.08
703.662	-0.08
703.69	7.92
703.718	-12.08
703.746	9.92
703.774	2.92
703.802	1.92
703.83	0.92
703.858	1.92
703.886	-2.08
703.914	-2.08
703.942	8.92
703.97	-6.08
703.998	-2.08
704.027	7.92
704.055	-2.08
704.083	2.92
704.111	-10.08
704.139	1.92
704.167	1.92
704.195	0.92
704.223	-9.08
704.251	3.92
704.279	0.92
704.307	2.92
704.335	-11.08
704.363	-15.08
704.391	-13.08
704.419	-3.08
704.447	1.92
704.475	-5.08
704.503	-7.08
704.531	5.92
704.558	12.92
704.586	19.92
704.614	1.92
704.642	-10.08
704.67	-7.08
704.698	-14.08
704.726	-0.08
704.754	15.92
704.782	-13.08
704.81	1.92
704.838	24.92
704.866	6.92
704.894	-25.08
704.922	-3.08
704.95	9.92
704.978	11.92
705.006	1.92
705.034	30.92
705.061	2.92
705.089	10.92
705.117	-18.08
705.145	-3.08
705.173	-13.08
705.201	0.92
705.229	21.92
705.257	1.92
705.285	-1.08
705.313	25.92
705.34	-5.08
705.368	4.92
705.396	7.92
705.424	1.92
705.452	-9.08
705.48	8.92
705.508	-0.08
705.536	-6.08
705.563	-8.08
705.591	9.92
705.619	9.92
705.647	-6.08
705.675	5.92
705.703	13.92
705.731	-0.08
705.758	-2.08
705.786	3.92
705.814	16.92
705.842	-3.08
705.87	10.92
705.898	5.92
705.925	4.92
705.953	1.92
705.981	-9.08
706.009	-4.08
706.037	-0.08
706.065	-3.08
706.092	-2.08
706.12	-7.08
706.148	-5.08
706.176	2.92
706.204	2.92
706.231	-3.08
706.259	-36.08
706.287	-13.08
706.315	4.92
706.342	2.92
706.37	-3.08
706.398	0.92
706.426	5.92
706.454	-8.08
706.481	6.92
706.509	-12.08
706.537	-7.08
706.565	-1.08
706.592	23.92
706.62	4.92
706.648	13.92
706.676	-2.08
706.703	8.92
706.731	12.92
706.759	-12.08
706.787	0.92
706.814	5.92
706.842	-13.08
706.87	-8.08
706.897	-3.08
706.925	-15.08
706.953	0.92
706.981	5.92
707.008	-7.08
707.036	-17.08
707.064	2.92
707.091	-14.08
707.119	2.92
707.147	-0.08
707.174	-9.08
707.202	17.92
707.23	-12.08
707.258	13.92
707.285	-3.08
707.313	-0.08
707.341	-2.08
707.368	2.92
707.396	6.92
707.424	22.92
707.451	1.92
707.479	8.92
707.507	1.92
707.534	-5.08
707.562	2.92
707.59	-12.08
707.617	1.92
707.645	0.92
707.672	-2.08
707.7	2.92
707.728	5.92
707.755	1.92
707.783	-8.08
707.811	-2.08
707.838	-12.08
707.866	-3.08
707.893	1.92
707.921	-1.08
707.949	-6.08
707.976	6.92
708.004	12.92
708.031	-5.08
708.059	-17.08
708.087	2.92
708.114	-9.08
708.142	-1.08
708.169	-5.08
708.197	-18.08
708.225	15.92
708.252	2.92
708.28	16.92
708.307	3.92
708.335	1.92
708.362	-5.08
708.39	-7.08
708.418	3.92
708.445	-7.08
708.473	-3.08
708.5	11.92
708.528	15.92
708.555	1.92
708.583	-6.08
708.61	2.92
708.638	1.92
708.665	-2.08
708.693	2.92
708.72	-6.08
708.748	-6.08
708.776	-8.08
708.803	4.92
708.831	12.92
708.858	12.92
708.886	13.92
708.913	12.92
708.941	-1.08
708.968	6.92
708.996	2.92
709.023	9.92
709.051	-4.08
709.078	-0.08
709.105	11.92
709.133	-2.08
709.16	-3.08
709.188	4.92
709.215	5.92
709.243	3.92
709.27	1.92
709.298	-9.08
709.325	-7.08
709.353	3.92
709.38	8.92
709.408	4.92
709.435	8.92
709.462	12.92
709.49	12.92
709.517	5.92
709.545	-7.08
709.572	-4.08
709.6	5.92
709.627	18.92
709.655	-3.08
709.682	-4.08
709.709	4.92
709.737	14.92
709.764	1.92
709.792	15.92
709.819	0.92
709.846	-0.08
709.874	2.92
709.901	18.92
709.929	20.92
709.956	8.92
709.983	-11.08
710.011	-8.08
710.038	-10.08
710.066	-5.08
710.093	10.92
710.12	-10.08
710.148	-11.08
710.175	-9.08
710.202	-8.08
710.23	-2.08
710.257	10.92
710.284	9.92
710.312	17.92
710.339	14.92
710.366	12.92
710.394	3.92
710.421	3.92
710.448	0.92
710.476	-7.08
710.503	3.92
710.53	10.92
710.558	6.92
710.585	0.92
710.612	-8.08
710.64	-0.08
710.667	5.92
710.694	-6.08
710.722	7.92
710.749	-3.08
710.776	-3.08
710.804	29.92
710.831	13.92
710.858	7.92
710.885	-23.08
710.913	-13.08
710.94	13.92
710.967	-1.08
710.995	4.92
711.022	2.92
711.049	-9.08
711.076	-17.08
711.104	-18.08
711.131	-23.08
711.158	-1.08
711.185	10.92
711.213	-14.08
711.24	-0.08
711.267	-1.08
711.294	-9.08
711.322	-7.08
711.349	-11.08
711.376	1.92
711.403	20.92
711.431	-4.08
711.458	9.92
711.485	5.92
711.512	5.92
711.54	3.92
711.567	-8.08
711.594	-16.08
711.621	0.92
711.648	1.92
711.676	-3.08
711.703	-3.08
711.73	-5.08
711.757	11.92
711.784	-6.08
711.812	0.92
711.839	-10.08
711.866	-14.08
711.893	-5.08
711.92	2.92
711.947	6.92
711.975	0.92
712.002	1.92
712.029	1.92
712.056	-1.08
712.083	15.92
712.11	-10.08
712.138	-1.08
712.165	-5.08
712.192	9.92
712.219	-4.08
712.246	1.92
712.273	-8.08
712.3	-4.08
712.328	2.92
712.355	4.92
712.382	1.92
712.409	19.92
712.436	6.92
712.463	8.92
712.49	14.92
712.517	-4.08
712.544	-5.08
712.572	6.92
712.599	-11.08
712.626	-14.08
712.653	7.92
712.68	-0.08
712.707	8.92
712.734	5.92
712.761	3.92
712.788	7.92
712.815	-0.08
712.842	-6.08
712.87	9.92
712.897	0.92
712.924	-24.08
712.951	-6.08
712.978	11.92
713.005	4.92
713.032	13.92
713.059	0.92
713.086	-10.08
713.113	-18.08
713.14	-11.08
713.167	15.92
713.194	15.92
713.221	0.92
713.248	15.92
713.275	6.92
713.302	-5.08
713.329	2.92
713.356	5.92
713.383	2.92
713.41	13.92
713.437	-13.08
713.464	-6.08
713.491	-1.08
713.518	8.92
713.545	0.92
713.572	1.92
713.599	17.92
713.626	-13.08
713.653	9.92
713.68	-11.08
713.707	4.92
713.734	-0.08
713.761	-5.08
713.788	1.92
713.815	-3.08
713.842	-2.08
713.869	-7.08
713.896	0.92
713.923	0.92
713.95	-11.08
713.977	-11.08
714.004	3.92
714.031	-13.08
714.058	-5.08
714.085	-12.08
714.112	5.92
714.139	4.92
714.165	-4.08
714.192	-5.08
714.219	-9.08
714.246	-1.08
714.273	2.92
714.3	-5.08
714.327	2.92
714.354	8.92
714.381	-6.08
714.408	5.92
714.435	-8.08
714.461	0.92
714.488	0.92
714.515	1.92
714.542	-7.08
714.569	-14.08
714.596	-19.08
714.623	-9.08
714.65	-16.08
714.677	-6.08
714.703	-7.08
714.73	10.92
714.757	6.92
714.784	5.92
714.811	-4.08
714.838	1.92
714.865	-6.08
714.891	-2.08
714.918	2.92
714.945	1.92
714.972	8.92
714.999	24.92
715.026	1.92
715.052	22.92
715.079	13.92
715.106	4.92
715.133	6.92
715.16	-17.08
715.187	8.92
715.213	3.92
715.24	-6.08
715.267	10.92
715.294	7.92
715.321	7.92
715.347	9.92
715.374	5.92
715.401	7.92
715.428	3.92
715.455	4.92
715.481	0.92
715.508	9.92
715.535	-1.08
715.562	16.92
715.588	-0.08
715.615	1.92
715.642	10.92
715.669	-0.08
715.695	-6.08
715.722	10.92
715.749	14.92
715.776	2.92
715.802	17.92
715.829	10.92
715.856	-14.08
715.883	8.92
715.909	-8.08
715.936	10.92
715.963	5.92
715.99	-14.08
716.016	0.92
716.043	10.92
716.07	-2.08
716.096	-9.08
716.123	9.92
716.15	8.92
716.177	4.92
716.203	11.92
716.23	16.92
716.257	9.92
716.283	7.92
716.31	9.92
716.337	-3.08
716.363	-4.08
716.39	-3.08
716.417	10.92
716.443	-2.08
716.47	25.92
716.497	25.92
716.523	7.92
716.55	1.92
716.577	4.92
716.603	-6.08
716.63	6.92
716.657	25.92
716.683	-2.08
716.71	-13.08
716.737	-5.08
716.763	9.92
716.79	6.92
716.817	14.92
716.843	9.92
716.87	5.92
716.897	6.92
716.923	12.92
716.95	11.92
716.976	1.92
717.003	-9.08
717.03	-2.08
717.056	11.92
717.083	1.92
717.109	10.92
717.136	4.92
717.163	6.92
717.189	7.92
717.216	11.92
717.242	-3.08
717.269	-8.08
717.296	5.92
717.322	13.92
717.349	7.92
717.375	-4.08
717.402	-20.08
717.428	-11.08
717.455	8.92
717.481	-0.08
717.508	0.92
717.535	-6.08
717.561	0.92
717.588	-1.08
717.614	-3.08
717.641	-5.08
717.667	2.92
717.694	10.92
717.72	6.92
717.747	20.92
717.773	-4.08
717.8	17.92
717.826	2.92
717.853	-1.08
717.88	22.92
717.906	21.92
717.933	12.92
717.959	11.92
717.986	6.92
718.012	-6.08
718.039	14.92
718.065	20.92
718.092	-7.08
718.118	-1.08
718.144	-3.08
718.171	4.92
718.197	9.92
718.224	-13.08
718.25	-6.08
718.277	8.92
718.303	6.92
718.33	13.92
718.356	4.92
718.383	-22.08
718.409	-8.08
718.436	1.92
718.462	-2.08
718.489	5.92
718.515	16.92
718.541	21.92
718.568	8.92
718.594	-3.08
718.621	-6.08
718.647	2.92
718.674	9.92
718.7	8.92
718.726	-2.08
718.753	2.92
718.779	10.92
718.806	13.92
718.832	8.92
718.858	14.92
718.885	-5.08
718.911	9.92
718.938	10.92
718.964	-8.08
718.99	8.92
719.017	-3.08
719.043	3.92
719.07	13.92
719.096	-0.08
719.122	14.92
719.149	-5.08
719.175	5.92
719.201	-11.08
719.228	-0.08
719.254	-2.08
719.281	6.92
719.307	-11.08
719.333	-2.08
719.36	16.92
719.386	5.92
719.412	12.92
719.439	-10.08
719.465	16.92
719.491	-0.08
719.518	-3.08
719.544	4.92
719.57	8.92
719.597	-0.08
719.623	-14.08
719.649	8.92
719.675	-8.08
719.702	13.92
719.728	8.92
719.754	-13.08
719.781	-14.08
719.807	-7.08
719.833	1.92
719.86	-1.08
719.886	0.92
719.912	-2.08
719.938	1.92
719.965	3.92
719.991	14.92
720.017	4.92
720.044	-4.08
720.07	5.92
720.096	3.92
720.122	6.92
720.149	7.92
720.175	13.92
720.201	6.92
720.227	4.92
720.254	-6.08
720.28	-0.08
720.306	-15.08
720.332	6.92
720.359	10.92
720.385	13.92
720.411	0.92
720.437	12.92
720.463	16.92
720.49	23.92
720.516	0.92
720.542	-9.08
720.568	-6.08
720.595	17.92
720.621	2.92
720.647	7.92
720.673	12.92
720.699	-6.08
720.725	3.92
720.752	21.92
720.778	7.92
720.804	11.92
720.83	14.92
720.856	3.92
720.883	-7.08
720.909	-5.08
720.935	12.92
720.961	15.92
720.987	8.92
721.013	8.92
721.04	0.92
721.066	-0.08
721.092	-14.08
721.118	10.92
721.144	2.92
721.17	-8.08
721.196	-6.08
721.223	-19.08
721.249	2.92
721.275	13.92
721.301	0.92
721.327	10.92
721.353	-1.08
721.379	7.92
721.405	8.92
721.432	1.92
721.458	-10.08
721.484	17.92
721.51	-9.08
721.536	10.92
721.562	-3.08
721.588	3.92
721.614	-7.08
721.64	-13.08
721.666	0.92
721.693	-3.08
721.719	-8.08
721.745	-7.08
721.771	-1.08
721.797	17.92
721.823	14.92
721.849	17.92
721.875	15.92
721.901	11.92
721.927	-0.08
721.953	3.92
721.979	12.92
722.005	13.92
722.031	-6.08
722.057	1.92
722.083	6.92
722.109	12.92
722.135	12.92
722.161	2.92
722.187	9.92
722.214	3.92
722.24	-2.08
722.266	-1.08
722.292	-0.08
722.318	28.92
722.344	1.92
722.37	10.92
722.396	24.92
722.422	10.92
722.448	6.92
722.474	-3.08
722.5	16.92
722.526	-4.08
722.552	9.92
722.578	4.92
722.603	11.92
722.629	0.92
722.655	7.92
722.681	-7.08
722.707	12.92
722.733	5.92
722.759	-3.08
722.785	0.92
722.811	1.92
722.837	-7.08
722.863	9.92
722.889	11.92
722.915	-8.08
722.941	0.92
722.967	10.92
722.993	0.92
723.019	-18.08
723.045	-3.08
723.071	-9.08
723.097	1.92
723.122	-2.08
723.148	-14.08
723.174	-8.08
723.2	-0.08
723.226	8.92
723.252	8.92
723.278	0.92
723.304	2.92
723.33	-1.08
723.356	-22.08
723.381	-14.08
723.407	-15.08
723.433	10.92
723.459	-1.08
723.485	1.92
723.511	4.92
723.537	-4.08
723.563	6.92
723.588	-0.08
723.614	10.92
723.64	-13.08
723.666	8.92
723.692	4.92
723.718	-1.08
723.744	-9.08
723.769	-9.08
723.795	-7.08
723.821	5.92
723.847	-7.08
723.873	3.92
723.899	-4.08
723.924	-2.08
723.95	4.92
723.976	-9.08
724.002	13.92
724.028	8.92
724.053	-3.08
724.079	-8.08
724.105	-9.08
724.131	0.92
724.157	8.92
724.182	-6.08
724.208	-10.08
724.234	4.92
724.26	-9.08
724.286	24.92
724.311	7.92
724.337	0.92
724.363	0.92
724.389	8.92
724.415	-4.08
724.44	33.92
724.466	4.92
724.492	-3.08
724.518	14.92
724.543	10.92
724.569	13.92
724.595	0.92
724.621	-12.08
724.646	-2.08
724.672	-0.08
724.698	1.92
724.723	-3.08
724.749	-2.08
724.775	1.92
724.801	2.92
724.826	-2.08
724.852	-0.08
724.878	-11.08
724.904	-13.08
724.929	8.92
724.955	-6.08
724.981	-12.08
725.006	-3.08
725.032	0.92
725.058	2.92
725.083	-8.08
725.109	-7.08
725.135	13.92
725.161	7.92
725.186	0.92
725.212	0.92
725.238	6.92
725.263	-6.08
725.289	-16.08
725.315	-16.08
725.34	-11.08
725.366	-6.08
725.392	-5.08
725.417	-7.08
725.443	-1.08
725.468	3.92
725.494	6.92
725.52	16.92
725.545	-13.08
725.571	1.92
725.597	-2.08
725.622	8.92
725.648	-11.08
725.674	2.92
725.699	-1.08
725.725	1.92
725.75	26.92
725.776	-3.08
725.802	-3.08
725.827	8.92
725.853	-12.08
725.878	11.92
725.904	-7.08
725.93	13.92
725.955	2.92
725.981	-8.08
726.006	-10.08
726.032	16.92
726.057	-11.08
726.083	-0.08
726.109	1.92
726.134	2.92
726.16	-1.08
726.185	-2.08
726.211	-17.08
726.236	5.92
726.262	-6.08
726.288	-7.08
726.313	2.92
726.339	10.92
726.364	-8.08
726.39	2.92
726.415	-7.08
726.441	4.92
726.466	2.92
726.492	-15.08
726.517	11.92
726.543	-11.08
726.568	-21.08
726.594	-2.08
726.619	14.92
726.645	10.92
726.67	11.92
726.696	14.92
726.721	-10.08
726.747	-19.08
726.772	6.92
726.798	-2.08
726.823	-13.08
726.849	-6.08
726.874	6.92
726.9	30.92
726.925	5.92
726.951	-0.08
726.976	0.92
727.002	-7.08
727.027	14.92
727.053	6.92
727.078	-11.08
727.104	-3.08
727.129	-13.08
727.155	-7.08
727.18	5.92
727.205	13.92
727.231	2.92
727.256	13.92
727.282	0.92
727.307	4.92
727.333	1.92
727.358	5.92
727.383	-6.08
727.409	-5.08
727.434	5.92
727.46	-1.08
727.485	-1.08
727.511	10.92
727.536	0.92
727.561	1.92
727.587	5.92
727.612	2.92
727.637	10.92
727.663	-1.08
727.688	12.92
727.714	-6.08
727.739	-3.08
727.764	-7.08
727.79	14.92
727.815	9.92
727.841	12.92
727.866	-0.08
727.891	12.92
727.917	-12.08
727.942	-2.08
727.967	-12.08
727.993	-10.08
728.018	-1.08
728.043	-5.08
728.069	3.92
728.094	10.92
728.119	-0.08
728.145	11.92
728.17	8.92
728.195	-3.08
728.221	4.92
728.246	-7.08
728.271	-12.08
728.297	9.92
728.322	16.92
728.347	-5.08
728.373	-4.08
728.398	1.92
728.423	-8.08
728.448	-4.08
728.474	3.92
728.499	16.92
728.524	5.92
728.55	3.92
728.575	-0.08
728.6	0.92
728.625	-3.08
728.651	17.92
728.676	5.92
728.701	-5.08
728.727	12.92
728.752	-5.08
728.777	-12.08
728.802	18.92
728.828	8.92
728.853	-13.08
728.878	-17.08
728.903	-14.08
728.929	3.92
728.954	-10.08
728.979	6.92
729.004	14.92
729.03	4.92
729.055	7.92
729.08	-24.08
729.105	-5.08
729.13	3.92
729.156	8.92
729.181	-11.08
729.206	-25.08
729.231	-6.08
729.256	7.92
729.282	-6.08
729.307	-8.08
729.332	2.92
729.357	-10.08
729.382	-6.08
729.408	7.92
729.433	1.92
729.458	10.92
729.483	16.92
729.508	16.92
729.533	16.92
729.559	-1.08
729.584	-3.08
729.609	3.92
729.634	11.92
729.659	4.92
729.684	-0.08
729.71	14.92
729.735	-7.08
729.76	-3.08
729.785	0.92
729.81	21.92
729.835	-3.08
729.86	-3.08
729.886	10.92
729.911	10.92
729.936	0.92
729.961	33.92
729.986	20.92
730.011	61.92
730.036	189.92
730.061	970.92
730.086	2593.92
730.112	3289.92
730.137	2733.92
730.162	2064.92
730.187	1601.92
730.212	1222.92
730.237	782.92
730.262	448.92
730.287	249.92
730.312	145.92
730.337	73.92
730.362	83.92
730.387	40.92
730.413	5.92
730.438	16.92
730.463	11.92
730.488	14.92
730.513	18.92
730.538	2.92
730.563	23.92
730.588	21.92
730.613	7.92
730.638	-3.08
730.663	2.92
730.688	26.92
730.713	14.92
730.738	9.92
730.763	4.92
730.788	-10.08
730.813	-2.08
730.838	9.92
730.863	-1.08
730.888	0.92
730.913	-0.08
730.938	6.92
730.963	23.92
730.988	112.92
731.013	401.92
731.038	590.92
731.063	564.92
731.088	434.92
731.113	341.92
731.138	270.92
731.163	177.92
731.188	103.92
731.213	55.92
731.238	42.92
731.263	17.92
731.288	7.92
731.313	13.92
731.338	7.92
731.363	2.92
731.388	-0.08
731.413	-3.08
731.438	17.92
731.463	9.92
731.487	6.92
731.512	-14.08
731.537	-14.08
731.562	10.92
731.587	7.92
731.612	-16.08
731.637	-3.08
731.662	5.92
731.687	5.92
731.712	0.92
731.737	10.92
731.762	3.92
731.786	3.92
731.811	23.92
731.836	10.92
731.861	-2.08
731.886	-9.08
731.911	18.92
731.936	0.92
731.961	10.92
731.986	-3.08
732.01	6.92
732.035	12.92
732.06	28.92
732.085	7.92
732.11	2.92
732.135	-11.08
732.16	5.92
732.184	6.92
732.209	4.92
732.234	1.92
732.259	-7.08
732.284	17.92
732.309	-0.08
732.334	-16.08
732.358	-18.08
732.383	0.92
732.408	10.92
732.433	4.92
732.458	-0.08
732.482	13.92
732.507	-0.08
732.532	4.92
732.557	16.92
732.582	19.92
732.607	16.92
732.631	65.92
732.656	73.92
732.681	139.92
732.706	315.92
732.73	457.92
732.755	404.92
732.78	297.92
732.805	227.92
732.83	186.92
732.854	145.92
732.879	95.92
732.904	29.92
732.929	9.92
732.953	18.92
732.978	14.92
733.003	3.92
733.028	-16.08
733.052	13.92
733.077	9.92
733.102	6.92
733.127	3.92
733.151	-4.08
733.176	-2.08
733.201	-7.08
733.226	-2.08
733.25	0.92
733.275	-1.08
733.3	-3.08
733.324	8.92
733.349	8.92
733.374	6.92
733.399	2.92
733.423	-5.08
733.448	4.92
733.473	1.92
733.497	-8.08
733.522	-10.08
733.547	8.92
733.571	11.92
733.596	-2.08
733.621	10.92
733.646	0.92
733.67	-2.08
733.695	-6.08
733.72	19.92
733.744	12.92
733.769	3.92
733.794	0.92
733.818	-0.08
733.843	7.92
733.867	-9.08
733.892	-0.08
733.917	13.92
733.941	2.92
733.966	-8.08
733.991	-6.08
734.015	16.92
734.04	12.92
734.065	6.92
734.089	5.92
734.114	7.92
734.138	21.92
734.163	-2.08
734.188	0.92
734.212	6.92
734.237	9.92
734.261	-3.08
734.286	9.92
734.311	3.92
734.335	-4.08
734.36	3.92
734.384	-0.08
734.409	4.92
734.434	4.92
734.458	8.92
734.483	-6.08
734.507	-3.08
734.532	3.92
734.556	-2.08
734.581	-8.08
734.606	-8.08
734.63	-15.08
734.655	5.92
734.679	6.92
734.704	7.92
734.728	-3.08
734.753	-11.08
734.777	3.92
734.802	-0.08
734.826	14.92
734.851	-3.08
734.876	8.92
734.9	2.92
734.925	13.92
734.949	0.92
734.974	-10.08
734.998	14.92
735.023	-7.08
735.047	-6.08
735.072	21.92
735.096	6.92
735.121	-8.08
735.145	8.92
735.17	1.92
735.194	2.92
735.219	5.92
735.243	-13.08
735.268	8.92
735.292	-1.08
735.317	5.92
735.341	18.92
735.365	-20.08
735.39	7.92
735.414	-5.08
735.439	-6.08
735.463	-3.08
735.488	8.92
735.512	-1.08
735.537	-6.08
735.561	-3.08
735.586	10.92
735.61	5.92
735.634	-8.08
735.659	14.92
735.683	17.92
735.708	-19.08
735.732	-10.08
735.757	4.92
735.781	-3.08
735.805	6.92
735.83	2.92
735.854	2.92
735.879	-7.08
735.903	7.92
735.927	-8.08
735.952	0.92
735.976	-2.08
736.001	-10.08
736.025	2.92
736.049	-3.08
736.074	4.92
736.098	5.92
736.123	7.92
736.147	19.92
736.171	-2.08
736.196	15.92
736.22	-8.08
736.244	9.92
736.269	-3.08
736.293	-7.08
736.317	-5.08
736.342	-7.08
736.366	21.92
736.39	18.92
736.415	-9.08
736.439	-4.08
736.463	3.92
736.488	5.92
736.512	3.92
736.536	10.92
736.561	16.92
736.585	-2.08
736.609	6.92
736.634	-6.08
736.658	1.92
736.682	-12.08
736.707	-7.08
736.731	-8.08
736.755	3.92
736.78	12.92
736.804	18.92
736.828	9.92
736.852	-6.08
736.877	3.92
736.901	6.92
736.925	-5.08
736.949	9.92
736.974	-3.08
736.998	-10.08
737.022	-2.08
737.047	5.92
737.071	8.92
737.095	11.92
737.119	33.92
737.144	0.92
737.168	-7.08
737.192	-9.08
737.216	4.92
737.241	5.92
737.265	-5.08
737.289	-8.08
737.313	6.92
737.337	12.92
737.362	10.92
737.386	13.92
737.41	-12.08
737.434	4.92
737.459	1.92
737.483	8.92
737.507	9.92
737.531	15.92
737.555	10.92
737.58	2.92
737.604	5.92
737.628	-13.08
737.652	-3.08
737.676	1.92
737.701	16.92
737.725	17.92
737.749	11.92
737.773	0.92
737.797	-3.08
737.821	3.92
737.846	-11.08
737.87	25.92
737.894	17.92
737.918	6.92
737.942	21.92
737.966	-0.08
737.99	15.92
738.015	10.92
738.039	4.92
738.063	-9.08
738.087	6.92
738.111	-2.08
738.135	28.92
738.159	4.92
738.184	8.92
738.208	14.92
738.232	-6.08
738.256	16.92
738.28	5.92
738.304	13.92
738.328	-0.08
738.352	11.92
738.376	-11.08
738.4	1.92
738.425	-0.08
738.449	-13.08
738.473	13.92
738.497	14.92
738.521	19.92
738.545	-2.08
738.569	12.92
738.593	16.92
738.617	11.92
738.641	2.92
738.665	4.92
738.689	17.92
738.713	3.92
738.737	10.92
738.762	32.92
738.786	-2.08
738.81	-5.08
738.834	16.92
738.858	2.92
738.882	8.92
738.906	-5.08
738.93	19.92
738.954	2.92
738.978	7.92
739.002	-0.08
739.026	1.92
739.05	5.92
739.074	8.92
739.098	8.92
739.122	1.92
739.146	9.92
739.17	1.92
739.194	3.92
739.218	-7.08
739.242	-13.08
739.266	-6.08
739.29	12.92
739.314	4.92
739.338	-3.08
739.362	-9.08
739.386	3.92
739.41	-1.08
739.434	-6.08
739.458	6.92
739.482	-3.08
739.506	13.92
739.53	-9.08
739.554	13.92
739.577	6.92
739.601	7.92
739.625	-12.08
739.649	-14.08
739.673	-5.08
739.697	2.92
739.721	-6.08
739.745	8.92
739.769	14.92
739.793	5.92
739.817	9.92
739.841	-7.08
739.865	-3.08
739.889	-10.08
739.912	11.92
739.936	4.92
739.96	4.92
739.984	1.92
740.008	-2.08
740.032	-7.08
740.056	8.92
740.08	1.92
740.104	-1.08
740.127	16.92
740.151	16.92
740.175	3.92
740.199	-10.08
740.223	44.92
740.247	-2.08
740.271	16.92
740.295	-19.08
740.318	0.92
740.342	1.92
740.366	1.92
740.39	21.92
740.414	-8.08
740.438	-9.08
740.461	-2.08
740.485	0.92
740.509	1.92
740.533	4.92
740.557	-11.08
740.581	-9.08
740.604	-13.08
740.628	-6.08
740.652	6.92
740.676	7.92
740.7	16.92
740.723	-4.08
740.747	-3.08
740.771	13.92
740.795	-0.08
740.819	20.92
740.842	6.92
740.866	10.92
740.89	0.92
740.914	-10.08
740.938	-7.08
740.961	15.92
740.985	22.92
741.009	23.92
741.033	4.92
741.056	-0.08
741.08	9.92
741.104	20.92
741.128	6.92
741.151	1.92
741.175	2.92
741.199	9.92
741.223	9.92
741.246	-0.08
741.27	14.92
741.294	6.92
741.318	2.92
741.341	-11.08
741.365	-1.08
741.389	-3.08
741.413	8.92
741.436	16.92
741.46	10.92
741.484	12.92
741.507	0.92
741.531	24.92
741.555	21.92
741.579	-0.08
741.602	1.92
741.626	11.92
741.65	-7.08
741.673	3.92
741.697	4.92
741.721	2.92
741.744	-23.08
741.768	-25.08
741.792	-8.08
741.815	9.92
741.839	16.92
741.863	4.92
741.886	2.92
741.91	20.92
741.934	12.92
741.957	-17.08
741.981	4.92
742.005	-5.08
742.028	-7.08
742.052	-3.08
742.075	9.92
742.099	4.92
742.123	-6.08
742.146	0.92
742.17	-2.08
742.194	-13.08
742.217	5.92
742.241	-5.08
742.264	4.92
742.288	36.92
742.312	22.92
742.335	-5.08
742.359	6.92
742.382	18.92
742.406	35.92
742.43	-15.08
742.453	2.92
742.477	-8.08
742.5	-6.08
742.524	-6.08
742.548	4.92
742.571	1.92
742.595	-3.08
742.618	4.92
742.642	3.92
742.665	4.92
742.689	-12.08
742.712	7.92
742.736	1.92
742.76	-8.08
742.783	-7.08
742.807	-8.08
742.83	3.92
742.854	-7.08
742.877	-1.08
742.901	11.92
742.924	3.92
742.948	10.92
742.971	9.92
742.995	0.92
743.018	-15.08
743.042	-11.08
743.065	1.92
743.089	3.92
743.112	9.92
743.136	2.92
743.159	1.92
743.183	-2.08
743.206	8.92
743.23	1.92
743.253	20.92
743.277	14.92
743.3	15.92
743.324	4.92
743.347	8.92
743.371	14.92
743.394	13.92
743.418	24.92
743.441	-0.08
743.465	-6.08
743.488	-2.08
743.512	11.92
743.535	-7.08
743.558	0.92
743.582	5.92
743.605	17.92
743.629	7.92
743.652	2.92
743.676	3.92
743.699	1.92
743.723	2.92
743.746	10.92
743.769	-3.08
743.793	1.92
743.816	-6.08
743.84	11.92
743.863	1.92
743.886	12.92
743.91	9.92
743.933	16.92
743.957	3.92
743.98	6.92
744.003	15.92
744.027	3.92
744.05	1.92
744.074	4.92
744.097	-16.08
744.12	4.92
744.144	-8.08
744.167	15.92
744.19	5.92
744.214	-5.08
744.237	-13.08
744.26	7.92
744.284	4.92
744.307	-2.08
744.331	2.92
744.354	-7.08
744.377	-6.08
744.401	-8.08
744.424	6.92
744.447	-7.08
744.471	0.92
