Data from HighRes_mercury_15_13_11_07_2024_HR4C61891__74__15-14-30-585.txt Node

Date: Thu Nov 07 15:14:30 EST 2024
User: crc00042
Spectrometer: HR4C6189
Trigger mode: 4
Integration Time (sec): 1.000000E-1
Scans to average: 1
Electric dark correction enabled: true
Nonlinearity correction enabled: false
Boxcar width: 0
XAxis mode: Wavelengths
Number of Pixels in Spectrum: 3648
>>>>>Begin Spectral Data<<<<<
639.567	-42
639.602	-42
639.636	-42
639.67	-54
639.704	-24
639.738	-5
639.773	19
639.807	-19
639.841	0
639.875	12
639.909	0
639.943	-15
639.978	-16
640.012	11
640.046	19
640.08	5
640.114	-1
640.148	-10
640.182	-12
640.217	-15
640.251	-2
640.285	-7
640.319	-24
640.353	7
640.387	-1
640.421	-8
640.455	4
640.49	-10
640.524	-2
640.558	6
640.592	11
640.626	6
640.66	3
640.694	-2
640.728	11
640.762	-2
640.796	14
640.83	12
640.865	2
640.899	-12
640.933	-19
640.967	1
641.001	-4
641.035	4
641.069	1
641.103	-2
641.137	0
641.171	-27
641.205	19
641.239	-5
641.273	9
641.307	5
641.341	9
641.375	-1
641.409	-2
641.443	-8
641.477	3
641.511	6
641.545	10
641.579	-6
641.614	5
641.648	-9
641.682	-11
641.716	-1
641.75	9
641.784	-21
641.818	5
641.852	15
641.886	-8
641.919	14
641.953	-5
641.987	-21
642.021	-3
642.055	-2
642.089	4
642.123	-8
642.157	-18
642.191	5
642.225	28
642.259	2
642.293	18
642.327	14
642.361	-6
642.395	-2
642.429	6
642.463	12
642.497	12
642.531	-10
642.565	-2
642.599	7
642.633	-14
642.666	13
642.7	13
642.734	-8
642.768	-14
642.802	-13
642.836	0
642.87	-5
642.904	-8
642.938	-1
642.972	-4
643.005	-2
643.039	7
643.073	-12
643.107	-1
643.141	-2
643.175	8
643.209	-1
643.243	-1
643.276	-8
643.31	1
643.344	8
643.378	9
643.412	7
643.446	-11
643.48	-10
643.513	12
643.547	-3
643.581	-5
643.615	6
643.649	1
643.683	-7
643.716	-5
643.75	10
643.784	6
643.818	17
643.852	1
643.886	11
643.919	1
643.953	-5
643.987	-5
644.021	4
644.055	7
644.088	0
644.122	-9
644.156	-12
644.19	5
644.224	16
644.257	5
644.291	-9
644.325	0
644.359	-4
644.392	13
644.426	14
644.46	-3
644.494	5
644.527	-16
644.561	7
644.595	-3
644.629	-17
644.662	-4
644.696	0
644.73	3
644.764	11
644.797	0
644.831	4
644.865	9
644.899	-12
644.932	18
644.966	3
645	-14
645.033	9
645.067	-2
645.101	6
645.135	-9
645.168	-13
645.202	-20
645.236	-6
645.269	8
645.303	-3
645.337	-5
645.37	-2
645.404	0
645.438	5
645.471	-8
645.505	8
645.539	-3
645.572	-1
645.606	3
645.64	3
645.673	1
645.707	25
645.741	-6
645.774	-2
645.808	-6
645.842	-2
645.875	18
645.909	-4
645.943	-11
645.976	11
646.01	-6
646.043	14
646.077	11
646.111	-1
646.144	0
646.178	2
646.212	-25
646.245	-12
646.279	-6
646.312	10
646.346	4
646.38	-8
646.413	11
646.447	3
646.48	-1
646.514	-1
646.547	-5
646.581	1
646.615	-1
646.648	-7
646.682	-6
646.715	6
646.749	16
646.782	0
646.816	-7
646.85	8
646.883	1
646.917	23
646.95	2
646.984	-3
647.017	-4
647.051	12
647.084	12
647.118	-1
647.151	0
647.185	-1
647.218	-1
647.252	17
647.285	6
647.319	-10
647.353	-1
647.386	-2
647.42	12
647.453	-2
647.487	-10
647.52	0
647.553	4
647.587	-2
647.62	-6
647.654	-8
647.687	13
647.721	22
647.754	-3
647.788	7
647.821	2
647.855	6
647.888	-1
647.922	15
647.955	15
647.989	8
648.022	8
648.055	15
648.089	-3
648.122	17
648.156	9
648.189	-6
648.223	-7
648.256	1
648.29	4
648.323	10
648.356	8
648.39	12
648.423	-8
648.457	4
648.49	6
648.523	-3
648.557	-26
648.59	-7
648.624	7
648.657	-3
648.69	10
648.724	5
648.757	13
648.791	8
648.824	8
648.857	7
648.891	-9
648.924	-21
648.957	-8
648.991	-5
649.024	-6
649.057	-22
649.091	-29
649.124	-3
649.158	5
649.191	29
649.224	9
649.258	3
649.291	19
649.324	3
649.358	-9
649.391	3
649.424	-6
649.458	-8
649.491	9
649.524	-8
649.557	-17
649.591	-24
649.624	18
649.657	-9
649.691	-2
649.724	2
649.757	17
649.791	1
649.824	18
649.857	9
649.89	-13
649.924	-17
649.957	4
649.99	-15
650.023	-11
650.057	-3
650.09	1
650.123	0
650.157	21
650.19	15
650.223	-2
650.256	-3
650.29	-5
650.323	1
650.356	15
650.389	-1
650.423	-17
650.456	-2
650.489	-10
650.522	-8
650.555	15
650.589	-6
650.622	-7
650.655	6
650.688	7
650.721	-9
650.755	0
650.788	11
650.821	-2
650.854	-10
650.887	0
650.921	-8
650.954	-13
650.987	-13
651.02	-26
651.053	-19
651.087	-7
651.12	11
651.153	4
651.186	-16
651.219	-13
651.252	4
651.286	9
651.319	-6
651.352	-5
651.385	-2
651.418	2
651.451	20
651.484	13
651.518	-8
651.551	18
651.584	-2
651.617	12
651.65	3
651.683	25
651.716	8
651.749	-11
651.783	-14
651.816	-6
651.849	1
651.882	-11
651.915	10
651.948	19
651.981	0
652.014	-11
652.047	-34
652.08	-11
652.114	7
652.147	-13
652.18	-1
652.213	29
652.246	6
652.279	-5
652.312	5
652.345	-6
652.378	-10
652.411	2
652.444	6
652.477	-2
652.51	-4
652.543	-21
652.576	-8
652.609	-2
652.642	-10
652.675	12
652.709	2
652.742	-2
652.775	1
652.808	9
652.841	4
652.874	-2
652.907	5
652.94	-6
652.973	-12
653.006	-3
653.039	-6
653.072	1
653.105	3
653.138	-13
653.171	-4
653.204	-9
653.237	0
653.27	-11
653.303	2
653.336	9
653.368	1
653.401	-3
653.434	-12
653.467	-12
653.5	-24
653.533	-11
653.566	4
653.599	2
653.632	15
653.665	6
653.698	-5
653.731	-19
653.764	-5
653.797	-7
653.83	8
653.863	-1
653.896	-12
653.929	7
653.961	-3
653.994	-7
654.027	-13
654.06	-11
654.093	2
654.126	4
654.159	-7
654.192	-8
654.225	-5
654.258	-3
654.29	5
654.323	14
654.356	-6
654.389	0
654.422	-2
654.455	6
654.488	1
654.521	-2
654.553	-17
654.586	-11
654.619	-15
654.652	-5
654.685	19
654.718	3
654.751	1
654.783	0
654.816	37
654.849	8
654.882	-11
654.915	-15
654.948	-7
654.98	-22
655.013	-6
655.046	-17
655.079	-27
655.112	-7
655.144	-10
655.177	3
655.21	24
655.243	5
655.276	-4
655.308	-20
655.341	-25
655.374	10
655.407	-9
655.44	6
655.472	8
655.505	-15
655.538	1
655.571	18
655.603	1
655.636	-3
655.669	3
655.702	-3
655.734	-12
655.767	-4
655.8	9
655.833	-8
655.865	2
655.898	-6
655.931	-3
655.964	-2
655.996	0
656.029	4
656.062	-8
656.095	-11
656.127	-2
656.16	-18
656.193	3
656.225	19
656.258	3
656.291	-7
656.324	-6
656.356	3
656.389	3
656.422	6
656.454	-14
656.487	2
656.52	6
656.552	-2
656.585	-2
656.618	16
656.65	1
656.683	3
656.716	-6
656.748	2
656.781	-14
656.814	-1
656.846	15
656.879	-8
656.912	0
656.944	-27
656.977	-19
657.01	-16
657.042	2
657.075	24
657.108	4
657.14	15
657.173	22
657.205	40
657.238	17
657.271	3
657.303	-2
657.336	6
657.369	-7
657.401	-5
657.434	4
657.466	11
657.499	11
657.532	-3
657.564	0
657.597	-3
657.629	-8
657.662	-4
657.694	-7
657.727	-17
657.76	-3
657.792	-3
657.825	1
657.857	1
657.89	-9
657.922	3
657.955	-15
657.987	-5
658.02	-4
658.053	25
658.085	11
658.118	2
658.15	12
658.183	27
658.215	-4
658.248	-5
658.28	6
658.313	3
658.345	-9
658.378	8
658.41	-4
658.443	7
658.475	-17
658.508	-13
658.54	6
658.573	-3
658.605	12
658.638	7
658.67	0
658.703	0
658.735	-11
658.768	-6
658.8	-9
658.833	11
658.865	4
658.898	-18
658.93	-8
658.963	-14
658.995	-17
659.028	-11
659.06	-11
659.092	-9
659.125	-17
659.157	-3
659.19	-7
659.222	-7
659.255	-4
659.287	4
659.32	4
659.352	7
659.384	11
659.417	-17
659.449	20
659.482	-1
659.514	-9
659.546	14
659.579	-15
659.611	3
659.644	2
659.676	-14
659.708	-17
659.741	-5
659.773	1
659.806	2
659.838	-2
659.87	6
659.903	0
659.935	-3
659.967	0
660	-3
660.032	-17
660.065	-1
660.097	-4
660.129	-4
660.162	-8
660.194	4
660.226	1
660.259	-2
660.291	-6
660.323	5
660.356	-6
660.388	-5
660.42	8
660.453	-7
660.485	12
660.517	8
660.55	14
660.582	5
660.614	6
660.647	-7
660.679	-15
660.711	9
660.743	-9
660.776	-20
660.808	-15
660.84	-19
660.873	1
660.905	9
660.937	-8
660.969	-10
661.002	-2
661.034	0
661.066	-13
661.099	6
661.131	17
661.163	3
661.195	0
661.228	14
661.26	-14
661.292	1
661.324	14
661.357	-3
661.389	-2
661.421	-12
661.453	6
661.485	6
661.518	-11
661.55	-23
661.582	-8
661.614	-7
661.647	6
661.679	8
661.711	7
661.743	6
661.775	9
661.808	7
661.84	-12
661.872	-5
661.904	-4
661.936	-6
661.969	-5
662.001	-9
662.033	3
662.065	-4
662.097	15
662.129	21
662.162	-9
662.194	-4
662.226	-8
662.258	-8
662.29	-1
662.322	-9
662.355	-21
662.387	23
662.419	19
662.451	20
662.483	13
662.515	3
662.547	-3
662.58	-19
662.612	-4
662.644	-26
662.676	-13
662.708	1
662.74	-3
662.772	4
662.804	3
662.836	11
662.869	-16
662.901	0
662.933	4
662.965	21
662.997	14
663.029	-3
663.061	-4
663.093	-13
663.125	-2
663.157	-9
663.189	-1
663.221	7
663.254	-5
663.286	9
663.318	-12
663.35	0
663.382	7
663.414	13
663.446	-17
663.478	-27
663.51	21
663.542	2
663.574	-12
663.606	0
663.638	-3
663.67	-4
663.702	-9
663.734	5
663.766	-15
663.798	-6
663.83	3
663.862	4
663.894	17
663.926	-7
663.958	2
663.99	-2
664.022	-10
664.054	11
664.086	-13
664.118	-3
664.15	-12
664.182	-8
664.214	4
664.246	1
664.278	9
664.31	17
664.342	-4
664.374	4
664.406	5
664.438	0
664.47	11
664.502	-17
664.534	-12
664.566	-18
664.598	11
664.63	8
664.662	15
664.693	8
664.725	-2
664.757	8
664.789	-25
664.821	-7
664.853	8
664.885	7
664.917	-9
664.949	-1
664.981	14
665.013	-1
665.045	-26
665.076	-5
665.108	6
665.14	-3
665.172	-9
665.204	-13
665.236	-3
665.268	6
665.3	-6
665.331	-25
665.363	19
665.395	-15
665.427	-6
665.459	-1
665.491	-9
665.523	3
665.555	-16
665.586	-12
665.618	1
665.65	-15
665.682	11
665.714	6
665.746	-11
665.777	-6
665.809	-21
665.841	-10
665.873	-1
665.905	-1
665.937	-1
665.968	3
666	14
666.032	-2
666.064	0
666.096	5
666.127	27
666.159	7
666.191	2
666.223	1
666.255	6
666.286	-1
666.318	4
666.35	11
666.382	1
666.413	6
666.445	-17
666.477	-13
666.509	-15
666.54	6
666.572	-15
666.604	-1
666.636	-6
666.667	13
666.699	15
666.731	11
666.763	-9
666.794	-13
666.826	-4
666.858	-22
666.89	-1
666.921	-21
666.953	-9
666.985	-1
667.017	13
667.048	1
667.08	-2
667.112	-14
667.143	-23
667.175	-2
667.207	-5
667.238	9
667.27	9
667.302	-4
667.334	-5
667.365	16
667.397	-5
667.429	-1
667.46	21
667.492	5
667.524	-10
667.555	-14
667.587	-9
667.619	-16
667.65	-1
667.682	8
667.714	6
667.745	5
667.777	-1
667.808	3
667.84	13
667.872	2
667.903	25
667.935	-9
667.967	7
667.998	-10
668.03	-9
668.061	5
668.093	-1
668.125	2
668.156	13
668.188	5
668.22	-18
668.251	-8
668.283	11
668.314	3
668.346	1
668.377	8
668.409	0
668.441	6
668.472	5
668.504	9
668.535	4
668.567	15
668.599	-13
668.63	-5
668.662	2
668.693	22
668.725	1
668.756	1
668.788	-3
668.819	7
668.851	10
668.882	-16
668.914	-14
668.946	7
668.977	-6
669.009	3
669.04	-14
669.072	-9
669.103	-4
669.135	4
669.166	-17
669.198	-11
669.229	-6
669.261	-5
669.292	0
669.324	-2
669.355	-3
669.387	-9
669.418	-2
669.45	-12
669.481	-1
669.513	-7
669.544	-2
669.576	-5
669.607	4
669.639	18
669.67	-9
669.701	1
669.733	-4
669.764	-5
669.796	-1
669.827	-15
669.859	-13
669.89	6
669.922	4
669.953	-1
669.985	3
670.016	19
670.047	14
670.079	1
670.11	-3
670.142	-5
670.173	-9
670.204	6
670.236	6
670.267	-8
670.299	-12
670.33	-4
670.362	-5
670.393	-26
670.424	-4
670.456	-4
670.487	0
670.518	8
670.55	1
670.581	17
670.613	-5
670.644	-5
670.675	-14
670.707	-10
670.738	-2
670.769	-6
670.801	-12
670.832	-2
670.864	-5
670.895	-6
670.926	0
670.958	-2
670.989	-10
671.02	-14
671.052	-3
671.083	-8
671.114	-15
671.146	16
671.177	-19
671.208	-2
671.24	-12
671.271	-9
671.302	-16
671.333	-26
671.365	-19
671.396	-13
671.427	5
671.459	-1
671.49	5
671.521	-5
671.553	8
671.584	9
671.615	9
671.646	8
671.678	-1
671.709	-19
671.74	-10
671.771	3
671.803	-16
671.834	-4
671.865	-25
671.896	-4
671.928	1
671.959	-9
671.99	-17
672.021	-16
672.053	-1
672.084	-8
672.115	-7
672.146	-7
672.178	-12
672.209	-4
672.24	-4
672.271	34
672.303	-9
672.334	1
672.365	-15
672.396	-8
672.427	3
672.459	-6
672.49	19
672.521	1
672.552	4
672.583	-4
672.615	0
672.646	13
672.677	2
672.708	-2
672.739	-3
672.77	3
672.802	12
672.833	-17
672.864	-11
672.895	-9
672.926	5
672.957	-1
672.989	-1
673.02	4
673.051	13
673.082	7
673.113	-15
673.144	-3
673.175	4
673.206	-11
673.238	-21
673.269	2
673.3	0
673.331	-3
673.362	-2
673.393	4
673.424	15
673.455	6
673.487	-1
673.518	-2
673.549	-16
673.58	0
673.611	3
673.642	-2
673.673	-21
673.704	-6
673.735	-5
673.766	-6
673.797	-2
673.828	13
673.86	-15
673.891	-10
673.922	-17
673.953	-6
673.984	12
674.015	2
674.046	-12
674.077	-3
674.108	-11
674.139	-13
674.17	-9
674.201	-8
674.232	-17
674.263	-3
674.294	-2
674.325	-20
674.356	-9
674.387	18
674.418	7
674.449	-9
674.48	-13
674.511	3
674.542	15
674.573	-15
674.604	-6
674.635	1
674.666	9
674.697	-4
674.728	-13
674.759	-13
674.79	-11
674.821	-4
674.852	6
674.883	-2
674.914	-8
674.945	-20
674.976	-3
675.007	-4
675.038	-15
675.069	-15
675.1	-9
675.131	2
675.162	-21
675.193	-8
675.224	5
675.254	12
675.285	6
675.316	-2
675.347	2
675.378	-7
675.409	-3
675.44	-6
675.471	-12
675.502	-6
675.533	-2
675.564	3
675.595	-11
675.625	2
675.656	0
675.687	1
675.718	-12
675.749	-4
675.78	-14
675.811	-10
675.842	2
675.873	-20
675.903	11
675.934	8
675.965	-22
675.996	-12
676.027	3
676.058	0
676.089	-17
676.119	-12
676.15	-18
676.181	-12
676.212	-3
676.243	2
676.274	-1
676.304	6
676.335	-5
676.366	-2
676.397	-4
676.428	-7
676.459	2
676.489	11
676.52	20
676.551	15
676.582	-4
676.613	-10
676.643	-9
676.674	7
676.705	-10
676.736	6
676.767	10
676.797	12
676.828	9
676.859	-13
676.89	-2
676.92	5
676.951	-7
676.982	-8
677.013	-6
677.044	9
677.074	26
677.105	-13
677.136	6
677.167	1
677.197	-5
677.228	-18
677.259	-14
677.289	-3
677.32	-15
677.351	5
677.382	2
677.412	-12
677.443	4
677.474	-5
677.505	-15
677.535	-1
677.566	-9
677.597	-15
677.627	-3
677.658	1
677.689	-8
677.72	-10
677.75	-19
677.781	0
677.812	6
677.842	-1
677.873	2
677.904	-6
677.934	-9
677.965	-3
677.996	3
678.026	0
678.057	-5
678.088	-19
678.118	-12
678.149	-8
678.18	-2
678.21	4
678.241	-11
678.272	6
678.302	5
678.333	2
678.363	-10
678.394	-5
678.425	11
678.455	-13
678.486	-2
678.517	-5
678.547	9
678.578	-2
678.608	0
678.639	3
678.67	2
678.7	0
678.731	11
678.761	-19
678.792	4
678.823	1
678.853	0
678.884	-1
678.914	7
678.945	1
678.975	6
679.006	3
679.037	-2
679.067	23
679.098	9
679.128	1
679.159	-6
679.189	0
679.22	-5
679.25	-9
679.281	-4
679.312	-11
679.342	-8
679.373	21
679.403	0
679.434	-1
679.464	-10
679.495	1
679.525	-2
679.556	-6
679.586	17
679.617	-1
679.647	0
679.678	-8
679.708	-7
679.739	-13
679.769	-13
679.8	1
679.83	-3
679.861	18
679.891	-10
679.922	-20
679.952	-18
679.983	10
680.013	5
680.044	-5
680.074	10
680.105	5
680.135	-2
680.165	15
680.196	-10
680.226	7
680.257	3
680.287	14
680.318	5
680.348	-1
680.379	5
680.409	9
680.439	-7
680.47	-7
680.5	-2
680.531	-3
680.561	8
680.592	10
680.622	5
680.652	11
680.683	14
680.713	-17
680.744	0
680.774	-4
680.804	8
680.835	-12
680.865	-34
680.896	6
680.926	9
680.956	4
680.987	5
681.017	3
681.047	5
681.078	-16
681.108	-9
681.139	8
681.169	-10
681.199	-18
681.23	-2
681.26	-13
681.29	5
681.321	-1
681.351	-5
681.381	-17
681.412	2
681.442	-3
681.472	12
681.503	3
681.533	2
681.563	-6
681.594	-6
681.624	-8
681.654	-2
681.685	-1
681.715	-7
681.745	-1
681.775	-4
681.806	1
681.836	2
681.866	0
681.897	8
681.927	-17
681.957	-15
681.987	-4
682.018	0
682.048	7
682.078	14
682.109	7
682.139	18
682.169	-9
682.199	-8
682.23	-9
682.26	-5
682.29	-11
682.32	3
682.351	-4
682.381	-2
682.411	-10
682.441	-3
682.472	-17
682.502	-14
682.532	-7
682.562	4
682.592	3
682.623	9
682.653	-8
682.683	-14
682.713	-9
682.743	3
682.774	-12
682.804	27
682.834	15
682.864	-2
682.894	-3
682.925	9
682.955	8
682.985	-11
683.015	1
683.045	16
683.076	-18
683.106	-6
683.136	-9
683.166	-9
683.196	-15
683.226	-13
683.257	-7
683.287	-8
683.317	-18
683.347	0
683.377	-9
683.407	-9
683.437	4
683.468	11
683.498	-6
683.528	-12
683.558	-10
683.588	-11
683.618	-13
683.648	-24
683.678	-1
683.708	3
683.739	-4
683.769	-14
683.799	-4
683.829	-1
683.859	11
683.889	-2
683.919	-4
683.949	9
683.979	-14
684.009	-11
684.039	13
684.07	-21
684.1	9
684.13	-6
684.16	-2
684.19	-5
684.22	-11
684.25	-2
684.28	-13
684.31	15
684.34	22
684.37	7
684.4	-10
684.43	3
684.46	9
684.49	2
684.52	3
684.55	10
684.58	-5
684.61	1
684.64	4
684.67	6
684.7	-13
684.73	8
684.76	-9
684.79	4
684.82	13
684.85	-20
684.88	-7
684.91	-10
684.94	-15
684.97	-12
685	-14
685.03	-8
685.06	-11
685.09	8
685.12	23
685.15	-5
685.18	-5
685.21	-8
685.24	11
685.27	1
685.3	3
685.33	-4
685.36	-2
685.39	15
685.42	3
685.45	-5
685.48	-5
685.51	-8
685.54	-9
685.569	-5
685.599	9
685.629	2
685.659	1
685.689	0
685.719	2
685.749	9
685.779	1
685.809	-4
685.839	4
685.869	5
685.898	10
685.928	-3
685.958	-10
685.988	5
686.018	-2
686.048	-11
686.078	6
686.108	24
686.137	3
686.167	6
686.197	-17
686.227	-1
686.257	21
686.287	23
686.317	14
686.346	-6
686.376	-10
686.406	-10
686.436	19
686.466	9
686.496	3
686.525	11
686.555	7
686.585	13
686.615	19
686.645	2
686.675	9
686.704	-7
686.734	-17
686.764	0
686.794	-12
686.824	-8
686.853	16
686.883	6
686.913	9
686.943	-6
686.973	0
687.002	5
687.032	7
687.062	-2
687.092	19
687.121	15
687.151	-4
687.181	-8
687.211	-5
687.24	-9
687.27	1
687.3	-8
687.33	-4
687.359	-28
687.389	4
687.419	-1
687.449	9
687.478	6
687.508	5
687.538	5
687.568	4
687.597	-3
687.627	13
687.657	16
687.686	-10
687.716	15
687.746	-27
687.776	-7
687.805	1
687.835	-1
687.865	15
687.894	-2
687.924	-14
687.954	-2
687.983	-5
688.013	3
688.043	-2
688.072	-13
688.102	-5
688.132	-5
688.161	-15
688.191	-1
688.221	18
688.25	-13
688.28	-10
688.31	-6
688.339	-1
688.369	-15
688.399	-21
688.428	-4
688.458	8
688.488	-18
688.517	6
688.547	3
688.576	34
688.606	15
688.636	-8
688.665	8
688.695	-10
688.725	10
688.754	6
688.784	12
688.813	26
688.843	-4
688.873	-11
688.902	1
688.932	-20
688.961	-12
688.991	-8
689.02	20
689.05	-2
689.08	9
689.109	13
689.139	-1
689.168	3
689.198	-7
689.227	6
689.257	7
689.287	22
689.316	4
689.346	-5
689.375	-11
689.405	-5
689.434	-1
689.464	13
689.493	-6
689.523	-18
689.552	-18
689.582	-6
689.611	-5
689.641	2
689.67	-6
689.7	14
689.73	8
689.759	18
689.789	16
689.818	-9
689.848	7
689.877	30
689.906	4
689.936	-1
689.965	-1
689.995	-3
690.024	8
690.054	-5
690.083	6
690.113	15
690.142	4
690.172	8
690.201	-6
690.231	11
690.26	15
690.29	7
690.319	5
690.348	-3
690.378	0
690.407	-1
690.437	1
690.466	4
690.496	5
690.525	-6
690.555	-6
690.584	0
690.613	14
690.643	-5
690.672	-2
690.702	7
690.731	8
690.76	19
690.79	65
690.819	44
690.849	37
690.878	21
690.907	28
690.937	27
690.966	7
690.996	10
691.025	4
691.054	-14
691.084	0
691.113	3
691.142	2
691.172	2
691.201	-4
691.23	0
691.26	16
691.289	11
691.319	-8
691.348	-12
691.377	12
691.407	7
691.436	-6
691.465	-3
691.495	-2
691.524	0
691.553	-19
691.583	-3
691.612	20
691.641	-6
691.67	-11
691.7	-6
691.729	-10
691.758	17
691.788	6
691.817	-1
691.846	-7
691.876	1
691.905	11
691.934	7
691.963	14
691.993	5
692.022	-14
692.051	-20
692.081	17
692.11	20
692.139	12
692.168	-1
692.198	6
692.227	4
692.256	-3
692.285	5
692.315	9
692.344	7
692.373	16
692.402	-25
692.432	-21
692.461	-5
692.49	-4
692.519	9
692.548	26
692.578	5
692.607	-10
692.636	0
692.665	20
692.694	2
692.724	-1
692.753	31
692.782	10
692.811	1
692.84	-1
692.87	0
692.899	8
692.928	-5
692.957	-1
692.986	8
693.016	-5
693.045	3
693.074	3
693.103	-5
693.132	-2
693.161	6
693.191	-3
693.22	1
693.249	3
693.278	-7
693.307	12
693.336	-14
693.365	-24
693.395	-14
693.424	6
693.453	15
693.482	-7
693.511	-1
693.54	4
693.569	5
693.598	-3
693.628	-7
693.657	4
693.686	38
693.715	5
693.744	8
693.773	17
693.802	5
693.831	-21
693.86	4
693.889	5
693.919	8
693.948	-8
693.977	-4
694.006	-12
694.035	3
694.064	-14
694.093	-6
694.122	3
694.151	-20
694.18	1
694.209	20
694.238	-5
694.267	25
694.296	0
694.325	-4
694.354	11
694.383	14
694.412	-4
694.441	-12
694.471	-6
694.5	-8
694.529	15
694.558	9
694.587	14
694.616	7
694.645	-17
694.674	8
694.703	14
694.732	2
694.761	7
694.79	10
694.819	-18
694.848	-3
694.877	-1
694.906	18
694.935	-3
694.963	32
694.992	-2
695.021	8
695.05	-1
695.079	13
695.108	-1
695.137	15
695.166	2
695.195	-17
695.224	6
695.253	-11
695.282	-12
695.311	14
695.34	-13
695.369	-5
695.398	1
695.427	12
695.456	5
695.485	5
695.513	8
695.542	9
695.571	8
695.6	7
695.629	17
695.658	2
695.687	3
695.716	-8
695.745	10
695.774	-3
695.802	-9
695.831	-1
695.86	9
695.889	-1
695.918	4
695.947	-4
695.976	0
696.005	-3
696.033	1
696.062	12
696.091	6
696.12	7
696.149	30
696.178	-5
696.207	-4
696.235	-19
696.264	8
696.293	-1
696.322	4
696.351	2
696.38	-3
696.408	8
696.437	7
696.466	15
696.495	11
696.524	-4
696.553	11
696.581	14
696.61	-5
696.639	-9
696.668	4
696.697	-1
696.725	-9
696.754	0
696.783	-6
696.812	-17
696.84	5
696.869	8
696.898	-17
696.927	0
696.956	18
696.984	-11
697.013	6
697.042	-3
697.071	1
697.099	18
697.128	26
697.157	20
697.186	0
697.214	-2
697.243	-7
697.272	-2
697.301	0
697.329	-10
697.358	6
697.387	15
697.415	0
697.444	8
697.473	-6
697.502	-8
697.53	2
697.559	-6
697.588	9
697.616	4
697.645	-4
697.674	9
697.703	-15
697.731	13
697.76	-2
697.789	12
697.817	-1
697.846	13
697.875	-11
697.903	14
697.932	17
697.961	3
697.989	4
698.018	3
698.047	-1
698.075	7
698.104	-20
698.133	-12
698.161	-1
698.19	3
698.218	3
698.247	8
698.276	2
698.304	4
698.333	1
698.362	8
698.39	0
698.419	10
698.447	-2
698.476	-2
698.505	3
698.533	-11
698.562	5
698.591	0
698.619	-2
698.648	17
698.676	-5
698.705	-14
698.733	-10
698.762	0
698.791	-1
698.819	-4
698.848	3
698.876	12
698.905	15
698.933	20
698.962	-7
698.991	7
699.019	24
699.048	-8
699.076	0
699.105	5
699.133	12
699.162	13
699.19	14
699.219	6
699.248	6
699.276	-1
699.305	0
699.333	10
699.362	6
699.39	18
699.419	-4
699.447	6
699.476	16
699.504	-6
699.533	-11
699.561	-25
699.59	2
699.618	-1
699.647	4
699.675	0
699.704	16
699.732	4
699.761	-11
699.789	-12
699.818	11
699.846	4
699.874	-15
699.903	-8
699.931	5
699.96	6
699.988	18
700.017	-8
700.045	2
700.074	-11
700.102	-10
700.13	-12
700.159	5
700.187	-2
700.216	-8
700.244	-4
700.273	-2
700.301	2
700.329	-2
700.358	0
700.386	2
700.415	-1
700.443	-3
700.472	-1
700.5	2
700.528	-4
700.557	6
700.585	-4
700.614	-11
700.642	10
700.67	0
700.699	1
700.727	-4
700.755	-1
700.784	9
700.812	-2
700.841	16
700.869	-1
700.897	-2
700.926	-9
700.954	15
700.982	14
701.011	1
701.039	-2
701.067	2
701.096	5
701.124	-30
701.152	-10
701.181	-11
701.209	-4
701.237	-2
701.266	-14
701.294	-1
701.322	13
701.351	12
701.379	-1
701.407	-7
701.435	1
701.464	-1
701.492	7
701.52	-13
701.549	-1
701.577	-6
701.605	-23
701.634	1
701.662	7
701.69	-3
701.718	-15
701.747	11
701.775	-13
701.803	-5
701.831	-7
701.86	-5
701.888	2
701.916	-8
701.944	3
701.973	-12
702.001	-2
702.029	11
702.057	-2
702.086	-13
702.114	-11
702.142	12
702.17	-1
702.199	-4
702.227	-4
702.255	-1
702.283	-4
702.311	-2
702.34	2
702.368	-12
702.396	-3
702.424	3
702.452	4
702.481	-1
702.509	5
702.537	19
702.565	-7
702.593	-8
702.621	-4
702.65	5
702.678	16
702.706	10
702.734	-10
702.762	-5
702.79	-3
702.819	-16
702.847	-4
702.875	-2
702.903	9
702.931	-13
702.959	7
702.988	2
703.016	-9
703.044	-3
703.072	15
703.1	4
703.128	5
703.156	-8
703.184	-1
703.212	11
703.241	0
703.269	2
703.297	2
703.325	14
703.353	1
703.381	-19
703.409	-2
703.437	-13
703.465	2
703.493	-8
703.522	15
703.55	14
703.578	-1
703.606	3
703.634	5
703.662	-2
703.69	-4
703.718	-9
703.746	34
703.774	11
703.802	18
703.83	-9
703.858	3
703.886	-19
703.914	-15
703.942	13
703.97	0
703.998	-5
704.027	12
704.055	17
704.083	-8
704.111	-13
704.139	-7
704.167	-5
704.195	-4
704.223	-6
704.251	2
704.279	16
704.307	11
704.335	-16
704.363	3
704.391	-11
704.419	-1
704.447	-10
704.475	6
704.503	-6
704.531	8
704.558	13
704.586	5
704.614	-15
704.642	3
704.67	-20
704.698	5
704.726	5
704.754	-8
704.782	-1
704.81	-14
704.838	5
704.866	16
704.894	-10
704.922	-7
704.95	1
704.978	15
705.006	-7
705.034	10
705.061	-9
705.089	-10
705.117	-12
705.145	0
705.173	6
705.201	10
705.229	11
705.257	-10
705.285	6
705.313	-8
705.34	-14
705.368	-2
705.396	5
705.424	3
705.452	1
705.48	-14
705.508	-20
705.536	-5
705.563	-12
705.591	3
705.619	2
705.647	-4
705.675	-1
705.703	8
705.731	3
705.758	-22
705.786	-17
705.814	20
705.842	-5
705.87	7
705.898	8
705.925	-9
705.953	2
705.981	-15
706.009	-3
706.037	3
706.065	-9
706.092	-10
706.12	-1
706.148	-8
706.176	-10
706.204	-5
706.231	-8
706.259	-5
706.287	2
706.315	17
706.342	18
706.37	12
706.398	2
706.426	4
706.454	10
706.481	9
706.509	9
706.537	-8
706.565	-3
706.592	-3
706.62	-6
706.648	4
706.676	-8
706.703	7
706.731	-14
706.759	-19
706.787	15
706.814	-1
706.842	-10
706.87	10
706.897	-4
706.925	-5
706.953	8
706.981	12
707.008	18
707.036	-6
707.064	-11
707.091	-15
707.119	11
707.147	-8
707.174	1
707.202	-9
707.23	-21
707.258	-2
707.285	-15
707.313	-11
707.341	-29
707.368	-11
707.396	11
707.424	17
707.451	-9
707.479	-2
707.507	-1
707.534	-1
707.562	-1
707.59	-26
707.617	-17
707.645	-13
707.672	-16
707.7	-13
707.728	11
707.755	-6
707.783	5
707.811	-2
707.838	-1
707.866	1
707.893	-1
707.921	-11
707.949	-2
707.976	8
708.004	16
708.031	11
708.059	-1
708.087	-6
708.114	-3
708.142	-3
708.169	-14
708.197	-17
708.225	3
708.252	10
708.28	21
708.307	0
708.335	0
708.362	-8
708.39	-9
708.418	-10
708.445	-7
708.473	-4
708.5	-19
708.528	-6
708.555	3
708.583	-4
708.61	-10
708.638	9
708.665	-21
708.693	-11
708.72	-29
708.748	-11
708.776	-18
708.803	0
708.831	-2
708.858	4
708.886	-6
708.913	2
708.941	9
708.968	6
708.996	-27
709.023	14
709.051	-6
709.078	-12
709.105	4
709.133	-5
709.16	8
709.188	-5
709.215	5
709.243	-14
709.27	-11
709.298	-4
709.325	-2
709.353	10
709.38	6
709.408	0
709.435	-2
709.462	-9
709.49	-2
709.517	-2
709.545	-6
709.572	-9
709.6	17
709.627	13
709.655	-9
709.682	-5
709.709	2
709.737	-2
709.764	-11
709.792	-2
709.819	-5
709.846	6
709.874	6
709.901	14
709.929	13
709.956	4
709.983	-10
710.011	-9
710.038	-14
710.066	-2
710.093	20
710.12	2
710.148	-12
710.175	-11
710.202	-16
710.23	-7
710.257	4
710.284	-2
710.312	15
710.339	0
710.366	3
710.394	-4
710.421	15
710.448	4
710.476	-9
710.503	-3
710.53	5
710.558	21
710.585	8
710.612	-21
710.64	-6
710.667	-10
710.694	-6
710.722	-5
710.749	-9
710.776	-10
710.804	36
710.831	6
710.858	-4
710.885	13
710.913	-1
710.94	1
710.967	-3
710.995	9
711.022	2
711.049	-7
711.076	-3
711.104	-14
711.131	-17
711.158	-8
711.185	2
711.213	-17
711.24	7
711.267	-3
711.294	-11
711.322	11
711.349	-5
711.376	-2
711.403	-8
711.431	-12
711.458	1
711.485	5
711.512	9
711.54	-4
711.567	-9
711.594	5
711.621	-11
711.648	5
711.676	-2
711.703	2
711.73	-10
711.757	14
711.784	-9
711.812	6
711.839	-4
711.866	-12
711.893	-25
711.92	0
711.947	5
711.975	0
712.002	-2
712.029	16
712.056	19
712.083	10
712.11	-15
712.138	5
712.165	1
712.192	-2
712.219	8
712.246	-4
712.273	-4
712.3	-10
712.328	-4
712.355	4
712.382	-5
712.409	16
712.436	-12
712.463	-5
712.49	4
712.517	-11
712.544	-10
712.572	-6
712.599	-5
712.626	-2
712.653	-16
712.68	-14
712.707	6
712.734	3
712.761	-12
712.788	-18
712.815	-2
712.842	6
712.87	12
712.897	-8
712.924	-8
712.951	-4
712.978	18
713.005	4
713.032	13
713.059	1
713.086	-5
713.113	-7
713.14	-20
713.167	-2
713.194	23
713.221	-2
713.248	10
713.275	3
713.302	-5
713.329	3
713.356	2
713.383	0
713.41	11
713.437	-16
713.464	0
713.491	13
713.518	-1
713.545	-17
713.572	-5
713.599	16
713.626	1
713.653	18
713.68	-3
713.707	-1
713.734	-4
713.761	-19
713.788	-5
713.815	5
713.842	7
713.869	3
713.896	3
713.923	-2
713.95	-2
713.977	-17
714.004	-12
714.031	-13
714.058	-15
714.085	-1
714.112	14
714.139	8
714.165	3
714.192	-8
714.219	6
714.246	6
714.273	2
714.3	-14
714.327	3
714.354	19
714.381	-6
714.408	-9
714.435	-8
714.461	-6
714.488	0
714.515	-14
714.542	-8
714.569	-15
714.596	-16
714.623	4
714.65	-1
714.677	-8
714.703	8
714.73	8
714.757	6
714.784	-9
714.811	-8
714.838	-4
714.865	-10
714.891	5
714.918	5
714.945	-14
714.972	-16
714.999	23
715.026	-10
715.052	3
715.079	9
715.106	15
715.133	3
715.16	-5
715.187	16
715.213	4
715.24	-5
715.267	-6
715.294	-9
715.321	9
715.347	-6
715.374	-14
715.401	-11
715.428	-10
715.455	-4
715.481	-4
715.508	-11
715.535	-1
715.562	9
715.588	3
715.615	-4
715.642	-2
715.669	14
715.695	-17
715.722	-21
715.749	-3
715.776	-2
715.802	-7
715.829	9
715.856	-4
715.883	20
715.909	-8
715.936	3
715.963	-2
715.99	4
716.016	-7
716.043	-1
716.07	-6
716.096	-13
716.123	-11
716.15	-13
716.177	12
716.203	-4
716.23	3
716.257	6
716.283	27
716.31	3
716.337	0
716.363	-7
716.39	2
716.417	4
716.443	-3
716.47	2
716.497	11
716.523	7
716.55	8
716.577	-13
716.603	1
716.63	-2
716.657	6
716.683	-2
716.71	4
716.737	-2
716.763	6
716.79	2
716.817	9
716.843	7
716.87	-6
716.897	-8
716.923	6
716.95	-6
716.976	-13
717.003	-11
717.03	2
717.056	-13
717.083	0
717.109	3
717.136	1
717.163	-4
717.189	-4
717.216	-10
717.242	-6
717.269	4
717.296	-3
717.322	4
717.349	17
717.375	5
717.402	-6
717.428	4
717.455	4
717.481	-2
717.508	19
717.535	6
717.561	10
717.588	-7
717.614	-12
717.641	2
717.667	-10
717.694	-11
717.72	-1
717.747	10
717.773	-9
717.8	11
717.826	5
717.853	-1
717.88	12
717.906	0
717.933	9
717.959	-10
717.986	-14
718.012	-9
718.039	15
718.065	13
718.092	10
718.118	2
718.144	-2
718.171	12
718.197	22
718.224	7
718.25	9
718.277	0
718.303	-6
718.33	-12
718.356	-19
718.383	-10
718.409	-4
718.436	-8
718.462	-6
718.489	-17
718.515	19
718.541	9
718.568	11
718.594	-4
718.621	-15
718.647	-6
718.674	6
718.7	7
718.726	0
718.753	6
718.779	18
718.806	1
718.832	8
718.858	3
718.885	-10
718.911	-6
718.938	7
718.964	-12
718.99	-6
719.017	-7
719.043	8
719.07	7
719.096	-13
719.122	8
719.149	-12
719.175	-10
719.201	4
719.228	-10
719.254	-5
719.281	-11
719.307	-15
719.333	2
719.36	3
719.386	-5
719.412	-8
719.439	-17
719.465	-7
719.491	-5
719.518	1
719.544	-5
719.57	-3
719.597	4
719.623	-9
719.649	15
719.675	7
719.702	1
719.728	13
719.754	-24
719.781	-9
719.807	-3
719.833	2
719.86	-1
719.886	7
719.912	9
719.938	-5
719.965	10
719.991	18
720.017	7
720.044	3
720.07	8
720.096	3
720.122	3
720.149	12
720.175	21
720.201	0
720.227	-5
720.254	-2
720.28	0
720.306	-16
720.332	-4
720.359	9
720.385	-9
720.411	5
720.437	12
720.463	6
720.49	6
720.516	-4
720.542	-5
720.568	8
720.595	4
720.621	-8
720.647	-13
720.673	-6
720.699	0
720.725	2
720.752	7
720.778	-1
720.804	-2
720.83	-5
720.856	0
720.883	-3
720.909	-13
720.935	18
720.961	8
720.987	-1
721.013	2
721.04	-12
721.066	-11
721.092	-5
721.118	-13
721.144	4
721.17	-9
721.196	-12
721.223	-13
721.249	-10
721.275	15
721.301	6
721.327	7
721.353	-6
721.379	2
721.405	-8
721.432	-2
721.458	-4
721.484	7
721.51	-6
721.536	4
721.562	-1
721.588	-7
721.614	0
721.64	-6
721.666	-2
721.693	-17
721.719	-24
721.745	-22
721.771	-6
721.797	-1
721.823	-6
721.849	23
721.875	7
721.901	-6
721.927	5
721.953	-1
721.979	0
722.005	9
722.031	-7
722.057	4
722.083	8
722.109	-1
722.135	3
722.161	6
722.187	-12
722.214	-8
722.24	-19
722.266	-17
722.292	2
722.318	7
722.344	6
722.37	6
722.396	9
722.422	-2
722.448	-10
722.474	-7
722.5	10
722.526	-2
722.552	-6
722.578	-8
722.603	4
722.629	-7
722.655	-11
722.681	-6
722.707	2
722.733	-12
722.759	-11
722.785	-1
722.811	-4
722.837	12
722.863	5
722.889	8
722.915	-7
722.941	11
722.967	9
722.993	19
723.019	-4
723.045	-3
723.071	0
723.097	11
723.122	-5
723.148	-17
723.174	-15
723.2	16
723.226	-4
723.252	-1
723.278	-16
723.304	-9
723.33	2
723.356	-16
723.381	-11
723.407	-6
723.433	19
723.459	6
723.485	0
723.511	19
723.537	-5
723.563	-14
723.588	-15
723.614	22
723.64	2
723.666	2
723.692	2
723.718	-15
723.744	-10
723.769	-5
723.795	-7
723.821	10
723.847	-8
723.873	-6
723.899	-1
723.924	5
723.95	20
723.976	-8
724.002	-5
724.028	-5
724.053	0
724.079	-4
724.105	-9
724.131	-9
724.157	-11
724.182	-2
724.208	-14
724.234	-9
724.26	-4
724.286	3
724.311	18
724.337	3
724.363	-26
724.389	-14
724.415	-10
724.44	12
724.466	-5
724.492	13
724.518	-4
724.543	2
724.569	9
724.595	16
724.621	-4
724.646	6
724.672	-2
724.698	-14
724.723	-22
724.749	-15
724.775	1
724.801	-8
724.826	-8
724.852	-7
724.878	-16
724.904	-7
724.929	-8
724.955	-21
724.981	-1
725.006	-1
725.032	-2
725.058	7
725.083	5
725.109	-14
725.135	8
725.161	16
725.186	-7
725.212	-10
725.238	11
725.263	-9
725.289	-2
725.315	-16
725.34	-18
725.366	-3
725.392	0
725.417	7
725.443	1
725.468	5
725.494	3
725.52	1
725.545	-9
725.571	-2
725.597	-5
725.622	10
725.648	-1
725.674	4
725.699	-4
725.725	-10
725.75	28
725.776	-14
725.802	-1
725.827	-8
725.853	-10
725.878	4
725.904	-5
725.93	-8
725.955	-20
725.981	-7
726.006	-9
726.032	22
726.057	-8
726.083	-9
726.109	6
726.134	6
726.16	-12
726.185	-6
726.211	-4
726.236	15
726.262	17
726.288	11
726.313	23
726.339	2
726.364	-1
726.39	-1
726.415	-3
726.441	-11
726.466	-7
726.492	-2
726.517	-2
726.543	4
726.568	-3
726.594	2
726.619	-4
726.645	-6
726.67	4
726.696	2
726.721	-13
726.747	-16
726.772	3
726.798	-1
726.823	3
726.849	-11
726.874	12
726.9	15
726.925	8
726.951	-1
726.976	-5
727.002	-14
727.027	7
727.053	-6
727.078	-8
727.104	-1
727.129	-13
727.155	0
727.18	3
727.205	6
727.231	-8
727.256	-12
727.282	-8
727.307	22
727.333	6
727.358	4
727.383	-29
727.409	-11
727.434	1
727.46	-1
727.485	-14
727.511	10
727.536	-16
727.561	-2
727.587	-7
727.612	-3
727.637	-7
727.663	-11
727.688	8
727.714	5
727.739	0
727.764	-13
727.79	4
727.815	-8
727.841	-5
727.866	-3
727.891	-2
727.917	-4
727.942	-13
727.967	-11
727.993	-30
728.018	-4
728.043	-5
728.069	18
728.094	14
728.119	-1
728.145	20
728.17	-4
728.195	-3
728.221	18
728.246	-2
728.271	-22
728.297	-13
728.322	-8
728.347	7
728.373	-3
728.398	7
728.423	-4
728.448	1
728.474	-10
728.499	3
728.524	-12
728.55	-10
728.575	-1
728.6	6
728.625	-14
728.651	1
728.676	-8
728.701	-6
728.727	-1
728.752	-9
728.777	-5
728.802	3
728.828	5
728.853	11
728.878	-12
728.903	-7
728.929	-22
728.954	2
728.979	12
729.004	3
729.03	-4
729.055	7
729.08	-8
729.105	-6
729.13	22
729.156	22
729.181	-2
729.206	-13
729.231	-13
729.256	0
729.282	10
729.307	-13
729.332	-4
729.357	-1
729.382	-12
729.408	-3
729.433	5
729.458	-17
729.483	0
729.508	29
729.533	-5
729.559	-2
729.584	-24
729.609	-5
729.634	3
729.659	-6
729.684	-10
729.71	18
729.735	-14
729.76	-9
729.785	6
729.81	12
729.835	6
729.86	7
729.886	16
729.911	6
729.936	14
729.961	20
729.986	24
730.011	60
730.036	210
730.061	976
730.086	2689
730.112	3378
730.137	2837
730.162	2106
730.187	1621
730.212	1273
730.237	775
730.262	445
730.287	237
730.312	130
730.337	81
730.362	75
730.387	42
730.413	26
730.438	16
730.463	15
730.488	18
730.513	3
730.538	-4
730.563	23
730.588	14
730.613	31
730.638	-2
730.663	5
730.688	11
730.713	8
730.738	13
730.763	3
730.788	-22
730.813	0
730.838	1
730.863	2
730.888	-10
730.913	-8
730.938	3
730.963	16
730.988	125
731.013	432
731.038	630
731.063	602
731.088	459
731.113	355
731.138	273
731.163	163
731.188	99
731.213	52
731.238	21
731.263	16
731.288	2
731.313	0
731.338	-7
731.363	-6
731.388	2
731.413	-6
731.438	10
731.463	-4
731.487	7
731.512	-4
731.537	-7
731.562	-2
731.587	2
731.612	0
731.637	-3
731.662	-2
731.687	-2
731.712	-21
731.737	-3
731.762	10
731.786	13
731.811	10
731.836	-1
731.861	-2
731.886	-2
731.911	4
731.936	10
731.961	2
731.986	-16
732.01	-9
732.035	-11
732.06	11
732.085	-2
732.11	2
732.135	-21
732.16	-10
732.184	-25
732.209	-9
732.234	-9
732.259	2
732.284	8
732.309	-14
732.334	-9
732.358	-18
732.383	-16
732.408	-9
732.433	-4
732.458	-5
732.482	10
732.507	5
732.532	-8
732.557	8
732.582	16
732.607	15
732.631	38
732.656	79
732.681	129
732.706	328
732.73	448
732.755	402
732.78	308
732.805	245
732.83	167
732.854	103
732.879	99
732.904	56
732.929	18
732.953	16
732.978	14
733.003	10
733.028	-4
733.052	0
733.077	16
733.102	10
733.127	17
733.151	-5
733.176	9
733.201	5
733.226	-12
733.25	10
733.275	-12
733.3	-12
733.324	16
733.349	2
733.374	5
733.399	6
733.423	-13
733.448	-15
733.473	-14
733.497	-8
733.522	-9
733.547	19
733.571	20
733.596	-6
733.621	2
733.646	-12
733.67	7
733.695	2
733.72	-2
733.744	14
733.769	6
733.794	-2
733.818	2
733.843	-12
733.867	-19
733.892	-19
733.917	1
733.941	1
733.966	-3
733.991	-13
734.015	4
734.04	-1
734.065	2
734.089	5
734.114	5
734.138	9
734.163	-1
734.188	-8
734.212	20
734.237	6
734.261	-5
734.286	-21
734.311	-10
734.335	21
734.36	5
734.384	15
734.409	-1
734.434	-8
734.458	-11
734.483	-17
734.507	-16
734.532	3
734.556	-6
734.581	6
734.606	0
734.63	-12
734.655	4
734.679	-7
734.704	0
734.728	-6
734.753	-15
734.777	-16
734.802	-1
734.826	-2
734.851	0
734.876	1
734.9	8
734.925	14
734.949	-3
734.974	-4
734.998	9
735.023	-9
735.047	-11
735.072	10
735.096	-11
735.121	-5
735.145	-6
735.17	5
735.194	6
735.219	-14
735.243	-9
735.268	6
735.292	8
735.317	2
735.341	-13
735.365	-14
735.39	0
735.414	11
735.439	-4
735.463	-11
735.488	6
735.512	5
735.537	-4
735.561	-6
735.586	-6
735.61	-1
735.634	-8
735.659	-1
735.683	16
735.708	-16
735.732	-21
735.757	-4
735.781	11
735.805	8
735.83	-11
735.854	-1
735.879	-1
735.903	16
735.927	-2
735.952	2
735.976	-9
736.001	5
736.025	1
736.049	2
736.074	-7
736.098	-6
736.123	11
736.147	-6
736.171	3
736.196	6
736.22	-25
736.244	-2
736.269	6
736.293	-3
736.317	3
736.342	-10
736.366	3
736.39	12
736.415	6
736.439	-17
736.463	1
736.488	-2
736.512	3
736.536	-6
736.561	15
736.585	0
736.609	-11
736.634	-14
736.658	10
736.682	-16
736.707	-16
736.731	-5
736.755	6
736.78	19
736.804	14
736.828	5
736.852	-7
736.877	-5
736.901	14
736.925	-2
736.949	3
736.974	6
736.998	-15
737.022	2
737.047	-4
737.071	2
737.095	7
737.119	19
737.144	4
737.168	-6
737.192	0
737.216	11
737.241	-1
737.265	8
737.289	-5
737.313	7
737.337	18
737.362	-3
737.386	2
737.41	-21
737.434	-7
737.459	8
737.483	5
737.507	-3
737.531	16
737.555	10
737.58	7
737.604	6
737.628	-14
737.652	-18
737.676	-18
737.701	1
737.725	4
737.749	-6
737.773	6
737.797	0
737.821	-5
737.846	-9
737.87	19
737.894	-1
737.918	-4
737.942	-7
737.966	15
737.99	7
738.015	-8
738.039	16
738.063	-16
738.087	1
738.111	0
738.135	3
738.159	-3
738.184	-5
738.208	8
738.232	20
738.256	12
738.28	2
738.304	12
738.328	-15
738.352	5
738.376	-5
738.4	8
738.425	13
738.449	-8
738.473	29
738.497	-2
738.521	16
738.545	2
738.569	11
738.593	5
738.617	10
738.641	-13
738.665	6
738.689	9
738.713	10
738.737	12
738.762	7
738.786	-8
738.81	-14
738.834	-4
738.858	-8
738.882	3
738.906	-4
738.93	13
738.954	4
738.978	-9
739.002	-14
739.026	5
739.05	17
739.074	-21
739.098	23
739.122	12
739.146	9
739.17	15
739.194	6
739.218	-6
739.242	-15
739.266	-11
739.29	13
739.314	-1
739.338	-5
739.362	8
739.386	-8
739.41	-14
739.434	-3
739.458	11
739.482	-5
739.506	5
739.53	7
739.554	15
739.577	-14
739.601	12
739.625	-5
739.649	-5
739.673	-8
739.697	-3
739.721	-3
739.745	12
739.769	22
739.793	13
739.817	8
739.841	-10
739.865	6
739.889	4
739.912	24
739.936	-9
739.96	-9
739.984	27
740.008	2
740.032	-10
740.056	-2
740.08	3
740.104	-10
740.127	14
740.151	17
740.175	14
740.199	-11
740.223	46
740.247	9
740.271	7
740.295	-20
740.318	-28
740.342	-20
740.366	3
740.39	9
740.414	-1
740.438	-6
740.461	-4
740.485	7
740.509	-12
740.533	-7
740.557	-10
740.581	1
740.604	-16
740.628	0
740.652	-1
740.676	-12
740.7	10
740.723	-4
740.747	-7
740.771	-7
740.795	-17
740.819	3
740.842	15
740.866	5
740.89	12
740.914	-11
740.938	-15
740.961	8
740.985	-4
741.009	1
741.033	-4
741.056	4
741.08	-3
741.104	-10
741.128	-17
741.151	10
741.175	9
741.199	-13
741.223	12
741.246	-9
741.27	0
741.294	-4
741.318	12
741.341	11
741.365	-1
741.389	-1
741.413	9
741.436	11
741.46	-5
741.484	1
741.507	-5
741.531	21
741.555	18
741.579	1
741.602	14
741.626	4
741.65	-12
741.673	7
741.697	3
741.721	7
741.744	-19
741.768	-11
741.792	-13
741.815	9
741.839	22
741.863	14
741.886	15
741.91	-3
741.934	-9
741.957	-12
741.981	6
742.005	-5
742.028	-4
742.052	7
742.075	-9
742.099	-2
742.123	-11
742.146	-5
742.17	12
742.194	-24
742.217	2
742.241	5
742.264	3
742.288	9
742.312	-1
742.335	8
742.359	0
742.382	21
742.406	11
742.43	-13
742.453	8
742.477	-11
742.5	-4
742.524	-11
742.548	-3
742.571	-11
742.595	-4
742.618	-4
742.642	-20
742.665	0
742.689	-4
742.712	7
742.736	5
742.76	-20
742.783	-10
742.807	14
742.83	14
742.854	-10
742.877	-15
742.901	-12
742.924	-13
742.948	7
742.971	6
742.995	-2
743.018	-17
743.042	-11
743.065	-4
743.089	-12
743.112	7
743.136	-11
743.159	-17
743.183	-8
743.206	4
743.23	-5
743.253	-1
743.277	15
743.3	-1
743.324	-2
743.347	-2
743.371	22
743.394	21
743.418	12
743.441	-4
743.465	8
743.488	8
743.512	-12
743.535	-5
743.558	-9
743.582	-10
743.605	-13
743.629	-2
743.652	-8
743.676	-10
743.699	-6
743.723	3
743.746	8
743.769	-8
743.793	-6
743.816	-6
743.84	20
743.863	-5
743.886	-8
743.91	-1
743.933	8
743.957	3
743.98	-11
744.003	-9
744.027	10
744.05	-3
744.074	2
744.097	-18
744.12	-2
744.144	-1
744.167	11
744.19	9
744.214	-12
744.237	-14
744.26	8
744.284	-1
744.307	-19
744.331	-4
744.354	-9
744.377	-10
744.401	0
744.424	-12
744.447	-14
744.471	-11
