Data from HighRes_mercury_15_13_11_07_2024_HR4C61891__31__15-14-26-286.txt Node

Date: Thu Nov 07 15:14:26 EST 2024
User: crc00042
Spectrometer: HR4C6189
Trigger mode: 4
Integration Time (sec): 1.000000E-1
Scans to average: 1
Electric dark correction enabled: true
Nonlinearity correction enabled: false
Boxcar width: 0
XAxis mode: Wavelengths
Number of Pixels in Spectrum: 3648
>>>>>Begin Spectral Data<<<<<
639.567	-36.38
639.602	-36.38
639.636	-36.38
639.67	-54.38
639.704	-15.38
639.738	-14.38
639.773	11.62
639.807	-8.38
639.841	0.62
639.875	11.62
639.909	-2.38
639.943	-6.38
639.978	9.62
640.012	2.62
640.046	17.62
640.08	-0.38
640.114	-3.38
640.148	-18.38
640.182	-4.38
640.217	-15.38
640.251	13.62
640.285	-4.38
640.319	-5.38
640.353	-15.38
640.387	-10.38
640.421	-20.38
640.455	-5.38
640.49	-10.38
640.524	-13.38
640.558	7.62
640.592	-13.38
640.626	-2.38
640.66	-3.38
640.694	-18.38
640.728	2.62
640.762	0.62
640.796	3.62
640.83	14.62
640.865	4.62
640.899	6.62
640.933	-1.38
640.967	12.62
641.001	8.62
641.035	-6.38
641.069	-13.38
641.103	-3.38
641.137	7.62
641.171	-18.38
641.205	-1.38
641.239	9.62
641.273	24.62
641.307	6.62
641.341	-2.38
641.375	-2.38
641.409	-9.38
641.443	-9.38
641.477	0.62
641.511	6.62
641.545	1.62
641.579	-2.38
641.614	12.62
641.648	0.62
641.682	-6.38
641.716	-5.38
641.75	-9.38
641.784	2.62
641.818	-3.38
641.852	7.62
641.886	1.62
641.919	21.62
641.953	-2.38
641.987	-19.38
642.021	-19.38
642.055	1.62
642.089	4.62
642.123	-12.38
642.157	-7.38
642.191	-13.38
642.225	-12.38
642.259	9.62
642.293	-2.38
642.327	-12.38
642.361	0.62
642.395	5.62
642.429	14.62
642.463	1.62
642.497	24.62
642.531	-7.38
642.565	-12.38
642.599	2.62
642.633	-18.38
642.666	20.62
642.7	0.62
642.734	12.62
642.768	-14.38
642.802	0.62
642.836	2.62
642.87	-26.38
642.904	5.62
642.938	29.62
642.972	13.62
643.005	-1.38
643.039	6.62
643.073	10.62
643.107	2.62
643.141	-9.38
643.175	-4.38
643.209	-8.38
643.243	-7.38
643.276	9.62
643.31	-14.38
643.344	-5.38
643.378	15.62
643.412	8.62
643.446	17.62
643.48	2.62
643.513	5.62
643.547	-14.38
643.581	-12.38
643.615	1.62
643.649	-2.38
643.683	-1.38
643.716	-2.38
643.75	0.62
643.784	-19.38
643.818	-9.38
643.852	-8.38
643.886	-7.38
643.919	7.62
643.953	-0.38
643.987	6.62
644.021	7.62
644.055	8.62
644.088	5.62
644.122	-11.38
644.156	3.62
644.19	-6.38
644.224	0.62
644.257	-2.38
644.291	14.62
644.325	3.62
644.359	5.62
644.392	14.62
644.426	4.62
644.46	0.62
644.494	-6.38
644.527	-18.38
644.561	-7.38
644.595	-4.38
644.629	-2.38
644.662	9.62
644.696	5.62
644.73	-6.38
644.764	1.62
644.797	6.62
644.831	3.62
644.865	-0.38
644.899	-5.38
644.932	14.62
644.966	-6.38
645	14.62
645.033	23.62
645.067	-6.38
645.101	22.62
645.135	-2.38
645.168	-15.38
645.202	-10.38
645.236	-0.38
645.269	16.62
645.303	-0.38
645.337	-4.38
645.37	-4.38
645.404	-6.38
645.438	-4.38
645.471	4.62
645.505	9.62
645.539	10.62
645.572	-10.38
645.606	-16.38
645.64	1.62
645.673	4.62
645.707	19.62
645.741	3.62
645.774	-20.38
645.808	-6.38
645.842	-14.38
645.875	2.62
645.909	-17.38
645.943	-2.38
645.976	-11.38
646.01	-2.38
646.043	-5.38
646.077	-0.38
646.111	2.62
646.144	19.62
646.178	1.62
646.212	-18.38
646.245	-21.38
646.279	-5.38
646.312	8.62
646.346	20.62
646.38	9.62
646.413	7.62
646.447	-0.38
646.48	-6.38
646.514	-12.38
646.547	2.62
646.581	0.62
646.615	-5.38
646.648	-17.38
646.682	12.62
646.715	-1.38
646.749	12.62
646.782	-2.38
646.816	-0.38
646.85	21.62
646.883	-10.38
646.917	4.62
646.95	0.62
646.984	-7.38
647.017	-1.38
647.051	12.62
647.084	1.62
647.118	-4.38
647.151	-10.38
647.185	1.62
647.218	-15.38
647.252	-12.38
647.285	-10.38
647.319	-15.38
647.353	-12.38
647.386	9.62
647.42	-0.38
647.453	-7.38
647.487	5.62
647.52	-2.38
647.553	21.62
647.587	7.62
647.62	-1.38
647.654	-5.38
647.687	4.62
647.721	5.62
647.754	7.62
647.788	-3.38
647.821	-14.38
647.855	4.62
647.888	3.62
647.922	6.62
647.955	-0.38
647.989	0.62
648.022	-22.38
648.055	20.62
648.089	-8.38
648.122	27.62
648.156	-4.38
648.189	-15.38
648.223	3.62
648.256	35.62
648.29	7.62
648.323	-9.38
648.356	4.62
648.39	3.62
648.423	-2.38
648.457	-9.38
648.49	13.62
648.523	17.62
648.557	-15.38
648.59	1.62
648.624	-2.38
648.657	6.62
648.69	3.62
648.724	4.62
648.757	20.62
648.791	2.62
648.824	-0.38
648.857	6.62
648.891	-9.38
648.924	-1.38
648.957	17.62
648.991	-7.38
649.024	12.62
649.057	-11.38
649.091	-7.38
649.124	6.62
649.158	-2.38
649.191	11.62
649.224	-0.38
649.258	13.62
649.291	2.62
649.324	-7.38
649.358	-13.38
649.391	5.62
649.424	-12.38
649.458	-12.38
649.491	-11.38
649.524	-13.38
649.557	-10.38
649.591	-1.38
649.624	14.62
649.657	-6.38
649.691	-8.38
649.724	-1.38
649.757	-5.38
649.791	-1.38
649.824	4.62
649.857	8.62
649.89	-1.38
649.924	-28.38
649.957	-2.38
649.99	-17.38
650.023	-5.38
650.057	-7.38
650.09	-0.38
650.123	-5.38
650.157	3.62
650.19	11.62
650.223	-3.38
650.256	-18.38
650.29	1.62
650.323	-0.38
650.356	11.62
650.389	-6.38
650.423	-25.38
650.456	3.62
650.489	-0.38
650.522	0.62
650.555	1.62
650.589	7.62
650.622	-4.38
650.655	14.62
650.688	-5.38
650.721	-1.38
650.755	-8.38
650.788	1.62
650.821	-2.38
650.854	10.62
650.887	4.62
650.921	-2.38
650.954	-2.38
650.987	2.62
651.02	-15.38
651.053	-7.38
651.087	-0.38
651.12	8.62
651.153	-1.38
651.186	-14.38
651.219	-14.38
651.252	5.62
651.286	3.62
651.319	-8.38
651.352	-3.38
651.385	-3.38
651.418	2.62
651.451	5.62
651.484	-3.38
651.518	-8.38
651.551	26.62
651.584	-11.38
651.617	15.62
651.65	4.62
651.683	17.62
651.716	-9.38
651.749	-9.38
651.783	-11.38
651.816	2.62
651.849	9.62
651.882	-1.38
651.915	1.62
651.948	3.62
651.981	-5.38
652.014	-12.38
652.047	-35.38
652.08	-20.38
652.114	6.62
652.147	-11.38
652.18	-0.38
652.213	12.62
652.246	-17.38
652.279	-11.38
652.312	17.62
652.345	-3.38
652.378	-22.38
652.411	-7.38
652.444	0.62
652.477	5.62
652.51	4.62
652.543	-12.38
652.576	-14.38
652.609	-11.38
652.642	-17.38
652.675	-2.38
652.709	-14.38
652.742	-0.38
652.775	-11.38
652.808	-4.38
652.841	-5.38
652.874	6.62
652.907	3.62
652.94	-20.38
652.973	-11.38
653.006	-6.38
653.039	-4.38
653.072	-11.38
653.105	-12.38
653.138	-16.38
653.171	-27.38
653.204	-7.38
653.237	-4.38
653.27	-20.38
653.303	-6.38
653.336	-7.38
653.368	-17.38
653.401	-12.38
653.434	-17.38
653.467	-3.38
653.5	7.62
653.533	-16.38
653.566	-1.38
653.599	3.62
653.632	1.62
653.665	-0.38
653.698	-8.38
653.731	-26.38
653.764	-16.38
653.797	-13.38
653.83	-1.38
653.863	-8.38
653.896	-16.38
653.929	-15.38
653.961	2.62
653.994	-11.38
654.027	-5.38
654.06	-4.38
654.093	8.62
654.126	-4.38
654.159	-6.38
654.192	-7.38
654.225	-21.38
654.258	-15.38
654.29	0.62
654.323	8.62
654.356	-18.38
654.389	13.62
654.422	-0.38
654.455	-3.38
654.488	-14.38
654.521	-25.38
654.553	-7.38
654.586	3.62
654.619	-14.38
654.652	-18.38
654.685	12.62
654.718	18.62
654.751	4.62
654.783	-15.38
654.816	4.62
654.849	1.62
654.882	-3.38
654.915	-31.38
654.948	-4.38
654.98	-15.38
655.013	-0.38
655.046	-13.38
655.079	-8.38
655.112	6.62
655.144	-8.38
655.177	-16.38
655.21	16.62
655.243	4.62
655.276	-1.38
655.308	-4.38
655.341	-17.38
655.374	21.62
655.407	-4.38
655.44	-1.38
655.472	-2.38
655.505	-10.38
655.538	-7.38
655.571	-1.38
655.603	-3.38
655.636	-5.38
655.669	6.62
655.702	-0.38
655.734	-9.38
655.767	-3.38
655.8	-0.38
655.833	-3.38
655.865	6.62
655.898	-1.38
655.931	-8.38
655.964	-14.38
655.996	-8.38
656.029	28.62
656.062	3.62
656.095	0.62
656.127	-8.38
656.16	-2.38
656.193	3.62
656.225	10.62
656.258	-1.38
656.291	1.62
656.324	-2.38
656.356	15.62
656.389	0.62
656.422	19.62
656.454	-11.38
656.487	3.62
656.52	-1.38
656.552	-23.38
656.585	0.62
656.618	16.62
656.65	4.62
656.683	-2.38
656.716	-1.38
656.748	-1.38
656.781	-12.38
656.814	-4.38
656.846	18.62
656.879	-19.38
656.912	2.62
656.944	-2.38
656.977	-7.38
657.01	-22.38
657.042	12.62
657.075	15.62
657.108	-12.38
657.14	8.62
657.173	8.62
657.205	17.62
657.238	-1.38
657.271	-6.38
657.303	-21.38
657.336	-6.38
657.369	-6.38
657.401	-9.38
657.434	3.62
657.466	11.62
657.499	-13.38
657.532	-8.38
657.564	-2.38
657.597	2.62
657.629	1.62
657.662	1.62
657.694	0.62
657.727	-19.38
657.76	5.62
657.792	-11.38
657.825	-19.38
657.857	-5.38
657.89	-2.38
657.922	-17.38
657.955	-17.38
657.987	-19.38
658.02	-6.38
658.053	0.62
658.085	-6.38
658.118	8.62
658.15	7.62
658.183	7.62
658.215	-9.38
658.248	-16.38
658.28	-0.38
658.313	10.62
658.345	7.62
658.378	8.62
658.41	6.62
658.443	15.62
658.475	-7.38
658.508	-12.38
658.54	16.62
658.573	-10.38
658.605	-4.38
658.638	-4.38
658.67	-11.38
658.703	-11.38
658.735	-17.38
658.768	-10.38
658.8	-0.38
658.833	12.62
658.865	4.62
658.898	13.62
658.93	-13.38
658.963	0.62
658.995	-19.38
659.028	-4.38
659.06	-11.38
659.092	-10.38
659.125	-3.38
659.157	-1.38
659.19	0.62
659.222	-9.38
659.255	-6.38
659.287	-4.38
659.32	3.62
659.352	1.62
659.384	23.62
659.417	1.62
659.449	-10.38
659.482	2.62
659.514	-1.38
659.546	-6.38
659.579	-14.38
659.611	6.62
659.644	-22.38
659.676	-22.38
659.708	-20.38
659.741	-16.38
659.773	-2.38
659.806	2.62
659.838	-2.38
659.87	-8.38
659.903	-22.38
659.935	-5.38
659.967	-1.38
660	1.62
660.032	-3.38
660.065	11.62
660.097	7.62
660.129	-18.38
660.162	-31.38
660.194	9.62
660.226	7.62
660.259	0.62
660.291	-3.38
660.323	-11.38
660.356	4.62
660.388	5.62
660.42	-12.38
660.453	-0.38
660.485	-7.38
660.517	15.62
660.55	0.62
660.582	-5.38
660.614	7.62
660.647	-0.38
660.679	-2.38
660.711	6.62
660.743	-15.38
660.776	-10.38
660.808	-10.38
660.84	-15.38
660.873	-6.38
660.905	-10.38
660.937	-10.38
660.969	-5.38
661.002	-7.38
661.034	6.62
661.066	6.62
661.099	-4.38
661.131	11.62
661.163	-1.38
661.195	-1.38
661.228	-11.38
661.26	-1.38
661.292	-8.38
661.324	-9.38
661.357	-14.38
661.389	3.62
661.421	-12.38
661.453	-25.38
661.485	-5.38
661.518	4.62
661.55	-4.38
661.582	-28.38
661.614	11.62
661.647	23.62
661.679	2.62
661.711	1.62
661.743	-13.38
661.775	-10.38
661.808	19.62
661.84	-19.38
661.872	3.62
661.904	-1.38
661.936	1.62
661.969	-2.38
662.001	-9.38
662.033	4.62
662.065	-24.38
662.097	10.62
662.129	8.62
662.162	-17.38
662.194	0.62
662.226	-0.38
662.258	2.62
662.29	-2.38
662.322	-18.38
662.355	-9.38
662.387	15.62
662.419	-0.38
662.451	3.62
662.483	-6.38
662.515	-0.38
662.547	7.62
662.58	-0.38
662.612	-1.38
662.644	-14.38
662.676	-8.38
662.708	15.62
662.74	-2.38
662.772	11.62
662.804	5.62
662.836	9.62
662.869	-1.38
662.901	17.62
662.933	15.62
662.965	21.62
662.997	9.62
663.029	-17.38
663.061	-1.38
663.093	-17.38
663.125	5.62
663.157	5.62
663.189	11.62
663.221	5.62
663.254	-12.38
663.286	-2.38
663.318	-5.38
663.35	2.62
663.382	-0.38
663.414	-8.38
663.446	4.62
663.478	-3.38
663.51	20.62
663.542	-3.38
663.574	6.62
663.606	-0.38
663.638	-19.38
663.67	-6.38
663.702	-2.38
663.734	-4.38
663.766	0.62
663.798	-3.38
663.83	0.62
663.862	0.62
663.894	2.62
663.926	-14.38
663.958	5.62
663.99	6.62
664.022	-4.38
664.054	7.62
664.086	-24.38
664.118	-10.38
664.15	-12.38
664.182	2.62
664.214	-12.38
664.246	5.62
664.278	3.62
664.31	-11.38
664.342	-0.38
664.374	-2.38
664.406	-16.38
664.438	-3.38
664.47	13.62
664.502	-16.38
664.534	-1.38
664.566	5.62
664.598	-1.38
664.63	-8.38
664.662	18.62
664.693	-1.38
664.725	-0.38
664.757	-4.38
664.789	-31.38
664.821	-9.38
664.853	-4.38
664.885	-0.38
664.917	-10.38
664.949	11.62
664.981	16.62
665.013	5.62
665.045	-12.38
665.076	-10.38
665.108	-14.38
665.14	7.62
665.172	15.62
665.204	-12.38
665.236	7.62
665.268	16.62
665.3	-8.38
665.331	0.62
665.363	-7.38
665.395	-12.38
665.427	-18.38
665.459	7.62
665.491	-5.38
665.523	-2.38
665.555	-17.38
665.586	-3.38
665.618	4.62
665.65	-15.38
665.682	-8.38
665.714	-6.38
665.746	-4.38
665.777	-8.38
665.809	-2.38
665.841	9.62
665.873	-1.38
665.905	4.62
665.937	3.62
665.968	-13.38
666	-16.38
666.032	-6.38
666.064	-4.38
666.096	-8.38
666.127	-3.38
666.159	13.62
666.191	4.62
666.223	2.62
666.255	2.62
666.286	3.62
666.318	4.62
666.35	8.62
666.382	0.62
666.413	-15.38
666.445	-25.38
666.477	-15.38
666.509	3.62
666.54	-1.38
666.572	-1.38
666.604	-5.38
666.636	-16.38
666.667	14.62
666.699	2.62
666.731	-14.38
666.763	-6.38
666.794	-11.38
666.826	5.62
666.858	-10.38
666.89	12.62
666.921	-2.38
666.953	-7.38
666.985	14.62
667.017	12.62
667.048	-2.38
667.08	-16.38
667.112	-18.38
667.143	-0.38
667.175	3.62
667.207	-8.38
667.238	6.62
667.27	-4.38
667.302	-8.38
667.334	3.62
667.365	14.62
667.397	-8.38
667.429	-6.38
667.46	17.62
667.492	7.62
667.524	-16.38
667.555	-9.38
667.587	1.62
667.619	-5.38
667.65	-19.38
667.682	-7.38
667.714	-5.38
667.745	0.62
667.777	10.62
667.808	-9.38
667.84	-0.38
667.872	-15.38
667.903	13.62
667.935	2.62
667.967	10.62
667.998	0.62
668.03	-2.38
668.061	-10.38
668.093	-18.38
668.125	2.62
668.156	12.62
668.188	-10.38
668.22	-13.38
668.251	5.62
668.283	-3.38
668.314	21.62
668.346	4.62
668.377	6.62
668.409	10.62
668.441	16.62
668.472	17.62
668.504	5.62
668.535	0.62
668.567	19.62
668.599	10.62
668.63	1.62
668.662	-13.38
668.693	4.62
668.725	2.62
668.756	-4.38
668.788	-1.38
668.819	0.62
668.851	1.62
668.882	12.62
668.914	-14.38
668.946	-5.38
668.977	-7.38
669.009	-3.38
669.04	-3.38
669.072	3.62
669.103	-10.38
669.135	-19.38
669.166	-13.38
669.198	2.62
669.229	4.62
669.261	-8.38
669.292	1.62
669.324	12.62
669.355	-9.38
669.387	-21.38
669.418	5.62
669.45	-10.38
669.481	1.62
669.513	0.62
669.544	-9.38
669.576	-1.38
669.607	1.62
669.639	1.62
669.67	-11.38
669.701	11.62
669.733	-17.38
669.764	1.62
669.796	-18.38
669.827	-22.38
669.859	-6.38
669.89	-2.38
669.922	-2.38
669.953	-7.38
669.985	0.62
670.016	9.62
670.047	-9.38
670.079	-5.38
670.11	0.62
670.142	-10.38
670.173	1.62
670.204	10.62
670.236	2.62
670.267	1.62
670.299	-2.38
670.33	-6.38
670.362	3.62
670.393	-12.38
670.424	3.62
670.456	1.62
670.487	-14.38
670.518	-0.38
670.55	-5.38
670.581	0.62
670.613	-0.38
670.644	-19.38
670.675	-18.38
670.707	-7.38
670.738	2.62
670.769	-11.38
670.801	-35.38
670.832	4.62
670.864	-17.38
670.895	-3.38
670.926	-17.38
670.958	-1.38
670.989	-16.38
671.02	-6.38
671.052	-5.38
671.083	-1.38
671.114	2.62
671.146	5.62
671.177	-8.38
671.208	-32.38
671.24	-23.38
671.271	5.62
671.302	-3.38
671.333	-10.38
671.365	-16.38
671.396	-10.38
671.427	-1.38
671.459	-0.38
671.49	3.62
671.521	-6.38
671.553	-6.38
671.584	7.62
671.615	-0.38
671.646	-1.38
671.678	7.62
671.709	-3.38
671.74	-13.38
671.771	-8.38
671.803	2.62
671.834	-20.38
671.865	1.62
671.896	3.62
671.928	-6.38
671.959	-25.38
671.99	-14.38
672.021	-13.38
672.053	-22.38
672.084	4.62
672.115	-0.38
672.146	-3.38
672.178	-19.38
672.209	-5.38
672.24	-6.38
672.271	20.62
672.303	-0.38
672.334	5.62
672.365	-13.38
672.396	-0.38
672.427	12.62
672.459	5.62
672.49	11.62
672.521	3.62
672.552	8.62
672.583	-15.38
672.615	0.62
672.646	19.62
672.677	-13.38
672.708	-10.38
672.739	-3.38
672.77	-0.38
672.802	-9.38
672.833	-7.38
672.864	-5.38
672.895	-12.38
672.926	-8.38
672.957	-2.38
672.989	-8.38
673.02	-3.38
673.051	-8.38
673.082	5.62
673.113	-4.38
673.144	1.62
673.175	-0.38
673.206	-7.38
673.238	-5.38
673.269	-1.38
673.3	-5.38
673.331	0.62
673.362	-2.38
673.393	1.62
673.424	-2.38
673.455	8.62
673.487	9.62
673.518	9.62
673.549	-5.38
673.58	-5.38
673.611	17.62
673.642	-6.38
673.673	-21.38
673.704	1.62
673.735	-5.38
673.766	-1.38
673.797	-2.38
673.828	-2.38
673.86	2.62
673.891	-13.38
673.922	-23.38
673.953	-16.38
673.984	6.62
674.015	-1.38
674.046	14.62
674.077	12.62
674.108	-12.38
674.139	-5.38
674.17	-2.38
674.201	-8.38
674.232	-6.38
674.263	0.62
674.294	-8.38
674.325	-14.38
674.356	4.62
674.387	-6.38
674.418	4.62
674.449	-10.38
674.48	-2.38
674.511	-10.38
674.542	13.62
674.573	-12.38
674.604	12.62
674.635	-9.38
674.666	1.62
674.697	5.62
674.728	-9.38
674.759	-28.38
674.79	-6.38
674.821	-1.38
674.852	-10.38
674.883	5.62
674.914	0.62
674.945	13.62
674.976	-14.38
675.007	-16.38
675.038	-12.38
675.069	-15.38
675.1	-2.38
675.131	-1.38
675.162	-6.38
675.193	-11.38
675.224	-16.38
675.254	-0.38
675.285	10.62
675.316	10.62
675.347	3.62
675.378	-13.38
675.409	-19.38
675.44	9.62
675.471	0.62
675.502	-7.38
675.533	7.62
675.564	1.62
675.595	1.62
675.625	13.62
675.656	10.62
675.687	-2.38
675.718	-18.38
675.749	7.62
675.78	7.62
675.811	-15.38
675.842	-6.38
675.873	8.62
675.903	-4.38
675.934	-4.38
675.965	-15.38
675.996	-11.38
676.027	4.62
676.058	-7.38
676.089	-0.38
676.119	2.62
676.15	-11.38
676.181	-1.38
676.212	-6.38
676.243	-2.38
676.274	5.62
676.304	2.62
676.335	0.62
676.366	-11.38
676.397	-1.38
676.428	-2.38
676.459	-3.38
676.489	6.62
676.52	-1.38
676.551	-4.38
676.582	-10.38
676.613	3.62
676.643	0.62
676.674	-11.38
676.705	4.62
676.736	-6.38
676.767	10.62
676.797	6.62
676.828	1.62
676.859	-16.38
676.89	0.62
676.92	-7.38
676.951	-3.38
676.982	-1.38
677.013	-5.38
677.044	15.62
677.074	27.62
677.105	-10.38
677.136	14.62
677.167	-0.38
677.197	6.62
677.228	-14.38
677.259	-21.38
677.289	6.62
677.32	-11.38
677.351	-16.38
677.382	-11.38
677.412	-9.38
677.443	1.62
677.474	-7.38
677.505	-15.38
677.535	-1.38
677.566	3.62
677.597	-3.38
677.627	-8.38
677.658	-21.38
677.689	-1.38
677.72	1.62
677.75	10.62
677.781	3.62
677.812	-1.38
677.842	1.62
677.873	5.62
677.904	6.62
677.934	3.62
677.965	4.62
677.996	-18.38
678.026	-14.38
678.057	-3.38
678.088	-5.38
678.118	-9.38
678.149	-15.38
678.18	-14.38
678.21	11.62
678.241	2.62
678.272	-0.38
678.302	6.62
678.333	11.62
678.363	2.62
678.394	10.62
678.425	-14.38
678.455	-0.38
678.486	16.62
678.517	4.62
678.547	6.62
678.578	1.62
678.608	-6.38
678.639	15.62
678.67	-1.38
678.7	-23.38
678.731	3.62
678.761	-6.38
678.792	0.62
678.823	16.62
678.853	-4.38
678.884	-6.38
678.914	3.62
678.945	-10.38
678.975	-9.38
679.006	8.62
679.037	-10.38
679.067	20.62
679.098	6.62
679.128	-30.38
679.159	1.62
679.189	-4.38
679.22	-25.38
679.25	11.62
679.281	-8.38
679.312	-0.38
679.342	7.62
679.373	14.62
679.403	-0.38
679.434	-5.38
679.464	3.62
679.495	0.62
679.525	0.62
679.556	-2.38
679.586	4.62
679.617	6.62
679.647	10.62
679.678	8.62
679.708	-11.38
679.739	-16.38
679.769	-13.38
679.8	-11.38
679.83	-6.38
679.861	-4.38
679.891	-0.38
679.922	-28.38
679.952	-12.38
679.983	0.62
680.013	-2.38
680.044	-0.38
680.074	10.62
680.105	-2.38
680.135	-0.38
680.165	3.62
680.196	-0.38
680.226	10.62
680.257	9.62
680.287	-2.38
680.318	4.62
680.348	-8.38
680.379	23.62
680.409	-0.38
680.439	1.62
680.47	7.62
680.5	-5.38
680.531	-5.38
680.561	16.62
680.592	-2.38
680.622	-2.38
680.652	-12.38
680.683	-3.38
680.713	-1.38
680.744	-23.38
680.774	-18.38
680.804	12.62
680.835	-3.38
680.865	-11.38
680.896	8.62
680.926	-0.38
680.956	-18.38
680.987	-0.38
681.017	-3.38
681.047	-12.38
681.078	-2.38
681.108	-3.38
681.139	3.62
681.169	-13.38
681.199	-4.38
681.23	8.62
681.26	-2.38
681.29	-10.38
681.321	-13.38
681.351	-14.38
681.381	-11.38
681.412	-8.38
681.442	-11.38
681.472	21.62
681.503	13.62
681.533	-1.38
681.563	-4.38
681.594	5.62
681.624	9.62
681.654	-11.38
681.685	-12.38
681.715	-10.38
681.745	-11.38
681.775	-20.38
681.806	-7.38
681.836	1.62
681.866	-11.38
681.897	-6.38
681.927	4.62
681.957	-17.38
681.987	-5.38
682.018	-14.38
682.048	1.62
682.078	-10.38
682.109	6.62
682.139	5.62
682.169	-2.38
682.199	2.62
682.23	-22.38
682.26	-3.38
682.29	-6.38
682.32	-16.38
682.351	-8.38
682.381	-15.38
682.411	-6.38
682.441	-9.38
682.472	-23.38
682.502	-12.38
682.532	-5.38
682.562	1.62
682.592	4.62
682.623	8.62
682.653	6.62
682.683	-10.38
682.713	-4.38
682.743	2.62
682.774	-22.38
682.804	14.62
682.834	17.62
682.864	-7.38
682.894	-5.38
682.925	2.62
682.955	-6.38
682.985	-9.38
683.015	1.62
683.045	12.62
683.076	-23.38
683.106	-4.38
683.136	1.62
683.166	-17.38
683.196	-14.38
683.226	-9.38
683.257	-3.38
683.287	-1.38
683.317	-2.38
683.347	-14.38
683.377	-3.38
683.407	-6.38
683.437	-1.38
683.468	2.62
683.498	3.62
683.528	2.62
683.558	-27.38
683.588	-19.38
683.618	-7.38
683.648	-13.38
683.678	-10.38
683.708	0.62
683.739	-0.38
683.769	-10.38
683.799	-18.38
683.829	-11.38
683.859	14.62
683.889	1.62
683.919	-5.38
683.949	0.62
683.979	-18.38
684.009	-1.38
684.039	-2.38
684.07	3.62
684.1	13.62
684.13	-9.38
684.16	2.62
684.19	-11.38
684.22	4.62
684.25	3.62
684.28	-27.38
684.31	9.62
684.34	7.62
684.37	7.62
684.4	-15.38
684.43	3.62
684.46	-5.38
684.49	-6.38
684.52	-9.38
684.55	1.62
684.58	3.62
684.61	4.62
684.64	12.62
684.67	7.62
684.7	1.62
684.73	6.62
684.76	5.62
684.79	4.62
684.82	-6.38
684.85	-3.38
684.88	7.62
684.91	3.62
684.94	-3.38
684.97	-12.38
685	-17.38
685.03	-15.38
685.06	-4.38
685.09	-2.38
685.12	15.62
685.15	-24.38
685.18	-0.38
685.21	-4.38
685.24	-0.38
685.27	10.62
685.3	-3.38
685.33	-2.38
685.36	3.62
685.39	-10.38
685.42	-6.38
685.45	-0.38
685.48	0.62
685.51	-8.38
685.54	1.62
685.569	10.62
685.599	5.62
685.629	7.62
685.659	-8.38
685.689	-6.38
685.719	-6.38
685.749	-13.38
685.779	-2.38
685.809	9.62
685.839	4.62
685.869	-0.38
685.898	19.62
685.928	-13.38
685.958	-7.38
685.988	2.62
686.018	-10.38
686.048	0.62
686.078	10.62
686.108	22.62
686.137	6.62
686.167	-4.38
686.197	-23.38
686.227	-8.38
686.257	13.62
686.287	9.62
686.317	-11.38
686.346	12.62
686.376	-18.38
686.406	-7.38
686.436	-3.38
686.466	13.62
686.496	20.62
686.525	1.62
686.555	-4.38
686.585	-1.38
686.615	16.62
686.645	4.62
686.675	3.62
686.704	-0.38
686.734	13.62
686.764	-3.38
686.794	-1.38
686.824	8.62
686.853	9.62
686.883	16.62
686.913	16.62
686.943	-11.38
686.973	-2.38
687.002	11.62
687.032	10.62
687.062	-19.38
687.092	-6.38
687.121	-13.38
687.151	-11.38
687.181	4.62
687.211	-0.38
687.24	-4.38
687.27	-6.38
687.3	-5.38
687.33	-13.38
687.359	-21.38
687.389	8.62
687.419	6.62
687.449	5.62
687.478	14.62
687.508	-2.38
687.538	6.62
687.568	0.62
687.597	-15.38
687.627	-6.38
687.657	4.62
687.686	-5.38
687.716	20.62
687.746	-13.38
687.776	3.62
687.805	-3.38
687.835	-2.38
687.865	9.62
687.894	11.62
687.924	3.62
687.954	2.62
687.983	-4.38
688.013	0.62
688.043	0.62
688.072	-1.38
688.102	5.62
688.132	-5.38
688.161	4.62
688.191	-1.38
688.221	22.62
688.25	-15.38
688.28	5.62
688.31	-0.38
688.339	3.62
688.369	-2.38
688.399	-19.38
688.428	-13.38
688.458	-6.38
688.488	-0.38
688.517	12.62
688.547	7.62
688.576	13.62
688.606	10.62
688.636	-30.38
688.665	-0.38
688.695	8.62
688.725	4.62
688.754	-6.38
688.784	5.62
688.813	2.62
688.843	2.62
688.873	6.62
688.902	-5.38
688.932	6.62
688.961	1.62
688.991	21.62
689.02	-1.38
689.05	-15.38
689.08	17.62
689.109	18.62
689.139	-10.38
689.168	2.62
689.198	10.62
689.227	-4.38
689.257	-14.38
689.287	-0.38
689.316	5.62
689.346	-7.38
689.375	-10.38
689.405	6.62
689.434	-13.38
689.464	-0.38
689.493	7.62
689.523	-7.38
689.552	-8.38
689.582	-3.38
689.611	-14.38
689.641	12.62
689.67	4.62
689.7	5.62
689.73	4.62
689.759	-1.38
689.789	17.62
689.818	3.62
689.848	-10.38
689.877	-0.38
689.906	-19.38
689.936	-6.38
689.965	-2.38
689.995	-4.38
690.024	24.62
690.054	13.62
690.083	-5.38
690.113	-6.38
690.142	16.62
690.172	0.62
690.201	2.62
690.231	8.62
690.26	6.62
690.29	-3.38
690.319	12.62
690.348	-1.38
690.378	-2.38
690.407	0.62
690.437	-16.38
690.466	-5.38
690.496	-6.38
690.525	6.62
690.555	-10.38
690.584	-14.38
690.613	-14.38
690.643	2.62
690.672	2.62
690.702	1.62
690.731	2.62
690.76	20.62
690.79	37.62
690.819	42.62
690.849	33.62
690.878	14.62
690.907	15.62
690.937	27.62
690.966	27.62
690.996	-1.38
691.025	7.62
691.054	-5.38
691.084	4.62
691.113	-3.38
691.142	-10.38
691.172	-11.38
691.201	11.62
691.23	4.62
691.26	24.62
691.289	8.62
691.319	-10.38
691.348	-11.38
691.377	6.62
691.407	5.62
691.436	15.62
691.465	13.62
691.495	-3.38
691.524	-6.38
691.553	-3.38
691.583	-5.38
691.612	-10.38
691.641	-5.38
691.67	-13.38
691.7	9.62
691.729	-21.38
691.758	0.62
691.788	-7.38
691.817	4.62
691.846	-2.38
691.876	-19.38
691.905	-5.38
691.934	-6.38
691.963	5.62
691.993	13.62
692.022	-0.38
692.051	-5.38
692.081	11.62
692.11	18.62
692.139	6.62
692.168	2.62
692.198	22.62
692.227	6.62
692.256	13.62
692.285	11.62
692.315	-9.38
692.344	1.62
692.373	8.62
692.402	-20.38
692.432	-25.38
692.461	-12.38
692.49	-3.38
692.519	-2.38
692.548	2.62
692.578	6.62
692.607	-13.38
692.636	-22.38
692.665	7.62
692.694	-6.38
692.724	-2.38
692.753	7.62
692.782	-3.38
692.811	-21.38
692.84	-13.38
692.87	-4.38
692.899	-1.38
692.928	-10.38
692.957	-2.38
692.986	7.62
693.016	-3.38
693.045	-2.38
693.074	17.62
693.103	-7.38
693.132	-0.38
693.161	-18.38
693.191	-15.38
693.22	-10.38
693.249	-10.38
693.278	-13.38
693.307	6.62
693.336	-15.38
693.365	-18.38
693.395	-4.38
693.424	4.62
693.453	10.62
693.482	-2.38
693.511	-1.38
693.54	-6.38
693.569	5.62
693.598	-13.38
693.628	12.62
693.657	12.62
693.686	17.62
693.715	9.62
693.744	10.62
693.773	1.62
693.802	-0.38
693.831	-3.38
693.86	14.62
693.889	-13.38
693.919	-3.38
693.948	-8.38
693.977	2.62
694.006	-11.38
694.035	1.62
694.064	-3.38
694.093	-0.38
694.122	-0.38
694.151	4.62
694.18	12.62
694.209	25.62
694.238	3.62
694.267	14.62
694.296	5.62
694.325	1.62
694.354	0.62
694.383	17.62
694.412	-16.38
694.441	-9.38
694.471	-9.38
694.5	-13.38
694.529	-5.38
694.558	18.62
694.587	10.62
694.616	-4.38
694.645	-0.38
694.674	10.62
694.703	9.62
694.732	5.62
694.761	6.62
694.79	-2.38
694.819	-25.38
694.848	-11.38
694.877	11.62
694.906	21.62
694.935	11.62
694.963	25.62
694.992	-7.38
695.021	-6.38
695.05	-0.38
695.079	-2.38
695.108	-6.38
695.137	20.62
695.166	-1.38
695.195	-14.38
695.224	7.62
695.253	-6.38
695.282	3.62
695.311	3.62
695.34	-7.38
695.369	9.62
695.398	-1.38
695.427	20.62
695.456	7.62
695.485	9.62
695.513	11.62
695.542	-2.38
695.571	3.62
695.6	16.62
695.629	7.62
695.658	6.62
695.687	1.62
695.716	-4.38
695.745	20.62
695.774	-19.38
695.802	-12.38
695.831	-1.38
695.86	15.62
695.889	-0.38
695.918	6.62
695.947	-4.38
695.976	2.62
696.005	1.62
696.033	-7.38
696.062	7.62
696.091	-6.38
696.12	7.62
696.149	16.62
696.178	-16.38
696.207	2.62
696.235	-15.38
696.264	-0.38
696.293	7.62
696.322	11.62
696.351	20.62
696.38	-4.38
696.408	1.62
696.437	-0.38
696.466	17.62
696.495	15.62
696.524	15.62
696.553	12.62
696.581	-0.38
696.61	-3.38
696.639	5.62
696.668	10.62
696.697	2.62
696.725	17.62
696.754	2.62
696.783	-5.38
696.812	-6.38
696.84	6.62
696.869	4.62
696.898	-13.38
696.927	2.62
696.956	0.62
696.984	-6.38
697.013	-5.38
697.042	-0.38
697.071	0.62
697.099	5.62
697.128	0.62
697.157	-8.38
697.186	-2.38
697.214	6.62
697.243	-2.38
697.272	3.62
697.301	22.62
697.329	1.62
697.358	5.62
697.387	17.62
697.415	-2.38
697.444	-4.38
697.473	0.62
697.502	-17.38
697.53	4.62
697.559	0.62
697.588	4.62
697.616	-15.38
697.645	0.62
697.674	-0.38
697.703	-15.38
697.731	-5.38
697.76	18.62
697.789	-5.38
697.817	-2.38
697.846	18.62
697.875	-0.38
697.903	-1.38
697.932	5.62
697.961	5.62
697.989	13.62
698.018	5.62
698.047	9.62
698.075	6.62
698.104	-10.38
698.133	-7.38
698.161	-2.38
698.19	-5.38
698.218	-5.38
698.247	12.62
698.276	-0.38
698.304	-5.38
698.333	-6.38
698.362	9.62
698.39	1.62
698.419	1.62
698.447	-9.38
698.476	-2.38
698.505	20.62
698.533	2.62
698.562	9.62
698.591	-5.38
698.619	-15.38
698.648	-8.38
698.676	-2.38
698.705	-15.38
698.733	-35.38
698.762	3.62
698.791	0.62
698.819	1.62
698.848	-5.38
698.876	2.62
698.905	3.62
698.933	-1.38
698.962	4.62
698.991	-4.38
699.019	13.62
699.048	-2.38
699.076	-5.38
699.105	-5.38
699.133	-17.38
699.162	2.62
699.19	9.62
699.219	3.62
699.248	-5.38
699.276	4.62
699.305	-10.38
699.333	7.62
699.362	-2.38
699.39	-4.38
699.419	-1.38
699.447	0.62
699.476	4.62
699.504	-20.38
699.533	-13.38
699.561	-19.38
699.59	-10.38
699.618	-9.38
699.647	11.62
699.675	-1.38
699.704	4.62
699.732	-14.38
699.761	22.62
699.789	-10.38
699.818	-5.38
699.846	-5.38
699.874	2.62
699.903	-8.38
699.931	0.62
699.96	-7.38
699.988	-0.38
700.017	-11.38
700.045	-4.38
700.074	-9.38
700.102	-10.38
700.13	-8.38
700.159	-3.38
700.187	8.62
700.216	-2.38
700.244	-3.38
700.273	1.62
700.301	-2.38
700.329	9.62
700.358	5.62
700.386	-3.38
700.415	-10.38
700.443	-7.38
700.472	7.62
700.5	-5.38
700.528	14.62
700.557	2.62
700.585	-6.38
700.614	-2.38
700.642	6.62
700.67	20.62
700.699	14.62
700.727	-3.38
700.755	2.62
700.784	1.62
700.812	5.62
700.841	14.62
700.869	-0.38
700.897	-14.38
700.926	1.62
700.954	5.62
700.982	-5.38
701.011	2.62
701.039	4.62
701.067	2.62
701.096	-6.38
701.124	-19.38
701.152	-4.38
701.181	-16.38
701.209	-15.38
701.237	-11.38
701.266	-27.38
701.294	-8.38
701.322	-4.38
701.351	-3.38
701.379	-1.38
701.407	-2.38
701.435	8.62
701.464	12.62
701.492	22.62
701.52	-2.38
701.549	-0.38
701.577	-23.38
701.605	-7.38
701.634	3.62
701.662	-6.38
701.69	-19.38
701.718	-17.38
701.747	-2.38
701.775	-7.38
701.803	-5.38
701.831	9.62
701.86	-5.38
701.888	-6.38
701.916	-1.38
701.944	-10.38
701.973	-12.38
702.001	-9.38
702.029	-8.38
702.057	-4.38
702.086	-21.38
702.114	-17.38
702.142	-11.38
702.17	-14.38
702.199	-3.38
702.227	-2.38
702.255	1.62
702.283	-15.38
702.311	10.62
702.34	-7.38
702.368	-5.38
702.396	-3.38
702.424	-4.38
702.452	-6.38
702.481	-3.38
702.509	-11.38
702.537	13.62
702.565	-1.38
702.593	-19.38
702.621	-7.38
702.65	-2.38
702.678	7.62
702.706	11.62
702.734	4.62
702.762	-6.38
702.79	-0.38
702.819	1.62
702.847	-1.38
702.875	18.62
702.903	1.62
702.931	-5.38
702.959	-3.38
702.988	14.62
703.016	-14.38
703.044	-18.38
703.072	-6.38
703.1	-0.38
703.128	-4.38
703.156	-7.38
703.184	-10.38
703.212	7.62
703.241	-5.38
703.269	-11.38
703.297	-3.38
703.325	1.62
703.353	-1.38
703.381	-10.38
703.409	-13.38
703.437	-15.38
703.465	-0.38
703.493	-5.38
703.522	-9.38
703.55	-4.38
703.578	9.62
703.606	-3.38
703.634	-13.38
703.662	-7.38
703.69	-3.38
703.718	-2.38
703.746	6.62
703.774	-12.38
703.802	19.62
703.83	16.62
703.858	1.62
703.886	-10.38
703.914	-9.38
703.942	0.62
703.97	6.62
703.998	-20.38
704.027	11.62
704.055	4.62
704.083	-0.38
704.111	-7.38
704.139	1.62
704.167	2.62
704.195	-0.38
704.223	-2.38
704.251	-2.38
704.279	-8.38
704.307	-1.38
704.335	-14.38
704.363	-10.38
704.391	-7.38
704.419	-7.38
704.447	2.62
704.475	7.62
704.503	-6.38
704.531	-4.38
704.558	13.62
704.586	-9.38
704.614	-17.38
704.642	-6.38
704.67	-1.38
704.698	-10.38
704.726	-3.38
704.754	7.62
704.782	-1.38
704.81	-11.38
704.838	10.62
704.866	5.62
704.894	-7.38
704.922	-4.38
704.95	15.62
704.978	19.62
705.006	0.62
705.034	10.62
705.061	-20.38
705.089	-21.38
705.117	-26.38
705.145	-5.38
705.173	-2.38
705.201	3.62
705.229	8.62
705.257	6.62
705.285	-4.38
705.313	1.62
705.34	-1.38
705.368	-12.38
705.396	3.62
705.424	0.62
705.452	-8.38
705.48	-1.38
705.508	-12.38
705.536	-6.38
705.563	6.62
705.591	1.62
705.619	-0.38
705.647	-14.38
705.675	-7.38
705.703	-12.38
705.731	0.62
705.758	17.62
705.786	1.62
705.814	22.62
705.842	14.62
705.87	14.62
705.898	5.62
705.925	-14.38
705.953	-7.38
705.981	-12.38
706.009	-9.38
706.037	0.62
706.065	-9.38
706.092	-9.38
706.12	-13.38
706.148	-6.38
706.176	-8.38
706.204	4.62
706.231	-1.38
706.259	-21.38
706.287	-16.38
706.315	1.62
706.342	-5.38
706.37	5.62
706.398	10.62
706.426	3.62
706.454	-13.38
706.481	7.62
706.509	8.62
706.537	-6.38
706.565	-11.38
706.592	10.62
706.62	3.62
706.648	6.62
706.676	-7.38
706.703	-6.38
706.731	-2.38
706.759	-12.38
706.787	12.62
706.814	9.62
706.842	-0.38
706.87	2.62
706.897	3.62
706.925	-12.38
706.953	11.62
706.981	8.62
707.008	-4.38
707.036	1.62
707.064	1.62
707.091	-19.38
707.119	3.62
707.147	-6.38
707.174	-17.38
707.202	-8.38
707.23	-23.38
707.258	9.62
707.285	-3.38
707.313	-1.38
707.341	-20.38
707.368	-10.38
707.396	7.62
707.424	7.62
707.451	-3.38
707.479	2.62
707.507	-18.38
707.534	-10.38
707.562	5.62
707.59	-9.38
707.617	-7.38
707.645	-1.38
707.672	6.62
707.7	11.62
707.728	23.62
707.755	-0.38
707.783	-7.38
707.811	3.62
707.838	-2.38
707.866	-12.38
707.893	-0.38
707.921	-11.38
707.949	-18.38
707.976	5.62
708.004	-13.38
708.031	-9.38
708.059	-11.38
708.087	0.62
708.114	-7.38
708.142	-22.38
708.169	-8.38
708.197	-1.38
708.225	-7.38
708.252	1.62
708.28	16.62
708.307	7.62
708.335	-1.38
708.362	-6.38
708.39	-20.38
708.418	-9.38
708.445	-10.38
708.473	-30.38
708.5	-3.38
708.528	16.62
708.555	5.62
708.583	-12.38
708.61	-9.38
708.638	-7.38
708.665	-7.38
708.693	-5.38
708.72	-2.38
708.748	-7.38
708.776	6.62
708.803	26.62
708.831	18.62
708.858	21.62
708.886	-6.38
708.913	2.62
708.941	-2.38
708.968	4.62
708.996	-6.38
709.023	22.62
709.051	-13.38
709.078	-15.38
709.105	-10.38
709.133	0.62
709.16	-5.38
709.188	14.62
709.215	4.62
709.243	1.62
709.27	-10.38
709.298	5.62
709.325	-0.38
709.353	-0.38
709.38	-7.38
709.408	-2.38
709.435	3.62
709.462	-5.38
709.49	5.62
709.517	-5.38
709.545	-8.38
709.572	11.62
709.6	1.62
709.627	-3.38
709.655	0.62
709.682	-15.38
709.709	-2.38
709.737	-11.38
709.764	-15.38
709.792	1.62
709.819	-12.38
709.846	-11.38
709.874	-12.38
709.901	22.62
709.929	17.62
709.956	2.62
709.983	-2.38
710.011	-12.38
710.038	-12.38
710.066	1.62
710.093	6.62
710.12	-11.38
710.148	-14.38
710.175	-2.38
710.202	-7.38
710.23	6.62
710.257	-5.38
710.284	1.62
710.312	-6.38
710.339	-10.38
710.366	-6.38
710.394	2.62
710.421	2.62
710.448	0.62
710.476	-7.38
710.503	5.62
710.53	17.62
710.558	16.62
710.585	4.62
710.612	-15.38
710.64	-11.38
710.667	-3.38
710.694	-15.38
710.722	-1.38
710.749	-9.38
710.776	-16.38
710.804	10.62
710.831	14.62
710.858	1.62
710.885	3.62
710.913	-12.38
710.94	17.62
710.967	-4.38
710.995	2.62
711.022	-9.38
711.049	6.62
711.076	-17.38
711.104	4.62
711.131	-14.38
711.158	-1.38
711.185	6.62
711.213	-7.38
711.24	-16.38
711.267	-4.38
711.294	-9.38
711.322	17.62
711.349	1.62
711.376	-1.38
711.403	15.62
711.431	-9.38
711.458	-11.38
711.485	-14.38
711.512	22.62
711.54	-1.38
711.567	-5.38
711.594	-17.38
711.621	-2.38
711.648	0.62
711.676	-0.38
711.703	-4.38
711.73	-13.38
711.757	-18.38
711.784	-14.38
711.812	3.62
711.839	-10.38
711.866	-7.38
711.893	-9.38
711.92	8.62
711.947	-6.38
711.975	10.62
712.002	-2.38
712.029	-2.38
712.056	-12.38
712.083	-18.38
712.11	-33.38
712.138	7.62
712.165	3.62
712.192	9.62
712.219	-10.38
712.246	4.62
712.273	3.62
712.3	-18.38
712.328	10.62
712.355	6.62
712.382	-11.38
712.409	11.62
712.436	-12.38
712.463	2.62
712.49	3.62
712.517	0.62
712.544	-0.38
712.572	-2.38
712.599	-2.38
712.626	-5.38
712.653	-5.38
712.68	-11.38
712.707	4.62
712.734	5.62
712.761	-2.38
712.788	-11.38
712.815	6.62
712.842	21.62
712.87	15.62
712.897	-6.38
712.924	-6.38
712.951	-6.38
712.978	16.62
713.005	2.62
713.032	12.62
713.059	-3.38
713.086	1.62
713.113	-12.38
713.14	-19.38
713.167	-2.38
713.194	7.62
713.221	-1.38
713.248	-4.38
713.275	-24.38
713.302	-11.38
713.329	0.62
713.356	11.62
713.383	-1.38
713.41	0.62
713.437	-13.38
713.464	-8.38
713.491	5.62
713.518	-10.38
713.545	-4.38
713.572	1.62
713.599	13.62
713.626	-0.38
713.653	3.62
713.68	-6.38
713.707	-20.38
713.734	-4.38
713.761	4.62
713.788	9.62
713.815	16.62
713.842	6.62
713.869	0.62
713.896	4.62
713.923	7.62
713.95	1.62
713.977	-8.38
714.004	2.62
714.031	-13.38
714.058	-9.38
714.085	-0.38
714.112	0.62
714.139	11.62
714.165	-13.38
714.192	0.62
714.219	-3.38
714.246	0.62
714.273	-11.38
714.3	-9.38
714.327	2.62
714.354	-1.38
714.381	-3.38
714.408	-5.38
714.435	-6.38
714.461	-9.38
714.488	9.62
714.515	-11.38
714.542	-3.38
714.569	6.62
714.596	6.62
714.623	-11.38
714.65	-6.38
714.677	2.62
714.703	-2.38
714.73	22.62
714.757	-2.38
714.784	-2.38
714.811	-5.38
714.838	7.62
714.865	-8.38
714.891	-6.38
714.918	3.62
714.945	-0.38
714.972	0.62
714.999	10.62
715.026	-10.38
715.052	23.62
715.079	0.62
715.106	-0.38
715.133	2.62
715.16	-7.38
715.187	7.62
715.213	7.62
715.24	-25.38
715.267	-0.38
715.294	-12.38
715.321	-15.38
715.347	-4.38
715.374	-0.38
715.401	0.62
715.428	-4.38
715.455	-2.38
715.481	-9.38
715.508	6.62
715.535	2.62
715.562	14.62
715.588	-6.38
715.615	-14.38
715.642	-7.38
715.669	12.62
715.695	-7.38
715.722	-4.38
715.749	0.62
715.776	6.62
715.802	-13.38
715.829	1.62
715.856	-4.38
715.883	5.62
715.909	-7.38
715.936	-10.38
715.963	-11.38
715.99	-17.38
716.016	-1.38
716.043	6.62
716.07	-2.38
716.096	-16.38
716.123	-0.38
716.15	-0.38
716.177	8.62
716.203	10.62
716.23	14.62
716.257	7.62
716.283	20.62
716.31	-1.38
716.337	-7.38
716.363	5.62
716.39	10.62
716.417	9.62
716.443	0.62
716.47	-2.38
716.497	9.62
716.523	2.62
716.55	-5.38
716.577	8.62
716.603	-8.38
716.63	-10.38
716.657	8.62
716.683	-15.38
716.71	-6.38
716.737	-13.38
716.763	-16.38
716.79	-4.38
716.817	8.62
716.843	-14.38
716.87	-8.38
716.897	-0.38
716.923	9.62
716.95	-11.38
716.976	-6.38
717.003	-8.38
717.03	8.62
717.056	3.62
717.083	-10.38
717.109	1.62
717.136	4.62
717.163	1.62
717.189	-1.38
717.216	-12.38
717.242	-13.38
717.269	-14.38
717.296	-3.38
717.322	9.62
717.349	2.62
717.375	-0.38
717.402	0.62
717.428	-3.38
717.455	-5.38
717.481	19.62
717.508	2.62
717.535	3.62
717.561	-11.38
717.588	-25.38
717.614	-11.38
717.641	18.62
717.667	1.62
717.694	-13.38
717.72	0.62
717.747	-7.38
717.773	-13.38
717.8	-4.38
717.826	1.62
717.853	-2.38
717.88	3.62
717.906	3.62
717.933	5.62
717.959	-2.38
717.986	-2.38
718.012	-17.38
718.039	-0.38
718.065	0.62
718.092	-7.38
718.118	-5.38
718.144	-9.38
718.171	20.62
718.197	21.62
718.224	-2.38
718.25	3.62
718.277	7.62
718.303	9.62
718.33	14.62
718.356	-13.38
718.383	-18.38
718.409	-16.38
718.436	1.62
718.462	-12.38
718.489	-6.38
718.515	14.62
718.541	8.62
718.568	3.62
718.594	5.62
718.621	1.62
718.647	-1.38
718.674	-2.38
718.7	20.62
718.726	9.62
718.753	-18.38
718.779	6.62
718.806	-3.38
718.832	-5.38
718.858	-9.38
718.885	-14.38
718.911	-17.38
718.938	1.62
718.964	-1.38
718.99	-3.38
719.017	4.62
719.043	0.62
719.07	15.62
719.096	-11.38
719.122	-3.38
719.149	2.62
719.175	7.62
719.201	-3.38
719.228	-7.38
719.254	6.62
719.281	-1.38
719.307	-7.38
719.333	-8.38
719.36	11.62
719.386	0.62
719.412	-1.38
719.439	-10.38
719.465	1.62
719.491	-21.38
719.518	10.62
719.544	3.62
719.57	8.62
719.597	-7.38
719.623	0.62
719.649	-5.38
719.675	-1.38
719.702	-2.38
719.728	9.62
719.754	-16.38
719.781	-7.38
719.807	-9.38
719.833	-17.38
719.86	3.62
719.886	-13.38
719.912	-11.38
719.938	-17.38
719.965	-5.38
719.991	6.62
720.017	3.62
720.044	0.62
720.07	-1.38
720.096	5.62
720.122	-7.38
720.149	2.62
720.175	8.62
720.201	3.62
720.227	-1.38
720.254	3.62
720.28	-3.38
720.306	-17.38
720.332	6.62
720.359	12.62
720.385	-0.38
720.411	14.62
720.437	9.62
720.463	0.62
720.49	16.62
720.516	0.62
720.542	-4.38
720.568	-13.38
720.595	-8.38
720.621	-5.38
720.647	-13.38
720.673	11.62
720.699	-7.38
720.725	13.62
720.752	-1.38
720.778	-6.38
720.804	5.62
720.83	10.62
720.856	-10.38
720.883	-15.38
720.909	-8.38
720.935	-10.38
720.961	10.62
720.987	7.62
721.013	12.62
721.04	-13.38
721.066	-0.38
721.092	-12.38
721.118	12.62
721.144	-9.38
721.17	-4.38
721.196	-5.38
721.223	-10.38
721.249	-9.38
721.275	13.62
721.301	0.62
721.327	4.62
721.353	-2.38
721.379	-0.38
721.405	8.62
721.432	15.62
721.458	-8.38
721.484	10.62
721.51	-10.38
721.536	-0.38
721.562	2.62
721.588	-7.38
721.614	-13.38
721.64	-7.38
721.666	-3.38
721.693	-1.38
721.719	-21.38
721.745	-14.38
721.771	-12.38
721.797	-5.38
721.823	-17.38
721.849	-8.38
721.875	0.62
721.901	2.62
721.927	-3.38
721.953	-12.38
721.979	1.62
722.005	3.62
722.031	3.62
722.057	-6.38
722.083	-12.38
722.109	2.62
722.135	5.62
722.161	-4.38
722.187	-10.38
722.214	-9.38
722.24	-4.38
722.266	-11.38
722.292	-0.38
722.318	2.62
722.344	4.62
722.37	0.62
722.396	1.62
722.422	1.62
722.448	-2.38
722.474	-19.38
722.5	2.62
722.526	7.62
722.552	1.62
722.578	-7.38
722.603	9.62
722.629	-7.38
722.655	-4.38
722.681	2.62
722.707	-0.38
722.733	-13.38
722.759	-22.38
722.785	-6.38
722.811	-2.38
722.837	-17.38
722.863	-7.38
722.889	-11.38
722.915	-8.38
722.941	7.62
722.967	-1.38
722.993	-3.38
723.019	-2.38
723.045	6.62
723.071	-0.38
723.097	-1.38
723.122	-0.38
723.148	-10.38
723.174	-2.38
723.2	-6.38
723.226	-10.38
723.252	-4.38
723.278	-2.38
723.304	1.62
723.33	-11.38
723.356	-26.38
723.381	-11.38
723.407	-14.38
723.433	10.62
723.459	-14.38
723.485	5.62
723.511	0.62
723.537	-8.38
723.563	-10.38
723.588	-0.38
723.614	9.62
723.64	6.62
723.666	-11.38
723.692	5.62
723.718	-7.38
723.744	-11.38
723.769	-10.38
723.795	-1.38
723.821	-6.38
723.847	-3.38
723.873	-3.38
723.899	-1.38
723.924	-5.38
723.95	-0.38
723.976	-5.38
724.002	-9.38
724.028	-4.38
724.053	-2.38
724.079	-2.38
724.105	-9.38
724.131	-22.38
724.157	-1.38
724.182	-0.38
724.208	-4.38
724.234	0.62
724.26	-0.38
724.286	-4.38
724.311	-11.38
724.337	-0.38
724.363	6.62
724.389	-12.38
724.415	-5.38
724.44	18.62
724.466	1.62
724.492	-8.38
724.518	-1.38
724.543	-21.38
724.569	-10.38
724.595	-4.38
724.621	-18.38
724.646	-2.38
724.672	-12.38
724.698	-5.38
724.723	-5.38
724.749	5.62
724.775	-2.38
724.801	10.62
724.826	-20.38
724.852	-23.38
724.878	-19.38
724.904	-17.38
724.929	-13.38
724.955	-16.38
724.981	12.62
725.006	11.62
725.032	-3.38
725.058	14.62
725.083	2.62
725.109	-17.38
725.135	-6.38
725.161	5.62
725.186	-7.38
725.212	-10.38
725.238	1.62
725.263	-0.38
725.289	-18.38
725.315	-10.38
725.34	-10.38
725.366	-1.38
725.392	-9.38
725.417	-11.38
725.443	-12.38
725.468	5.62
725.494	-2.38
725.52	8.62
725.545	-5.38
725.571	5.62
725.597	0.62
725.622	-2.38
725.648	0.62
725.674	-7.38
725.699	5.62
725.725	-5.38
725.75	18.62
725.776	-10.38
725.802	-3.38
725.827	-15.38
725.853	-13.38
725.878	-3.38
725.904	-19.38
725.93	-18.38
725.955	-13.38
725.981	-7.38
726.006	-0.38
726.032	-0.38
726.057	-8.38
726.083	-21.38
726.109	-14.38
726.134	-1.38
726.16	-3.38
726.185	1.62
726.211	-6.38
726.236	-3.38
726.262	-7.38
726.288	5.62
726.313	4.62
726.339	1.62
726.364	1.62
726.39	-4.38
726.415	0.62
726.441	-0.38
726.466	-10.38
726.492	8.62
726.517	7.62
726.543	-14.38
726.568	-17.38
726.594	-13.38
726.619	-2.38
726.645	-2.38
726.67	-5.38
726.696	-4.38
726.721	0.62
726.747	-10.38
726.772	3.62
726.798	9.62
726.823	2.62
726.849	-15.38
726.874	-1.38
726.9	24.62
726.925	2.62
726.951	-5.38
726.976	7.62
727.002	-20.38
727.027	14.62
727.053	5.62
727.078	1.62
727.104	-14.38
727.129	-21.38
727.155	-10.38
727.18	1.62
727.205	-2.38
727.231	8.62
727.256	4.62
727.282	9.62
727.307	6.62
727.333	1.62
727.358	-4.38
727.383	-19.38
727.409	-21.38
727.434	2.62
727.46	-4.38
727.485	-0.38
727.511	4.62
727.536	-14.38
727.561	-14.38
727.587	-13.38
727.612	-6.38
727.637	-13.38
727.663	-14.38
727.688	-2.38
727.714	-16.38
727.739	-9.38
727.764	-3.38
727.79	2.62
727.815	-5.38
727.841	3.62
727.866	2.62
727.891	2.62
727.917	-21.38
727.942	-14.38
727.967	-18.38
727.993	-13.38
728.018	-4.38
728.043	2.62
728.069	7.62
728.094	16.62
728.119	5.62
728.145	15.62
728.17	2.62
728.195	11.62
728.221	10.62
728.246	-7.38
728.271	-13.38
728.297	-7.38
728.322	4.62
728.347	5.62
728.373	-8.38
728.398	2.62
728.423	-16.38
728.448	-3.38
728.474	-3.38
728.499	-15.38
728.524	-16.38
728.55	-8.38
728.575	-13.38
728.6	-10.38
728.625	4.62
728.651	-9.38
728.676	3.62
728.701	-10.38
728.727	-6.38
728.752	-16.38
728.777	-22.38
728.802	-8.38
728.828	-0.38
728.853	-9.38
728.878	-6.38
728.903	-7.38
728.929	-19.38
728.954	-21.38
728.979	2.62
729.004	-3.38
729.03	-6.38
729.055	12.62
729.08	-17.38
729.105	-2.38
729.13	14.62
729.156	2.62
729.181	-5.38
729.206	-17.38
729.231	-0.38
729.256	10.62
729.282	9.62
729.307	-4.38
729.332	-15.38
729.357	-3.38
729.382	-10.38
729.408	-12.38
729.433	1.62
729.458	1.62
729.483	14.62
729.508	18.62
729.533	2.62
729.559	9.62
729.584	-3.38
729.609	7.62
729.634	-0.38
729.659	2.62
729.684	-34.38
729.71	12.62
729.735	1.62
729.76	1.62
729.785	-9.38
729.81	-0.38
729.835	-6.38
729.86	-5.38
729.886	30.62
729.911	11.62
729.936	4.62
729.961	9.62
729.986	19.62
730.011	54.62
730.036	223.62
730.061	1028.62
730.086	2704.62
730.112	3355.62
730.137	2857.62
730.162	2124.62
730.187	1654.62
730.212	1258.62
730.237	780.62
730.262	449.62
730.287	227.62
730.312	137.62
730.337	72.62
730.362	50.62
730.387	28.62
730.413	-3.38
730.438	14.62
730.463	9.62
730.488	-4.38
730.513	10.62
730.538	5.62
730.563	21.62
730.588	19.62
730.613	11.62
730.638	-3.38
730.663	0.62
730.688	5.62
730.713	11.62
730.738	0.62
730.763	-9.38
730.788	-18.38
730.813	-3.38
730.838	-6.38
730.863	8.62
730.888	-5.38
730.913	-9.38
730.938	-6.38
730.963	13.62
730.988	123.62
731.013	417.62
731.038	595.62
731.063	592.62
731.088	470.62
731.113	354.62
731.138	277.62
731.163	184.62
731.188	107.62
731.213	75.62
731.238	33.62
731.263	0.62
731.288	26.62
731.313	0.62
731.338	-0.38
731.363	3.62
731.388	1.62
731.413	4.62
731.438	6.62
731.463	10.62
731.487	1.62
731.512	-4.38
731.537	-21.38
731.562	-11.38
731.587	4.62
731.612	-19.38
731.637	-9.38
731.662	-11.38
731.687	-1.38
731.712	-29.38
731.737	-4.38
731.762	0.62
731.786	-11.38
731.811	4.62
731.836	13.62
731.861	-8.38
731.886	-9.38
731.911	-8.38
731.936	0.62
731.961	-3.38
731.986	-13.38
732.01	4.62
732.035	-4.38
732.06	-2.38
732.085	-3.38
732.11	-8.38
732.135	-23.38
732.16	-15.38
732.184	-4.38
732.209	-3.38
732.234	10.62
732.259	-13.38
732.284	-7.38
732.309	-13.38
732.334	-7.38
732.358	-20.38
732.383	1.62
732.408	1.62
732.433	-4.38
732.458	-6.38
732.482	10.62
732.507	-7.38
732.532	-1.38
732.557	13.62
732.582	4.62
732.607	17.62
732.631	47.62
732.656	81.62
732.681	158.62
732.706	325.62
732.73	465.62
732.755	408.62
732.78	308.62
732.805	249.62
732.83	165.62
732.854	122.62
732.879	77.62
732.904	45.62
732.929	28.62
732.953	14.62
732.978	24.62
733.003	-13.38
733.028	-23.38
733.052	1.62
733.077	21.62
733.102	3.62
733.127	-6.38
733.151	-12.38
733.176	-7.38
733.201	-1.38
733.226	-5.38
733.25	-1.38
733.275	3.62
733.3	-2.38
733.324	21.62
733.349	-5.38
733.374	14.62
733.399	-14.38
733.423	-3.38
733.448	-14.38
733.473	1.62
733.497	-1.38
733.522	-9.38
733.547	14.62
733.571	16.62
733.596	3.62
733.621	9.62
733.646	2.62
733.67	1.62
733.695	-13.38
733.72	-3.38
733.744	8.62
733.769	1.62
733.794	-15.38
733.818	0.62
733.843	-1.38
733.867	-11.38
733.892	-16.38
733.917	-13.38
733.941	0.62
733.966	-16.38
733.991	-2.38
734.015	2.62
734.04	6.62
734.065	-7.38
734.089	16.62
734.114	-6.38
734.138	-2.38
734.163	-3.38
734.188	-13.38
734.212	9.62
734.237	12.62
734.261	4.62
734.286	-15.38
734.311	-8.38
734.335	-5.38
734.36	-2.38
734.384	-6.38
734.409	6.62
734.434	-11.38
734.458	3.62
734.483	0.62
734.507	-14.38
734.532	1.62
734.556	-9.38
734.581	-12.38
734.606	-20.38
734.63	-7.38
734.655	-4.38
734.679	-7.38
734.704	-5.38
734.728	-4.38
734.753	-10.38
734.777	-6.38
734.802	7.62
734.826	-4.38
734.851	3.62
734.876	4.62
734.9	3.62
734.925	4.62
734.949	1.62
734.974	-4.38
734.998	5.62
735.023	-14.38
735.047	-20.38
735.072	10.62
735.096	-13.38
735.121	-7.38
735.145	-11.38
735.17	2.62
735.194	2.62
735.219	4.62
735.243	-9.38
735.268	14.62
735.292	7.62
735.317	9.62
735.341	12.62
735.365	-13.38
735.39	5.62
735.414	6.62
735.439	-6.38
735.463	-1.38
735.488	9.62
735.512	-3.38
735.537	-14.38
735.561	4.62
735.586	-0.38
735.61	12.62
735.634	-6.38
735.659	-13.38
735.683	9.62
735.708	-4.38
735.732	-2.38
735.757	-4.38
735.781	-1.38
735.805	-3.38
735.83	-7.38
735.854	-0.38
735.879	2.62
735.903	7.62
735.927	3.62
735.952	-0.38
735.976	5.62
736.001	0.62
736.025	-6.38
736.049	-3.38
736.074	4.62
736.098	-5.38
736.123	5.62
736.147	9.62
736.171	-11.38
736.196	3.62
736.22	-4.38
736.244	12.62
736.269	9.62
736.293	-3.38
736.317	0.62
736.342	-3.38
736.366	14.62
736.39	-4.38
736.415	-7.38
736.439	-0.38
736.463	8.62
736.488	-14.38
736.512	-7.38
736.536	5.62
736.561	13.62
736.585	1.62
736.609	3.62
736.634	-5.38
736.658	-9.38
736.682	-14.38
736.707	-21.38
736.731	-15.38
736.755	-2.38
736.78	5.62
736.804	17.62
736.828	6.62
736.852	-10.38
736.877	-13.38
736.901	10.62
736.925	-2.38
736.949	-0.38
736.974	-18.38
736.998	-13.38
737.022	10.62
737.047	-13.38
737.071	-14.38
737.095	10.62
737.119	18.62
737.144	4.62
737.168	-11.38
737.192	-6.38
737.216	-0.38
737.241	-12.38
737.265	1.62
737.289	3.62
737.313	-16.38
737.337	3.62
737.362	9.62
737.386	-15.38
737.41	-4.38
737.434	-5.38
737.459	-0.38
737.483	8.62
737.507	11.62
737.531	22.62
737.555	2.62
737.58	19.62
737.604	15.62
737.628	-12.38
737.652	-10.38
737.676	-0.38
737.701	5.62
737.725	-0.38
737.749	10.62
737.773	-1.38
737.797	0.62
737.821	1.62
737.846	-5.38
737.87	23.62
737.894	-18.38
737.918	-18.38
737.942	-2.38
737.966	4.62
737.99	8.62
738.015	-9.38
738.039	-6.38
738.063	-7.38
738.087	-10.38
738.111	-4.38
738.135	10.62
738.159	1.62
738.184	1.62
738.208	6.62
738.232	1.62
738.256	-0.38
738.28	-5.38
738.304	1.62
738.328	-16.38
738.352	-3.38
738.376	0.62
738.4	1.62
738.425	11.62
738.449	-4.38
738.473	6.62
738.497	-7.38
738.521	7.62
738.545	-11.38
738.569	22.62
738.593	22.62
738.617	2.62
738.641	-8.38
738.665	5.62
738.689	7.62
738.713	-7.38
738.737	-2.38
738.762	5.62
738.786	2.62
738.81	-11.38
738.834	0.62
738.858	-11.38
738.882	1.62
738.906	-11.38
738.93	5.62
738.954	14.62
738.978	0.62
739.002	-8.38
739.026	6.62
739.05	-2.38
739.074	-1.38
739.098	27.62
739.122	15.62
739.146	4.62
739.17	3.62
739.194	-3.38
739.218	-7.38
739.242	-7.38
739.266	2.62
739.29	9.62
739.314	-4.38
739.338	-4.38
739.362	0.62
739.386	13.62
739.41	-9.38
739.434	-6.38
739.458	11.62
739.482	-13.38
739.506	-2.38
739.53	-7.38
739.554	1.62
739.577	-13.38
739.601	9.62
739.625	-1.38
739.649	3.62
739.673	-24.38
739.697	-6.38
739.721	-11.38
739.745	1.62
739.769	7.62
739.793	-2.38
739.817	2.62
739.841	-5.38
739.865	-2.38
739.889	-12.38
739.912	2.62
739.936	-6.38
739.96	-7.38
739.984	6.62
740.008	16.62
740.032	-2.38
740.056	-5.38
740.08	-21.38
740.104	-10.38
740.127	5.62
740.151	16.62
740.175	-7.38
740.199	-1.38
740.223	40.62
740.247	2.62
740.271	6.62
740.295	8.62
740.318	-12.38
740.342	-16.38
740.366	-10.38
740.39	-5.38
740.414	-9.38
740.438	-6.38
740.461	9.62
740.485	-2.38
740.509	-20.38
740.533	8.62
740.557	-5.38
740.581	-13.38
740.604	-16.38
740.628	-1.38
740.652	23.62
740.676	-8.38
740.7	12.62
740.723	-7.38
740.747	-10.38
740.771	-3.38
740.795	-18.38
740.819	15.62
740.842	6.62
740.866	1.62
740.89	-1.38
740.914	-3.38
740.938	-11.38
740.961	13.62
740.985	3.62
741.009	-12.38
741.033	3.62
741.056	3.62
741.08	3.62
741.104	1.62
741.128	-1.38
741.151	2.62
741.175	-0.38
741.199	13.62
741.223	3.62
741.246	-18.38
741.27	-9.38
741.294	12.62
741.318	-3.38
741.341	-9.38
741.365	-1.38
741.389	-2.38
741.413	5.62
741.436	18.62
741.46	9.62
741.484	-2.38
741.507	-6.38
741.531	17.62
741.555	4.62
741.579	1.62
741.602	6.62
741.626	17.62
741.65	-4.38
741.673	-3.38
741.697	11.62
741.721	-2.38
741.744	-23.38
741.768	-11.38
741.792	0.62
741.815	-6.38
741.839	7.62
741.863	-0.38
741.886	10.62
741.91	0.62
741.934	2.62
741.957	-11.38
741.981	5.62
742.005	6.62
742.028	0.62
742.052	-7.38
742.075	0.62
742.099	4.62
742.123	-15.38
742.146	-6.38
742.17	-5.38
742.194	-18.38
742.217	-11.38
742.241	-18.38
742.264	-15.38
742.288	15.62
742.312	2.62
742.335	-20.38
742.359	-4.38
742.382	10.62
742.406	12.62
742.43	-16.38
742.453	-10.38
742.477	-16.38
742.5	-1.38
742.524	-6.38
742.548	-6.38
742.571	-5.38
742.595	-4.38
742.618	-4.38
742.642	5.62
742.665	13.62
742.689	-29.38
742.712	-13.38
742.736	-2.38
742.76	0.62
742.783	-3.38
742.807	16.62
742.83	1.62
742.854	-13.38
742.877	2.62
742.901	3.62
742.924	-18.38
742.948	13.62
742.971	15.62
742.995	-2.38
743.018	-11.38
743.042	-19.38
743.065	-3.38
743.089	-20.38
743.112	8.62
743.136	3.62
743.159	-3.38
743.183	-7.38
743.206	-1.38
743.23	-9.38
743.253	0.62
743.277	-5.38
743.3	-11.38
743.324	5.62
743.347	-7.38
743.371	2.62
743.394	2.62
743.418	27.62
743.441	-5.38
743.465	-2.38
743.488	7.62
743.512	-7.38
743.535	-10.38
743.558	-12.38
743.582	-13.38
743.605	-3.38
743.629	5.62
743.652	-5.38
743.676	1.62
743.699	-7.38
743.723	6.62
743.746	9.62
743.769	-10.38
743.793	-3.38
743.816	-0.38
743.84	-3.38
743.863	6.62
743.886	5.62
743.91	10.62
743.933	13.62
743.957	-0.38
743.98	1.62
744.003	-9.38
744.027	-7.38
744.05	-5.38
744.074	0.62
744.097	-16.38
744.12	-10.38
744.144	-9.38
744.167	4.62
744.19	1.62
744.214	-11.38
744.237	-10.38
744.26	8.62
744.284	2.62
744.307	-9.38
744.331	-3.38
744.354	-10.38
744.377	-9.38
744.401	-7.38
744.424	-15.38
744.447	-7.38
744.471	0.62
