Data from HighRes_mercury_15_13_11_07_2024_HR4C61891__95__15-14-32-685.txt Node

Date: Thu Nov 07 15:14:32 EST 2024
User: crc00042
Spectrometer: HR4C6189
Trigger mode: 4
Integration Time (sec): 1.000000E-1
Scans to average: 1
Electric dark correction enabled: true
Nonlinearity correction enabled: false
Boxcar width: 0
XAxis mode: Wavelengths
Number of Pixels in Spectrum: 3648
>>>>>Begin Spectral Data<<<<<
639.567	-29.54
639.602	-29.54
639.636	-29.54
639.67	-36.54
639.704	-15.54
639.738	1.46
639.773	4.46
639.807	-16.54
639.841	-6.54
639.875	-2.54
639.909	-3.54
639.943	-4.54
639.978	-16.54
640.012	18.46
640.046	3.46
640.08	13.46
640.114	15.46
640.148	-6.54
640.182	-4.54
640.217	3.46
640.251	23.46
640.285	18.46
640.319	-5.54
640.353	3.46
640.387	-2.54
640.421	9.46
640.455	4.46
640.49	2.46
640.524	4.46
640.558	10.46
640.592	17.46
640.626	6.46
640.66	13.46
640.694	-7.54
640.728	4.46
640.762	14.46
640.796	32.46
640.83	29.46
640.865	12.46
640.899	9.46
640.933	-5.54
640.967	3.46
641.001	5.46
641.035	14.46
641.069	7.46
641.103	-13.54
641.137	11.46
641.171	3.46
641.205	14.46
641.239	2.46
641.273	17.46
641.307	14.46
641.341	10.46
641.375	1.46
641.409	6.46
641.443	8.46
641.477	11.46
641.511	21.46
641.545	10.46
641.579	9.46
641.614	-11.54
641.648	0.46
641.682	-11.54
641.716	8.46
641.75	16.46
641.784	1.46
641.818	-4.54
641.852	7.46
641.886	12.46
641.919	35.46
641.953	18.46
641.987	-1.54
642.021	8.46
642.055	14.46
642.089	2.46
642.123	0.46
642.157	3.46
642.191	3.46
642.225	23.46
642.259	3.46
642.293	4.46
642.327	-1.54
642.361	0.46
642.395	8.46
642.429	15.46
642.463	29.46
642.497	22.46
642.531	10.46
642.565	4.46
642.599	23.46
642.633	15.46
642.666	19.46
642.7	12.46
642.734	20.46
642.768	-10.54
642.802	9.46
642.836	24.46
642.87	11.46
642.904	23.46
642.938	29.46
642.972	1.46
643.005	4.46
643.039	4.46
643.073	10.46
643.107	16.46
643.141	8.46
643.175	11.46
643.209	19.46
643.243	15.46
643.276	11.46
643.31	-1.54
643.344	6.46
643.378	-0.54
643.412	22.46
643.446	12.46
643.48	-1.54
643.513	17.46
643.547	23.46
643.581	-12.54
643.615	6.46
643.649	10.46
643.683	10.46
643.716	2.46
643.75	5.46
643.784	1.46
643.818	16.46
643.852	3.46
643.886	16.46
643.919	22.46
643.953	12.46
643.987	3.46
644.021	9.46
644.055	8.46
644.088	20.46
644.122	-0.54
644.156	-4.54
644.19	8.46
644.224	-3.54
644.257	24.46
644.291	10.46
644.325	11.46
644.359	-1.54
644.392	24.46
644.426	21.46
644.46	4.46
644.494	14.46
644.527	-2.54
644.561	6.46
644.595	22.46
644.629	-9.54
644.662	10.46
644.696	19.46
644.73	5.46
644.764	12.46
644.797	5.46
644.831	30.46
644.865	21.46
644.899	-0.54
644.932	27.46
644.966	9.46
645	7.46
645.033	12.46
645.067	-5.54
645.101	17.46
645.135	6.46
645.168	11.46
645.202	15.46
645.236	-0.54
645.269	9.46
645.303	11.46
645.337	-8.54
645.37	14.46
645.404	13.46
645.438	12.46
645.471	12.46
645.505	8.46
645.539	11.46
645.572	-3.54
645.606	6.46
645.64	-1.54
645.673	-21.54
645.707	24.46
645.741	-3.54
645.774	-21.54
645.808	1.46
645.842	-24.54
645.875	24.46
645.909	-5.54
645.943	-10.54
645.976	19.46
646.01	13.46
646.043	21.46
646.077	9.46
646.111	17.46
646.144	23.46
646.178	14.46
646.212	-7.54
646.245	3.46
646.279	6.46
646.312	11.46
646.346	19.46
646.38	-0.54
646.413	12.46
646.447	0.46
646.48	15.46
646.514	28.46
646.547	7.46
646.581	7.46
646.615	12.46
646.648	11.46
646.682	4.46
646.715	-5.54
646.749	6.46
646.782	0.46
646.816	-8.54
646.85	6.46
646.883	-8.54
646.917	-8.54
646.95	-14.54
646.984	8.46
647.017	1.46
647.051	11.46
647.084	16.46
647.118	-3.54
647.151	11.46
647.185	6.46
647.218	13.46
647.252	11.46
647.285	9.46
647.319	-1.54
647.353	5.46
647.386	16.46
647.42	15.46
647.453	8.46
647.487	13.46
647.52	11.46
647.553	11.46
647.587	19.46
647.62	5.46
647.654	14.46
647.687	4.46
647.721	16.46
647.754	15.46
647.788	-3.54
647.821	7.46
647.855	9.46
647.888	14.46
647.922	14.46
647.955	5.46
647.989	5.46
648.022	4.46
648.055	-0.54
648.089	4.46
648.122	19.46
648.156	5.46
648.189	0.46
648.223	1.46
648.256	26.46
648.29	12.46
648.323	12.46
648.356	20.46
648.39	6.46
648.423	13.46
648.457	8.46
648.49	27.46
648.523	-0.54
648.557	2.46
648.59	2.46
648.624	7.46
648.657	11.46
648.69	9.46
648.724	14.46
648.757	21.46
648.791	26.46
648.824	19.46
648.857	31.46
648.891	12.46
648.924	10.46
648.957	22.46
648.991	-3.54
649.024	17.46
649.057	10.46
649.091	-8.54
649.124	26.46
649.158	9.46
649.191	6.46
649.224	-8.54
649.258	6.46
649.291	-1.54
649.324	8.46
649.358	6.46
649.391	13.46
649.424	15.46
649.458	4.46
649.491	6.46
649.524	6.46
649.557	-5.54
649.591	2.46
649.624	9.46
649.657	-4.54
649.691	3.46
649.724	1.46
649.757	-1.54
649.791	-6.54
649.824	12.46
649.857	0.46
649.89	11.46
649.924	8.46
649.957	13.46
649.99	-14.54
650.023	4.46
650.057	-1.54
650.09	6.46
650.123	-11.54
650.157	15.46
650.19	40.46
650.223	9.46
650.256	17.46
650.29	1.46
650.323	6.46
650.356	1.46
650.389	-2.54
650.423	-8.54
650.456	8.46
650.489	1.46
650.522	7.46
650.555	27.46
650.589	27.46
650.622	-0.54
650.655	29.46
650.688	15.46
650.721	8.46
650.755	-16.54
650.788	9.46
650.821	11.46
650.854	16.46
650.887	15.46
650.921	16.46
650.954	-1.54
650.987	-1.54
651.02	-8.54
651.053	-23.54
651.087	-13.54
651.12	23.46
651.153	12.46
651.186	9.46
651.219	-8.54
651.252	23.46
651.286	9.46
651.319	16.46
651.352	17.46
651.385	1.46
651.418	10.46
651.451	15.46
651.484	-0.54
651.518	8.46
651.551	29.46
651.584	13.46
651.617	24.46
651.65	23.46
651.683	24.46
651.716	4.46
651.749	6.46
651.783	3.46
651.816	4.46
651.849	14.46
651.882	8.46
651.915	-8.54
651.948	16.46
651.981	-1.54
652.014	-7.54
652.047	4.46
652.08	-7.54
652.114	19.46
652.147	8.46
652.18	5.46
652.213	26.46
652.246	16.46
652.279	5.46
652.312	17.46
652.345	6.46
652.378	9.46
652.411	5.46
652.444	22.46
652.477	13.46
652.51	1.46
652.543	-1.54
652.576	11.46
652.609	-5.54
652.642	0.46
652.675	15.46
652.709	10.46
652.742	15.46
652.775	9.46
652.808	8.46
652.841	6.46
652.874	11.46
652.907	9.46
652.94	-1.54
652.973	-5.54
653.006	-11.54
653.039	4.46
653.072	16.46
653.105	-1.54
653.138	-5.54
653.171	8.46
653.204	4.46
653.237	3.46
653.27	-9.54
653.303	7.46
653.336	12.46
653.368	2.46
653.401	8.46
653.434	-6.54
653.467	4.46
653.5	2.46
653.533	0.46
653.566	4.46
653.599	17.46
653.632	7.46
653.665	4.46
653.698	-18.54
653.731	-0.54
653.764	25.46
653.797	14.46
653.83	20.46
653.863	17.46
653.896	3.46
653.929	-0.54
653.961	-2.54
653.994	12.46
654.027	-11.54
654.06	20.46
654.093	11.46
654.126	5.46
654.159	9.46
654.192	8.46
654.225	-3.54
654.258	12.46
654.29	4.46
654.323	22.46
654.356	-6.54
654.389	1.46
654.422	0.46
654.455	10.46
654.488	10.46
654.521	11.46
654.553	5.46
654.586	14.46
654.619	7.46
654.652	8.46
654.685	18.46
654.718	16.46
654.751	17.46
654.783	12.46
654.816	14.46
654.849	12.46
654.882	15.46
654.915	-15.54
654.948	4.46
654.98	8.46
655.013	7.46
655.046	18.46
655.079	-4.54
655.112	1.46
655.144	-2.54
655.177	4.46
655.21	12.46
655.243	15.46
655.276	13.46
655.308	-2.54
655.341	1.46
655.374	-4.54
655.407	-11.54
655.44	-2.54
655.472	25.46
655.505	26.46
655.538	-1.54
655.571	1.46
655.603	0.46
655.636	7.46
655.669	28.46
655.702	-4.54
655.734	-3.54
655.767	13.46
655.8	4.46
655.833	7.46
655.865	13.46
655.898	20.46
655.931	5.46
655.964	0.46
655.996	6.46
656.029	28.46
656.062	7.46
656.095	14.46
656.127	8.46
656.16	18.46
656.193	-1.54
656.225	8.46
656.258	15.46
656.291	4.46
656.324	8.46
656.356	3.46
656.389	17.46
656.422	13.46
656.454	-11.54
656.487	7.46
656.52	7.46
656.552	8.46
656.585	5.46
656.618	23.46
656.65	11.46
656.683	7.46
656.716	12.46
656.748	0.46
656.781	-3.54
656.814	-4.54
656.846	7.46
656.879	6.46
656.912	1.46
656.944	-12.54
656.977	-3.54
657.01	-11.54
657.042	3.46
657.075	12.46
657.108	-2.54
657.14	7.46
657.173	7.46
657.205	31.46
657.238	29.46
657.271	16.46
657.303	-4.54
657.336	-3.54
657.369	-6.54
657.401	2.46
657.434	10.46
657.466	6.46
657.499	12.46
657.532	2.46
657.564	6.46
657.597	13.46
657.629	0.46
657.662	5.46
657.694	11.46
657.727	-1.54
657.76	11.46
657.792	1.46
657.825	-2.54
657.857	13.46
657.89	13.46
657.922	15.46
657.955	11.46
657.987	12.46
658.02	19.46
658.053	14.46
658.085	29.46
658.118	5.46
658.15	7.46
658.183	11.46
658.215	11.46
658.248	-3.54
658.28	0.46
658.313	8.46
658.345	9.46
658.378	21.46
658.41	13.46
658.443	12.46
658.475	11.46
658.508	-2.54
658.54	14.46
658.573	-8.54
658.605	11.46
658.638	9.46
658.67	8.46
658.703	18.46
658.735	7.46
658.768	5.46
658.8	-9.54
658.833	15.46
658.865	7.46
658.898	-2.54
658.93	20.46
658.963	2.46
658.995	-8.54
659.028	8.46
659.06	9.46
659.092	11.46
659.125	-5.54
659.157	24.46
659.19	12.46
659.222	-7.54
659.255	7.46
659.287	13.46
659.32	-2.54
659.352	3.46
659.384	26.46
659.417	1.46
659.449	8.46
659.482	13.46
659.514	-9.54
659.546	-8.54
659.579	-7.54
659.611	9.46
659.644	8.46
659.676	10.46
659.708	-0.54
659.741	1.46
659.773	28.46
659.806	10.46
659.838	18.46
659.87	-2.54
659.903	-4.54
659.935	0.46
659.967	18.46
660	13.46
660.032	-6.54
660.065	11.46
660.097	-2.54
660.129	8.46
660.162	-3.54
660.194	9.46
660.226	6.46
660.259	0.46
660.291	-6.54
660.323	-0.54
660.356	5.46
660.388	11.46
660.42	20.46
660.453	9.46
660.485	14.46
660.517	15.46
660.55	26.46
660.582	5.46
660.614	5.46
660.647	2.46
660.679	-6.54
660.711	16.46
660.743	10.46
660.776	-11.54
660.808	4.46
660.84	-19.54
660.873	13.46
660.905	9.46
660.937	-5.54
660.969	7.46
661.002	3.46
661.034	17.46
661.066	12.46
661.099	25.46
661.131	19.46
661.163	7.46
661.195	17.46
661.228	17.46
661.26	-8.54
661.292	-4.54
661.324	11.46
661.357	10.46
661.389	4.46
661.421	14.46
661.453	6.46
661.485	0.46
661.518	4.46
661.55	-6.54
661.582	9.46
661.614	5.46
661.647	13.46
661.679	-3.54
661.711	6.46
661.743	0.46
661.775	16.46
661.808	34.46
661.84	-14.54
661.872	15.46
661.904	5.46
661.936	7.46
661.969	-16.54
662.001	-1.54
662.033	0.46
662.065	5.46
662.097	18.46
662.129	2.46
662.162	-13.54
662.194	4.46
662.226	7.46
662.258	16.46
662.29	10.46
662.322	4.46
662.355	-13.54
662.387	20.46
662.419	18.46
662.451	14.46
662.483	9.46
662.515	3.46
662.547	10.46
662.58	12.46
662.612	9.46
662.644	-3.54
662.676	8.46
662.708	24.46
662.74	9.46
662.772	6.46
662.804	7.46
662.836	7.46
662.869	-1.54
662.901	3.46
662.933	-4.54
662.965	21.46
662.997	15.46
663.029	7.46
663.061	7.46
663.093	15.46
663.125	15.46
663.157	-5.54
663.189	9.46
663.221	30.46
663.254	9.46
663.286	7.46
663.318	-1.54
663.35	4.46
663.382	10.46
663.414	11.46
663.446	20.46
663.478	3.46
663.51	40.46
663.542	7.46
663.574	7.46
663.606	17.46
663.638	-9.54
663.67	15.46
663.702	1.46
663.734	1.46
663.766	14.46
663.798	14.46
663.83	11.46
663.862	13.46
663.894	16.46
663.926	3.46
663.958	-3.54
663.99	-3.54
664.022	2.46
664.054	14.46
664.086	-7.54
664.118	-9.54
664.15	9.46
664.182	7.46
664.214	-0.54
664.246	-3.54
664.278	6.46
664.31	20.46
664.342	16.46
664.374	7.46
664.406	15.46
664.438	12.46
664.47	16.46
664.502	-1.54
664.534	2.46
664.566	11.46
664.598	20.46
664.63	3.46
664.662	5.46
664.693	14.46
664.725	12.46
664.757	22.46
664.789	10.46
664.821	-1.54
664.853	23.46
664.885	5.46
664.917	6.46
664.949	15.46
664.981	16.46
665.013	2.46
665.045	1.46
665.076	-0.54
665.108	11.46
665.14	-7.54
665.172	2.46
665.204	1.46
665.236	11.46
665.268	8.46
665.3	7.46
665.331	-2.54
665.363	9.46
665.395	-4.54
665.427	-9.54
665.459	17.46
665.491	-8.54
665.523	-5.54
665.555	7.46
665.586	7.46
665.618	-11.54
665.65	-12.54
665.682	9.46
665.714	7.46
665.746	8.46
665.777	17.46
665.809	7.46
665.841	26.46
665.873	25.46
665.905	13.46
665.937	23.46
665.968	8.46
666	-3.54
666.032	14.46
666.064	6.46
666.096	11.46
666.127	10.46
666.159	1.46
666.191	22.46
666.223	22.46
666.255	31.46
666.286	7.46
666.318	-11.54
666.35	22.46
666.382	3.46
666.413	-4.54
666.445	-4.54
666.477	-1.54
666.509	3.46
666.54	8.46
666.572	6.46
666.604	20.46
666.636	18.46
666.667	15.46
666.699	22.46
666.731	-5.54
666.763	-3.54
666.794	-6.54
666.826	11.46
666.858	-5.54
666.89	32.46
666.921	2.46
666.953	9.46
666.985	12.46
667.017	34.46
667.048	6.46
667.08	-1.54
667.112	10.46
667.143	8.46
667.175	14.46
667.207	6.46
667.238	15.46
667.27	14.46
667.302	6.46
667.334	-4.54
667.365	39.46
667.397	-5.54
667.429	3.46
667.46	11.46
667.492	8.46
667.524	-4.54
667.555	-20.54
667.587	1.46
667.619	8.46
667.65	-6.54
667.682	4.46
667.714	10.46
667.745	6.46
667.777	-3.54
667.808	5.46
667.84	15.46
667.872	11.46
667.903	33.46
667.935	3.46
667.967	12.46
667.998	7.46
668.03	-2.54
668.061	17.46
668.093	14.46
668.125	18.46
668.156	9.46
668.188	-5.54
668.22	2.46
668.251	12.46
668.283	-0.54
668.314	10.46
668.346	6.46
668.377	25.46
668.409	17.46
668.441	28.46
668.472	22.46
668.504	19.46
668.535	16.46
668.567	5.46
668.599	20.46
668.63	-16.54
668.662	0.46
668.693	12.46
668.725	5.46
668.756	24.46
668.788	7.46
668.819	-3.54
668.851	13.46
668.882	7.46
668.914	-4.54
668.946	3.46
668.977	4.46
669.009	4.46
669.04	2.46
669.072	15.46
669.103	17.46
669.135	16.46
669.166	16.46
669.198	9.46
669.229	8.46
669.261	9.46
669.292	-3.54
669.324	17.46
669.355	23.46
669.387	3.46
669.418	12.46
669.45	-2.54
669.481	7.46
669.513	14.46
669.544	-0.54
669.576	-7.54
669.607	22.46
669.639	9.46
669.67	-3.54
669.701	5.46
669.733	-1.54
669.764	11.46
669.796	8.46
669.827	-16.54
669.859	3.46
669.89	15.46
669.922	17.46
669.953	-4.54
669.985	7.46
670.016	14.46
670.047	11.46
670.079	4.46
670.11	8.46
670.142	6.46
670.173	9.46
670.204	5.46
670.236	11.46
670.267	15.46
670.299	18.46
670.33	16.46
670.362	10.46
670.393	-6.54
670.424	7.46
670.456	-4.54
670.487	7.46
670.518	11.46
670.55	5.46
670.581	11.46
670.613	10.46
670.644	0.46
670.675	-15.54
670.707	7.46
670.738	6.46
670.769	16.46
670.801	-4.54
670.832	5.46
670.864	0.46
670.895	13.46
670.926	4.46
670.958	-1.54
670.989	10.46
671.02	9.46
671.052	10.46
671.083	12.46
671.114	-4.54
671.146	12.46
671.177	11.46
671.208	-19.54
671.24	10.46
671.271	25.46
671.302	16.46
671.333	25.46
671.365	-3.54
671.396	3.46
671.427	14.46
671.459	7.46
671.49	20.46
671.521	15.46
671.553	7.46
671.584	4.46
671.615	-12.54
671.646	12.46
671.678	14.46
671.709	-10.54
671.74	-12.54
671.771	-0.54
671.803	16.46
671.834	3.46
671.865	11.46
671.896	11.46
671.928	-1.54
671.959	-10.54
671.99	2.46
672.021	6.46
672.053	7.46
672.084	17.46
672.115	2.46
672.146	7.46
672.178	-6.54
672.209	0.46
672.24	7.46
672.271	30.46
672.303	18.46
672.334	-10.54
672.365	-11.54
672.396	5.46
672.427	3.46
672.459	18.46
672.49	19.46
672.521	17.46
672.552	17.46
672.583	11.46
672.615	7.46
672.646	16.46
672.677	-7.54
672.708	-3.54
672.739	8.46
672.77	25.46
672.802	19.46
672.833	6.46
672.864	-0.54
672.895	-6.54
672.926	-9.54
672.957	-1.54
672.989	13.46
673.02	-0.54
673.051	-2.54
673.082	21.46
673.113	6.46
673.144	15.46
673.175	15.46
673.206	3.46
673.238	-8.54
673.269	6.46
673.3	-6.54
673.331	19.46
673.362	3.46
673.393	7.46
673.424	27.46
673.455	34.46
673.487	11.46
673.518	9.46
673.549	-1.54
673.58	-12.54
673.611	5.46
673.642	4.46
673.673	-17.54
673.704	7.46
673.735	7.46
673.766	-10.54
673.797	-10.54
673.828	3.46
673.86	-18.54
673.891	-24.54
673.922	-6.54
673.953	-1.54
673.984	16.46
674.015	16.46
674.046	8.46
674.077	5.46
674.108	-11.54
674.139	21.46
674.17	4.46
674.201	8.46
674.232	4.46
674.263	4.46
674.294	5.46
674.325	-8.54
674.356	15.46
674.387	7.46
674.418	4.46
674.449	-9.54
674.48	-5.54
674.511	4.46
674.542	6.46
674.573	-5.54
674.604	11.46
674.635	12.46
674.666	11.46
674.697	3.46
674.728	8.46
674.759	6.46
674.79	-1.54
674.821	-4.54
674.852	2.46
674.883	-9.54
674.914	9.46
674.945	-10.54
674.976	-17.54
675.007	-6.54
675.038	-0.54
675.069	-8.54
675.1	3.46
675.131	11.46
675.162	13.46
675.193	7.46
675.224	-1.54
675.254	0.46
675.285	12.46
675.316	5.46
675.347	13.46
675.378	4.46
675.409	-0.54
675.44	20.46
675.471	13.46
675.502	-6.54
675.533	-15.54
675.564	4.46
675.595	13.46
675.625	24.46
675.656	18.46
675.687	7.46
675.718	-9.54
675.749	-2.54
675.78	-3.54
675.811	-1.54
675.842	26.46
675.873	15.46
675.903	-0.54
675.934	-8.54
675.965	-3.54
675.996	-28.54
676.027	-8.54
676.058	-5.54
676.089	-11.54
676.119	8.46
676.15	-7.54
676.181	6.46
676.212	-2.54
676.243	16.46
676.274	-2.54
676.304	21.46
676.335	-1.54
676.366	16.46
676.397	-0.54
676.428	9.46
676.459	20.46
676.489	7.46
676.52	4.46
676.551	-4.54
676.582	2.46
676.613	11.46
676.643	-1.54
676.674	14.46
676.705	5.46
676.736	20.46
676.767	15.46
676.797	17.46
676.828	6.46
676.859	6.46
676.89	7.46
676.92	21.46
676.951	14.46
676.982	13.46
677.013	10.46
677.044	21.46
677.074	20.46
677.105	0.46
677.136	24.46
677.167	4.46
677.197	6.46
677.228	4.46
677.259	-4.54
677.289	3.46
677.32	-10.54
677.351	-6.54
677.382	-2.54
677.412	6.46
677.443	2.46
677.474	16.46
677.505	7.46
677.535	19.46
677.566	12.46
677.597	-6.54
677.627	-1.54
677.658	11.46
677.689	16.46
677.72	0.46
677.75	2.46
677.781	8.46
677.812	6.46
677.842	14.46
677.873	2.46
677.904	13.46
677.934	9.46
677.965	-0.54
677.996	-19.54
678.026	6.46
678.057	7.46
678.088	3.46
678.118	9.46
678.149	3.46
678.18	11.46
678.21	19.46
678.241	29.46
678.272	13.46
678.302	-2.54
678.333	9.46
678.363	10.46
678.394	27.46
678.425	5.46
678.455	3.46
678.486	26.46
678.517	9.46
678.547	11.46
678.578	3.46
678.608	0.46
678.639	3.46
678.67	-5.54
678.7	0.46
678.731	-1.54
678.761	14.46
678.792	12.46
678.823	6.46
678.853	-0.54
678.884	-3.54
678.914	17.46
678.945	7.46
678.975	-5.54
679.006	15.46
679.037	-4.54
679.067	36.46
679.098	0.46
679.128	-6.54
679.159	-3.54
679.189	11.46
679.22	9.46
679.25	13.46
679.281	0.46
679.312	-2.54
679.342	17.46
679.373	26.46
679.403	-4.54
679.434	14.46
679.464	0.46
679.495	9.46
679.525	3.46
679.556	6.46
679.586	8.46
679.617	11.46
679.647	3.46
679.678	0.46
679.708	-7.54
679.739	5.46
679.769	-3.54
679.8	-2.54
679.83	14.46
679.861	-6.54
679.891	-0.54
679.922	9.46
679.952	12.46
679.983	25.46
680.013	9.46
680.044	12.46
680.074	4.46
680.105	14.46
680.135	5.46
680.165	19.46
680.196	3.46
680.226	14.46
680.257	3.46
680.287	1.46
680.318	2.46
680.348	10.46
680.379	18.46
680.409	6.46
680.439	6.46
680.47	2.46
680.5	8.46
680.531	5.46
680.561	2.46
680.592	-0.54
680.622	15.46
680.652	16.46
680.683	35.46
680.713	10.46
680.744	7.46
680.774	6.46
680.804	27.46
680.835	5.46
680.865	5.46
680.896	15.46
680.926	9.46
680.956	19.46
680.987	15.46
681.017	-0.54
681.047	-6.54
681.078	-6.54
681.108	-8.54
681.139	-10.54
681.169	-15.54
681.199	8.46
681.23	4.46
681.26	-9.54
681.29	13.46
681.321	0.46
681.351	23.46
681.381	-3.54
681.412	7.46
681.442	10.46
681.472	23.46
681.503	24.46
681.533	-14.54
681.563	10.46
681.594	2.46
681.624	5.46
681.654	10.46
681.685	12.46
681.715	21.46
681.745	13.46
681.775	6.46
681.806	-10.54
681.836	14.46
681.866	-4.54
681.897	5.46
681.927	15.46
681.957	2.46
681.987	3.46
682.018	-11.54
682.048	3.46
682.078	11.46
682.109	23.46
682.139	5.46
682.169	6.46
682.199	-4.54
682.23	2.46
682.26	8.46
682.29	20.46
682.32	11.46
682.351	16.46
682.381	8.46
682.411	3.46
682.441	-1.54
682.472	9.46
682.502	10.46
682.532	-9.54
682.562	7.46
682.592	12.46
682.623	17.46
682.653	0.46
682.683	4.46
682.713	15.46
682.743	11.46
682.774	3.46
682.804	-0.54
682.834	20.46
682.864	7.46
682.894	12.46
682.925	12.46
682.955	1.46
682.985	3.46
683.015	6.46
683.045	6.46
683.076	-8.54
683.106	-3.54
683.136	-11.54
683.166	-5.54
683.196	-0.54
683.226	11.46
683.257	0.46
683.287	-8.54
683.317	1.46
683.347	-0.54
683.377	-4.54
683.407	-3.54
683.437	0.46
683.468	4.46
683.498	-4.54
683.528	3.46
683.558	8.46
683.588	1.46
683.618	-8.54
683.648	-1.54
683.678	5.46
683.708	22.46
683.739	-0.54
683.769	18.46
683.799	-3.54
683.829	10.46
683.859	14.46
683.889	7.46
683.919	1.46
683.949	0.46
683.979	-4.54
684.009	11.46
684.039	14.46
684.07	-5.54
684.1	18.46
684.13	6.46
684.16	2.46
684.19	20.46
684.22	3.46
684.25	5.46
684.28	-4.54
684.31	18.46
684.34	9.46
684.37	17.46
684.4	-2.54
684.43	6.46
684.46	8.46
684.49	6.46
684.52	8.46
684.55	18.46
684.58	16.46
684.61	10.46
684.64	17.46
684.67	9.46
684.7	10.46
684.73	16.46
684.76	13.46
684.79	23.46
684.82	7.46
684.85	-3.54
684.88	24.46
684.91	4.46
684.94	-7.54
684.97	-5.54
685	4.46
685.03	-8.54
685.06	-0.54
685.09	-6.54
685.12	22.46
685.15	-6.54
685.18	18.46
685.21	3.46
685.24	17.46
685.27	15.46
685.3	5.46
685.33	6.46
685.36	-1.54
685.39	6.46
685.42	-2.54
685.45	14.46
685.48	11.46
685.51	-5.54
685.54	6.46
685.569	5.46
685.599	11.46
685.629	0.46
685.659	8.46
685.689	0.46
685.719	14.46
685.749	-9.54
685.779	23.46
685.809	7.46
685.839	14.46
685.869	-4.54
685.898	-0.54
685.928	-7.54
685.958	-0.54
685.988	21.46
686.018	6.46
686.048	-0.54
686.078	5.46
686.108	24.46
686.137	13.46
686.167	10.46
686.197	-5.54
686.227	3.46
686.257	26.46
686.287	23.46
686.317	5.46
686.346	-8.54
686.376	-15.54
686.406	-0.54
686.436	14.46
686.466	-5.54
686.496	13.46
686.525	11.46
686.555	-4.54
686.585	19.46
686.615	35.46
686.645	13.46
686.675	6.46
686.704	8.46
686.734	20.46
686.764	6.46
686.794	8.46
686.824	13.46
686.853	11.46
686.883	18.46
686.913	32.46
686.943	17.46
686.973	-5.54
687.002	12.46
687.032	6.46
687.062	-1.54
687.092	11.46
687.121	8.46
687.151	20.46
687.181	0.46
687.211	22.46
687.24	8.46
687.27	14.46
687.3	-0.54
687.33	3.46
687.359	-25.54
687.389	5.46
687.419	7.46
687.449	0.46
687.478	22.46
687.508	3.46
687.538	16.46
687.568	10.46
687.597	-10.54
687.627	1.46
687.657	15.46
687.686	23.46
687.716	15.46
687.746	1.46
687.776	-6.54
687.805	17.46
687.835	6.46
687.865	29.46
687.894	8.46
687.924	14.46
687.954	12.46
687.983	7.46
688.013	16.46
688.043	5.46
688.072	5.46
688.102	12.46
688.132	1.46
688.161	14.46
688.191	7.46
688.221	38.46
688.25	15.46
688.28	7.46
688.31	-2.54
688.339	7.46
688.369	3.46
688.399	0.46
688.428	13.46
688.458	21.46
688.488	9.46
688.517	18.46
688.547	3.46
688.576	31.46
688.606	14.46
688.636	-10.54
688.665	16.46
688.695	10.46
688.725	19.46
688.754	17.46
688.784	11.46
688.813	19.46
688.843	12.46
688.873	-7.54
688.902	-6.54
688.932	3.46
688.961	17.46
688.991	18.46
689.02	33.46
689.05	17.46
689.08	22.46
689.109	6.46
689.139	-3.54
689.168	3.46
689.198	-16.54
689.227	18.46
689.257	16.46
689.287	24.46
689.316	23.46
689.346	-15.54
689.375	-1.54
689.405	3.46
689.434	3.46
689.464	21.46
689.493	3.46
689.523	4.46
689.552	2.46
689.582	12.46
689.611	10.46
689.641	29.46
689.67	15.46
689.7	30.46
689.73	13.46
689.759	10.46
689.789	16.46
689.818	7.46
689.848	-0.54
689.877	29.46
689.906	4.46
689.936	-21.54
689.965	4.46
689.995	-0.54
690.024	12.46
690.054	8.46
690.083	5.46
690.113	-0.54
690.142	6.46
690.172	10.46
690.201	-7.54
690.231	4.46
690.26	24.46
690.29	10.46
690.319	35.46
690.348	27.46
690.378	19.46
690.407	19.46
690.437	5.46
690.466	14.46
690.496	1.46
690.525	7.46
690.555	0.46
690.584	8.46
690.613	2.46
690.643	7.46
690.672	15.46
690.702	9.46
690.731	2.46
690.76	34.46
690.79	67.46
690.819	40.46
690.849	45.46
690.878	37.46
690.907	26.46
690.937	31.46
690.966	34.46
690.996	-0.54
691.025	9.46
691.054	17.46
691.084	13.46
691.113	10.46
691.142	14.46
691.172	17.46
691.201	29.46
691.23	7.46
691.26	3.46
691.289	15.46
691.319	5.46
691.348	7.46
691.377	11.46
691.407	9.46
691.436	18.46
691.465	12.46
691.495	16.46
691.524	3.46
691.553	-8.54
691.583	5.46
691.612	20.46
691.641	-1.54
691.67	11.46
691.7	19.46
691.729	-4.54
691.758	-0.54
691.788	-2.54
691.817	3.46
691.846	-6.54
691.876	10.46
691.905	-11.54
691.934	4.46
691.963	27.46
691.993	13.46
692.022	-2.54
692.051	3.46
692.081	23.46
692.11	23.46
692.139	14.46
692.168	19.46
692.198	27.46
692.227	26.46
692.256	14.46
692.285	-2.54
692.315	4.46
692.344	3.46
692.373	13.46
692.402	-20.54
692.432	3.46
692.461	0.46
692.49	19.46
692.519	10.46
692.548	18.46
692.578	18.46
692.607	5.46
692.636	5.46
692.665	19.46
692.694	0.46
692.724	10.46
692.753	14.46
692.782	23.46
692.811	-2.54
692.84	15.46
692.87	7.46
692.899	6.46
692.928	-1.54
692.957	3.46
692.986	7.46
693.016	29.46
693.045	30.46
693.074	15.46
693.103	13.46
693.132	6.46
693.161	7.46
693.191	13.46
693.22	-2.54
693.249	17.46
693.278	-1.54
693.307	7.46
693.336	6.46
693.365	-3.54
693.395	11.46
693.424	11.46
693.453	23.46
693.482	0.46
693.511	13.46
693.54	11.46
693.569	15.46
693.598	11.46
693.628	15.46
693.657	11.46
693.686	25.46
693.715	26.46
693.744	26.46
693.773	26.46
693.802	22.46
693.831	7.46
693.86	20.46
693.889	4.46
693.919	13.46
693.948	14.46
693.977	11.46
694.006	-1.54
694.035	3.46
694.064	6.46
694.093	14.46
694.122	9.46
694.151	5.46
694.18	7.46
694.209	31.46
694.238	9.46
694.267	28.46
694.296	9.46
694.325	29.46
694.354	23.46
694.383	21.46
694.412	0.46
694.441	7.46
694.471	7.46
694.5	-7.54
694.529	11.46
694.558	18.46
694.587	23.46
694.616	14.46
694.645	8.46
694.674	26.46
694.703	11.46
694.732	5.46
694.761	27.46
694.79	23.46
694.819	-3.54
694.848	-3.54
694.877	27.46
694.906	32.46
694.935	25.46
694.963	22.46
694.992	27.46
695.021	22.46
695.05	17.46
695.079	15.46
695.108	2.46
695.137	25.46
695.166	15.46
695.195	-0.54
695.224	19.46
695.253	14.46
695.282	14.46
695.311	-4.54
695.34	5.46
695.369	28.46
695.398	12.46
695.427	23.46
695.456	9.46
695.485	27.46
695.513	10.46
695.542	19.46
695.571	3.46
695.6	20.46
695.629	12.46
695.658	26.46
695.687	15.46
695.716	21.46
695.745	29.46
695.774	-4.54
695.802	2.46
695.831	6.46
695.86	25.46
695.889	15.46
695.918	0.46
695.947	-0.54
695.976	12.46
696.005	10.46
696.033	7.46
696.062	25.46
696.091	21.46
696.12	11.46
696.149	21.46
696.178	6.46
696.207	12.46
696.235	13.46
696.264	18.46
696.293	6.46
696.322	5.46
696.351	24.46
696.38	3.46
696.408	6.46
696.437	14.46
696.466	7.46
696.495	18.46
696.524	12.46
696.553	28.46
696.581	10.46
696.61	-8.54
696.639	14.46
696.668	23.46
696.697	18.46
696.725	7.46
696.754	14.46
696.783	-3.54
696.812	9.46
696.84	28.46
696.869	22.46
696.898	12.46
696.927	26.46
696.956	31.46
696.984	5.46
697.013	17.46
697.042	10.46
697.071	-9.54
697.099	11.46
697.128	12.46
697.157	10.46
697.186	-2.54
697.214	5.46
697.243	10.46
697.272	14.46
697.301	13.46
697.329	5.46
697.358	11.46
697.387	28.46
697.415	22.46
697.444	-0.54
697.473	-4.54
697.502	6.46
697.53	35.46
697.559	21.46
697.588	18.46
697.616	5.46
697.645	9.46
697.674	20.46
697.703	17.46
697.731	16.46
697.76	17.46
697.789	6.46
697.817	3.46
697.846	35.46
697.875	12.46
697.903	38.46
697.932	33.46
697.961	16.46
697.989	17.46
698.018	18.46
698.047	16.46
698.075	23.46
698.104	-2.54
698.133	-1.54
698.161	1.46
698.19	6.46
698.218	10.46
698.247	7.46
698.276	7.46
698.304	11.46
698.333	10.46
698.362	4.46
698.39	5.46
698.419	15.46
698.447	0.46
698.476	16.46
698.505	36.46
698.533	26.46
698.562	9.46
698.591	3.46
698.619	1.46
698.648	22.46
698.676	0.46
698.705	15.46
698.733	-4.54
698.762	15.46
698.791	20.46
698.819	13.46
698.848	6.46
698.876	30.46
698.905	28.46
698.933	5.46
698.962	13.46
698.991	16.46
699.019	15.46
699.048	9.46
699.076	22.46
699.105	-9.54
699.133	-1.54
699.162	5.46
699.19	16.46
699.219	24.46
699.248	8.46
699.276	4.46
699.305	-2.54
699.333	14.46
699.362	8.46
699.39	28.46
699.419	-8.54
699.447	14.46
699.476	21.46
699.504	13.46
699.533	24.46
699.561	-2.54
699.59	4.46
699.618	11.46
699.647	10.46
699.675	12.46
699.704	13.46
699.732	-9.54
699.761	6.46
699.789	-0.54
699.818	12.46
699.846	11.46
699.874	4.46
699.903	6.46
699.931	7.46
699.96	12.46
699.988	6.46
700.017	14.46
700.045	2.46
700.074	2.46
700.102	-1.54
700.13	15.46
700.159	3.46
700.187	19.46
700.216	12.46
700.244	0.46
700.273	-12.54
700.301	-3.54
700.329	6.46
700.358	23.46
700.386	13.46
700.415	3.46
700.443	1.46
700.472	4.46
700.5	10.46
700.528	8.46
700.557	3.46
700.585	-0.54
700.614	1.46
700.642	23.46
700.67	15.46
700.699	12.46
700.727	8.46
700.755	12.46
700.784	14.46
700.812	12.46
700.841	9.46
700.869	2.46
700.897	-15.54
700.926	-4.54
700.954	13.46
700.982	10.46
701.011	10.46
701.039	18.46
701.067	17.46
701.096	12.46
701.124	-5.54
701.152	15.46
701.181	18.46
701.209	-0.54
701.237	-6.54
701.266	-12.54
701.294	2.46
701.322	17.46
701.351	20.46
701.379	3.46
701.407	-7.54
701.435	14.46
701.464	32.46
701.492	34.46
701.52	23.46
701.549	18.46
701.577	11.46
701.605	6.46
701.634	16.46
701.662	21.46
701.69	3.46
701.718	-17.54
701.747	20.46
701.775	16.46
701.803	15.46
701.831	10.46
701.86	3.46
701.888	4.46
701.916	5.46
701.944	10.46
701.973	1.46
702.001	-7.54
702.029	-5.54
702.057	-22.54
702.086	-6.54
702.114	-9.54
702.142	20.46
702.17	-5.54
702.199	7.46
702.227	8.46
702.255	0.46
702.283	4.46
702.311	17.46
702.34	11.46
702.368	-3.54
702.396	15.46
702.424	12.46
702.452	3.46
702.481	3.46
702.509	6.46
702.537	26.46
702.565	15.46
702.593	-18.54
702.621	-12.54
702.65	0.46
702.678	13.46
702.706	5.46
702.734	-10.54
702.762	8.46
702.79	25.46
702.819	14.46
702.847	13.46
702.875	29.46
702.903	20.46
702.931	-3.54
702.959	7.46
702.988	26.46
703.016	-20.54
703.044	1.46
703.072	-3.54
703.1	4.46
703.128	1.46
703.156	17.46
703.184	-1.54
703.212	18.46
703.241	14.46
703.269	12.46
703.297	21.46
703.325	8.46
703.353	-3.54
703.381	-1.54
703.409	14.46
703.437	-5.54
703.465	14.46
703.493	8.46
703.522	9.46
703.55	16.46
703.578	13.46
703.606	0.46
703.634	-2.54
703.662	-5.54
703.69	-4.54
703.718	1.46
703.746	35.46
703.774	9.46
703.802	29.46
703.83	25.46
703.858	25.46
703.886	-0.54
703.914	-13.54
703.942	7.46
703.97	6.46
703.998	12.46
704.027	21.46
704.055	12.46
704.083	11.46
704.111	11.46
704.139	-5.54
704.167	0.46
704.195	2.46
704.223	6.46
704.251	0.46
704.279	8.46
704.307	-1.54
704.335	-8.54
704.363	11.46
704.391	12.46
704.419	0.46
704.447	4.46
704.475	25.46
704.503	-5.54
704.531	17.46
704.558	9.46
704.586	2.46
704.614	3.46
704.642	10.46
704.67	2.46
704.698	14.46
704.726	9.46
704.754	17.46
704.782	3.46
704.81	17.46
704.838	29.46
704.866	25.46
704.894	-0.54
704.922	3.46
704.95	20.46
704.978	14.46
705.006	16.46
705.034	27.46
705.061	4.46
705.089	24.46
705.117	-8.54
705.145	2.46
705.173	7.46
705.201	17.46
705.229	22.46
705.257	11.46
705.285	10.46
705.313	19.46
705.34	18.46
705.368	10.46
705.396	11.46
705.424	-9.54
705.452	3.46
705.48	5.46
705.508	5.46
705.536	14.46
705.563	1.46
705.591	21.46
705.619	4.46
705.647	2.46
705.675	-6.54
705.703	6.46
705.731	11.46
705.758	26.46
705.786	18.46
705.814	22.46
705.842	-1.54
705.87	19.46
705.898	7.46
705.925	-5.54
705.953	10.46
705.981	3.46
706.009	4.46
706.037	-0.54
706.065	10.46
706.092	10.46
706.12	11.46
706.148	-5.54
706.176	9.46
706.204	11.46
706.231	15.46
706.259	6.46
706.287	-3.54
706.315	2.46
706.342	6.46
706.37	18.46
706.398	7.46
706.426	-9.54
706.454	10.46
706.481	9.46
706.509	3.46
706.537	0.46
706.565	3.46
706.592	15.46
706.62	-4.54
706.648	15.46
706.676	-1.54
706.703	2.46
706.731	1.46
706.759	-0.54
706.787	11.46
706.814	4.46
706.842	-3.54
706.87	2.46
706.897	4.46
706.925	10.46
706.953	20.46
706.981	10.46
707.008	20.46
707.036	20.46
707.064	-1.54
707.091	-9.54
707.119	11.46
707.147	10.46
707.174	3.46
707.202	20.46
707.23	-3.54
707.258	17.46
707.285	-7.54
707.313	-4.54
707.341	-7.54
707.368	6.46
707.396	18.46
707.424	15.46
707.451	10.46
707.479	14.46
707.507	4.46
707.534	6.46
707.562	13.46
707.59	2.46
707.617	10.46
707.645	12.46
707.672	13.46
707.7	13.46
707.728	17.46
707.755	18.46
707.783	18.46
707.811	14.46
707.838	-2.54
707.866	5.46
707.893	-3.54
707.921	14.46
707.949	15.46
707.976	14.46
708.004	11.46
708.031	12.46
708.059	14.46
708.087	5.46
708.114	14.46
708.142	9.46
708.169	14.46
708.197	-4.54
708.225	5.46
708.252	11.46
708.28	25.46
708.307	-0.54
708.335	8.46
708.362	7.46
708.39	-4.54
708.418	10.46
708.445	6.46
708.473	-1.54
708.5	-0.54
708.528	18.46
708.555	5.46
708.583	-6.54
708.61	-4.54
708.638	0.46
708.665	0.46
708.693	-4.54
708.72	7.46
708.748	-1.54
708.776	22.46
708.803	29.46
708.831	7.46
708.858	28.46
708.886	24.46
708.913	12.46
708.941	2.46
708.968	38.46
708.996	-5.54
709.023	28.46
709.051	10.46
709.078	-5.54
709.105	23.46
709.133	-0.54
709.16	17.46
709.188	19.46
709.215	18.46
709.243	27.46
709.27	11.46
709.298	4.46
709.325	6.46
709.353	-1.54
709.38	18.46
709.408	22.46
709.435	12.46
709.462	9.46
709.49	12.46
709.517	-7.54
709.545	3.46
709.572	13.46
709.6	6.46
709.627	22.46
709.655	4.46
709.682	13.46
709.709	-10.54
709.737	13.46
709.764	-8.54
709.792	14.46
709.819	13.46
709.846	-7.54
709.874	-9.54
709.901	15.46
709.929	20.46
709.956	12.46
709.983	4.46
710.011	0.46
710.038	-5.54
710.066	10.46
710.093	9.46
710.12	5.46
710.148	-3.54
710.175	2.46
710.202	-0.54
710.23	17.46
710.257	16.46
710.284	24.46
710.312	-3.54
710.339	3.46
710.366	12.46
710.394	2.46
710.421	9.46
710.448	3.46
710.476	-12.54
710.503	5.46
710.53	21.46
710.558	18.46
710.585	10.46
710.612	0.46
710.64	2.46
710.667	2.46
710.694	-1.54
710.722	3.46
710.749	4.46
710.776	-0.54
710.804	21.46
710.831	5.46
710.858	-3.54
710.885	-6.54
710.913	2.46
710.94	19.46
710.967	10.46
710.995	-3.54
711.022	-12.54
711.049	15.46
711.076	-2.54
711.104	12.46
711.131	-10.54
711.158	4.46
711.185	7.46
711.213	-20.54
711.24	-9.54
711.267	15.46
711.294	-7.54
711.322	24.46
711.349	4.46
711.376	11.46
711.403	20.46
711.431	1.46
711.458	3.46
711.485	0.46
711.512	10.46
711.54	7.46
711.567	8.46
711.594	14.46
711.621	17.46
711.648	7.46
711.676	8.46
711.703	12.46
711.73	-12.54
711.757	-4.54
711.784	-5.54
711.812	-4.54
711.839	10.46
711.866	-5.54
711.893	-0.54
711.92	11.46
711.947	3.46
711.975	34.46
712.002	12.46
712.029	3.46
712.056	-8.54
712.083	16.46
712.11	3.46
712.138	6.46
712.165	18.46
712.192	3.46
712.219	0.46
712.246	-3.54
712.273	-5.54
712.3	-13.54
712.328	-4.54
712.355	20.46
712.382	-4.54
712.409	12.46
712.436	-4.54
712.463	14.46
712.49	25.46
712.517	7.46
712.544	15.46
712.572	8.46
712.599	9.46
712.626	12.46
712.653	-16.54
712.68	-9.54
712.707	12.46
712.734	2.46
712.761	2.46
712.788	16.46
712.815	15.46
712.842	7.46
712.87	9.46
712.897	-2.54
712.924	7.46
712.951	11.46
712.978	16.46
713.005	18.46
713.032	20.46
713.059	0.46
713.086	-5.54
713.113	-7.54
713.14	-8.54
713.167	11.46
713.194	11.46
713.221	-15.54
713.248	16.46
713.275	2.46
713.302	-6.54
713.329	7.46
713.356	14.46
713.383	28.46
713.41	24.46
713.437	-8.54
713.464	11.46
713.491	16.46
713.518	1.46
713.545	4.46
713.572	16.46
713.599	27.46
713.626	2.46
713.653	27.46
713.68	-0.54
713.707	20.46
713.734	16.46
713.761	1.46
713.788	-2.54
713.815	14.46
713.842	-1.54
713.869	13.46
713.896	11.46
713.923	-5.54
713.95	8.46
713.977	1.46
714.004	14.46
714.031	4.46
714.058	5.46
714.085	0.46
714.112	12.46
714.139	2.46
714.165	6.46
714.192	6.46
714.219	14.46
714.246	3.46
714.273	5.46
714.3	10.46
714.327	3.46
714.354	2.46
714.381	-5.54
714.408	0.46
714.435	-9.54
714.461	3.46
714.488	21.46
714.515	-11.54
714.542	-11.54
714.569	-4.54
714.596	-9.54
714.623	4.46
714.65	-8.54
714.677	-1.54
714.703	8.46
714.73	12.46
714.757	12.46
714.784	6.46
714.811	-8.54
714.838	-9.54
714.865	0.46
714.891	19.46
714.918	9.46
714.945	-1.54
714.972	-7.54
714.999	12.46
715.026	-12.54
715.052	3.46
715.079	3.46
715.106	17.46
715.133	0.46
715.16	-14.54
715.187	12.46
715.213	30.46
715.24	-8.54
715.267	7.46
715.294	3.46
715.321	19.46
715.347	10.46
715.374	1.46
715.401	-3.54
715.428	15.46
715.455	14.46
715.481	7.46
715.508	25.46
715.535	-7.54
715.562	17.46
715.588	-1.54
715.615	0.46
715.642	-1.54
715.669	12.46
715.695	-20.54
715.722	-1.54
715.749	3.46
715.776	24.46
715.802	13.46
715.829	6.46
715.856	-5.54
715.883	17.46
715.909	0.46
715.936	16.46
715.963	2.46
715.99	4.46
716.016	21.46
716.043	19.46
716.07	-1.54
716.096	-11.54
716.123	1.46
716.15	12.46
716.177	2.46
716.203	3.46
716.23	25.46
716.257	7.46
716.283	12.46
716.31	7.46
716.337	11.46
716.363	2.46
716.39	-10.54
716.417	3.46
716.443	10.46
716.47	5.46
716.497	15.46
716.523	22.46
716.55	3.46
716.577	14.46
716.603	2.46
716.63	14.46
716.657	13.46
716.683	-6.54
716.71	9.46
716.737	-3.54
716.763	9.46
716.79	12.46
716.817	6.46
716.843	9.46
716.87	-1.54
716.897	4.46
716.923	23.46
716.95	-0.54
716.976	-5.54
717.003	-1.54
717.03	16.46
717.056	9.46
717.083	-3.54
717.109	22.46
717.136	13.46
717.163	11.46
717.189	12.46
717.216	11.46
717.242	8.46
717.269	11.46
717.296	2.46
717.322	14.46
717.349	32.46
717.375	10.46
717.402	5.46
717.428	6.46
717.455	13.46
717.481	4.46
717.508	17.46
717.535	10.46
717.561	10.46
717.588	4.46
717.614	10.46
717.641	-2.54
717.667	12.46
717.694	0.46
717.72	1.46
717.747	17.46
717.773	-7.54
717.8	21.46
717.826	11.46
717.853	15.46
717.88	8.46
717.906	13.46
717.933	13.46
717.959	23.46
717.986	13.46
718.012	3.46
718.039	17.46
718.065	15.46
718.092	13.46
718.118	7.46
718.144	-6.54
718.171	21.46
718.197	18.46
718.224	12.46
718.25	0.46
718.277	13.46
718.303	-2.54
718.33	1.46
718.356	-0.54
718.383	-16.54
718.409	10.46
718.436	4.46
718.462	3.46
718.489	0.46
718.515	22.46
718.541	22.46
718.568	-1.54
718.594	6.46
718.621	13.46
718.647	11.46
718.674	21.46
718.7	19.46
718.726	-2.54
718.753	6.46
718.779	5.46
718.806	16.46
718.832	11.46
718.858	7.46
718.885	6.46
718.911	4.46
718.938	15.46
718.964	8.46
718.99	0.46
719.017	6.46
719.043	12.46
719.07	23.46
719.096	6.46
719.122	2.46
719.149	7.46
719.175	8.46
719.201	2.46
719.228	9.46
719.254	17.46
719.281	0.46
719.307	8.46
719.333	0.46
719.36	23.46
719.386	13.46
719.412	15.46
719.439	1.46
719.465	5.46
719.491	13.46
719.518	15.46
719.544	19.46
719.57	14.46
719.597	14.46
719.623	-9.54
719.649	10.46
719.675	-0.54
719.702	5.46
719.728	19.46
719.754	-0.54
719.781	-8.54
719.807	-2.54
719.833	-1.54
719.86	11.46
719.886	7.46
719.912	0.46
719.938	-2.54
719.965	10.46
719.991	6.46
720.017	12.46
720.044	10.46
720.07	17.46
720.096	20.46
720.122	6.46
720.149	15.46
720.175	36.46
720.201	15.46
720.227	10.46
720.254	5.46
720.28	11.46
720.306	-6.54
720.332	9.46
720.359	7.46
720.385	12.46
720.411	9.46
720.437	16.46
720.463	-2.54
720.49	9.46
720.516	-6.54
720.542	-2.54
720.568	19.46
720.595	2.46
720.621	2.46
720.647	3.46
720.673	10.46
720.699	4.46
720.725	16.46
720.752	14.46
720.778	8.46
720.804	22.46
720.83	18.46
720.856	13.46
720.883	2.46
720.909	2.46
720.935	3.46
720.961	17.46
720.987	11.46
721.013	22.46
721.04	-1.54
721.066	5.46
721.092	9.46
721.118	24.46
721.144	10.46
721.17	-3.54
721.196	12.46
721.223	-0.54
721.249	-1.54
721.275	28.46
721.301	7.46
721.327	21.46
721.353	13.46
721.379	0.46
721.405	12.46
721.432	10.46
721.458	14.46
721.484	19.46
721.51	3.46
721.536	-3.54
721.562	8.46
721.588	15.46
721.614	4.46
721.64	1.46
721.666	-3.54
721.693	-3.54
721.719	-1.54
721.745	2.46
721.771	-2.54
721.797	14.46
721.823	20.46
721.849	26.46
721.875	12.46
721.901	-3.54
721.927	-0.54
721.953	6.46
721.979	21.46
722.005	5.46
722.031	1.46
722.057	24.46
722.083	14.46
722.109	2.46
722.135	21.46
722.161	26.46
722.187	-1.54
722.214	13.46
722.24	13.46
722.266	-0.54
722.292	29.46
722.318	17.46
722.344	24.46
722.37	14.46
722.396	9.46
722.422	0.46
722.448	1.46
722.474	2.46
722.5	23.46
722.526	13.46
722.552	0.46
722.578	19.46
722.603	26.46
722.629	7.46
722.655	6.46
722.681	7.46
722.707	11.46
722.733	1.46
722.759	-20.54
722.785	11.46
722.811	17.46
722.837	19.46
722.863	16.46
722.889	12.46
722.915	6.46
722.941	9.46
722.967	18.46
722.993	24.46
723.019	18.46
723.045	8.46
723.071	19.46
723.097	23.46
723.122	17.46
723.148	-2.54
723.174	15.46
723.2	14.46
723.226	5.46
723.252	0.46
723.278	-11.54
723.304	13.46
723.33	4.46
723.356	3.46
723.381	-11.54
723.407	-6.54
723.433	7.46
723.459	-0.54
723.485	15.46
723.511	12.46
723.537	-2.54
723.563	-4.54
723.588	12.46
723.614	23.46
723.64	18.46
723.666	5.46
723.692	10.46
723.718	9.46
723.744	16.46
723.769	8.46
723.795	1.46
723.821	16.46
723.847	15.46
723.873	12.46
723.899	5.46
723.924	10.46
723.95	-5.54
723.976	6.46
724.002	3.46
724.028	-12.54
724.053	10.46
724.079	4.46
724.105	13.46
724.131	8.46
724.157	8.46
724.182	27.46
724.208	3.46
724.234	12.46
724.26	1.46
724.286	24.46
724.311	17.46
724.337	-0.54
724.363	-0.54
724.389	11.46
724.415	2.46
724.44	22.46
724.466	6.46
724.492	-3.54
724.518	4.46
724.543	1.46
724.569	0.46
724.595	-1.54
724.621	2.46
724.646	2.46
724.672	-0.54
724.698	12.46
724.723	9.46
724.749	18.46
724.775	12.46
724.801	3.46
724.826	-3.54
724.852	12.46
724.878	7.46
724.904	-7.54
724.929	12.46
724.955	2.46
724.981	-5.54
725.006	5.46
725.032	11.46
725.058	18.46
725.083	0.46
725.109	3.46
725.135	12.46
725.161	1.46
725.186	18.46
725.212	4.46
725.238	20.46
725.263	-3.54
725.289	6.46
725.315	0.46
725.34	-5.54
725.366	5.46
725.392	3.46
725.417	5.46
725.443	-1.54
725.468	1.46
725.494	20.46
725.52	14.46
725.545	6.46
725.571	0.46
725.597	9.46
725.622	12.46
725.648	3.46
725.674	11.46
725.699	18.46
725.725	2.46
725.75	31.46
725.776	10.46
725.802	7.46
725.827	23.46
725.853	4.46
725.878	19.46
725.904	9.46
725.93	11.46
725.955	10.46
725.981	-0.54
726.006	6.46
726.032	13.46
726.057	-5.54
726.083	5.46
726.109	4.46
726.134	17.46
726.16	16.46
726.185	9.46
726.211	18.46
726.236	2.46
726.262	7.46
726.288	5.46
726.313	26.46
726.339	2.46
726.364	3.46
726.39	22.46
726.415	14.46
726.441	11.46
726.466	5.46
726.492	14.46
726.517	10.46
726.543	1.46
726.568	-10.54
726.594	12.46
726.619	17.46
726.645	19.46
726.67	4.46
726.696	4.46
726.721	7.46
726.747	11.46
726.772	9.46
726.798	15.46
726.823	9.46
726.849	1.46
726.874	14.46
726.9	27.46
726.925	27.46
726.951	6.46
726.976	12.46
727.002	8.46
727.027	26.46
727.053	26.46
727.078	3.46
727.104	0.46
727.129	-7.54
727.155	9.46
727.18	20.46
727.205	-1.54
727.231	-0.54
727.256	10.46
727.282	16.46
727.307	13.46
727.333	-0.54
727.358	7.46
727.383	8.46
727.409	-4.54
727.434	10.46
727.46	-2.54
727.485	10.46
727.511	4.46
727.536	-11.54
727.561	-17.54
727.587	-1.54
727.612	2.46
727.637	-3.54
727.663	-3.54
727.688	22.46
727.714	3.46
727.739	3.46
727.764	1.46
727.79	11.46
727.815	7.46
727.841	3.46
727.866	9.46
727.891	14.46
727.917	3.46
727.942	-1.54
727.967	20.46
727.993	4.46
728.018	13.46
728.043	5.46
728.069	10.46
728.094	22.46
728.119	5.46
728.145	12.46
728.17	11.46
728.195	14.46
728.221	18.46
728.246	6.46
728.271	-2.54
728.297	-4.54
728.322	3.46
728.347	8.46
728.373	10.46
728.398	10.46
728.423	6.46
728.448	11.46
728.474	16.46
728.499	27.46
728.524	-11.54
728.55	10.46
728.575	-2.54
728.6	5.46
728.625	1.46
728.651	5.46
728.676	14.46
728.701	-5.54
728.727	23.46
728.752	-1.54
728.777	-0.54
728.802	6.46
728.828	14.46
728.853	15.46
728.878	2.46
728.903	8.46
728.929	-6.54
728.954	-0.54
728.979	9.46
729.004	7.46
729.03	12.46
729.055	13.46
729.08	-0.54
729.105	3.46
729.13	10.46
729.156	15.46
729.181	-4.54
729.206	-17.54
729.231	3.46
729.256	12.46
729.282	12.46
729.307	-2.54
729.332	-4.54
729.357	-0.54
729.382	6.46
729.408	25.46
729.433	18.46
729.458	-5.54
729.483	14.46
729.508	14.46
729.533	10.46
729.559	11.46
729.584	10.46
729.609	22.46
729.634	2.46
729.659	-4.54
729.684	8.46
729.71	19.46
729.735	2.46
729.76	19.46
729.785	-2.54
729.81	10.46
729.835	-1.54
729.86	11.46
729.886	12.46
729.911	24.46
729.936	28.46
729.961	32.46
729.986	29.46
730.011	67.46
730.036	209.46
730.061	983.46
730.086	2700.46
730.112	3394.46
730.137	2850.46
730.162	2111.46
730.187	1691.46
730.212	1292.46
730.237	804.46
730.262	458.46
730.287	244.46
730.312	147.46
730.337	79.46
730.362	77.46
730.387	34.46
730.413	27.46
730.438	8.46
730.463	27.46
730.488	30.46
730.513	19.46
730.538	14.46
730.563	45.46
730.588	19.46
730.613	10.46
730.638	5.46
730.663	21.46
730.688	22.46
730.713	23.46
730.738	20.46
730.763	16.46
730.788	-9.54
730.813	-6.54
730.838	-6.54
730.863	8.46
730.888	3.46
730.913	10.46
730.938	7.46
730.963	47.46
730.988	117.46
731.013	402.46
731.038	609.46
731.063	618.46
731.088	487.46
731.113	347.46
731.138	282.46
731.163	188.46
731.188	112.46
731.213	71.46
731.238	44.46
731.263	20.46
731.288	8.46
731.313	27.46
731.338	10.46
731.363	20.46
731.388	16.46
731.413	7.46
731.438	22.46
731.463	20.46
731.487	5.46
731.512	-1.54
731.537	-5.54
731.562	9.46
731.587	11.46
731.612	5.46
731.637	-8.54
731.662	3.46
731.687	14.46
731.712	-4.54
731.737	-3.54
731.762	-3.54
731.786	8.46
731.811	-4.54
731.836	2.46
731.861	-4.54
731.886	-6.54
731.911	3.46
731.936	11.46
731.961	10.46
731.986	0.46
732.01	10.46
732.035	3.46
732.06	24.46
732.085	6.46
732.11	8.46
732.135	-4.54
732.16	-1.54
732.184	-1.54
732.209	9.46
732.234	8.46
732.259	-2.54
732.284	27.46
732.309	2.46
732.334	2.46
732.358	-6.54
732.383	-5.54
732.408	10.46
732.433	8.46
732.458	12.46
732.482	-0.54
732.507	-13.54
732.532	12.46
732.557	26.46
732.582	17.46
732.607	32.46
732.631	65.46
732.656	89.46
732.681	149.46
732.706	355.46
732.73	474.46
732.755	397.46
732.78	324.46
732.805	247.46
732.83	187.46
732.854	134.46
732.879	102.46
732.904	39.46
732.929	32.46
732.953	13.46
732.978	6.46
733.003	3.46
733.028	-5.54
733.052	2.46
733.077	14.46
733.102	29.46
733.127	8.46
733.151	25.46
733.176	18.46
733.201	6.46
733.226	7.46
733.25	11.46
733.275	3.46
733.3	5.46
733.324	21.46
733.349	18.46
733.374	19.46
733.399	7.46
733.423	-2.54
733.448	-0.54
733.473	-7.54
733.497	-0.54
733.522	-5.54
733.547	22.46
733.571	32.46
733.596	15.46
733.621	17.46
733.646	4.46
733.67	18.46
733.695	3.46
733.72	5.46
733.744	10.46
733.769	0.46
733.794	21.46
733.818	13.46
733.843	-2.54
733.867	-2.54
733.892	13.46
733.917	-6.54
733.941	14.46
733.966	20.46
733.991	-4.54
734.015	24.46
734.04	7.46
734.065	23.46
734.089	23.46
734.114	0.46
734.138	-0.54
734.163	2.46
734.188	17.46
734.212	22.46
734.237	11.46
734.261	7.46
734.286	11.46
734.311	5.46
734.335	7.46
734.36	7.46
734.384	-1.54
734.409	7.46
734.434	-0.54
734.458	22.46
734.483	-12.54
734.507	-0.54
734.532	3.46
734.556	14.46
734.581	0.46
734.606	8.46
734.63	-3.54
734.655	11.46
734.679	17.46
734.704	10.46
734.728	3.46
734.753	1.46
734.777	6.46
734.802	-5.54
734.826	7.46
734.851	6.46
734.876	4.46
734.9	6.46
734.925	4.46
734.949	9.46
734.974	5.46
734.998	4.46
735.023	0.46
735.047	4.46
735.072	26.46
735.096	-2.54
735.121	-1.54
735.145	13.46
735.17	3.46
735.194	16.46
735.219	5.46
735.243	-0.54
735.268	18.46
735.292	21.46
735.317	20.46
735.341	8.46
735.365	-6.54
735.39	7.46
735.414	7.46
735.439	12.46
735.463	3.46
735.488	22.46
735.512	-3.54
735.537	-5.54
735.561	4.46
735.586	18.46
735.61	19.46
735.634	2.46
735.659	11.46
735.683	10.46
735.708	-2.54
735.732	-8.54
735.757	0.46
735.781	12.46
735.805	6.46
735.83	-1.54
735.854	-4.54
735.879	-9.54
735.903	19.46
735.927	5.46
735.952	-3.54
735.976	5.46
736.001	-1.54
736.025	2.46
736.049	5.46
736.074	4.46
736.098	8.46
736.123	0.46
736.147	7.46
736.171	3.46
736.196	13.46
736.22	10.46
736.244	0.46
736.269	3.46
736.293	4.46
736.317	5.46
736.342	20.46
736.366	13.46
736.39	-4.54
736.415	7.46
736.439	-0.54
736.463	18.46
736.488	18.46
736.512	19.46
736.536	20.46
736.561	15.46
736.585	7.46
736.609	7.46
736.634	9.46
736.658	5.46
736.682	-0.54
736.707	-11.54
736.731	-2.54
736.755	-3.54
736.78	36.46
736.804	16.46
736.828	19.46
736.852	5.46
736.877	12.46
736.901	11.46
736.925	7.46
736.949	20.46
736.974	7.46
736.998	9.46
737.022	11.46
737.047	3.46
737.071	3.46
737.095	1.46
737.119	30.46
737.144	23.46
737.168	-2.54
737.192	-1.54
737.216	2.46
737.241	4.46
737.265	2.46
737.289	20.46
737.313	3.46
737.337	19.46
737.362	-0.54
737.386	-7.54
737.41	0.46
737.434	11.46
737.459	4.46
737.483	9.46
737.507	17.46
737.531	12.46
737.555	-4.54
737.58	10.46
737.604	12.46
737.628	-5.54
737.652	12.46
737.676	-5.54
737.701	8.46
737.725	12.46
737.749	8.46
737.773	9.46
737.797	-0.54
737.821	8.46
737.846	-7.54
737.87	17.46
737.894	15.46
737.918	11.46
737.942	-13.54
737.966	31.46
737.99	24.46
738.015	14.46
738.039	17.46
738.063	6.46
738.087	22.46
738.111	-1.54
738.135	14.46
738.159	4.46
738.184	6.46
738.208	20.46
738.232	6.46
738.256	9.46
738.28	7.46
738.304	38.46
738.328	17.46
738.352	4.46
738.376	3.46
738.4	2.46
738.425	23.46
738.449	5.46
738.473	18.46
738.497	10.46
738.521	13.46
738.545	0.46
738.569	15.46
738.593	15.46
738.617	0.46
738.641	0.46
738.665	17.46
738.689	16.46
738.713	14.46
738.737	17.46
738.762	34.46
738.786	6.46
738.81	6.46
738.834	15.46
738.858	3.46
738.882	16.46
738.906	1.46
738.93	7.46
738.954	10.46
738.978	14.46
739.002	-6.54
739.026	3.46
739.05	15.46
739.074	3.46
739.098	37.46
739.122	24.46
739.146	6.46
739.17	13.46
739.194	0.46
739.218	-3.54
739.242	-1.54
739.266	-0.54
739.29	14.46
739.314	16.46
739.338	8.46
739.362	2.46
739.386	17.46
739.41	-4.54
739.434	-21.54
739.458	7.46
739.482	5.46
739.506	13.46
739.53	8.46
739.554	21.46
739.577	-0.54
739.601	-4.54
739.625	-9.54
739.649	15.46
739.673	0.46
739.697	6.46
739.721	-7.54
739.745	14.46
739.769	24.46
739.793	18.46
739.817	10.46
739.841	2.46
739.865	10.46
739.889	-3.54
739.912	40.46
739.936	22.46
739.96	12.46
739.984	13.46
740.008	-2.54
740.032	8.46
740.056	10.46
740.08	16.46
740.104	8.46
740.127	35.46
740.151	8.46
740.175	15.46
740.199	25.46
740.223	56.46
740.247	17.46
740.271	-0.54
740.295	6.46
740.318	-1.54
740.342	-5.54
740.366	22.46
740.39	32.46
740.414	7.46
740.438	11.46
740.461	23.46
740.485	7.46
740.509	-4.54
740.533	16.46
740.557	20.46
740.581	5.46
740.604	-4.54
740.628	4.46
740.652	18.46
740.676	6.46
740.7	21.46
740.723	19.46
740.747	-4.54
740.771	-1.54
740.795	-15.54
740.819	7.46
740.842	10.46
740.866	12.46
740.89	7.46
740.914	-2.54
740.938	8.46
740.961	14.46
740.985	6.46
741.009	-4.54
741.033	16.46
741.056	19.46
741.08	10.46
741.104	-5.54
741.128	-5.54
741.151	20.46
741.175	19.46
741.199	16.46
741.223	8.46
741.246	7.46
741.27	16.46
741.294	7.46
741.318	-0.54
741.341	-0.54
741.365	8.46
741.389	20.46
741.413	24.46
741.436	33.46
741.46	6.46
741.484	9.46
741.507	-4.54
741.531	24.46
741.555	19.46
741.579	-1.54
741.602	6.46
741.626	16.46
741.65	14.46
741.673	20.46
741.697	14.46
741.721	10.46
741.744	-10.54
741.768	7.46
741.792	12.46
741.815	13.46
741.839	16.46
741.863	20.46
741.886	19.46
741.91	19.46
741.934	31.46
741.957	-3.54
741.981	12.46
742.005	19.46
742.028	9.46
742.052	-4.54
742.075	10.46
742.099	21.46
742.123	18.46
742.146	17.46
742.17	21.46
742.194	-2.54
742.217	-8.54
742.241	-4.54
742.264	10.46
742.288	25.46
742.312	17.46
742.335	2.46
742.359	-1.54
742.382	26.46
742.406	32.46
742.43	0.46
742.453	12.46
742.477	-3.54
742.5	-0.54
742.524	0.46
742.548	7.46
742.571	-8.54
742.595	4.46
742.618	0.46
742.642	0.46
742.665	22.46
742.689	8.46
742.712	7.46
742.736	0.46
742.76	2.46
742.783	12.46
742.807	18.46
742.83	30.46
742.854	3.46
742.877	7.46
742.901	2.46
742.924	3.46
742.948	15.46
742.971	15.46
742.995	8.46
743.018	-7.54
743.042	6.46
743.065	11.46
743.089	-3.54
743.112	3.46
743.136	-4.54
743.159	4.46
743.183	3.46
743.206	27.46
743.23	6.46
743.253	18.46
743.277	7.46
743.3	4.46
743.324	12.46
743.347	-6.54
743.371	27.46
743.394	21.46
743.418	29.46
743.441	31.46
743.465	15.46
743.488	15.46
743.512	-1.54
743.535	7.46
743.558	8.46
743.582	10.46
743.605	-5.54
743.629	13.46
743.652	20.46
743.676	-4.54
743.699	29.46
743.723	18.46
743.746	16.46
743.769	1.46
743.793	12.46
743.816	14.46
743.84	28.46
743.863	-2.54
743.886	14.46
743.91	27.46
743.933	22.46
743.957	4.46
743.98	9.46
744.003	4.46
744.027	13.46
744.05	7.46
744.074	18.46
744.097	-8.54
744.12	12.46
744.144	7.46
744.167	21.46
744.19	8.46
744.214	0.46
744.237	6.46
744.26	28.46
744.284	15.46
744.307	-4.54
744.331	10.46
744.354	12.46
744.377	-4.54
744.401	12.46
744.424	16.46
744.447	-0.54
744.471	-7.54
