Data from HighRes_mercury_15_13_11_07_2024_HR4C61891__75__15-14-30-686.txt Node

Date: Thu Nov 07 15:14:30 EST 2024
User: crc00042
Spectrometer: HR4C6189
Trigger mode: 4
Integration Time (sec): 1.000000E-1
Scans to average: 1
Electric dark correction enabled: true
Nonlinearity correction enabled: false
Boxcar width: 0
XAxis mode: Wavelengths
Number of Pixels in Spectrum: 3648
>>>>>Begin Spectral Data<<<<<
639.567	-36.15
639.602	-36.15
639.636	-36.15
639.67	-43.15
639.704	-1.15
639.738	1.85
639.773	5.85
639.807	-21.15
639.841	-9.15
639.875	-1.15
639.909	-9.15
639.943	-5.15
639.978	4.85
640.012	-0.15
640.046	9.85
640.08	25.85
640.114	6.85
640.148	-9.15
640.182	-14.15
640.217	2.85
640.251	18.85
640.285	7.85
640.319	-5.15
640.353	12.85
640.387	-2.15
640.421	-9.15
640.455	8.85
640.49	-4.15
640.524	4.85
640.558	25.85
640.592	5.85
640.626	-8.15
640.66	11.85
640.694	-5.15
640.728	9.85
640.762	7.85
640.796	20.85
640.83	17.85
640.865	-0.15
640.899	2.85
640.933	6.85
640.967	2.85
641.001	-4.15
641.035	-4.15
641.069	1.85
641.103	-7.15
641.137	-2.15
641.171	1.85
641.205	17.85
641.239	6.85
641.273	14.85
641.307	13.85
641.341	10.85
641.375	16.85
641.409	5.85
641.443	-5.15
641.477	11.85
641.511	30.85
641.545	5.85
641.579	8.85
641.614	23.85
641.648	31.85
641.682	-5.15
641.716	4.85
641.75	10.85
641.784	-3.15
641.818	5.85
641.852	-4.15
641.886	-2.15
641.919	35.85
641.953	7.85
641.987	-10.15
642.021	3.85
642.055	5.85
642.089	7.85
642.123	-5.15
642.157	-24.15
642.191	-8.15
642.225	7.85
642.259	-4.15
642.293	16.85
642.327	5.85
642.361	4.85
642.395	13.85
642.429	16.85
642.463	11.85
642.497	13.85
642.531	-6.15
642.565	-4.15
642.599	20.85
642.633	-5.15
642.666	20.85
642.7	21.85
642.734	-9.15
642.768	-10.15
642.802	-4.15
642.836	-2.15
642.87	-0.15
642.904	-0.15
642.938	7.85
642.972	-4.15
643.005	-8.15
643.039	27.85
643.073	11.85
643.107	15.85
643.141	-9.15
643.175	18.85
643.209	3.85
643.243	3.85
643.276	12.85
643.31	13.85
643.344	2.85
643.378	5.85
643.412	18.85
643.446	22.85
643.48	3.85
643.513	13.85
643.547	6.85
643.581	5.85
643.615	11.85
643.649	16.85
643.683	9.85
643.716	-11.15
643.75	2.85
643.784	-2.15
643.818	12.85
643.852	-10.15
643.886	5.85
643.919	15.85
643.953	2.85
643.987	9.85
644.021	15.85
644.055	9.85
644.088	-1.15
644.122	5.85
644.156	-0.15
644.19	15.85
644.224	8.85
644.257	5.85
644.291	7.85
644.325	17.85
644.359	4.85
644.392	17.85
644.426	24.85
644.46	13.85
644.494	9.85
644.527	9.85
644.561	9.85
644.595	4.85
644.629	-5.15
644.662	0.85
644.696	28.85
644.73	4.85
644.764	4.85
644.797	3.85
644.831	5.85
644.865	10.85
644.899	12.85
644.932	31.85
644.966	15.85
645	17.85
645.033	19.85
645.067	-3.15
645.101	2.85
645.135	-2.15
645.168	-6.15
645.202	-7.15
645.236	9.85
645.269	16.85
645.303	-5.15
645.337	0.85
645.37	1.85
645.404	12.85
645.438	5.85
645.471	-7.15
645.505	5.85
645.539	7.85
645.572	-2.15
645.606	-3.15
645.64	4.85
645.673	26.85
645.707	27.85
645.741	17.85
645.774	1.85
645.808	5.85
645.842	-1.15
645.875	-0.15
645.909	9.85
645.943	4.85
645.976	-5.15
646.01	15.85
646.043	24.85
646.077	6.85
646.111	9.85
646.144	9.85
646.178	11.85
646.212	-5.15
646.245	13.85
646.279	-0.15
646.312	15.85
646.346	38.85
646.38	6.85
646.413	24.85
646.447	-0.15
646.48	3.85
646.514	25.85
646.547	6.85
646.581	-3.15
646.615	15.85
646.648	-2.15
646.682	20.85
646.715	16.85
646.749	0.85
646.782	0.85
646.816	-4.15
646.85	15.85
646.883	-1.15
646.917	16.85
646.95	-3.15
646.984	-7.15
647.017	10.85
647.051	15.85
647.084	10.85
647.118	1.85
647.151	-6.15
647.185	21.85
647.218	-8.15
647.252	6.85
647.285	-12.15
647.319	-2.15
647.353	11.85
647.386	18.85
647.42	11.85
647.453	25.85
647.487	8.85
647.52	7.85
647.553	12.85
647.587	-4.15
647.62	-4.15
647.654	-9.15
647.687	-0.15
647.721	2.85
647.754	15.85
647.788	13.85
647.821	11.85
647.855	29.85
647.888	31.85
647.922	12.85
647.955	-0.15
647.989	3.85
648.022	-7.15
648.055	11.85
648.089	1.85
648.122	25.85
648.156	2.85
648.189	-8.15
648.223	11.85
648.256	16.85
648.29	11.85
648.323	6.85
648.356	6.85
648.39	10.85
648.423	-4.15
648.457	-9.15
648.49	3.85
648.523	5.85
648.557	6.85
648.59	0.85
648.624	3.85
648.657	4.85
648.69	17.85
648.724	5.85
648.757	30.85
648.791	6.85
648.824	8.85
648.857	34.85
648.891	2.85
648.924	7.85
648.957	33.85
648.991	8.85
649.024	5.85
649.057	-1.15
649.091	-1.15
649.124	2.85
649.158	14.85
649.191	23.85
649.224	4.85
649.258	20.85
649.291	16.85
649.324	1.85
649.358	11.85
649.391	14.85
649.424	19.85
649.458	9.85
649.491	21.85
649.524	-4.15
649.557	-1.15
649.591	-3.15
649.624	20.85
649.657	-7.15
649.691	-4.15
649.724	-2.15
649.757	-10.15
649.791	-5.15
649.824	24.85
649.857	8.85
649.89	14.85
649.924	0.85
649.957	7.85
649.99	-14.15
650.023	-2.15
650.057	4.85
650.09	-6.15
650.123	5.85
650.157	11.85
650.19	4.85
650.223	2.85
650.256	-12.15
650.29	-1.15
650.323	8.85
650.356	23.85
650.389	9.85
650.423	-6.15
650.456	4.85
650.489	6.85
650.522	-0.15
650.555	7.85
650.589	17.85
650.622	18.85
650.655	7.85
650.688	4.85
650.721	8.85
650.755	5.85
650.788	23.85
650.821	-1.15
650.854	19.85
650.887	12.85
650.921	9.85
650.954	-18.15
650.987	10.85
651.02	10.85
651.053	-25.15
651.087	-5.15
651.12	20.85
651.153	-4.15
651.186	8.85
651.219	-6.15
651.252	9.85
651.286	13.85
651.319	2.85
651.352	-9.15
651.385	0.85
651.418	12.85
651.451	9.85
651.484	5.85
651.518	1.85
651.551	29.85
651.584	5.85
651.617	13.85
651.65	18.85
651.683	11.85
651.716	10.85
651.749	-6.15
651.783	2.85
651.816	5.85
651.849	20.85
651.882	12.85
651.915	-3.15
651.948	4.85
651.981	-7.15
652.014	-5.15
652.047	2.85
652.08	-12.15
652.114	0.85
652.147	-0.15
652.18	3.85
652.213	19.85
652.246	9.85
652.279	-3.15
652.312	18.85
652.345	1.85
652.378	17.85
652.411	23.85
652.444	13.85
652.477	10.85
652.51	-7.15
652.543	-10.15
652.576	7.85
652.609	0.85
652.642	8.85
652.675	16.85
652.709	-0.15
652.742	12.85
652.775	4.85
652.808	-0.15
652.841	2.85
652.874	7.85
652.907	2.85
652.94	17.85
652.973	-14.15
653.006	6.85
653.039	13.85
653.072	4.85
653.105	17.85
653.138	-8.15
653.171	-16.15
653.204	-11.15
653.237	7.85
653.27	-1.15
653.303	8.85
653.336	19.85
653.368	-11.15
653.401	9.85
653.434	-13.15
653.467	1.85
653.5	-8.15
653.533	-14.15
653.566	-0.15
653.599	2.85
653.632	18.85
653.665	8.85
653.698	-0.15
653.731	8.85
653.764	9.85
653.797	10.85
653.83	20.85
653.863	-0.15
653.896	-10.15
653.929	0.85
653.961	6.85
653.994	-7.15
654.027	-16.15
654.06	8.85
654.093	0.85
654.126	-6.15
654.159	-2.15
654.192	12.85
654.225	15.85
654.258	7.85
654.29	7.85
654.323	9.85
654.356	3.85
654.389	12.85
654.422	2.85
654.455	-1.15
654.488	1.85
654.521	-1.15
654.553	-0.15
654.586	-6.15
654.619	8.85
654.652	2.85
654.685	4.85
654.718	24.85
654.751	13.85
654.783	15.85
654.816	21.85
654.849	-12.15
654.882	4.85
654.915	3.85
654.948	6.85
654.98	14.85
655.013	0.85
655.046	-7.15
655.079	-2.15
655.112	3.85
655.144	-17.15
655.177	9.85
655.21	17.85
655.243	31.85
655.276	18.85
655.308	4.85
655.341	-19.15
655.374	17.85
655.407	-6.15
655.44	8.85
655.472	10.85
655.505	-1.15
655.538	-12.15
655.571	6.85
655.603	1.85
655.636	3.85
655.669	10.85
655.702	6.85
655.734	0.85
655.767	1.85
655.8	0.85
655.833	-6.15
655.865	11.85
655.898	-16.15
655.931	-8.15
655.964	6.85
655.996	-7.15
656.029	7.85
656.062	-8.15
656.095	6.85
656.127	-13.15
656.16	6.85
656.193	1.85
656.225	6.85
656.258	13.85
656.291	21.85
656.324	4.85
656.356	11.85
656.389	17.85
656.422	18.85
656.454	-12.15
656.487	1.85
656.52	7.85
656.552	-13.15
656.585	-3.15
656.618	23.85
656.65	29.85
656.683	2.85
656.716	-4.15
656.748	10.85
656.781	2.85
656.814	-14.15
656.846	3.85
656.879	-0.15
656.912	0.85
656.944	-5.15
656.977	2.85
657.01	1.85
657.042	13.85
657.075	18.85
657.108	-3.15
657.14	19.85
657.173	21.85
657.205	34.85
657.238	9.85
657.271	5.85
657.303	-8.15
657.336	3.85
657.369	6.85
657.401	6.85
657.434	-4.15
657.466	5.85
657.499	-1.15
657.532	-4.15
657.564	13.85
657.597	6.85
657.629	8.85
657.662	1.85
657.694	-2.15
657.727	-12.15
657.76	0.85
657.792	7.85
657.825	9.85
657.857	-0.15
657.89	-0.15
657.922	20.85
657.955	-10.15
657.987	21.85
658.02	15.85
658.053	-7.15
658.085	-3.15
658.118	-2.15
658.15	23.85
658.183	25.85
658.215	5.85
658.248	9.85
658.28	10.85
658.313	36.85
658.345	20.85
658.378	1.85
658.41	-2.15
658.443	15.85
658.475	19.85
658.508	20.85
658.54	-2.15
658.573	0.85
658.605	-5.15
658.638	-5.15
658.67	-1.15
658.703	6.85
658.735	-8.15
658.768	-2.15
658.8	-14.15
658.833	11.85
658.865	6.85
658.898	4.85
658.93	2.85
658.963	3.85
658.995	-4.15
659.028	19.85
659.06	10.85
659.092	4.85
659.125	-10.15
659.157	15.85
659.19	-5.15
659.222	-0.15
659.255	5.85
659.287	-9.15
659.32	-10.15
659.352	3.85
659.384	20.85
659.417	-8.15
659.449	11.85
659.482	2.85
659.514	-8.15
659.546	4.85
659.579	-5.15
659.611	3.85
659.644	3.85
659.676	-1.15
659.708	-18.15
659.741	-4.15
659.773	3.85
659.806	9.85
659.838	3.85
659.87	12.85
659.903	-9.15
659.935	-2.15
659.967	15.85
660	4.85
660.032	-23.15
660.065	20.85
660.097	12.85
660.129	-10.15
660.162	-4.15
660.194	13.85
660.226	7.85
660.259	12.85
660.291	2.85
660.323	-12.15
660.356	10.85
660.388	-4.15
660.42	-1.15
660.453	0.85
660.485	3.85
660.517	19.85
660.55	18.85
660.582	-2.15
660.614	12.85
660.647	-15.15
660.679	-23.15
660.711	8.85
660.743	7.85
660.776	-1.15
660.808	0.85
660.84	-12.15
660.873	-5.15
660.905	-11.15
660.937	-3.15
660.969	3.85
661.002	8.85
661.034	10.85
661.066	-11.15
661.099	3.85
661.131	21.85
661.163	-7.15
661.195	1.85
661.228	14.85
661.26	-8.15
661.292	7.85
661.324	6.85
661.357	16.85
661.389	12.85
661.421	15.85
661.453	-1.15
661.485	19.85
661.518	8.85
661.55	-17.15
661.582	-24.15
661.614	15.85
661.647	4.85
661.679	4.85
661.711	24.85
661.743	0.85
661.775	7.85
661.808	14.85
661.84	-7.15
661.872	15.85
661.904	-6.15
661.936	2.85
661.969	11.85
662.001	-1.15
662.033	5.85
662.065	-11.15
662.097	18.85
662.129	11.85
662.162	5.85
662.194	7.85
662.226	1.85
662.258	-1.15
662.29	-6.15
662.322	-25.15
662.355	-20.15
662.387	20.85
662.419	-6.15
662.451	7.85
662.483	21.85
662.515	1.85
662.547	10.85
662.58	-6.15
662.612	-23.15
662.644	4.85
662.676	0.85
662.708	25.85
662.74	3.85
662.772	2.85
662.804	-0.15
662.836	13.85
662.869	15.85
662.901	17.85
662.933	6.85
662.965	16.85
662.997	-2.15
663.029	-5.15
663.061	13.85
663.093	18.85
663.125	15.85
663.157	7.85
663.189	5.85
663.221	9.85
663.254	-8.15
663.286	21.85
663.318	10.85
663.35	3.85
663.382	-3.15
663.414	0.85
663.446	-4.15
663.478	3.85
663.51	21.85
663.542	4.85
663.574	6.85
663.606	3.85
663.638	-10.15
663.67	6.85
663.702	-2.15
663.734	9.85
663.766	18.85
663.798	-10.15
663.83	1.85
663.862	21.85
663.894	-2.15
663.926	-18.15
663.958	6.85
663.99	11.85
664.022	10.85
664.054	7.85
664.086	-8.15
664.118	-6.15
664.15	-6.15
664.182	-3.15
664.214	-6.15
664.246	15.85
664.278	13.85
664.31	19.85
664.342	11.85
664.374	5.85
664.406	2.85
664.438	3.85
664.47	27.85
664.502	9.85
664.534	1.85
664.566	-3.15
664.598	12.85
664.63	-5.15
664.662	6.85
664.693	18.85
664.725	-0.15
664.757	0.85
664.789	-6.15
664.821	13.85
664.853	22.85
664.885	6.85
664.917	-2.15
664.949	17.85
664.981	18.85
665.013	2.85
665.045	-6.15
665.076	9.85
665.108	12.85
665.14	-1.15
665.172	10.85
665.204	10.85
665.236	-11.15
665.268	20.85
665.3	-4.15
665.331	2.85
665.363	13.85
665.395	9.85
665.427	8.85
665.459	16.85
665.491	-17.15
665.523	1.85
665.555	4.85
665.586	6.85
665.618	-11.15
665.65	-4.15
665.682	6.85
665.714	22.85
665.746	-17.15
665.777	1.85
665.809	5.85
665.841	6.85
665.873	-4.15
665.905	9.85
665.937	19.85
665.968	-1.15
666	9.85
666.032	3.85
666.064	3.85
666.096	-0.15
666.127	19.85
666.159	20.85
666.191	5.85
666.223	4.85
666.255	13.85
666.286	7.85
666.318	-4.15
666.35	-2.15
666.382	15.85
666.413	5.85
666.445	8.85
666.477	-8.15
666.509	-4.15
666.54	0.85
666.572	-4.15
666.604	3.85
666.636	-1.15
666.667	23.85
666.699	20.85
666.731	26.85
666.763	-1.15
666.794	0.85
666.826	1.85
666.858	-6.15
666.89	15.85
666.921	-0.15
666.953	6.85
666.985	18.85
667.017	22.85
667.048	20.85
667.08	11.85
667.112	5.85
667.143	-19.15
667.175	4.85
667.207	3.85
667.238	5.85
667.27	2.85
667.302	-1.15
667.334	8.85
667.365	14.85
667.397	2.85
667.429	-6.15
667.46	11.85
667.492	-5.15
667.524	1.85
667.555	10.85
667.587	0.85
667.619	-8.15
667.65	-4.15
667.682	15.85
667.714	21.85
667.745	-7.15
667.777	10.85
667.808	7.85
667.84	-1.15
667.872	8.85
667.903	33.85
667.935	6.85
667.967	4.85
667.998	18.85
668.03	12.85
668.061	0.85
668.093	-4.15
668.125	3.85
668.156	8.85
668.188	-2.15
668.22	13.85
668.251	25.85
668.283	0.85
668.314	11.85
668.346	9.85
668.377	10.85
668.409	3.85
668.441	20.85
668.472	18.85
668.504	4.85
668.535	10.85
668.567	14.85
668.599	13.85
668.63	4.85
668.662	9.85
668.693	10.85
668.725	1.85
668.756	16.85
668.788	6.85
668.819	-10.15
668.851	8.85
668.882	5.85
668.914	5.85
668.946	12.85
668.977	-3.15
669.009	-5.15
669.04	0.85
669.072	-4.15
669.103	5.85
669.135	9.85
669.166	2.85
669.198	4.85
669.229	11.85
669.261	9.85
669.292	-17.15
669.324	9.85
669.355	0.85
669.387	0.85
669.418	6.85
669.45	2.85
669.481	11.85
669.513	10.85
669.544	17.85
669.576	3.85
669.607	23.85
669.639	31.85
669.67	-2.15
669.701	6.85
669.733	-13.15
669.764	11.85
669.796	10.85
669.827	-0.15
669.859	5.85
669.89	2.85
669.922	10.85
669.953	16.85
669.985	16.85
670.016	14.85
670.047	14.85
670.079	-1.15
670.11	20.85
670.142	6.85
670.173	-5.15
670.204	9.85
670.236	8.85
670.267	-14.15
670.299	5.85
670.33	6.85
670.362	18.85
670.393	-13.15
670.424	5.85
670.456	-12.15
670.487	-13.15
670.518	11.85
670.55	1.85
670.581	0.85
670.613	3.85
670.644	4.85
670.675	-10.15
670.707	13.85
670.738	-1.15
670.769	2.85
670.801	-9.15
670.832	17.85
670.864	-5.15
670.895	3.85
670.926	-6.15
670.958	-1.15
670.989	-6.15
671.02	1.85
671.052	6.85
671.083	12.85
671.114	1.85
671.146	10.85
671.177	6.85
671.208	10.85
671.24	-16.15
671.271	9.85
671.302	8.85
671.333	9.85
671.365	13.85
671.396	-5.15
671.427	1.85
671.459	5.85
671.49	8.85
671.521	8.85
671.553	12.85
671.584	12.85
671.615	-5.15
671.646	16.85
671.678	17.85
671.709	-18.15
671.74	-18.15
671.771	-2.15
671.803	-7.15
671.834	-1.15
671.865	3.85
671.896	0.85
671.928	5.85
671.959	-6.15
671.99	9.85
672.021	4.85
672.053	-0.15
672.084	21.85
672.115	6.85
672.146	2.85
672.178	-5.15
672.209	-4.15
672.24	3.85
672.271	13.85
672.303	15.85
672.334	2.85
672.365	-8.15
672.396	7.85
672.427	20.85
672.459	20.85
672.49	35.85
672.521	12.85
672.552	16.85
672.583	-5.15
672.615	3.85
672.646	17.85
672.677	5.85
672.708	13.85
672.739	-0.15
672.77	9.85
672.802	-3.15
672.833	10.85
672.864	21.85
672.895	-4.15
672.926	-3.15
672.957	-8.15
672.989	-8.15
673.02	-4.15
673.051	-1.15
673.082	20.85
673.113	13.85
673.144	13.85
673.175	4.85
673.206	14.85
673.238	-8.15
673.269	18.85
673.3	-6.15
673.331	17.85
673.362	5.85
673.393	10.85
673.424	12.85
673.455	8.85
673.487	9.85
673.518	14.85
673.549	-5.15
673.58	3.85
673.611	3.85
673.642	-6.15
673.673	-4.15
673.704	2.85
673.735	-16.15
673.766	1.85
673.797	-5.15
673.828	3.85
673.86	-7.15
673.891	-15.15
673.922	-7.15
673.953	-4.15
673.984	2.85
674.015	10.85
674.046	-2.15
674.077	3.85
674.108	2.85
674.139	-5.15
674.17	5.85
674.201	-12.15
674.232	6.85
674.263	12.85
674.294	10.85
674.325	1.85
674.356	10.85
674.387	27.85
674.418	16.85
674.449	-4.15
674.48	1.85
674.511	0.85
674.542	1.85
674.573	-2.15
674.604	8.85
674.635	-6.15
674.666	11.85
674.697	6.85
674.728	-11.15
674.759	14.85
674.79	2.85
674.821	0.85
674.852	6.85
674.883	5.85
674.914	-4.15
674.945	-0.15
674.976	12.85
675.007	-5.15
675.038	-20.15
675.069	-5.15
675.1	-1.15
675.131	6.85
675.162	-1.15
675.193	5.85
675.224	-1.15
675.254	6.85
675.285	12.85
675.316	26.85
675.347	-1.15
675.378	4.85
675.409	3.85
675.44	2.85
675.471	5.85
675.502	3.85
675.533	13.85
675.564	7.85
675.595	7.85
675.625	33.85
675.656	12.85
675.687	22.85
675.718	-0.15
675.749	-1.15
675.78	7.85
675.811	1.85
675.842	1.85
675.873	-1.15
675.903	4.85
675.934	3.85
675.965	8.85
675.996	0.85
676.027	15.85
676.058	21.85
676.089	-3.15
676.119	2.85
676.15	0.85
676.181	-20.15
676.212	7.85
676.243	10.85
676.274	16.85
676.304	8.85
676.335	-3.15
676.366	4.85
676.397	2.85
676.428	15.85
676.459	5.85
676.489	13.85
676.52	24.85
676.551	-0.15
676.582	7.85
676.613	-9.15
676.643	-14.15
676.674	16.85
676.705	16.85
676.736	-3.15
676.767	0.85
676.797	8.85
676.828	-0.15
676.859	4.85
676.89	3.85
676.92	5.85
676.951	9.85
676.982	16.85
677.013	3.85
677.044	19.85
677.074	15.85
677.105	1.85
677.136	23.85
677.167	21.85
677.197	0.85
677.228	13.85
677.259	-3.15
677.289	-8.15
677.32	-16.15
677.351	0.85
677.382	6.85
677.412	2.85
677.443	9.85
677.474	-12.15
677.505	2.85
677.535	1.85
677.566	8.85
677.597	-16.15
677.627	-11.15
677.658	-3.15
677.689	9.85
677.72	4.85
677.75	12.85
677.781	23.85
677.812	13.85
677.842	8.85
677.873	-3.15
677.904	-3.15
677.934	2.85
677.965	8.85
677.996	-18.15
678.026	-0.15
678.057	-5.15
678.088	-5.15
678.118	4.85
678.149	9.85
678.18	6.85
678.21	0.85
678.241	-1.15
678.272	-8.15
678.302	8.85
678.333	-3.15
678.363	22.85
678.394	8.85
678.425	6.85
678.455	17.85
678.486	7.85
678.517	-4.15
678.547	0.85
678.578	3.85
678.608	-7.15
678.639	20.85
678.67	2.85
678.7	8.85
678.731	1.85
678.761	-0.15
678.792	15.85
678.823	11.85
678.853	11.85
678.884	2.85
678.914	4.85
678.945	2.85
678.975	1.85
679.006	21.85
679.037	-1.15
679.067	36.85
679.098	3.85
679.128	-11.15
679.159	-10.15
679.189	12.85
679.22	-3.15
679.25	12.85
679.281	1.85
679.312	-0.15
679.342	11.85
679.373	37.85
679.403	9.85
679.434	15.85
679.464	14.85
679.495	7.85
679.525	10.85
679.556	1.85
679.586	11.85
679.617	5.85
679.647	6.85
679.678	5.85
679.708	7.85
679.739	5.85
679.769	5.85
679.8	-5.15
679.83	2.85
679.861	18.85
679.891	1.85
679.922	2.85
679.952	-5.15
679.983	2.85
680.013	17.85
680.044	-7.15
680.074	17.85
680.105	14.85
680.135	-1.15
680.165	7.85
680.196	17.85
680.226	9.85
680.257	6.85
680.287	-3.15
680.318	14.85
680.348	9.85
680.379	12.85
680.409	1.85
680.439	0.85
680.47	5.85
680.5	5.85
680.531	5.85
680.561	-4.15
680.592	19.85
680.622	11.85
680.652	0.85
680.683	9.85
680.713	6.85
680.744	-4.15
680.774	-5.15
680.804	17.85
680.835	-5.15
680.865	-11.15
680.896	7.85
680.926	20.85
680.956	11.85
680.987	11.85
681.017	-5.15
681.047	-1.15
681.078	-10.15
681.108	9.85
681.139	3.85
681.169	-10.15
681.199	-0.15
681.23	9.85
681.26	4.85
681.29	7.85
681.321	-7.15
681.351	2.85
681.381	4.85
681.412	4.85
681.442	-3.15
681.472	11.85
681.503	-0.15
681.533	11.85
681.563	6.85
681.594	-8.15
681.624	4.85
681.654	-1.15
681.685	-1.15
681.715	5.85
681.745	13.85
681.775	-13.15
681.806	9.85
681.836	-3.15
681.866	-1.15
681.897	9.85
681.927	-1.15
681.957	-15.15
681.987	5.85
682.018	7.85
682.048	-9.15
682.078	3.85
682.109	11.85
682.139	9.85
682.169	3.85
682.199	-3.15
682.23	-21.15
682.26	5.85
682.29	5.85
682.32	5.85
682.351	4.85
682.381	6.85
682.411	-5.15
682.441	-11.15
682.472	1.85
682.502	-2.15
682.532	-7.15
682.562	5.85
682.592	1.85
682.623	15.85
682.653	6.85
682.683	-4.15
682.713	12.85
682.743	-7.15
682.774	-5.15
682.804	1.85
682.834	32.85
682.864	-12.15
682.894	-3.15
682.925	6.85
682.955	-12.15
682.985	-17.15
683.015	5.85
683.045	5.85
683.076	-0.15
683.106	5.85
683.136	-3.15
683.166	-7.15
683.196	-7.15
683.226	-8.15
683.257	-10.15
683.287	-2.15
683.317	-10.15
683.347	-6.15
683.377	-12.15
683.407	2.85
683.437	-7.15
683.468	10.85
683.498	-18.15
683.528	12.85
683.558	5.85
683.588	1.85
683.618	-3.15
683.648	-9.15
683.678	-9.15
683.708	1.85
683.739	4.85
683.769	-0.15
683.799	16.85
683.829	2.85
683.859	9.85
683.889	1.85
683.919	-3.15
683.949	15.85
683.979	6.85
684.009	0.85
684.039	-2.15
684.07	-5.15
684.1	23.85
684.13	15.85
684.16	15.85
684.19	5.85
684.22	5.85
684.25	4.85
684.28	-7.15
684.31	11.85
684.34	16.85
684.37	2.85
684.4	-4.15
684.43	15.85
684.46	6.85
684.49	12.85
684.52	14.85
684.55	23.85
684.58	17.85
684.61	11.85
684.64	18.85
684.67	14.85
684.7	12.85
684.73	27.85
684.76	13.85
684.79	8.85
684.82	2.85
684.85	-0.15
684.88	11.85
684.91	0.85
684.94	-1.15
684.97	-11.15
685	2.85
685.03	-25.15
685.06	-4.15
685.09	3.85
685.12	20.85
685.15	-4.15
685.18	5.85
685.21	9.85
685.24	17.85
685.27	8.85
685.3	-16.15
685.33	-3.15
685.36	-2.15
685.39	8.85
685.42	-2.15
685.45	-4.15
685.48	6.85
685.51	-10.15
685.54	6.85
685.569	-10.15
685.599	7.85
685.629	-10.15
685.659	-0.15
685.689	-2.15
685.719	-8.15
685.749	5.85
685.779	5.85
685.809	12.85
685.839	13.85
685.869	3.85
685.898	17.85
685.928	6.85
685.958	-5.15
685.988	16.85
686.018	8.85
686.048	7.85
686.078	4.85
686.108	21.85
686.137	-4.15
686.167	34.85
686.197	6.85
686.227	8.85
686.257	30.85
686.287	9.85
686.317	-0.15
686.346	1.85
686.376	4.85
686.406	15.85
686.436	10.85
686.466	6.85
686.496	2.85
686.525	6.85
686.555	0.85
686.585	18.85
686.615	26.85
686.645	7.85
686.675	-8.15
686.704	2.85
686.734	-0.15
686.764	19.85
686.794	12.85
686.824	20.85
686.853	16.85
686.883	21.85
686.913	13.85
686.943	18.85
686.973	1.85
687.002	16.85
687.032	9.85
687.062	1.85
687.092	22.85
687.121	-12.15
687.151	9.85
687.181	7.85
687.211	17.85
687.24	11.85
687.27	0.85
687.3	13.85
687.33	-5.15
687.359	-4.15
687.389	10.85
687.419	10.85
687.449	12.85
687.478	17.85
687.508	2.85
687.538	13.85
687.568	27.85
687.597	7.85
687.627	9.85
687.657	15.85
687.686	2.85
687.716	30.85
687.746	-17.15
687.776	0.85
687.805	11.85
687.835	1.85
687.865	16.85
687.894	3.85
687.924	8.85
687.954	10.85
687.983	7.85
688.013	13.85
688.043	10.85
688.072	21.85
688.102	5.85
688.132	4.85
688.161	-2.15
688.191	10.85
688.221	7.85
688.25	-1.15
688.28	4.85
688.31	2.85
688.339	-5.15
688.369	4.85
688.399	-3.15
688.428	-2.15
688.458	0.85
688.488	7.85
688.517	8.85
688.547	7.85
688.576	37.85
688.606	5.85
688.636	-9.15
688.665	-1.15
688.695	0.85
688.725	2.85
688.754	19.85
688.784	1.85
688.813	12.85
688.843	23.85
688.873	0.85
688.902	3.85
688.932	-12.15
688.961	5.85
688.991	-3.15
689.02	8.85
689.05	-0.15
689.08	11.85
689.109	22.85
689.139	9.85
689.168	26.85
689.198	7.85
689.227	-7.15
689.257	4.85
689.287	16.85
689.316	2.85
689.346	3.85
689.375	-15.15
689.405	9.85
689.434	2.85
689.464	13.85
689.493	2.85
689.523	-3.15
689.552	-0.15
689.582	-6.15
689.611	-11.15
689.641	4.85
689.67	12.85
689.7	9.85
689.73	13.85
689.759	2.85
689.789	13.85
689.818	-0.15
689.848	5.85
689.877	27.85
689.906	8.85
689.936	14.85
689.965	9.85
689.995	-0.15
690.024	4.85
690.054	-8.15
690.083	3.85
690.113	5.85
690.142	12.85
690.172	3.85
690.201	14.85
690.231	2.85
690.26	-2.15
690.29	7.85
690.319	9.85
690.348	12.85
690.378	8.85
690.407	21.85
690.437	6.85
690.466	-5.15
690.496	1.85
690.525	12.85
690.555	2.85
690.584	-3.15
690.613	-1.15
690.643	22.85
690.672	15.85
690.702	12.85
690.731	-3.15
690.76	22.85
690.79	55.85
690.819	50.85
690.849	41.85
690.878	42.85
690.907	32.85
690.937	25.85
690.966	16.85
690.996	-8.15
691.025	8.85
691.054	0.85
691.084	11.85
691.113	14.85
691.142	8.85
691.172	19.85
691.201	4.85
691.23	-2.15
691.26	8.85
691.289	16.85
691.319	-0.15
691.348	2.85
691.377	16.85
691.407	6.85
691.436	33.85
691.465	8.85
691.495	4.85
691.524	-5.15
691.553	8.85
691.583	6.85
691.612	26.85
691.641	1.85
691.67	4.85
691.7	14.85
691.729	-3.15
691.758	4.85
691.788	18.85
691.817	8.85
691.846	11.85
691.876	18.85
691.905	12.85
691.934	13.85
691.963	12.85
691.993	9.85
692.022	3.85
692.051	7.85
692.081	26.85
692.11	19.85
692.139	7.85
692.168	17.85
692.198	18.85
692.227	21.85
692.256	-0.15
692.285	-6.15
692.315	2.85
692.344	12.85
692.373	6.85
692.402	-1.15
692.432	6.85
692.461	6.85
692.49	5.85
692.519	-0.15
692.548	2.85
692.578	18.85
692.607	2.85
692.636	1.85
692.665	15.85
692.694	-0.15
692.724	-1.15
692.753	10.85
692.782	4.85
692.811	-0.15
692.84	0.85
692.87	10.85
692.899	2.85
692.928	3.85
692.957	13.85
692.986	19.85
693.016	16.85
693.045	11.85
693.074	14.85
693.103	6.85
693.132	16.85
693.161	14.85
693.191	7.85
693.22	-19.15
693.249	-15.15
693.278	0.85
693.307	32.85
693.336	-0.15
693.365	-25.15
693.395	-8.15
693.424	4.85
693.453	18.85
693.482	1.85
693.511	-6.15
693.54	13.85
693.569	19.85
693.598	-5.15
693.628	25.85
693.657	14.85
693.686	23.85
693.715	19.85
693.744	5.85
693.773	3.85
693.802	21.85
693.831	13.85
693.86	29.85
693.889	9.85
693.919	11.85
693.948	22.85
693.977	8.85
694.006	2.85
694.035	7.85
694.064	-6.15
694.093	3.85
694.122	4.85
694.151	-13.15
694.18	1.85
694.209	22.85
694.238	22.85
694.267	25.85
694.296	12.85
694.325	-6.15
694.354	25.85
694.383	15.85
694.412	10.85
694.441	0.85
694.471	-8.15
694.5	3.85
694.529	-1.15
694.558	32.85
694.587	20.85
694.616	12.85
694.645	19.85
694.674	13.85
694.703	18.85
694.732	17.85
694.761	9.85
694.79	12.85
694.819	13.85
694.848	17.85
694.877	19.85
694.906	40.85
694.935	3.85
694.963	22.85
694.992	2.85
695.021	14.85
695.05	17.85
695.079	6.85
695.108	-3.15
695.137	18.85
695.166	31.85
695.195	1.85
695.224	13.85
695.253	1.85
695.282	2.85
695.311	14.85
695.34	16.85
695.369	18.85
695.398	11.85
695.427	21.85
695.456	5.85
695.485	14.85
695.513	9.85
695.542	-3.15
695.571	7.85
695.6	14.85
695.629	20.85
695.658	20.85
695.687	3.85
695.716	10.85
695.745	35.85
695.774	6.85
695.802	4.85
695.831	13.85
695.86	11.85
695.889	24.85
695.918	21.85
695.947	-6.15
695.976	5.85
696.005	11.85
696.033	27.85
696.062	36.85
696.091	6.85
696.12	4.85
696.149	7.85
696.178	3.85
696.207	13.85
696.235	2.85
696.264	11.85
696.293	6.85
696.322	16.85
696.351	16.85
696.38	-0.15
696.408	22.85
696.437	7.85
696.466	6.85
696.495	4.85
696.524	21.85
696.553	19.85
696.581	12.85
696.61	9.85
696.639	20.85
696.668	13.85
696.697	14.85
696.725	7.85
696.754	-14.15
696.783	0.85
696.812	3.85
696.84	12.85
696.869	3.85
696.898	11.85
696.927	21.85
696.956	31.85
696.984	0.85
697.013	19.85
697.042	5.85
697.071	-2.15
697.099	14.85
697.128	19.85
697.157	6.85
697.186	12.85
697.214	-1.15
697.243	5.85
697.272	12.85
697.301	15.85
697.329	0.85
697.358	10.85
697.387	18.85
697.415	11.85
697.444	12.85
697.473	11.85
697.502	2.85
697.53	12.85
697.559	15.85
697.588	22.85
697.616	3.85
697.645	3.85
697.674	35.85
697.703	24.85
697.731	10.85
697.76	-1.15
697.789	11.85
697.817	5.85
697.846	23.85
697.875	9.85
697.903	17.85
697.932	24.85
697.961	9.85
697.989	33.85
698.018	14.85
698.047	12.85
698.075	19.85
698.104	-0.15
698.133	10.85
698.161	22.85
698.19	21.85
698.218	1.85
698.247	8.85
698.276	26.85
698.304	24.85
698.333	11.85
698.362	12.85
698.39	7.85
698.419	15.85
698.447	3.85
698.476	4.85
698.505	21.85
698.533	6.85
698.562	22.85
698.591	-0.15
698.619	-2.15
698.648	10.85
698.676	20.85
698.705	8.85
698.733	-3.15
698.762	6.85
698.791	7.85
698.819	7.85
698.848	12.85
698.876	28.85
698.905	21.85
698.933	13.85
698.962	13.85
698.991	15.85
699.019	10.85
699.048	9.85
699.076	19.85
699.105	7.85
699.133	6.85
699.162	13.85
699.19	18.85
699.219	25.85
699.248	6.85
699.276	7.85
699.305	-5.15
699.333	15.85
699.362	12.85
699.39	10.85
699.419	-2.15
699.447	-2.15
699.476	2.85
699.504	4.85
699.533	-5.15
699.561	-1.15
699.59	11.85
699.618	11.85
699.647	15.85
699.675	5.85
699.704	20.85
699.732	3.85
699.761	20.85
699.789	9.85
699.818	13.85
699.846	10.85
699.874	22.85
699.903	2.85
699.931	15.85
699.96	7.85
699.988	-2.15
700.017	11.85
700.045	5.85
700.074	2.85
700.102	9.85
700.13	-10.15
700.159	17.85
700.187	6.85
700.216	19.85
700.244	0.85
700.273	14.85
700.301	15.85
700.329	17.85
700.358	3.85
700.386	1.85
700.415	5.85
700.443	0.85
700.472	10.85
700.5	16.85
700.528	5.85
700.557	16.85
700.585	-4.15
700.614	20.85
700.642	17.85
700.67	33.85
700.699	14.85
700.727	8.85
700.755	9.85
700.784	5.85
700.812	12.85
700.841	22.85
700.869	10.85
700.897	-5.15
700.926	1.85
700.954	4.85
700.982	-1.15
701.011	4.85
701.039	20.85
701.067	10.85
701.096	13.85
701.124	2.85
701.152	0.85
701.181	-9.15
701.209	-20.15
701.237	3.85
701.266	0.85
701.294	0.85
701.322	5.85
701.351	25.85
701.379	5.85
701.407	9.85
701.435	11.85
701.464	16.85
701.492	30.85
701.52	1.85
701.549	17.85
701.577	7.85
701.605	5.85
701.634	7.85
701.662	13.85
701.69	-9.15
701.718	4.85
701.747	25.85
701.775	3.85
701.803	16.85
701.831	18.85
701.86	16.85
701.888	10.85
701.916	6.85
701.944	27.85
701.973	13.85
702.001	-1.15
702.029	10.85
702.057	-4.15
702.086	-14.15
702.114	-5.15
702.142	18.85
702.17	10.85
702.199	9.85
702.227	14.85
702.255	4.85
702.283	-6.15
702.311	4.85
702.34	9.85
702.368	1.85
702.396	-4.15
702.424	-5.15
702.452	0.85
702.481	5.85
702.509	2.85
702.537	11.85
702.565	16.85
702.593	-19.15
702.621	-2.15
702.65	1.85
702.678	2.85
702.706	6.85
702.734	2.85
702.762	2.85
702.79	0.85
702.819	5.85
702.847	2.85
702.875	12.85
702.903	-2.15
702.931	-11.15
702.959	-0.15
702.988	14.85
703.016	1.85
703.044	-4.15
703.072	-1.15
703.1	-7.15
703.128	-3.15
703.156	30.85
703.184	16.85
703.212	3.85
703.241	-4.15
703.269	2.85
703.297	5.85
703.325	0.85
703.353	1.85
703.381	1.85
703.409	9.85
703.437	-6.15
703.465	4.85
703.493	1.85
703.522	1.85
703.55	20.85
703.578	-2.15
703.606	-11.15
703.634	1.85
703.662	-7.15
703.69	0.85
703.718	0.85
703.746	9.85
703.774	10.85
703.802	21.85
703.83	5.85
703.858	6.85
703.886	-7.15
703.914	-1.15
703.942	21.85
703.97	4.85
703.998	0.85
704.027	10.85
704.055	13.85
704.083	0.85
704.111	-2.15
704.139	3.85
704.167	-5.15
704.195	5.85
704.223	-1.15
704.251	4.85
704.279	2.85
704.307	4.85
704.335	-12.15
704.363	9.85
704.391	-5.15
704.419	-3.15
704.447	-13.15
704.475	3.85
704.503	0.85
704.531	25.85
704.558	15.85
704.586	13.85
704.614	15.85
704.642	5.85
704.67	-2.15
704.698	3.85
704.726	14.85
704.754	1.85
704.782	10.85
704.81	17.85
704.838	21.85
704.866	3.85
704.894	-2.15
704.922	3.85
704.95	16.85
704.978	25.85
705.006	11.85
705.034	14.85
705.061	6.85
705.089	5.85
705.117	7.85
705.145	4.85
705.173	5.85
705.201	21.85
705.229	18.85
705.257	11.85
705.285	13.85
705.313	15.85
705.34	8.85
705.368	-4.15
705.396	2.85
705.424	12.85
705.452	13.85
705.48	19.85
705.508	-3.15
705.536	3.85
705.563	-1.15
705.591	11.85
705.619	1.85
705.647	-13.15
705.675	11.85
705.703	9.85
705.731	-2.15
705.758	8.85
705.786	7.85
705.814	41.85
705.842	3.85
705.87	13.85
705.898	27.85
705.925	11.85
705.953	3.85
705.981	-1.15
706.009	6.85
706.037	10.85
706.065	9.85
706.092	-5.15
706.12	1.85
706.148	-1.15
706.176	2.85
706.204	11.85
706.231	3.85
706.259	-21.15
706.287	4.85
706.315	3.85
706.342	-5.15
706.37	8.85
706.398	-1.15
706.426	13.85
706.454	0.85
706.481	3.85
706.509	6.85
706.537	6.85
706.565	-0.15
706.592	-3.15
706.62	2.85
706.648	8.85
706.676	4.85
706.703	6.85
706.731	2.85
706.759	-0.15
706.787	4.85
706.814	-1.15
706.842	10.85
706.87	8.85
706.897	20.85
706.925	-1.15
706.953	17.85
706.981	14.85
707.008	4.85
707.036	-3.15
707.064	0.85
707.091	-13.15
707.119	6.85
707.147	-3.15
707.174	-3.15
707.202	10.85
707.23	-13.15
707.258	10.85
707.285	-1.15
707.313	7.85
707.341	-4.15
707.368	-9.15
707.396	4.85
707.424	34.85
707.451	14.85
707.479	1.85
707.507	3.85
707.534	13.85
707.562	6.85
707.59	2.85
707.617	-10.15
707.645	0.85
707.672	1.85
707.7	10.85
707.728	13.85
707.755	17.85
707.783	12.85
707.811	-0.15
707.838	-2.15
707.866	10.85
707.893	4.85
707.921	-2.15
707.949	2.85
707.976	18.85
708.004	3.85
708.031	13.85
708.059	3.85
708.087	-2.15
708.114	-7.15
708.142	9.85
708.169	-5.15
708.197	-10.15
708.225	-2.15
708.252	8.85
708.28	25.85
708.307	6.85
708.335	11.85
708.362	15.85
708.39	-8.15
708.418	-5.15
708.445	1.85
708.473	-21.15
708.5	-8.15
708.528	10.85
708.555	-5.15
708.583	6.85
708.61	2.85
708.638	1.85
708.665	1.85
708.693	6.85
708.72	2.85
708.748	5.85
708.776	6.85
708.803	12.85
708.831	-0.15
708.858	17.85
708.886	10.85
708.913	1.85
708.941	1.85
708.968	21.85
708.996	8.85
709.023	20.85
709.051	-6.15
709.078	-5.15
709.105	11.85
709.133	12.85
709.16	1.85
709.188	20.85
709.215	15.85
709.243	19.85
709.27	-1.15
709.298	2.85
709.325	5.85
709.353	3.85
709.38	25.85
709.408	12.85
709.435	9.85
709.462	-3.15
709.49	-2.15
709.517	-9.15
709.545	-0.15
709.572	14.85
709.6	7.85
709.627	8.85
709.655	-11.15
709.682	-3.15
709.709	-0.15
709.737	14.85
709.764	7.85
709.792	19.85
709.819	1.85
709.846	-3.15
709.874	22.85
709.901	37.85
709.929	20.85
709.956	4.85
709.983	-18.15
710.011	-4.15
710.038	-4.15
710.066	6.85
710.093	19.85
710.12	3.85
710.148	-7.15
710.175	-7.15
710.202	-2.15
710.23	17.85
710.257	25.85
710.284	19.85
710.312	1.85
710.339	8.85
710.366	0.85
710.394	-1.15
710.421	10.85
710.448	-0.15
710.476	-4.15
710.503	8.85
710.53	10.85
710.558	21.85
710.585	17.85
710.612	-2.15
710.64	16.85
710.667	15.85
710.694	-9.15
710.722	-3.15
710.749	-2.15
710.776	11.85
710.804	22.85
710.831	9.85
710.858	7.85
710.885	12.85
710.913	1.85
710.94	8.85
710.967	10.85
710.995	-8.15
711.022	-5.15
711.049	17.85
711.076	-5.15
711.104	6.85
711.131	9.85
711.158	15.85
711.185	21.85
711.213	1.85
711.24	0.85
711.267	4.85
711.294	4.85
711.322	-0.15
711.349	6.85
711.376	-9.15
711.403	-9.15
711.431	-1.15
711.458	-7.15
711.485	-1.15
711.512	13.85
711.54	-1.15
711.567	-1.15
711.594	9.85
711.621	-3.15
711.648	-2.15
711.676	10.85
711.703	-9.15
711.73	-19.15
711.757	3.85
711.784	4.85
711.812	7.85
711.839	-8.15
711.866	-9.15
711.893	-1.15
711.92	-1.15
711.947	-3.15
711.975	9.85
712.002	5.85
712.029	-1.15
712.056	1.85
712.083	10.85
712.11	0.85
712.138	4.85
712.165	10.85
712.192	14.85
712.219	2.85
712.246	-7.15
712.273	-8.15
712.3	7.85
712.328	16.85
712.355	-0.15
712.382	-3.15
712.409	19.85
712.436	-4.15
712.463	19.85
712.49	16.85
712.517	-2.15
712.544	6.85
712.572	0.85
712.599	-10.15
712.626	1.85
712.653	-7.15
712.68	-1.15
712.707	10.85
712.734	2.85
712.761	9.85
712.788	0.85
712.815	-2.15
712.842	11.85
712.87	11.85
712.897	-6.15
712.924	-14.15
712.951	13.85
712.978	17.85
713.005	22.85
713.032	6.85
713.059	4.85
713.086	-3.15
713.113	5.85
713.14	-1.15
713.167	19.85
713.194	21.85
713.221	-8.15
713.248	-2.15
713.275	-2.15
713.302	0.85
713.329	5.85
713.356	9.85
713.383	4.85
713.41	18.85
713.437	1.85
713.464	30.85
713.491	21.85
713.518	5.85
713.545	-15.15
713.572	7.85
713.599	28.85
713.626	-3.15
713.653	-0.15
713.68	-9.15
713.707	-7.15
713.734	7.85
713.761	9.85
713.788	3.85
713.815	12.85
713.842	-6.15
713.869	-9.15
713.896	2.85
713.923	9.85
713.95	7.85
713.977	2.85
714.004	-4.15
714.031	-12.15
714.058	-5.15
714.085	1.85
714.112	13.85
714.139	0.85
714.165	-16.15
714.192	-5.15
714.219	7.85
714.246	12.85
714.273	-2.15
714.3	12.85
714.327	-4.15
714.354	14.85
714.381	-2.15
714.408	-1.15
714.435	-5.15
714.461	-6.15
714.488	0.85
714.515	7.85
714.542	4.85
714.569	-15.15
714.596	-7.15
714.623	-6.15
714.65	-9.15
714.677	9.85
714.703	10.85
714.73	6.85
714.757	11.85
714.784	12.85
714.811	-2.15
714.838	18.85
714.865	-4.15
714.891	8.85
714.918	8.85
714.945	-2.15
714.972	-3.15
714.999	9.85
715.026	-9.15
715.052	9.85
715.079	13.85
715.106	2.85
715.133	6.85
715.16	2.85
715.187	-0.15
715.213	18.85
715.24	-13.15
715.267	0.85
715.294	0.85
715.321	-0.15
715.347	10.85
715.374	-1.15
715.401	12.85
715.428	13.85
715.455	1.85
715.481	-8.15
715.508	13.85
715.535	6.85
715.562	36.85
715.588	19.85
715.615	-2.15
715.642	4.85
715.669	-2.15
715.695	-13.15
715.722	6.85
715.749	14.85
715.776	26.85
715.802	-3.15
715.829	13.85
715.856	-20.15
715.883	16.85
715.909	0.85
715.936	6.85
715.963	2.85
715.99	-10.15
716.016	16.85
716.043	2.85
716.07	0.85
716.096	-13.15
716.123	-18.15
716.15	-0.15
716.177	0.85
716.203	-2.15
716.23	9.85
716.257	7.85
716.283	13.85
716.31	6.85
716.337	12.85
716.363	-0.15
716.39	4.85
716.417	16.85
716.443	-1.15
716.47	8.85
716.497	20.85
716.523	9.85
716.55	0.85
716.577	9.85
716.603	16.85
716.63	5.85
716.657	23.85
716.683	0.85
716.71	-3.15
716.737	-4.15
716.763	-3.15
716.79	0.85
716.817	15.85
716.843	16.85
716.87	-2.15
716.897	2.85
716.923	13.85
716.95	-6.15
716.976	-11.15
717.003	5.85
717.03	3.85
717.056	9.85
717.083	-13.15
717.109	13.85
717.136	23.85
717.163	-5.15
717.189	10.85
717.216	2.85
717.242	8.85
717.269	9.85
717.296	11.85
717.322	4.85
717.349	15.85
717.375	20.85
717.402	-4.15
717.428	-3.15
717.455	1.85
717.481	8.85
717.508	13.85
717.535	3.85
717.561	9.85
717.588	10.85
717.614	-6.15
717.641	5.85
717.667	-0.15
717.694	6.85
717.72	1.85
717.747	8.85
717.773	1.85
717.8	17.85
717.826	14.85
717.853	17.85
717.88	2.85
717.906	-5.15
717.933	10.85
717.959	9.85
717.986	2.85
718.012	17.85
718.039	12.85
718.065	32.85
718.092	15.85
718.118	-1.15
718.144	-13.15
718.171	6.85
718.197	12.85
718.224	1.85
718.25	13.85
718.277	14.85
718.303	10.85
718.33	6.85
718.356	-5.15
718.383	-11.15
718.409	1.85
718.436	-8.15
718.462	-9.15
718.489	-10.15
718.515	3.85
718.541	2.85
718.568	21.85
718.594	13.85
718.621	5.85
718.647	8.85
718.674	6.85
718.7	21.85
718.726	12.85
718.753	21.85
718.779	24.85
718.806	6.85
718.832	8.85
718.858	9.85
718.885	0.85
718.911	13.85
718.938	6.85
718.964	-7.15
718.99	16.85
719.017	10.85
719.043	17.85
719.07	28.85
719.096	-9.15
719.122	12.85
719.149	7.85
719.175	8.85
719.201	3.85
719.228	8.85
719.254	4.85
719.281	5.85
719.307	10.85
719.333	-6.15
719.36	13.85
719.386	-4.15
719.412	17.85
719.439	4.85
719.465	8.85
719.491	1.85
719.518	11.85
719.544	2.85
719.57	4.85
719.597	12.85
719.623	-3.15
719.649	17.85
719.675	3.85
719.702	9.85
719.728	19.85
719.754	-0.15
719.781	5.85
719.807	3.85
719.833	1.85
719.86	10.85
719.886	10.85
719.912	-1.15
719.938	-5.15
719.965	-5.15
719.991	-2.15
720.017	6.85
720.044	9.85
720.07	9.85
720.096	12.85
720.122	3.85
720.149	5.85
720.175	17.85
720.201	26.85
720.227	9.85
720.254	7.85
720.28	7.85
720.306	1.85
720.332	21.85
720.359	17.85
720.385	11.85
720.411	-9.15
720.437	3.85
720.463	5.85
720.49	-2.15
720.516	-3.15
720.542	0.85
720.568	16.85
720.595	25.85
720.621	8.85
720.647	8.85
720.673	25.85
720.699	8.85
720.725	6.85
720.752	7.85
720.778	9.85
720.804	9.85
720.83	10.85
720.856	16.85
720.883	-3.15
720.909	8.85
720.935	11.85
720.961	24.85
720.987	6.85
721.013	5.85
721.04	0.85
721.066	-3.15
721.092	1.85
721.118	5.85
721.144	6.85
721.17	-2.15
721.196	0.85
721.223	-15.15
721.249	3.85
721.275	19.85
721.301	-6.15
721.327	18.85
721.353	11.85
721.379	19.85
721.405	9.85
721.432	19.85
721.458	-14.15
721.484	1.85
721.51	-8.15
721.536	-5.15
721.562	6.85
721.588	2.85
721.614	1.85
721.64	-6.15
721.666	11.85
721.693	-2.15
721.719	-14.15
721.745	-7.15
721.771	-4.15
721.797	7.85
721.823	14.85
721.849	17.85
721.875	12.85
721.901	14.85
721.927	3.85
721.953	17.85
721.979	19.85
722.005	14.85
722.031	-5.15
722.057	14.85
722.083	19.85
722.109	21.85
722.135	13.85
722.161	9.85
722.187	-4.15
722.214	10.85
722.24	8.85
722.266	0.85
722.292	18.85
722.318	15.85
722.344	-2.15
722.37	17.85
722.396	12.85
722.422	8.85
722.448	-9.15
722.474	-10.15
722.5	7.85
722.526	6.85
722.552	4.85
722.578	-4.15
722.603	13.85
722.629	-1.15
722.655	7.85
722.681	4.85
722.707	2.85
722.733	1.85
722.759	-3.15
722.785	-4.15
722.811	14.85
722.837	9.85
722.863	0.85
722.889	9.85
722.915	13.85
722.941	6.85
722.967	12.85
722.993	14.85
723.019	4.85
723.045	8.85
723.071	-6.15
723.097	2.85
723.122	11.85
723.148	-2.15
723.174	0.85
723.2	16.85
723.226	-12.15
723.252	7.85
723.278	5.85
723.304	2.85
723.33	1.85
723.356	-2.15
723.381	-7.15
723.407	-15.15
723.433	6.85
723.459	-5.15
723.485	-5.15
723.511	16.85
723.537	10.85
723.563	7.85
723.588	11.85
723.614	18.85
723.64	-1.15
723.666	4.85
723.692	3.85
723.718	-5.15
723.744	16.85
723.769	11.85
723.795	2.85
723.821	12.85
723.847	10.85
723.873	7.85
723.899	5.85
723.924	-2.15
723.95	-1.15
723.976	-10.15
724.002	7.85
724.028	4.85
724.053	10.85
724.079	-5.15
724.105	3.85
724.131	-0.15
724.157	7.85
724.182	8.85
724.208	0.85
724.234	9.85
724.26	12.85
724.286	24.85
724.311	6.85
724.337	-8.15
724.363	-5.15
724.389	2.85
724.415	-5.15
724.44	29.85
724.466	-1.15
724.492	4.85
724.518	14.85
724.543	6.85
724.569	11.85
724.595	4.85
724.621	-17.15
724.646	-6.15
724.672	-10.15
724.698	-3.15
724.723	5.85
724.749	-4.15
724.775	1.85
724.801	12.85
724.826	8.85
724.852	6.85
724.878	-3.15
724.904	-19.15
724.929	10.85
724.955	-9.15
724.981	10.85
725.006	12.85
725.032	0.85
725.058	20.85
725.083	5.85
725.109	6.85
725.135	3.85
725.161	10.85
725.186	0.85
725.212	10.85
725.238	0.85
725.263	12.85
725.289	-7.15
725.315	-5.15
725.34	-4.15
725.366	8.85
725.392	-10.15
725.417	-7.15
725.443	-7.15
725.468	16.85
725.494	22.85
725.52	21.85
725.545	-1.15
725.571	-1.15
725.597	-2.15
725.622	0.85
725.648	9.85
725.674	22.85
725.699	8.85
725.725	6.85
725.75	27.85
725.776	-1.15
725.802	0.85
725.827	4.85
725.853	8.85
725.878	7.85
725.904	-2.15
725.93	-4.15
725.955	-14.15
725.981	-3.15
726.006	4.85
726.032	4.85
726.057	0.85
726.083	-1.15
726.109	5.85
726.134	3.85
726.16	2.85
726.185	1.85
726.211	-3.15
726.236	-0.15
726.262	11.85
726.288	5.85
726.313	12.85
726.339	14.85
726.364	-0.15
726.39	18.85
726.415	3.85
726.441	-5.15
726.466	-0.15
726.492	-2.15
726.517	10.85
726.543	11.85
726.568	14.85
726.594	-2.15
726.619	5.85
726.645	11.85
726.67	2.85
726.696	20.85
726.721	-3.15
726.747	2.85
726.772	8.85
726.798	-1.15
726.823	9.85
726.849	0.85
726.874	8.85
726.9	13.85
726.925	8.85
726.951	0.85
726.976	0.85
727.002	-9.15
727.027	8.85
727.053	12.85
727.078	6.85
727.104	-7.15
727.129	-27.15
727.155	-3.15
727.18	9.85
727.205	-4.15
727.231	0.85
727.256	6.85
727.282	2.85
727.307	2.85
727.333	0.85
727.358	-7.15
727.383	6.85
727.409	-3.15
727.434	18.85
727.46	13.85
727.485	7.85
727.511	-2.15
727.536	-0.15
727.561	-6.15
727.587	5.85
727.612	-6.15
727.637	4.85
727.663	-4.15
727.688	24.85
727.714	-2.15
727.739	0.85
727.764	1.85
727.79	8.85
727.815	16.85
727.841	10.85
727.866	8.85
727.891	13.85
727.917	-8.15
727.942	-15.15
727.967	13.85
727.993	-21.15
728.018	-2.15
728.043	3.85
728.069	0.85
728.094	18.85
728.119	24.85
728.145	13.85
728.17	-0.15
728.195	14.85
728.221	10.85
728.246	-4.15
728.271	-1.15
728.297	-2.15
728.322	13.85
728.347	22.85
728.373	14.85
728.398	12.85
728.423	-3.15
728.448	-4.15
728.474	-12.15
728.499	1.85
728.524	-6.15
728.55	-8.15
728.575	-2.15
728.6	12.85
728.625	2.85
728.651	0.85
728.676	16.85
728.701	-8.15
728.727	-11.15
728.752	-2.15
728.777	1.85
728.802	2.85
728.828	14.85
728.853	8.85
728.878	8.85
728.903	-4.15
728.929	-2.15
728.954	-15.15
728.979	3.85
729.004	1.85
729.03	-1.15
729.055	5.85
729.08	-3.15
729.105	-3.15
729.13	10.85
729.156	10.85
729.181	-5.15
729.206	-7.15
729.231	-2.15
729.256	12.85
729.282	13.85
729.307	-10.15
729.332	8.85
729.357	-5.15
729.382	-2.15
729.408	7.85
729.433	-3.15
729.458	25.85
729.483	9.85
729.508	13.85
729.533	21.85
729.559	16.85
729.584	0.85
729.609	20.85
729.634	21.85
729.659	10.85
729.684	11.85
729.71	15.85
729.735	7.85
729.76	12.85
729.785	1.85
729.81	20.85
729.835	16.85
729.86	0.85
729.886	20.85
729.911	31.85
729.936	14.85
729.961	43.85
729.986	16.85
730.011	68.85
730.036	224.85
730.061	1004.85
730.086	2686.85
730.112	3306.85
730.137	2754.85
730.162	2059.85
730.187	1625.85
730.212	1276.85
730.237	764.85
730.262	442.85
730.287	248.85
730.312	142.85
730.337	76.85
730.362	54.85
730.387	42.85
730.413	26.85
730.438	26.85
730.463	35.85
730.488	10.85
730.513	19.85
730.538	11.85
730.563	29.85
730.588	25.85
730.613	13.85
730.638	1.85
730.663	6.85
730.688	21.85
730.713	25.85
730.738	8.85
730.763	6.85
730.788	-9.15
730.813	16.85
730.838	8.85
730.863	3.85
730.888	-2.15
730.913	-8.15
730.938	0.85
730.963	21.85
730.988	120.85
731.013	400.85
731.038	619.85
731.063	574.85
731.088	478.85
731.113	356.85
731.138	281.85
731.163	199.85
731.188	115.85
731.213	58.85
731.238	36.85
731.263	14.85
731.288	19.85
731.313	30.85
731.338	10.85
731.363	3.85
731.388	-2.15
731.413	2.85
731.438	31.85
731.463	10.85
731.487	8.85
731.512	10.85
731.537	1.85
731.562	-3.15
731.587	13.85
731.612	-2.15
731.637	5.85
731.662	2.85
731.687	-7.15
731.712	-11.15
731.737	-4.15
731.762	-6.15
731.786	0.85
731.811	12.85
731.836	5.85
731.861	-9.15
731.886	-1.15
731.911	8.85
731.936	21.85
731.961	3.85
731.986	1.85
732.01	6.85
732.035	3.85
732.06	16.85
732.085	1.85
732.11	3.85
732.135	-7.15
732.16	1.85
732.184	-2.15
732.209	25.85
732.234	10.85
732.259	0.85
732.284	20.85
732.309	7.85
732.334	12.85
732.358	-3.15
732.383	1.85
732.408	0.85
732.433	8.85
732.458	8.85
732.482	-5.15
732.507	11.85
732.532	19.85
732.557	14.85
732.582	21.85
732.607	19.85
732.631	65.85
732.656	89.85
732.681	141.85
732.706	317.85
732.73	464.85
732.755	401.85
732.78	288.85
732.805	237.85
732.83	178.85
732.854	131.85
732.879	81.85
732.904	46.85
732.929	19.85
732.953	13.85
732.978	-11.15
733.003	-9.15
733.028	-1.15
733.052	9.85
733.077	4.85
733.102	18.85
733.127	4.85
733.151	-6.15
733.176	3.85
733.201	-8.15
733.226	-9.15
733.25	-1.15
733.275	-4.15
733.3	0.85
733.324	8.85
733.349	-8.15
733.374	19.85
733.399	8.85
733.423	-12.15
733.448	-3.15
733.473	-5.15
733.497	-7.15
733.522	0.85
733.547	16.85
733.571	22.85
733.596	17.85
733.621	12.85
733.646	-3.15
733.67	11.85
733.695	-19.15
733.72	13.85
733.744	5.85
733.769	7.85
733.794	10.85
733.818	17.85
733.843	7.85
733.867	9.85
733.892	-3.15
733.917	7.85
733.941	-4.15
733.966	-5.15
733.991	2.85
734.015	20.85
734.04	6.85
734.065	8.85
734.089	12.85
734.114	-1.15
734.138	7.85
734.163	-3.15
734.188	9.85
734.212	5.85
734.237	16.85
734.261	26.85
734.286	9.85
734.311	-13.15
734.335	4.85
734.36	-5.15
734.384	5.85
734.409	1.85
734.434	11.85
734.458	18.85
734.483	12.85
734.507	0.85
734.532	7.85
734.556	-4.15
734.581	-0.15
734.606	0.85
734.63	-4.15
734.655	8.85
734.679	3.85
734.704	1.85
734.728	5.85
734.753	9.85
734.777	10.85
734.802	8.85
734.826	9.85
734.851	11.85
734.876	17.85
734.9	8.85
734.925	3.85
734.949	-1.15
734.974	-9.15
734.998	2.85
735.023	-13.15
735.047	-18.15
735.072	21.85
735.096	12.85
735.121	-0.15
735.145	-15.15
735.17	-6.15
735.194	7.85
735.219	13.85
735.243	10.85
735.268	2.85
735.292	10.85
735.317	2.85
735.341	-0.15
735.365	-7.15
735.39	-3.15
735.414	5.85
735.439	-1.15
735.463	-2.15
735.488	4.85
735.512	-3.15
735.537	9.85
735.561	-1.15
735.586	-3.15
735.61	8.85
735.634	8.85
735.659	5.85
735.683	29.85
735.708	3.85
735.732	4.85
735.757	4.85
735.781	14.85
735.805	2.85
735.83	5.85
735.854	0.85
735.879	-6.15
735.903	10.85
735.927	11.85
735.952	3.85
735.976	16.85
736.001	12.85
736.025	2.85
736.049	2.85
736.074	5.85
736.098	0.85
736.123	6.85
736.147	17.85
736.171	5.85
736.196	-2.15
736.22	0.85
736.244	-4.15
736.269	6.85
736.293	-0.15
736.317	7.85
736.342	14.85
736.366	24.85
736.39	17.85
736.415	6.85
736.439	9.85
736.463	20.85
736.488	14.85
736.512	10.85
736.536	-3.15
736.561	24.85
736.585	12.85
736.609	7.85
736.634	-4.15
736.658	13.85
736.682	-9.15
736.707	-21.15
736.731	-7.15
736.755	-4.15
736.78	6.85
736.804	24.85
736.828	11.85
736.852	-13.15
736.877	-6.15
736.901	19.85
736.925	9.85
736.949	3.85
736.974	6.85
736.998	5.85
737.022	14.85
737.047	0.85
737.071	-2.15
737.095	18.85
737.119	36.85
737.144	10.85
737.168	6.85
737.192	8.85
737.216	23.85
737.241	-3.15
737.265	13.85
737.289	3.85
737.313	0.85
737.337	8.85
737.362	-5.15
737.386	-10.15
737.41	4.85
737.434	2.85
737.459	10.85
737.483	10.85
737.507	35.85
737.531	8.85
737.555	10.85
737.58	8.85
737.604	2.85
737.628	-2.15
737.652	11.85
737.676	0.85
737.701	13.85
737.725	14.85
737.749	21.85
737.773	1.85
737.797	-1.15
737.821	2.85
737.846	18.85
737.87	26.85
737.894	4.85
737.918	-5.15
737.942	-0.15
737.966	15.85
737.99	11.85
738.015	18.85
738.039	5.85
738.063	-9.15
738.087	7.85
738.111	3.85
738.135	14.85
738.159	13.85
738.184	18.85
738.208	5.85
738.232	11.85
738.256	27.85
738.28	5.85
738.304	14.85
738.328	4.85
738.352	0.85
738.376	-4.15
738.4	-6.15
738.425	10.85
738.449	11.85
738.473	22.85
738.497	14.85
738.521	15.85
738.545	4.85
738.569	11.85
738.593	17.85
738.617	9.85
738.641	-0.15
738.665	12.85
738.689	14.85
738.713	4.85
738.737	1.85
738.762	15.85
738.786	18.85
738.81	4.85
738.834	4.85
738.858	5.85
738.882	9.85
738.906	2.85
738.93	3.85
738.954	13.85
738.978	19.85
739.002	16.85
739.026	23.85
739.05	13.85
739.074	0.85
739.098	26.85
739.122	18.85
739.146	19.85
739.17	24.85
739.194	18.85
739.218	3.85
739.242	2.85
739.266	10.85
739.29	9.85
739.314	12.85
739.338	9.85
739.362	-3.15
739.386	0.85
739.41	12.85
739.434	12.85
739.458	23.85
739.482	14.85
739.506	22.85
739.53	9.85
739.554	9.85
739.577	8.85
739.601	20.85
739.625	5.85
739.649	-13.15
739.673	-8.15
739.697	24.85
739.721	-5.15
739.745	16.85
739.769	8.85
739.793	4.85
739.817	7.85
739.841	-8.15
739.865	2.85
739.889	-3.15
739.912	9.85
739.936	0.85
739.96	14.85
739.984	0.85
740.008	11.85
740.032	-7.15
740.056	4.85
740.08	7.85
740.104	-5.15
740.127	3.85
740.151	9.85
740.175	-1.15
740.199	25.85
740.223	58.85
740.247	11.85
740.271	12.85
740.295	-2.15
740.318	-7.15
740.342	-3.15
740.366	11.85
740.39	-1.15
740.414	-3.15
740.438	10.85
740.461	17.85
740.485	13.85
740.509	-4.15
740.533	25.85
740.557	-5.15
740.581	3.85
740.604	-2.15
740.628	2.85
740.652	11.85
740.676	-7.15
740.7	8.85
740.723	-2.15
740.747	-2.15
740.771	-4.15
740.795	8.85
740.819	3.85
740.842	13.85
740.866	14.85
740.89	7.85
740.914	-6.15
740.938	-2.15
740.961	5.85
740.985	1.85
741.009	6.85
741.033	23.85
741.056	4.85
741.08	0.85
741.104	4.85
741.128	-1.15
741.151	14.85
741.175	3.85
741.199	12.85
741.223	6.85
741.246	1.85
741.27	8.85
741.294	-1.15
741.318	0.85
741.341	-2.15
741.365	8.85
741.389	8.85
741.413	7.85
741.436	-3.15
741.46	5.85
741.484	7.85
741.507	0.85
741.531	30.85
741.555	15.85
741.579	21.85
741.602	15.85
741.626	5.85
741.65	-6.15
741.673	22.85
741.697	19.85
741.721	1.85
741.744	-10.15
741.768	-1.15
741.792	16.85
741.815	5.85
741.839	13.85
741.863	26.85
741.886	30.85
741.91	10.85
741.934	5.85
741.957	2.85
741.981	16.85
742.005	17.85
742.028	1.85
742.052	5.85
742.075	5.85
742.099	8.85
742.123	8.85
742.146	9.85
742.17	2.85
742.194	-11.15
742.217	-8.15
742.241	-0.15
742.264	4.85
742.288	30.85
742.312	14.85
742.335	4.85
742.359	10.85
742.382	25.85
742.406	13.85
742.43	-14.15
742.453	2.85
742.477	-9.15
742.5	-1.15
742.524	6.85
742.548	-0.15
742.571	11.85
742.595	-3.15
742.618	-9.15
742.642	0.85
742.665	1.85
742.689	-1.15
742.712	-1.15
742.736	-3.15
742.76	0.85
742.783	-1.15
742.807	4.85
742.83	18.85
742.854	-2.15
742.877	5.85
742.901	-8.15
742.924	-3.15
742.948	3.85
742.971	6.85
742.995	13.85
743.018	-10.15
743.042	-10.15
743.065	2.85
743.089	12.85
743.112	11.85
743.136	2.85
743.159	0.85
743.183	-3.15
743.206	4.85
743.23	1.85
743.253	21.85
743.277	11.85
743.3	5.85
743.324	11.85
743.347	-14.15
743.371	28.85
743.394	9.85
743.418	32.85
743.441	7.85
743.465	11.85
743.488	7.85
743.512	-1.15
743.535	12.85
743.558	18.85
743.582	17.85
743.605	1.85
743.629	19.85
743.652	18.85
743.676	1.85
743.699	10.85
743.723	-1.15
743.746	13.85
743.769	2.85
743.793	-2.15
743.816	7.85
743.84	20.85
743.863	4.85
743.886	10.85
743.91	13.85
743.933	14.85
743.957	5.85
743.98	4.85
744.003	5.85
744.027	14.85
744.05	3.85
744.074	10.85
744.097	8.85
744.12	5.85
744.144	1.85
744.167	0.85
744.19	-2.15
744.214	9.85
744.237	1.85
744.26	5.85
744.284	17.85
744.307	9.85
744.331	5.85
744.354	4.85
744.377	13.85
744.401	12.85
744.424	7.85
744.447	1.85
744.471	2.85
