Data from HighRes_mercury_15_13_11_07_2024_HR4C61891__35__15-14-26-686.txt Node

Date: Thu Nov 07 15:14:26 EST 2024
User: crc00042
Spectrometer: HR4C6189
Trigger mode: 4
Integration Time (sec): 1.000000E-1
Scans to average: 1
Electric dark correction enabled: true
Nonlinearity correction enabled: false
Boxcar width: 0
XAxis mode: Wavelengths
Number of Pixels in Spectrum: 3648
>>>>>Begin Spectral Data<<<<<
639.567	-53.15
639.602	-53.15
639.636	-53.15
639.67	-39.15
639.704	-33.15
639.738	2.85
639.773	11.85
639.807	-17.15
639.841	4.85
639.875	11.85
639.909	0.85
639.943	-3.15
639.978	4.85
640.012	-0.15
640.046	-1.15
640.08	-5.15
640.114	-0.15
640.148	-10.15
640.182	0.85
640.217	-3.15
640.251	19.85
640.285	3.85
640.319	-14.15
640.353	-9.15
640.387	2.85
640.421	-20.15
640.455	-21.15
640.49	-9.15
640.524	-13.15
640.558	16.85
640.592	17.85
640.626	-9.15
640.66	-0.15
640.694	-0.15
640.728	-2.15
640.762	25.85
640.796	17.85
640.83	10.85
640.865	-1.15
640.899	-14.15
640.933	-0.15
640.967	-4.15
641.001	4.85
641.035	-8.15
641.069	-0.15
641.103	5.85
641.137	13.85
641.171	-12.15
641.205	6.85
641.239	-23.15
641.273	4.85
641.307	-3.15
641.341	0.85
641.375	1.85
641.409	0.85
641.443	4.85
641.477	7.85
641.511	3.85
641.545	-0.15
641.579	12.85
641.614	4.85
641.648	0.85
641.682	-7.15
641.716	17.85
641.75	11.85
641.784	0.85
641.818	-7.15
641.852	-0.15
641.886	-12.15
641.919	6.85
641.953	4.85
641.987	-1.15
642.021	-4.15
642.055	4.85
642.089	-1.15
642.123	2.85
642.157	6.85
642.191	1.85
642.225	13.85
642.259	6.85
642.293	5.85
642.327	-0.15
642.361	-14.15
642.395	9.85
642.429	7.85
642.463	16.85
642.497	8.85
642.531	-11.15
642.565	-4.15
642.599	-2.15
642.633	-25.15
642.666	1.85
642.7	0.85
642.734	11.85
642.768	-11.15
642.802	-5.15
642.836	1.85
642.87	-6.15
642.904	12.85
642.938	11.85
642.972	-6.15
643.005	6.85
643.039	9.85
643.073	-0.15
643.107	-1.15
643.141	0.85
643.175	10.85
643.209	-13.15
643.243	-10.15
643.276	-22.15
643.31	-1.15
643.344	-7.15
643.378	1.85
643.412	2.85
643.446	4.85
643.48	-5.15
643.513	-6.15
643.547	4.85
643.581	-9.15
643.615	-6.15
643.649	14.85
643.683	8.85
643.716	6.85
643.75	-4.15
643.784	-10.15
643.818	6.85
643.852	-3.15
643.886	1.85
643.919	4.85
643.953	-6.15
643.987	-10.15
644.021	9.85
644.055	17.85
644.088	4.85
644.122	-3.15
644.156	-14.15
644.19	2.85
644.224	-0.15
644.257	1.85
644.291	18.85
644.325	1.85
644.359	-0.15
644.392	11.85
644.426	8.85
644.46	22.85
644.494	-8.15
644.527	0.85
644.561	-4.15
644.595	12.85
644.629	-5.15
644.662	-0.15
644.696	20.85
644.73	7.85
644.764	-2.15
644.797	-3.15
644.831	0.85
644.865	16.85
644.899	13.85
644.932	14.85
644.966	11.85
645	5.85
645.033	17.85
645.067	-3.15
645.101	-1.15
645.135	2.85
645.168	-6.15
645.202	1.85
645.236	-15.15
645.269	-5.15
645.303	-0.15
645.337	-14.15
645.37	-18.15
645.404	-10.15
645.438	12.85
645.471	9.85
645.505	19.85
645.539	-6.15
645.572	2.85
645.606	-10.15
645.64	-0.15
645.673	-7.15
645.707	9.85
645.741	5.85
645.774	-4.15
645.808	-1.15
645.842	-7.15
645.875	-1.15
645.909	3.85
645.943	-17.15
645.976	7.85
646.01	23.85
646.043	17.85
646.077	14.85
646.111	13.85
646.144	-0.15
646.178	2.85
646.212	-6.15
646.245	7.85
646.279	-6.15
646.312	-1.15
646.346	4.85
646.38	-10.15
646.413	15.85
646.447	4.85
646.48	8.85
646.514	24.85
646.547	-1.15
646.581	0.85
646.615	1.85
646.648	1.85
646.682	-0.15
646.715	-6.15
646.749	2.85
646.782	0.85
646.816	-9.15
646.85	5.85
646.883	1.85
646.917	8.85
646.95	15.85
646.984	7.85
647.017	1.85
647.051	7.85
647.084	-6.15
647.118	-9.15
647.151	-4.15
647.185	-4.15
647.218	-14.15
647.252	2.85
647.285	-15.15
647.319	-12.15
647.353	6.85
647.386	5.85
647.42	0.85
647.453	5.85
647.487	-0.15
647.52	6.85
647.553	15.85
647.587	22.85
647.62	12.85
647.654	3.85
647.687	7.85
647.721	4.85
647.754	-9.15
647.788	-6.15
647.821	-2.15
647.855	0.85
647.888	14.85
647.922	5.85
647.955	1.85
647.989	2.85
648.022	14.85
648.055	15.85
648.089	2.85
648.122	10.85
648.156	-2.15
648.189	-0.15
648.223	-0.15
648.256	23.85
648.29	9.85
648.323	6.85
648.356	15.85
648.39	17.85
648.423	0.85
648.457	-7.15
648.49	20.85
648.523	12.85
648.557	-0.15
648.59	-0.15
648.624	6.85
648.657	-14.15
648.69	27.85
648.724	12.85
648.757	0.85
648.791	9.85
648.824	8.85
648.857	3.85
648.891	-2.15
648.924	9.85
648.957	14.85
648.991	3.85
649.024	10.85
649.057	-5.15
649.091	-19.15
649.124	10.85
649.158	10.85
649.191	12.85
649.224	4.85
649.258	13.85
649.291	0.85
649.324	3.85
649.358	3.85
649.391	9.85
649.424	2.85
649.458	5.85
649.491	1.85
649.524	-8.15
649.557	-10.15
649.591	-15.15
649.624	6.85
649.657	1.85
649.691	0.85
649.724	3.85
649.757	-16.15
649.791	-15.15
649.824	9.85
649.857	15.85
649.89	5.85
649.924	-29.15
649.957	-6.15
649.99	-5.15
650.023	3.85
650.057	5.85
650.09	15.85
650.123	4.85
650.157	15.85
650.19	25.85
650.223	3.85
650.256	-19.15
650.29	6.85
650.323	7.85
650.356	5.85
650.389	-11.15
650.423	-13.15
650.456	0.85
650.489	-8.15
650.522	8.85
650.555	9.85
650.589	4.85
650.622	5.85
650.655	13.85
650.688	11.85
650.721	-3.15
650.755	-12.15
650.788	-4.15
650.821	-5.15
650.854	-6.15
650.887	6.85
650.921	-16.15
650.954	-5.15
650.987	0.85
651.02	-7.15
651.053	-13.15
651.087	-23.15
651.12	10.85
651.153	2.85
651.186	0.85
651.219	-12.15
651.252	-0.15
651.286	13.85
651.319	-3.15
651.352	6.85
651.385	-3.15
651.418	9.85
651.451	16.85
651.484	-2.15
651.518	-6.15
651.551	25.85
651.584	-0.15
651.617	14.85
651.65	2.85
651.683	13.85
651.716	-2.15
651.749	-10.15
651.783	-11.15
651.816	-3.15
651.849	7.85
651.882	1.85
651.915	-7.15
651.948	6.85
651.981	-4.15
652.014	-4.15
652.047	-4.15
652.08	-18.15
652.114	-11.15
652.147	4.85
652.18	-4.15
652.213	19.85
652.246	-4.15
652.279	4.85
652.312	2.85
652.345	8.85
652.378	4.85
652.411	9.85
652.444	8.85
652.477	4.85
652.51	8.85
652.543	-30.15
652.576	-13.15
652.609	-8.15
652.642	-2.15
652.675	28.85
652.709	-0.15
652.742	-8.15
652.775	2.85
652.808	12.85
652.841	-2.15
652.874	-1.15
652.907	-5.15
652.94	-8.15
652.973	-15.15
653.006	-1.15
653.039	-7.15
653.072	-14.15
653.105	0.85
653.138	-5.15
653.171	-9.15
653.204	9.85
653.237	11.85
653.27	10.85
653.303	9.85
653.336	14.85
653.368	-6.15
653.401	-7.15
653.434	-10.15
653.467	14.85
653.5	-0.15
653.533	-7.15
653.566	4.85
653.599	-7.15
653.632	-7.15
653.665	-7.15
653.698	-11.15
653.731	-13.15
653.764	5.85
653.797	-13.15
653.83	0.85
653.863	-3.15
653.896	-0.15
653.929	3.85
653.961	4.85
653.994	-6.15
654.027	-11.15
654.06	-0.15
654.093	2.85
654.126	6.85
654.159	-8.15
654.192	-10.15
654.225	-6.15
654.258	3.85
654.29	0.85
654.323	14.85
654.356	-9.15
654.389	-7.15
654.422	-11.15
654.455	-7.15
654.488	5.85
654.521	-25.15
654.553	-14.15
654.586	6.85
654.619	-10.15
654.652	-12.15
654.685	14.85
654.718	4.85
654.751	-3.15
654.783	-2.15
654.816	10.85
654.849	-4.15
654.882	-13.15
654.915	-16.15
654.948	-3.15
654.98	-10.15
655.013	-7.15
655.046	-8.15
655.079	-18.15
655.112	-3.15
655.144	-12.15
655.177	4.85
655.21	1.85
655.243	19.85
655.276	8.85
655.308	-1.15
655.341	-26.15
655.374	2.85
655.407	-16.15
655.44	-3.15
655.472	8.85
655.505	-1.15
655.538	-10.15
655.571	-1.15
655.603	-6.15
655.636	-3.15
655.669	-4.15
655.702	0.85
655.734	-4.15
655.767	-6.15
655.8	-16.15
655.833	-8.15
655.865	4.85
655.898	-8.15
655.931	-6.15
655.964	8.85
655.996	1.85
656.029	-6.15
656.062	-3.15
656.095	4.85
656.127	-11.15
656.16	-7.15
656.193	-11.15
656.225	-1.15
656.258	1.85
656.291	6.85
656.324	20.85
656.356	-2.15
656.389	5.85
656.422	2.85
656.454	-18.15
656.487	-5.15
656.52	7.85
656.552	-5.15
656.585	-7.15
656.618	1.85
656.65	14.85
656.683	11.85
656.716	-7.15
656.748	-11.15
656.781	-16.15
656.814	-10.15
656.846	-14.15
656.879	-19.15
656.912	-11.15
656.944	-24.15
656.977	-10.15
657.01	3.85
657.042	-4.15
657.075	5.85
657.108	-9.15
657.14	-0.15
657.173	9.85
657.205	14.85
657.238	4.85
657.271	1.85
657.303	-20.15
657.336	0.85
657.369	-6.15
657.401	-11.15
657.434	1.85
657.466	-2.15
657.499	2.85
657.532	12.85
657.564	15.85
657.597	4.85
657.629	4.85
657.662	-0.15
657.694	-1.15
657.727	-11.15
657.76	11.85
657.792	-12.15
657.825	-1.15
657.857	5.85
657.89	12.85
657.922	9.85
657.955	-16.15
657.987	-0.15
658.02	11.85
658.053	-4.15
658.085	5.85
658.118	-3.15
658.15	5.85
658.183	-1.15
658.215	-6.15
658.248	-0.15
658.28	-5.15
658.313	9.85
658.345	2.85
658.378	3.85
658.41	4.85
658.443	12.85
658.475	-8.15
658.508	-3.15
658.54	7.85
658.573	-13.15
658.605	-7.15
658.638	-2.15
658.67	-0.15
658.703	4.85
658.735	-15.15
658.768	7.85
658.8	-0.15
658.833	24.85
658.865	-5.15
658.898	2.85
658.93	-8.15
658.963	5.85
658.995	-8.15
659.028	20.85
659.06	5.85
659.092	0.85
659.125	-3.15
659.157	0.85
659.19	-2.15
659.222	-10.15
659.255	8.85
659.287	3.85
659.32	-2.15
659.352	-5.15
659.384	4.85
659.417	-3.15
659.449	-0.15
659.482	19.85
659.514	-15.15
659.546	-5.15
659.579	-23.15
659.611	-2.15
659.644	-12.15
659.676	-0.15
659.708	-13.15
659.741	-7.15
659.773	4.85
659.806	6.85
659.838	5.85
659.87	-2.15
659.903	-7.15
659.935	1.85
659.967	5.85
660	7.85
660.032	-24.15
660.065	11.85
660.097	19.85
660.129	-2.15
660.162	-5.15
660.194	20.85
660.226	4.85
660.259	-1.15
660.291	-1.15
660.323	1.85
660.356	-1.15
660.388	-4.15
660.42	8.85
660.453	7.85
660.485	9.85
660.517	21.85
660.55	8.85
660.582	3.85
660.614	6.85
660.647	-8.15
660.679	-10.15
660.711	8.85
660.743	-13.15
660.776	-4.15
660.808	4.85
660.84	4.85
660.873	5.85
660.905	12.85
660.937	-6.15
660.969	6.85
661.002	-2.15
661.034	19.85
661.066	-1.15
661.099	5.85
661.131	21.85
661.163	3.85
661.195	0.85
661.228	12.85
661.26	-10.15
661.292	0.85
661.324	-1.15
661.357	-6.15
661.389	4.85
661.421	3.85
661.453	-3.15
661.485	14.85
661.518	11.85
661.55	1.85
661.582	-10.15
661.614	-9.15
661.647	0.85
661.679	-9.15
661.711	-0.15
661.743	7.85
661.775	-6.15
661.808	7.85
661.84	-5.15
661.872	2.85
661.904	-1.15
661.936	-0.15
661.969	-3.15
662.001	0.85
662.033	-1.15
662.065	-12.15
662.097	14.85
662.129	4.85
662.162	-15.15
662.194	3.85
662.226	-8.15
662.258	-3.15
662.29	2.85
662.322	-11.15
662.355	-10.15
662.387	17.85
662.419	14.85
662.451	4.85
662.483	6.85
662.515	-6.15
662.547	-14.15
662.58	-3.15
662.612	-6.15
662.644	-7.15
662.676	5.85
662.708	8.85
662.74	-5.15
662.772	-9.15
662.804	6.85
662.836	9.85
662.869	12.85
662.901	4.85
662.933	9.85
662.965	0.85
662.997	0.85
663.029	4.85
663.061	0.85
663.093	10.85
663.125	2.85
663.157	5.85
663.189	-13.15
663.221	15.85
663.254	-6.15
663.286	18.85
663.318	-8.15
663.35	2.85
663.382	15.85
663.414	20.85
663.446	11.85
663.478	0.85
663.51	18.85
663.542	-4.15
663.574	-0.15
663.606	2.85
663.638	-11.15
663.67	1.85
663.702	-16.15
663.734	4.85
663.766	16.85
663.798	-0.15
663.83	18.85
663.862	3.85
663.894	8.85
663.926	9.85
663.958	1.85
663.99	-11.15
664.022	-11.15
664.054	5.85
664.086	-9.15
664.118	-7.15
664.15	-1.15
664.182	8.85
664.214	5.85
664.246	12.85
664.278	-7.15
664.31	24.85
664.342	12.85
664.374	-9.15
664.406	8.85
664.438	11.85
664.47	5.85
664.502	3.85
664.534	-3.15
664.566	9.85
664.598	18.85
664.63	5.85
664.662	16.85
664.693	4.85
664.725	-9.15
664.757	2.85
664.789	-6.15
664.821	16.85
664.853	15.85
664.885	8.85
664.917	3.85
664.949	6.85
664.981	12.85
665.013	-8.15
665.045	-11.15
665.076	0.85
665.108	2.85
665.14	-0.15
665.172	-5.15
665.204	-6.15
665.236	-21.15
665.268	3.85
665.3	-15.15
665.331	-15.15
665.363	6.85
665.395	-9.15
665.427	-10.15
665.459	13.85
665.491	15.85
665.523	3.85
665.555	-13.15
665.586	17.85
665.618	-5.15
665.65	-2.15
665.682	2.85
665.714	-2.15
665.746	-15.15
665.777	15.85
665.809	10.85
665.841	2.85
665.873	-0.15
665.905	-4.15
665.937	6.85
665.968	0.85
666	-2.15
666.032	-3.15
666.064	-11.15
666.096	18.85
666.127	3.85
666.159	10.85
666.191	2.85
666.223	1.85
666.255	-4.15
666.286	8.85
666.318	-10.15
666.35	14.85
666.382	12.85
666.413	-3.15
666.445	-11.15
666.477	-7.15
666.509	-16.15
666.54	-2.15
666.572	-7.15
666.604	1.85
666.636	10.85
666.667	9.85
666.699	3.85
666.731	-10.15
666.763	-12.15
666.794	3.85
666.826	5.85
666.858	0.85
666.89	-1.15
666.921	9.85
666.953	18.85
666.985	8.85
667.017	5.85
667.048	4.85
667.08	-16.15
667.112	-10.15
667.143	8.85
667.175	4.85
667.207	7.85
667.238	4.85
667.27	0.85
667.302	7.85
667.334	9.85
667.365	28.85
667.397	10.85
667.429	2.85
667.46	16.85
667.492	19.85
667.524	-11.15
667.555	-3.15
667.587	-23.15
667.619	1.85
667.65	-1.15
667.682	-2.15
667.714	21.85
667.745	3.85
667.777	4.85
667.808	-1.15
667.84	-0.15
667.872	0.85
667.903	12.85
667.935	9.85
667.967	-0.15
667.998	-10.15
668.03	-7.15
668.061	10.85
668.093	-3.15
668.125	8.85
668.156	17.85
668.188	7.85
668.22	-5.15
668.251	7.85
668.283	2.85
668.314	4.85
668.346	13.85
668.377	15.85
668.409	14.85
668.441	3.85
668.472	-0.15
668.504	13.85
668.535	5.85
668.567	29.85
668.599	6.85
668.63	-0.15
668.662	11.85
668.693	15.85
668.725	2.85
668.756	9.85
668.788	-0.15
668.819	-3.15
668.851	-1.15
668.882	11.85
668.914	2.85
668.946	-7.15
668.977	4.85
669.009	-1.15
669.04	-3.15
669.072	8.85
669.103	3.85
669.135	-5.15
669.166	4.85
669.198	1.85
669.229	5.85
669.261	2.85
669.292	5.85
669.324	13.85
669.355	6.85
669.387	-12.15
669.418	4.85
669.45	-7.15
669.481	-2.15
669.513	-0.15
669.544	7.85
669.576	-2.15
669.607	10.85
669.639	8.85
669.67	-10.15
669.701	4.85
669.733	-12.15
669.764	12.85
669.796	-1.15
669.827	-13.15
669.859	-9.15
669.89	2.85
669.922	2.85
669.953	-1.15
669.985	5.85
670.016	4.85
670.047	16.85
670.079	0.85
670.11	4.85
670.142	3.85
670.173	16.85
670.204	5.85
670.236	-2.15
670.267	-14.15
670.299	-12.15
670.33	-9.15
670.362	5.85
670.393	-30.15
670.424	-9.15
670.456	-7.15
670.487	-0.15
670.518	0.85
670.55	-7.15
670.581	3.85
670.613	17.85
670.644	-0.15
670.675	-18.15
670.707	-10.15
670.738	-9.15
670.769	-0.15
670.801	-10.15
670.832	10.85
670.864	-14.15
670.895	-4.15
670.926	-4.15
670.958	11.85
670.989	3.85
671.02	-6.15
671.052	-9.15
671.083	-8.15
671.114	-7.15
671.146	-5.15
671.177	-1.15
671.208	1.85
671.24	-17.15
671.271	-12.15
671.302	1.85
671.333	6.85
671.365	-16.15
671.396	1.85
671.427	-10.15
671.459	4.85
671.49	8.85
671.521	14.85
671.553	-5.15
671.584	7.85
671.615	-2.15
671.646	10.85
671.678	5.85
671.709	-15.15
671.74	-10.15
671.771	-19.15
671.803	-5.15
671.834	-3.15
671.865	-13.15
671.896	8.85
671.928	-1.15
671.959	-0.15
671.99	-15.15
672.021	-8.15
672.053	-7.15
672.084	15.85
672.115	14.85
672.146	-4.15
672.178	-1.15
672.209	1.85
672.24	10.85
672.271	21.85
672.303	-1.15
672.334	2.85
672.365	-10.15
672.396	6.85
672.427	15.85
672.459	14.85
672.49	24.85
672.521	-6.15
672.552	19.85
672.583	7.85
672.615	-2.15
672.646	4.85
672.677	-15.15
672.708	-4.15
672.739	-7.15
672.77	-1.15
672.802	7.85
672.833	-7.15
672.864	-8.15
672.895	-6.15
672.926	-12.15
672.957	-16.15
672.989	-2.15
673.02	11.85
673.051	-0.15
673.082	2.85
673.113	-13.15
673.144	8.85
673.175	-11.15
673.206	-28.15
673.238	4.85
673.269	-9.15
673.3	-8.15
673.331	8.85
673.362	13.85
673.393	-9.15
673.424	-3.15
673.455	8.85
673.487	7.85
673.518	-1.15
673.549	-10.15
673.58	7.85
673.611	2.85
673.642	-10.15
673.673	-22.15
673.704	3.85
673.735	-7.15
673.766	-2.15
673.797	-17.15
673.828	1.85
673.86	-10.15
673.891	-1.15
673.922	-16.15
673.953	-0.15
673.984	5.85
674.015	3.85
674.046	-2.15
674.077	-0.15
674.108	-6.15
674.139	0.85
674.17	-8.15
674.201	-5.15
674.232	8.85
674.263	-16.15
674.294	-8.15
674.325	0.85
674.356	14.85
674.387	18.85
674.418	5.85
674.449	-8.15
674.48	-14.15
674.511	-1.15
674.542	-2.15
674.573	1.85
674.604	24.85
674.635	-3.15
674.666	7.85
674.697	11.85
674.728	5.85
674.759	3.85
674.79	-8.15
674.821	-10.15
674.852	-17.15
674.883	-16.15
674.914	-10.15
674.945	1.85
674.976	3.85
675.007	-3.15
675.038	-23.15
675.069	-12.15
675.1	-5.15
675.131	12.85
675.162	1.85
675.193	-21.15
675.224	2.85
675.254	7.85
675.285	9.85
675.316	14.85
675.347	-1.15
675.378	-6.15
675.409	-12.15
675.44	8.85
675.471	3.85
675.502	-9.15
675.533	13.85
675.564	-12.15
675.595	-6.15
675.625	8.85
675.656	16.85
675.687	-0.15
675.718	-19.15
675.749	-9.15
675.78	-14.15
675.811	-0.15
675.842	7.85
675.873	-3.15
675.903	-11.15
675.934	-9.15
675.965	-13.15
675.996	0.85
676.027	11.85
676.058	-8.15
676.089	-5.15
676.119	15.85
676.15	-10.15
676.181	0.85
676.212	-11.15
676.243	13.85
676.274	-13.15
676.304	2.85
676.335	-26.15
676.366	-1.15
676.397	0.85
676.428	15.85
676.459	0.85
676.489	22.85
676.52	7.85
676.551	-0.15
676.582	-16.15
676.613	-29.15
676.643	-17.15
676.674	5.85
676.705	-8.15
676.736	-1.15
676.767	14.85
676.797	-1.15
676.828	-2.15
676.859	3.85
676.89	9.85
676.92	10.85
676.951	3.85
676.982	-7.15
677.013	-0.15
677.044	5.85
677.074	18.85
677.105	-17.15
677.136	4.85
677.167	-4.15
677.197	16.85
677.228	3.85
677.259	6.85
677.289	-6.15
677.32	-16.15
677.351	-14.15
677.382	-12.15
677.412	-15.15
677.443	-1.15
677.474	-1.15
677.505	-15.15
677.535	9.85
677.566	6.85
677.597	-4.15
677.627	6.85
677.658	-19.15
677.689	2.85
677.72	-6.15
677.75	-10.15
677.781	-4.15
677.812	4.85
677.842	8.85
677.873	0.85
677.904	5.85
677.934	-1.15
677.965	-5.15
677.996	-8.15
678.026	-17.15
678.057	4.85
678.088	-1.15
678.118	3.85
678.149	-16.15
678.18	-4.15
678.21	-2.15
678.241	-3.15
678.272	-9.15
678.302	12.85
678.333	-2.15
678.363	26.85
678.394	12.85
678.425	8.85
678.455	20.85
678.486	11.85
678.517	-0.15
678.547	-2.15
678.578	11.85
678.608	-30.15
678.639	17.85
678.67	3.85
678.7	0.85
678.731	-8.15
678.761	-5.15
678.792	-4.15
678.823	-4.15
678.853	1.85
678.884	-0.15
678.914	6.85
678.945	4.85
678.975	-3.15
679.006	8.85
679.037	-23.15
679.067	20.85
679.098	8.85
679.128	-6.15
679.159	-8.15
679.189	2.85
679.22	-9.15
679.25	11.85
679.281	9.85
679.312	4.85
679.342	8.85
679.373	23.85
679.403	5.85
679.434	3.85
679.464	-7.15
679.495	3.85
679.525	-3.15
679.556	-8.15
679.586	14.85
679.617	4.85
679.647	-0.15
679.678	-1.15
679.708	-5.15
679.739	-3.15
679.769	-3.15
679.8	4.85
679.83	1.85
679.861	2.85
679.891	-15.15
679.922	-9.15
679.952	-20.15
679.983	5.85
680.013	-0.15
680.044	-9.15
680.074	5.85
680.105	7.85
680.135	-0.15
680.165	4.85
680.196	10.85
680.226	-3.15
680.257	0.85
680.287	-8.15
680.318	-10.15
680.348	-12.15
680.379	4.85
680.409	-14.15
680.439	-10.15
680.47	2.85
680.5	6.85
680.531	-2.15
680.561	9.85
680.592	13.85
680.622	6.85
680.652	-0.15
680.683	9.85
680.713	-10.15
680.744	-8.15
680.774	-10.15
680.804	12.85
680.835	-4.15
680.865	0.85
680.896	20.85
680.926	8.85
680.956	-1.15
680.987	-0.15
681.017	-5.15
681.047	-3.15
681.078	-26.15
681.108	-2.15
681.139	13.85
681.169	10.85
681.199	1.85
681.23	5.85
681.26	-3.15
681.29	-8.15
681.321	-9.15
681.351	-7.15
681.381	-0.15
681.412	1.85
681.442	-3.15
681.472	-2.15
681.503	-1.15
681.533	5.85
681.563	-8.15
681.594	-12.15
681.624	-12.15
681.654	-3.15
681.685	-12.15
681.715	-6.15
681.745	-9.15
681.775	2.85
681.806	12.85
681.836	-11.15
681.866	-17.15
681.897	0.85
681.927	-8.15
681.957	-11.15
681.987	8.85
682.018	17.85
682.048	-4.15
682.078	0.85
682.109	14.85
682.139	0.85
682.169	8.85
682.199	6.85
682.23	-3.15
682.26	-3.15
682.29	-19.15
682.32	-17.15
682.351	6.85
682.381	1.85
682.411	-2.15
682.441	-7.15
682.472	-7.15
682.502	11.85
682.532	-15.15
682.562	-2.15
682.592	-1.15
682.623	12.85
682.653	5.85
682.683	-11.15
682.713	4.85
682.743	3.85
682.774	5.85
682.804	9.85
682.834	10.85
682.864	3.85
682.894	4.85
682.925	-4.15
682.955	4.85
682.985	0.85
683.015	0.85
683.045	1.85
683.076	6.85
683.106	5.85
683.136	8.85
683.166	2.85
683.196	-7.15
683.226	3.85
683.257	-10.15
683.287	-13.15
683.317	-10.15
683.347	-0.15
683.377	-2.15
683.407	0.85
683.437	-1.15
683.468	-6.15
683.498	-6.15
683.528	-1.15
683.558	0.85
683.588	17.85
683.618	0.85
683.648	-3.15
683.678	-1.15
683.708	12.85
683.739	-8.15
683.769	3.85
683.799	3.85
683.829	3.85
683.859	3.85
683.889	23.85
683.919	6.85
683.949	-7.15
683.979	-6.15
684.009	8.85
684.039	15.85
684.07	-9.15
684.1	9.85
684.13	4.85
684.16	-8.15
684.19	-1.15
684.22	-18.15
684.25	-1.15
684.28	-14.15
684.31	6.85
684.34	20.85
684.37	0.85
684.4	2.85
684.43	-10.15
684.46	0.85
684.49	6.85
684.52	6.85
684.55	-2.15
684.58	-1.15
684.61	7.85
684.64	12.85
684.67	15.85
684.7	2.85
684.73	4.85
684.76	-4.15
684.79	18.85
684.82	1.85
684.85	-12.15
684.88	-2.15
684.91	1.85
684.94	-1.15
684.97	-3.15
685	0.85
685.03	-11.15
685.06	-12.15
685.09	-4.15
685.12	18.85
685.15	-25.15
685.18	-11.15
685.21	3.85
685.24	4.85
685.27	12.85
685.3	-6.15
685.33	9.85
685.36	1.85
685.39	-1.15
685.42	-6.15
685.45	-1.15
685.48	-15.15
685.51	-11.15
685.54	4.85
685.569	5.85
685.599	10.85
685.629	-1.15
685.659	1.85
685.689	-5.15
685.719	-0.15
685.749	-7.15
685.779	-2.15
685.809	4.85
685.839	4.85
685.869	11.85
685.898	14.85
685.928	0.85
685.958	6.85
685.988	14.85
686.018	-0.15
686.048	1.85
686.078	3.85
686.108	21.85
686.137	-2.15
686.167	20.85
686.197	-6.15
686.227	7.85
686.257	30.85
686.287	22.85
686.317	4.85
686.346	1.85
686.376	-13.15
686.406	-1.15
686.436	13.85
686.466	-18.15
686.496	15.85
686.525	16.85
686.555	1.85
686.585	6.85
686.615	22.85
686.645	1.85
686.675	-7.15
686.704	5.85
686.734	2.85
686.764	-3.15
686.794	-2.15
686.824	-5.15
686.853	6.85
686.883	27.85
686.913	21.85
686.943	-2.15
686.973	-15.15
687.002	3.85
687.032	-6.15
687.062	-10.15
687.092	13.85
687.121	3.85
687.151	-2.15
687.181	-4.15
687.211	4.85
687.24	-4.15
687.27	5.85
687.3	3.85
687.33	8.85
687.359	-10.15
687.389	8.85
687.419	-1.15
687.449	-9.15
687.478	-7.15
687.508	-16.15
687.538	2.85
687.568	5.85
687.597	-21.15
687.627	15.85
687.657	-8.15
687.686	11.85
687.716	27.85
687.746	-14.15
687.776	-8.15
687.805	16.85
687.835	1.85
687.865	8.85
687.894	9.85
687.924	-9.15
687.954	-4.15
687.983	14.85
688.013	4.85
688.043	14.85
688.072	-0.15
688.102	10.85
688.132	5.85
688.161	18.85
688.191	0.85
688.221	6.85
688.25	-18.15
688.28	-4.15
688.31	-5.15
688.339	1.85
688.369	0.85
688.399	0.85
688.428	-5.15
688.458	5.85
688.488	-0.15
688.517	7.85
688.547	10.85
688.576	27.85
688.606	14.85
688.636	3.85
688.665	5.85
688.695	0.85
688.725	3.85
688.754	-10.15
688.784	4.85
688.813	13.85
688.843	-9.15
688.873	-9.15
688.902	-3.15
688.932	-1.15
688.961	7.85
688.991	11.85
689.02	21.85
689.05	-3.15
689.08	9.85
689.109	5.85
689.139	-5.15
689.168	10.85
689.198	-1.15
689.227	-4.15
689.257	-7.15
689.287	9.85
689.316	-5.15
689.346	2.85
689.375	-17.15
689.405	-4.15
689.434	-6.15
689.464	-0.15
689.493	-0.15
689.523	2.85
689.552	-5.15
689.582	-11.15
689.611	2.85
689.641	-1.15
689.67	-8.15
689.7	-1.15
689.73	9.85
689.759	5.85
689.789	13.85
689.818	2.85
689.848	-4.15
689.877	8.85
689.906	1.85
689.936	-16.15
689.965	9.85
689.995	8.85
690.024	-2.15
690.054	0.85
690.083	1.85
690.113	0.85
690.142	3.85
690.172	-9.15
690.201	1.85
690.231	-0.15
690.26	10.85
690.29	-4.15
690.319	-11.15
690.348	-0.15
690.378	-5.15
690.407	0.85
690.437	-0.15
690.466	16.85
690.496	4.85
690.525	8.85
690.555	-11.15
690.584	-4.15
690.613	-10.15
690.643	-0.15
690.672	17.85
690.702	4.85
690.731	25.85
690.76	33.85
690.79	55.85
690.819	52.85
690.849	44.85
690.878	28.85
690.907	16.85
690.937	25.85
690.966	18.85
690.996	6.85
691.025	-1.15
691.054	4.85
691.084	0.85
691.113	11.85
691.142	-7.15
691.172	-11.15
691.201	15.85
691.23	-3.15
691.26	19.85
691.289	8.85
691.319	4.85
691.348	-10.15
691.377	13.85
691.407	-2.15
691.436	13.85
691.465	4.85
691.495	3.85
691.524	-3.15
691.553	4.85
691.583	-5.15
691.612	16.85
691.641	10.85
691.67	2.85
691.7	15.85
691.729	-7.15
691.758	-7.15
691.788	-2.15
691.817	0.85
691.846	5.85
691.876	15.85
691.905	-1.15
691.934	-3.15
691.963	13.85
691.993	13.85
692.022	-7.15
692.051	-9.15
692.081	6.85
692.11	5.85
692.139	-7.15
692.168	10.85
692.198	14.85
692.227	11.85
692.256	8.85
692.285	-0.15
692.315	-7.15
692.344	-3.15
692.373	-7.15
692.402	-18.15
692.432	0.85
692.461	-2.15
692.49	-7.15
692.519	-12.15
692.548	1.85
692.578	16.85
692.607	5.85
692.636	-12.15
692.665	2.85
692.694	-2.15
692.724	-3.15
692.753	9.85
692.782	5.85
692.811	-15.15
692.84	-0.15
692.87	15.85
692.899	4.85
692.928	4.85
692.957	5.85
692.986	9.85
693.016	0.85
693.045	-10.15
693.074	0.85
693.103	-6.15
693.132	-0.15
693.161	2.85
693.191	6.85
693.22	-5.15
693.249	12.85
693.278	7.85
693.307	11.85
693.336	-5.15
693.365	-13.15
693.395	-11.15
693.424	10.85
693.453	10.85
693.482	-9.15
693.511	7.85
693.54	2.85
693.569	8.85
693.598	-4.15
693.628	3.85
693.657	22.85
693.686	33.85
693.715	32.85
693.744	14.85
693.773	23.85
693.802	-4.15
693.831	9.85
693.86	12.85
693.889	-3.15
693.919	2.85
693.948	7.85
693.977	0.85
694.006	-0.15
694.035	-8.15
694.064	-11.15
694.093	8.85
694.122	-3.15
694.151	6.85
694.18	-1.15
694.209	20.85
694.238	0.85
694.267	13.85
694.296	2.85
694.325	8.85
694.354	15.85
694.383	4.85
694.412	2.85
694.441	11.85
694.471	-9.15
694.5	-8.15
694.529	7.85
694.558	14.85
694.587	14.85
694.616	20.85
694.645	14.85
694.674	20.85
694.703	6.85
694.732	8.85
694.761	4.85
694.79	4.85
694.819	-5.15
694.848	12.85
694.877	18.85
694.906	8.85
694.935	25.85
694.963	15.85
694.992	4.85
695.021	8.85
695.05	9.85
695.079	14.85
695.108	-3.15
695.137	22.85
695.166	-2.15
695.195	-3.15
695.224	1.85
695.253	0.85
695.282	13.85
695.311	17.85
695.34	14.85
695.369	17.85
695.398	20.85
695.427	8.85
695.456	-6.15
695.485	16.85
695.513	10.85
695.542	-5.15
695.571	-2.15
695.6	18.85
695.629	2.85
695.658	6.85
695.687	4.85
695.716	1.85
695.745	13.85
695.774	-10.15
695.802	-0.15
695.831	14.85
695.86	13.85
695.889	2.85
695.918	12.85
695.947	-1.15
695.976	17.85
696.005	-1.15
696.033	-2.15
696.062	13.85
696.091	7.85
696.12	-0.15
696.149	3.85
696.178	-8.15
696.207	17.85
696.235	-5.15
696.264	15.85
696.293	3.85
696.322	7.85
696.351	13.85
696.38	-8.15
696.408	9.85
696.437	0.85
696.466	3.85
696.495	12.85
696.524	24.85
696.553	13.85
696.581	9.85
696.61	12.85
696.639	4.85
696.668	11.85
696.697	-0.15
696.725	19.85
696.754	3.85
696.783	-7.15
696.812	2.85
696.84	15.85
696.869	13.85
696.898	-8.15
696.927	1.85
696.956	17.85
696.984	-4.15
697.013	1.85
697.042	-7.15
697.071	8.85
697.099	24.85
697.128	2.85
697.157	4.85
697.186	0.85
697.214	-3.15
697.243	8.85
697.272	11.85
697.301	3.85
697.329	5.85
697.358	14.85
697.387	12.85
697.415	19.85
697.444	14.85
697.473	3.85
697.502	6.85
697.53	12.85
697.559	2.85
697.588	4.85
697.616	-6.15
697.645	-15.15
697.674	3.85
697.703	9.85
697.731	11.85
697.76	0.85
697.789	-7.15
697.817	8.85
697.846	23.85
697.875	10.85
697.903	24.85
697.932	8.85
697.961	-1.15
697.989	2.85
698.018	6.85
698.047	9.85
698.075	17.85
698.104	6.85
698.133	1.85
698.161	0.85
698.19	9.85
698.218	-1.15
698.247	7.85
698.276	4.85
698.304	-2.15
698.333	20.85
698.362	2.85
698.39	-6.15
698.419	0.85
698.447	-9.15
698.476	-4.15
698.505	14.85
698.533	5.85
698.562	8.85
698.591	-7.15
698.619	-0.15
698.648	19.85
698.676	2.85
698.705	2.85
698.733	-4.15
698.762	7.85
698.791	8.85
698.819	8.85
698.848	-8.15
698.876	23.85
698.905	2.85
698.933	9.85
698.962	1.85
698.991	16.85
699.019	16.85
699.048	7.85
699.076	-2.15
699.105	-14.15
699.133	-4.15
699.162	2.85
699.19	12.85
699.219	5.85
699.248	6.85
699.276	-1.15
699.305	-1.15
699.333	1.85
699.362	1.85
699.39	12.85
699.419	-5.15
699.447	10.85
699.476	3.85
699.504	7.85
699.533	9.85
699.561	-14.15
699.59	10.85
699.618	0.85
699.647	10.85
699.675	8.85
699.704	2.85
699.732	5.85
699.761	11.85
699.789	0.85
699.818	10.85
699.846	0.85
699.874	-0.15
699.903	-4.15
699.931	-4.15
699.96	3.85
699.988	5.85
700.017	13.85
700.045	0.85
700.074	-2.15
700.102	4.85
700.13	2.85
700.159	-8.15
700.187	5.85
700.216	-4.15
700.244	-10.15
700.273	9.85
700.301	5.85
700.329	8.85
700.358	17.85
700.386	-10.15
700.415	17.85
700.443	4.85
700.472	-12.15
700.5	-3.15
700.528	16.85
700.557	2.85
700.585	-14.15
700.614	-7.15
700.642	13.85
700.67	24.85
700.699	13.85
700.727	4.85
700.755	-3.15
700.784	-11.15
700.812	7.85
700.841	4.85
700.869	-6.15
700.897	-13.15
700.926	14.85
700.954	10.85
700.982	4.85
701.011	-1.15
701.039	-2.15
701.067	2.85
701.096	7.85
701.124	1.85
701.152	5.85
701.181	2.85
701.209	-5.15
701.237	8.85
701.266	-3.15
701.294	-3.15
701.322	13.85
701.351	15.85
701.379	17.85
701.407	-5.15
701.435	0.85
701.464	3.85
701.492	4.85
701.52	-5.15
701.549	6.85
701.577	0.85
701.605	-13.15
701.634	0.85
701.662	7.85
701.69	-1.15
701.718	-13.15
701.747	-0.15
701.775	5.85
701.803	-11.15
701.831	0.85
701.86	-3.15
701.888	2.85
701.916	-16.15
701.944	0.85
701.973	-1.15
702.001	-13.15
702.029	-14.15
702.057	-7.15
702.086	-12.15
702.114	-17.15
702.142	-0.15
702.17	-23.15
702.199	-3.15
702.227	-5.15
702.255	9.85
702.283	-5.15
702.311	9.85
702.34	-2.15
702.368	-7.15
702.396	-3.15
702.424	8.85
702.452	0.85
702.481	2.85
702.509	-2.15
702.537	11.85
702.565	10.85
702.593	-17.15
702.621	0.85
702.65	23.85
702.678	14.85
702.706	8.85
702.734	-1.15
702.762	15.85
702.79	28.85
702.819	-14.15
702.847	-1.15
702.875	-1.15
702.903	-4.15
702.931	-10.15
702.959	-3.15
702.988	10.85
703.016	-17.15
703.044	2.85
703.072	3.85
703.1	4.85
703.128	6.85
703.156	11.85
703.184	0.85
703.212	-0.15
703.241	12.85
703.269	14.85
703.297	3.85
703.325	10.85
703.353	-6.15
703.381	-0.15
703.409	3.85
703.437	0.85
703.465	7.85
703.493	4.85
703.522	18.85
703.55	4.85
703.578	-8.15
703.606	-8.15
703.634	-8.15
703.662	-14.15
703.69	0.85
703.718	15.85
703.746	30.85
703.774	4.85
703.802	19.85
703.83	-3.15
703.858	6.85
703.886	3.85
703.914	-12.15
703.942	17.85
703.97	-10.15
703.998	-8.15
704.027	8.85
704.055	6.85
704.083	0.85
704.111	-9.15
704.139	-3.15
704.167	-7.15
704.195	-9.15
704.223	-0.15
704.251	-2.15
704.279	3.85
704.307	-12.15
704.335	-8.15
704.363	13.85
704.391	-4.15
704.419	-1.15
704.447	-3.15
704.475	16.85
704.503	-5.15
704.531	11.85
704.558	5.85
704.586	-10.15
704.614	-2.15
704.642	7.85
704.67	-22.15
704.698	-3.15
704.726	4.85
704.754	1.85
704.782	6.85
704.81	-1.15
704.838	29.85
704.866	-0.15
704.894	-12.15
704.922	7.85
704.95	0.85
704.978	8.85
705.006	-10.15
705.034	-0.15
705.061	-6.15
705.089	-1.15
705.117	-12.15
705.145	-2.15
705.173	2.85
705.201	-0.15
705.229	7.85
705.257	5.85
705.285	5.85
705.313	4.85
705.34	4.85
705.368	-4.15
705.396	-5.15
705.424	1.85
705.452	-2.15
705.48	0.85
705.508	-0.15
705.536	-8.15
705.563	-1.15
705.591	-3.15
705.619	10.85
705.647	-2.15
705.675	-5.15
705.703	6.85
705.731	14.85
705.758	-11.15
705.786	-7.15
705.814	2.85
705.842	-3.15
705.87	-4.15
705.898	-0.15
705.925	-9.15
705.953	2.85
705.981	-9.15
706.009	-4.15
706.037	11.85
706.065	1.85
706.092	-18.15
706.12	5.85
706.148	-1.15
706.176	-6.15
706.204	-4.15
706.231	-1.15
706.259	-20.15
706.287	-1.15
706.315	-0.15
706.342	-17.15
706.37	-6.15
706.398	5.85
706.426	-8.15
706.454	-5.15
706.481	13.85
706.509	-2.15
706.537	-7.15
706.565	-6.15
706.592	-3.15
706.62	-4.15
706.648	13.85
706.676	-13.15
706.703	-4.15
706.731	-8.15
706.759	12.85
706.787	8.85
706.814	-6.15
706.842	-13.15
706.87	-7.15
706.897	-6.15
706.925	5.85
706.953	14.85
706.981	24.85
707.008	9.85
707.036	-6.15
707.064	0.85
707.091	-10.15
707.119	5.85
707.147	-5.15
707.174	-1.15
707.202	16.85
707.23	-4.15
707.258	16.85
707.285	-15.15
707.313	-6.15
707.341	-9.15
707.368	-12.15
707.396	-6.15
707.424	8.85
707.451	7.85
707.479	-1.15
707.507	-7.15
707.534	1.85
707.562	-18.15
707.59	-0.15
707.617	-7.15
707.645	-5.15
707.672	-4.15
707.7	2.85
707.728	13.85
707.755	2.85
707.783	-10.15
707.811	0.85
707.838	9.85
707.866	0.85
707.893	-4.15
707.921	-7.15
707.949	-8.15
707.976	-5.15
708.004	0.85
708.031	3.85
708.059	5.85
708.087	-4.15
708.114	-4.15
708.142	-3.15
708.169	-3.15
708.197	-11.15
708.225	10.85
708.252	-4.15
708.28	24.85
708.307	9.85
708.335	-0.15
708.362	-4.15
708.39	-14.15
708.418	-7.15
708.445	3.85
708.473	-15.15
708.5	6.85
708.528	0.85
708.555	-2.15
708.583	20.85
708.61	-6.15
708.638	-1.15
708.665	-15.15
708.693	-1.15
708.72	-6.15
708.748	-3.15
708.776	0.85
708.803	15.85
708.831	1.85
708.858	13.85
708.886	0.85
708.913	21.85
708.941	-7.15
708.968	12.85
708.996	13.85
709.023	8.85
709.051	-9.15
709.078	-0.15
709.105	3.85
709.133	2.85
709.16	-0.15
709.188	2.85
709.215	-6.15
709.243	10.85
709.27	-1.15
709.298	-10.15
709.325	-4.15
709.353	-2.15
709.38	-6.15
709.408	-13.15
709.435	-7.15
709.462	9.85
709.49	11.85
709.517	-3.15
709.545	1.85
709.572	0.85
709.6	8.85
709.627	-1.15
709.655	-1.15
709.682	-5.15
709.709	-0.15
709.737	-5.15
709.764	1.85
709.792	2.85
709.819	-6.15
709.846	-2.15
709.874	-1.15
709.901	9.85
709.929	-0.15
709.956	33.85
709.983	-10.15
710.011	-8.15
710.038	-10.15
710.066	-3.15
710.093	11.85
710.12	-0.15
710.148	8.85
710.175	-4.15
710.202	-22.15
710.23	-12.15
710.257	1.85
710.284	4.85
710.312	6.85
710.339	6.85
710.366	-5.15
710.394	-3.15
710.421	14.85
710.448	1.85
710.476	-15.15
710.503	1.85
710.53	16.85
710.558	17.85
710.585	9.85
710.612	-1.15
710.64	-10.15
710.667	-11.15
710.694	-0.15
710.722	8.85
710.749	-7.15
710.776	6.85
710.804	14.85
710.831	5.85
710.858	-2.15
710.885	-13.15
710.913	-1.15
710.94	17.85
710.967	-0.15
710.995	1.85
711.022	-1.15
711.049	-11.15
711.076	-7.15
711.104	-3.15
711.131	-7.15
711.158	-0.15
711.185	11.85
711.213	-13.15
711.24	-12.15
711.267	-10.15
711.294	-11.15
711.322	1.85
711.349	0.85
711.376	-6.15
711.403	6.85
711.431	-9.15
711.458	-2.15
711.485	-2.15
711.512	-2.15
711.54	-0.15
711.567	-4.15
711.594	-8.15
711.621	-1.15
711.648	-13.15
711.676	-7.15
711.703	1.85
711.73	-11.15
711.757	5.85
711.784	2.85
711.812	3.85
711.839	-0.15
711.866	-2.15
711.893	-18.15
711.92	2.85
711.947	-10.15
711.975	2.85
712.002	-0.15
712.029	13.85
712.056	13.85
712.083	12.85
712.11	-19.15
712.138	-1.15
712.165	10.85
712.192	0.85
712.219	-8.15
712.246	-2.15
712.273	8.85
712.3	-18.15
712.328	1.85
712.355	0.85
712.382	-6.15
712.409	8.85
712.436	-9.15
712.463	-10.15
712.49	4.85
712.517	5.85
712.544	-2.15
712.572	-6.15
712.599	-0.15
712.626	-9.15
712.653	-6.15
712.68	-2.15
712.707	0.85
712.734	-4.15
712.761	-6.15
712.788	-8.15
712.815	-4.15
712.842	16.85
712.87	-14.15
712.897	-22.15
712.924	-13.15
712.951	6.85
712.978	14.85
713.005	13.85
713.032	3.85
713.059	-14.15
713.086	-9.15
713.113	-15.15
713.14	-20.15
713.167	-5.15
713.194	4.85
713.221	-4.15
713.248	12.85
713.275	-1.15
713.302	-1.15
713.329	-4.15
713.356	-3.15
713.383	-9.15
713.41	13.85
713.437	-8.15
713.464	9.85
713.491	11.85
713.518	-8.15
713.545	-3.15
713.572	-3.15
713.599	20.85
713.626	13.85
713.653	-2.15
713.68	-14.15
713.707	-9.15
713.734	7.85
713.761	-3.15
713.788	-9.15
713.815	1.85
713.842	-0.15
713.869	6.85
713.896	-5.15
713.923	1.85
713.95	1.85
713.977	-4.15
714.004	10.85
714.031	-3.15
714.058	9.85
714.085	7.85
714.112	19.85
714.139	-2.15
714.165	-12.15
714.192	-11.15
714.219	7.85
714.246	0.85
714.273	-5.15
714.3	-9.15
714.327	8.85
714.354	18.85
714.381	1.85
714.408	-8.15
714.435	-4.15
714.461	-5.15
714.488	2.85
714.515	-3.15
714.542	-13.15
714.569	0.85
714.596	-8.15
714.623	-0.15
714.65	-9.15
714.677	-3.15
714.703	10.85
714.73	0.85
714.757	5.85
714.784	0.85
714.811	-12.15
714.838	5.85
714.865	-0.15
714.891	11.85
714.918	-3.15
714.945	-21.15
714.972	-11.15
714.999	20.85
715.026	-8.15
715.052	16.85
715.079	3.85
715.106	4.85
715.133	-1.15
715.16	4.85
715.187	8.85
715.213	4.85
715.24	-14.15
715.267	-8.15
715.294	0.85
715.321	-11.15
715.347	-0.15
715.374	-11.15
715.401	-12.15
715.428	13.85
715.455	-0.15
715.481	-6.15
715.508	12.85
715.535	-3.15
715.562	21.85
715.588	-4.15
715.615	-1.15
715.642	-9.15
715.669	-2.15
715.695	0.85
715.722	-8.15
715.749	-6.15
715.776	23.85
715.802	13.85
715.829	1.85
715.856	-12.15
715.883	5.85
715.909	-10.15
715.936	-6.15
715.963	-10.15
715.99	1.85
716.016	-7.15
716.043	20.85
716.07	-3.15
716.096	-6.15
716.123	17.85
716.15	12.85
716.177	-1.15
716.203	6.85
716.23	7.85
716.257	13.85
716.283	7.85
716.31	-8.15
716.337	-2.15
716.363	-1.15
716.39	16.85
716.417	4.85
716.443	-2.15
716.47	4.85
716.497	9.85
716.523	4.85
716.55	-7.15
716.577	-2.15
716.603	2.85
716.63	5.85
716.657	7.85
716.683	-6.15
716.71	-0.15
716.737	-0.15
716.763	17.85
716.79	2.85
716.817	3.85
716.843	2.85
716.87	-12.15
716.897	4.85
716.923	17.85
716.95	-4.15
716.976	-3.15
717.003	-3.15
717.03	-4.15
717.056	-4.15
717.083	-4.15
717.109	14.85
717.136	5.85
717.163	-11.15
717.189	-13.15
717.216	-7.15
717.242	-4.15
717.269	-7.15
717.296	8.85
717.322	-3.15
717.349	-6.15
717.375	11.85
717.402	1.85
717.428	1.85
717.455	11.85
717.481	10.85
717.508	1.85
717.535	9.85
717.561	13.85
717.588	4.85
717.614	-7.15
717.641	-0.15
717.667	5.85
717.694	-18.15
717.72	-10.15
717.747	2.85
717.773	-16.15
717.8	10.85
717.826	2.85
717.853	-0.15
717.88	15.85
717.906	11.85
717.933	4.85
717.959	10.85
717.986	-0.15
718.012	-16.15
718.039	-1.15
718.065	10.85
718.092	4.85
718.118	-10.15
718.144	-10.15
718.171	16.85
718.197	9.85
718.224	12.85
718.25	15.85
718.277	-0.15
718.303	0.85
718.33	8.85
718.356	-8.15
718.383	-8.15
718.409	-18.15
718.436	-19.15
718.462	0.85
718.489	3.85
718.515	3.85
718.541	15.85
718.568	2.85
718.594	2.85
718.621	1.85
718.647	-1.15
718.674	16.85
718.7	15.85
718.726	-6.15
718.753	-8.15
718.779	6.85
718.806	-18.15
718.832	-9.15
718.858	-1.15
718.885	-6.15
718.911	-0.15
718.938	5.85
718.964	-16.15
718.99	2.85
719.017	8.85
719.043	8.85
719.07	23.85
719.096	-9.15
719.122	11.85
719.149	0.85
719.175	-0.15
719.201	-6.15
719.228	-16.15
719.254	-1.15
719.281	-11.15
719.307	-10.15
719.333	1.85
719.36	15.85
719.386	8.85
719.412	8.85
719.439	-12.15
719.465	-1.15
719.491	4.85
719.518	15.85
719.544	10.85
719.57	5.85
719.597	-3.15
719.623	-10.15
719.649	2.85
719.675	-3.15
719.702	-11.15
719.728	2.85
719.754	-6.15
719.781	-4.15
719.807	0.85
719.833	-4.15
719.86	-3.15
719.886	-6.15
719.912	6.85
719.938	-0.15
719.965	1.85
719.991	7.85
720.017	2.85
720.044	-23.15
720.07	0.85
720.096	11.85
720.122	-3.15
720.149	1.85
720.175	18.85
720.201	-11.15
720.227	-4.15
720.254	0.85
720.28	2.85
720.306	-16.15
720.332	-12.15
720.359	4.85
720.385	1.85
720.411	-0.15
720.437	-1.15
720.463	3.85
720.49	-0.15
720.516	-0.15
720.542	-15.15
720.568	5.85
720.595	5.85
720.621	7.85
720.647	6.85
720.673	8.85
720.699	-3.15
720.725	8.85
720.752	-7.15
720.778	-0.15
720.804	5.85
720.83	6.85
720.856	-20.15
720.883	-14.15
720.909	-6.15
720.935	20.85
720.961	22.85
720.987	12.85
721.013	-1.15
721.04	-4.15
721.066	-6.15
721.092	-0.15
721.118	8.85
721.144	5.85
721.17	0.85
721.196	4.85
721.223	-16.15
721.249	10.85
721.275	23.85
721.301	1.85
721.327	25.85
721.353	7.85
721.379	2.85
721.405	6.85
721.432	9.85
721.458	-3.15
721.484	5.85
721.51	-9.15
721.536	12.85
721.562	-2.15
721.588	7.85
721.614	-1.15
721.64	-0.15
721.666	0.85
721.693	-7.15
721.719	-3.15
721.745	-17.15
721.771	-6.15
721.797	7.85
721.823	-2.15
721.849	11.85
721.875	20.85
721.901	-2.15
721.927	-9.15
721.953	5.85
721.979	8.85
722.005	11.85
722.031	-4.15
722.057	-3.15
722.083	20.85
722.109	17.85
722.135	7.85
722.161	14.85
722.187	-0.15
722.214	-6.15
722.24	-3.15
722.266	6.85
722.292	15.85
722.318	8.85
722.344	-8.15
722.37	-0.15
722.396	14.85
722.422	-1.15
722.448	-12.15
722.474	-6.15
722.5	17.85
722.526	1.85
722.552	-0.15
722.578	16.85
722.603	11.85
722.629	7.85
722.655	2.85
722.681	-2.15
722.707	-4.15
722.733	-0.15
722.759	0.85
722.785	-9.15
722.811	-2.15
722.837	-1.15
722.863	0.85
722.889	3.85
722.915	-4.15
722.941	-9.15
722.967	-5.15
722.993	12.85
723.019	7.85
723.045	0.85
723.071	5.85
723.097	15.85
723.122	10.85
723.148	-7.15
723.174	-2.15
723.2	-2.15
723.226	-6.15
723.252	8.85
723.278	-3.15
723.304	-0.15
723.33	-4.15
723.356	-16.15
723.381	3.85
723.407	-13.15
723.433	-0.15
723.459	-7.15
723.485	13.85
723.511	2.85
723.537	-7.15
723.563	0.85
723.588	-1.15
723.614	10.85
723.64	-6.15
723.666	-7.15
723.692	-1.15
723.718	5.85
723.744	6.85
723.769	3.85
723.795	-4.15
723.821	17.85
723.847	2.85
723.873	18.85
723.899	5.85
723.924	0.85
723.95	-4.15
723.976	-11.15
724.002	0.85
724.028	2.85
724.053	3.85
724.079	-0.15
724.105	1.85
724.131	1.85
724.157	16.85
724.182	4.85
724.208	1.85
724.234	4.85
724.26	-3.15
724.286	6.85
724.311	-7.15
724.337	-8.15
724.363	-0.15
724.389	8.85
724.415	-5.15
724.44	26.85
724.466	16.85
724.492	9.85
724.518	-0.15
724.543	-0.15
724.569	7.85
724.595	15.85
724.621	-5.15
724.646	-2.15
724.672	-3.15
724.698	-7.15
724.723	-2.15
724.749	3.85
724.775	-2.15
724.801	-10.15
724.826	-11.15
724.852	-7.15
724.878	-14.15
724.904	-14.15
724.929	17.85
724.955	-14.15
724.981	-1.15
725.006	16.85
725.032	5.85
725.058	-4.15
725.083	-15.15
725.109	-7.15
725.135	4.85
725.161	-2.15
725.186	5.85
725.212	1.85
725.238	11.85
725.263	3.85
725.289	-0.15
725.315	-15.15
725.34	-4.15
725.366	4.85
725.392	-3.15
725.417	-1.15
725.443	0.85
725.468	0.85
725.494	-8.15
725.52	19.85
725.545	-14.15
725.571	-10.15
725.597	4.85
725.622	0.85
725.648	-2.15
725.674	7.85
725.699	6.85
725.725	7.85
725.75	25.85
725.776	-8.15
725.802	-4.15
725.827	8.85
725.853	0.85
725.878	8.85
725.904	-1.15
725.93	-8.15
725.955	-31.15
725.981	-3.15
726.006	-3.15
726.032	10.85
726.057	-7.15
726.083	-2.15
726.109	7.85
726.134	8.85
726.16	6.85
726.185	-13.15
726.211	-14.15
726.236	11.85
726.262	14.85
726.288	16.85
726.313	3.85
726.339	8.85
726.364	13.85
726.39	0.85
726.415	-2.15
726.441	7.85
726.466	-11.15
726.492	-8.15
726.517	-3.15
726.543	-6.15
726.568	-8.15
726.594	-3.15
726.619	7.85
726.645	14.85
726.67	-3.15
726.696	-4.15
726.721	-8.15
726.747	-24.15
726.772	-12.15
726.798	-2.15
726.823	-1.15
726.849	9.85
726.874	12.85
726.9	17.85
726.925	16.85
726.951	7.85
726.976	17.85
727.002	2.85
727.027	-16.15
727.053	2.85
727.078	1.85
727.104	-5.15
727.129	-8.15
727.155	3.85
727.18	4.85
727.205	-2.15
727.231	2.85
727.256	5.85
727.282	7.85
727.307	14.85
727.333	1.85
727.358	2.85
727.383	-19.15
727.409	-20.15
727.434	13.85
727.46	-8.15
727.485	-5.15
727.511	8.85
727.536	-0.15
727.561	-8.15
727.587	-9.15
727.612	1.85
727.637	-1.15
727.663	-18.15
727.688	11.85
727.714	-7.15
727.739	-9.15
727.764	8.85
727.79	9.85
727.815	12.85
727.841	9.85
727.866	0.85
727.891	3.85
727.917	-7.15
727.942	-15.15
727.967	7.85
727.993	-7.15
728.018	1.85
728.043	-8.15
728.069	0.85
728.094	16.85
728.119	-11.15
728.145	6.85
728.17	2.85
728.195	4.85
728.221	0.85
728.246	-11.15
728.271	-20.15
728.297	-8.15
728.322	11.85
728.347	2.85
728.373	-4.15
728.398	-4.15
728.423	-14.15
728.448	-4.15
728.474	-7.15
728.499	4.85
728.524	-15.15
728.55	-23.15
728.575	-1.15
728.6	6.85
728.625	-2.15
728.651	-4.15
728.676	0.85
728.701	2.85
728.727	-7.15
728.752	4.85
728.777	4.85
728.802	14.85
728.828	-11.15
728.853	-6.15
728.878	-4.15
728.903	-13.15
728.929	-14.15
728.954	-0.15
728.979	-0.15
729.004	0.85
729.03	-0.15
729.055	1.85
729.08	-0.15
729.105	23.85
729.13	15.85
729.156	23.85
729.181	-4.15
729.206	-26.15
729.231	-5.15
729.256	7.85
729.282	3.85
729.307	-10.15
729.332	-12.15
729.357	5.85
729.382	-2.15
729.408	-13.15
729.433	4.85
729.458	-1.15
729.483	-1.15
729.508	19.85
729.533	9.85
729.559	12.85
729.584	-4.15
729.609	3.85
729.634	8.85
729.659	0.85
729.684	-5.15
729.71	9.85
729.735	2.85
729.76	0.85
729.785	8.85
729.81	15.85
729.835	7.85
729.86	-4.15
729.886	23.85
729.911	2.85
729.936	2.85
729.961	24.85
729.986	38.85
730.011	66.85
730.036	193.85
730.061	1024.85
730.086	2715.85
730.112	3350.85
730.137	2851.85
730.162	2086.85
730.187	1634.85
730.212	1263.85
730.237	820.85
730.262	440.85
730.287	230.85
730.312	159.85
730.337	73.85
730.362	75.85
730.387	47.85
730.413	17.85
730.438	23.85
730.463	30.85
730.488	8.85
730.513	4.85
730.538	7.85
730.563	16.85
730.588	13.85
730.613	12.85
730.638	0.85
730.663	15.85
730.688	16.85
730.713	11.85
730.738	11.85
730.763	-6.15
730.788	-22.15
730.813	8.85
730.838	3.85
730.863	-8.15
730.888	7.85
730.913	2.85
730.938	-4.15
730.963	25.85
730.988	132.85
731.013	405.85
731.038	622.85
731.063	593.85
731.088	462.85
731.113	375.85
731.138	275.85
731.163	185.85
731.188	102.85
731.213	60.85
731.238	34.85
731.263	13.85
731.288	12.85
731.313	1.85
731.338	-5.15
731.363	1.85
731.388	-2.15
731.413	-1.15
731.438	20.85
731.463	-0.15
731.487	8.85
731.512	-21.15
731.537	-1.15
731.562	10.85
731.587	-1.15
731.612	-2.15
731.637	5.85
731.662	-2.15
731.687	-3.15
731.712	-4.15
731.737	0.85
731.762	7.85
731.786	14.85
731.811	17.85
731.836	5.85
731.861	-10.15
731.886	-7.15
731.911	6.85
731.936	9.85
731.961	-3.15
731.986	0.85
732.01	4.85
732.035	-9.15
732.06	12.85
732.085	5.85
732.11	-13.15
732.135	-12.15
732.16	-11.15
732.184	-6.15
732.209	-14.15
732.234	-10.15
732.259	-1.15
732.284	9.85
732.309	-11.15
732.334	0.85
732.358	-15.15
732.383	0.85
732.408	-1.15
732.433	-0.15
732.458	4.85
732.482	-4.15
732.507	-14.15
732.532	-3.15
732.557	16.85
732.582	14.85
732.607	21.85
732.631	67.85
732.656	68.85
732.681	131.85
732.706	336.85
732.73	453.85
732.755	387.85
732.78	288.85
732.805	217.85
732.83	183.85
732.854	136.85
732.879	89.85
732.904	33.85
732.929	21.85
732.953	21.85
732.978	10.85
733.003	-3.15
733.028	-10.15
733.052	4.85
733.077	-2.15
733.102	6.85
733.127	-7.15
733.151	-0.15
733.176	-0.15
733.201	-5.15
733.226	-6.15
733.25	5.85
733.275	3.85
733.3	-0.15
733.324	0.85
733.349	6.85
733.374	3.85
733.399	-9.15
733.423	-9.15
733.448	-1.15
733.473	4.85
733.497	-0.15
733.522	7.85
733.547	5.85
733.571	8.85
733.596	9.85
733.621	-9.15
733.646	1.85
733.67	4.85
733.695	-10.15
733.72	9.85
733.744	8.85
733.769	3.85
733.794	6.85
733.818	0.85
733.843	-4.15
733.867	-8.15
733.892	4.85
733.917	2.85
733.941	1.85
733.966	-8.15
733.991	-10.15
734.015	7.85
734.04	8.85
734.065	1.85
734.089	3.85
734.114	-10.15
734.138	17.85
734.163	0.85
734.188	10.85
734.212	0.85
734.237	-0.15
734.261	10.85
734.286	0.85
734.311	0.85
734.335	-4.15
734.36	-5.15
734.384	-2.15
734.409	6.85
734.434	-10.15
734.458	-12.15
734.483	-11.15
734.507	-14.15
734.532	-11.15
734.556	3.85
734.581	2.85
734.606	-4.15
734.63	-0.15
734.655	-0.15
734.679	-8.15
734.704	-0.15
734.728	-10.15
734.753	-8.15
734.777	-1.15
734.802	-0.15
734.826	-1.15
734.851	1.85
734.876	10.85
734.9	8.85
734.925	2.85
734.949	5.85
734.974	-0.15
734.998	4.85
735.023	-10.15
735.047	-1.15
735.072	15.85
735.096	-3.15
735.121	-11.15
735.145	2.85
735.17	-0.15
735.194	10.85
735.219	-10.15
735.243	1.85
735.268	8.85
735.292	5.85
735.317	-4.15
735.341	-0.15
735.365	-27.15
735.39	0.85
735.414	7.85
735.439	-2.15
735.463	-4.15
735.488	4.85
735.512	9.85
735.537	-0.15
735.561	-1.15
735.586	2.85
735.61	12.85
735.634	0.85
735.659	-2.15
735.683	11.85
735.708	-15.15
735.732	-2.15
735.757	-5.15
735.781	-7.15
735.805	7.85
735.83	-19.15
735.854	-2.15
735.879	-2.15
735.903	10.85
735.927	19.85
735.952	8.85
735.976	-12.15
736.001	-8.15
736.025	-4.15
736.049	-1.15
736.074	2.85
736.098	-3.15
736.123	4.85
736.147	8.85
736.171	6.85
736.196	3.85
736.22	-24.15
736.244	0.85
736.269	4.85
736.293	-2.15
736.317	7.85
736.342	10.85
736.366	8.85
736.39	15.85
736.415	-4.15
736.439	-3.15
736.463	5.85
736.488	9.85
736.512	5.85
736.536	15.85
736.561	10.85
736.585	9.85
736.609	7.85
736.634	-9.15
736.658	-3.15
736.682	-22.15
736.707	-14.15
736.731	-22.15
736.755	-13.15
736.78	6.85
736.804	13.85
736.828	-3.15
736.852	-5.15
736.877	-1.15
736.901	6.85
736.925	-0.15
736.949	16.85
736.974	12.85
736.998	-17.15
737.022	4.85
737.047	-6.15
737.071	3.85
737.095	15.85
737.119	27.85
737.144	9.85
737.168	6.85
737.192	-2.15
737.216	0.85
737.241	-7.15
737.265	0.85
737.289	7.85
737.313	-4.15
737.337	-2.15
737.362	7.85
737.386	0.85
737.41	-11.15
737.434	9.85
737.459	3.85
737.483	8.85
737.507	11.85
737.531	0.85
737.555	-4.15
737.58	9.85
737.604	0.85
737.628	-11.15
737.652	-6.15
737.676	1.85
737.701	9.85
737.725	5.85
737.749	21.85
737.773	-7.15
737.797	-1.15
737.821	-7.15
737.846	11.85
737.87	24.85
737.894	6.85
737.918	-0.15
737.942	-3.15
737.966	3.85
737.99	10.85
738.015	-19.15
738.039	-3.15
738.063	-7.15
738.087	1.85
738.111	-15.15
738.135	19.85
738.159	-7.15
738.184	17.85
738.208	16.85
738.232	18.85
738.256	8.85
738.28	1.85
738.304	16.85
738.328	-15.15
738.352	-11.15
738.376	-10.15
738.4	10.85
738.425	7.85
738.449	-3.15
738.473	15.85
738.497	3.85
738.521	11.85
738.545	10.85
738.569	22.85
738.593	21.85
738.617	14.85
738.641	5.85
738.665	11.85
738.689	5.85
738.713	-5.15
738.737	10.85
738.762	10.85
738.786	1.85
738.81	-9.15
738.834	3.85
738.858	-6.15
738.882	-7.15
738.906	-13.15
738.93	-6.15
738.954	16.85
738.978	6.85
739.002	-4.15
739.026	6.85
739.05	12.85
739.074	-3.15
739.098	23.85
739.122	25.85
739.146	-0.15
739.17	4.85
739.194	-3.15
739.218	-10.15
739.242	-0.15
739.266	13.85
739.29	1.85
739.314	3.85
739.338	17.85
739.362	-4.15
739.386	7.85
739.41	-6.15
739.434	-17.15
739.458	23.85
739.482	5.85
739.506	14.85
739.53	-0.15
739.554	11.85
739.577	-1.15
739.601	-1.15
739.625	-2.15
739.649	-8.15
739.673	-10.15
739.697	1.85
739.721	-10.15
739.745	8.85
739.769	13.85
739.793	4.85
739.817	14.85
739.841	-2.15
739.865	-8.15
739.889	-23.15
739.912	-4.15
739.936	-13.15
739.96	-0.15
739.984	6.85
740.008	7.85
740.032	-10.15
740.056	-2.15
740.08	6.85
740.104	8.85
740.127	-0.15
740.151	2.85
740.175	-3.15
740.199	-8.15
740.223	44.85
740.247	14.85
740.271	10.85
740.295	-0.15
740.318	-8.15
740.342	-10.15
740.366	0.85
740.39	10.85
740.414	-0.15
740.438	-4.15
740.461	6.85
740.485	3.85
740.509	-10.15
740.533	11.85
740.557	-21.15
740.581	-0.15
740.604	-2.15
740.628	2.85
740.652	5.85
740.676	-0.15
740.7	9.85
740.723	-14.15
740.747	-7.15
740.771	-7.15
740.795	-7.15
740.819	9.85
740.842	0.85
740.866	14.85
740.89	0.85
740.914	-5.15
740.938	-6.15
740.961	7.85
740.985	1.85
741.009	-1.15
741.033	14.85
741.056	6.85
741.08	3.85
741.104	-2.15
741.128	-7.15
741.151	2.85
741.175	-4.15
741.199	-3.15
741.223	5.85
741.246	-4.15
741.27	-14.15
741.294	7.85
741.318	-19.15
741.341	-3.15
741.365	12.85
741.389	3.85
741.413	3.85
741.436	1.85
741.46	-6.15
741.484	7.85
741.507	4.85
741.531	9.85
741.555	8.85
741.579	-2.15
741.602	-1.15
741.626	1.85
741.65	21.85
741.673	8.85
741.697	11.85
741.721	0.85
741.744	0.85
741.768	-12.15
741.792	9.85
741.815	-7.15
741.839	13.85
741.863	19.85
741.886	8.85
741.91	-7.15
741.934	1.85
741.957	-7.15
741.981	17.85
742.005	4.85
742.028	-9.15
742.052	-12.15
742.075	-3.15
742.099	16.85
742.123	3.85
742.146	-2.15
742.17	2.85
742.194	-7.15
742.217	1.85
742.241	-5.15
742.264	13.85
742.288	4.85
742.312	4.85
742.335	-1.15
742.359	3.85
742.382	7.85
742.406	15.85
742.43	-6.15
742.453	-1.15
742.477	-11.15
742.5	-7.15
742.524	-17.15
742.548	-2.15
742.571	5.85
742.595	1.85
742.618	-2.15
742.642	0.85
742.665	3.85
742.689	-12.15
742.712	10.85
742.736	-4.15
742.76	-8.15
742.783	-2.15
742.807	-6.15
742.83	7.85
742.854	-12.15
742.877	-7.15
742.901	-1.15
742.924	-6.15
742.948	10.85
742.971	-5.15
742.995	15.85
743.018	-4.15
743.042	-13.15
743.065	-1.15
743.089	8.85
743.112	-2.15
743.136	-12.15
743.159	-17.15
743.183	-6.15
743.206	-5.15
743.23	1.85
743.253	12.85
743.277	-0.15
743.3	-20.15
743.324	-1.15
743.347	-3.15
743.371	19.85
743.394	16.85
743.418	-1.15
743.441	5.85
743.465	3.85
743.488	-1.15
743.512	-7.15
743.535	-11.15
743.558	1.85
743.582	-2.15
743.605	1.85
743.629	12.85
743.652	21.85
743.676	-10.15
743.699	10.85
743.723	0.85
743.746	15.85
743.769	11.85
743.793	13.85
743.816	2.85
743.84	16.85
743.863	12.85
743.886	4.85
743.91	12.85
743.933	0.85
743.957	-2.15
743.98	-2.15
744.003	14.85
744.027	8.85
744.05	-0.15
744.074	7.85
744.097	-13.15
744.12	-6.15
744.144	-16.15
744.167	9.85
744.19	-9.15
744.214	-7.15
744.237	-10.15
744.26	17.85
744.284	-0.15
744.307	-3.15
744.331	1.85
744.354	-19.15
744.377	2.85
744.401	3.85
744.424	9.85
744.447	-14.15
744.471	-4.15
