Data from HighRes_mercury_15_13_11_07_2024_HR4C61891__94__15-14-32-585.txt Node

Date: Thu Nov 07 15:14:32 EST 2024
User: crc00042
Spectrometer: HR4C6189
Trigger mode: 4
Integration Time (sec): 1.000000E-1
Scans to average: 1
Electric dark correction enabled: true
Nonlinearity correction enabled: false
Boxcar width: 0
XAxis mode: Wavelengths
Number of Pixels in Spectrum: 3648
>>>>>Begin Spectral Data<<<<<
639.567	-64.77
639.602	-64.77
639.636	-64.77
639.67	-39.77
639.704	-16.77
639.738	-8.77
639.773	-4.77
639.807	-10.77
639.841	0.23
639.875	11.23
639.909	10.23
639.943	-7.77
639.978	4.23
640.012	-1.77
640.046	10.23
640.08	8.23
640.114	1.23
640.148	-11.77
640.182	-9.77
640.217	-19.77
640.251	7.23
640.285	11.23
640.319	-3.77
640.353	-11.77
640.387	5.23
640.421	0.23
640.455	-4.77
640.49	10.23
640.524	13.23
640.558	2.23
640.592	-3.77
640.626	2.23
640.66	5.23
640.694	2.23
640.728	7.23
640.762	5.23
640.796	7.23
640.83	27.23
640.865	-0.77
640.899	7.23
640.933	5.23
640.967	1.23
641.001	4.23
641.035	10.23
641.069	14.23
641.103	6.23
641.137	-7.77
641.171	-0.77
641.205	8.23
641.239	-11.77
641.273	12.23
641.307	7.23
641.341	7.23
641.375	3.23
641.409	-16.77
641.443	0.23
641.477	11.23
641.511	16.23
641.545	3.23
641.579	5.23
641.614	12.23
641.648	10.23
641.682	5.23
641.716	0.23
641.75	22.23
641.784	16.23
641.818	1.23
641.852	9.23
641.886	-3.77
641.919	16.23
641.953	0.23
641.987	-19.77
642.021	-22.77
642.055	11.23
642.089	8.23
642.123	-5.77
642.157	8.23
642.191	-6.77
642.225	7.23
642.259	6.23
642.293	13.23
642.327	-6.77
642.361	3.23
642.395	20.23
642.429	5.23
642.463	7.23
642.497	31.23
642.531	2.23
642.565	-9.77
642.599	-0.77
642.633	-4.77
642.666	28.23
642.7	18.23
642.734	30.23
642.768	2.23
642.802	-3.77
642.836	7.23
642.87	3.23
642.904	5.23
642.938	12.23
642.972	-9.77
643.005	5.23
643.039	26.23
643.073	14.23
643.107	14.23
643.141	2.23
643.175	9.23
643.209	6.23
643.243	0.23
643.276	9.23
643.31	7.23
643.344	-1.77
643.378	6.23
643.412	7.23
643.446	1.23
643.48	5.23
643.513	10.23
643.547	12.23
643.581	2.23
643.615	1.23
643.649	11.23
643.683	3.23
643.716	-11.77
643.75	4.23
643.784	-18.77
643.818	8.23
643.852	15.23
643.886	7.23
643.919	15.23
643.953	-2.77
643.987	4.23
644.021	8.23
644.055	5.23
644.088	4.23
644.122	-12.77
644.156	-5.77
644.19	3.23
644.224	1.23
644.257	-2.77
644.291	9.23
644.325	9.23
644.359	13.23
644.392	20.23
644.426	9.23
644.46	-6.77
644.494	10.23
644.527	5.23
644.561	4.23
644.595	19.23
644.629	3.23
644.662	-11.77
644.696	9.23
644.73	-2.77
644.764	13.23
644.797	3.23
644.831	11.23
644.865	17.23
644.899	12.23
644.932	22.23
644.966	10.23
645	22.23
645.033	22.23
645.067	0.23
645.101	0.23
645.135	-3.77
645.168	4.23
645.202	-0.77
645.236	4.23
645.269	6.23
645.303	6.23
645.337	-7.77
645.37	0.23
645.404	-6.77
645.438	1.23
645.471	9.23
645.505	12.23
645.539	4.23
645.572	-6.77
645.606	10.23
645.64	3.23
645.673	8.23
645.707	20.23
645.741	19.23
645.774	0.23
645.808	11.23
645.842	0.23
645.875	6.23
645.909	-3.77
645.943	-8.77
645.976	14.23
646.01	17.23
646.043	11.23
646.077	11.23
646.111	10.23
646.144	6.23
646.178	12.23
646.212	-7.77
646.245	15.23
646.279	11.23
646.312	6.23
646.346	33.23
646.38	-1.77
646.413	9.23
646.447	6.23
646.48	0.23
646.514	11.23
646.547	-2.77
646.581	9.23
646.615	11.23
646.648	-7.77
646.682	-0.77
646.715	4.23
646.749	5.23
646.782	3.23
646.816	7.23
646.85	20.23
646.883	-5.77
646.917	12.23
646.95	10.23
646.984	7.23
647.017	-9.77
647.051	1.23
647.084	3.23
647.118	-0.77
647.151	1.23
647.185	10.23
647.218	-11.77
647.252	10.23
647.285	-16.77
647.319	9.23
647.353	14.23
647.386	12.23
647.42	3.23
647.453	-8.77
647.487	8.23
647.52	-0.77
647.553	11.23
647.587	-5.77
647.62	-18.77
647.654	11.23
647.687	-0.77
647.721	12.23
647.754	0.23
647.788	5.23
647.821	0.23
647.855	12.23
647.888	7.23
647.922	10.23
647.955	5.23
647.989	-4.77
648.022	3.23
648.055	25.23
648.089	3.23
648.122	25.23
648.156	-0.77
648.189	4.23
648.223	1.23
648.256	20.23
648.29	-7.77
648.323	1.23
648.356	2.23
648.39	7.23
648.423	8.23
648.457	-12.77
648.49	7.23
648.523	11.23
648.557	-6.77
648.59	-0.77
648.624	10.23
648.657	11.23
648.69	9.23
648.724	7.23
648.757	10.23
648.791	5.23
648.824	10.23
648.857	5.23
648.891	-6.77
648.924	22.23
648.957	10.23
648.991	-12.77
649.024	6.23
649.057	10.23
649.091	-6.77
649.124	3.23
649.158	26.23
649.191	24.23
649.224	1.23
649.258	1.23
649.291	15.23
649.324	-7.77
649.358	12.23
649.391	-5.77
649.424	-2.77
649.458	2.23
649.491	7.23
649.524	-5.77
649.557	1.23
649.591	-17.77
649.624	11.23
649.657	-9.77
649.691	1.23
649.724	12.23
649.757	0.23
649.791	-5.77
649.824	15.23
649.857	5.23
649.89	-3.77
649.924	-27.77
649.957	-2.77
649.99	-11.77
650.023	6.23
650.057	-8.77
650.09	-2.77
650.123	-2.77
650.157	16.23
650.19	13.23
650.223	0.23
650.256	-6.77
650.29	1.23
650.323	-2.77
650.356	10.23
650.389	-8.77
650.423	-20.77
650.456	9.23
650.489	-1.77
650.522	5.23
650.555	27.23
650.589	27.23
650.622	-7.77
650.655	16.23
650.688	2.23
650.721	-2.77
650.755	13.23
650.788	8.23
650.821	15.23
650.854	-9.77
650.887	0.23
650.921	-6.77
650.954	5.23
650.987	12.23
651.02	0.23
651.053	-9.77
651.087	-17.77
651.12	9.23
651.153	13.23
651.186	1.23
651.219	1.23
651.252	-3.77
651.286	8.23
651.319	-0.77
651.352	-18.77
651.385	22.23
651.418	-3.77
651.451	12.23
651.484	16.23
651.518	-12.77
651.551	26.23
651.584	-2.77
651.617	7.23
651.65	1.23
651.683	5.23
651.716	-7.77
651.749	-8.77
651.783	13.23
651.816	-3.77
651.849	-0.77
651.882	0.23
651.915	-10.77
651.948	-0.77
651.981	-5.77
652.014	-19.77
652.047	-8.77
652.08	-9.77
652.114	-3.77
652.147	-3.77
652.18	9.23
652.213	35.23
652.246	6.23
652.279	-3.77
652.312	24.23
652.345	-5.77
652.378	9.23
652.411	16.23
652.444	0.23
652.477	4.23
652.51	-5.77
652.543	-7.77
652.576	1.23
652.609	-5.77
652.642	6.23
652.675	14.23
652.709	18.23
652.742	15.23
652.775	26.23
652.808	11.23
652.841	10.23
652.874	-0.77
652.907	11.23
652.94	-14.77
652.973	-0.77
653.006	11.23
653.039	-3.77
653.072	0.23
653.105	-8.77
653.138	-1.77
653.171	10.23
653.204	3.23
653.237	16.23
653.27	1.23
653.303	-3.77
653.336	9.23
653.368	9.23
653.401	7.23
653.434	-6.77
653.467	4.23
653.5	-13.77
653.533	-1.77
653.566	6.23
653.599	2.23
653.632	-20.77
653.665	4.23
653.698	-9.77
653.731	-10.77
653.764	17.23
653.797	8.23
653.83	29.23
653.863	4.23
653.896	3.23
653.929	1.23
653.961	1.23
653.994	3.23
654.027	7.23
654.06	15.23
654.093	8.23
654.126	-2.77
654.159	2.23
654.192	-1.77
654.225	6.23
654.258	-20.77
654.29	-6.77
654.323	-4.77
654.356	8.23
654.389	0.23
654.422	11.23
654.455	-4.77
654.488	-2.77
654.521	0.23
654.553	6.23
654.586	9.23
654.619	5.23
654.652	-3.77
654.685	13.23
654.718	15.23
654.751	16.23
654.783	-0.77
654.816	5.23
654.849	5.23
654.882	-0.77
654.915	-32.77
654.948	1.23
654.98	-11.77
655.013	-13.77
655.046	20.23
655.079	3.23
655.112	0.23
655.144	-6.77
655.177	6.23
655.21	16.23
655.243	10.23
655.276	4.23
655.308	-8.77
655.341	-15.77
655.374	-11.77
655.407	0.23
655.44	-15.77
655.472	-3.77
655.505	11.23
655.538	6.23
655.571	22.23
655.603	-0.77
655.636	-6.77
655.669	16.23
655.702	-8.77
655.734	-5.77
655.767	-1.77
655.8	4.23
655.833	9.23
655.865	5.23
655.898	-1.77
655.931	-2.77
655.964	-1.77
655.996	0.23
656.029	3.23
656.062	1.23
656.095	9.23
656.127	3.23
656.16	3.23
656.193	13.23
656.225	3.23
656.258	14.23
656.291	2.23
656.324	19.23
656.356	23.23
656.389	15.23
656.422	22.23
656.454	2.23
656.487	-2.77
656.52	6.23
656.552	1.23
656.585	7.23
656.618	20.23
656.65	7.23
656.683	4.23
656.716	11.23
656.748	7.23
656.781	-1.77
656.814	-6.77
656.846	6.23
656.879	-4.77
656.912	9.23
656.944	-17.77
656.977	-18.77
657.01	-4.77
657.042	6.23
657.075	9.23
657.108	-4.77
657.14	1.23
657.173	2.23
657.205	20.23
657.238	3.23
657.271	9.23
657.303	-16.77
657.336	18.23
657.369	-0.77
657.401	4.23
657.434	1.23
657.466	4.23
657.499	-6.77
657.532	-6.77
657.564	33.23
657.597	9.23
657.629	7.23
657.662	-6.77
657.694	-3.77
657.727	-4.77
657.76	33.23
657.792	5.23
657.825	-5.77
657.857	-11.77
657.89	-11.77
657.922	8.23
657.955	-3.77
657.987	-4.77
658.02	18.23
658.053	9.23
658.085	11.23
658.118	8.23
658.15	22.23
658.183	9.23
658.215	-11.77
658.248	-11.77
658.28	-5.77
658.313	-5.77
658.345	-1.77
658.378	-0.77
658.41	-4.77
658.443	16.23
658.475	4.23
658.508	-11.77
658.54	1.23
658.573	8.23
658.605	3.23
658.638	-2.77
658.67	4.23
658.703	1.23
658.735	-7.77
658.768	12.23
658.8	-10.77
658.833	8.23
658.865	16.23
658.898	11.23
658.93	-6.77
658.963	-5.77
658.995	-12.77
659.028	-5.77
659.06	11.23
659.092	-0.77
659.125	-2.77
659.157	-5.77
659.19	-1.77
659.222	3.23
659.255	14.23
659.287	3.23
659.32	3.23
659.352	16.23
659.384	5.23
659.417	0.23
659.449	11.23
659.482	13.23
659.514	-1.77
659.546	-6.77
659.579	-4.77
659.611	0.23
659.644	-2.77
659.676	-3.77
659.708	-2.77
659.741	0.23
659.773	12.23
659.806	6.23
659.838	2.23
659.87	0.23
659.903	5.23
659.935	10.23
659.967	2.23
660	-9.77
660.032	-15.77
660.065	24.23
660.097	14.23
660.129	17.23
660.162	-6.77
660.194	1.23
660.226	0.23
660.259	12.23
660.291	7.23
660.323	-7.77
660.356	-7.77
660.388	-5.77
660.42	6.23
660.453	2.23
660.485	-1.77
660.517	27.23
660.55	5.23
660.582	-6.77
660.614	6.23
660.647	13.23
660.679	-6.77
660.711	0.23
660.743	-5.77
660.776	-1.77
660.808	2.23
660.84	-4.77
660.873	-0.77
660.905	8.23
660.937	6.23
660.969	-3.77
661.002	-10.77
661.034	8.23
661.066	-1.77
661.099	16.23
661.131	11.23
661.163	1.23
661.195	17.23
661.228	24.23
661.26	2.23
661.292	-4.77
661.324	7.23
661.357	1.23
661.389	11.23
661.421	2.23
661.453	-2.77
661.485	7.23
661.518	3.23
661.55	-8.77
661.582	-15.77
661.614	-0.77
661.647	13.23
661.679	6.23
661.711	7.23
661.743	-1.77
661.775	9.23
661.808	19.23
661.84	-15.77
661.872	-5.77
661.904	-5.77
661.936	-8.77
661.969	2.23
662.001	-12.77
662.033	12.23
662.065	4.23
662.097	1.23
662.129	3.23
662.162	-1.77
662.194	-0.77
662.226	8.23
662.258	13.23
662.29	14.23
662.322	-11.77
662.355	-10.77
662.387	18.23
662.419	9.23
662.451	13.23
662.483	16.23
662.515	-7.77
662.547	0.23
662.58	23.23
662.612	-13.77
662.644	-17.77
662.676	-2.77
662.708	19.23
662.74	-7.77
662.772	1.23
662.804	15.23
662.836	-1.77
662.869	-10.77
662.901	33.23
662.933	-4.77
662.965	25.23
662.997	-6.77
663.029	-8.77
663.061	-9.77
663.093	8.23
663.125	12.23
663.157	9.23
663.189	9.23
663.221	11.23
663.254	-8.77
663.286	4.23
663.318	3.23
663.35	-4.77
663.382	12.23
663.414	-0.77
663.446	2.23
663.478	-2.77
663.51	31.23
663.542	-3.77
663.574	2.23
663.606	-6.77
663.638	-13.77
663.67	-10.77
663.702	-3.77
663.734	1.23
663.766	14.23
663.798	7.23
663.83	10.23
663.862	13.23
663.894	21.23
663.926	4.23
663.958	29.23
663.99	0.23
664.022	9.23
664.054	18.23
664.086	-13.77
664.118	1.23
664.15	-9.77
664.182	-3.77
664.214	5.23
664.246	12.23
664.278	11.23
664.31	14.23
664.342	18.23
664.374	10.23
664.406	6.23
664.438	0.23
664.47	22.23
664.502	9.23
664.534	6.23
664.566	1.23
664.598	21.23
664.63	-7.77
664.662	-9.77
664.693	4.23
664.725	7.23
664.757	-0.77
664.789	-14.77
664.821	17.23
664.853	12.23
664.885	0.23
664.917	5.23
664.949	7.23
664.981	17.23
665.013	2.23
665.045	-11.77
665.076	8.23
665.108	-6.77
665.14	-7.77
665.172	13.23
665.204	0.23
665.236	3.23
665.268	18.23
665.3	-7.77
665.331	-10.77
665.363	-0.77
665.395	7.23
665.427	11.23
665.459	9.23
665.491	2.23
665.523	4.23
665.555	0.23
665.586	-0.77
665.618	6.23
665.65	-20.77
665.682	14.23
665.714	9.23
665.746	2.23
665.777	15.23
665.809	4.23
665.841	5.23
665.873	17.23
665.905	-2.77
665.937	12.23
665.968	3.23
666	10.23
666.032	5.23
666.064	10.23
666.096	8.23
666.127	9.23
666.159	18.23
666.191	18.23
666.223	-4.77
666.255	18.23
666.286	15.23
666.318	12.23
666.35	11.23
666.382	23.23
666.413	-7.77
666.445	-5.77
666.477	-11.77
666.509	-16.77
666.54	8.23
666.572	-4.77
666.604	7.23
666.636	6.23
666.667	25.23
666.699	4.23
666.731	0.23
666.763	-5.77
666.794	5.23
666.826	13.23
666.858	-2.77
666.89	-5.77
666.921	-5.77
666.953	3.23
666.985	7.23
667.017	10.23
667.048	-9.77
667.08	8.23
667.112	3.23
667.143	-24.77
667.175	-1.77
667.207	7.23
667.238	21.23
667.27	7.23
667.302	-0.77
667.334	11.23
667.365	8.23
667.397	-10.77
667.429	-19.77
667.46	-0.77
667.492	13.23
667.524	9.23
667.555	-0.77
667.587	9.23
667.619	6.23
667.65	-20.77
667.682	-4.77
667.714	-0.77
667.745	11.23
667.777	8.23
667.808	4.23
667.84	8.23
667.872	21.23
667.903	22.23
667.935	14.23
667.967	4.23
667.998	-0.77
668.03	5.23
668.061	11.23
668.093	-2.77
668.125	4.23
668.156	4.23
668.188	2.23
668.22	-1.77
668.251	7.23
668.283	11.23
668.314	10.23
668.346	7.23
668.377	19.23
668.409	18.23
668.441	29.23
668.472	20.23
668.504	17.23
668.535	8.23
668.567	4.23
668.599	6.23
668.63	2.23
668.662	17.23
668.693	38.23
668.725	15.23
668.756	13.23
668.788	-9.77
668.819	-10.77
668.851	2.23
668.882	7.23
668.914	6.23
668.946	2.23
668.977	1.23
669.009	-8.77
669.04	-9.77
669.072	12.23
669.103	5.23
669.135	-9.77
669.166	14.23
669.198	12.23
669.229	8.23
669.261	10.23
669.292	5.23
669.324	18.23
669.355	16.23
669.387	4.23
669.418	15.23
669.45	-5.77
669.481	7.23
669.513	2.23
669.544	9.23
669.576	0.23
669.607	12.23
669.639	15.23
669.67	-12.77
669.701	13.23
669.733	0.23
669.764	-4.77
669.796	5.23
669.827	-6.77
669.859	-8.77
669.89	4.23
669.922	7.23
669.953	6.23
669.985	12.23
670.016	20.23
670.047	8.23
670.079	-9.77
670.11	-7.77
670.142	14.23
670.173	8.23
670.204	7.23
670.236	-4.77
670.267	-16.77
670.299	-5.77
670.33	-3.77
670.362	12.23
670.393	-15.77
670.424	9.23
670.456	7.23
670.487	-1.77
670.518	-2.77
670.55	0.23
670.581	-16.77
670.613	-0.77
670.644	-6.77
670.675	-8.77
670.707	-7.77
670.738	3.23
670.769	-0.77
670.801	-11.77
670.832	-2.77
670.864	-9.77
670.895	1.23
670.926	-0.77
670.958	4.23
670.989	2.23
671.02	4.23
671.052	3.23
671.083	-9.77
671.114	-8.77
671.146	13.23
671.177	8.23
671.208	2.23
671.24	-9.77
671.271	-12.77
671.302	1.23
671.333	-9.77
671.365	4.23
671.396	-2.77
671.427	10.23
671.459	23.23
671.49	19.23
671.521	-3.77
671.553	7.23
671.584	21.23
671.615	8.23
671.646	19.23
671.678	17.23
671.709	5.23
671.74	-10.77
671.771	-20.77
671.803	-1.77
671.834	1.23
671.865	-0.77
671.896	-4.77
671.928	-8.77
671.959	8.23
671.99	-8.77
672.021	-11.77
672.053	-11.77
672.084	7.23
672.115	11.23
672.146	-1.77
672.178	-12.77
672.209	-4.77
672.24	-6.77
672.271	23.23
672.303	4.23
672.334	-1.77
672.365	-3.77
672.396	-6.77
672.427	12.23
672.459	18.23
672.49	11.23
672.521	14.23
672.552	21.23
672.583	8.23
672.615	-2.77
672.646	12.23
672.677	6.23
672.708	-8.77
672.739	8.23
672.77	15.23
672.802	10.23
672.833	-13.77
672.864	8.23
672.895	11.23
672.926	8.23
672.957	-9.77
672.989	-9.77
673.02	-3.77
673.051	-6.77
673.082	14.23
673.113	0.23
673.144	0.23
673.175	18.23
673.206	-0.77
673.238	-3.77
673.269	15.23
673.3	4.23
673.331	-6.77
673.362	-2.77
673.393	7.23
673.424	9.23
673.455	12.23
673.487	3.23
673.518	24.23
673.549	5.23
673.58	5.23
673.611	13.23
673.642	7.23
673.673	-12.77
673.704	5.23
673.735	7.23
673.766	2.23
673.797	-17.77
673.828	-0.77
673.86	-7.77
673.891	-5.77
673.922	4.23
673.953	0.23
673.984	0.23
674.015	3.23
674.046	-5.77
674.077	3.23
674.108	-4.77
674.139	-3.77
674.17	-8.77
674.201	0.23
674.232	-2.77
674.263	-6.77
674.294	-3.77
674.325	-3.77
674.356	-12.77
674.387	0.23
674.418	0.23
674.449	-5.77
674.48	-8.77
674.511	-0.77
674.542	3.23
674.573	-24.77
674.604	9.23
674.635	-12.77
674.666	5.23
674.697	-7.77
674.728	8.23
674.759	-7.77
674.79	-0.77
674.821	-0.77
674.852	3.23
674.883	4.23
674.914	-9.77
674.945	-3.77
674.976	-4.77
675.007	-2.77
675.038	-6.77
675.069	-8.77
675.1	-5.77
675.131	-6.77
675.162	-17.77
675.193	-8.77
675.224	-10.77
675.254	-6.77
675.285	1.23
675.316	20.23
675.347	2.23
675.378	-9.77
675.409	-14.77
675.44	8.23
675.471	1.23
675.502	-3.77
675.533	16.23
675.564	3.23
675.595	-4.77
675.625	5.23
675.656	4.23
675.687	-1.77
675.718	1.23
675.749	16.23
675.78	5.23
675.811	9.23
675.842	4.23
675.873	9.23
675.903	1.23
675.934	2.23
675.965	-1.77
675.996	-0.77
676.027	1.23
676.058	-5.77
676.089	-1.77
676.119	-11.77
676.15	-13.77
676.181	-4.77
676.212	-1.77
676.243	-0.77
676.274	-17.77
676.304	7.23
676.335	2.23
676.366	-1.77
676.397	1.23
676.428	-0.77
676.459	6.23
676.489	8.23
676.52	9.23
676.551	-1.77
676.582	-15.77
676.613	-1.77
676.643	13.23
676.674	6.23
676.705	-14.77
676.736	-4.77
676.767	16.23
676.797	18.23
676.828	7.23
676.859	3.23
676.89	9.23
676.92	12.23
676.951	24.23
676.982	2.23
677.013	2.23
677.044	11.23
677.074	6.23
677.105	-4.77
677.136	1.23
677.167	-8.77
677.197	-2.77
677.228	-7.77
677.259	-9.77
677.289	5.23
677.32	-1.77
677.351	-14.77
677.382	-5.77
677.412	-9.77
677.443	-12.77
677.474	-12.77
677.505	-12.77
677.535	7.23
677.566	-7.77
677.597	0.23
677.627	-10.77
677.658	-2.77
677.689	-2.77
677.72	3.23
677.75	-11.77
677.781	-3.77
677.812	5.23
677.842	-9.77
677.873	13.23
677.904	2.23
677.934	-9.77
677.965	5.23
677.996	-11.77
678.026	1.23
678.057	11.23
678.088	-9.77
678.118	-0.77
678.149	-5.77
678.18	-9.77
678.21	-6.77
678.241	-4.77
678.272	5.23
678.302	21.23
678.333	21.23
678.363	16.23
678.394	15.23
678.425	4.23
678.455	4.23
678.486	-1.77
678.517	-4.77
678.547	-10.77
678.578	-10.77
678.608	-6.77
678.639	-1.77
678.67	-25.77
678.7	-7.77
678.731	-13.77
678.761	12.23
678.792	-0.77
678.823	11.23
678.853	19.23
678.884	-1.77
678.914	9.23
678.945	-0.77
678.975	4.23
679.006	3.23
679.037	-3.77
679.067	11.23
679.098	11.23
679.128	-12.77
679.159	-12.77
679.189	19.23
679.22	5.23
679.25	7.23
679.281	-1.77
679.312	0.23
679.342	15.23
679.373	23.23
679.403	-10.77
679.434	15.23
679.464	-17.77
679.495	-9.77
679.525	1.23
679.556	-5.77
679.586	15.23
679.617	10.23
679.647	3.23
679.678	-10.77
679.708	1.23
679.739	-0.77
679.769	-2.77
679.8	11.23
679.83	13.23
679.861	0.23
679.891	-8.77
679.922	-4.77
679.952	11.23
679.983	4.23
680.013	15.23
680.044	-11.77
680.074	7.23
680.105	14.23
680.135	27.23
680.165	16.23
680.196	11.23
680.226	-5.77
680.257	5.23
680.287	2.23
680.318	2.23
680.348	-11.77
680.379	18.23
680.409	17.23
680.439	-7.77
680.47	8.23
680.5	-1.77
680.531	-2.77
680.561	0.23
680.592	-0.77
680.622	10.23
680.652	7.23
680.683	2.23
680.713	1.23
680.744	-9.77
680.774	-5.77
680.804	27.23
680.835	7.23
680.865	-7.77
680.896	15.23
680.926	11.23
680.956	0.23
680.987	1.23
681.017	2.23
681.047	6.23
681.078	-2.77
681.108	15.23
681.139	2.23
681.169	2.23
681.199	7.23
681.23	11.23
681.26	3.23
681.29	13.23
681.321	3.23
681.351	-4.77
681.381	-13.77
681.412	6.23
681.442	5.23
681.472	23.23
681.503	14.23
681.533	15.23
681.563	2.23
681.594	9.23
681.624	-5.77
681.654	4.23
681.685	5.23
681.715	10.23
681.745	7.23
681.775	9.23
681.806	0.23
681.836	7.23
681.866	-3.77
681.897	10.23
681.927	-3.77
681.957	-22.77
681.987	-3.77
682.018	0.23
682.048	1.23
682.078	1.23
682.109	8.23
682.139	10.23
682.169	2.23
682.199	-5.77
682.23	0.23
682.26	-3.77
682.29	4.23
682.32	-0.77
682.351	-3.77
682.381	0.23
682.411	-0.77
682.441	-7.77
682.472	-10.77
682.502	-0.77
682.532	-14.77
682.562	7.23
682.592	7.23
682.623	13.23
682.653	-0.77
682.683	-3.77
682.713	-3.77
682.743	-11.77
682.774	2.23
682.804	1.23
682.834	10.23
682.864	-0.77
682.894	-9.77
682.925	-2.77
682.955	3.23
682.985	-7.77
683.015	7.23
683.045	3.23
683.076	-15.77
683.106	-2.77
683.136	-0.77
683.166	1.23
683.196	-7.77
683.226	0.23
683.257	-6.77
683.287	-11.77
683.317	0.23
683.347	-3.77
683.377	-1.77
683.407	6.23
683.437	13.23
683.468	10.23
683.498	-3.77
683.528	3.23
683.558	13.23
683.588	7.23
683.618	-2.77
683.648	-7.77
683.678	7.23
683.708	12.23
683.739	7.23
683.769	-4.77
683.799	9.23
683.829	11.23
683.859	5.23
683.889	13.23
683.919	-4.77
683.949	-3.77
683.979	-14.77
684.009	-3.77
684.039	-1.77
684.07	-3.77
684.1	23.23
684.13	3.23
684.16	-4.77
684.19	2.23
684.22	6.23
684.25	-0.77
684.28	-3.77
684.31	25.23
684.34	16.23
684.37	7.23
684.4	-4.77
684.43	2.23
684.46	-7.77
684.49	15.23
684.52	21.23
684.55	4.23
684.58	3.23
684.61	-0.77
684.64	-4.77
684.67	2.23
684.7	-5.77
684.73	15.23
684.76	4.23
684.79	19.23
684.82	7.23
684.85	-3.77
684.88	3.23
684.91	2.23
684.94	-2.77
684.97	-0.77
685	-5.77
685.03	2.23
685.06	-6.77
685.09	4.23
685.12	3.23
685.15	2.23
685.18	8.23
685.21	3.23
685.24	8.23
685.27	17.23
685.3	9.23
685.33	23.23
685.36	4.23
685.39	12.23
685.42	-7.77
685.45	10.23
685.48	5.23
685.51	-8.77
685.54	-0.77
685.569	9.23
685.599	9.23
685.629	-0.77
685.659	11.23
685.689	8.23
685.719	-10.77
685.749	-5.77
685.779	10.23
685.809	17.23
685.839	-7.77
685.869	3.23
685.898	2.23
685.928	-9.77
685.958	-4.77
685.988	5.23
686.018	0.23
686.048	-4.77
686.078	12.23
686.108	-2.77
686.137	13.23
686.167	23.23
686.197	3.23
686.227	-0.77
686.257	28.23
686.287	-0.77
686.317	20.23
686.346	0.23
686.376	-5.77
686.406	-13.77
686.436	19.23
686.466	-6.77
686.496	4.23
686.525	12.23
686.555	-4.77
686.585	6.23
686.615	12.23
686.645	-0.77
686.675	0.23
686.704	5.23
686.734	4.23
686.764	2.23
686.794	0.23
686.824	7.23
686.853	6.23
686.883	1.23
686.913	17.23
686.943	14.23
686.973	6.23
687.002	28.23
687.032	6.23
687.062	2.23
687.092	17.23
687.121	4.23
687.151	-2.77
687.181	2.23
687.211	13.23
687.24	-6.77
687.27	-8.77
687.3	-2.77
687.33	-5.77
687.359	-6.77
687.389	4.23
687.419	8.23
687.449	-0.77
687.478	6.23
687.508	3.23
687.538	7.23
687.568	7.23
687.597	3.23
687.627	11.23
687.657	6.23
687.686	13.23
687.716	26.23
687.746	-11.77
687.776	-19.77
687.805	10.23
687.835	4.23
687.865	19.23
687.894	21.23
687.924	-13.77
687.954	-1.77
687.983	7.23
688.013	16.23
688.043	22.23
688.072	-3.77
688.102	19.23
688.132	3.23
688.161	-12.77
688.191	2.23
688.221	28.23
688.25	4.23
688.28	-1.77
688.31	5.23
688.339	-5.77
688.369	-20.77
688.399	-2.77
688.428	4.23
688.458	9.23
688.488	0.23
688.517	30.23
688.547	16.23
688.576	41.23
688.606	23.23
688.636	-2.77
688.665	2.23
688.695	9.23
688.725	11.23
688.754	11.23
688.784	-3.77
688.813	13.23
688.843	-13.77
688.873	-6.77
688.902	1.23
688.932	-2.77
688.961	-0.77
688.991	6.23
689.02	8.23
689.05	9.23
689.08	7.23
689.109	10.23
689.139	4.23
689.168	9.23
689.198	15.23
689.227	17.23
689.257	6.23
689.287	15.23
689.316	-4.77
689.346	-2.77
689.375	-11.77
689.405	0.23
689.434	-1.77
689.464	12.23
689.493	6.23
689.523	-2.77
689.552	-11.77
689.582	9.23
689.611	4.23
689.641	13.23
689.67	11.23
689.7	16.23
689.73	21.23
689.759	18.23
689.789	25.23
689.818	11.23
689.848	3.23
689.877	4.23
689.906	2.23
689.936	-3.77
689.965	28.23
689.995	8.23
690.024	24.23
690.054	12.23
690.083	17.23
690.113	9.23
690.142	-4.77
690.172	11.23
690.201	5.23
690.231	-7.77
690.26	4.23
690.29	-7.77
690.319	8.23
690.348	13.23
690.378	13.23
690.407	12.23
690.437	-1.77
690.466	-1.77
690.496	3.23
690.525	20.23
690.555	-15.77
690.584	2.23
690.613	6.23
690.643	11.23
690.672	7.23
690.702	8.23
690.731	17.23
690.76	40.23
690.79	53.23
690.819	39.23
690.849	49.23
690.878	29.23
690.907	27.23
690.937	39.23
690.966	33.23
690.996	20.23
691.025	1.23
691.054	7.23
691.084	1.23
691.113	8.23
691.142	18.23
691.172	13.23
691.201	31.23
691.23	7.23
691.26	21.23
691.289	5.23
691.319	12.23
691.348	8.23
691.377	21.23
691.407	20.23
691.436	19.23
691.465	3.23
691.495	-5.77
691.524	-7.77
691.553	0.23
691.583	-19.77
691.612	25.23
691.641	14.23
691.67	-11.77
691.7	7.23
691.729	-2.77
691.758	15.23
691.788	0.23
691.817	-0.77
691.846	-5.77
691.876	0.23
691.905	10.23
691.934	5.23
691.963	22.23
691.993	12.23
692.022	-13.77
692.051	-11.77
692.081	5.23
692.11	10.23
692.139	9.23
692.168	10.23
692.198	29.23
692.227	1.23
692.256	9.23
692.285	0.23
692.315	-1.77
692.344	-3.77
692.373	5.23
692.402	-19.77
692.432	3.23
692.461	9.23
692.49	7.23
692.519	-3.77
692.548	17.23
692.578	10.23
692.607	-4.77
692.636	-10.77
692.665	13.23
692.694	5.23
692.724	-3.77
692.753	9.23
692.782	11.23
692.811	-5.77
692.84	-1.77
692.87	0.23
692.899	1.23
692.928	6.23
692.957	22.23
692.986	-1.77
693.016	2.23
693.045	12.23
693.074	10.23
693.103	-3.77
693.132	13.23
693.161	9.23
693.191	17.23
693.22	-1.77
693.249	16.23
693.278	11.23
693.307	13.23
693.336	3.23
693.365	-13.77
693.395	1.23
693.424	7.23
693.453	20.23
693.482	11.23
693.511	16.23
693.54	21.23
693.569	7.23
693.598	1.23
693.628	16.23
693.657	17.23
693.686	22.23
693.715	11.23
693.744	17.23
693.773	23.23
693.802	-0.77
693.831	-1.77
693.86	26.23
693.889	-9.77
693.919	4.23
693.948	-1.77
693.977	11.23
694.006	1.23
694.035	21.23
694.064	2.23
694.093	-0.77
694.122	7.23
694.151	-4.77
694.18	18.23
694.209	34.23
694.238	16.23
694.267	22.23
694.296	14.23
694.325	23.23
694.354	27.23
694.383	16.23
694.412	7.23
694.441	6.23
694.471	4.23
694.5	-4.77
694.529	11.23
694.558	30.23
694.587	38.23
694.616	13.23
694.645	3.23
694.674	9.23
694.703	19.23
694.732	6.23
694.761	14.23
694.79	26.23
694.819	-13.77
694.848	2.23
694.877	31.23
694.906	41.23
694.935	5.23
694.963	28.23
694.992	10.23
695.021	20.23
695.05	15.23
695.079	-13.77
695.108	7.23
695.137	14.23
695.166	3.23
695.195	5.23
695.224	21.23
695.253	12.23
695.282	14.23
695.311	7.23
695.34	2.23
695.369	13.23
695.398	19.23
695.427	37.23
695.456	23.23
695.485	21.23
695.513	4.23
695.542	13.23
695.571	9.23
695.6	19.23
695.629	23.23
695.658	14.23
695.687	3.23
695.716	3.23
695.745	12.23
695.774	-15.77
695.802	3.23
695.831	3.23
695.86	6.23
695.889	6.23
695.918	18.23
695.947	7.23
695.976	-6.77
696.005	15.23
696.033	5.23
696.062	27.23
696.091	13.23
696.12	13.23
696.149	31.23
696.178	7.23
696.207	16.23
696.235	2.23
696.264	9.23
696.293	1.23
696.322	-11.77
696.351	15.23
696.38	5.23
696.408	11.23
696.437	-0.77
696.466	-4.77
696.495	15.23
696.524	22.23
696.553	20.23
696.581	31.23
696.61	-0.77
696.639	-2.77
696.668	12.23
696.697	-1.77
696.725	23.23
696.754	-1.77
696.783	-2.77
696.812	3.23
696.84	2.23
696.869	21.23
696.898	1.23
696.927	15.23
696.956	16.23
696.984	-12.77
697.013	-3.77
697.042	4.23
697.071	27.23
697.099	17.23
697.128	15.23
697.157	10.23
697.186	2.23
697.214	-1.77
697.243	4.23
697.272	4.23
697.301	14.23
697.329	-7.77
697.358	11.23
697.387	20.23
697.415	14.23
697.444	5.23
697.473	14.23
697.502	3.23
697.53	9.23
697.559	1.23
697.588	2.23
697.616	-8.77
697.645	28.23
697.674	30.23
697.703	1.23
697.731	20.23
697.76	16.23
697.789	-0.77
697.817	8.23
697.846	23.23
697.875	5.23
697.903	25.23
697.932	25.23
697.961	7.23
697.989	19.23
698.018	19.23
698.047	11.23
698.075	14.23
698.104	-3.77
698.133	2.23
698.161	10.23
698.19	-0.77
698.218	8.23
698.247	10.23
698.276	0.23
698.304	10.23
698.333	3.23
698.362	13.23
698.39	8.23
698.419	-6.77
698.447	-13.77
698.476	2.23
698.505	11.23
698.533	4.23
698.562	5.23
698.591	-4.77
698.619	6.23
698.648	5.23
698.676	4.23
698.705	-0.77
698.733	3.23
698.762	1.23
698.791	-7.77
698.819	-0.77
698.848	4.23
698.876	18.23
698.905	10.23
698.933	6.23
698.962	11.23
698.991	0.23
699.019	21.23
699.048	13.23
699.076	-8.77
699.105	-15.77
699.133	13.23
699.162	18.23
699.19	16.23
699.219	3.23
699.248	15.23
699.276	16.23
699.305	7.23
699.333	7.23
699.362	-0.77
699.39	16.23
699.419	-0.77
699.447	10.23
699.476	8.23
699.504	-10.77
699.533	7.23
699.561	-4.77
699.59	13.23
699.618	11.23
699.647	7.23
699.675	16.23
699.704	2.23
699.732	2.23
699.761	11.23
699.789	-0.77
699.818	6.23
699.846	-5.77
699.874	12.23
699.903	9.23
699.931	4.23
699.96	2.23
699.988	-2.77
700.017	1.23
700.045	17.23
700.074	19.23
700.102	3.23
700.13	-24.77
700.159	8.23
700.187	-1.77
700.216	6.23
700.244	0.23
700.273	-1.77
700.301	2.23
700.329	10.23
700.358	7.23
700.386	-11.77
700.415	-1.77
700.443	11.23
700.472	0.23
700.5	10.23
700.528	12.23
700.557	2.23
700.585	-10.77
700.614	-7.77
700.642	12.23
700.67	11.23
700.699	14.23
700.727	-3.77
700.755	-6.77
700.784	7.23
700.812	-1.77
700.841	15.23
700.869	-8.77
700.897	-13.77
700.926	-16.77
700.954	20.23
700.982	8.23
701.011	-11.77
701.039	-0.77
701.067	-0.77
701.096	1.23
701.124	-16.77
701.152	-3.77
701.181	4.23
701.209	-8.77
701.237	13.23
701.266	-12.77
701.294	0.23
701.322	15.23
701.351	12.23
701.379	11.23
701.407	6.23
701.435	7.23
701.464	5.23
701.492	12.23
701.52	3.23
701.549	-6.77
701.577	9.23
701.605	-3.77
701.634	16.23
701.662	18.23
701.69	7.23
701.718	0.23
701.747	9.23
701.775	10.23
701.803	-6.77
701.831	19.23
701.86	8.23
701.888	-5.77
701.916	3.23
701.944	5.23
701.973	16.23
702.001	-8.77
702.029	-4.77
702.057	-8.77
702.086	-5.77
702.114	-8.77
702.142	-2.77
702.17	4.23
702.199	4.23
702.227	9.23
702.255	-5.77
702.283	-4.77
702.311	17.23
702.34	6.23
702.368	4.23
702.396	0.23
702.424	-0.77
702.452	9.23
702.481	9.23
702.509	12.23
702.537	3.23
702.565	4.23
702.593	-3.77
702.621	19.23
702.65	28.23
702.678	-2.77
702.706	7.23
702.734	-7.77
702.762	0.23
702.79	21.23
702.819	20.23
702.847	5.23
702.875	10.23
702.903	1.23
702.931	11.23
702.959	3.23
702.988	-6.77
703.016	-7.77
703.044	-4.77
703.072	3.23
703.1	-5.77
703.128	-0.77
703.156	8.23
703.184	-4.77
703.212	12.23
703.241	3.23
703.269	15.23
703.297	-3.77
703.325	-2.77
703.353	-17.77
703.381	-8.77
703.409	7.23
703.437	2.23
703.465	13.23
703.493	-16.77
703.522	12.23
703.55	19.23
703.578	-3.77
703.606	-1.77
703.634	-6.77
703.662	-5.77
703.69	-4.77
703.718	1.23
703.746	15.23
703.774	5.23
703.802	7.23
703.83	3.23
703.858	-2.77
703.886	-14.77
703.914	2.23
703.942	3.23
703.97	-2.77
703.998	1.23
704.027	5.23
704.055	9.23
704.083	0.23
704.111	-9.77
704.139	-9.77
704.167	9.23
704.195	-6.77
704.223	-3.77
704.251	0.23
704.279	13.23
704.307	15.23
704.335	-9.77
704.363	16.23
704.391	2.23
704.419	-0.77
704.447	-9.77
704.475	-5.77
704.503	-7.77
704.531	11.23
704.558	10.23
704.586	7.23
704.614	-10.77
704.642	-0.77
704.67	-8.77
704.698	-5.77
704.726	10.23
704.754	4.23
704.782	-4.77
704.81	9.23
704.838	8.23
704.866	22.23
704.894	-17.77
704.922	-6.77
704.95	13.23
704.978	21.23
705.006	9.23
705.034	24.23
705.061	-1.77
705.089	2.23
705.117	9.23
705.145	-0.77
705.173	2.23
705.201	8.23
705.229	13.23
705.257	9.23
705.285	20.23
705.313	23.23
705.34	12.23
705.368	14.23
705.396	-3.77
705.424	-0.77
705.452	-5.77
705.48	6.23
705.508	-6.77
705.536	1.23
705.563	-2.77
705.591	-3.77
705.619	13.23
705.647	-13.77
705.675	0.23
705.703	13.23
705.731	6.23
705.758	17.23
705.786	7.23
705.814	17.23
705.842	4.23
705.87	16.23
705.898	15.23
705.925	-11.77
705.953	7.23
705.981	-16.77
706.009	3.23
706.037	7.23
706.065	11.23
706.092	0.23
706.12	11.23
706.148	-10.77
706.176	-7.77
706.204	10.23
706.231	5.23
706.259	2.23
706.287	-3.77
706.315	-2.77
706.342	0.23
706.37	20.23
706.398	1.23
706.426	7.23
706.454	1.23
706.481	10.23
706.509	16.23
706.537	-8.77
706.565	-4.77
706.592	20.23
706.62	-0.77
706.648	6.23
706.676	-7.77
706.703	-1.77
706.731	4.23
706.759	-12.77
706.787	6.23
706.814	7.23
706.842	8.23
706.87	12.23
706.897	-0.77
706.925	-0.77
706.953	-4.77
706.981	11.23
707.008	16.23
707.036	10.23
707.064	-2.77
707.091	-5.77
707.119	16.23
707.147	7.23
707.174	18.23
707.202	22.23
707.23	-0.77
707.258	2.23
707.285	-26.77
707.313	-12.77
707.341	-14.77
707.368	-10.77
707.396	-0.77
707.424	18.23
707.451	6.23
707.479	-3.77
707.507	-13.77
707.534	12.23
707.562	2.23
707.59	-7.77
707.617	-2.77
707.645	10.23
707.672	-1.77
707.7	13.23
707.728	-4.77
707.755	6.23
707.783	-5.77
707.811	1.23
707.838	-6.77
707.866	11.23
707.893	-12.77
707.921	2.23
707.949	-7.77
707.976	0.23
708.004	4.23
708.031	2.23
708.059	-21.77
708.087	2.23
708.114	-5.77
708.142	-3.77
708.169	-1.77
708.197	-7.77
708.225	18.23
708.252	12.23
708.28	18.23
708.307	8.23
708.335	16.23
708.362	-16.77
708.39	-3.77
708.418	-8.77
708.445	-11.77
708.473	-12.77
708.5	6.23
708.528	14.23
708.555	-15.77
708.583	-1.77
708.61	-5.77
708.638	4.23
708.665	-9.77
708.693	1.23
708.72	-12.77
708.748	-13.77
708.776	-7.77
708.803	13.23
708.831	0.23
708.858	20.23
708.886	4.23
708.913	-4.77
708.941	0.23
708.968	24.23
708.996	-1.77
709.023	30.23
709.051	-4.77
709.078	-1.77
709.105	-5.77
709.133	-7.77
709.16	14.23
709.188	7.23
709.215	4.23
709.243	11.23
709.27	-17.77
709.298	2.23
709.325	2.23
709.353	-3.77
709.38	-2.77
709.408	-6.77
709.435	-5.77
709.462	3.23
709.49	1.23
709.517	-14.77
709.545	-2.77
709.572	-2.77
709.6	-0.77
709.627	2.23
709.655	-10.77
709.682	-3.77
709.709	7.23
709.737	9.23
709.764	-6.77
709.792	7.23
709.819	-1.77
709.846	-0.77
709.874	1.23
709.901	5.23
709.929	21.23
709.956	16.23
709.983	-10.77
710.011	4.23
710.038	-1.77
710.066	6.23
710.093	5.23
710.12	7.23
710.148	-9.77
710.175	-17.77
710.202	-15.77
710.23	10.23
710.257	9.23
710.284	11.23
710.312	5.23
710.339	5.23
710.366	13.23
710.394	-3.77
710.421	-1.77
710.448	7.23
710.476	-8.77
710.503	6.23
710.53	15.23
710.558	10.23
710.585	8.23
710.612	-0.77
710.64	16.23
710.667	-0.77
710.694	0.23
710.722	-4.77
710.749	2.23
710.776	-0.77
710.804	3.23
710.831	6.23
710.858	-1.77
710.885	10.23
710.913	13.23
710.94	13.23
710.967	4.23
710.995	7.23
711.022	-0.77
711.049	3.23
711.076	8.23
711.104	7.23
711.131	-18.77
711.158	-8.77
711.185	7.23
711.213	-11.77
711.24	3.23
711.267	-5.77
711.294	-2.77
711.322	32.23
711.349	4.23
711.376	3.23
711.403	5.23
711.431	-8.77
711.458	-1.77
711.485	-4.77
711.512	3.23
711.54	2.23
711.567	6.23
711.594	-4.77
711.621	-0.77
711.648	26.23
711.676	12.23
711.703	6.23
711.73	-14.77
711.757	5.23
711.784	-6.77
711.812	-11.77
711.839	3.23
711.866	-3.77
711.893	-12.77
711.92	12.23
711.947	18.23
711.975	15.23
712.002	-0.77
712.029	16.23
712.056	15.23
712.083	18.23
712.11	-4.77
712.138	0.23
712.165	1.23
712.192	10.23
712.219	-1.77
712.246	-2.77
712.273	-1.77
712.3	-1.77
712.328	11.23
712.355	7.23
712.382	-6.77
712.409	12.23
712.436	-6.77
712.463	15.23
712.49	18.23
712.517	3.23
712.544	-5.77
712.572	-5.77
712.599	-9.77
712.626	8.23
712.653	-3.77
712.68	-9.77
712.707	-0.77
712.734	3.23
712.761	-0.77
712.788	10.23
712.815	10.23
712.842	25.23
712.87	-12.77
712.897	1.23
712.924	-3.77
712.951	6.23
712.978	7.23
713.005	1.23
713.032	3.23
713.059	5.23
713.086	-0.77
713.113	7.23
713.14	0.23
713.167	-0.77
713.194	13.23
713.221	6.23
713.248	8.23
713.275	-2.77
713.302	-0.77
713.329	-6.77
713.356	2.23
713.383	6.23
713.41	17.23
713.437	-3.77
713.464	-8.77
713.491	8.23
713.518	11.23
713.545	-7.77
713.572	-21.77
713.599	18.23
713.626	4.23
713.653	12.23
713.68	2.23
713.707	4.23
713.734	7.23
713.761	-6.77
713.788	-8.77
713.815	-0.77
713.842	-2.77
713.869	-18.77
713.896	-10.77
713.923	-6.77
713.95	-2.77
713.977	-9.77
714.004	-5.77
714.031	3.23
714.058	11.23
714.085	0.23
714.112	6.23
714.139	2.23
714.165	8.23
714.192	-6.77
714.219	2.23
714.246	-2.77
714.273	-5.77
714.3	-3.77
714.327	-4.77
714.354	7.23
714.381	-3.77
714.408	5.23
714.435	9.23
714.461	10.23
714.488	7.23
714.515	-1.77
714.542	7.23
714.569	-1.77
714.596	-5.77
714.623	-17.77
714.65	-9.77
714.677	22.23
714.703	1.23
714.73	5.23
714.757	2.23
714.784	2.23
714.811	-16.77
714.838	-4.77
714.865	-11.77
714.891	7.23
714.918	-9.77
714.945	-12.77
714.972	-15.77
714.999	11.23
715.026	-0.77
715.052	27.23
715.079	2.23
715.106	0.23
715.133	13.23
715.16	-8.77
715.187	5.23
715.213	1.23
715.24	8.23
715.267	-9.77
715.294	-8.77
715.321	-7.77
715.347	-4.77
715.374	-11.77
715.401	0.23
715.428	14.23
715.455	4.23
715.481	-16.77
715.508	1.23
715.535	4.23
715.562	9.23
715.588	10.23
715.615	-1.77
715.642	2.23
715.669	-0.77
715.695	2.23
715.722	8.23
715.749	0.23
715.776	17.23
715.802	-7.77
715.829	-7.77
715.856	-27.77
715.883	12.23
715.909	-11.77
715.936	-0.77
715.963	14.23
715.99	0.23
716.016	-10.77
716.043	-9.77
716.07	-8.77
716.096	-3.77
716.123	-4.77
716.15	9.23
716.177	7.23
716.203	23.23
716.23	14.23
716.257	0.23
716.283	10.23
716.31	17.23
716.337	6.23
716.363	-4.77
716.39	1.23
716.417	6.23
716.443	16.23
716.47	6.23
716.497	15.23
716.523	24.23
716.55	-0.77
716.577	14.23
716.603	18.23
716.63	-5.77
716.657	18.23
716.683	-7.77
716.71	-5.77
716.737	-3.77
716.763	12.23
716.79	15.23
716.817	12.23
716.843	14.23
716.87	-1.77
716.897	16.23
716.923	28.23
716.95	-6.77
716.976	-16.77
717.003	6.23
717.03	10.23
717.056	17.23
717.083	5.23
717.109	-2.77
717.136	12.23
717.163	2.23
717.189	3.23
717.216	-5.77
717.242	0.23
717.269	-3.77
717.296	-5.77
717.322	5.23
717.349	12.23
717.375	-9.77
717.402	-7.77
717.428	-5.77
717.455	-1.77
717.481	4.23
717.508	13.23
717.535	23.23
717.561	-0.77
717.588	-7.77
717.614	-1.77
717.641	-1.77
717.667	12.23
717.694	4.23
717.72	1.23
717.747	-0.77
717.773	-7.77
717.8	8.23
717.826	4.23
717.853	10.23
717.88	13.23
717.906	-5.77
717.933	4.23
717.959	20.23
717.986	1.23
718.012	3.23
718.039	3.23
718.065	21.23
718.092	2.23
718.118	-8.77
718.144	-15.77
718.171	10.23
718.197	12.23
718.224	0.23
718.25	12.23
718.277	1.23
718.303	4.23
718.33	-4.77
718.356	-6.77
718.383	-3.77
718.409	10.23
718.436	-2.77
718.462	-0.77
718.489	-10.77
718.515	11.23
718.541	30.23
718.568	-0.77
718.594	10.23
718.621	2.23
718.647	-2.77
718.674	21.23
718.7	-4.77
718.726	-1.77
718.753	12.23
718.779	8.23
718.806	0.23
718.832	-4.77
718.858	5.23
718.885	2.23
718.911	8.23
718.938	7.23
718.964	-6.77
718.99	13.23
719.017	6.23
719.043	18.23
719.07	9.23
719.096	0.23
719.122	17.23
719.149	3.23
719.175	-1.77
719.201	3.23
719.228	5.23
719.254	6.23
719.281	-4.77
719.307	0.23
719.333	-10.77
719.36	15.23
719.386	7.23
719.412	10.23
719.439	-11.77
719.465	-9.77
719.491	-4.77
719.518	12.23
719.544	7.23
719.57	17.23
719.597	21.23
719.623	-11.77
719.649	-8.77
719.675	-6.77
719.702	3.23
719.728	2.23
719.754	-6.77
719.781	4.23
719.807	7.23
719.833	-4.77
719.86	2.23
719.886	-2.77
719.912	1.23
719.938	-9.77
719.965	0.23
719.991	18.23
720.017	4.23
720.044	5.23
720.07	11.23
720.096	-3.77
720.122	-15.77
720.149	2.23
720.175	39.23
720.201	6.23
720.227	-7.77
720.254	-11.77
720.28	2.23
720.306	-14.77
720.332	-4.77
720.359	11.23
720.385	8.23
720.411	11.23
720.437	6.23
720.463	-3.77
720.49	7.23
720.516	3.23
720.542	-7.77
720.568	-4.77
720.595	10.23
720.621	2.23
720.647	-4.77
720.673	8.23
720.699	-1.77
720.725	-6.77
720.752	6.23
720.778	15.23
720.804	3.23
720.83	7.23
720.856	-6.77
720.883	-0.77
720.909	-4.77
720.935	6.23
720.961	10.23
720.987	-0.77
721.013	7.23
721.04	-8.77
721.066	1.23
721.092	0.23
721.118	17.23
721.144	13.23
721.17	0.23
721.196	6.23
721.223	14.23
721.249	-5.77
721.275	22.23
721.301	15.23
721.327	19.23
721.353	10.23
721.379	0.23
721.405	-1.77
721.432	6.23
721.458	-5.77
721.484	-7.77
721.51	-8.77
721.536	2.23
721.562	2.23
721.588	2.23
721.614	7.23
721.64	-12.77
721.666	-12.77
721.693	3.23
721.719	-5.77
721.745	9.23
721.771	-1.77
721.797	2.23
721.823	10.23
721.849	6.23
721.875	20.23
721.901	7.23
721.927	6.23
721.953	7.23
721.979	0.23
722.005	6.23
722.031	6.23
722.057	8.23
722.083	2.23
722.109	-0.77
722.135	8.23
722.161	3.23
722.187	-1.77
722.214	0.23
722.24	11.23
722.266	-2.77
722.292	7.23
722.318	18.23
722.344	2.23
722.37	6.23
722.396	-2.77
722.422	0.23
722.448	-1.77
722.474	-23.77
722.5	11.23
722.526	8.23
722.552	0.23
722.578	-1.77
722.603	8.23
722.629	-12.77
722.655	-12.77
722.681	-13.77
722.707	1.23
722.733	-4.77
722.759	-2.77
722.785	2.23
722.811	4.23
722.837	7.23
722.863	-0.77
722.889	-3.77
722.915	5.23
722.941	-6.77
722.967	-5.77
722.993	5.23
723.019	6.23
723.045	20.23
723.071	4.23
723.097	4.23
723.122	-4.77
723.148	-5.77
723.174	7.23
723.2	3.23
723.226	-14.77
723.252	6.23
723.278	-0.77
723.304	-6.77
723.33	-3.77
723.356	-4.77
723.381	-12.77
723.407	-1.77
723.433	17.23
723.459	0.23
723.485	-5.77
723.511	-4.77
723.537	2.23
723.563	2.23
723.588	5.23
723.614	11.23
723.64	-1.77
723.666	3.23
723.692	11.23
723.718	0.23
723.744	-9.77
723.769	1.23
723.795	-1.77
723.821	3.23
723.847	6.23
723.873	19.23
723.899	-0.77
723.924	2.23
723.95	-15.77
723.976	-17.77
724.002	21.23
724.028	1.23
724.053	3.23
724.079	-6.77
724.105	3.23
724.131	0.23
724.157	19.23
724.182	11.23
724.208	1.23
724.234	8.23
724.26	12.23
724.286	14.23
724.311	2.23
724.337	-1.77
724.363	-7.77
724.389	16.23
724.415	14.23
724.44	23.23
724.466	-3.77
724.492	2.23
724.518	11.23
724.543	-4.77
724.569	-2.77
724.595	10.23
724.621	0.23
724.646	7.23
724.672	8.23
724.698	-4.77
724.723	2.23
724.749	13.23
724.775	21.23
724.801	14.23
724.826	-3.77
724.852	12.23
724.878	-3.77
724.904	-14.77
724.929	8.23
724.955	-17.77
724.981	8.23
725.006	7.23
725.032	0.23
725.058	0.23
725.083	-4.77
725.109	-0.77
725.135	21.23
725.161	9.23
725.186	-6.77
725.212	-1.77
725.238	16.23
725.263	9.23
725.289	-7.77
725.315	-10.77
725.34	8.23
725.366	18.23
725.392	12.23
725.417	7.23
725.443	-1.77
725.468	6.23
725.494	9.23
725.52	13.23
725.545	10.23
725.571	-0.77
725.597	12.23
725.622	1.23
725.648	8.23
725.674	3.23
725.699	12.23
725.725	-9.77
725.75	23.23
725.776	-3.77
725.802	-7.77
725.827	-2.77
725.853	1.23
725.878	2.23
725.904	6.23
725.93	2.23
725.955	-6.77
725.981	-1.77
726.006	-7.77
726.032	12.23
726.057	-4.77
726.083	2.23
726.109	-5.77
726.134	13.23
726.16	1.23
726.185	-4.77
726.211	0.23
726.236	1.23
726.262	20.23
726.288	15.23
726.313	23.23
726.339	2.23
726.364	3.23
726.39	22.23
726.415	4.23
726.441	-2.77
726.466	-2.77
726.492	2.23
726.517	3.23
726.543	2.23
726.568	4.23
726.594	-3.77
726.619	2.23
726.645	6.23
726.67	-0.77
726.696	4.23
726.721	9.23
726.747	-0.77
726.772	9.23
726.798	7.23
726.823	3.23
726.849	-9.77
726.874	-7.77
726.9	9.23
726.925	-3.77
726.951	1.23
726.976	25.23
727.002	10.23
727.027	4.23
727.053	20.23
727.078	-3.77
727.104	5.23
727.129	-6.77
727.155	-3.77
727.18	15.23
727.205	-3.77
727.231	-0.77
727.256	7.23
727.282	-1.77
727.307	17.23
727.333	9.23
727.358	-8.77
727.383	4.23
727.409	-10.77
727.434	0.23
727.46	6.23
727.485	-7.77
727.511	6.23
727.536	-13.77
727.561	-0.77
727.587	3.23
727.612	-2.77
727.637	1.23
727.663	4.23
727.688	18.23
727.714	-11.77
727.739	-8.77
727.764	-1.77
727.79	2.23
727.815	6.23
727.841	11.23
727.866	10.23
727.891	11.23
727.917	-4.77
727.942	7.23
727.967	12.23
727.993	-7.77
728.018	-3.77
728.043	-0.77
728.069	10.23
728.094	19.23
728.119	5.23
728.145	17.23
728.17	7.23
728.195	-11.77
728.221	20.23
728.246	10.23
728.271	1.23
728.297	5.23
728.322	3.23
728.347	3.23
728.373	6.23
728.398	10.23
728.423	-1.77
728.448	6.23
728.474	2.23
728.499	-8.77
728.524	3.23
728.55	-6.77
728.575	-0.77
728.6	25.23
728.625	-0.77
728.651	17.23
728.676	-0.77
728.701	-0.77
728.727	-0.77
728.752	3.23
728.777	-8.77
728.802	-14.77
728.828	12.23
728.853	-3.77
728.878	-22.77
728.903	-14.77
728.929	-13.77
728.954	-0.77
728.979	1.23
729.004	7.23
729.03	-6.77
729.055	15.23
729.08	3.23
729.105	4.23
729.13	4.23
729.156	2.23
729.181	5.23
729.206	-15.77
729.231	-19.77
729.256	18.23
729.282	-3.77
729.307	-0.77
729.332	7.23
729.357	19.23
729.382	10.23
729.408	11.23
729.433	-3.77
729.458	2.23
729.483	9.23
729.508	31.23
729.533	3.23
729.559	14.23
729.584	3.23
729.609	2.23
729.634	-1.77
729.659	-4.77
729.684	-6.77
729.71	24.23
729.735	2.23
729.76	0.23
729.785	6.23
729.81	17.23
729.835	-6.77
729.86	2.23
729.886	17.23
729.911	18.23
729.936	-3.77
729.961	25.23
729.986	21.23
730.011	69.23
730.036	230.23
730.061	1017.23
730.086	2742.23
730.112	3407.23
730.137	2862.23
730.162	2135.23
730.187	1684.23
730.212	1283.23
730.237	805.23
730.262	455.23
730.287	246.23
730.312	153.23
730.337	55.23
730.362	65.23
730.387	26.23
730.413	23.23
730.438	25.23
730.463	12.23
730.488	11.23
730.513	15.23
730.538	7.23
730.563	37.23
730.588	25.23
730.613	10.23
730.638	-3.77
730.663	13.23
730.688	23.23
730.713	25.23
730.738	6.23
730.763	-1.77
730.788	-4.77
730.813	-1.77
730.838	3.23
730.863	7.23
730.888	-1.77
730.913	6.23
730.938	-10.77
730.963	24.23
730.988	110.23
731.013	416.23
731.038	639.23
731.063	614.23
731.088	467.23
731.113	355.23
731.138	267.23
731.163	199.23
731.188	119.23
731.213	59.23
731.238	47.23
731.263	9.23
731.288	6.23
731.313	33.23
731.338	12.23
731.363	2.23
731.388	11.23
731.413	0.23
731.438	19.23
731.463	17.23
731.487	-3.77
731.512	-9.77
731.537	-8.77
731.562	7.23
731.587	9.23
731.612	-16.77
731.637	-0.77
731.662	9.23
731.687	-1.77
731.712	-23.77
731.737	5.23
731.762	1.23
731.786	-11.77
731.811	21.23
731.836	-6.77
731.861	-3.77
731.886	5.23
731.911	3.23
731.936	9.23
731.961	3.23
731.986	-1.77
732.01	9.23
732.035	9.23
732.06	24.23
732.085	-5.77
732.11	5.23
732.135	1.23
732.16	2.23
732.184	-7.77
732.209	-6.77
732.234	3.23
732.259	0.23
732.284	8.23
732.309	-13.77
732.334	-2.77
732.358	-3.77
732.383	-0.77
732.408	8.23
732.433	-1.77
732.458	-6.77
732.482	10.23
732.507	-10.77
732.532	4.23
732.557	19.23
732.582	25.23
732.607	19.23
732.631	55.23
732.656	76.23
732.681	158.23
732.706	318.23
732.73	441.23
732.755	386.23
732.78	295.23
732.805	244.23
732.83	186.23
732.854	140.23
732.879	89.23
732.904	43.23
732.929	16.23
732.953	33.23
732.978	16.23
733.003	5.23
733.028	4.23
733.052	4.23
733.077	8.23
733.102	5.23
733.127	15.23
733.151	-3.77
733.176	10.23
733.201	4.23
733.226	1.23
733.25	10.23
733.275	21.23
733.3	7.23
733.324	24.23
733.349	3.23
733.374	4.23
733.399	2.23
733.423	-17.77
733.448	3.23
733.473	-0.77
733.497	-8.77
733.522	-7.77
733.547	8.23
733.571	7.23
733.596	1.23
733.621	12.23
733.646	7.23
733.67	0.23
733.695	-9.77
733.72	12.23
733.744	17.23
733.769	13.23
733.794	21.23
733.818	2.23
733.843	-6.77
733.867	11.23
733.892	-1.77
733.917	-6.77
733.941	-9.77
733.966	-21.77
733.991	-4.77
734.015	17.23
734.04	-1.77
734.065	6.23
734.089	23.23
734.114	10.23
734.138	5.23
734.163	11.23
734.188	13.23
734.212	5.23
734.237	10.23
734.261	-3.77
734.286	1.23
734.311	10.23
734.335	2.23
734.36	0.23
734.384	-14.77
734.409	5.23
734.434	4.23
734.458	11.23
734.483	-0.77
734.507	-1.77
734.532	-6.77
734.556	10.23
734.581	19.23
734.606	5.23
734.63	-4.77
734.655	-1.77
734.679	1.23
734.704	14.23
734.728	1.23
734.753	4.23
734.777	1.23
734.802	-14.77
734.826	3.23
734.851	9.23
734.876	18.23
734.9	13.23
734.925	16.23
734.949	11.23
734.974	11.23
734.998	12.23
735.023	-6.77
735.047	-16.77
735.072	3.23
735.096	0.23
735.121	4.23
735.145	-7.77
735.17	5.23
735.194	8.23
735.219	19.23
735.243	0.23
735.268	22.23
735.292	10.23
735.317	8.23
735.341	1.23
735.365	-16.77
735.39	30.23
735.414	13.23
735.439	9.23
735.463	5.23
735.488	-5.77
735.512	6.23
735.537	12.23
735.561	8.23
735.586	-5.77
735.61	-4.77
735.634	-1.77
735.659	11.23
735.683	11.23
735.708	-1.77
735.732	-2.77
735.757	10.23
735.781	6.23
735.805	28.23
735.83	-1.77
735.854	0.23
735.879	6.23
735.903	7.23
735.927	9.23
735.952	7.23
735.976	-6.77
736.001	-1.77
736.025	-8.77
736.049	8.23
736.074	4.23
736.098	3.23
736.123	14.23
736.147	1.23
736.171	2.23
736.196	7.23
736.22	-11.77
736.244	3.23
736.269	2.23
736.293	-4.77
736.317	-2.77
736.342	12.23
736.366	27.23
736.39	18.23
736.415	19.23
736.439	-0.77
736.463	19.23
736.488	-0.77
736.512	10.23
736.536	19.23
736.561	22.23
736.585	4.23
736.609	3.23
736.634	-3.77
736.658	-0.77
736.682	-9.77
736.707	-8.77
736.731	-17.77
736.755	8.23
736.78	31.23
736.804	15.23
736.828	11.23
736.852	-4.77
736.877	2.23
736.901	8.23
736.925	14.23
736.949	1.23
736.974	3.23
736.998	-5.77
737.022	-0.77
737.047	-3.77
737.071	13.23
737.095	12.23
737.119	21.23
737.144	11.23
737.168	-6.77
737.192	-4.77
737.216	4.23
737.241	12.23
737.265	2.23
737.289	11.23
737.313	-3.77
737.337	8.23
737.362	7.23
737.386	3.23
737.41	2.23
737.434	-6.77
737.459	11.23
737.483	6.23
737.507	19.23
737.531	12.23
737.555	14.23
737.58	5.23
737.604	10.23
737.628	-0.77
737.652	-3.77
737.676	-19.77
737.701	-0.77
737.725	6.23
737.749	4.23
737.773	-1.77
737.797	15.23
737.821	10.23
737.846	6.23
737.87	10.23
737.894	0.23
737.918	7.23
737.942	6.23
737.966	5.23
737.99	8.23
738.015	12.23
738.039	2.23
738.063	-8.77
738.087	23.23
738.111	11.23
738.135	26.23
738.159	0.23
738.184	2.23
738.208	8.23
738.232	-3.77
738.256	-5.77
738.28	6.23
738.304	19.23
738.328	3.23
738.352	19.23
738.376	9.23
738.4	-4.77
738.425	-5.77
738.449	12.23
738.473	18.23
738.497	21.23
738.521	9.23
738.545	16.23
738.569	7.23
738.593	16.23
738.617	13.23
738.641	5.23
738.665	4.23
738.689	6.23
738.713	8.23
738.737	-1.77
738.762	26.23
738.786	1.23
738.81	-13.77
738.834	0.23
738.858	4.23
738.882	5.23
738.906	0.23
738.93	12.23
738.954	7.23
738.978	10.23
739.002	1.23
739.026	-6.77
739.05	3.23
739.074	4.23
739.098	26.23
739.122	22.23
739.146	6.23
739.17	14.23
739.194	9.23
739.218	6.23
739.242	-9.77
739.266	7.23
739.29	8.23
739.314	19.23
739.338	4.23
739.362	-7.77
739.386	6.23
739.41	-7.77
739.434	-7.77
739.458	0.23
739.482	0.23
739.506	-3.77
739.53	0.23
739.554	13.23
739.577	9.23
739.601	2.23
739.625	-1.77
739.649	9.23
739.673	-7.77
739.697	4.23
739.721	-1.77
739.745	3.23
739.769	5.23
739.793	11.23
739.817	15.23
739.841	3.23
739.865	-0.77
739.889	0.23
739.912	6.23
739.936	-6.77
739.96	-13.77
739.984	8.23
740.008	-7.77
740.032	2.23
740.056	1.23
740.08	13.23
740.104	5.23
740.127	11.23
740.151	9.23
740.175	6.23
740.199	13.23
740.223	51.23
740.247	0.23
740.271	-8.77
740.295	0.23
740.318	-12.77
740.342	-6.77
740.366	3.23
740.39	7.23
740.414	4.23
740.438	-3.77
740.461	26.23
740.485	2.23
740.509	-1.77
740.533	12.23
740.557	-7.77
740.581	-5.77
740.604	-17.77
740.628	-3.77
740.652	8.23
740.676	8.23
740.7	22.23
740.723	23.23
740.747	-6.77
740.771	1.23
740.795	-5.77
740.819	16.23
740.842	3.23
740.866	14.23
740.89	1.23
740.914	5.23
740.938	-18.77
740.961	11.23
740.985	15.23
741.009	18.23
741.033	23.23
741.056	5.23
741.08	-1.77
741.104	-1.77
741.128	-3.77
741.151	15.23
741.175	1.23
741.199	1.23
741.223	17.23
741.246	-3.77
741.27	1.23
741.294	2.23
741.318	-1.77
741.341	6.23
741.365	-5.77
741.389	10.23
741.413	19.23
741.436	16.23
741.46	7.23
741.484	19.23
741.507	-1.77
741.531	29.23
741.555	9.23
741.579	0.23
741.602	10.23
741.626	2.23
741.65	4.23
741.673	9.23
741.697	7.23
741.721	7.23
741.744	-9.77
741.768	-3.77
741.792	10.23
741.815	-5.77
741.839	12.23
741.863	24.23
741.886	10.23
741.91	8.23
741.934	5.23
741.957	-2.77
741.981	14.23
742.005	15.23
742.028	-1.77
742.052	4.23
742.075	3.23
742.099	14.23
742.123	6.23
742.146	2.23
742.17	11.23
742.194	-0.77
742.217	2.23
742.241	-17.77
742.264	2.23
742.288	14.23
742.312	9.23
742.335	2.23
742.359	13.23
742.382	31.23
742.406	24.23
742.43	-3.77
742.453	6.23
742.477	-11.77
742.5	-8.77
742.524	-10.77
742.548	-0.77
742.571	6.23
742.595	19.23
742.618	3.23
742.642	6.23
742.665	27.23
742.689	18.23
742.712	8.23
742.736	-9.77
742.76	7.23
742.783	-6.77
742.807	5.23
742.83	16.23
742.854	-0.77
742.877	5.23
742.901	5.23
742.924	2.23
742.948	5.23
742.971	4.23
742.995	16.23
743.018	0.23
743.042	-1.77
743.065	-7.77
743.089	-3.77
743.112	0.23
743.136	-8.77
743.159	-5.77
743.183	-3.77
743.206	7.23
743.23	-4.77
743.253	-0.77
743.277	8.23
743.3	-3.77
743.324	-1.77
743.347	0.23
743.371	8.23
743.394	-10.77
743.418	28.23
743.441	6.23
743.465	-4.77
743.488	-6.77
743.512	-8.77
743.535	7.23
743.558	7.23
743.582	4.23
743.605	10.23
743.629	8.23
743.652	-1.77
743.676	8.23
743.699	19.23
743.723	3.23
743.746	16.23
743.769	0.23
743.793	1.23
743.816	-1.77
743.84	7.23
743.863	8.23
743.886	7.23
743.91	33.23
743.933	11.23
743.957	8.23
743.98	-0.77
744.003	12.23
744.027	4.23
744.05	5.23
744.074	14.23
744.097	-5.77
744.12	7.23
744.144	-5.77
744.167	15.23
744.19	-0.77
744.214	-8.77
744.237	0.23
744.26	10.23
744.284	0.23
744.307	-16.77
744.331	3.23
744.354	-14.77
744.377	4.23
744.401	8.23
744.424	1.23
744.447	7.23
744.471	-5.77
