Data from HighRes_mercury_15_13_11_07_2024_HR4C61891__25__15-14-25-686.txt Node

Date: Thu Nov 07 15:14:25 EST 2024
User: crc00042
Spectrometer: HR4C6189
Trigger mode: 4
Integration Time (sec): 1.000000E-1
Scans to average: 1
Electric dark correction enabled: true
Nonlinearity correction enabled: false
Boxcar width: 0
XAxis mode: Wavelengths
Number of Pixels in Spectrum: 3648
>>>>>Begin Spectral Data<<<<<
639.567	-62.38
639.602	-62.38
639.636	-62.38
639.67	-44.38
639.704	-27.38
639.738	-2.38
639.773	9.62
639.807	-9.38
639.841	1.62
639.875	25.62
639.909	-9.38
639.943	-19.38
639.978	-16.38
640.012	-3.38
640.046	26.62
640.08	12.62
640.114	-7.38
640.148	-8.38
640.182	9.62
640.217	-4.38
640.251	10.62
640.285	-7.38
640.319	-3.38
640.353	1.62
640.387	4.62
640.421	-3.38
640.455	5.62
640.49	-2.38
640.524	-2.38
640.558	11.62
640.592	0.62
640.626	9.62
640.66	-1.38
640.694	-16.38
640.728	3.62
640.762	2.62
640.796	26.62
640.83	19.62
640.865	14.62
640.899	10.62
640.933	-0.38
640.967	-4.38
641.001	9.62
641.035	1.62
641.069	-12.38
641.103	-16.38
641.137	3.62
641.171	-8.38
641.205	-4.38
641.239	-2.38
641.273	17.62
641.307	30.62
641.341	17.62
641.375	5.62
641.409	4.62
641.443	-1.38
641.477	9.62
641.511	3.62
641.545	3.62
641.579	4.62
641.614	4.62
641.648	5.62
641.682	-9.38
641.716	12.62
641.75	17.62
641.784	10.62
641.818	-5.38
641.852	-3.38
641.886	-5.38
641.919	31.62
641.953	-5.38
641.987	-3.38
642.021	0.62
642.055	30.62
642.089	7.62
642.123	1.62
642.157	3.62
642.191	-2.38
642.225	18.62
642.259	-4.38
642.293	16.62
642.327	-1.38
642.361	-10.38
642.395	9.62
642.429	6.62
642.463	26.62
642.497	34.62
642.531	8.62
642.565	-7.38
642.599	14.62
642.633	-2.38
642.666	14.62
642.7	15.62
642.734	7.62
642.768	-4.38
642.802	-29.38
642.836	3.62
642.87	3.62
642.904	7.62
642.938	4.62
642.972	-0.38
643.005	-10.38
643.039	10.62
643.073	1.62
643.107	7.62
643.141	-3.38
643.175	2.62
643.209	-0.38
643.243	-6.38
643.276	2.62
643.31	-9.38
643.344	4.62
643.378	11.62
643.412	6.62
643.446	-2.38
643.48	-7.38
643.513	8.62
643.547	0.62
643.581	13.62
643.615	17.62
643.649	19.62
643.683	5.62
643.716	-2.38
643.75	-6.38
643.784	-12.38
643.818	3.62
643.852	-0.38
643.886	0.62
643.919	12.62
643.953	1.62
643.987	-0.38
644.021	25.62
644.055	8.62
644.088	9.62
644.122	-0.38
644.156	-8.38
644.19	-6.38
644.224	-13.38
644.257	6.62
644.291	7.62
644.325	-12.38
644.359	-8.38
644.392	22.62
644.426	20.62
644.46	3.62
644.494	17.62
644.527	-7.38
644.561	8.62
644.595	2.62
644.629	-8.38
644.662	-1.38
644.696	12.62
644.73	6.62
644.764	3.62
644.797	-5.38
644.831	5.62
644.865	10.62
644.899	8.62
644.932	31.62
644.966	-9.38
645	2.62
645.033	21.62
645.067	3.62
645.101	3.62
645.135	-10.38
645.168	-0.38
645.202	-5.38
645.236	2.62
645.269	17.62
645.303	-3.38
645.337	-12.38
645.37	-12.38
645.404	13.62
645.438	2.62
645.471	-1.38
645.505	5.62
645.539	-7.38
645.572	-10.38
645.606	-4.38
645.64	-1.38
645.673	-2.38
645.707	24.62
645.741	-7.38
645.774	-5.38
645.808	2.62
645.842	-17.38
645.875	23.62
645.909	-4.38
645.943	-2.38
645.976	-7.38
646.01	3.62
646.043	6.62
646.077	11.62
646.111	19.62
646.144	43.62
646.178	18.62
646.212	-10.38
646.245	8.62
646.279	15.62
646.312	7.62
646.346	10.62
646.38	3.62
646.413	6.62
646.447	13.62
646.48	1.62
646.514	22.62
646.547	6.62
646.581	0.62
646.615	-7.38
646.648	5.62
646.682	-3.38
646.715	-3.38
646.749	14.62
646.782	-5.38
646.816	-4.38
646.85	-3.38
646.883	-4.38
646.917	10.62
646.95	13.62
646.984	20.62
647.017	6.62
647.051	-13.38
647.084	5.62
647.118	-6.38
647.151	-0.38
647.185	4.62
647.218	3.62
647.252	12.62
647.285	-12.38
647.319	-5.38
647.353	8.62
647.386	16.62
647.42	3.62
647.453	12.62
647.487	14.62
647.52	18.62
647.553	14.62
647.587	4.62
647.62	7.62
647.654	0.62
647.687	9.62
647.721	34.62
647.754	19.62
647.788	8.62
647.821	4.62
647.855	13.62
647.888	3.62
647.922	15.62
647.955	9.62
647.989	4.62
648.022	10.62
648.055	7.62
648.089	11.62
648.122	26.62
648.156	-3.38
648.189	10.62
648.223	27.62
648.256	16.62
648.29	13.62
648.323	0.62
648.356	18.62
648.39	-4.38
648.423	5.62
648.457	9.62
648.49	8.62
648.523	16.62
648.557	2.62
648.59	-12.38
648.624	-7.38
648.657	7.62
648.69	26.62
648.724	15.62
648.757	24.62
648.791	17.62
648.824	6.62
648.857	20.62
648.891	12.62
648.924	13.62
648.957	7.62
648.991	0.62
649.024	9.62
649.057	6.62
649.091	1.62
649.124	14.62
649.158	16.62
649.191	24.62
649.224	5.62
649.258	-3.38
649.291	11.62
649.324	8.62
649.358	19.62
649.391	8.62
649.424	5.62
649.458	-6.38
649.491	9.62
649.524	-16.38
649.557	-4.38
649.591	-13.38
649.624	13.62
649.657	5.62
649.691	-7.38
649.724	17.62
649.757	15.62
649.791	8.62
649.824	17.62
649.857	2.62
649.89	3.62
649.924	-6.38
649.957	1.62
649.99	-13.38
650.023	-3.38
650.057	3.62
650.09	10.62
650.123	7.62
650.157	19.62
650.19	18.62
650.223	0.62
650.256	-9.38
650.29	0.62
650.323	1.62
650.356	10.62
650.389	0.62
650.423	-7.38
650.456	7.62
650.489	-2.38
650.522	4.62
650.555	32.62
650.589	6.62
650.622	10.62
650.655	3.62
650.688	21.62
650.721	14.62
650.755	5.62
650.788	19.62
650.821	2.62
650.854	6.62
650.887	8.62
650.921	1.62
650.954	9.62
650.987	16.62
651.02	6.62
651.053	5.62
651.087	-3.38
651.12	-0.38
651.153	6.62
651.186	13.62
651.219	-3.38
651.252	10.62
651.286	-7.38
651.319	-11.38
651.352	8.62
651.385	7.62
651.418	3.62
651.451	20.62
651.484	22.62
651.518	-4.38
651.551	26.62
651.584	-6.38
651.617	14.62
651.65	9.62
651.683	24.62
651.716	-5.38
651.749	-4.38
651.783	3.62
651.816	-3.38
651.849	17.62
651.882	-6.38
651.915	-2.38
651.948	11.62
651.981	10.62
652.014	-16.38
652.047	-0.38
652.08	-11.38
652.114	-16.38
652.147	7.62
652.18	10.62
652.213	40.62
652.246	-13.38
652.279	-10.38
652.312	-2.38
652.345	-0.38
652.378	0.62
652.411	15.62
652.444	4.62
652.477	-8.38
652.51	-11.38
652.543	-12.38
652.576	-0.38
652.609	6.62
652.642	12.62
652.675	14.62
652.709	-3.38
652.742	7.62
652.775	12.62
652.808	12.62
652.841	5.62
652.874	-10.38
652.907	5.62
652.94	13.62
652.973	4.62
653.006	-0.38
653.039	-11.38
653.072	-10.38
653.105	1.62
653.138	-14.38
653.171	-15.38
653.204	-3.38
653.237	11.62
653.27	6.62
653.303	9.62
653.336	18.62
653.368	1.62
653.401	0.62
653.434	-15.38
653.467	8.62
653.5	-4.38
653.533	-9.38
653.566	-13.38
653.599	1.62
653.632	-1.38
653.665	9.62
653.698	-8.38
653.731	-2.38
653.764	7.62
653.797	-5.38
653.83	19.62
653.863	7.62
653.896	-14.38
653.929	18.62
653.961	14.62
653.994	2.62
654.027	0.62
654.06	3.62
654.093	4.62
654.126	3.62
654.159	-0.38
654.192	4.62
654.225	-1.38
654.258	-2.38
654.29	-13.38
654.323	4.62
654.356	-5.38
654.389	4.62
654.422	1.62
654.455	10.62
654.488	2.62
654.521	-10.38
654.553	-4.38
654.586	8.62
654.619	-5.38
654.652	-5.38
654.685	4.62
654.718	19.62
654.751	12.62
654.783	12.62
654.816	14.62
654.849	-4.38
654.882	-10.38
654.915	-20.38
654.948	-0.38
654.98	3.62
655.013	6.62
655.046	7.62
655.079	3.62
655.112	3.62
655.144	1.62
655.177	10.62
655.21	14.62
655.243	6.62
655.276	5.62
655.308	-2.38
655.341	-11.38
655.374	0.62
655.407	-13.38
655.44	6.62
655.472	35.62
655.505	-1.38
655.538	-19.38
655.571	-2.38
655.603	0.62
655.636	1.62
655.669	-0.38
655.702	-1.38
655.734	-15.38
655.767	-6.38
655.8	11.62
655.833	8.62
655.865	17.62
655.898	-4.38
655.931	-1.38
655.964	-3.38
655.996	-1.38
656.029	-2.38
656.062	2.62
656.095	3.62
656.127	-15.38
656.16	-13.38
656.193	4.62
656.225	-3.38
656.258	-6.38
656.291	6.62
656.324	8.62
656.356	16.62
656.389	-2.38
656.422	14.62
656.454	-7.38
656.487	-6.38
656.52	12.62
656.552	20.62
656.585	0.62
656.618	-1.38
656.65	11.62
656.683	-0.38
656.716	6.62
656.748	6.62
656.781	7.62
656.814	-0.38
656.846	9.62
656.879	5.62
656.912	-2.38
656.944	-15.38
656.977	-0.38
657.01	2.62
657.042	10.62
657.075	11.62
657.108	-12.38
657.14	9.62
657.173	16.62
657.205	21.62
657.238	7.62
657.271	4.62
657.303	-7.38
657.336	3.62
657.369	6.62
657.401	-9.38
657.434	3.62
657.466	10.62
657.499	7.62
657.532	-13.38
657.564	9.62
657.597	-9.38
657.629	8.62
657.662	12.62
657.694	11.62
657.727	-4.38
657.76	5.62
657.792	2.62
657.825	-11.38
657.857	-0.38
657.89	5.62
657.922	8.62
657.955	-10.38
657.987	-13.38
658.02	13.62
658.053	7.62
658.085	6.62
658.118	10.62
658.15	6.62
658.183	24.62
658.215	-6.38
658.248	0.62
658.28	-8.38
658.313	10.62
658.345	11.62
658.378	1.62
658.41	-9.38
658.443	17.62
658.475	7.62
658.508	-7.38
658.54	-6.38
658.573	-4.38
658.605	3.62
658.638	0.62
658.67	6.62
658.703	-4.38
658.735	2.62
658.768	2.62
658.8	-7.38
658.833	11.62
658.865	-3.38
658.898	-2.38
658.93	-10.38
658.963	4.62
658.995	-7.38
659.028	8.62
659.06	10.62
659.092	7.62
659.125	7.62
659.157	24.62
659.19	6.62
659.222	-9.38
659.255	5.62
659.287	-3.38
659.32	1.62
659.352	5.62
659.384	6.62
659.417	-8.38
659.449	18.62
659.482	12.62
659.514	-9.38
659.546	-8.38
659.579	-15.38
659.611	0.62
659.644	-2.38
659.676	-6.38
659.708	-3.38
659.741	-1.38
659.773	0.62
659.806	11.62
659.838	7.62
659.87	0.62
659.903	5.62
659.935	9.62
659.967	20.62
660	8.62
660.032	-17.38
660.065	16.62
660.097	21.62
660.129	9.62
660.162	3.62
660.194	15.62
660.226	19.62
660.259	-0.38
660.291	-2.38
660.323	-1.38
660.356	13.62
660.388	4.62
660.42	7.62
660.453	16.62
660.485	18.62
660.517	8.62
660.55	20.62
660.582	8.62
660.614	10.62
660.647	-7.38
660.679	-4.38
660.711	-9.38
660.743	-10.38
660.776	-9.38
660.808	-9.38
660.84	1.62
660.873	1.62
660.905	-2.38
660.937	-11.38
660.969	6.62
661.002	18.62
661.034	25.62
661.066	-6.38
661.099	3.62
661.131	-2.38
661.163	16.62
661.195	8.62
661.228	19.62
661.26	8.62
661.292	1.62
661.324	6.62
661.357	10.62
661.389	3.62
661.421	-3.38
661.453	20.62
661.485	18.62
661.518	4.62
661.55	1.62
661.582	-14.38
661.614	-0.38
661.647	2.62
661.679	9.62
661.711	-2.38
661.743	-4.38
661.775	8.62
661.808	19.62
661.84	-9.38
661.872	1.62
661.904	17.62
661.936	2.62
661.969	-16.38
662.001	-4.38
662.033	-1.38
662.065	-31.38
662.097	6.62
662.129	4.62
662.162	2.62
662.194	4.62
662.226	-8.38
662.258	3.62
662.29	-0.38
662.322	-13.38
662.355	-12.38
662.387	27.62
662.419	-6.38
662.451	5.62
662.483	14.62
662.515	11.62
662.547	-5.38
662.58	-14.38
662.612	8.62
662.644	-1.38
662.676	9.62
662.708	12.62
662.74	4.62
662.772	5.62
662.804	15.62
662.836	14.62
662.869	6.62
662.901	8.62
662.933	8.62
662.965	17.62
662.997	0.62
663.029	-17.38
663.061	-11.38
663.093	4.62
663.125	6.62
663.157	4.62
663.189	-1.38
663.221	21.62
663.254	6.62
663.286	16.62
663.318	2.62
663.35	3.62
663.382	1.62
663.414	1.62
663.446	-0.38
663.478	-11.38
663.51	34.62
663.542	-3.38
663.574	2.62
663.606	-10.38
663.638	-8.38
663.67	-29.38
663.702	11.62
663.734	8.62
663.766	0.62
663.798	-1.38
663.83	-1.38
663.862	2.62
663.894	0.62
663.926	-0.38
663.958	23.62
663.99	4.62
664.022	-2.38
664.054	2.62
664.086	-9.38
664.118	3.62
664.15	1.62
664.182	5.62
664.214	-0.38
664.246	7.62
664.278	3.62
664.31	13.62
664.342	10.62
664.374	-5.38
664.406	2.62
664.438	6.62
664.47	9.62
664.502	-4.38
664.534	-3.38
664.566	13.62
664.598	20.62
664.63	3.62
664.662	3.62
664.693	5.62
664.725	3.62
664.757	-1.38
664.789	-14.38
664.821	-13.38
664.853	1.62
664.885	8.62
664.917	-1.38
664.949	13.62
664.981	19.62
665.013	7.62
665.045	3.62
665.076	-3.38
665.108	14.62
665.14	0.62
665.172	9.62
665.204	4.62
665.236	0.62
665.268	29.62
665.3	8.62
665.331	-8.38
665.363	9.62
665.395	-3.38
665.427	-18.38
665.459	8.62
665.491	1.62
665.523	0.62
665.555	-8.38
665.586	8.62
665.618	6.62
665.65	-4.38
665.682	19.62
665.714	9.62
665.746	23.62
665.777	9.62
665.809	-0.38
665.841	0.62
665.873	-10.38
665.905	-3.38
665.937	15.62
665.968	6.62
666	-2.38
666.032	2.62
666.064	0.62
666.096	5.62
666.127	6.62
666.159	7.62
666.191	3.62
666.223	-9.38
666.255	-3.38
666.286	8.62
666.318	1.62
666.35	19.62
666.382	8.62
666.413	-9.38
666.445	-22.38
666.477	-10.38
666.509	-18.38
666.54	13.62
666.572	3.62
666.604	12.62
666.636	2.62
666.667	16.62
666.699	28.62
666.731	2.62
666.763	-11.38
666.794	0.62
666.826	-2.38
666.858	-14.38
666.89	11.62
666.921	6.62
666.953	-3.38
666.985	17.62
667.017	19.62
667.048	7.62
667.08	13.62
667.112	-0.38
667.143	-9.38
667.175	1.62
667.207	5.62
667.238	6.62
667.27	13.62
667.302	8.62
667.334	-3.38
667.365	27.62
667.397	3.62
667.429	-6.38
667.46	4.62
667.492	16.62
667.524	10.62
667.555	-11.38
667.587	5.62
667.619	-13.38
667.65	0.62
667.682	14.62
667.714	4.62
667.745	11.62
667.777	-1.38
667.808	-7.38
667.84	0.62
667.872	-3.38
667.903	25.62
667.935	-4.38
667.967	22.62
667.998	0.62
668.03	-2.38
668.061	5.62
668.093	2.62
668.125	8.62
668.156	10.62
668.188	-8.38
668.22	2.62
668.251	5.62
668.283	8.62
668.314	25.62
668.346	13.62
668.377	21.62
668.409	23.62
668.441	24.62
668.472	15.62
668.504	9.62
668.535	-0.38
668.567	28.62
668.599	24.62
668.63	-0.38
668.662	-1.38
668.693	16.62
668.725	17.62
668.756	9.62
668.788	8.62
668.819	6.62
668.851	1.62
668.882	0.62
668.914	-11.38
668.946	4.62
668.977	4.62
669.009	2.62
669.04	-29.38
669.072	5.62
669.103	-3.38
669.135	6.62
669.166	-10.38
669.198	3.62
669.229	9.62
669.261	8.62
669.292	2.62
669.324	4.62
669.355	0.62
669.387	3.62
669.418	15.62
669.45	-9.38
669.481	9.62
669.513	5.62
669.544	6.62
669.576	1.62
669.607	5.62
669.639	11.62
669.67	-12.38
669.701	21.62
669.733	-6.38
669.764	3.62
669.796	14.62
669.827	-5.38
669.859	-6.38
669.89	-1.38
669.922	12.62
669.953	4.62
669.985	1.62
670.016	7.62
670.047	3.62
670.079	1.62
670.11	13.62
670.142	4.62
670.173	7.62
670.204	17.62
670.236	6.62
670.267	-16.38
670.299	5.62
670.33	7.62
670.362	17.62
670.393	-10.38
670.424	7.62
670.456	-11.38
670.487	-3.38
670.518	-23.38
670.55	11.62
670.581	13.62
670.613	12.62
670.644	-18.38
670.675	-11.38
670.707	2.62
670.738	-4.38
670.769	-3.38
670.801	-4.38
670.832	9.62
670.864	-13.38
670.895	6.62
670.926	2.62
670.958	1.62
670.989	3.62
671.02	1.62
671.052	10.62
671.083	1.62
671.114	-15.38
671.146	5.62
671.177	-7.38
671.208	-0.38
671.24	-9.38
671.271	3.62
671.302	4.62
671.333	-5.38
671.365	11.62
671.396	-1.38
671.427	3.62
671.459	6.62
671.49	12.62
671.521	10.62
671.553	8.62
671.584	20.62
671.615	-8.38
671.646	16.62
671.678	5.62
671.709	-6.38
671.74	-4.38
671.771	-7.38
671.803	4.62
671.834	0.62
671.865	-3.38
671.896	9.62
671.928	6.62
671.959	-7.38
671.99	-3.38
672.021	0.62
672.053	-13.38
672.084	7.62
672.115	-3.38
672.146	0.62
672.178	-7.38
672.209	-20.38
672.24	-1.38
672.271	11.62
672.303	3.62
672.334	-16.38
672.365	-7.38
672.396	6.62
672.427	3.62
672.459	12.62
672.49	8.62
672.521	5.62
672.552	-5.38
672.583	16.62
672.615	3.62
672.646	10.62
672.677	0.62
672.708	-5.38
672.739	0.62
672.77	5.62
672.802	-2.38
672.833	-1.38
672.864	-10.38
672.895	-0.38
672.926	3.62
672.957	-0.38
672.989	-13.38
673.02	-8.38
673.051	-11.38
673.082	30.62
673.113	4.62
673.144	8.62
673.175	5.62
673.206	-6.38
673.238	-11.38
673.269	-5.38
673.3	-0.38
673.331	6.62
673.362	-4.38
673.393	3.62
673.424	1.62
673.455	19.62
673.487	-3.38
673.518	16.62
673.549	6.62
673.58	-1.38
673.611	13.62
673.642	3.62
673.673	-12.38
673.704	-0.38
673.735	2.62
673.766	-13.38
673.797	-5.38
673.828	-7.38
673.86	7.62
673.891	-6.38
673.922	-19.38
673.953	-6.38
673.984	5.62
674.015	12.62
674.046	15.62
674.077	-9.38
674.108	-13.38
674.139	-9.38
674.17	-9.38
674.201	-2.38
674.232	-13.38
674.263	-17.38
674.294	-6.38
674.325	-15.38
674.356	16.62
674.387	6.62
674.418	5.62
674.449	-5.38
674.48	-4.38
674.511	2.62
674.542	15.62
674.573	0.62
674.604	12.62
674.635	10.62
674.666	8.62
674.697	14.62
674.728	-9.38
674.759	-6.38
674.79	-20.38
674.821	-21.38
674.852	-3.38
674.883	-22.38
674.914	12.62
674.945	1.62
674.976	-2.38
675.007	-0.38
675.038	-5.38
675.069	-26.38
675.1	4.62
675.131	16.62
675.162	4.62
675.193	-7.38
675.224	10.62
675.254	2.62
675.285	16.62
675.316	21.62
675.347	6.62
675.378	-3.38
675.409	-12.38
675.44	11.62
675.471	4.62
675.502	-1.38
675.533	1.62
675.564	14.62
675.595	8.62
675.625	6.62
675.656	12.62
675.687	19.62
675.718	-14.38
675.749	16.62
675.78	5.62
675.811	-23.38
675.842	19.62
675.873	0.62
675.903	-3.38
675.934	-4.38
675.965	2.62
675.996	3.62
676.027	8.62
676.058	0.62
676.089	-17.38
676.119	0.62
676.15	-5.38
676.181	12.62
676.212	1.62
676.243	6.62
676.274	-17.38
676.304	1.62
676.335	-3.38
676.366	9.62
676.397	8.62
676.428	6.62
676.459	14.62
676.489	9.62
676.52	-4.38
676.551	-9.38
676.582	-15.38
676.613	10.62
676.643	-11.38
676.674	7.62
676.705	-1.38
676.736	1.62
676.767	11.62
676.797	12.62
676.828	4.62
676.859	12.62
676.89	3.62
676.92	10.62
676.951	1.62
676.982	2.62
677.013	9.62
677.044	15.62
677.074	36.62
677.105	3.62
677.136	0.62
677.167	15.62
677.197	11.62
677.228	-5.38
677.259	-13.38
677.289	-1.38
677.32	-14.38
677.351	-12.38
677.382	-1.38
677.412	-8.38
677.443	22.62
677.474	-0.38
677.505	-16.38
677.535	11.62
677.566	3.62
677.597	1.62
677.627	-8.38
677.658	-7.38
677.689	-6.38
677.72	1.62
677.75	-2.38
677.781	2.62
677.812	7.62
677.842	9.62
677.873	-10.38
677.904	-8.38
677.934	-7.38
677.965	5.62
677.996	-7.38
678.026	-1.38
678.057	4.62
678.088	-4.38
678.118	-0.38
678.149	-8.38
678.18	3.62
678.21	-1.38
678.241	0.62
678.272	13.62
678.302	10.62
678.333	9.62
678.363	8.62
678.394	17.62
678.425	-4.38
678.455	14.62
678.486	11.62
678.517	-2.38
678.547	-4.38
678.578	11.62
678.608	-14.38
678.639	-3.38
678.67	-2.38
678.7	-1.38
678.731	-6.38
678.761	10.62
678.792	6.62
678.823	5.62
678.853	-0.38
678.884	-9.38
678.914	3.62
678.945	5.62
678.975	-4.38
679.006	-5.38
679.037	-3.38
679.067	5.62
679.098	-3.38
679.128	-3.38
679.159	-2.38
679.189	-1.38
679.22	-8.38
679.25	-3.38
679.281	-1.38
679.312	-0.38
679.342	10.62
679.373	34.62
679.403	16.62
679.434	13.62
679.464	-1.38
679.495	1.62
679.525	1.62
679.556	1.62
679.586	2.62
679.617	0.62
679.647	3.62
679.678	14.62
679.708	6.62
679.739	6.62
679.769	11.62
679.8	9.62
679.83	8.62
679.861	21.62
679.891	5.62
679.922	-2.38
679.952	3.62
679.983	27.62
680.013	-3.38
680.044	-9.38
680.074	27.62
680.105	-9.38
680.135	0.62
680.165	2.62
680.196	-0.38
680.226	12.62
680.257	12.62
680.287	-2.38
680.318	-1.38
680.348	-2.38
680.379	14.62
680.409	19.62
680.439	4.62
680.47	5.62
680.5	-6.38
680.531	-6.38
680.561	3.62
680.592	5.62
680.622	18.62
680.652	2.62
680.683	33.62
680.713	2.62
680.744	1.62
680.774	0.62
680.804	29.62
680.835	11.62
680.865	2.62
680.896	18.62
680.926	27.62
680.956	4.62
680.987	-5.38
681.017	6.62
681.047	-3.38
681.078	-25.38
681.108	0.62
681.139	6.62
681.169	-14.38
681.199	-2.38
681.23	20.62
681.26	0.62
681.29	21.62
681.321	0.62
681.351	13.62
681.381	-9.38
681.412	24.62
681.442	7.62
681.472	28.62
681.503	23.62
681.533	19.62
681.563	-2.38
681.594	-2.38
681.624	10.62
681.654	-3.38
681.685	-4.38
681.715	-9.38
681.745	-4.38
681.775	7.62
681.806	2.62
681.836	1.62
681.866	-1.38
681.897	-5.38
681.927	-3.38
681.957	-8.38
681.987	3.62
682.018	5.62
682.048	1.62
682.078	7.62
682.109	19.62
682.139	10.62
682.169	-3.38
682.199	3.62
682.23	-4.38
682.26	4.62
682.29	-11.38
682.32	4.62
682.351	-12.38
682.381	13.62
682.411	-2.38
682.441	4.62
682.472	-6.38
682.502	-2.38
682.532	-2.38
682.562	-0.38
682.592	4.62
682.623	11.62
682.653	3.62
682.683	-7.38
682.713	18.62
682.743	-4.38
682.774	2.62
682.804	6.62
682.834	14.62
682.864	-17.38
682.894	-7.38
682.925	5.62
682.955	-10.38
682.985	-5.38
683.015	-4.38
683.045	2.62
683.076	-16.38
683.106	5.62
683.136	-1.38
683.166	-1.38
683.196	-16.38
683.226	-11.38
683.257	-6.38
683.287	7.62
683.317	-7.38
683.347	-4.38
683.377	3.62
683.407	15.62
683.437	15.62
683.468	22.62
683.498	-3.38
683.528	-5.38
683.558	7.62
683.588	-17.38
683.618	-6.38
683.648	-1.38
683.678	7.62
683.708	6.62
683.739	-2.38
683.769	-9.38
683.799	-4.38
683.829	3.62
683.859	2.62
683.889	8.62
683.919	-4.38
683.949	-7.38
683.979	-2.38
684.009	-4.38
684.039	8.62
684.07	-11.38
684.1	15.62
684.13	15.62
684.16	-1.38
684.19	-4.38
684.22	1.62
684.25	4.62
684.28	2.62
684.31	22.62
684.34	15.62
684.37	16.62
684.4	-5.38
684.43	-2.38
684.46	4.62
684.49	7.62
684.52	5.62
684.55	6.62
684.58	1.62
684.61	-0.38
684.64	-0.38
684.67	3.62
684.7	3.62
684.73	2.62
684.76	3.62
684.79	9.62
684.82	4.62
684.85	0.62
684.88	8.62
684.91	10.62
684.94	0.62
684.97	-12.38
685	-27.38
685.03	-16.38
685.06	-11.38
685.09	0.62
685.12	4.62
685.15	14.62
685.18	10.62
685.21	0.62
685.24	3.62
685.27	15.62
685.3	-4.38
685.33	-8.38
685.36	1.62
685.39	3.62
685.42	-11.38
685.45	2.62
685.48	-0.38
685.51	3.62
685.54	26.62
685.569	7.62
685.599	15.62
685.629	-6.38
685.659	-12.38
685.689	-6.38
685.719	3.62
685.749	-8.38
685.779	14.62
685.809	8.62
685.839	6.62
685.869	9.62
685.898	17.62
685.928	12.62
685.958	-13.38
685.988	-0.38
686.018	-19.38
686.048	-7.38
686.078	16.62
686.108	25.62
686.137	-6.38
686.167	13.62
686.197	-5.38
686.227	8.62
686.257	23.62
686.287	22.62
686.317	-3.38
686.346	-11.38
686.376	-12.38
686.406	-20.38
686.436	9.62
686.466	-11.38
686.496	1.62
686.525	15.62
686.555	5.62
686.585	18.62
686.615	31.62
686.645	13.62
686.675	13.62
686.704	-0.38
686.734	-0.38
686.764	2.62
686.794	0.62
686.824	-0.38
686.853	7.62
686.883	8.62
686.913	15.62
686.943	11.62
686.973	-8.38
687.002	1.62
687.032	6.62
687.062	-2.38
687.092	28.62
687.121	-4.38
687.151	3.62
687.181	-0.38
687.211	22.62
687.24	3.62
687.27	12.62
687.3	12.62
687.33	14.62
687.359	-6.38
687.389	5.62
687.419	3.62
687.449	18.62
687.478	6.62
687.508	16.62
687.538	20.62
687.568	4.62
687.597	2.62
687.627	21.62
687.657	21.62
687.686	10.62
687.716	-3.38
687.746	-4.38
687.776	-7.38
687.805	8.62
687.835	7.62
687.865	18.62
687.894	3.62
687.924	4.62
687.954	4.62
687.983	4.62
688.013	4.62
688.043	3.62
688.072	-2.38
688.102	2.62
688.132	6.62
688.161	3.62
688.191	1.62
688.221	9.62
688.25	-0.38
688.28	7.62
688.31	-7.38
688.339	-0.38
688.369	0.62
688.399	-9.38
688.428	0.62
688.458	-1.38
688.488	-1.38
688.517	-1.38
688.547	2.62
688.576	41.62
688.606	14.62
688.636	3.62
688.665	5.62
688.695	11.62
688.725	19.62
688.754	9.62
688.784	0.62
688.813	4.62
688.843	-15.38
688.873	8.62
688.902	0.62
688.932	7.62
688.961	4.62
688.991	18.62
689.02	12.62
689.05	-0.38
689.08	28.62
689.109	20.62
689.139	4.62
689.168	6.62
689.198	-0.38
689.227	-6.38
689.257	7.62
689.287	19.62
689.316	-2.38
689.346	-13.38
689.375	8.62
689.405	4.62
689.434	3.62
689.464	1.62
689.493	-7.38
689.523	-0.38
689.552	-7.38
689.582	9.62
689.611	5.62
689.641	21.62
689.67	17.62
689.7	5.62
689.73	0.62
689.759	0.62
689.789	7.62
689.818	-11.38
689.848	1.62
689.877	26.62
689.906	13.62
689.936	-13.38
689.965	-0.38
689.995	21.62
690.024	9.62
690.054	-0.38
690.083	3.62
690.113	-8.38
690.142	14.62
690.172	-4.38
690.201	5.62
690.231	1.62
690.26	16.62
690.29	9.62
690.319	14.62
690.348	-1.38
690.378	17.62
690.407	-9.38
690.437	15.62
690.466	12.62
690.496	21.62
690.525	19.62
690.555	15.62
690.584	11.62
690.613	-3.38
690.643	8.62
690.672	4.62
690.702	3.62
690.731	-3.38
690.76	4.62
690.79	36.62
690.819	29.62
690.849	49.62
690.878	19.62
690.907	27.62
690.937	26.62
690.966	4.62
690.996	4.62
691.025	-8.38
691.054	-4.38
691.084	3.62
691.113	2.62
691.142	21.62
691.172	11.62
691.201	10.62
691.23	-5.38
691.26	2.62
691.289	2.62
691.319	8.62
691.348	13.62
691.377	17.62
691.407	-1.38
691.436	13.62
691.465	-4.38
691.495	12.62
691.524	-4.38
691.553	8.62
691.583	-15.38
691.612	9.62
691.641	1.62
691.67	3.62
691.7	20.62
691.729	-12.38
691.758	-1.38
691.788	4.62
691.817	3.62
691.846	-0.38
691.876	13.62
691.905	8.62
691.934	-9.38
691.963	11.62
691.993	8.62
692.022	-4.38
692.051	-5.38
692.081	20.62
692.11	13.62
692.139	13.62
692.168	-3.38
692.198	18.62
692.227	11.62
692.256	1.62
692.285	2.62
692.315	4.62
692.344	12.62
692.373	6.62
692.402	-1.38
692.432	10.62
692.461	4.62
692.49	-0.38
692.519	0.62
692.548	11.62
692.578	19.62
692.607	-1.38
692.636	-0.38
692.665	12.62
692.694	0.62
692.724	4.62
692.753	20.62
692.782	18.62
692.811	-11.38
692.84	-0.38
692.87	0.62
692.899	-0.38
692.928	3.62
692.957	16.62
692.986	10.62
693.016	7.62
693.045	10.62
693.074	11.62
693.103	-5.38
693.132	13.62
693.161	2.62
693.191	-7.38
693.22	-8.38
693.249	-4.38
693.278	-1.38
693.307	5.62
693.336	-7.38
693.365	-20.38
693.395	-4.38
693.424	13.62
693.453	24.62
693.482	-12.38
693.511	17.62
693.54	0.62
693.569	23.62
693.598	10.62
693.628	9.62
693.657	11.62
693.686	17.62
693.715	10.62
693.744	9.62
693.773	16.62
693.802	16.62
693.831	8.62
693.86	15.62
693.889	12.62
693.919	-2.38
693.948	9.62
693.977	-8.38
694.006	-4.38
694.035	-1.38
694.064	-3.38
694.093	2.62
694.122	14.62
694.151	4.62
694.18	1.62
694.209	23.62
694.238	11.62
694.267	18.62
694.296	19.62
694.325	5.62
694.354	19.62
694.383	4.62
694.412	19.62
694.441	-0.38
694.471	0.62
694.5	0.62
694.529	10.62
694.558	18.62
694.587	4.62
694.616	-5.38
694.645	1.62
694.674	7.62
694.703	2.62
694.732	-1.38
694.761	9.62
694.79	24.62
694.819	-5.38
694.848	5.62
694.877	19.62
694.906	23.62
694.935	21.62
694.963	22.62
694.992	2.62
695.021	15.62
695.05	0.62
695.079	5.62
695.108	-6.38
695.137	4.62
695.166	10.62
695.195	-1.38
695.224	7.62
695.253	5.62
695.282	10.62
695.311	-15.38
695.34	0.62
695.369	16.62
695.398	3.62
695.427	10.62
695.456	10.62
695.485	3.62
695.513	11.62
695.542	0.62
695.571	4.62
695.6	14.62
695.629	7.62
695.658	17.62
695.687	5.62
695.716	7.62
695.745	37.62
695.774	0.62
695.802	-2.38
695.831	21.62
695.86	24.62
695.889	20.62
695.918	20.62
695.947	-0.38
695.976	20.62
696.005	14.62
696.033	23.62
696.062	20.62
696.091	13.62
696.12	10.62
696.149	27.62
696.178	24.62
696.207	18.62
696.235	-15.38
696.264	19.62
696.293	11.62
696.322	23.62
696.351	26.62
696.38	5.62
696.408	13.62
696.437	5.62
696.466	16.62
696.495	20.62
696.524	17.62
696.553	18.62
696.581	22.62
696.61	14.62
696.639	8.62
696.668	3.62
696.697	-4.38
696.725	8.62
696.754	12.62
696.783	0.62
696.812	10.62
696.84	15.62
696.869	6.62
696.898	11.62
696.927	-7.38
696.956	18.62
696.984	10.62
697.013	9.62
697.042	-2.38
697.071	2.62
697.099	9.62
697.128	6.62
697.157	2.62
697.186	0.62
697.214	5.62
697.243	2.62
697.272	-9.38
697.301	4.62
697.329	16.62
697.358	13.62
697.387	19.62
697.415	15.62
697.444	11.62
697.473	-0.38
697.502	-11.38
697.53	2.62
697.559	7.62
697.588	2.62
697.616	23.62
697.645	-2.38
697.674	1.62
697.703	-6.38
697.731	23.62
697.76	13.62
697.789	1.62
697.817	18.62
697.846	21.62
697.875	3.62
697.903	26.62
697.932	19.62
697.961	11.62
697.989	20.62
698.018	2.62
698.047	11.62
698.075	19.62
698.104	2.62
698.133	-8.38
698.161	-1.38
698.19	-3.38
698.218	-4.38
698.247	-0.38
698.276	0.62
698.304	18.62
698.333	7.62
698.362	13.62
698.39	7.62
698.419	5.62
698.447	0.62
698.476	-6.38
698.505	7.62
698.533	8.62
698.562	9.62
698.591	-7.38
698.619	-4.38
698.648	-7.38
698.676	2.62
698.705	5.62
698.733	-10.38
698.762	14.62
698.791	12.62
698.819	-0.38
698.848	4.62
698.876	11.62
698.905	14.62
698.933	17.62
698.962	15.62
698.991	14.62
699.019	24.62
699.048	-4.38
699.076	19.62
699.105	1.62
699.133	-6.38
699.162	8.62
699.19	28.62
699.219	17.62
699.248	-0.38
699.276	5.62
699.305	-2.38
699.333	13.62
699.362	14.62
699.39	-7.38
699.419	1.62
699.447	7.62
699.476	16.62
699.504	-2.38
699.533	7.62
699.561	-8.38
699.59	-0.38
699.618	-3.38
699.647	11.62
699.675	6.62
699.704	8.62
699.732	12.62
699.761	7.62
699.789	1.62
699.818	15.62
699.846	3.62
699.874	0.62
699.903	-0.38
699.931	0.62
699.96	0.62
699.988	10.62
700.017	3.62
700.045	0.62
700.074	-4.38
700.102	0.62
700.13	3.62
700.159	11.62
700.187	4.62
700.216	-7.38
700.244	-1.38
700.273	-1.38
700.301	6.62
700.329	12.62
700.358	20.62
700.386	6.62
700.415	10.62
700.443	3.62
700.472	3.62
700.5	-3.38
700.528	4.62
700.557	-9.38
700.585	1.62
700.614	0.62
700.642	28.62
700.67	20.62
700.699	15.62
700.727	18.62
700.755	10.62
700.784	-0.38
700.812	-9.38
700.841	8.62
700.869	2.62
700.897	-13.38
700.926	-12.38
700.954	6.62
700.982	18.62
701.011	4.62
701.039	8.62
701.067	4.62
701.096	19.62
701.124	-9.38
701.152	-3.38
701.181	-10.38
701.209	-8.38
701.237	14.62
701.266	-3.38
701.294	7.62
701.322	10.62
701.351	17.62
701.379	10.62
701.407	16.62
701.435	15.62
701.464	16.62
701.492	38.62
701.52	7.62
701.549	4.62
701.577	1.62
701.605	1.62
701.634	10.62
701.662	12.62
701.69	-1.38
701.718	5.62
701.747	12.62
701.775	10.62
701.803	1.62
701.831	19.62
701.86	-3.38
701.888	14.62
701.916	1.62
701.944	10.62
701.973	8.62
702.001	5.62
702.029	-6.38
702.057	-16.38
702.086	-2.38
702.114	-9.38
702.142	-0.38
702.17	-7.38
702.199	2.62
702.227	-2.38
702.255	3.62
702.283	15.62
702.311	9.62
702.34	-1.38
702.368	-7.38
702.396	3.62
702.424	-11.38
702.452	-2.38
702.481	6.62
702.509	-2.38
702.537	19.62
702.565	4.62
702.593	-22.38
702.621	-0.38
702.65	-6.38
702.678	8.62
702.706	7.62
702.734	-10.38
702.762	-7.38
702.79	8.62
702.819	2.62
702.847	-4.38
702.875	-4.38
702.903	4.62
702.931	-1.38
702.959	3.62
702.988	12.62
703.016	-7.38
703.044	6.62
703.072	2.62
703.1	-8.38
703.128	3.62
703.156	16.62
703.184	11.62
703.212	6.62
703.241	13.62
703.269	-4.38
703.297	-0.38
703.325	16.62
703.353	-4.38
703.381	3.62
703.409	-7.38
703.437	-7.38
703.465	4.62
703.493	1.62
703.522	13.62
703.55	27.62
703.578	3.62
703.606	2.62
703.634	-0.38
703.662	-5.38
703.69	-11.38
703.718	3.62
703.746	15.62
703.774	4.62
703.802	15.62
703.83	-1.38
703.858	-2.38
703.886	-8.38
703.914	-8.38
703.942	2.62
703.97	2.62
703.998	-1.38
704.027	3.62
704.055	1.62
704.083	0.62
704.111	2.62
704.139	3.62
704.167	2.62
704.195	-7.38
704.223	-3.38
704.251	-9.38
704.279	-7.38
704.307	-3.38
704.335	-9.38
704.363	-6.38
704.391	-5.38
704.419	-6.38
704.447	3.62
704.475	5.62
704.503	-7.38
704.531	12.62
704.558	7.62
704.586	8.62
704.614	-7.38
704.642	-3.38
704.67	-8.38
704.698	0.62
704.726	10.62
704.754	11.62
704.782	-0.38
704.81	-0.38
704.838	17.62
704.866	23.62
704.894	3.62
704.922	6.62
704.95	6.62
704.978	16.62
705.006	15.62
705.034	23.62
705.061	9.62
705.089	2.62
705.117	-2.38
705.145	7.62
705.173	19.62
705.201	3.62
705.229	14.62
705.257	14.62
705.285	5.62
705.313	2.62
705.34	-1.38
705.368	1.62
705.396	3.62
705.424	17.62
705.452	1.62
705.48	0.62
705.508	-8.38
705.536	-2.38
705.563	-12.38
705.591	16.62
705.619	5.62
705.647	-1.38
705.675	-5.38
705.703	15.62
705.731	7.62
705.758	19.62
705.786	1.62
705.814	21.62
705.842	10.62
705.87	23.62
705.898	5.62
705.925	-2.38
705.953	9.62
705.981	-11.38
706.009	3.62
706.037	13.62
706.065	1.62
706.092	-0.38
706.12	9.62
706.148	-2.38
706.176	-3.38
706.204	6.62
706.231	-6.38
706.259	-13.38
706.287	-0.38
706.315	-4.38
706.342	-0.38
706.37	12.62
706.398	22.62
706.426	9.62
706.454	7.62
706.481	14.62
706.509	-6.38
706.537	-0.38
706.565	-10.38
706.592	0.62
706.62	12.62
706.648	15.62
706.676	10.62
706.703	2.62
706.731	-11.38
706.759	-11.38
706.787	-9.38
706.814	-4.38
706.842	9.62
706.87	11.62
706.897	17.62
706.925	15.62
706.953	11.62
706.981	7.62
707.008	9.62
707.036	2.62
707.064	-12.38
707.091	-16.38
707.119	11.62
707.147	1.62
707.174	-16.38
707.202	12.62
707.23	-12.38
707.258	8.62
707.285	-8.38
707.313	0.62
707.341	-19.38
707.368	-0.38
707.396	2.62
707.424	17.62
707.451	20.62
707.479	2.62
707.507	1.62
707.534	1.62
707.562	0.62
707.59	-2.38
707.617	-6.38
707.645	5.62
707.672	7.62
707.7	14.62
707.728	0.62
707.755	-0.38
707.783	-3.38
707.811	14.62
707.838	-12.38
707.866	0.62
707.893	15.62
707.921	-6.38
707.949	-3.38
707.976	15.62
708.004	-4.38
708.031	5.62
708.059	2.62
708.087	10.62
708.114	0.62
708.142	-2.38
708.169	5.62
708.197	-13.38
708.225	-1.38
708.252	-0.38
708.28	22.62
708.307	4.62
708.335	2.62
708.362	10.62
708.39	-9.38
708.418	-3.38
708.445	-8.38
708.473	7.62
708.5	-8.38
708.528	0.62
708.555	2.62
708.583	-5.38
708.61	-3.38
708.638	-5.38
708.665	-11.38
708.693	12.62
708.72	-5.38
708.748	-10.38
708.776	-5.38
708.803	13.62
708.831	6.62
708.858	11.62
708.886	4.62
708.913	14.62
708.941	-3.38
708.968	19.62
708.996	7.62
709.023	33.62
709.051	3.62
709.078	-7.38
709.105	1.62
709.133	-8.38
709.16	8.62
709.188	10.62
709.215	1.62
709.243	2.62
709.27	-9.38
709.298	-9.38
709.325	-0.38
709.353	1.62
709.38	13.62
709.408	-0.38
709.435	-1.38
709.462	6.62
709.49	-0.38
709.517	-12.38
709.545	-12.38
709.572	-18.38
709.6	19.62
709.627	11.62
709.655	2.62
709.682	-9.38
709.709	3.62
709.737	7.62
709.764	-8.38
709.792	0.62
709.819	6.62
709.846	-7.38
709.874	6.62
709.901	34.62
709.929	11.62
709.956	20.62
709.983	20.62
710.011	-0.38
710.038	-2.38
710.066	2.62
710.093	14.62
710.12	9.62
710.148	3.62
710.175	-2.38
710.202	-4.38
710.23	-5.38
710.257	13.62
710.284	13.62
710.312	0.62
710.339	2.62
710.366	6.62
710.394	-8.38
710.421	4.62
710.448	4.62
710.476	-1.38
710.503	4.62
710.53	17.62
710.558	11.62
710.585	17.62
710.612	-0.38
710.64	8.62
710.667	-4.38
710.694	-4.38
710.722	-2.38
710.749	1.62
710.776	9.62
710.804	5.62
710.831	-8.38
710.858	0.62
710.885	5.62
710.913	2.62
710.94	17.62
710.967	14.62
710.995	-5.38
711.022	0.62
711.049	2.62
711.076	6.62
711.104	2.62
711.131	-8.38
711.158	0.62
711.185	14.62
711.213	-5.38
711.24	8.62
711.267	-7.38
711.294	4.62
711.322	14.62
711.349	-4.38
711.376	-5.38
711.403	11.62
711.431	-1.38
711.458	2.62
711.485	17.62
711.512	21.62
711.54	-3.38
711.567	-5.38
711.594	6.62
711.621	4.62
711.648	8.62
711.676	1.62
711.703	2.62
711.73	-24.38
711.757	-1.38
711.784	-13.38
711.812	3.62
711.839	19.62
711.866	-4.38
711.893	-0.38
711.92	2.62
711.947	9.62
711.975	9.62
712.002	1.62
712.029	25.62
712.056	4.62
712.083	6.62
712.11	-7.38
712.138	15.62
712.165	12.62
712.192	-10.38
712.219	-21.38
712.246	-12.38
712.273	-0.38
712.3	-11.38
712.328	-6.38
712.355	4.62
712.382	2.62
712.409	17.62
712.436	2.62
712.463	11.62
712.49	17.62
712.517	2.62
712.544	8.62
712.572	10.62
712.599	6.62
712.626	21.62
712.653	-5.38
712.68	-11.38
712.707	20.62
712.734	5.62
712.761	8.62
712.788	-2.38
712.815	-1.38
712.842	4.62
712.87	3.62
712.897	-9.38
712.924	-15.38
712.951	-1.38
712.978	7.62
713.005	17.62
713.032	24.62
713.059	-3.38
713.086	-0.38
713.113	-1.38
713.14	-6.38
713.167	19.62
713.194	19.62
713.221	0.62
713.248	23.62
713.275	-3.38
713.302	-5.38
713.329	10.62
713.356	12.62
713.383	-3.38
713.41	-0.38
713.437	-11.38
713.464	-12.38
713.491	10.62
713.518	12.62
713.545	-1.38
713.572	-11.38
713.599	13.62
713.626	-4.38
713.653	-0.38
713.68	-0.38
713.707	-4.38
713.734	9.62
713.761	-3.38
713.788	-4.38
713.815	17.62
713.842	4.62
713.869	-3.38
713.896	2.62
713.923	-2.38
713.95	6.62
713.977	3.62
714.004	-12.38
714.031	4.62
714.058	2.62
714.085	2.62
714.112	12.62
714.139	-5.38
714.165	-4.38
714.192	-1.38
714.219	11.62
714.246	14.62
714.273	-3.38
714.3	-4.38
714.327	4.62
714.354	9.62
714.381	-7.38
714.408	3.62
714.435	-14.38
714.461	12.62
714.488	23.62
714.515	4.62
714.542	-10.38
714.569	6.62
714.596	-14.38
714.623	13.62
714.65	-11.38
714.677	14.62
714.703	5.62
714.73	6.62
714.757	10.62
714.784	-4.38
714.811	-5.38
714.838	2.62
714.865	4.62
714.891	-3.38
714.918	-11.38
714.945	-14.38
714.972	6.62
714.999	6.62
715.026	-17.38
715.052	14.62
715.079	14.62
715.106	3.62
715.133	1.62
715.16	-4.38
715.187	3.62
715.213	3.62
715.24	-0.38
715.267	-8.38
715.294	-4.38
715.321	-11.38
715.347	-7.38
715.374	-0.38
715.401	3.62
715.428	-8.38
715.455	10.62
715.481	-7.38
715.508	16.62
715.535	-5.38
715.562	19.62
715.588	7.62
715.615	-5.38
715.642	-8.38
715.669	11.62
715.695	-8.38
715.722	-4.38
715.749	5.62
715.776	9.62
715.802	14.62
715.829	18.62
715.856	6.62
715.883	22.62
715.909	-6.38
715.936	-4.38
715.963	-1.38
715.99	-2.38
716.016	6.62
716.043	-3.38
716.07	-12.38
716.096	-7.38
716.123	-5.38
716.15	6.62
716.177	12.62
716.203	20.62
716.23	16.62
716.257	11.62
716.283	9.62
716.31	8.62
716.337	5.62
716.363	-0.38
716.39	5.62
716.417	3.62
716.443	7.62
716.47	8.62
716.497	9.62
716.523	10.62
716.55	23.62
716.577	19.62
716.603	18.62
716.63	8.62
716.657	29.62
716.683	-5.38
716.71	-9.38
716.737	-15.38
716.763	-0.38
716.79	5.62
716.817	13.62
716.843	12.62
716.87	-12.38
716.897	-10.38
716.923	18.62
716.95	-12.38
716.976	3.62
717.003	-1.38
717.03	23.62
717.056	20.62
717.083	7.62
717.109	-4.38
717.136	4.62
717.163	-1.38
717.189	-3.38
717.216	5.62
717.242	2.62
717.269	15.62
717.296	9.62
717.322	22.62
717.349	7.62
717.375	8.62
717.402	5.62
717.428	14.62
717.455	1.62
717.481	2.62
717.508	22.62
717.535	19.62
717.561	3.62
717.588	-5.38
717.614	3.62
717.641	-9.38
717.667	8.62
717.694	3.62
717.72	-1.38
717.747	25.62
717.773	-19.38
717.8	13.62
717.826	3.62
717.853	8.62
717.88	16.62
717.906	4.62
717.933	-2.38
717.959	-4.38
717.986	13.62
718.012	-6.38
718.039	18.62
718.065	15.62
718.092	6.62
718.118	-3.38
718.144	-11.38
718.171	3.62
718.197	28.62
718.224	4.62
718.25	13.62
718.277	0.62
718.303	-4.38
718.33	6.62
718.356	-14.38
718.383	-2.38
718.409	8.62
718.436	9.62
718.462	7.62
718.489	-3.38
718.515	18.62
718.541	22.62
718.568	1.62
718.594	10.62
718.621	11.62
718.647	6.62
718.674	16.62
718.7	25.62
718.726	0.62
718.753	4.62
718.779	17.62
718.806	-5.38
718.832	-5.38
718.858	0.62
718.885	-0.38
718.911	0.62
718.938	1.62
718.964	5.62
718.99	1.62
719.017	9.62
719.043	16.62
719.07	16.62
719.096	5.62
719.122	10.62
719.149	4.62
719.175	12.62
719.201	5.62
719.228	-22.38
719.254	11.62
719.281	-6.38
719.307	-5.38
719.333	-5.38
719.36	18.62
719.386	0.62
719.412	6.62
719.439	-3.38
719.465	-11.38
719.491	-1.38
719.518	3.62
719.544	9.62
719.57	4.62
719.597	5.62
719.623	2.62
719.649	3.62
719.675	4.62
719.702	-0.38
719.728	4.62
719.754	-8.38
719.781	-9.38
719.807	10.62
719.833	-0.38
719.86	2.62
719.886	-2.38
719.912	3.62
719.938	11.62
719.965	4.62
719.991	19.62
720.017	18.62
720.044	-5.38
720.07	-4.38
720.096	-4.38
720.122	-5.38
720.149	2.62
720.175	24.62
720.201	14.62
720.227	-9.38
720.254	13.62
720.28	9.62
720.306	-10.38
720.332	8.62
720.359	7.62
720.385	9.62
720.411	10.62
720.437	6.62
720.463	-1.38
720.49	5.62
720.516	2.62
720.542	-6.38
720.568	-0.38
720.595	18.62
720.621	18.62
720.647	13.62
720.673	-5.38
720.699	-5.38
720.725	3.62
720.752	11.62
720.778	3.62
720.804	17.62
720.83	12.62
720.856	0.62
720.883	-17.38
720.909	-14.38
720.935	0.62
720.961	15.62
720.987	17.62
721.013	14.62
721.04	6.62
721.066	6.62
721.092	12.62
721.118	11.62
721.144	14.62
721.17	-6.38
721.196	-3.38
721.223	-4.38
721.249	-6.38
721.275	24.62
721.301	8.62
721.327	12.62
721.353	14.62
721.379	12.62
721.405	7.62
721.432	2.62
721.458	10.62
721.484	-5.38
721.51	-4.38
721.536	-1.38
721.562	-1.38
721.588	2.62
721.614	-3.38
721.64	-8.38
721.666	4.62
721.693	-6.38
721.719	0.62
721.745	-4.38
721.771	-16.38
721.797	1.62
721.823	-3.38
721.849	4.62
721.875	6.62
721.901	20.62
721.927	16.62
721.953	15.62
721.979	17.62
722.005	7.62
722.031	6.62
722.057	15.62
722.083	2.62
722.109	6.62
722.135	6.62
722.161	16.62
722.187	10.62
722.214	0.62
722.24	3.62
722.266	4.62
722.292	17.62
722.318	15.62
722.344	12.62
722.37	3.62
722.396	17.62
722.422	12.62
722.448	5.62
722.474	-5.38
722.5	12.62
722.526	22.62
722.552	1.62
722.578	-4.38
722.603	12.62
722.629	5.62
722.655	1.62
722.681	-7.38
722.707	10.62
722.733	2.62
722.759	1.62
722.785	1.62
722.811	1.62
722.837	4.62
722.863	18.62
722.889	14.62
722.915	-4.38
722.941	-12.38
722.967	6.62
722.993	5.62
723.019	7.62
723.045	7.62
723.071	12.62
723.097	1.62
723.122	9.62
723.148	14.62
723.174	17.62
723.2	5.62
723.226	1.62
723.252	15.62
723.278	-2.38
723.304	-16.38
723.33	10.62
723.356	-7.38
723.381	-0.38
723.407	0.62
723.433	10.62
723.459	-9.38
723.485	-10.38
723.511	8.62
723.537	0.62
723.563	-8.38
723.588	8.62
723.614	2.62
723.64	-0.38
723.666	0.62
723.692	9.62
723.718	6.62
723.744	11.62
723.769	-1.38
723.795	3.62
723.821	18.62
723.847	2.62
723.873	0.62
723.899	5.62
723.924	-13.38
723.95	8.62
723.976	4.62
724.002	9.62
724.028	11.62
724.053	4.62
724.079	0.62
724.105	-2.38
724.131	1.62
724.157	6.62
724.182	10.62
724.208	12.62
724.234	8.62
724.26	12.62
724.286	12.62
724.311	2.62
724.337	-6.38
724.363	1.62
724.389	11.62
724.415	-7.38
724.44	11.62
724.466	-0.38
724.492	-1.38
724.518	5.62
724.543	8.62
724.569	7.62
724.595	15.62
724.621	8.62
724.646	2.62
724.672	4.62
724.698	8.62
724.723	-9.38
724.749	9.62
724.775	18.62
724.801	13.62
724.826	8.62
724.852	-7.38
724.878	-7.38
724.904	-16.38
724.929	3.62
724.955	-4.38
724.981	-4.38
725.006	5.62
725.032	-3.38
725.058	10.62
725.083	-6.38
725.109	-3.38
725.135	-1.38
725.161	9.62
725.186	-3.38
725.212	-9.38
725.238	-2.38
725.263	-1.38
725.289	-2.38
725.315	-2.38
725.34	12.62
725.366	3.62
725.392	-1.38
725.417	-8.38
725.443	-0.38
725.468	9.62
725.494	4.62
725.52	5.62
725.545	-3.38
725.571	3.62
725.597	3.62
725.622	8.62
725.648	9.62
725.674	6.62
725.699	-1.38
725.725	3.62
725.75	33.62
725.776	4.62
725.802	9.62
725.827	8.62
725.853	2.62
725.878	14.62
725.904	-0.38
725.93	-1.38
725.955	-1.38
725.981	-11.38
726.006	5.62
726.032	1.62
726.057	-6.38
726.083	-2.38
726.109	5.62
726.134	5.62
726.16	-1.38
726.185	6.62
726.211	4.62
726.236	3.62
726.262	15.62
726.288	18.62
726.313	16.62
726.339	8.62
726.364	2.62
726.39	12.62
726.415	-0.38
726.441	4.62
726.466	-0.38
726.492	1.62
726.517	19.62
726.543	16.62
726.568	-12.38
726.594	-3.38
726.619	14.62
726.645	19.62
726.67	2.62
726.696	6.62
726.721	-2.38
726.747	-13.38
726.772	6.62
726.798	3.62
726.823	0.62
726.849	0.62
726.874	15.62
726.9	18.62
726.925	27.62
726.951	14.62
726.976	17.62
727.002	-3.38
727.027	13.62
727.053	17.62
727.078	13.62
727.104	3.62
727.129	-4.38
727.155	-15.38
727.18	8.62
727.205	1.62
727.231	-5.38
727.256	-13.38
727.282	-7.38
727.307	16.62
727.333	-0.38
727.358	-1.38
727.383	-9.38
727.409	-13.38
727.434	3.62
727.46	5.62
727.485	10.62
727.511	12.62
727.536	-0.38
727.561	0.62
727.587	4.62
727.612	4.62
727.637	13.62
727.663	-18.38
727.688	15.62
727.714	-11.38
727.739	-0.38
727.764	-12.38
727.79	7.62
727.815	18.62
727.841	23.62
727.866	24.62
727.891	-0.38
727.917	0.62
727.942	-0.38
727.967	-4.38
727.993	-6.38
728.018	10.62
728.043	5.62
728.069	7.62
728.094	14.62
728.119	-3.38
728.145	3.62
728.17	11.62
728.195	-2.38
728.221	2.62
728.246	3.62
728.271	-12.38
728.297	-7.38
728.322	-0.38
728.347	18.62
728.373	-0.38
728.398	0.62
728.423	-9.38
728.448	5.62
728.474	-9.38
728.499	10.62
728.524	-4.38
728.55	-18.38
728.575	1.62
728.6	1.62
728.625	-8.38
728.651	10.62
728.676	1.62
728.701	11.62
728.727	1.62
728.752	-3.38
728.777	-3.38
728.802	-4.38
728.828	-1.38
728.853	-6.38
728.878	-4.38
728.903	-21.38
728.929	-6.38
728.954	-13.38
728.979	-1.38
729.004	1.62
729.03	-4.38
729.055	3.62
729.08	-16.38
729.105	-11.38
729.13	15.62
729.156	16.62
729.181	9.62
729.206	-9.38
729.231	-6.38
729.256	17.62
729.282	23.62
729.307	2.62
729.332	-10.38
729.357	-6.38
729.382	-12.38
729.408	-3.38
729.433	-0.38
729.458	-2.38
729.483	22.62
729.508	11.62
729.533	3.62
729.559	19.62
729.584	-4.38
729.609	6.62
729.634	15.62
729.659	1.62
729.684	-12.38
729.71	20.62
729.735	6.62
729.76	-7.38
729.785	2.62
729.81	11.62
729.835	11.62
729.86	10.62
729.886	9.62
729.911	23.62
729.936	18.62
729.961	29.62
729.986	18.62
730.011	64.62
730.036	205.62
730.061	1027.62
730.086	2678.62
730.112	3358.62
730.137	2788.62
730.162	2072.62
730.187	1634.62
730.212	1270.62
730.237	791.62
730.262	434.62
730.287	241.62
730.312	161.62
730.337	69.62
730.362	48.62
730.387	32.62
730.413	16.62
730.438	15.62
730.463	20.62
730.488	9.62
730.513	8.62
730.538	-7.38
730.563	33.62
730.588	24.62
730.613	21.62
730.638	8.62
730.663	-10.38
730.688	22.62
730.713	11.62
730.738	-0.38
730.763	-4.38
730.788	4.62
730.813	8.62
730.838	-0.38
730.863	-0.38
730.888	-6.38
730.913	5.62
730.938	-14.38
730.963	32.62
730.988	121.62
731.013	391.62
731.038	591.62
731.063	602.62
731.088	449.62
731.113	337.62
731.138	266.62
731.163	187.62
731.188	101.62
731.213	62.62
731.238	46.62
731.263	17.62
731.288	19.62
731.313	8.62
731.338	9.62
731.363	6.62
731.388	17.62
731.413	-3.38
731.438	11.62
731.463	12.62
731.487	18.62
731.512	15.62
731.537	2.62
731.562	-3.38
731.587	8.62
731.612	-25.38
731.637	0.62
731.662	-9.38
731.687	-8.38
731.712	-9.38
731.737	-5.38
731.762	0.62
731.786	8.62
731.811	2.62
731.836	11.62
731.861	1.62
731.886	4.62
731.911	8.62
731.936	18.62
731.961	6.62
731.986	-16.38
732.01	-6.38
732.035	2.62
732.06	15.62
732.085	0.62
732.11	14.62
732.135	0.62
732.16	7.62
732.184	12.62
732.209	-8.38
732.234	-5.38
732.259	-9.38
732.284	10.62
732.309	-4.38
732.334	-6.38
732.358	-21.38
732.383	-8.38
732.408	-8.38
732.433	10.62
732.458	6.62
732.482	2.62
732.507	10.62
732.532	-1.38
732.557	27.62
732.582	14.62
732.607	26.62
732.631	61.62
732.656	90.62
732.681	144.62
732.706	322.62
732.73	453.62
732.755	388.62
732.78	291.62
732.805	230.62
732.83	179.62
732.854	131.62
732.879	93.62
732.904	47.62
732.929	30.62
732.953	22.62
732.978	8.62
733.003	10.62
733.028	4.62
733.052	3.62
733.077	0.62
733.102	20.62
733.127	-1.38
733.151	6.62
733.176	8.62
733.201	-8.38
733.226	10.62
733.25	-0.38
733.275	-3.38
733.3	-6.38
733.324	20.62
733.349	-0.38
733.374	19.62
733.399	6.62
733.423	-4.38
733.448	3.62
733.473	16.62
733.497	12.62
733.522	-2.38
733.547	17.62
733.571	-9.38
733.596	1.62
733.621	-8.38
733.646	0.62
733.67	12.62
733.695	-0.38
733.72	8.62
733.744	22.62
733.769	0.62
733.794	19.62
733.818	-3.38
733.843	-4.38
733.867	-16.38
733.892	-3.38
733.917	0.62
733.941	4.62
733.966	6.62
733.991	4.62
734.015	25.62
734.04	14.62
734.065	12.62
734.089	18.62
734.114	-4.38
734.138	3.62
734.163	-6.38
734.188	7.62
734.212	1.62
734.237	-0.38
734.261	8.62
734.286	-7.38
734.311	-9.38
734.335	-5.38
734.36	-7.38
734.384	3.62
734.409	16.62
734.434	4.62
734.458	4.62
734.483	-8.38
734.507	-12.38
734.532	1.62
734.556	-5.38
734.581	2.62
734.606	0.62
734.63	-0.38
734.655	-6.38
734.679	1.62
734.704	12.62
734.728	-2.38
734.753	-1.38
734.777	-1.38
734.802	1.62
734.826	2.62
734.851	12.62
734.876	19.62
734.9	25.62
734.925	6.62
734.949	12.62
734.974	3.62
734.998	18.62
735.023	0.62
735.047	-3.38
735.072	22.62
735.096	2.62
735.121	-4.38
735.145	0.62
735.17	2.62
735.194	11.62
735.219	-8.38
735.243	-4.38
735.268	13.62
735.292	15.62
735.317	8.62
735.341	1.62
735.365	-2.38
735.39	8.62
735.414	15.62
735.439	14.62
735.463	0.62
735.488	8.62
735.512	-5.38
735.537	13.62
735.561	11.62
735.586	16.62
735.61	8.62
735.634	-1.38
735.659	13.62
735.683	28.62
735.708	-8.38
735.732	-22.38
735.757	-0.38
735.781	0.62
735.805	-5.38
735.83	-16.38
735.854	-9.38
735.879	17.62
735.903	12.62
735.927	13.62
735.952	10.62
735.976	8.62
736.001	-2.38
736.025	5.62
736.049	15.62
736.074	-0.38
736.098	-4.38
736.123	11.62
736.147	-3.38
736.171	-4.38
736.196	-1.38
736.22	-0.38
736.244	3.62
736.269	1.62
736.293	-0.38
736.317	10.62
736.342	3.62
736.366	15.62
736.39	19.62
736.415	4.62
736.439	4.62
736.463	15.62
736.488	9.62
736.512	5.62
736.536	-2.38
736.561	23.62
736.585	5.62
736.609	14.62
736.634	-1.38
736.658	0.62
736.682	2.62
736.707	-13.38
736.731	-4.38
736.755	-11.38
736.78	24.62
736.804	26.62
736.828	15.62
736.852	-1.38
736.877	16.62
736.901	-1.38
736.925	-7.38
736.949	8.62
736.974	6.62
736.998	-4.38
737.022	-5.38
737.047	5.62
737.071	24.62
737.095	8.62
737.119	24.62
737.144	5.62
737.168	-7.38
737.192	1.62
737.216	30.62
737.241	-0.38
737.265	12.62
737.289	1.62
737.313	12.62
737.337	2.62
737.362	9.62
737.386	6.62
737.41	-1.38
737.434	6.62
737.459	18.62
737.483	14.62
737.507	11.62
737.531	13.62
737.555	5.62
737.58	3.62
737.604	10.62
737.628	-7.38
737.652	-11.38
737.676	-5.38
737.701	14.62
737.725	7.62
737.749	-2.38
737.773	6.62
737.797	1.62
737.821	-0.38
737.846	9.62
737.87	12.62
737.894	7.62
737.918	-4.38
737.942	5.62
737.966	-2.38
737.99	8.62
738.015	-0.38
738.039	1.62
738.063	8.62
738.087	20.62
738.111	-1.38
738.135	6.62
738.159	5.62
738.184	1.62
738.208	6.62
738.232	4.62
738.256	18.62
738.28	2.62
738.304	9.62
738.328	-13.38
738.352	12.62
738.376	8.62
738.4	18.62
738.425	7.62
738.449	5.62
738.473	16.62
738.497	13.62
738.521	22.62
738.545	18.62
738.569	19.62
738.593	19.62
738.617	7.62
738.641	7.62
738.665	-13.38
738.689	18.62
738.713	-5.38
738.737	-6.38
738.762	10.62
738.786	8.62
738.81	-8.38
738.834	22.62
738.858	-3.38
738.882	18.62
738.906	1.62
738.93	13.62
738.954	4.62
738.978	12.62
739.002	-8.38
739.026	15.62
739.05	14.62
739.074	-3.38
739.098	33.62
739.122	18.62
739.146	17.62
739.17	4.62
739.194	11.62
739.218	1.62
739.242	-4.38
739.266	-4.38
739.29	5.62
739.314	-0.38
739.338	2.62
739.362	6.62
739.386	8.62
739.41	-5.38
739.434	-4.38
739.458	7.62
739.482	9.62
739.506	6.62
739.53	1.62
739.554	16.62
739.577	6.62
739.601	-0.38
739.625	-0.38
739.649	2.62
739.673	6.62
739.697	5.62
739.721	6.62
739.745	11.62
739.769	7.62
739.793	14.62
739.817	24.62
739.841	10.62
739.865	15.62
739.889	-0.38
739.912	14.62
739.936	6.62
739.96	15.62
739.984	18.62
740.008	4.62
740.032	-5.38
740.056	-2.38
740.08	9.62
740.104	-0.38
740.127	5.62
740.151	10.62
740.175	8.62
740.199	16.62
740.223	52.62
740.247	17.62
740.271	-2.38
740.295	0.62
740.318	-12.38
740.342	-10.38
740.366	-4.38
740.39	14.62
740.414	6.62
740.438	-5.38
740.461	12.62
740.485	18.62
740.509	-5.38
740.533	8.62
740.557	17.62
740.581	10.62
740.604	-15.38
740.628	8.62
740.652	12.62
740.676	6.62
740.7	0.62
740.723	-13.38
740.747	4.62
740.771	2.62
740.795	-11.38
740.819	18.62
740.842	10.62
740.866	7.62
740.89	4.62
740.914	10.62
740.938	-4.38
740.961	32.62
740.985	22.62
741.009	-12.38
741.033	11.62
741.056	6.62
741.08	-6.38
741.104	1.62
741.128	6.62
741.151	9.62
741.175	12.62
741.199	5.62
741.223	7.62
741.246	1.62
741.27	9.62
741.294	22.62
741.318	1.62
741.341	-2.38
741.365	9.62
741.389	7.62
741.413	7.62
741.436	22.62
741.46	8.62
741.484	4.62
741.507	-9.38
741.531	25.62
741.555	18.62
741.579	15.62
741.602	5.62
741.626	1.62
741.65	-6.38
741.673	12.62
741.697	16.62
741.721	10.62
741.744	-4.38
741.768	-8.38
741.792	9.62
741.815	-6.38
741.839	13.62
741.863	18.62
741.886	13.62
741.91	1.62
741.934	1.62
741.957	-11.38
741.981	14.62
742.005	-7.38
742.028	5.62
742.052	12.62
742.075	14.62
742.099	6.62
742.123	-7.38
742.146	-1.38
742.17	6.62
742.194	-9.38
742.217	-12.38
742.241	-11.38
742.264	9.62
742.288	12.62
742.312	4.62
742.335	3.62
742.359	0.62
742.382	11.62
742.406	20.62
742.43	-4.38
742.453	-7.38
742.477	-20.38
742.5	-12.38
742.524	4.62
742.548	-0.38
742.571	10.62
742.595	12.62
742.618	5.62
742.642	-7.38
742.665	20.62
742.689	-2.38
742.712	18.62
742.736	11.62
742.76	18.62
742.783	-3.38
742.807	-2.38
742.83	12.62
742.854	-7.38
742.877	0.62
742.901	-1.38
742.924	-5.38
742.948	-5.38
742.971	16.62
742.995	0.62
743.018	-12.38
743.042	-10.38
743.065	1.62
743.089	-5.38
743.112	-4.38
743.136	4.62
743.159	15.62
743.183	-3.38
743.206	22.62
743.23	6.62
743.253	5.62
743.277	18.62
743.3	15.62
743.324	3.62
743.347	-7.38
743.371	16.62
743.394	23.62
743.418	10.62
743.441	17.62
743.465	8.62
743.488	7.62
743.512	-1.38
743.535	-1.38
743.558	4.62
743.582	-3.38
743.605	3.62
743.629	11.62
743.652	11.62
743.676	-6.38
743.699	-1.38
743.723	19.62
743.746	13.62
743.769	18.62
743.793	9.62
743.816	2.62
743.84	14.62
743.863	-14.38
743.886	9.62
743.91	7.62
743.933	3.62
743.957	26.62
743.98	7.62
744.003	5.62
744.027	30.62
744.05	3.62
744.074	6.62
744.097	-14.38
744.12	-3.38
744.144	-10.38
744.167	3.62
744.19	-5.38
744.214	8.62
744.237	-12.38
744.26	23.62
744.284	12.62
744.307	-6.38
744.331	2.62
744.354	-13.38
744.377	-11.38
744.401	-4.38
744.424	-19.38
744.447	-11.38
744.471	-16.38
