Data from HighRes_mercury_15_13_11_07_2024_HR4C61891__39__15-14-27-086.txt Node

Date: Thu Nov 07 15:14:27 EST 2024
User: crc00042
Spectrometer: HR4C6189
Trigger mode: 4
Integration Time (sec): 1.000000E-1
Scans to average: 1
Electric dark correction enabled: true
Nonlinearity correction enabled: false
Boxcar width: 0
XAxis mode: Wavelengths
Number of Pixels in Spectrum: 3648
>>>>>Begin Spectral Data<<<<<
639.567	-61.15
639.602	-61.15
639.636	-61.15
639.67	-49.15
639.704	-17.15
639.738	-5.15
639.773	11.85
639.807	-14.15
639.841	-7.15
639.875	4.85
639.909	-12.15
639.943	-15.15
639.978	0.85
640.012	3.85
640.046	24.85
640.08	12.85
640.114	4.85
640.148	-10.15
640.182	5.85
640.217	-2.15
640.251	2.85
640.285	6.85
640.319	-16.15
640.353	-8.15
640.387	4.85
640.421	-6.15
640.455	2.85
640.49	6.85
640.524	11.85
640.558	8.85
640.592	-1.15
640.626	2.85
640.66	20.85
640.694	-2.15
640.728	-12.15
640.762	16.85
640.796	18.85
640.83	14.85
640.865	-6.15
640.899	3.85
640.933	-1.15
640.967	6.85
641.001	8.85
641.035	-12.15
641.069	3.85
641.103	-16.15
641.137	12.85
641.171	-6.15
641.205	4.85
641.239	4.85
641.273	14.85
641.307	17.85
641.341	13.85
641.375	1.85
641.409	3.85
641.443	5.85
641.477	9.85
641.511	2.85
641.545	5.85
641.579	-4.15
641.614	8.85
641.648	4.85
641.682	-15.15
641.716	18.85
641.75	14.85
641.784	-6.15
641.818	6.85
641.852	3.85
641.886	-11.15
641.919	15.85
641.953	0.85
641.987	-11.15
642.021	-2.15
642.055	-3.15
642.089	-3.15
642.123	-11.15
642.157	9.85
642.191	9.85
642.225	11.85
642.259	-12.15
642.293	2.85
642.327	-1.15
642.361	-4.15
642.395	9.85
642.429	10.85
642.463	11.85
642.497	17.85
642.531	-2.15
642.565	-8.15
642.599	0.85
642.633	-12.15
642.666	6.85
642.7	17.85
642.734	6.85
642.768	-13.15
642.802	-6.15
642.836	6.85
642.87	0.85
642.904	0.85
642.938	9.85
642.972	4.85
643.005	-17.15
643.039	11.85
643.073	5.85
643.107	17.85
643.141	-0.15
643.175	12.85
643.209	1.85
643.243	8.85
643.276	4.85
643.31	-7.15
643.344	5.85
643.378	8.85
643.412	24.85
643.446	6.85
643.48	10.85
643.513	8.85
643.547	0.85
643.581	-1.15
643.615	12.85
643.649	2.85
643.683	4.85
643.716	-5.15
643.75	7.85
643.784	-32.15
643.818	2.85
643.852	-10.15
643.886	15.85
643.919	11.85
643.953	-14.15
643.987	-1.15
644.021	15.85
644.055	20.85
644.088	7.85
644.122	-11.15
644.156	3.85
644.19	6.85
644.224	7.85
644.257	15.85
644.291	11.85
644.325	0.85
644.359	-8.15
644.392	4.85
644.426	10.85
644.46	14.85
644.494	14.85
644.527	-3.15
644.561	1.85
644.595	6.85
644.629	-1.15
644.662	-17.15
644.696	8.85
644.73	-2.15
644.764	5.85
644.797	6.85
644.831	-1.15
644.865	5.85
644.899	14.85
644.932	17.85
644.966	4.85
645	5.85
645.033	-1.15
645.067	6.85
645.101	-0.15
645.135	1.85
645.168	2.85
645.202	24.85
645.236	9.85
645.269	22.85
645.303	1.85
645.337	-11.15
645.37	-9.15
645.404	14.85
645.438	16.85
645.471	-4.15
645.505	7.85
645.539	-12.15
645.572	-22.15
645.606	-10.15
645.64	2.85
645.673	27.85
645.707	9.85
645.741	4.85
645.774	10.85
645.808	1.85
645.842	-4.15
645.875	8.85
645.909	-7.15
645.943	1.85
645.976	-3.15
646.01	8.85
646.043	7.85
646.077	7.85
646.111	19.85
646.144	21.85
646.178	17.85
646.212	-16.15
646.245	-1.15
646.279	8.85
646.312	-6.15
646.346	5.85
646.38	3.85
646.413	9.85
646.447	-0.15
646.48	-8.15
646.514	-4.15
646.547	11.85
646.581	-18.15
646.615	3.85
646.648	2.85
646.682	4.85
646.715	-12.15
646.749	2.85
646.782	1.85
646.816	-3.15
646.85	8.85
646.883	13.85
646.917	3.85
646.95	3.85
646.984	9.85
647.017	4.85
647.051	-0.15
647.084	-6.15
647.118	0.85
647.151	12.85
647.185	15.85
647.218	-8.15
647.252	-1.15
647.285	-13.15
647.319	-10.15
647.353	1.85
647.386	17.85
647.42	-7.15
647.453	-5.15
647.487	17.85
647.52	6.85
647.553	3.85
647.587	-9.15
647.62	-10.15
647.654	1.85
647.687	7.85
647.721	2.85
647.754	15.85
647.788	23.85
647.821	-0.15
647.855	-10.15
647.888	14.85
647.922	11.85
647.955	-2.15
647.989	23.85
648.022	3.85
648.055	2.85
648.089	3.85
648.122	18.85
648.156	-2.15
648.189	0.85
648.223	4.85
648.256	21.85
648.29	6.85
648.323	-10.15
648.356	1.85
648.39	-0.15
648.423	-4.15
648.457	9.85
648.49	9.85
648.523	8.85
648.557	5.85
648.59	5.85
648.624	3.85
648.657	-1.15
648.69	12.85
648.724	12.85
648.757	38.85
648.791	8.85
648.824	7.85
648.857	14.85
648.891	-9.15
648.924	-1.15
648.957	37.85
648.991	5.85
649.024	7.85
649.057	5.85
649.091	1.85
649.124	8.85
649.158	5.85
649.191	5.85
649.224	9.85
649.258	6.85
649.291	14.85
649.324	2.85
649.358	5.85
649.391	4.85
649.424	9.85
649.458	8.85
649.491	1.85
649.524	-19.15
649.557	-6.15
649.591	-18.15
649.624	10.85
649.657	-14.15
649.691	0.85
649.724	-1.15
649.757	-4.15
649.791	-9.15
649.824	17.85
649.857	27.85
649.89	9.85
649.924	-23.15
649.957	-18.15
649.99	-7.15
650.023	3.85
650.057	-6.15
650.09	7.85
650.123	2.85
650.157	11.85
650.19	31.85
650.223	-11.15
650.256	-10.15
650.29	17.85
650.323	8.85
650.356	-6.15
650.389	-22.15
650.423	-17.15
650.456	4.85
650.489	2.85
650.522	-6.15
650.555	2.85
650.589	-0.15
650.622	4.85
650.655	17.85
650.688	13.85
650.721	9.85
650.755	-1.15
650.788	11.85
650.821	6.85
650.854	6.85
650.887	19.85
650.921	-6.15
650.954	-6.15
650.987	-7.15
651.02	-6.15
651.053	-15.15
651.087	-1.15
651.12	9.85
651.153	10.85
651.186	11.85
651.219	-3.15
651.252	8.85
651.286	0.85
651.319	11.85
651.352	-1.15
651.385	14.85
651.418	5.85
651.451	24.85
651.484	15.85
651.518	-4.15
651.551	8.85
651.584	-11.15
651.617	12.85
651.65	-6.15
651.683	2.85
651.716	3.85
651.749	-17.15
651.783	3.85
651.816	-2.15
651.849	4.85
651.882	15.85
651.915	-8.15
651.948	6.85
651.981	3.85
652.014	2.85
652.047	-3.15
652.08	-16.15
652.114	7.85
652.147	4.85
652.18	18.85
652.213	13.85
652.246	0.85
652.279	-10.15
652.312	3.85
652.345	-17.15
652.378	9.85
652.411	25.85
652.444	28.85
652.477	9.85
652.51	22.85
652.543	-6.15
652.576	14.85
652.609	4.85
652.642	17.85
652.675	14.85
652.709	14.85
652.742	15.85
652.775	7.85
652.808	8.85
652.841	0.85
652.874	-4.15
652.907	18.85
652.94	-2.15
652.973	-5.15
653.006	-9.15
653.039	3.85
653.072	11.85
653.105	6.85
653.138	-25.15
653.171	-6.15
653.204	7.85
653.237	6.85
653.27	-13.15
653.303	2.85
653.336	3.85
653.368	-14.15
653.401	-4.15
653.434	4.85
653.467	11.85
653.5	-10.15
653.533	8.85
653.566	9.85
653.599	-3.15
653.632	5.85
653.665	4.85
653.698	-12.15
653.731	5.85
653.764	5.85
653.797	8.85
653.83	2.85
653.863	6.85
653.896	-7.15
653.929	-1.15
653.961	7.85
653.994	2.85
654.027	-15.15
654.06	14.85
654.093	18.85
654.126	3.85
654.159	-5.15
654.192	20.85
654.225	-1.15
654.258	-6.15
654.29	-0.15
654.323	-12.15
654.356	-7.15
654.389	3.85
654.422	7.85
654.455	-7.15
654.488	10.85
654.521	-5.15
654.553	-8.15
654.586	4.85
654.619	16.85
654.652	0.85
654.685	12.85
654.718	8.85
654.751	0.85
654.783	3.85
654.816	15.85
654.849	-13.15
654.882	-6.15
654.915	7.85
654.948	4.85
654.98	7.85
655.013	-0.15
655.046	2.85
655.079	-4.15
655.112	-3.15
655.144	-14.15
655.177	12.85
655.21	23.85
655.243	9.85
655.276	11.85
655.308	-2.15
655.341	0.85
655.374	2.85
655.407	-0.15
655.44	-7.15
655.472	17.85
655.505	4.85
655.538	2.85
655.571	0.85
655.603	-3.15
655.636	3.85
655.669	7.85
655.702	-2.15
655.734	-4.15
655.767	-6.15
655.8	1.85
655.833	15.85
655.865	18.85
655.898	0.85
655.931	1.85
655.964	2.85
655.996	-7.15
656.029	1.85
656.062	-19.15
656.095	-1.15
656.127	-6.15
656.16	6.85
656.193	4.85
656.225	3.85
656.258	17.85
656.291	16.85
656.324	-4.15
656.356	0.85
656.389	18.85
656.422	18.85
656.454	-20.15
656.487	8.85
656.52	4.85
656.552	-2.15
656.585	5.85
656.618	13.85
656.65	14.85
656.683	-6.15
656.716	12.85
656.748	-3.15
656.781	-0.15
656.814	-4.15
656.846	-7.15
656.879	-8.15
656.912	7.85
656.944	7.85
656.977	3.85
657.01	10.85
657.042	5.85
657.075	5.85
657.108	-7.15
657.14	-1.15
657.173	11.85
657.205	25.85
657.238	24.85
657.271	-2.15
657.303	-10.15
657.336	3.85
657.369	3.85
657.401	-3.15
657.434	3.85
657.466	17.85
657.499	1.85
657.532	-0.15
657.564	-3.15
657.597	-8.15
657.629	-10.15
657.662	11.85
657.694	8.85
657.727	-0.15
657.76	14.85
657.792	0.85
657.825	-7.15
657.857	-6.15
657.89	2.85
657.922	-0.15
657.955	-4.15
657.987	1.85
658.02	15.85
658.053	7.85
658.085	-12.15
658.118	10.85
658.15	13.85
658.183	16.85
658.215	4.85
658.248	-0.15
658.28	-15.15
658.313	2.85
658.345	-1.15
658.378	11.85
658.41	-3.15
658.443	18.85
658.475	0.85
658.508	-11.15
658.54	-4.15
658.573	-2.15
658.605	9.85
658.638	5.85
658.67	-1.15
658.703	6.85
658.735	-4.15
658.768	14.85
658.8	-8.15
658.833	2.85
658.865	-9.15
658.898	6.85
658.93	-5.15
658.963	1.85
658.995	-10.15
659.028	-5.15
659.06	-0.15
659.092	-4.15
659.125	-1.15
659.157	13.85
659.19	-1.15
659.222	-6.15
659.255	-1.15
659.287	1.85
659.32	-4.15
659.352	-2.15
659.384	18.85
659.417	-7.15
659.449	0.85
659.482	2.85
659.514	-10.15
659.546	-13.15
659.579	-6.15
659.611	-1.15
659.644	-3.15
659.676	-3.15
659.708	2.85
659.741	0.85
659.773	6.85
659.806	4.85
659.838	11.85
659.87	-7.15
659.903	-10.15
659.935	0.85
659.967	-3.15
660	-0.15
660.032	-26.15
660.065	0.85
660.097	1.85
660.129	-0.15
660.162	-12.15
660.194	1.85
660.226	6.85
660.259	-6.15
660.291	9.85
660.323	3.85
660.356	2.85
660.388	-13.15
660.42	-0.15
660.453	-1.15
660.485	2.85
660.517	5.85
660.55	15.85
660.582	13.85
660.614	8.85
660.647	0.85
660.679	-15.15
660.711	3.85
660.743	-6.15
660.776	-4.15
660.808	-9.15
660.84	1.85
660.873	-1.15
660.905	1.85
660.937	-4.15
660.969	-0.15
661.002	1.85
661.034	12.85
661.066	8.85
661.099	5.85
661.131	4.85
661.163	3.85
661.195	-4.15
661.228	18.85
661.26	-5.15
661.292	-6.15
661.324	0.85
661.357	7.85
661.389	6.85
661.421	12.85
661.453	-6.15
661.485	7.85
661.518	6.85
661.55	-11.15
661.582	-9.15
661.614	9.85
661.647	14.85
661.679	3.85
661.711	10.85
661.743	-3.15
661.775	3.85
661.808	17.85
661.84	-11.15
661.872	14.85
661.904	-14.15
661.936	-3.15
661.969	-9.15
662.001	5.85
662.033	0.85
662.065	-8.15
662.097	10.85
662.129	-1.15
662.162	-4.15
662.194	-5.15
662.226	-4.15
662.258	8.85
662.29	-5.15
662.322	-8.15
662.355	-9.15
662.387	8.85
662.419	6.85
662.451	6.85
662.483	-1.15
662.515	2.85
662.547	12.85
662.58	-14.15
662.612	-6.15
662.644	-18.15
662.676	-2.15
662.708	13.85
662.74	5.85
662.772	8.85
662.804	16.85
662.836	16.85
662.869	0.85
662.901	18.85
662.933	5.85
662.965	8.85
662.997	21.85
663.029	-2.15
663.061	2.85
663.093	-12.15
663.125	11.85
663.157	6.85
663.189	-0.15
663.221	22.85
663.254	2.85
663.286	14.85
663.318	12.85
663.35	-6.15
663.382	-1.15
663.414	9.85
663.446	8.85
663.478	1.85
663.51	31.85
663.542	-3.15
663.574	7.85
663.606	1.85
663.638	-4.15
663.67	-16.15
663.702	-13.15
663.734	5.85
663.766	3.85
663.798	-4.15
663.83	7.85
663.862	5.85
663.894	11.85
663.926	-1.15
663.958	0.85
663.99	1.85
664.022	5.85
664.054	8.85
664.086	-2.15
664.118	-9.15
664.15	1.85
664.182	11.85
664.214	7.85
664.246	15.85
664.278	0.85
664.31	19.85
664.342	-5.15
664.374	3.85
664.406	3.85
664.438	-9.15
664.47	6.85
664.502	-1.15
664.534	-13.15
664.566	-0.15
664.598	7.85
664.63	-11.15
664.662	2.85
664.693	1.85
664.725	-2.15
664.757	-7.15
664.789	-2.15
664.821	9.85
664.853	2.85
664.885	-5.15
664.917	6.85
664.949	12.85
664.981	17.85
665.013	5.85
665.045	-8.15
665.076	-5.15
665.108	15.85
665.14	3.85
665.172	12.85
665.204	-10.15
665.236	12.85
665.268	1.85
665.3	2.85
665.331	1.85
665.363	9.85
665.395	5.85
665.427	-5.15
665.459	-0.15
665.491	-6.15
665.523	1.85
665.555	-2.15
665.586	2.85
665.618	1.85
665.65	-9.15
665.682	5.85
665.714	21.85
665.746	3.85
665.777	21.85
665.809	0.85
665.841	0.85
665.873	-1.15
665.905	14.85
665.937	2.85
665.968	0.85
666	2.85
666.032	0.85
666.064	-8.15
666.096	-1.15
666.127	17.85
666.159	8.85
666.191	18.85
666.223	5.85
666.255	13.85
666.286	9.85
666.318	8.85
666.35	25.85
666.382	12.85
666.413	-13.15
666.445	-17.15
666.477	-20.15
666.509	-17.15
666.54	-5.15
666.572	6.85
666.604	-5.15
666.636	7.85
666.667	16.85
666.699	9.85
666.731	2.85
666.763	-9.15
666.794	-10.15
666.826	6.85
666.858	-5.15
666.89	9.85
666.921	3.85
666.953	0.85
666.985	8.85
667.017	14.85
667.048	21.85
667.08	5.85
667.112	-5.15
667.143	-16.15
667.175	5.85
667.207	-10.15
667.238	-9.15
667.27	-6.15
667.302	-8.15
667.334	-3.15
667.365	11.85
667.397	-1.15
667.429	-16.15
667.46	0.85
667.492	11.85
667.524	6.85
667.555	2.85
667.587	-8.15
667.619	-5.15
667.65	-13.15
667.682	11.85
667.714	5.85
667.745	-0.15
667.777	-2.15
667.808	8.85
667.84	5.85
667.872	-9.15
667.903	5.85
667.935	-4.15
667.967	6.85
667.998	3.85
668.03	1.85
668.061	6.85
668.093	10.85
668.125	9.85
668.156	-1.15
668.188	-7.15
668.22	-1.15
668.251	12.85
668.283	-0.15
668.314	19.85
668.346	16.85
668.377	17.85
668.409	14.85
668.441	26.85
668.472	-5.15
668.504	-0.15
668.535	1.85
668.567	9.85
668.599	-2.15
668.63	-9.15
668.662	2.85
668.693	7.85
668.725	9.85
668.756	-1.15
668.788	-0.15
668.819	7.85
668.851	0.85
668.882	-1.15
668.914	-6.15
668.946	-10.15
668.977	-10.15
669.009	-8.15
669.04	10.85
669.072	14.85
669.103	18.85
669.135	5.85
669.166	-1.15
669.198	-2.15
669.229	2.85
669.261	-2.15
669.292	10.85
669.324	0.85
669.355	-2.15
669.387	-13.15
669.418	15.85
669.45	-7.15
669.481	18.85
669.513	7.85
669.544	1.85
669.576	-3.15
669.607	1.85
669.639	9.85
669.67	3.85
669.701	10.85
669.733	-30.15
669.764	0.85
669.796	6.85
669.827	-11.15
669.859	-11.15
669.89	2.85
669.922	21.85
669.953	-5.15
669.985	4.85
670.016	15.85
670.047	-9.15
670.079	7.85
670.11	1.85
670.142	16.85
670.173	1.85
670.204	5.85
670.236	10.85
670.267	-12.15
670.299	8.85
670.33	-2.15
670.362	-4.15
670.393	-15.15
670.424	6.85
670.456	-8.15
670.487	11.85
670.518	-1.15
670.55	-7.15
670.581	5.85
670.613	18.85
670.644	-8.15
670.675	-11.15
670.707	-3.15
670.738	4.85
670.769	11.85
670.801	-14.15
670.832	-5.15
670.864	-21.15
670.895	-7.15
670.926	9.85
670.958	-9.15
670.989	0.85
671.02	12.85
671.052	0.85
671.083	-1.15
671.114	-5.15
671.146	16.85
671.177	9.85
671.208	-12.15
671.24	-11.15
671.271	8.85
671.302	6.85
671.333	-8.15
671.365	-6.15
671.396	-4.15
671.427	9.85
671.459	9.85
671.49	-7.15
671.521	-0.15
671.553	2.85
671.584	2.85
671.615	4.85
671.646	12.85
671.678	-6.15
671.709	1.85
671.74	-14.15
671.771	-19.15
671.803	-5.15
671.834	12.85
671.865	0.85
671.896	8.85
671.928	-6.15
671.959	-18.15
671.99	-5.15
672.021	4.85
672.053	-5.15
672.084	25.85
672.115	21.85
672.146	2.85
672.178	-7.15
672.209	1.85
672.24	18.85
672.271	6.85
672.303	19.85
672.334	-0.15
672.365	2.85
672.396	5.85
672.427	2.85
672.459	11.85
672.49	24.85
672.521	9.85
672.552	15.85
672.583	5.85
672.615	4.85
672.646	1.85
672.677	-0.15
672.708	-2.15
672.739	-3.15
672.77	13.85
672.802	-1.15
672.833	4.85
672.864	10.85
672.895	-4.15
672.926	-3.15
672.957	-0.15
672.989	-7.15
673.02	9.85
673.051	3.85
673.082	13.85
673.113	-6.15
673.144	10.85
673.175	4.85
673.206	-1.15
673.238	12.85
673.269	-5.15
673.3	-10.15
673.331	20.85
673.362	3.85
673.393	5.85
673.424	12.85
673.455	11.85
673.487	-2.15
673.518	12.85
673.549	3.85
673.58	-2.15
673.611	4.85
673.642	-2.15
673.673	-15.15
673.704	2.85
673.735	11.85
673.766	-5.15
673.797	4.85
673.828	14.85
673.86	2.85
673.891	-2.15
673.922	-13.15
673.953	0.85
673.984	1.85
674.015	26.85
674.046	8.85
674.077	0.85
674.108	-11.15
674.139	-2.15
674.17	-4.15
674.201	-13.15
674.232	-9.15
674.263	7.85
674.294	-0.15
674.325	-1.15
674.356	-2.15
674.387	22.85
674.418	22.85
674.449	-0.15
674.48	6.85
674.511	-16.15
674.542	11.85
674.573	-10.15
674.604	12.85
674.635	-1.15
674.666	10.85
674.697	1.85
674.728	5.85
674.759	-3.15
674.79	-4.15
674.821	-7.15
674.852	-6.15
674.883	6.85
674.914	9.85
674.945	5.85
674.976	19.85
675.007	-8.15
675.038	-9.15
675.069	-8.15
675.1	-4.15
675.131	-14.15
675.162	-17.15
675.193	0.85
675.224	3.85
675.254	20.85
675.285	9.85
675.316	24.85
675.347	-1.15
675.378	-17.15
675.409	-4.15
675.44	10.85
675.471	13.85
675.502	-5.15
675.533	-1.15
675.564	-7.15
675.595	1.85
675.625	3.85
675.656	18.85
675.687	10.85
675.718	-13.15
675.749	17.85
675.78	3.85
675.811	9.85
675.842	6.85
675.873	-9.15
675.903	-5.15
675.934	4.85
675.965	-10.15
675.996	-14.15
676.027	0.85
676.058	-10.15
676.089	-20.15
676.119	16.85
676.15	2.85
676.181	4.85
676.212	15.85
676.243	4.85
676.274	-1.15
676.304	8.85
676.335	-17.15
676.366	9.85
676.397	4.85
676.428	-0.15
676.459	6.85
676.489	8.85
676.52	20.85
676.551	5.85
676.582	12.85
676.613	4.85
676.643	2.85
676.674	24.85
676.705	4.85
676.736	12.85
676.767	13.85
676.797	3.85
676.828	-6.15
676.859	4.85
676.89	4.85
676.92	2.85
676.951	4.85
676.982	5.85
677.013	-4.15
677.044	20.85
677.074	22.85
677.105	-11.15
677.136	14.85
677.167	3.85
677.197	2.85
677.228	4.85
677.259	-9.15
677.289	-14.15
677.32	-15.15
677.351	-10.15
677.382	-2.15
677.412	-12.15
677.443	13.85
677.474	-4.15
677.505	-13.15
677.535	0.85
677.566	7.85
677.597	9.85
677.627	-11.15
677.658	11.85
677.689	5.85
677.72	-6.15
677.75	-1.15
677.781	2.85
677.812	20.85
677.842	12.85
677.873	7.85
677.904	-4.15
677.934	0.85
677.965	-0.15
677.996	-15.15
678.026	10.85
678.057	24.85
678.088	-12.15
678.118	-5.15
678.149	7.85
678.18	-2.15
678.21	-0.15
678.241	2.85
678.272	-2.15
678.302	-4.15
678.333	8.85
678.363	3.85
678.394	7.85
678.425	-7.15
678.455	-6.15
678.486	6.85
678.517	2.85
678.547	-5.15
678.578	9.85
678.608	-7.15
678.639	6.85
678.67	10.85
678.7	-8.15
678.731	1.85
678.761	-5.15
678.792	12.85
678.823	11.85
678.853	16.85
678.884	4.85
678.914	10.85
678.945	2.85
678.975	-3.15
679.006	4.85
679.037	-2.15
679.067	3.85
679.098	-14.15
679.128	-11.15
679.159	3.85
679.189	10.85
679.22	-5.15
679.25	-1.15
679.281	17.85
679.312	-5.15
679.342	5.85
679.373	40.85
679.403	2.85
679.434	13.85
679.464	5.85
679.495	9.85
679.525	10.85
679.556	10.85
679.586	7.85
679.617	7.85
679.647	5.85
679.678	7.85
679.708	2.85
679.739	2.85
679.769	5.85
679.8	-1.15
679.83	-1.15
679.861	1.85
679.891	9.85
679.922	-7.15
679.952	-8.15
679.983	14.85
680.013	1.85
680.044	6.85
680.074	14.85
680.105	24.85
680.135	2.85
680.165	-0.15
680.196	4.85
680.226	4.85
680.257	8.85
680.287	-1.15
680.318	19.85
680.348	9.85
680.379	6.85
680.409	7.85
680.439	-2.15
680.47	11.85
680.5	-6.15
680.531	-6.15
680.561	13.85
680.592	13.85
680.622	14.85
680.652	4.85
680.683	12.85
680.713	11.85
680.744	-12.15
680.774	-1.15
680.804	22.85
680.835	17.85
680.865	-3.15
680.896	13.85
680.926	19.85
680.956	2.85
680.987	2.85
681.017	-3.15
681.047	0.85
681.078	-25.15
681.108	-6.15
681.139	-1.15
681.169	4.85
681.199	-14.15
681.23	5.85
681.26	-1.15
681.29	12.85
681.321	-4.15
681.351	3.85
681.381	-0.15
681.412	8.85
681.442	10.85
681.472	21.85
681.503	3.85
681.533	3.85
681.563	-5.15
681.594	-5.15
681.624	11.85
681.654	-14.15
681.685	-4.15
681.715	4.85
681.745	-8.15
681.775	-16.15
681.806	6.85
681.836	9.85
681.866	-4.15
681.897	7.85
681.927	1.85
681.957	-24.15
681.987	11.85
682.018	11.85
682.048	-2.15
682.078	-6.15
682.109	22.85
682.139	19.85
682.169	23.85
682.199	1.85
682.23	-14.15
682.26	-6.15
682.29	-10.15
682.32	-11.15
682.351	-7.15
682.381	12.85
682.411	-8.15
682.441	-1.15
682.472	-12.15
682.502	-8.15
682.532	-7.15
682.562	-3.15
682.592	6.85
682.623	5.85
682.653	12.85
682.683	4.85
682.713	10.85
682.743	11.85
682.774	15.85
682.804	7.85
682.834	18.85
682.864	-9.15
682.894	-3.15
682.925	-9.15
682.955	-12.15
682.985	-3.15
683.015	-7.15
683.045	22.85
683.076	4.85
683.106	6.85
683.136	-11.15
683.166	-8.15
683.196	2.85
683.226	-5.15
683.257	-2.15
683.287	3.85
683.317	-10.15
683.347	-1.15
683.377	-7.15
683.407	8.85
683.437	8.85
683.468	7.85
683.498	-8.15
683.528	-0.15
683.558	17.85
683.588	-9.15
683.618	-0.15
683.648	-7.15
683.678	7.85
683.708	11.85
683.739	14.85
683.769	-3.15
683.799	1.85
683.829	1.85
683.859	1.85
683.889	10.85
683.919	-1.15
683.949	10.85
683.979	-7.15
684.009	2.85
684.039	1.85
684.07	0.85
684.1	5.85
684.13	3.85
684.16	7.85
684.19	-10.15
684.22	-1.15
684.25	-10.15
684.28	-10.15
684.31	37.85
684.34	10.85
684.37	11.85
684.4	-10.15
684.43	0.85
684.46	18.85
684.49	19.85
684.52	-0.15
684.55	-5.15
684.58	-6.15
684.61	-2.15
684.64	1.85
684.67	0.85
684.7	1.85
684.73	9.85
684.76	-0.15
684.79	20.85
684.82	-1.15
684.85	0.85
684.88	9.85
684.91	7.85
684.94	-4.15
684.97	-8.15
685	-4.15
685.03	-2.15
685.06	19.85
685.09	-11.15
685.12	17.85
685.15	-10.15
685.18	8.85
685.21	21.85
685.24	27.85
685.27	21.85
685.3	-22.15
685.33	14.85
685.36	3.85
685.39	12.85
685.42	0.85
685.45	7.85
685.48	6.85
685.51	-4.15
685.54	13.85
685.569	8.85
685.599	9.85
685.629	4.85
685.659	6.85
685.689	-8.15
685.719	4.85
685.749	-4.15
685.779	22.85
685.809	17.85
685.839	8.85
685.869	12.85
685.898	11.85
685.928	4.85
685.958	-9.15
685.988	2.85
686.018	5.85
686.048	12.85
686.078	24.85
686.108	14.85
686.137	1.85
686.167	8.85
686.197	-13.15
686.227	0.85
686.257	19.85
686.287	19.85
686.317	9.85
686.346	-17.15
686.376	-5.15
686.406	-2.15
686.436	9.85
686.466	-14.15
686.496	4.85
686.525	9.85
686.555	3.85
686.585	21.85
686.615	12.85
686.645	7.85
686.675	-9.15
686.704	3.85
686.734	-0.15
686.764	-8.15
686.794	-0.15
686.824	12.85
686.853	3.85
686.883	25.85
686.913	26.85
686.943	8.85
686.973	2.85
687.002	5.85
687.032	11.85
687.062	10.85
687.092	15.85
687.121	8.85
687.151	0.85
687.181	4.85
687.211	8.85
687.24	12.85
687.27	14.85
687.3	-9.15
687.33	1.85
687.359	-16.15
687.389	8.85
687.419	-4.15
687.449	-9.15
687.478	-5.15
687.508	-2.15
687.538	-6.15
687.568	17.85
687.597	9.85
687.627	8.85
687.657	-10.15
687.686	1.85
687.716	11.85
687.746	-0.15
687.776	0.85
687.805	1.85
687.835	-0.15
687.865	6.85
687.894	-4.15
687.924	1.85
687.954	4.85
687.983	11.85
688.013	8.85
688.043	4.85
688.072	4.85
688.102	8.85
688.132	9.85
688.161	-6.15
688.191	11.85
688.221	22.85
688.25	1.85
688.28	-2.15
688.31	18.85
688.339	14.85
688.369	7.85
688.399	-1.15
688.428	-5.15
688.458	7.85
688.488	-2.15
688.517	17.85
688.547	-0.15
688.576	30.85
688.606	7.85
688.636	-18.15
688.665	3.85
688.695	18.85
688.725	1.85
688.754	6.85
688.784	12.85
688.813	29.85
688.843	6.85
688.873	1.85
688.902	-6.15
688.932	0.85
688.961	-2.15
688.991	22.85
689.02	12.85
689.05	7.85
689.08	-1.15
689.109	7.85
689.139	-1.15
689.168	-4.15
689.198	1.85
689.227	1.85
689.257	5.85
689.287	26.85
689.316	4.85
689.346	-12.15
689.375	-14.15
689.405	17.85
689.434	-1.15
689.464	-0.15
689.493	-1.15
689.523	-1.15
689.552	-3.15
689.582	5.85
689.611	-8.15
689.641	-1.15
689.67	-9.15
689.7	17.85
689.73	8.85
689.759	15.85
689.789	1.85
689.818	-14.15
689.848	-23.15
689.877	19.85
689.906	6.85
689.936	14.85
689.965	23.85
689.995	9.85
690.024	-2.15
690.054	15.85
690.083	8.85
690.113	13.85
690.142	18.85
690.172	5.85
690.201	13.85
690.231	2.85
690.26	-5.15
690.29	-2.15
690.319	-10.15
690.348	-6.15
690.378	12.85
690.407	5.85
690.437	-2.15
690.466	-18.15
690.496	12.85
690.525	-1.15
690.555	4.85
690.584	-0.15
690.613	5.85
690.643	7.85
690.672	0.85
690.702	9.85
690.731	-0.15
690.76	29.85
690.79	57.85
690.819	42.85
690.849	38.85
690.878	27.85
690.907	17.85
690.937	19.85
690.966	20.85
690.996	3.85
691.025	-7.15
691.054	-14.15
691.084	-20.15
691.113	3.85
691.142	-5.15
691.172	2.85
691.201	10.85
691.23	-2.15
691.26	19.85
691.289	2.85
691.319	-7.15
691.348	7.85
691.377	15.85
691.407	1.85
691.436	14.85
691.465	7.85
691.495	-8.15
691.524	-6.15
691.553	-2.15
691.583	-14.15
691.612	23.85
691.641	9.85
691.67	-7.15
691.7	-0.15
691.729	-16.15
691.758	1.85
691.788	3.85
691.817	6.85
691.846	0.85
691.876	3.85
691.905	2.85
691.934	-4.15
691.963	25.85
691.993	2.85
692.022	-6.15
692.051	-8.15
692.081	7.85
692.11	18.85
692.139	1.85
692.168	19.85
692.198	16.85
692.227	-1.15
692.256	-0.15
692.285	-8.15
692.315	9.85
692.344	11.85
692.373	1.85
692.402	-24.15
692.432	-12.15
692.461	2.85
692.49	-3.15
692.519	-0.15
692.548	18.85
692.578	4.85
692.607	-4.15
692.636	0.85
692.665	-6.15
692.694	-8.15
692.724	19.85
692.753	16.85
692.782	16.85
692.811	-15.15
692.84	-7.15
692.87	8.85
692.899	-2.15
692.928	-0.15
692.957	-2.15
692.986	9.85
693.016	0.85
693.045	12.85
693.074	10.85
693.103	10.85
693.132	13.85
693.161	13.85
693.191	-2.15
693.22	-4.15
693.249	-2.15
693.278	-1.15
693.307	3.85
693.336	-14.15
693.365	-6.15
693.395	-1.15
693.424	10.85
693.453	9.85
693.482	-6.15
693.511	2.85
693.54	-2.15
693.569	8.85
693.598	0.85
693.628	3.85
693.657	12.85
693.686	1.85
693.715	14.85
693.744	29.85
693.773	23.85
693.802	4.85
693.831	8.85
693.86	21.85
693.889	0.85
693.919	5.85
693.948	3.85
693.977	-3.15
694.006	1.85
694.035	2.85
694.064	8.85
694.093	-5.15
694.122	-1.15
694.151	8.85
694.18	11.85
694.209	8.85
694.238	-5.15
694.267	16.85
694.296	11.85
694.325	5.85
694.354	11.85
694.383	10.85
694.412	0.85
694.441	-11.15
694.471	-8.15
694.5	-24.15
694.529	-1.15
694.558	20.85
694.587	14.85
694.616	-9.15
694.645	2.85
694.674	10.85
694.703	5.85
694.732	9.85
694.761	24.85
694.79	17.85
694.819	-12.15
694.848	-18.15
694.877	10.85
694.906	30.85
694.935	-0.15
694.963	17.85
694.992	-9.15
695.021	7.85
695.05	4.85
695.079	-7.15
695.108	-5.15
695.137	18.85
695.166	2.85
695.195	-28.15
695.224	3.85
695.253	14.85
695.282	-0.15
695.311	12.85
695.34	-11.15
695.369	9.85
695.398	6.85
695.427	24.85
695.456	2.85
695.485	1.85
695.513	-13.15
695.542	1.85
695.571	-11.15
695.6	19.85
695.629	7.85
695.658	16.85
695.687	4.85
695.716	3.85
695.745	27.85
695.774	-8.15
695.802	-15.15
695.831	10.85
695.86	11.85
695.889	5.85
695.918	-1.15
695.947	-4.15
695.976	10.85
696.005	0.85
696.033	-1.15
696.062	10.85
696.091	5.85
696.12	13.85
696.149	22.85
696.178	15.85
696.207	33.85
696.235	-9.15
696.264	12.85
696.293	16.85
696.322	1.85
696.351	15.85
696.38	4.85
696.408	8.85
696.437	-2.15
696.466	-4.15
696.495	11.85
696.524	7.85
696.553	6.85
696.581	-1.15
696.61	-8.15
696.639	-7.15
696.668	-4.15
696.697	9.85
696.725	15.85
696.754	10.85
696.783	-10.15
696.812	5.85
696.84	12.85
696.869	7.85
696.898	2.85
696.927	12.85
696.956	36.85
696.984	6.85
697.013	13.85
697.042	-7.15
697.071	13.85
697.099	6.85
697.128	-0.15
697.157	18.85
697.186	-6.15
697.214	-1.15
697.243	15.85
697.272	3.85
697.301	11.85
697.329	2.85
697.358	-6.15
697.387	14.85
697.415	7.85
697.444	2.85
697.473	-0.15
697.502	-9.15
697.53	14.85
697.559	8.85
697.588	10.85
697.616	-13.15
697.645	-0.15
697.674	10.85
697.703	0.85
697.731	8.85
697.76	4.85
697.789	-2.15
697.817	8.85
697.846	20.85
697.875	7.85
697.903	25.85
697.932	13.85
697.961	13.85
697.989	16.85
698.018	4.85
698.047	4.85
698.075	15.85
698.104	-1.15
698.133	-1.15
698.161	-5.15
698.19	3.85
698.218	-5.15
698.247	-0.15
698.276	7.85
698.304	-1.15
698.333	-0.15
698.362	-1.15
698.39	-2.15
698.419	22.85
698.447	5.85
698.476	2.85
698.505	11.85
698.533	15.85
698.562	10.85
698.591	-2.15
698.619	-11.15
698.648	-7.15
698.676	14.85
698.705	-3.15
698.733	-10.15
698.762	1.85
698.791	-0.15
698.819	14.85
698.848	12.85
698.876	14.85
698.905	10.85
698.933	8.85
698.962	-0.15
698.991	-4.15
699.019	25.85
699.048	-7.15
699.076	16.85
699.105	-6.15
699.133	-14.15
699.162	-0.15
699.19	20.85
699.219	11.85
699.248	2.85
699.276	4.85
699.305	1.85
699.333	11.85
699.362	3.85
699.39	-0.15
699.419	-10.15
699.447	-1.15
699.476	8.85
699.504	-13.15
699.533	2.85
699.561	-2.15
699.59	5.85
699.618	-5.15
699.647	-0.15
699.675	9.85
699.704	11.85
699.732	-4.15
699.761	4.85
699.789	1.85
699.818	5.85
699.846	3.85
699.874	5.85
699.903	8.85
699.931	-1.15
699.96	27.85
699.988	-5.15
700.017	6.85
700.045	9.85
700.074	10.85
700.102	0.85
700.13	5.85
700.159	5.85
700.187	-0.15
700.216	-4.15
700.244	-9.15
700.273	-8.15
700.301	5.85
700.329	2.85
700.358	12.85
700.386	3.85
700.415	8.85
700.443	2.85
700.472	-6.15
700.5	2.85
700.528	17.85
700.557	7.85
700.585	-8.15
700.614	-3.15
700.642	25.85
700.67	16.85
700.699	13.85
700.727	3.85
700.755	-3.15
700.784	1.85
700.812	11.85
700.841	11.85
700.869	9.85
700.897	0.85
700.926	3.85
700.954	9.85
700.982	10.85
701.011	7.85
701.039	34.85
701.067	0.85
701.096	-4.15
701.124	-10.15
701.152	-3.15
701.181	3.85
701.209	-2.15
701.237	-17.15
701.266	-15.15
701.294	-3.15
701.322	6.85
701.351	6.85
701.379	2.85
701.407	7.85
701.435	6.85
701.464	1.85
701.492	12.85
701.52	-6.15
701.549	1.85
701.577	8.85
701.605	-1.15
701.634	0.85
701.662	18.85
701.69	-4.15
701.718	-4.15
701.747	-6.15
701.775	-6.15
701.803	-0.15
701.831	26.85
701.86	3.85
701.888	10.85
701.916	-0.15
701.944	5.85
701.973	-11.15
702.001	2.85
702.029	-6.15
702.057	-10.15
702.086	-4.15
702.114	-6.15
702.142	-6.15
702.17	-8.15
702.199	-3.15
702.227	1.85
702.255	2.85
702.283	-5.15
702.311	16.85
702.34	0.85
702.368	-3.15
702.396	8.85
702.424	5.85
702.452	3.85
702.481	4.85
702.509	-8.15
702.537	5.85
702.565	5.85
702.593	-5.15
702.621	-3.15
702.65	11.85
702.678	-3.15
702.706	19.85
702.734	-4.15
702.762	-1.15
702.79	10.85
702.819	10.85
702.847	9.85
702.875	22.85
702.903	2.85
702.931	-4.15
702.959	-5.15
702.988	2.85
703.016	-5.15
703.044	10.85
703.072	10.85
703.1	-7.15
703.128	8.85
703.156	19.85
703.184	6.85
703.212	14.85
703.241	5.85
703.269	7.85
703.297	6.85
703.325	5.85
703.353	-0.15
703.381	-10.15
703.409	-0.15
703.437	-13.15
703.465	-0.15
703.493	-5.15
703.522	4.85
703.55	13.85
703.578	9.85
703.606	-6.15
703.634	7.85
703.662	0.85
703.69	5.85
703.718	12.85
703.746	10.85
703.774	-0.15
703.802	13.85
703.83	3.85
703.858	14.85
703.886	0.85
703.914	-5.15
703.942	18.85
703.97	14.85
703.998	-21.15
704.027	6.85
704.055	3.85
704.083	-4.15
704.111	-5.15
704.139	4.85
704.167	2.85
704.195	11.85
704.223	4.85
704.251	3.85
704.279	1.85
704.307	6.85
704.335	-8.15
704.363	1.85
704.391	-5.15
704.419	-9.15
704.447	-10.15
704.475	7.85
704.503	-6.15
704.531	7.85
704.558	15.85
704.586	7.85
704.614	1.85
704.642	5.85
704.67	-0.15
704.698	0.85
704.726	-5.15
704.754	8.85
704.782	-2.15
704.81	1.85
704.838	17.85
704.866	23.85
704.894	-5.15
704.922	-8.15
704.95	7.85
704.978	13.85
705.006	-0.15
705.034	13.85
705.061	-9.15
705.089	-4.15
705.117	3.85
705.145	7.85
705.173	-3.15
705.201	8.85
705.229	19.85
705.257	-0.15
705.285	-1.15
705.313	6.85
705.34	10.85
705.368	-2.15
705.396	-9.15
705.424	-12.15
705.452	-0.15
705.48	5.85
705.508	8.85
705.536	7.85
705.563	-2.15
705.591	-7.15
705.619	-6.15
705.647	-13.15
705.675	10.85
705.703	-1.15
705.731	9.85
705.758	9.85
705.786	13.85
705.814	20.85
705.842	1.85
705.87	0.85
705.898	21.85
705.925	-6.15
705.953	8.85
705.981	-5.15
706.009	2.85
706.037	-1.15
706.065	-4.15
706.092	-2.15
706.12	7.85
706.148	-9.15
706.176	-2.15
706.204	1.85
706.231	-2.15
706.259	-5.15
706.287	10.85
706.315	5.85
706.342	3.85
706.37	6.85
706.398	-5.15
706.426	-8.15
706.454	3.85
706.481	6.85
706.509	0.85
706.537	-4.15
706.565	-2.15
706.592	6.85
706.62	-6.15
706.648	2.85
706.676	6.85
706.703	-15.15
706.731	-5.15
706.759	-5.15
706.787	3.85
706.814	6.85
706.842	10.85
706.87	10.85
706.897	12.85
706.925	8.85
706.953	7.85
706.981	19.85
707.008	-8.15
707.036	5.85
707.064	-1.15
707.091	-13.15
707.119	8.85
707.147	-2.15
707.174	-9.15
707.202	-0.15
707.23	-8.15
707.258	0.85
707.285	-16.15
707.313	6.85
707.341	-12.15
707.368	-4.15
707.396	-2.15
707.424	8.85
707.451	-1.15
707.479	9.85
707.507	-10.15
707.534	-15.15
707.562	6.85
707.59	-2.15
707.617	-8.15
707.645	-21.15
707.672	-4.15
707.7	3.85
707.728	9.85
707.755	15.85
707.783	2.85
707.811	-7.15
707.838	5.85
707.866	1.85
707.893	-5.15
707.921	6.85
707.949	-2.15
707.976	-2.15
708.004	-7.15
708.031	-28.15
708.059	-11.15
708.087	-6.15
708.114	1.85
708.142	-3.15
708.169	-7.15
708.197	-6.15
708.225	3.85
708.252	14.85
708.28	40.85
708.307	-1.15
708.335	-11.15
708.362	-0.15
708.39	0.85
708.418	3.85
708.445	5.85
708.473	-0.15
708.5	1.85
708.528	4.85
708.555	-5.15
708.583	9.85
708.61	12.85
708.638	1.85
708.665	0.85
708.693	2.85
708.72	-9.15
708.748	-5.15
708.776	-0.15
708.803	16.85
708.831	17.85
708.858	14.85
708.886	3.85
708.913	4.85
708.941	-3.15
708.968	10.85
708.996	-12.15
709.023	12.85
709.051	10.85
709.078	-1.15
709.105	8.85
709.133	3.85
709.16	5.85
709.188	11.85
709.215	-5.15
709.243	16.85
709.27	-2.15
709.298	-9.15
709.325	-2.15
709.353	2.85
709.38	-2.15
709.408	14.85
709.435	7.85
709.462	7.85
709.49	11.85
709.517	2.85
709.545	3.85
709.572	-5.15
709.6	1.85
709.627	-9.15
709.655	-19.15
709.682	15.85
709.709	8.85
709.737	5.85
709.764	3.85
709.792	3.85
709.819	3.85
709.846	3.85
709.874	9.85
709.901	10.85
709.929	16.85
709.956	10.85
709.983	-14.15
710.011	-6.15
710.038	-14.15
710.066	6.85
710.093	17.85
710.12	2.85
710.148	3.85
710.175	-7.15
710.202	-2.15
710.23	-7.15
710.257	1.85
710.284	19.85
710.312	9.85
710.339	-0.15
710.366	2.85
710.394	-11.15
710.421	1.85
710.448	-9.15
710.476	2.85
710.503	19.85
710.53	18.85
710.558	32.85
710.585	24.85
710.612	-3.15
710.64	-0.15
710.667	3.85
710.694	0.85
710.722	-0.15
710.749	5.85
710.776	-7.15
710.804	14.85
710.831	9.85
710.858	10.85
710.885	-6.15
710.913	4.85
710.94	28.85
710.967	-2.15
710.995	6.85
711.022	3.85
711.049	9.85
711.076	-8.15
711.104	-10.15
711.131	-19.15
711.158	2.85
711.185	1.85
711.213	-8.15
711.24	-1.15
711.267	4.85
711.294	1.85
711.322	0.85
711.349	-2.15
711.376	-3.15
711.403	10.85
711.431	5.85
711.458	0.85
711.485	-12.15
711.512	4.85
711.54	4.85
711.567	5.85
711.594	13.85
711.621	1.85
711.648	-1.15
711.676	-10.15
711.703	10.85
711.73	-3.15
711.757	-2.15
711.784	4.85
711.812	6.85
711.839	1.85
711.866	-1.15
711.893	-7.15
711.92	14.85
711.947	15.85
711.975	-5.15
712.002	-4.15
712.029	8.85
712.056	6.85
712.083	15.85
712.11	-14.15
712.138	-2.15
712.165	17.85
712.192	-12.15
712.219	-5.15
712.246	-11.15
712.273	-9.15
712.3	-12.15
712.328	-0.15
712.355	-2.15
712.382	-18.15
712.409	14.85
712.436	0.85
712.463	20.85
712.49	26.85
712.517	6.85
712.544	-4.15
712.572	6.85
712.599	-5.15
712.626	13.85
712.653	1.85
712.68	-0.15
712.707	-0.15
712.734	-4.15
712.761	-2.15
712.788	-5.15
712.815	7.85
712.842	13.85
712.87	0.85
712.897	-12.15
712.924	-17.15
712.951	12.85
712.978	5.85
713.005	16.85
713.032	12.85
713.059	3.85
713.086	-6.15
713.113	-8.15
713.14	-8.15
713.167	1.85
713.194	14.85
713.221	-1.15
713.248	7.85
713.275	6.85
713.302	-7.15
713.329	10.85
713.356	-6.15
713.383	12.85
713.41	-4.15
713.437	-19.15
713.464	-9.15
713.491	16.85
713.518	16.85
713.545	2.85
713.572	2.85
713.599	7.85
713.626	-13.15
713.653	21.85
713.68	-1.15
713.707	-5.15
713.734	11.85
713.761	1.85
713.788	10.85
713.815	4.85
713.842	3.85
713.869	-0.15
713.896	6.85
713.923	5.85
713.95	-7.15
713.977	3.85
714.004	1.85
714.031	-9.15
714.058	-5.15
714.085	-11.15
714.112	19.85
714.139	14.85
714.165	-5.15
714.192	-20.15
714.219	7.85
714.246	10.85
714.273	18.85
714.3	5.85
714.327	2.85
714.354	11.85
714.381	5.85
714.408	-2.15
714.435	-4.15
714.461	3.85
714.488	12.85
714.515	-1.15
714.542	-8.15
714.569	1.85
714.596	-15.15
714.623	-13.15
714.65	19.85
714.677	0.85
714.703	1.85
714.73	14.85
714.757	3.85
714.784	14.85
714.811	-9.15
714.838	15.85
714.865	-0.15
714.891	17.85
714.918	9.85
714.945	-22.15
714.972	-23.15
714.999	-4.15
715.026	-11.15
715.052	2.85
715.079	10.85
715.106	-3.15
715.133	-1.15
715.16	0.85
715.187	15.85
715.213	19.85
715.24	3.85
715.267	3.85
715.294	3.85
715.321	-9.15
715.347	-14.15
715.374	-4.15
715.401	-4.15
715.428	-2.15
715.455	3.85
715.481	-10.15
715.508	12.85
715.535	-3.15
715.562	15.85
715.588	11.85
715.615	4.85
715.642	12.85
715.669	14.85
715.695	-6.15
715.722	-1.15
715.749	2.85
715.776	11.85
715.802	5.85
715.829	4.85
715.856	-13.15
715.883	6.85
715.909	2.85
715.936	-5.15
715.963	-11.15
715.99	-8.15
716.016	-4.15
716.043	-4.15
716.07	-17.15
716.096	-9.15
716.123	-2.15
716.15	-11.15
716.177	-5.15
716.203	20.85
716.23	9.85
716.257	-8.15
716.283	10.85
716.31	-2.15
716.337	8.85
716.363	3.85
716.39	18.85
716.417	13.85
716.443	7.85
716.47	18.85
716.497	6.85
716.523	13.85
716.55	11.85
716.577	21.85
716.603	5.85
716.63	4.85
716.657	12.85
716.683	-17.15
716.71	9.85
716.737	-1.15
716.763	10.85
716.79	2.85
716.817	15.85
716.843	11.85
716.87	-2.15
716.897	-6.15
716.923	15.85
716.95	6.85
716.976	-1.15
717.003	-11.15
717.03	20.85
717.056	14.85
717.083	-8.15
717.109	-9.15
717.136	2.85
717.163	5.85
717.189	12.85
717.216	-0.15
717.242	-4.15
717.269	4.85
717.296	8.85
717.322	6.85
717.349	17.85
717.375	1.85
717.402	-6.15
717.428	4.85
717.455	0.85
717.481	-16.15
717.508	-3.15
717.535	7.85
717.561	3.85
717.588	0.85
717.614	6.85
717.641	7.85
717.667	-0.15
717.694	-2.15
717.72	-8.15
717.747	-6.15
717.773	-14.15
717.8	-0.15
717.826	3.85
717.853	-4.15
717.88	3.85
717.906	6.85
717.933	2.85
717.959	6.85
717.986	13.85
718.012	-9.15
718.039	9.85
718.065	9.85
718.092	9.85
718.118	-6.15
718.144	-9.15
718.171	15.85
718.197	10.85
718.224	-4.15
718.25	-5.15
718.277	-3.15
718.303	7.85
718.33	-2.15
718.356	-7.15
718.383	-7.15
718.409	0.85
718.436	4.85
718.462	-8.15
718.489	5.85
718.515	6.85
718.541	17.85
718.568	8.85
718.594	-9.15
718.621	10.85
718.647	9.85
718.674	18.85
718.7	-2.15
718.726	-2.15
718.753	10.85
718.779	11.85
718.806	-1.15
718.832	2.85
718.858	-5.15
718.885	0.85
718.911	8.85
718.938	10.85
718.964	-17.15
718.99	0.85
719.017	3.85
719.043	-2.15
719.07	13.85
719.096	-15.15
719.122	10.85
719.149	-4.15
719.175	-2.15
719.201	7.85
719.228	-9.15
719.254	-23.15
719.281	-4.15
719.307	-0.15
719.333	-2.15
719.36	17.85
719.386	-10.15
719.412	-0.15
719.439	-2.15
719.465	-7.15
719.491	-15.15
719.518	9.85
719.544	-2.15
719.57	9.85
719.597	-0.15
719.623	-7.15
719.649	-5.15
719.675	6.85
719.702	9.85
719.728	6.85
719.754	-24.15
719.781	-0.15
719.807	-0.15
719.833	-5.15
719.86	-0.15
719.886	-2.15
719.912	-2.15
719.938	-4.15
719.965	-2.15
719.991	7.85
720.017	19.85
720.044	4.85
720.07	-0.15
720.096	17.85
720.122	3.85
720.149	3.85
720.175	16.85
720.201	9.85
720.227	6.85
720.254	-0.15
720.28	-1.15
720.306	-0.15
720.332	2.85
720.359	-4.15
720.385	1.85
720.411	1.85
720.437	21.85
720.463	-9.15
720.49	13.85
720.516	-13.15
720.542	-16.15
720.568	1.85
720.595	25.85
720.621	11.85
720.647	17.85
720.673	10.85
720.699	7.85
720.725	10.85
720.752	6.85
720.778	14.85
720.804	9.85
720.83	2.85
720.856	1.85
720.883	-10.15
720.909	7.85
720.935	14.85
720.961	11.85
720.987	15.85
721.013	-0.15
721.04	-1.15
721.066	16.85
721.092	1.85
721.118	2.85
721.144	-1.15
721.17	-4.15
721.196	2.85
721.223	-2.15
721.249	5.85
721.275	8.85
721.301	11.85
721.327	9.85
721.353	9.85
721.379	7.85
721.405	-4.15
721.432	12.85
721.458	-11.15
721.484	7.85
721.51	0.85
721.536	7.85
721.562	-0.15
721.588	-0.15
721.614	-5.15
721.64	-0.15
721.666	7.85
721.693	-2.15
721.719	-2.15
721.745	0.85
721.771	-3.15
721.797	7.85
721.823	20.85
721.849	21.85
721.875	1.85
721.901	5.85
721.927	10.85
721.953	10.85
721.979	17.85
722.005	12.85
722.031	0.85
722.057	6.85
722.083	10.85
722.109	-4.15
722.135	2.85
722.161	8.85
722.187	7.85
722.214	0.85
722.24	-4.15
722.266	-6.15
722.292	7.85
722.318	23.85
722.344	2.85
722.37	4.85
722.396	21.85
722.422	2.85
722.448	-0.15
722.474	-2.15
722.5	-0.15
722.526	1.85
722.552	-1.15
722.578	-6.15
722.603	12.85
722.629	-1.15
722.655	1.85
722.681	-21.15
722.707	-7.15
722.733	-8.15
722.759	-27.15
722.785	-5.15
722.811	12.85
722.837	15.85
722.863	1.85
722.889	1.85
722.915	-3.15
722.941	8.85
722.967	-11.15
722.993	8.85
723.019	9.85
723.045	-5.15
723.071	-0.15
723.097	-2.15
723.122	-0.15
723.148	-8.15
723.174	-0.15
723.2	10.85
723.226	-14.15
723.252	-5.15
723.278	-2.15
723.304	-15.15
723.33	-5.15
723.356	-11.15
723.381	-5.15
723.407	-10.15
723.433	18.85
723.459	1.85
723.485	-5.15
723.511	10.85
723.537	-2.15
723.563	-6.15
723.588	-1.15
723.614	10.85
723.64	2.85
723.666	15.85
723.692	10.85
723.718	-4.15
723.744	4.85
723.769	-6.15
723.795	-0.15
723.821	2.85
723.847	-5.15
723.873	-9.15
723.899	6.85
723.924	4.85
723.95	-2.15
723.976	-3.15
724.002	10.85
724.028	15.85
724.053	2.85
724.079	-4.15
724.105	-8.15
724.131	-14.15
724.157	-2.15
724.182	4.85
724.208	1.85
724.234	-5.15
724.26	-5.15
724.286	8.85
724.311	-11.15
724.337	-9.15
724.363	-10.15
724.389	19.85
724.415	-1.15
724.44	18.85
724.466	-2.15
724.492	6.85
724.518	5.85
724.543	4.85
724.569	-8.15
724.595	3.85
724.621	7.85
724.646	3.85
724.672	4.85
724.698	-5.15
724.723	-10.15
724.749	10.85
724.775	1.85
724.801	1.85
724.826	-5.15
724.852	5.85
724.878	-1.15
724.904	-10.15
724.929	6.85
724.955	-17.15
724.981	-6.15
725.006	-4.15
725.032	7.85
725.058	3.85
725.083	-9.15
725.109	-6.15
725.135	7.85
725.161	4.85
725.186	-2.15
725.212	-7.15
725.238	-7.15
725.263	3.85
725.289	-15.15
725.315	-10.15
725.34	-15.15
725.366	-1.15
725.392	-21.15
725.417	-9.15
725.443	4.85
725.468	2.85
725.494	15.85
725.52	15.85
725.545	1.85
725.571	-4.15
725.597	5.85
725.622	-0.15
725.648	-1.15
725.674	-5.15
725.699	7.85
725.725	8.85
725.75	22.85
725.776	-3.15
725.802	6.85
725.827	10.85
725.853	2.85
725.878	15.85
725.904	-10.15
725.93	7.85
725.955	5.85
725.981	-1.15
726.006	-4.15
726.032	16.85
726.057	2.85
726.083	-0.15
726.109	-3.15
726.134	6.85
726.16	-4.15
726.185	0.85
726.211	-14.15
726.236	2.85
726.262	4.85
726.288	5.85
726.313	17.85
726.339	16.85
726.364	-4.15
726.39	1.85
726.415	-2.15
726.441	-5.15
726.466	-9.15
726.492	-3.15
726.517	-3.15
726.543	-9.15
726.568	-9.15
726.594	0.85
726.619	15.85
726.645	16.85
726.67	10.85
726.696	19.85
726.721	17.85
726.747	-2.15
726.772	-4.15
726.798	5.85
726.823	-2.15
726.849	-1.15
726.874	10.85
726.9	25.85
726.925	0.85
726.951	3.85
726.976	7.85
727.002	-1.15
727.027	1.85
727.053	18.85
727.078	3.85
727.104	3.85
727.129	-8.15
727.155	4.85
727.18	10.85
727.205	18.85
727.231	6.85
727.256	8.85
727.282	-7.15
727.307	9.85
727.333	11.85
727.358	-3.15
727.383	-7.15
727.409	-15.15
727.434	6.85
727.46	-6.15
727.485	-3.15
727.511	3.85
727.536	-0.15
727.561	2.85
727.587	10.85
727.612	0.85
727.637	3.85
727.663	-5.15
727.688	11.85
727.714	-7.15
727.739	15.85
727.764	-9.15
727.79	-1.15
727.815	3.85
727.841	21.85
727.866	16.85
727.891	7.85
727.917	-12.15
727.942	5.85
727.967	9.85
727.993	-22.15
728.018	1.85
728.043	7.85
728.069	17.85
728.094	13.85
728.119	0.85
728.145	5.85
728.17	11.85
728.195	0.85
728.221	20.85
728.246	-5.15
728.271	-24.15
728.297	-15.15
728.322	-1.15
728.347	-6.15
728.373	7.85
728.398	-9.15
728.423	-5.15
728.448	13.85
728.474	3.85
728.499	4.85
728.524	2.85
728.55	-15.15
728.575	1.85
728.6	4.85
728.625	5.85
728.651	6.85
728.676	-8.15
728.701	-8.15
728.727	10.85
728.752	-1.15
728.777	-6.15
728.802	4.85
728.828	16.85
728.853	-3.15
728.878	6.85
728.903	-4.15
728.929	-9.15
728.954	-0.15
728.979	-5.15
729.004	-11.15
729.03	-0.15
729.055	7.85
729.08	-11.15
729.105	-9.15
729.13	12.85
729.156	8.85
729.181	10.85
729.206	-5.15
729.231	-5.15
729.256	-4.15
729.282	7.85
729.307	-2.15
729.332	-0.15
729.357	-4.15
729.382	5.85
729.408	8.85
729.433	6.85
729.458	8.85
729.483	7.85
729.508	30.85
729.533	15.85
729.559	14.85
729.584	1.85
729.609	2.85
729.634	11.85
729.659	-18.15
729.684	11.85
729.71	15.85
729.735	5.85
729.76	8.85
729.785	12.85
729.81	13.85
729.835	0.85
729.86	-0.15
729.886	18.85
729.911	6.85
729.936	4.85
729.961	24.85
729.986	17.85
730.011	57.85
730.036	200.85
730.061	1039.85
730.086	2714.85
730.112	3411.85
730.137	2862.85
730.162	2158.85
730.187	1670.85
730.212	1285.85
730.237	814.85
730.262	465.85
730.287	257.85
730.312	142.85
730.337	72.85
730.362	61.85
730.387	41.85
730.413	23.85
730.438	22.85
730.463	27.85
730.488	5.85
730.513	19.85
730.538	12.85
730.563	29.85
730.588	21.85
730.613	17.85
730.638	12.85
730.663	9.85
730.688	30.85
730.713	22.85
730.738	13.85
730.763	-1.15
730.788	-3.15
730.813	18.85
730.838	1.85
730.863	-8.15
730.888	-1.15
730.913	-11.15
730.938	-4.15
730.963	26.85
730.988	105.85
731.013	407.85
731.038	638.85
731.063	609.85
731.088	470.85
731.113	369.85
731.138	271.85
731.163	182.85
731.188	102.85
731.213	65.85
731.238	40.85
731.263	12.85
731.288	-0.15
731.313	-0.15
731.338	3.85
731.363	4.85
731.388	4.85
731.413	11.85
731.438	22.85
731.463	17.85
731.487	2.85
731.512	5.85
731.537	-6.15
731.562	14.85
731.587	17.85
731.612	-6.15
731.637	-2.15
731.662	6.85
731.687	2.85
731.712	0.85
731.737	14.85
731.762	1.85
731.786	-0.15
731.811	11.85
731.836	-6.15
731.861	-1.15
731.886	-2.15
731.911	-6.15
731.936	20.85
731.961	2.85
731.986	0.85
732.01	13.85
732.035	-5.15
732.06	14.85
732.085	-2.15
732.11	-6.15
732.135	-7.15
732.16	8.85
732.184	12.85
732.209	1.85
732.234	29.85
732.259	7.85
732.284	14.85
732.309	0.85
732.334	-1.15
732.358	2.85
732.383	-6.15
732.408	2.85
732.433	0.85
732.458	0.85
732.482	7.85
732.507	-6.15
732.532	0.85
732.557	17.85
732.582	2.85
732.607	28.85
732.631	38.85
732.656	77.85
732.681	157.85
732.706	338.85
732.73	483.85
732.755	418.85
732.78	298.85
732.805	239.85
732.83	169.85
732.854	128.85
732.879	103.85
732.904	38.85
732.929	21.85
732.953	17.85
732.978	8.85
733.003	5.85
733.028	-7.15
733.052	15.85
733.077	5.85
733.102	6.85
733.127	6.85
733.151	6.85
733.176	-12.15
733.201	-5.15
733.226	2.85
733.25	5.85
733.275	-2.15
733.3	14.85
733.324	25.85
733.349	2.85
733.374	23.85
733.399	-5.15
733.423	-4.15
733.448	1.85
733.473	4.85
733.497	-5.15
733.522	-0.15
733.547	2.85
733.571	10.85
733.596	-7.15
733.621	-3.15
733.646	3.85
733.67	8.85
733.695	-6.15
733.72	8.85
733.744	14.85
733.769	-2.15
733.794	17.85
733.818	-4.15
733.843	-7.15
733.867	-8.15
733.892	-22.15
733.917	-7.15
733.941	-10.15
733.966	-15.15
733.991	-8.15
734.015	7.85
734.04	2.85
734.065	14.85
734.089	13.85
734.114	16.85
734.138	17.85
734.163	-1.15
734.188	9.85
734.212	18.85
734.237	3.85
734.261	-4.15
734.286	-3.15
734.311	-1.15
734.335	5.85
734.36	-17.15
734.384	14.85
734.409	-6.15
734.434	-7.15
734.458	7.85
734.483	3.85
734.507	-16.15
734.532	-6.15
734.556	6.85
734.581	12.85
734.606	-0.15
734.63	-5.15
734.655	4.85
734.679	10.85
734.704	-0.15
734.728	0.85
734.753	-5.15
734.777	-18.15
734.802	-11.15
734.826	18.85
734.851	10.85
734.876	17.85
734.9	5.85
734.925	24.85
734.949	22.85
734.974	1.85
734.998	-0.15
735.023	-7.15
735.047	-10.15
735.072	10.85
735.096	-4.15
735.121	-5.15
735.145	-1.15
735.17	-0.15
735.194	5.85
735.219	2.85
735.243	-7.15
735.268	10.85
735.292	-0.15
735.317	23.85
735.341	5.85
735.365	-8.15
735.39	8.85
735.414	2.85
735.439	6.85
735.463	-0.15
735.488	9.85
735.512	8.85
735.537	-1.15
735.561	-4.15
735.586	-1.15
735.61	-0.15
735.634	-11.15
735.659	-4.15
735.683	5.85
735.708	-14.15
735.732	-7.15
735.757	-6.15
735.781	8.85
735.805	15.85
735.83	-9.15
735.854	-2.15
735.879	-14.15
735.903	10.85
735.927	1.85
735.952	4.85
735.976	-6.15
736.001	-6.15
736.025	-9.15
736.049	4.85
736.074	-8.15
736.098	-4.15
736.123	4.85
736.147	15.85
736.171	2.85
736.196	10.85
736.22	-9.15
736.244	-0.15
736.269	8.85
736.293	9.85
736.317	-3.15
736.342	-5.15
736.366	22.85
736.39	9.85
736.415	6.85
736.439	5.85
736.463	1.85
736.488	13.85
736.512	9.85
736.536	16.85
736.561	16.85
736.585	13.85
736.609	1.85
736.634	-2.15
736.658	3.85
736.682	2.85
736.707	-6.15
736.731	-1.15
736.755	11.85
736.78	22.85
736.804	28.85
736.828	16.85
736.852	-2.15
736.877	-5.15
736.901	3.85
736.925	5.85
736.949	21.85
736.974	13.85
736.998	5.85
737.022	-4.15
737.047	-18.15
737.071	-6.15
737.095	16.85
737.119	12.85
737.144	10.85
737.168	-7.15
737.192	-10.15
737.216	-4.15
737.241	-6.15
737.265	-2.15
737.289	1.85
737.313	-7.15
737.337	6.85
737.362	-0.15
737.386	-2.15
737.41	1.85
737.434	9.85
737.459	-7.15
737.483	-2.15
737.507	19.85
737.531	11.85
737.555	-4.15
737.58	10.85
737.604	-1.15
737.628	-11.15
737.652	-1.15
737.676	-18.15
737.701	1.85
737.725	-0.15
737.749	-5.15
737.773	4.85
737.797	-6.15
737.821	7.85
737.846	1.85
737.87	19.85
737.894	11.85
737.918	1.85
737.942	5.85
737.966	17.85
737.99	10.85
738.015	-11.15
738.039	18.85
738.063	1.85
738.087	23.85
738.111	-3.15
738.135	12.85
738.159	-14.15
738.184	-8.15
738.208	10.85
738.232	9.85
738.256	14.85
738.28	7.85
738.304	4.85
738.328	-6.15
738.352	14.85
738.376	11.85
738.4	5.85
738.425	17.85
738.449	-5.15
738.473	11.85
738.497	30.85
738.521	1.85
738.545	-4.15
738.569	1.85
738.593	12.85
738.617	28.85
738.641	7.85
738.665	1.85
738.689	-0.15
738.713	-5.15
738.737	-5.15
738.762	22.85
738.786	3.85
738.81	-17.15
738.834	5.85
738.858	1.85
738.882	3.85
738.906	4.85
738.93	5.85
738.954	8.85
738.978	10.85
739.002	1.85
739.026	24.85
739.05	14.85
739.074	-0.15
739.098	20.85
739.122	13.85
739.146	1.85
739.17	6.85
739.194	7.85
739.218	0.85
739.242	-10.15
739.266	3.85
739.29	8.85
739.314	17.85
739.338	-3.15
739.362	-5.15
739.386	-7.15
739.41	5.85
739.434	9.85
739.458	22.85
739.482	13.85
739.506	3.85
739.53	-21.15
739.554	6.85
739.577	0.85
739.601	20.85
739.625	0.85
739.649	11.85
739.673	2.85
739.697	7.85
739.721	-13.15
739.745	12.85
739.769	18.85
739.793	24.85
739.817	13.85
739.841	-12.15
739.865	7.85
739.889	-7.15
739.912	6.85
739.936	0.85
739.96	-2.15
739.984	-1.15
740.008	-6.15
740.032	-12.15
740.056	4.85
740.08	-17.15
740.104	-17.15
740.127	9.85
740.151	14.85
740.175	19.85
740.199	18.85
740.223	54.85
740.247	12.85
740.271	13.85
740.295	2.85
740.318	-9.15
740.342	-5.15
740.366	-13.15
740.39	-1.15
740.414	-6.15
740.438	-10.15
740.461	7.85
740.485	-3.15
740.509	-7.15
740.533	11.85
740.557	-7.15
740.581	-1.15
740.604	-1.15
740.628	-6.15
740.652	4.85
740.676	2.85
740.7	9.85
740.723	-0.15
740.747	-5.15
740.771	-3.15
740.795	-2.15
740.819	4.85
740.842	9.85
740.866	12.85
740.89	15.85
740.914	-9.15
740.938	-4.15
740.961	1.85
740.985	3.85
741.009	1.85
741.033	6.85
741.056	8.85
741.08	-9.15
741.104	-7.15
741.128	-1.15
741.151	5.85
741.175	3.85
741.199	8.85
741.223	-0.15
741.246	-17.15
741.27	11.85
741.294	9.85
741.318	-6.15
741.341	-5.15
741.365	6.85
741.389	3.85
741.413	13.85
741.436	4.85
741.46	-0.15
741.484	-0.15
741.507	12.85
741.531	27.85
741.555	14.85
741.579	-5.15
741.602	4.85
741.626	14.85
741.65	-9.15
741.673	0.85
741.697	-0.15
741.721	2.85
741.744	-17.15
741.768	8.85
741.792	1.85
741.815	-4.15
741.839	3.85
741.863	6.85
741.886	10.85
741.91	14.85
741.934	9.85
741.957	-10.15
741.981	23.85
742.005	2.85
742.028	-26.15
742.052	-3.15
742.075	11.85
742.099	9.85
742.123	2.85
742.146	-6.15
742.17	8.85
742.194	-15.15
742.217	0.85
742.241	-18.15
742.264	-5.15
742.288	30.85
742.312	9.85
742.335	-2.15
742.359	-12.15
742.382	-5.15
742.406	2.85
742.43	-14.15
742.453	-4.15
742.477	-0.15
742.5	3.85
742.524	-9.15
742.548	-6.15
742.571	3.85
742.595	1.85
742.618	0.85
742.642	2.85
742.665	18.85
742.689	2.85
742.712	-5.15
742.736	4.85
742.76	-1.15
742.783	-4.15
742.807	-5.15
742.83	18.85
742.854	1.85
742.877	-4.15
742.901	23.85
742.924	-2.15
742.948	0.85
742.971	10.85
742.995	0.85
743.018	-3.15
743.042	-6.15
743.065	-2.15
743.089	-7.15
743.112	-2.15
743.136	-2.15
743.159	1.85
743.183	-6.15
743.206	2.85
743.23	-6.15
743.253	10.85
743.277	23.85
743.3	-14.15
743.324	-2.15
743.347	-7.15
743.371	2.85
743.394	21.85
743.418	4.85
743.441	-1.15
743.465	2.85
743.488	-0.15
743.512	-7.15
743.535	-4.15
743.558	9.85
743.582	20.85
743.605	8.85
743.629	17.85
743.652	14.85
743.676	-1.15
743.699	2.85
743.723	22.85
743.746	16.85
743.769	-18.15
743.793	-6.15
743.816	-5.15
743.84	21.85
743.863	-4.15
743.886	29.85
743.91	22.85
743.933	2.85
743.957	27.85
743.98	6.85
744.003	-5.15
744.027	7.85
744.05	-1.15
744.074	2.85
744.097	2.85
744.12	-4.15
744.144	2.85
744.167	17.85
744.19	4.85
744.214	-0.15
744.237	-1.15
744.26	15.85
744.284	-5.15
744.307	-9.15
744.331	-1.15
744.354	-6.15
744.377	-15.15
744.401	-1.15
744.424	-5.15
744.447	-32.15
744.471	-9.15
