Data from HighRes_mercury_15_13_11_07_2024_HR4C61891__70__15-14-30-185.txt Node

Date: Thu Nov 07 15:14:30 EST 2024
User: crc00042
Spectrometer: HR4C6189
Trigger mode: 4
Integration Time (sec): 1.000000E-1
Scans to average: 1
Electric dark correction enabled: true
Nonlinearity correction enabled: false
Boxcar width: 0
XAxis mode: Wavelengths
Number of Pixels in Spectrum: 3648
>>>>>Begin Spectral Data<<<<<
639.567	-63.46
639.602	-63.46
639.636	-63.46
639.67	-46.46
639.704	-31.46
639.738	-2.46
639.773	8.54
639.807	-6.46
639.841	-1.46
639.875	14.54
639.909	-1.46
639.943	-14.46
639.978	-5.46
640.012	6.54
640.046	10.54
640.08	-2.46
640.114	-0.46
640.148	-5.46
640.182	-24.46
640.217	-19.46
640.251	1.54
640.285	6.54
640.319	-15.46
640.353	9.54
640.387	-14.46
640.421	-4.46
640.455	-7.46
640.49	1.54
640.524	-5.46
640.558	2.54
640.592	-6.46
640.626	-8.46
640.66	-1.46
640.694	-23.46
640.728	4.54
640.762	-12.46
640.796	-0.46
640.83	12.54
640.865	-2.46
640.899	-8.46
640.933	0.54
640.967	-7.46
641.001	-4.46
641.035	-2.46
641.069	-12.46
641.103	-1.46
641.137	1.54
641.171	-18.46
641.205	4.54
641.239	0.54
641.273	13.54
641.307	-8.46
641.341	-5.46
641.375	-13.46
641.409	-13.46
641.443	1.54
641.477	9.54
641.511	14.54
641.545	8.54
641.579	-0.46
641.614	-17.46
641.648	-8.46
641.682	-13.46
641.716	7.54
641.75	3.54
641.784	7.54
641.818	14.54
641.852	-3.46
641.886	-14.46
641.919	14.54
641.953	-2.46
641.987	-23.46
642.021	-22.46
642.055	-10.46
642.089	-11.46
642.123	-0.46
642.157	-2.46
642.191	-6.46
642.225	1.54
642.259	-25.46
642.293	-20.46
642.327	9.54
642.361	-1.46
642.395	10.54
642.429	2.54
642.463	6.54
642.497	27.54
642.531	6.54
642.565	-23.46
642.599	-7.46
642.633	-9.46
642.666	3.54
642.7	-2.46
642.734	5.54
642.768	0.54
642.802	-14.46
642.836	1.54
642.87	1.54
642.904	13.54
642.938	3.54
642.972	-2.46
643.005	8.54
643.039	4.54
643.073	4.54
643.107	2.54
643.141	-5.46
643.175	-5.46
643.209	-4.46
643.243	-15.46
643.276	0.54
643.31	-26.46
643.344	-9.46
643.378	-1.46
643.412	-7.46
643.446	6.54
643.48	-10.46
643.513	-8.46
643.547	-11.46
643.581	-17.46
643.615	4.54
643.649	-18.46
643.683	-15.46
643.716	-10.46
643.75	-0.46
643.784	-22.46
643.818	6.54
643.852	-0.46
643.886	2.54
643.919	-12.46
643.953	-11.46
643.987	-8.46
644.021	-2.46
644.055	-0.46
644.088	-9.46
644.122	-6.46
644.156	-14.46
644.19	-8.46
644.224	-4.46
644.257	7.54
644.291	-0.46
644.325	-4.46
644.359	-21.46
644.392	10.54
644.426	-3.46
644.46	6.54
644.494	-4.46
644.527	-7.46
644.561	5.54
644.595	-0.46
644.629	-5.46
644.662	-5.46
644.696	16.54
644.73	0.54
644.764	0.54
644.797	0.54
644.831	-9.46
644.865	14.54
644.899	19.54
644.932	21.54
644.966	-17.46
645	9.54
645.033	8.54
645.067	-14.46
645.101	-5.46
645.135	5.54
645.168	-14.46
645.202	-1.46
645.236	-6.46
645.269	-2.46
645.303	-5.46
645.337	-34.46
645.37	-14.46
645.404	3.54
645.438	-2.46
645.471	-6.46
645.505	12.54
645.539	-11.46
645.572	0.54
645.606	-5.46
645.64	-3.46
645.673	-3.46
645.707	16.54
645.741	-1.46
645.774	-19.46
645.808	-4.46
645.842	7.54
645.875	20.54
645.909	-8.46
645.943	-6.46
645.976	0.54
646.01	2.54
646.043	9.54
646.077	4.54
646.111	-4.46
646.144	9.54
646.178	-0.46
646.212	-2.46
646.245	-5.46
646.279	-7.46
646.312	2.54
646.346	14.54
646.38	7.54
646.413	-4.46
646.447	0.54
646.48	-1.46
646.514	4.54
646.547	-12.46
646.581	-0.46
646.615	-16.46
646.648	-3.46
646.682	11.54
646.715	-6.46
646.749	-1.46
646.782	-4.46
646.816	-13.46
646.85	-4.46
646.883	-19.46
646.917	-2.46
646.95	-7.46
646.984	8.54
647.017	-1.46
647.051	6.54
647.084	0.54
647.118	-0.46
647.151	-18.46
647.185	-10.46
647.218	-18.46
647.252	-4.46
647.285	-7.46
647.319	-4.46
647.353	-3.46
647.386	11.54
647.42	4.54
647.453	-12.46
647.487	-8.46
647.52	-8.46
647.553	-15.46
647.587	-7.46
647.62	-12.46
647.654	-4.46
647.687	-7.46
647.721	5.54
647.754	-11.46
647.788	0.54
647.821	-3.46
647.855	-6.46
647.888	-3.46
647.922	17.54
647.955	3.54
647.989	-4.46
648.022	0.54
648.055	-5.46
648.089	7.54
648.122	14.54
648.156	1.54
648.189	-4.46
648.223	-6.46
648.256	3.54
648.29	-4.46
648.323	-17.46
648.356	-2.46
648.39	-0.46
648.423	-11.46
648.457	-13.46
648.49	-7.46
648.523	11.54
648.557	3.54
648.59	-6.46
648.624	-7.46
648.657	-3.46
648.69	0.54
648.724	-6.46
648.757	-3.46
648.791	-3.46
648.824	11.54
648.857	19.54
648.891	-5.46
648.924	-16.46
648.957	-1.46
648.991	-23.46
649.024	0.54
649.057	-14.46
649.091	4.54
649.124	-5.46
649.158	6.54
649.191	9.54
649.224	-2.46
649.258	3.54
649.291	12.54
649.324	8.54
649.358	-9.46
649.391	-6.46
649.424	-3.46
649.458	-6.46
649.491	14.54
649.524	2.54
649.557	-1.46
649.591	-2.46
649.624	11.54
649.657	-9.46
649.691	-6.46
649.724	-3.46
649.757	-3.46
649.791	-15.46
649.824	16.54
649.857	15.54
649.89	-0.46
649.924	-13.46
649.957	-9.46
649.99	-27.46
650.023	-2.46
650.057	-11.46
650.09	1.54
650.123	-2.46
650.157	5.54
650.19	0.54
650.223	-12.46
650.256	-17.46
650.29	-3.46
650.323	-0.46
650.356	7.54
650.389	7.54
650.423	-4.46
650.456	7.54
650.489	-10.46
650.522	-8.46
650.555	-0.46
650.589	3.54
650.622	-9.46
650.655	13.54
650.688	-5.46
650.721	-10.46
650.755	-18.46
650.788	2.54
650.821	-5.46
650.854	5.54
650.887	-3.46
650.921	-13.46
650.954	-10.46
650.987	-6.46
651.02	-16.46
651.053	-20.46
651.087	-10.46
651.12	-5.46
651.153	-8.46
651.186	-8.46
651.219	-27.46
651.252	-8.46
651.286	-4.46
651.319	-10.46
651.352	-4.46
651.385	-1.46
651.418	-10.46
651.451	-4.46
651.484	-13.46
651.518	-17.46
651.551	2.54
651.584	-11.46
651.617	10.54
651.65	11.54
651.683	-3.46
651.716	-15.46
651.749	-30.46
651.783	-17.46
651.816	-0.46
651.849	6.54
651.882	-1.46
651.915	-6.46
651.948	-11.46
651.981	-19.46
652.014	-29.46
652.047	-23.46
652.08	-21.46
652.114	-1.46
652.147	-3.46
652.18	1.54
652.213	21.54
652.246	-8.46
652.279	-11.46
652.312	2.54
652.345	-3.46
652.378	-6.46
652.411	0.54
652.444	-8.46
652.477	-19.46
652.51	-4.46
652.543	-18.46
652.576	-5.46
652.609	-10.46
652.642	2.54
652.675	5.54
652.709	-1.46
652.742	-1.46
652.775	-11.46
652.808	-2.46
652.841	-2.46
652.874	0.54
652.907	-5.46
652.94	-15.46
652.973	-24.46
653.006	-10.46
653.039	-12.46
653.072	-1.46
653.105	-2.46
653.138	-16.46
653.171	-9.46
653.204	-4.46
653.237	-5.46
653.27	-20.46
653.303	3.54
653.336	-7.46
653.368	-9.46
653.401	-10.46
653.434	-19.46
653.467	-11.46
653.5	-10.46
653.533	-33.46
653.566	-3.46
653.599	-3.46
653.632	2.54
653.665	0.54
653.698	-17.46
653.731	-10.46
653.764	7.54
653.797	-2.46
653.83	6.54
653.863	-11.46
653.896	-20.46
653.929	-6.46
653.961	4.54
653.994	-12.46
654.027	-21.46
654.06	3.54
654.093	-5.46
654.126	-0.46
654.159	-3.46
654.192	-11.46
654.225	-15.46
654.258	-10.46
654.29	-4.46
654.323	-10.46
654.356	-1.46
654.389	-0.46
654.422	-1.46
654.455	-4.46
654.488	2.54
654.521	-15.46
654.553	-10.46
654.586	-7.46
654.619	-3.46
654.652	-11.46
654.685	-2.46
654.718	-7.46
654.751	-9.46
654.783	-16.46
654.816	17.54
654.849	8.54
654.882	2.54
654.915	-10.46
654.948	-0.46
654.98	-9.46
655.013	-2.46
655.046	-11.46
655.079	-17.46
655.112	-7.46
655.144	-11.46
655.177	-5.46
655.21	0.54
655.243	9.54
655.276	-1.46
655.308	-15.46
655.341	-29.46
655.374	-3.46
655.407	-15.46
655.44	-8.46
655.472	11.54
655.505	-15.46
655.538	-18.46
655.571	0.54
655.603	-13.46
655.636	-5.46
655.669	-3.46
655.702	-21.46
655.734	-16.46
655.767	-0.46
655.8	-14.46
655.833	-2.46
655.865	-1.46
655.898	-12.46
655.931	-14.46
655.964	-6.46
655.996	-2.46
656.029	-9.46
656.062	-8.46
656.095	0.54
656.127	-12.46
656.16	-10.46
656.193	-8.46
656.225	7.54
656.258	26.54
656.291	-8.46
656.324	13.54
656.356	7.54
656.389	-4.46
656.422	5.54
656.454	-17.46
656.487	4.54
656.52	-0.46
656.552	-7.46
656.585	-16.46
656.618	-8.46
656.65	0.54
656.683	-21.46
656.716	-0.46
656.748	8.54
656.781	-18.46
656.814	-24.46
656.846	-2.46
656.879	-22.46
656.912	-12.46
656.944	-19.46
656.977	-13.46
657.01	-14.46
657.042	-11.46
657.075	-1.46
657.108	-11.46
657.14	9.54
657.173	-7.46
657.205	17.54
657.238	-2.46
657.271	-7.46
657.303	-11.46
657.336	-13.46
657.369	-0.46
657.401	0.54
657.434	-2.46
657.466	-5.46
657.499	-25.46
657.532	-5.46
657.564	-1.46
657.597	2.54
657.629	5.54
657.662	-7.46
657.694	-13.46
657.727	-34.46
657.76	3.54
657.792	-0.46
657.825	-4.46
657.857	-3.46
657.89	10.54
657.922	5.54
657.955	-25.46
657.987	-24.46
658.02	1.54
658.053	15.54
658.085	-4.46
658.118	3.54
658.15	5.54
658.183	15.54
658.215	-10.46
658.248	-6.46
658.28	-25.46
658.313	-1.46
658.345	4.54
658.378	-16.46
658.41	-12.46
658.443	2.54
658.475	-3.46
658.508	-18.46
658.54	-16.46
658.573	-28.46
658.605	12.54
658.638	-5.46
658.67	-20.46
658.703	-8.46
658.735	-14.46
658.768	1.54
658.8	-27.46
658.833	10.54
658.865	-2.46
658.898	-1.46
658.93	-20.46
658.963	-16.46
658.995	-14.46
659.028	-11.46
659.06	-3.46
659.092	-7.46
659.125	-22.46
659.157	4.54
659.19	-14.46
659.222	-16.46
659.255	0.54
659.287	5.54
659.32	0.54
659.352	0.54
659.384	-12.46
659.417	-15.46
659.449	1.54
659.482	3.54
659.514	-14.46
659.546	-15.46
659.579	-19.46
659.611	-8.46
659.644	-13.46
659.676	-9.46
659.708	8.54
659.741	-0.46
659.773	1.54
659.806	-3.46
659.838	-9.46
659.87	-19.46
659.903	-15.46
659.935	3.54
659.967	4.54
660	-7.46
660.032	-23.46
660.065	11.54
660.097	-7.46
660.129	-12.46
660.162	-12.46
660.194	-11.46
660.226	-14.46
660.259	-3.46
660.291	-9.46
660.323	-0.46
660.356	2.54
660.388	-21.46
660.42	-6.46
660.453	-3.46
660.485	-3.46
660.517	13.54
660.55	4.54
660.582	0.54
660.614	6.54
660.647	-17.46
660.679	-37.46
660.711	5.54
660.743	-5.46
660.776	0.54
660.808	-1.46
660.84	-10.46
660.873	-10.46
660.905	5.54
660.937	-10.46
660.969	-9.46
661.002	-0.46
661.034	10.54
661.066	-10.46
661.099	0.54
661.131	22.54
661.163	0.54
661.195	-1.46
661.228	8.54
661.26	-1.46
661.292	-7.46
661.324	5.54
661.357	-7.46
661.389	-5.46
661.421	-0.46
661.453	0.54
661.485	1.54
661.518	-5.46
661.55	-17.46
661.582	-7.46
661.614	-7.46
661.647	-5.46
661.679	-10.46
661.711	5.54
661.743	-20.46
661.775	-13.46
661.808	7.54
661.84	-21.46
661.872	-8.46
661.904	-14.46
661.936	-12.46
661.969	-8.46
662.001	-0.46
662.033	5.54
662.065	-5.46
662.097	19.54
662.129	5.54
662.162	-6.46
662.194	-0.46
662.226	-2.46
662.258	-5.46
662.29	-8.46
662.322	-10.46
662.355	-14.46
662.387	17.54
662.419	14.54
662.451	-3.46
662.483	4.54
662.515	-1.46
662.547	-4.46
662.58	-0.46
662.612	-20.46
662.644	-20.46
662.676	-2.46
662.708	22.54
662.74	-7.46
662.772	1.54
662.804	-2.46
662.836	-3.46
662.869	7.54
662.901	11.54
662.933	-3.46
662.965	4.54
662.997	0.54
663.029	-28.46
663.061	-5.46
663.093	-0.46
663.125	-0.46
663.157	-1.46
663.189	-8.46
663.221	9.54
663.254	-11.46
663.286	0.54
663.318	1.54
663.35	-9.46
663.382	-8.46
663.414	1.54
663.446	-3.46
663.478	-15.46
663.51	17.54
663.542	-1.46
663.574	18.54
663.606	-5.46
663.638	-13.46
663.67	-15.46
663.702	-4.46
663.734	0.54
663.766	8.54
663.798	-4.46
663.83	1.54
663.862	25.54
663.894	1.54
663.926	-4.46
663.958	-7.46
663.99	2.54
664.022	0.54
664.054	2.54
664.086	-6.46
664.118	-23.46
664.15	-20.46
664.182	2.54
664.214	7.54
664.246	-0.46
664.278	3.54
664.31	16.54
664.342	6.54
664.374	13.54
664.406	-4.46
664.438	-12.46
664.47	22.54
664.502	1.54
664.534	12.54
664.566	-12.46
664.598	6.54
664.63	-11.46
664.662	14.54
664.693	-4.46
664.725	-5.46
664.757	-29.46
664.789	-10.46
664.821	-2.46
664.853	3.54
664.885	-14.46
664.917	-0.46
664.949	-7.46
664.981	13.54
665.013	10.54
665.045	-20.46
665.076	-15.46
665.108	3.54
665.14	-6.46
665.172	11.54
665.204	8.54
665.236	-7.46
665.268	-0.46
665.3	-17.46
665.331	-11.46
665.363	-0.46
665.395	-14.46
665.427	-11.46
665.459	-4.46
665.491	-6.46
665.523	-7.46
665.555	-17.46
665.586	-4.46
665.618	3.54
665.65	-8.46
665.682	17.54
665.714	5.54
665.746	-18.46
665.777	0.54
665.809	-0.46
665.841	-4.46
665.873	-9.46
665.905	9.54
665.937	-3.46
665.968	-5.46
666	6.54
666.032	-9.46
666.064	-8.46
666.096	5.54
666.127	-3.46
666.159	9.54
666.191	8.54
666.223	-8.46
666.255	-15.46
666.286	5.54
666.318	-8.46
666.35	2.54
666.382	-10.46
666.413	-10.46
666.445	-9.46
666.477	-8.46
666.509	-3.46
666.54	-6.46
666.572	-7.46
666.604	-2.46
666.636	-5.46
666.667	4.54
666.699	-3.46
666.731	-17.46
666.763	-16.46
666.794	-22.46
666.826	-20.46
666.858	-26.46
666.89	6.54
666.921	5.54
666.953	2.54
666.985	10.54
667.017	14.54
667.048	7.54
667.08	-5.46
667.112	1.54
667.143	-11.46
667.175	-6.46
667.207	-10.46
667.238	-4.46
667.27	-4.46
667.302	3.54
667.334	-1.46
667.365	1.54
667.397	9.54
667.429	-8.46
667.46	0.54
667.492	4.54
667.524	-6.46
667.555	-10.46
667.587	-0.46
667.619	-3.46
667.65	-14.46
667.682	10.54
667.714	15.54
667.745	11.54
667.777	-0.46
667.808	-15.46
667.84	-12.46
667.872	2.54
667.903	15.54
667.935	-16.46
667.967	-10.46
667.998	4.54
668.03	-1.46
668.061	-17.46
668.093	-12.46
668.125	-6.46
668.156	-2.46
668.188	-16.46
668.22	-11.46
668.251	-6.46
668.283	1.54
668.314	22.54
668.346	4.54
668.377	23.54
668.409	7.54
668.441	21.54
668.472	9.54
668.504	15.54
668.535	-0.46
668.567	6.54
668.599	-16.46
668.63	-9.46
668.662	-9.46
668.693	3.54
668.725	-10.46
668.756	1.54
668.788	-4.46
668.819	0.54
668.851	-3.46
668.882	-4.46
668.914	-4.46
668.946	-4.46
668.977	-7.46
669.009	-2.46
669.04	-13.46
669.072	-8.46
669.103	-17.46
669.135	-10.46
669.166	-15.46
669.198	-16.46
669.229	-0.46
669.261	-15.46
669.292	-11.46
669.324	11.54
669.355	-17.46
669.387	-16.46
669.418	-14.46
669.45	-21.46
669.481	-3.46
669.513	7.54
669.544	-0.46
669.576	-8.46
669.607	16.54
669.639	13.54
669.67	-16.46
669.701	-4.46
669.733	-13.46
669.764	-0.46
669.796	-9.46
669.827	-19.46
669.859	-22.46
669.89	5.54
669.922	9.54
669.953	-5.46
669.985	-5.46
670.016	13.54
670.047	3.54
670.079	-2.46
670.11	-0.46
670.142	-6.46
670.173	9.54
670.204	3.54
670.236	-2.46
670.267	-14.46
670.299	-15.46
670.33	-34.46
670.362	-5.46
670.393	2.54
670.424	11.54
670.456	2.54
670.487	-13.46
670.518	-4.46
670.55	-11.46
670.581	-8.46
670.613	-8.46
670.644	-7.46
670.675	-24.46
670.707	-6.46
670.738	-4.46
670.769	-4.46
670.801	-15.46
670.832	-15.46
670.864	-23.46
670.895	-16.46
670.926	-22.46
670.958	-5.46
670.989	-15.46
671.02	-19.46
671.052	-3.46
671.083	1.54
671.114	-13.46
671.146	3.54
671.177	0.54
671.208	-20.46
671.24	-8.46
671.271	-8.46
671.302	11.54
671.333	-11.46
671.365	-12.46
671.396	-19.46
671.427	-13.46
671.459	-0.46
671.49	11.54
671.521	11.54
671.553	6.54
671.584	12.54
671.615	-13.46
671.646	-13.46
671.678	-10.46
671.709	-7.46
671.74	-9.46
671.771	0.54
671.803	-8.46
671.834	-14.46
671.865	-2.46
671.896	10.54
671.928	-10.46
671.959	-25.46
671.99	14.54
672.021	-9.46
672.053	-15.46
672.084	1.54
672.115	-2.46
672.146	-10.46
672.178	-8.46
672.209	-19.46
672.24	-3.46
672.271	32.54
672.303	0.54
672.334	-3.46
672.365	6.54
672.396	-4.46
672.427	11.54
672.459	8.54
672.49	12.54
672.521	-6.46
672.552	-20.46
672.583	0.54
672.615	-9.46
672.646	4.54
672.677	-8.46
672.708	-4.46
672.739	-9.46
672.77	-2.46
672.802	-11.46
672.833	-7.46
672.864	-12.46
672.895	-3.46
672.926	-8.46
672.957	-11.46
672.989	-13.46
673.02	-18.46
673.051	-23.46
673.082	10.54
673.113	-11.46
673.144	-7.46
673.175	-3.46
673.206	2.54
673.238	-1.46
673.269	-10.46
673.3	-14.46
673.331	0.54
673.362	-5.46
673.393	-15.46
673.424	-12.46
673.455	-2.46
673.487	-8.46
673.518	9.54
673.549	-14.46
673.58	-14.46
673.611	-14.46
673.642	-13.46
673.673	-40.46
673.704	1.54
673.735	-2.46
673.766	-7.46
673.797	-7.46
673.828	-4.46
673.86	-8.46
673.891	-32.46
673.922	-24.46
673.953	-4.46
673.984	3.54
674.015	-5.46
674.046	-19.46
674.077	-6.46
674.108	2.54
674.139	-17.46
674.17	-14.46
674.201	-22.46
674.232	-3.46
674.263	-3.46
674.294	-5.46
674.325	-2.46
674.356	1.54
674.387	12.54
674.418	11.54
674.449	-5.46
674.48	-2.46
674.511	4.54
674.542	2.54
674.573	-23.46
674.604	1.54
674.635	-1.46
674.666	9.54
674.697	4.54
674.728	-11.46
674.759	-4.46
674.79	-6.46
674.821	-14.46
674.852	-16.46
674.883	-13.46
674.914	-8.46
674.945	-20.46
674.976	-4.46
675.007	-6.46
675.038	-7.46
675.069	-10.46
675.1	-8.46
675.131	6.54
675.162	-8.46
675.193	-7.46
675.224	-8.46
675.254	-1.46
675.285	-1.46
675.316	-8.46
675.347	-10.46
675.378	-16.46
675.409	-28.46
675.44	-4.46
675.471	-4.46
675.502	-4.46
675.533	-2.46
675.564	-1.46
675.595	-7.46
675.625	18.54
675.656	12.54
675.687	5.54
675.718	-23.46
675.749	14.54
675.78	-16.46
675.811	0.54
675.842	-6.46
675.873	-15.46
675.903	-28.46
675.934	-12.46
675.965	-20.46
675.996	-19.46
676.027	10.54
676.058	-20.46
676.089	-21.46
676.119	-6.46
676.15	-4.46
676.181	-8.46
676.212	-20.46
676.243	8.54
676.274	-14.46
676.304	10.54
676.335	-12.46
676.366	-2.46
676.397	-11.46
676.428	-2.46
676.459	6.54
676.489	-5.46
676.52	14.54
676.551	-0.46
676.582	-14.46
676.613	4.54
676.643	-24.46
676.674	9.54
676.705	-9.46
676.736	-4.46
676.767	4.54
676.797	-11.46
676.828	-3.46
676.859	3.54
676.89	-3.46
676.92	-1.46
676.951	13.54
676.982	3.54
677.013	-3.46
677.044	23.54
677.074	1.54
677.105	-10.46
677.136	-3.46
677.167	-6.46
677.197	3.54
677.228	-12.46
677.259	-17.46
677.289	-14.46
677.32	-14.46
677.351	-7.46
677.382	-8.46
677.412	-12.46
677.443	-11.46
677.474	-14.46
677.505	-19.46
677.535	-1.46
677.566	-0.46
677.597	-4.46
677.627	-17.46
677.658	-7.46
677.689	-3.46
677.72	1.54
677.75	-9.46
677.781	-10.46
677.812	-11.46
677.842	-12.46
677.873	-8.46
677.904	-6.46
677.934	-16.46
677.965	-3.46
677.996	-16.46
678.026	-17.46
678.057	1.54
678.088	-8.46
678.118	-9.46
678.149	-12.46
678.18	-5.46
678.21	-1.46
678.241	-8.46
678.272	5.54
678.302	-3.46
678.333	11.54
678.363	1.54
678.394	-12.46
678.425	-21.46
678.455	8.54
678.486	15.54
678.517	-3.46
678.547	3.54
678.578	-1.46
678.608	-20.46
678.639	-1.46
678.67	-3.46
678.7	-15.46
678.731	-17.46
678.761	-7.46
678.792	1.54
678.823	2.54
678.853	6.54
678.884	-12.46
678.914	1.54
678.945	4.54
678.975	-26.46
679.006	-2.46
679.037	-13.46
679.067	18.54
679.098	1.54
679.128	-16.46
679.159	-9.46
679.189	-4.46
679.22	-28.46
679.25	4.54
679.281	0.54
679.312	-21.46
679.342	-15.46
679.373	-1.46
679.403	-14.46
679.434	-3.46
679.464	7.54
679.495	1.54
679.525	3.54
679.556	-6.46
679.586	-1.46
679.617	-4.46
679.647	8.54
679.678	1.54
679.708	-2.46
679.739	-22.46
679.769	-15.46
679.8	13.54
679.83	-4.46
679.861	14.54
679.891	-8.46
679.922	-19.46
679.952	6.54
679.983	15.54
680.013	10.54
680.044	-11.46
680.074	-3.46
680.105	-6.46
680.135	-2.46
680.165	7.54
680.196	1.54
680.226	-2.46
680.257	-7.46
680.287	-11.46
680.318	-4.46
680.348	-9.46
680.379	-5.46
680.409	-9.46
680.439	-21.46
680.47	-14.46
680.5	3.54
680.531	-1.46
680.561	12.54
680.592	1.54
680.622	17.54
680.652	-6.46
680.683	3.54
680.713	-11.46
680.744	-2.46
680.774	-14.46
680.804	9.54
680.835	-5.46
680.865	-24.46
680.896	16.54
680.926	7.54
680.956	4.54
680.987	1.54
681.017	-4.46
681.047	14.54
681.078	-12.46
681.108	-8.46
681.139	-7.46
681.169	-5.46
681.199	-2.46
681.23	4.54
681.26	0.54
681.29	-8.46
681.321	-18.46
681.351	-16.46
681.381	-17.46
681.412	-4.46
681.442	7.54
681.472	6.54
681.503	8.54
681.533	-8.46
681.563	-13.46
681.594	-14.46
681.624	-4.46
681.654	-0.46
681.685	12.54
681.715	3.54
681.745	3.54
681.775	-3.46
681.806	-3.46
681.836	-17.46
681.866	-13.46
681.897	-12.46
681.927	-22.46
681.957	-24.46
681.987	-7.46
682.018	-5.46
682.048	-11.46
682.078	-9.46
682.109	-1.46
682.139	14.54
682.169	-6.46
682.199	-4.46
682.23	-14.46
682.26	8.54
682.29	-11.46
682.32	-1.46
682.351	-7.46
682.381	4.54
682.411	-7.46
682.441	-12.46
682.472	-17.46
682.502	-11.46
682.532	-10.46
682.562	-6.46
682.592	-0.46
682.623	5.54
682.653	-1.46
682.683	-12.46
682.713	9.54
682.743	-4.46
682.774	-13.46
682.804	-5.46
682.834	24.54
682.864	-1.46
682.894	-8.46
682.925	-14.46
682.955	-5.46
682.985	3.54
683.015	15.54
683.045	3.54
683.076	-3.46
683.106	-23.46
683.136	-14.46
683.166	-17.46
683.196	-10.46
683.226	-11.46
683.257	-14.46
683.287	-7.46
683.317	-19.46
683.347	-14.46
683.377	-10.46
683.407	11.54
683.437	11.54
683.468	4.54
683.498	-18.46
683.528	-4.46
683.558	-17.46
683.588	-17.46
683.618	-36.46
683.648	-13.46
683.678	-5.46
683.708	-4.46
683.739	-10.46
683.769	-6.46
683.799	-16.46
683.829	-15.46
683.859	-25.46
683.889	-0.46
683.919	1.54
683.949	-2.46
683.979	-12.46
684.009	0.54
684.039	-5.46
684.07	-17.46
684.1	-8.46
684.13	-5.46
684.16	0.54
684.19	-15.46
684.22	-0.46
684.25	-1.46
684.28	-17.46
684.31	-5.46
684.34	-7.46
684.37	0.54
684.4	-14.46
684.43	-13.46
684.46	-0.46
684.49	2.54
684.52	1.54
684.55	-0.46
684.58	-4.46
684.61	-5.46
684.64	7.54
684.67	10.54
684.7	-3.46
684.73	-7.46
684.76	-12.46
684.79	3.54
684.82	-2.46
684.85	-14.46
684.88	-1.46
684.91	-8.46
684.94	-4.46
684.97	-9.46
685	-4.46
685.03	-3.46
685.06	-10.46
685.09	-10.46
685.12	-0.46
685.15	-16.46
685.18	10.54
685.21	1.54
685.24	7.54
685.27	-0.46
685.3	-2.46
685.33	-8.46
685.36	-11.46
685.39	-8.46
685.42	-15.46
685.45	2.54
685.48	-4.46
685.51	-20.46
685.54	0.54
685.569	-2.46
685.599	-1.46
685.629	-2.46
685.659	-14.46
685.689	-7.46
685.719	7.54
685.749	-12.46
685.779	3.54
685.809	19.54
685.839	8.54
685.869	9.54
685.898	-5.46
685.928	5.54
685.958	-1.46
685.988	1.54
686.018	-2.46
686.048	5.54
686.078	16.54
686.108	10.54
686.137	-12.46
686.167	-2.46
686.197	-14.46
686.227	-2.46
686.257	9.54
686.287	20.54
686.317	-13.46
686.346	-1.46
686.376	-3.46
686.406	-13.46
686.436	6.54
686.466	0.54
686.496	5.54
686.525	-3.46
686.555	-14.46
686.585	17.54
686.615	21.54
686.645	4.54
686.675	-2.46
686.704	-0.46
686.734	6.54
686.764	-7.46
686.794	5.54
686.824	-13.46
686.853	-5.46
686.883	-15.46
686.913	-0.46
686.943	0.54
686.973	-6.46
687.002	-6.46
687.032	-15.46
687.062	-3.46
687.092	8.54
687.121	-13.46
687.151	-9.46
687.181	1.54
687.211	21.54
687.24	3.54
687.27	5.54
687.3	-5.46
687.33	-6.46
687.359	-31.46
687.389	4.54
687.419	-9.46
687.449	2.54
687.478	3.54
687.508	0.54
687.538	7.54
687.568	-2.46
687.597	-5.46
687.627	-9.46
687.657	-5.46
687.686	-11.46
687.716	11.54
687.746	-10.46
687.776	-7.46
687.805	-2.46
687.835	-8.46
687.865	22.54
687.894	15.54
687.924	-13.46
687.954	-11.46
687.983	-0.46
688.013	15.54
688.043	-9.46
688.072	0.54
688.102	2.54
688.132	-14.46
688.161	-5.46
688.191	-9.46
688.221	25.54
688.25	-11.46
688.28	0.54
688.31	-0.46
688.339	-10.46
688.369	-10.46
688.399	-10.46
688.428	-25.46
688.458	9.54
688.488	12.54
688.517	15.54
688.547	-0.46
688.576	40.54
688.606	-2.46
688.636	-13.46
688.665	0.54
688.695	3.54
688.725	14.54
688.754	6.54
688.784	-3.46
688.813	6.54
688.843	-6.46
688.873	-11.46
688.902	-11.46
688.932	-14.46
688.961	2.54
688.991	-3.46
689.02	9.54
689.05	-2.46
689.08	13.54
689.109	-8.46
689.139	-1.46
689.168	-5.46
689.198	-15.46
689.227	-7.46
689.257	17.54
689.287	5.54
689.316	2.54
689.346	-9.46
689.375	-5.46
689.405	-12.46
689.434	0.54
689.464	3.54
689.493	-12.46
689.523	-13.46
689.552	2.54
689.582	12.54
689.611	-4.46
689.641	-7.46
689.67	-11.46
689.7	-1.46
689.73	0.54
689.759	8.54
689.789	12.54
689.818	-13.46
689.848	-11.46
689.877	9.54
689.906	-12.46
689.936	-5.46
689.965	-2.46
689.995	3.54
690.024	-10.46
690.054	2.54
690.083	3.54
690.113	-10.46
690.142	-11.46
690.172	-5.46
690.201	-8.46
690.231	7.54
690.26	0.54
690.29	-9.46
690.319	5.54
690.348	4.54
690.378	2.54
690.407	-16.46
690.437	0.54
690.466	-2.46
690.496	6.54
690.525	12.54
690.555	2.54
690.584	6.54
690.613	-15.46
690.643	6.54
690.672	-0.46
690.702	9.54
690.731	-5.46
690.76	23.54
690.79	41.54
690.819	38.54
690.849	48.54
690.878	25.54
690.907	13.54
690.937	6.54
690.966	3.54
690.996	-7.46
691.025	-4.46
691.054	-17.46
691.084	-12.46
691.113	-4.46
691.142	16.54
691.172	5.54
691.201	3.54
691.23	-6.46
691.26	20.54
691.289	2.54
691.319	-4.46
691.348	3.54
691.377	-2.46
691.407	-5.46
691.436	15.54
691.465	-11.46
691.495	-12.46
691.524	-7.46
691.553	-9.46
691.583	-18.46
691.612	5.54
691.641	-1.46
691.67	1.54
691.7	-7.46
691.729	-17.46
691.758	-4.46
691.788	1.54
691.817	-5.46
691.846	-12.46
691.876	-4.46
691.905	-0.46
691.934	-6.46
691.963	10.54
691.993	-4.46
692.022	-4.46
692.051	-8.46
692.081	11.54
692.11	9.54
692.139	4.54
692.168	-5.46
692.198	5.54
692.227	-8.46
692.256	0.54
692.285	1.54
692.315	-13.46
692.344	-2.46
692.373	4.54
692.402	-23.46
692.432	-20.46
692.461	-19.46
692.49	9.54
692.519	-2.46
692.548	6.54
692.578	7.54
692.607	-16.46
692.636	-0.46
692.665	3.54
692.694	-2.46
692.724	-12.46
692.753	-2.46
692.782	10.54
692.811	4.54
692.84	3.54
692.87	-2.46
692.899	-8.46
692.928	-1.46
692.957	9.54
692.986	3.54
693.016	-9.46
693.045	2.54
693.074	-14.46
693.103	0.54
693.132	-2.46
693.161	5.54
693.191	-9.46
693.22	-5.46
693.249	3.54
693.278	-11.46
693.307	-7.46
693.336	-24.46
693.365	-22.46
693.395	-0.46
693.424	8.54
693.453	23.54
693.482	-6.46
693.511	-2.46
693.54	-4.46
693.569	4.54
693.598	1.54
693.628	4.54
693.657	23.54
693.686	26.54
693.715	2.54
693.744	16.54
693.773	18.54
693.802	-28.46
693.831	-15.46
693.86	3.54
693.889	-17.46
693.919	-8.46
693.948	-8.46
693.977	-5.46
694.006	-6.46
694.035	-2.46
694.064	-3.46
694.093	-12.46
694.122	-12.46
694.151	1.54
694.18	11.54
694.209	14.54
694.238	-5.46
694.267	14.54
694.296	13.54
694.325	-1.46
694.354	1.54
694.383	-4.46
694.412	7.54
694.441	-13.46
694.471	-9.46
694.5	-20.46
694.529	1.54
694.558	13.54
694.587	4.54
694.616	-18.46
694.645	-0.46
694.674	-0.46
694.703	-3.46
694.732	-9.46
694.761	7.54
694.79	1.54
694.819	-25.46
694.848	2.54
694.877	17.54
694.906	16.54
694.935	-9.46
694.963	11.54
694.992	3.54
695.021	10.54
695.05	15.54
695.079	-4.46
695.108	0.54
695.137	-2.46
695.166	14.54
695.195	-6.46
695.224	-10.46
695.253	1.54
695.282	-8.46
695.311	-0.46
695.34	-18.46
695.369	0.54
695.398	-0.46
695.427	9.54
695.456	-7.46
695.485	-0.46
695.513	-3.46
695.542	-8.46
695.571	0.54
695.6	3.54
695.629	-9.46
695.658	-7.46
695.687	-12.46
695.716	-2.46
695.745	19.54
695.774	-26.46
695.802	-8.46
695.831	-7.46
695.86	-5.46
695.889	7.54
695.918	6.54
695.947	-0.46
695.976	11.54
696.005	0.54
696.033	-4.46
696.062	15.54
696.091	6.54
696.12	18.54
696.149	-3.46
696.178	-14.46
696.207	-3.46
696.235	-4.46
696.264	-1.46
696.293	1.54
696.322	-2.46
696.351	-4.46
696.38	-14.46
696.408	-5.46
696.437	-7.46
696.466	-9.46
696.495	-0.46
696.524	-4.46
696.553	-6.46
696.581	16.54
696.61	-1.46
696.639	-5.46
696.668	17.54
696.697	9.54
696.725	16.54
696.754	-3.46
696.783	-2.46
696.812	-7.46
696.84	13.54
696.869	4.54
696.898	-5.46
696.927	2.54
696.956	11.54
696.984	-9.46
697.013	4.54
697.042	6.54
697.071	11.54
697.099	11.54
697.128	13.54
697.157	5.54
697.186	0.54
697.214	-4.46
697.243	-4.46
697.272	-15.46
697.301	-9.46
697.329	-7.46
697.358	4.54
697.387	15.54
697.415	2.54
697.444	9.54
697.473	-3.46
697.502	-10.46
697.53	-1.46
697.559	-1.46
697.588	-14.46
697.616	-9.46
697.645	4.54
697.674	7.54
697.703	-2.46
697.731	6.54
697.76	-4.46
697.789	-13.46
697.817	-17.46
697.846	5.54
697.875	-5.46
697.903	11.54
697.932	10.54
697.961	-0.46
697.989	-1.46
698.018	1.54
698.047	9.54
698.075	-4.46
698.104	-10.46
698.133	-14.46
698.161	-19.46
698.19	9.54
698.218	-7.46
698.247	-4.46
698.276	-4.46
698.304	0.54
698.333	6.54
698.362	12.54
698.39	-10.46
698.419	0.54
698.447	-15.46
698.476	-17.46
698.505	-4.46
698.533	8.54
698.562	-7.46
698.591	-23.46
698.619	-7.46
698.648	-2.46
698.676	0.54
698.705	-2.46
698.733	-13.46
698.762	-0.46
698.791	-19.46
698.819	-5.46
698.848	-8.46
698.876	12.54
698.905	-6.46
698.933	-4.46
698.962	9.54
698.991	-10.46
699.019	4.54
699.048	-5.46
699.076	10.54
699.105	-7.46
699.133	-19.46
699.162	19.54
699.19	25.54
699.219	-0.46
699.248	-12.46
699.276	-8.46
699.305	1.54
699.333	0.54
699.362	0.54
699.39	-3.46
699.419	-27.46
699.447	-6.46
699.476	-7.46
699.504	-17.46
699.533	1.54
699.561	-14.46
699.59	-2.46
699.618	8.54
699.647	9.54
699.675	0.54
699.704	9.54
699.732	-1.46
699.761	9.54
699.789	-2.46
699.818	5.54
699.846	-10.46
699.874	-5.46
699.903	-9.46
699.931	-17.46
699.96	7.54
699.988	2.54
700.017	1.54
700.045	-1.46
700.074	-16.46
700.102	-13.46
700.13	-4.46
700.159	0.54
700.187	9.54
700.216	-3.46
700.244	-18.46
700.273	-15.46
700.301	-7.46
700.329	-8.46
700.358	-7.46
700.386	-6.46
700.415	0.54
700.443	9.54
700.472	-11.46
700.5	-3.46
700.528	10.54
700.557	-3.46
700.585	-2.46
700.614	-2.46
700.642	-2.46
700.67	24.54
700.699	10.54
700.727	6.54
700.755	8.54
700.784	-2.46
700.812	-8.46
700.841	-13.46
700.869	-6.46
700.897	-11.46
700.926	-16.46
700.954	4.54
700.982	3.54
701.011	-8.46
701.039	-4.46
701.067	-3.46
701.096	-2.46
701.124	-16.46
701.152	-11.46
701.181	3.54
701.209	-15.46
701.237	-4.46
701.266	-19.46
701.294	-10.46
701.322	-10.46
701.351	2.54
701.379	-9.46
701.407	-0.46
701.435	-13.46
701.464	1.54
701.492	7.54
701.52	-13.46
701.549	-4.46
701.577	-10.46
701.605	-14.46
701.634	-27.46
701.662	11.54
701.69	-23.46
701.718	-1.46
701.747	2.54
701.775	-1.46
701.803	-12.46
701.831	2.54
701.86	-0.46
701.888	9.54
701.916	-1.46
701.944	-4.46
701.973	-7.46
702.001	-16.46
702.029	-19.46
702.057	-15.46
702.086	-17.46
702.114	-14.46
702.142	-1.46
702.17	-7.46
702.199	-4.46
702.227	-7.46
702.255	-23.46
702.283	-10.46
702.311	10.54
702.34	5.54
702.368	-13.46
702.396	-2.46
702.424	-1.46
702.452	-9.46
702.481	5.54
702.509	-4.46
702.537	2.54
702.565	17.54
702.593	-32.46
702.621	-14.46
702.65	-4.46
702.678	1.54
702.706	-2.46
702.734	-4.46
702.762	-0.46
702.79	-5.46
702.819	-2.46
702.847	-0.46
702.875	10.54
702.903	24.54
702.931	-11.46
702.959	9.54
702.988	-4.46
703.016	-25.46
703.044	-24.46
703.072	-10.46
703.1	-20.46
703.128	-7.46
703.156	0.54
703.184	7.54
703.212	-1.46
703.241	-4.46
703.269	-12.46
703.297	-5.46
703.325	-0.46
703.353	-23.46
703.381	-11.46
703.409	-12.46
703.437	-9.46
703.465	-5.46
703.493	-10.46
703.522	-13.46
703.55	3.54
703.578	9.54
703.606	-11.46
703.634	-14.46
703.662	-15.46
703.69	-4.46
703.718	10.54
703.746	2.54
703.774	-5.46
703.802	2.54
703.83	0.54
703.858	-3.46
703.886	-0.46
703.914	-8.46
703.942	16.54
703.97	-7.46
703.998	-1.46
704.027	19.54
704.055	12.54
704.083	-0.46
704.111	-15.46
704.139	-10.46
704.167	-6.46
704.195	-7.46
704.223	-9.46
704.251	-6.46
704.279	3.54
704.307	-12.46
704.335	-34.46
704.363	2.54
704.391	-12.46
704.419	-9.46
704.447	-11.46
704.475	-15.46
704.503	-10.46
704.531	-6.46
704.558	-9.46
704.586	0.54
704.614	-6.46
704.642	5.54
704.67	-14.46
704.698	-3.46
704.726	-17.46
704.754	-6.46
704.782	-1.46
704.81	-8.46
704.838	-2.46
704.866	-7.46
704.894	-21.46
704.922	-8.46
704.95	2.54
704.978	6.54
705.006	-7.46
705.034	9.54
705.061	-16.46
705.089	-5.46
705.117	-23.46
705.145	-6.46
705.173	4.54
705.201	-2.46
705.229	0.54
705.257	-2.46
705.285	8.54
705.313	-2.46
705.34	2.54
705.368	-9.46
705.396	-3.46
705.424	2.54
705.452	-10.46
705.48	-1.46
705.508	-11.46
705.536	-4.46
705.563	-19.46
705.591	-3.46
705.619	-7.46
705.647	-8.46
705.675	-10.46
705.703	0.54
705.731	-15.46
705.758	-0.46
705.786	-8.46
705.814	23.54
705.842	-8.46
705.87	-0.46
705.898	0.54
705.925	-11.46
705.953	-5.46
705.981	-6.46
706.009	-3.46
706.037	3.54
706.065	1.54
706.092	2.54
706.12	-6.46
706.148	-18.46
706.176	-4.46
706.204	-3.46
706.231	-6.46
706.259	-10.46
706.287	-11.46
706.315	-15.46
706.342	-20.46
706.37	-14.46
706.398	-5.46
706.426	-14.46
706.454	6.54
706.481	-3.46
706.509	4.54
706.537	-9.46
706.565	-14.46
706.592	3.54
706.62	-7.46
706.648	-0.46
706.676	-10.46
706.703	3.54
706.731	-13.46
706.759	-16.46
706.787	-4.46
706.814	-11.46
706.842	-13.46
706.87	-9.46
706.897	0.54
706.925	16.54
706.953	2.54
706.981	12.54
707.008	5.54
707.036	-5.46
707.064	-4.46
707.091	-27.46
707.119	-5.46
707.147	-7.46
707.174	-11.46
707.202	1.54
707.23	-0.46
707.258	-11.46
707.285	-18.46
707.313	-9.46
707.341	-10.46
707.368	0.54
707.396	-2.46
707.424	12.54
707.451	-5.46
707.479	-4.46
707.507	-13.46
707.534	-2.46
707.562	-5.46
707.59	-12.46
707.617	-6.46
707.645	-7.46
707.672	-8.46
707.7	-2.46
707.728	-0.46
707.755	-5.46
707.783	-0.46
707.811	-9.46
707.838	-6.46
707.866	6.54
707.893	-11.46
707.921	-6.46
707.949	-3.46
707.976	-14.46
708.004	-22.46
708.031	-8.46
708.059	-9.46
708.087	0.54
708.114	-15.46
708.142	-7.46
708.169	-1.46
708.197	-7.46
708.225	-7.46
708.252	4.54
708.28	10.54
708.307	-0.46
708.335	-7.46
708.362	-16.46
708.39	-10.46
708.418	-8.46
708.445	-18.46
708.473	-12.46
708.5	-11.46
708.528	14.54
708.555	-14.46
708.583	-1.46
708.61	-10.46
708.638	-4.46
708.665	-19.46
708.693	-11.46
708.72	-24.46
708.748	-23.46
708.776	-0.46
708.803	13.54
708.831	9.54
708.858	11.54
708.886	-13.46
708.913	8.54
708.941	-9.46
708.968	16.54
708.996	-10.46
709.023	30.54
709.051	-13.46
709.078	-28.46
709.105	-12.46
709.133	-1.46
709.16	-3.46
709.188	-4.46
709.215	-0.46
709.243	-3.46
709.27	-20.46
709.298	-30.46
709.325	-9.46
709.353	-8.46
709.38	-1.46
709.408	10.54
709.435	-8.46
709.462	-8.46
709.49	-4.46
709.517	4.54
709.545	-9.46
709.572	-3.46
709.6	-12.46
709.627	-3.46
709.655	-0.46
709.682	-19.46
709.709	-5.46
709.737	7.54
709.764	-7.46
709.792	5.54
709.819	-5.46
709.846	-13.46
709.874	-13.46
709.901	7.54
709.929	15.54
709.956	14.54
709.983	-28.46
710.011	-15.46
710.038	-16.46
710.066	-1.46
710.093	1.54
710.12	-7.46
710.148	-4.46
710.175	-8.46
710.202	2.54
710.23	-6.46
710.257	-9.46
710.284	-6.46
710.312	-8.46
710.339	-7.46
710.366	-4.46
710.394	-4.46
710.421	1.54
710.448	-9.46
710.476	-17.46
710.503	-9.46
710.53	-12.46
710.558	4.54
710.585	-9.46
710.612	-15.46
710.64	4.54
710.667	0.54
710.694	-8.46
710.722	-0.46
710.749	-12.46
710.776	-12.46
710.804	-7.46
710.831	-5.46
710.858	-2.46
710.885	-11.46
710.913	0.54
710.94	11.54
710.967	8.54
710.995	-8.46
711.022	-5.46
711.049	-1.46
711.076	2.54
711.104	0.54
711.131	-11.46
711.158	-1.46
711.185	9.54
711.213	-13.46
711.24	-21.46
711.267	-9.46
711.294	-13.46
711.322	5.54
711.349	-9.46
711.376	-9.46
711.403	1.54
711.431	-2.46
711.458	-11.46
711.485	-9.46
711.512	17.54
711.54	1.54
711.567	10.54
711.594	-5.46
711.621	-3.46
711.648	-3.46
711.676	-3.46
711.703	-12.46
711.73	-20.46
711.757	-0.46
711.784	9.54
711.812	-2.46
711.839	1.54
711.866	-17.46
711.893	-17.46
711.92	3.54
711.947	-0.46
711.975	5.54
712.002	-9.46
712.029	6.54
712.056	-7.46
712.083	2.54
712.11	-14.46
712.138	-14.46
712.165	-7.46
712.192	-11.46
712.219	-9.46
712.246	-14.46
712.273	-23.46
712.3	-4.46
712.328	-4.46
712.355	-6.46
712.382	-11.46
712.409	9.54
712.436	-8.46
712.463	10.54
712.49	15.54
712.517	-13.46
712.544	4.54
712.572	5.54
712.599	-9.46
712.626	-4.46
712.653	-7.46
712.68	0.54
712.707	-5.46
712.734	13.54
712.761	11.54
712.788	-1.46
712.815	-0.46
712.842	-1.46
712.87	4.54
712.897	-12.46
712.924	-10.46
712.951	-7.46
712.978	18.54
713.005	14.54
713.032	3.54
713.059	-7.46
713.086	-6.46
713.113	-5.46
713.14	-6.46
713.167	-3.46
713.194	-9.46
713.221	-1.46
713.248	0.54
713.275	-19.46
713.302	2.54
713.329	4.54
713.356	4.54
713.383	-13.46
713.41	1.54
713.437	-22.46
713.464	-1.46
713.491	0.54
713.518	-4.46
713.545	-14.46
713.572	2.54
713.599	16.54
713.626	-13.46
713.653	26.54
713.68	-15.46
713.707	4.54
713.734	-12.46
713.761	-1.46
713.788	-4.46
713.815	5.54
713.842	0.54
713.869	-9.46
713.896	-6.46
713.923	0.54
713.95	-13.46
713.977	-7.46
714.004	-4.46
714.031	-5.46
714.058	-1.46
714.085	-9.46
714.112	15.54
714.139	3.54
714.165	-0.46
714.192	-17.46
714.219	-11.46
714.246	1.54
714.273	0.54
714.3	-11.46
714.327	-2.46
714.354	14.54
714.381	-14.46
714.408	-2.46
714.435	-20.46
714.461	-7.46
714.488	7.54
714.515	-6.46
714.542	1.54
714.569	-6.46
714.596	-8.46
714.623	-0.46
714.65	-7.46
714.677	-2.46
714.703	-9.46
714.73	-6.46
714.757	9.54
714.784	-4.46
714.811	-16.46
714.838	-13.46
714.865	-31.46
714.891	-8.46
714.918	-7.46
714.945	-5.46
714.972	-16.46
714.999	-8.46
715.026	-12.46
715.052	5.54
715.079	7.54
715.106	5.54
715.133	0.54
715.16	-7.46
715.187	-1.46
715.213	-5.46
715.24	-15.46
715.267	-1.46
715.294	-9.46
715.321	-23.46
715.347	-3.46
715.374	-14.46
715.401	-9.46
715.428	2.54
715.455	-18.46
715.481	-21.46
715.508	3.54
715.535	-11.46
715.562	9.54
715.588	-6.46
715.615	-7.46
715.642	-8.46
715.669	-2.46
715.695	-12.46
715.722	-13.46
715.749	-4.46
715.776	-3.46
715.802	-8.46
715.829	-7.46
715.856	-24.46
715.883	16.54
715.909	-3.46
715.936	3.54
715.963	-2.46
715.99	-21.46
716.016	-15.46
716.043	-13.46
716.07	-20.46
716.096	-37.46
716.123	-20.46
716.15	-2.46
716.177	-22.46
716.203	7.54
716.23	6.54
716.257	2.54
716.283	9.54
716.31	0.54
716.337	6.54
716.363	-0.46
716.39	-17.46
716.417	11.54
716.443	-3.46
716.47	18.54
716.497	3.54
716.523	20.54
716.55	-8.46
716.577	14.54
716.603	-17.46
716.63	-2.46
716.657	12.54
716.683	-11.46
716.71	-14.46
716.737	-19.46
716.763	-9.46
716.79	-3.46
716.817	-4.46
716.843	-6.46
716.87	-11.46
716.897	6.54
716.923	16.54
716.95	-16.46
716.976	-9.46
717.003	-16.46
717.03	-10.46
717.056	3.54
717.083	-3.46
717.109	3.54
717.136	-2.46
717.163	-11.46
717.189	-9.46
717.216	-5.46
717.242	-11.46
717.269	-14.46
717.296	-2.46
717.322	0.54
717.349	-2.46
717.375	-2.46
717.402	-8.46
717.428	-15.46
717.455	1.54
717.481	-7.46
717.508	4.54
717.535	-2.46
717.561	-10.46
717.588	-5.46
717.614	-5.46
717.641	-1.46
717.667	-21.46
717.694	3.54
717.72	-24.46
717.747	7.54
717.773	-11.46
717.8	-8.46
717.826	-3.46
717.853	-11.46
717.88	-1.46
717.906	-6.46
717.933	-1.46
717.959	4.54
717.986	-1.46
718.012	-3.46
718.039	10.54
718.065	4.54
718.092	4.54
718.118	-13.46
718.144	-12.46
718.171	9.54
718.197	14.54
718.224	-4.46
718.25	-1.46
718.277	-4.46
718.303	-3.46
718.33	-16.46
718.356	-14.46
718.383	-30.46
718.409	-2.46
718.436	-9.46
718.462	-8.46
718.489	-6.46
718.515	3.54
718.541	4.54
718.568	5.54
718.594	-0.46
718.621	-2.46
718.647	-1.46
718.674	5.54
718.7	14.54
718.726	-9.46
718.753	-7.46
718.779	2.54
718.806	-2.46
718.832	-8.46
718.858	-3.46
718.885	-3.46
718.911	-2.46
718.938	-2.46
718.964	-27.46
718.99	0.54
719.017	-10.46
719.043	3.54
719.07	6.54
719.096	-4.46
719.122	14.54
719.149	-3.46
719.175	-5.46
719.201	4.54
719.228	-5.46
719.254	-9.46
719.281	-21.46
719.307	-3.46
719.333	-13.46
719.36	0.54
719.386	-2.46
719.412	9.54
719.439	-8.46
719.465	-4.46
719.491	-15.46
719.518	2.54
719.544	-13.46
719.57	-4.46
719.597	-2.46
719.623	-19.46
719.649	-9.46
719.675	-9.46
719.702	0.54
719.728	20.54
719.754	3.54
719.781	3.54
719.807	-11.46
719.833	-12.46
719.86	-16.46
719.886	-21.46
719.912	-2.46
719.938	-5.46
719.965	-0.46
719.991	5.54
720.017	-5.46
720.044	-5.46
720.07	-5.46
720.096	6.54
720.122	14.54
720.149	-11.46
720.175	1.54
720.201	-7.46
720.227	-14.46
720.254	0.54
720.28	-0.46
720.306	-8.46
720.332	-6.46
720.359	-7.46
720.385	-0.46
720.411	0.54
720.437	2.54
720.463	-5.46
720.49	-2.46
720.516	-17.46
720.542	-33.46
720.568	-13.46
720.595	1.54
720.621	-7.46
720.647	-13.46
720.673	14.54
720.699	-7.46
720.725	2.54
720.752	10.54
720.778	12.54
720.804	-16.46
720.83	-4.46
720.856	-8.46
720.883	-12.46
720.909	-23.46
720.935	7.54
720.961	1.54
720.987	-6.46
721.013	-7.46
721.04	-0.46
721.066	-16.46
721.092	-1.46
721.118	-6.46
721.144	-1.46
721.17	-16.46
721.196	-8.46
721.223	-9.46
721.249	-11.46
721.275	12.54
721.301	-12.46
721.327	-2.46
721.353	2.54
721.379	5.54
721.405	-5.46
721.432	-9.46
721.458	-13.46
721.484	-0.46
721.51	-33.46
721.536	-7.46
721.562	4.54
721.588	8.54
721.614	-25.46
721.64	4.54
721.666	-4.46
721.693	-12.46
721.719	-5.46
721.745	-14.46
721.771	-9.46
721.797	-6.46
721.823	7.54
721.849	14.54
721.875	-2.46
721.901	5.54
721.927	-12.46
721.953	-9.46
721.979	6.54
722.005	-9.46
722.031	-7.46
722.057	-0.46
722.083	17.54
722.109	-5.46
722.135	1.54
722.161	1.54
722.187	-14.46
722.214	-12.46
722.24	5.54
722.266	-19.46
722.292	-3.46
722.318	1.54
722.344	8.54
722.37	4.54
722.396	2.54
722.422	-8.46
722.448	-12.46
722.474	-20.46
722.5	-19.46
722.526	-16.46
722.552	-8.46
722.578	-8.46
722.603	0.54
722.629	-11.46
722.655	9.54
722.681	-9.46
722.707	-11.46
722.733	-5.46
722.759	-17.46
722.785	3.54
722.811	-5.46
722.837	2.54
722.863	8.54
722.889	-2.46
722.915	16.54
722.941	8.54
722.967	-0.46
722.993	-6.46
723.019	-10.46
723.045	-0.46
723.071	-4.46
723.097	-13.46
723.122	-7.46
723.148	-6.46
723.174	-9.46
723.2	-1.46
723.226	-5.46
723.252	4.54
723.278	-11.46
723.304	-14.46
723.33	-13.46
723.356	-8.46
723.381	-8.46
723.407	-28.46
723.433	-2.46
723.459	-23.46
723.485	-3.46
723.511	4.54
723.537	-9.46
723.563	-11.46
723.588	2.54
723.614	10.54
723.64	3.54
723.666	-6.46
723.692	0.54
723.718	-5.46
723.744	5.54
723.769	-15.46
723.795	-3.46
723.821	2.54
723.847	-5.46
723.873	14.54
723.899	-4.46
723.924	-1.46
723.95	0.54
723.976	-13.46
724.002	1.54
724.028	0.54
724.053	-20.46
724.079	-16.46
724.105	-7.46
724.131	-6.46
724.157	-1.46
724.182	-5.46
724.208	-6.46
724.234	-4.46
724.26	-21.46
724.286	-8.46
724.311	-4.46
724.337	-6.46
724.363	-19.46
724.389	-13.46
724.415	-10.46
724.44	4.54
724.466	-6.46
724.492	-15.46
724.518	7.54
724.543	-0.46
724.569	3.54
724.595	-10.46
724.621	-9.46
724.646	-4.46
724.672	-16.46
724.698	-8.46
724.723	-9.46
724.749	-12.46
724.775	2.54
724.801	-7.46
724.826	-5.46
724.852	-11.46
724.878	-20.46
724.904	-20.46
724.929	5.54
724.955	-19.46
724.981	-0.46
725.006	1.54
725.032	-11.46
725.058	-2.46
725.083	-22.46
725.109	-16.46
725.135	-3.46
725.161	3.54
725.186	-7.46
725.212	-7.46
725.238	1.54
725.263	-11.46
725.289	-12.46
725.315	-17.46
725.34	-11.46
725.366	0.54
725.392	-23.46
725.417	-5.46
725.443	-8.46
725.468	2.54
725.494	0.54
725.52	-6.46
725.545	-6.46
725.571	-19.46
725.597	-8.46
725.622	-3.46
725.648	-15.46
725.674	-9.46
725.699	-25.46
725.725	-20.46
725.75	9.54
725.776	-9.46
725.802	-6.46
725.827	-13.46
725.853	-0.46
725.878	-1.46
725.904	-12.46
725.93	-3.46
725.955	-6.46
725.981	-12.46
726.006	-11.46
726.032	-5.46
726.057	-6.46
726.083	6.54
726.109	-8.46
726.134	-7.46
726.16	2.54
726.185	-3.46
726.211	-6.46
726.236	1.54
726.262	-2.46
726.288	-0.46
726.313	-3.46
726.339	13.54
726.364	-4.46
726.39	-5.46
726.415	-12.46
726.441	2.54
726.466	-13.46
726.492	2.54
726.517	5.54
726.543	-7.46
726.568	-22.46
726.594	-7.46
726.619	2.54
726.645	2.54
726.67	-6.46
726.696	9.54
726.721	2.54
726.747	-20.46
726.772	-12.46
726.798	-13.46
726.823	7.54
726.849	-13.46
726.874	-1.46
726.9	18.54
726.925	4.54
726.951	-7.46
726.976	4.54
727.002	-19.46
727.027	2.54
727.053	0.54
727.078	-14.46
727.104	-3.46
727.129	-13.46
727.155	-16.46
727.18	0.54
727.205	2.54
727.231	-12.46
727.256	-3.46
727.282	-15.46
727.307	4.54
727.333	3.54
727.358	3.54
727.383	-8.46
727.409	-13.46
727.434	-3.46
727.46	-9.46
727.485	-4.46
727.511	-12.46
727.536	-7.46
727.561	-8.46
727.587	-4.46
727.612	-3.46
727.637	-11.46
727.663	-5.46
727.688	5.54
727.714	-6.46
727.739	-9.46
727.764	0.54
727.79	-6.46
727.815	2.54
727.841	-7.46
727.866	2.54
727.891	1.54
727.917	-27.46
727.942	-14.46
727.967	-16.46
727.993	-23.46
728.018	-24.46
728.043	-1.46
728.069	-7.46
728.094	5.54
728.119	-6.46
728.145	12.54
728.17	3.54
728.195	-9.46
728.221	2.54
728.246	-0.46
728.271	-5.46
728.297	5.54
728.322	8.54
728.347	-1.46
728.373	1.54
728.398	2.54
728.423	2.54
728.448	-5.46
728.474	4.54
728.499	-4.46
728.524	-4.46
728.55	5.54
728.575	8.54
728.6	-9.46
728.625	-12.46
728.651	-5.46
728.676	-17.46
728.701	-14.46
728.727	10.54
728.752	-12.46
728.777	-2.46
728.802	9.54
728.828	9.54
728.853	3.54
728.878	-15.46
728.903	-1.46
728.929	-12.46
728.954	-16.46
728.979	-12.46
729.004	-5.46
729.03	-30.46
729.055	-2.46
729.08	-14.46
729.105	-9.46
729.13	-5.46
729.156	-3.46
729.181	1.54
729.206	-15.46
729.231	-14.46
729.256	9.54
729.282	-7.46
729.307	-21.46
729.332	-6.46
729.357	5.54
729.382	0.54
729.408	-8.46
729.433	19.54
729.458	-1.46
729.483	0.54
729.508	22.54
729.533	-8.46
729.559	-8.46
729.584	-21.46
729.609	6.54
729.634	-5.46
729.659	-15.46
729.684	-7.46
729.71	16.54
729.735	2.54
729.76	-4.46
729.785	-4.46
729.81	7.54
729.835	-2.46
729.86	-7.46
729.886	9.54
729.911	3.54
729.936	4.54
729.961	14.54
729.986	1.54
730.011	62.54
730.036	216.54
730.061	987.54
730.086	2754.54
730.112	3447.54
730.137	2850.54
730.162	2095.54
730.187	1668.54
730.212	1268.54
730.237	800.54
730.262	457.54
730.287	226.54
730.312	148.54
730.337	68.54
730.362	64.54
730.387	30.54
730.413	23.54
730.438	4.54
730.463	13.54
730.488	8.54
730.513	2.54
730.538	-4.46
730.563	3.54
730.588	19.54
730.613	17.54
730.638	-5.46
730.663	-11.46
730.688	9.54
730.713	4.54
730.738	0.54
730.763	-3.46
730.788	-15.46
730.813	10.54
730.838	-5.46
730.863	5.54
730.888	-13.46
730.913	-5.46
730.938	-3.46
730.963	32.54
730.988	103.54
731.013	402.54
731.038	627.54
731.063	622.54
731.088	475.54
731.113	348.54
731.138	288.54
731.163	196.54
731.188	112.54
731.213	51.54
731.238	8.54
731.263	16.54
731.288	5.54
731.313	6.54
731.338	-16.46
731.363	-10.46
731.388	-5.46
731.413	-2.46
731.438	6.54
731.463	-2.46
731.487	-4.46
731.512	-11.46
731.537	-13.46
731.562	-1.46
731.587	-0.46
731.612	-7.46
731.637	-1.46
731.662	0.54
731.687	-20.46
731.712	-12.46
731.737	0.54
731.762	-11.46
731.786	2.54
731.811	20.54
731.836	3.54
731.861	-20.46
731.886	-22.46
731.911	-5.46
731.936	4.54
731.961	-3.46
731.986	-3.46
732.01	0.54
732.035	15.54
732.06	15.54
732.085	4.54
732.11	2.54
732.135	-17.46
732.16	-18.46
732.184	-12.46
732.209	-19.46
732.234	-4.46
732.259	3.54
732.284	8.54
732.309	-1.46
732.334	-23.46
732.358	-29.46
732.383	-19.46
732.408	-11.46
732.433	-8.46
732.458	-3.46
732.482	9.54
732.507	-5.46
732.532	-8.46
732.557	11.54
732.582	4.54
732.607	7.54
732.631	41.54
732.656	96.54
732.681	153.54
732.706	323.54
732.73	432.54
732.755	430.54
732.78	300.54
732.805	238.54
732.83	180.54
732.854	136.54
732.879	82.54
732.904	35.54
732.929	19.54
732.953	22.54
732.978	-5.46
733.003	2.54
733.028	-10.46
733.052	7.54
733.077	5.54
733.102	8.54
733.127	-0.46
733.151	-8.46
733.176	-5.46
733.201	-6.46
733.226	-11.46
733.25	-0.46
733.275	-22.46
733.3	-9.46
733.324	-9.46
733.349	2.54
733.374	11.54
733.399	5.54
733.423	-1.46
733.448	-8.46
733.473	-16.46
733.497	-4.46
733.522	-15.46
733.547	10.54
733.571	14.54
733.596	-6.46
733.621	-1.46
733.646	-18.46
733.67	-1.46
733.695	-7.46
733.72	-1.46
733.744	8.54
733.769	4.54
733.794	10.54
733.818	-11.46
733.843	-10.46
733.867	-18.46
733.892	1.54
733.917	0.54
733.941	2.54
733.966	-13.46
733.991	-17.46
734.015	3.54
734.04	-7.46
734.065	-4.46
734.089	1.54
734.114	-12.46
734.138	4.54
734.163	0.54
734.188	5.54
734.212	-5.46
734.237	-0.46
734.261	-13.46
734.286	-24.46
734.311	-12.46
734.335	-12.46
734.36	1.54
734.384	2.54
734.409	-2.46
734.434	-0.46
734.458	8.54
734.483	-8.46
734.507	-1.46
734.532	-9.46
734.556	-18.46
734.581	-12.46
734.606	-12.46
734.63	-11.46
734.655	-2.46
734.679	-8.46
734.704	-16.46
734.728	-22.46
734.753	0.54
734.777	-12.46
734.802	-7.46
734.826	-2.46
734.851	-9.46
734.876	1.54
734.9	10.54
734.925	8.54
734.949	-2.46
734.974	0.54
734.998	0.54
735.023	-17.46
735.047	-0.46
735.072	-4.46
735.096	1.54
735.121	-1.46
735.145	-8.46
735.17	-0.46
735.194	9.54
735.219	-5.46
735.243	-2.46
735.268	0.54
735.292	-16.46
735.317	-5.46
735.341	8.54
735.365	-2.46
735.39	8.54
735.414	-9.46
735.439	-11.46
735.463	-6.46
735.488	16.54
735.512	0.54
735.537	-8.46
735.561	-6.46
735.586	-4.46
735.61	-16.46
735.634	3.54
735.659	-4.46
735.683	19.54
735.708	-6.46
735.732	-9.46
735.757	0.54
735.781	1.54
735.805	-9.46
735.83	-6.46
735.854	-2.46
735.879	-12.46
735.903	11.54
735.927	7.54
735.952	3.54
735.976	-11.46
736.001	-19.46
736.025	-3.46
736.049	-7.46
736.074	-18.46
736.098	-7.46
736.123	-10.46
736.147	-24.46
736.171	-23.46
736.196	5.54
736.22	-8.46
736.244	-12.46
736.269	-8.46
736.293	-13.46
736.317	-10.46
736.342	-7.46
736.366	23.54
736.39	4.54
736.415	-0.46
736.439	-5.46
736.463	-16.46
736.488	-19.46
736.512	-5.46
736.536	-3.46
736.561	-1.46
736.585	-5.46
736.609	-1.46
736.634	-22.46
736.658	-3.46
736.682	-19.46
736.707	-11.46
736.731	-8.46
736.755	-15.46
736.78	-9.46
736.804	4.54
736.828	8.54
736.852	-8.46
736.877	8.54
736.901	3.54
736.925	-8.46
736.949	5.54
736.974	-5.46
736.998	-19.46
737.022	-7.46
737.047	3.54
737.071	-8.46
737.095	0.54
737.119	17.54
737.144	-2.46
737.168	-9.46
737.192	-11.46
737.216	1.54
737.241	-5.46
737.265	-8.46
737.289	-12.46
737.313	-24.46
737.337	-11.46
737.362	-9.46
737.386	-8.46
737.41	-9.46
737.434	-4.46
737.459	8.54
737.483	-4.46
737.507	2.54
737.531	0.54
737.555	-5.46
737.58	-2.46
737.604	-6.46
737.628	-15.46
737.652	-19.46
737.676	-3.46
737.701	0.54
737.725	-5.46
737.749	-3.46
737.773	-16.46
737.797	-17.46
737.821	-9.46
737.846	-5.46
737.87	14.54
737.894	-0.46
737.918	-1.46
737.942	-7.46
737.966	11.54
737.99	7.54
738.015	-8.46
738.039	-0.46
738.063	-7.46
738.087	7.54
738.111	1.54
738.135	10.54
738.159	-7.46
738.184	-8.46
738.208	0.54
738.232	0.54
738.256	16.54
738.28	5.54
738.304	8.54
738.328	-8.46
738.352	-2.46
738.376	-3.46
738.4	-3.46
738.425	5.54
738.449	-10.46
738.473	20.54
738.497	-9.46
738.521	-7.46
738.545	-9.46
738.569	-8.46
738.593	0.54
738.617	-4.46
738.641	-4.46
738.665	-12.46
738.689	8.54
738.713	-8.46
738.737	-11.46
738.762	9.54
738.786	14.54
738.81	-15.46
738.834	-4.46
738.858	10.54
738.882	7.54
738.906	-0.46
738.93	-1.46
738.954	-3.46
738.978	15.54
739.002	-12.46
739.026	7.54
739.05	0.54
739.074	-16.46
739.098	10.54
739.122	3.54
739.146	5.54
739.17	9.54
739.194	12.54
739.218	-14.46
739.242	-12.46
739.266	-5.46
739.29	-1.46
739.314	11.54
739.338	-4.46
739.362	13.54
739.386	4.54
739.41	-13.46
739.434	-2.46
739.458	6.54
739.482	-20.46
739.506	-5.46
739.53	-13.46
739.554	3.54
739.577	-13.46
739.601	-2.46
739.625	8.54
739.649	2.54
739.673	9.54
739.697	-9.46
739.721	-9.46
739.745	1.54
739.769	14.54
739.793	15.54
739.817	1.54
739.841	-17.46
739.865	-7.46
739.889	-8.46
739.912	15.54
739.936	-0.46
739.96	-5.46
739.984	8.54
740.008	-0.46
740.032	-7.46
740.056	-1.46
740.08	1.54
740.104	2.54
740.127	8.54
740.151	-4.46
740.175	5.54
740.199	16.54
740.223	34.54
740.247	10.54
740.271	-1.46
740.295	-14.46
740.318	-20.46
740.342	-5.46
740.366	3.54
740.39	9.54
740.414	-12.46
740.438	-11.46
740.461	-1.46
740.485	-2.46
740.509	-12.46
740.533	-8.46
740.557	-11.46
740.581	-14.46
740.604	-19.46
740.628	0.54
740.652	2.54
740.676	-19.46
740.7	0.54
740.723	-5.46
740.747	-7.46
740.771	-11.46
740.795	-11.46
740.819	0.54
740.842	-10.46
740.866	5.54
740.89	-6.46
740.914	-18.46
740.938	-9.46
740.961	16.54
740.985	9.54
741.009	-14.46
741.033	1.54
741.056	0.54
741.08	-12.46
741.104	-6.46
741.128	-13.46
741.151	12.54
741.175	6.54
741.199	-10.46
741.223	-3.46
741.246	-2.46
741.27	-11.46
741.294	-0.46
741.318	3.54
741.341	-17.46
741.365	10.54
741.389	6.54
741.413	-5.46
741.436	2.54
741.46	-1.46
741.484	-2.46
741.507	6.54
741.531	16.54
741.555	2.54
741.579	1.54
741.602	-6.46
741.626	-1.46
741.65	-4.46
741.673	-1.46
741.697	3.54
741.721	1.54
741.744	-25.46
741.768	-12.46
741.792	-7.46
741.815	-20.46
741.839	1.54
741.863	12.54
741.886	18.54
741.91	3.54
741.934	-4.46
741.957	-13.46
741.981	2.54
742.005	-0.46
742.028	-9.46
742.052	-13.46
742.075	-13.46
742.099	-9.46
742.123	-6.46
742.146	1.54
742.17	-11.46
742.194	-15.46
742.217	-16.46
742.241	-15.46
742.264	-4.46
742.288	3.54
742.312	8.54
742.335	-0.46
742.359	-5.46
742.382	4.54
742.406	30.54
742.43	-12.46
742.453	-2.46
742.477	-16.46
742.5	-16.46
742.524	-15.46
742.548	1.54
742.571	0.54
742.595	-1.46
742.618	-8.46
742.642	-11.46
742.665	5.54
742.689	4.54
742.712	3.54
742.736	-0.46
742.76	-1.46
742.783	1.54
742.807	-0.46
742.83	11.54
742.854	-20.46
742.877	-4.46
742.901	-15.46
742.924	-19.46
742.948	-2.46
742.971	-11.46
742.995	-9.46
743.018	-12.46
743.042	-17.46
743.065	-1.46
743.089	-1.46
743.112	-1.46
743.136	-7.46
743.159	-1.46
743.183	-11.46
743.206	-9.46
743.23	-7.46
743.253	-7.46
743.277	0.54
743.3	-4.46
743.324	3.54
743.347	-7.46
743.371	8.54
743.394	2.54
743.418	13.54
743.441	-4.46
743.465	-2.46
743.488	3.54
743.512	-11.46
743.535	-18.46
743.558	-12.46
743.582	-5.46
743.605	1.54
743.629	1.54
743.652	-2.46
743.676	-5.46
743.699	-6.46
743.723	-4.46
743.746	3.54
743.769	-3.46
743.793	4.54
743.816	-11.46
743.84	20.54
743.863	-13.46
743.886	-6.46
743.91	-2.46
743.933	5.54
743.957	0.54
743.98	-10.46
744.003	-3.46
744.027	-6.46
744.05	-12.46
744.074	-12.46
744.097	-11.46
744.12	-23.46
744.144	-14.46
744.167	10.54
744.19	-16.46
744.214	-11.46
744.237	-9.46
744.26	-4.46
744.284	-12.46
744.307	-3.46
744.331	-12.46
744.354	-20.46
744.377	-19.46
744.401	-1.46
744.424	-3.46
744.447	-21.46
744.471	-19.46
