Data from HighRes_mercury_15_13_11_07_2024_HR4C61891__62__15-14-29-386.txt Node

Date: Thu Nov 07 15:14:29 EST 2024
User: crc00042
Spectrometer: HR4C6189
Trigger mode: 4
Integration Time (sec): 1.000000E-1
Scans to average: 1
Electric dark correction enabled: true
Nonlinearity correction enabled: false
Boxcar width: 0
XAxis mode: Wavelengths
Number of Pixels in Spectrum: 3648
>>>>>Begin Spectral Data<<<<<
639.567	-56.15
639.602	-56.15
639.636	-56.15
639.67	-47.15
639.704	-17.15
639.738	-13.15
639.773	16.85
639.807	-3.15
639.841	-5.15
639.875	0.85
639.909	-0.15
639.943	-15.15
639.978	-1.15
640.012	5.85
640.046	7.85
640.08	3.85
640.114	7.85
640.148	-5.15
640.182	-2.15
640.217	6.85
640.251	15.85
640.285	14.85
640.319	5.85
640.353	4.85
640.387	-2.15
640.421	0.85
640.455	-3.15
640.49	-10.15
640.524	-2.15
640.558	-3.15
640.592	-11.15
640.626	-4.15
640.66	9.85
640.694	5.85
640.728	7.85
640.762	2.85
640.796	26.85
640.83	10.85
640.865	-6.15
640.899	12.85
640.933	-14.15
640.967	-4.15
641.001	5.85
641.035	5.85
641.069	6.85
641.103	-12.15
641.137	-7.15
641.171	-15.15
641.205	-6.15
641.239	-11.15
641.273	3.85
641.307	0.85
641.341	-12.15
641.375	-10.15
641.409	-11.15
641.443	8.85
641.477	4.85
641.511	3.85
641.545	4.85
641.579	-1.15
641.614	21.85
641.648	4.85
641.682	-10.15
641.716	27.85
641.75	12.85
641.784	2.85
641.818	-5.15
641.852	2.85
641.886	8.85
641.919	23.85
641.953	7.85
641.987	-16.15
642.021	-17.15
642.055	4.85
642.089	-12.15
642.123	-18.15
642.157	2.85
642.191	-7.15
642.225	13.85
642.259	6.85
642.293	17.85
642.327	9.85
642.361	-10.15
642.395	16.85
642.429	10.85
642.463	14.85
642.497	17.85
642.531	-7.15
642.565	-1.15
642.599	-1.15
642.633	-12.15
642.666	10.85
642.7	2.85
642.734	9.85
642.768	-7.15
642.802	-0.15
642.836	2.85
642.87	4.85
642.904	10.85
642.938	7.85
642.972	7.85
643.005	9.85
643.039	27.85
643.073	13.85
643.107	10.85
643.141	14.85
643.175	12.85
643.209	14.85
643.243	1.85
643.276	4.85
643.31	1.85
643.344	7.85
643.378	11.85
643.412	12.85
643.446	19.85
643.48	2.85
643.513	9.85
643.547	3.85
643.581	-7.15
643.615	6.85
643.649	1.85
643.683	-20.15
643.716	2.85
643.75	-0.15
643.784	-4.15
643.818	10.85
643.852	-5.15
643.886	3.85
643.919	3.85
643.953	1.85
643.987	5.85
644.021	15.85
644.055	9.85
644.088	12.85
644.122	-3.15
644.156	-8.15
644.19	13.85
644.224	6.85
644.257	20.85
644.291	11.85
644.325	3.85
644.359	-8.15
644.392	20.85
644.426	17.85
644.46	15.85
644.494	2.85
644.527	-17.15
644.561	13.85
644.595	11.85
644.629	4.85
644.662	-10.15
644.696	10.85
644.73	12.85
644.764	13.85
644.797	-1.15
644.831	-4.15
644.865	2.85
644.899	-4.15
644.932	6.85
644.966	-5.15
645	14.85
645.033	19.85
645.067	2.85
645.101	-7.15
645.135	-3.15
645.168	-0.15
645.202	-1.15
645.236	4.85
645.269	29.85
645.303	3.85
645.337	-10.15
645.37	-9.15
645.404	-6.15
645.438	2.85
645.471	-15.15
645.505	17.85
645.539	7.85
645.572	-6.15
645.606	-6.15
645.64	3.85
645.673	-6.15
645.707	16.85
645.741	4.85
645.774	-19.15
645.808	4.85
645.842	-2.15
645.875	7.85
645.909	9.85
645.943	3.85
645.976	-5.15
646.01	4.85
646.043	10.85
646.077	10.85
646.111	-0.15
646.144	16.85
646.178	14.85
646.212	0.85
646.245	-9.15
646.279	8.85
646.312	9.85
646.346	8.85
646.38	4.85
646.413	19.85
646.447	9.85
646.48	6.85
646.514	10.85
646.547	-22.15
646.581	-14.15
646.615	-0.15
646.648	-12.15
646.682	-0.15
646.715	-9.15
646.749	26.85
646.782	5.85
646.816	-8.15
646.85	-4.15
646.883	3.85
646.917	16.85
646.95	7.85
646.984	7.85
647.017	3.85
647.051	9.85
647.084	0.85
647.118	-1.15
647.151	4.85
647.185	6.85
647.218	-4.15
647.252	23.85
647.285	-4.15
647.319	-18.15
647.353	-0.15
647.386	19.85
647.42	1.85
647.453	7.85
647.487	-10.15
647.52	4.85
647.553	9.85
647.587	4.85
647.62	-2.15
647.654	9.85
647.687	5.85
647.721	11.85
647.754	-3.15
647.788	-7.15
647.821	-5.15
647.855	11.85
647.888	22.85
647.922	24.85
647.955	7.85
647.989	-11.15
648.022	14.85
648.055	9.85
648.089	7.85
648.122	11.85
648.156	0.85
648.189	12.85
648.223	10.85
648.256	0.85
648.29	12.85
648.323	-1.15
648.356	13.85
648.39	0.85
648.423	5.85
648.457	-6.15
648.49	18.85
648.523	-2.15
648.557	10.85
648.59	10.85
648.624	-0.15
648.657	7.85
648.69	25.85
648.724	24.85
648.757	4.85
648.791	20.85
648.824	16.85
648.857	17.85
648.891	1.85
648.924	13.85
648.957	14.85
648.991	-6.15
649.024	11.85
649.057	2.85
649.091	-15.15
649.124	-4.15
649.158	-1.15
649.191	22.85
649.224	7.85
649.258	-2.15
649.291	20.85
649.324	10.85
649.358	5.85
649.391	-1.15
649.424	-0.15
649.458	5.85
649.491	10.85
649.524	4.85
649.557	-6.15
649.591	-15.15
649.624	27.85
649.657	14.85
649.691	9.85
649.724	10.85
649.757	13.85
649.791	18.85
649.824	21.85
649.857	10.85
649.89	-6.15
649.924	-20.15
649.957	-2.15
649.99	-13.15
650.023	-10.15
650.057	2.85
650.09	11.85
650.123	-9.15
650.157	10.85
650.19	25.85
650.223	-1.15
650.256	-6.15
650.29	2.85
650.323	11.85
650.356	12.85
650.389	9.85
650.423	-12.15
650.456	11.85
650.489	5.85
650.522	1.85
650.555	8.85
650.589	6.85
650.622	-4.15
650.655	24.85
650.688	3.85
650.721	15.85
650.755	3.85
650.788	10.85
650.821	-3.15
650.854	-5.15
650.887	20.85
650.921	10.85
650.954	-3.15
650.987	0.85
651.02	-21.15
651.053	-1.15
651.087	-10.15
651.12	10.85
651.153	12.85
651.186	-1.15
651.219	-15.15
651.252	2.85
651.286	-2.15
651.319	3.85
651.352	4.85
651.385	4.85
651.418	1.85
651.451	12.85
651.484	5.85
651.518	1.85
651.551	28.85
651.584	5.85
651.617	17.85
651.65	3.85
651.683	20.85
651.716	2.85
651.749	-15.15
651.783	-11.15
651.816	-3.15
651.849	18.85
651.882	1.85
651.915	4.85
651.948	4.85
651.981	-15.15
652.014	-11.15
652.047	-19.15
652.08	-3.15
652.114	-8.15
652.147	-7.15
652.18	-4.15
652.213	18.85
652.246	7.85
652.279	2.85
652.312	20.85
652.345	1.85
652.378	14.85
652.411	14.85
652.444	11.85
652.477	4.85
652.51	-12.15
652.543	-14.15
652.576	4.85
652.609	-7.15
652.642	-11.15
652.675	8.85
652.709	-0.15
652.742	0.85
652.775	7.85
652.808	15.85
652.841	12.85
652.874	-7.15
652.907	8.85
652.94	11.85
652.973	-2.15
653.006	0.85
653.039	4.85
653.072	7.85
653.105	-13.15
653.138	-7.15
653.171	-5.15
653.204	0.85
653.237	3.85
653.27	-11.15
653.303	6.85
653.336	2.85
653.368	3.85
653.401	18.85
653.434	0.85
653.467	-4.15
653.5	-11.15
653.533	-10.15
653.566	0.85
653.599	-1.15
653.632	16.85
653.665	-4.15
653.698	-3.15
653.731	-8.15
653.764	2.85
653.797	3.85
653.83	5.85
653.863	18.85
653.896	-11.15
653.929	-1.15
653.961	4.85
653.994	-7.15
654.027	2.85
654.06	-1.15
654.093	-0.15
654.126	18.85
654.159	-10.15
654.192	10.85
654.225	3.85
654.258	-7.15
654.29	-12.15
654.323	1.85
654.356	-0.15
654.389	5.85
654.422	-3.15
654.455	-7.15
654.488	3.85
654.521	-8.15
654.553	-5.15
654.586	26.85
654.619	0.85
654.652	-3.15
654.685	-8.15
654.718	5.85
654.751	4.85
654.783	9.85
654.816	24.85
654.849	0.85
654.882	9.85
654.915	4.85
654.948	-7.15
654.98	-5.15
655.013	-7.15
655.046	-5.15
655.079	-1.15
655.112	5.85
655.144	-18.15
655.177	-5.15
655.21	3.85
655.243	5.85
655.276	8.85
655.308	1.85
655.341	2.85
655.374	7.85
655.407	11.85
655.44	-14.15
655.472	8.85
655.505	-4.15
655.538	-2.15
655.571	9.85
655.603	12.85
655.636	-4.15
655.669	11.85
655.702	3.85
655.734	-7.15
655.767	-28.15
655.8	-5.15
655.833	6.85
655.865	11.85
655.898	-5.15
655.931	-6.15
655.964	2.85
655.996	-7.15
656.029	3.85
656.062	-1.15
656.095	0.85
656.127	-6.15
656.16	-8.15
656.193	3.85
656.225	1.85
656.258	10.85
656.291	4.85
656.324	10.85
656.356	12.85
656.389	8.85
656.422	13.85
656.454	-10.15
656.487	2.85
656.52	1.85
656.552	0.85
656.585	10.85
656.618	10.85
656.65	5.85
656.683	-4.15
656.716	-3.15
656.748	-3.15
656.781	-4.15
656.814	-7.15
656.846	6.85
656.879	12.85
656.912	12.85
656.944	-7.15
656.977	-2.15
657.01	-9.15
657.042	10.85
657.075	12.85
657.108	-0.15
657.14	2.85
657.173	18.85
657.205	16.85
657.238	13.85
657.271	2.85
657.303	-18.15
657.336	5.85
657.369	-8.15
657.401	4.85
657.434	-5.15
657.466	0.85
657.499	-12.15
657.532	-5.15
657.564	5.85
657.597	3.85
657.629	18.85
657.662	-1.15
657.694	-4.15
657.727	-13.15
657.76	3.85
657.792	3.85
657.825	0.85
657.857	-1.15
657.89	0.85
657.922	19.85
657.955	-10.15
657.987	0.85
658.02	4.85
658.053	-0.15
658.085	-5.15
658.118	2.85
658.15	13.85
658.183	12.85
658.215	-5.15
658.248	-8.15
658.28	-3.15
658.313	15.85
658.345	32.85
658.378	3.85
658.41	8.85
658.443	13.85
658.475	3.85
658.508	-3.15
658.54	-5.15
658.573	-19.15
658.605	12.85
658.638	-6.15
658.67	1.85
658.703	5.85
658.735	-36.15
658.768	0.85
658.8	-14.15
658.833	26.85
658.865	-2.15
658.898	2.85
658.93	3.85
658.963	-13.15
658.995	-23.15
659.028	4.85
659.06	9.85
659.092	-4.15
659.125	-9.15
659.157	12.85
659.19	-6.15
659.222	-1.15
659.255	-7.15
659.287	-0.15
659.32	2.85
659.352	0.85
659.384	8.85
659.417	-1.15
659.449	15.85
659.482	11.85
659.514	-1.15
659.546	4.85
659.579	0.85
659.611	0.85
659.644	3.85
659.676	-7.15
659.708	-21.15
659.741	2.85
659.773	2.85
659.806	0.85
659.838	11.85
659.87	16.85
659.903	-13.15
659.935	0.85
659.967	0.85
660	-1.15
660.032	-4.15
660.065	7.85
660.097	2.85
660.129	-8.15
660.162	-25.15
660.194	-1.15
660.226	5.85
660.259	6.85
660.291	1.85
660.323	3.85
660.356	2.85
660.388	-0.15
660.42	-7.15
660.453	-1.15
660.485	15.85
660.517	14.85
660.55	17.85
660.582	-5.15
660.614	17.85
660.647	-13.15
660.679	-9.15
660.711	13.85
660.743	-25.15
660.776	-12.15
660.808	-6.15
660.84	-6.15
660.873	8.85
660.905	21.85
660.937	4.85
660.969	9.85
661.002	17.85
661.034	8.85
661.066	2.85
661.099	0.85
661.131	11.85
661.163	-11.15
661.195	-3.15
661.228	24.85
661.26	0.85
661.292	-1.15
661.324	5.85
661.357	8.85
661.389	22.85
661.421	18.85
661.453	-5.15
661.485	-0.15
661.518	8.85
661.55	7.85
661.582	-23.15
661.614	10.85
661.647	7.85
661.679	1.85
661.711	12.85
661.743	5.85
661.775	10.85
661.808	27.85
661.84	-3.15
661.872	14.85
661.904	7.85
661.936	11.85
661.969	-1.15
662.001	-6.15
662.033	-0.15
662.065	-10.15
662.097	-10.15
662.129	11.85
662.162	-5.15
662.194	3.85
662.226	9.85
662.258	-1.15
662.29	-7.15
662.322	-17.15
662.355	-21.15
662.387	15.85
662.419	10.85
662.451	8.85
662.483	8.85
662.515	-0.15
662.547	-3.15
662.58	-9.15
662.612	3.85
662.644	0.85
662.676	-5.15
662.708	7.85
662.74	-3.15
662.772	14.85
662.804	5.85
662.836	7.85
662.869	11.85
662.901	11.85
662.933	-0.15
662.965	8.85
662.997	8.85
663.029	0.85
663.061	-5.15
663.093	-1.15
663.125	22.85
663.157	8.85
663.189	-8.15
663.221	-0.15
663.254	-15.15
663.286	11.85
663.318	-8.15
663.35	-6.15
663.382	9.85
663.414	15.85
663.446	7.85
663.478	0.85
663.51	21.85
663.542	-5.15
663.574	17.85
663.606	0.85
663.638	-0.15
663.67	-16.15
663.702	11.85
663.734	9.85
663.766	15.85
663.798	1.85
663.83	10.85
663.862	25.85
663.894	18.85
663.926	-5.15
663.958	26.85
663.99	4.85
664.022	-6.15
664.054	6.85
664.086	-6.15
664.118	-5.15
664.15	-10.15
664.182	10.85
664.214	-4.15
664.246	14.85
664.278	3.85
664.31	19.85
664.342	9.85
664.374	0.85
664.406	-0.15
664.438	3.85
664.47	2.85
664.502	-0.15
664.534	7.85
664.566	-3.15
664.598	-1.15
664.63	-5.15
664.662	2.85
664.693	7.85
664.725	-5.15
664.757	-30.15
664.789	-15.15
664.821	1.85
664.853	16.85
664.885	-3.15
664.917	-9.15
664.949	2.85
664.981	11.85
665.013	7.85
665.045	-3.15
665.076	-12.15
665.108	2.85
665.14	-5.15
665.172	1.85
665.204	-2.15
665.236	5.85
665.268	15.85
665.3	11.85
665.331	-0.15
665.363	5.85
665.395	0.85
665.427	-11.15
665.459	21.85
665.491	-4.15
665.523	-19.15
665.555	-8.15
665.586	10.85
665.618	9.85
665.65	-20.15
665.682	1.85
665.714	6.85
665.746	-14.15
665.777	-4.15
665.809	-3.15
665.841	-5.15
665.873	-6.15
665.905	0.85
665.937	5.85
665.968	13.85
666	-1.15
666.032	10.85
666.064	-4.15
666.096	-7.15
666.127	12.85
666.159	9.85
666.191	13.85
666.223	0.85
666.255	2.85
666.286	6.85
666.318	-2.15
666.35	6.85
666.382	-0.15
666.413	-9.15
666.445	-2.15
666.477	-7.15
666.509	-11.15
666.54	4.85
666.572	3.85
666.604	11.85
666.636	15.85
666.667	18.85
666.699	28.85
666.731	6.85
666.763	-3.15
666.794	1.85
666.826	1.85
666.858	-7.15
666.89	5.85
666.921	9.85
666.953	18.85
666.985	13.85
667.017	10.85
667.048	-0.15
667.08	-19.15
667.112	-1.15
667.143	6.85
667.175	-0.15
667.207	3.85
667.238	-9.15
667.27	4.85
667.302	6.85
667.334	-5.15
667.365	21.85
667.397	5.85
667.429	-6.15
667.46	-5.15
667.492	1.85
667.524	-2.15
667.555	-5.15
667.587	5.85
667.619	7.85
667.65	-5.15
667.682	11.85
667.714	1.85
667.745	1.85
667.777	2.85
667.808	22.85
667.84	14.85
667.872	7.85
667.903	20.85
667.935	6.85
667.967	1.85
667.998	-6.15
668.03	6.85
668.061	8.85
668.093	5.85
668.125	-0.15
668.156	10.85
668.188	-4.15
668.22	5.85
668.251	2.85
668.283	7.85
668.314	6.85
668.346	7.85
668.377	9.85
668.409	13.85
668.441	25.85
668.472	19.85
668.504	22.85
668.535	-5.15
668.567	4.85
668.599	12.85
668.63	0.85
668.662	6.85
668.693	16.85
668.725	11.85
668.756	26.85
668.788	12.85
668.819	-3.15
668.851	-3.15
668.882	10.85
668.914	-6.15
668.946	-5.15
668.977	-1.15
669.009	-3.15
669.04	-18.15
669.072	-1.15
669.103	-2.15
669.135	-3.15
669.166	-0.15
669.198	-1.15
669.229	9.85
669.261	9.85
669.292	-3.15
669.324	3.85
669.355	15.85
669.387	-8.15
669.418	10.85
669.45	-15.15
669.481	-2.15
669.513	12.85
669.544	6.85
669.576	5.85
669.607	20.85
669.639	17.85
669.67	-3.15
669.701	21.85
669.733	2.85
669.764	2.85
669.796	8.85
669.827	2.85
669.859	-10.15
669.89	-8.15
669.922	2.85
669.953	4.85
669.985	2.85
670.016	23.85
670.047	-2.15
670.079	5.85
670.11	3.85
670.142	-2.15
670.173	10.85
670.204	-11.15
670.236	-1.15
670.267	-0.15
670.299	3.85
670.33	12.85
670.362	9.85
670.393	4.85
670.424	7.85
670.456	-8.15
670.487	-7.15
670.518	5.85
670.55	-6.15
670.581	-3.15
670.613	17.85
670.644	15.85
670.675	15.85
670.707	9.85
670.738	2.85
670.769	-4.15
670.801	-14.15
670.832	8.85
670.864	-11.15
670.895	-7.15
670.926	-7.15
670.958	10.85
670.989	1.85
671.02	3.85
671.052	1.85
671.083	-17.15
671.114	-11.15
671.146	6.85
671.177	2.85
671.208	-4.15
671.24	-14.15
671.271	-4.15
671.302	-4.15
671.333	-0.15
671.365	0.85
671.396	-1.15
671.427	7.85
671.459	-6.15
671.49	14.85
671.521	4.85
671.553	27.85
671.584	12.85
671.615	-20.15
671.646	-1.15
671.678	0.85
671.709	1.85
671.74	-16.15
671.771	-2.15
671.803	9.85
671.834	2.85
671.865	10.85
671.896	2.85
671.928	4.85
671.959	6.85
671.99	-0.15
672.021	-0.15
672.053	7.85
672.084	13.85
672.115	13.85
672.146	0.85
672.178	-12.15
672.209	-10.15
672.24	-12.15
672.271	7.85
672.303	-1.15
672.334	-1.15
672.365	6.85
672.396	17.85
672.427	10.85
672.459	20.85
672.49	29.85
672.521	8.85
672.552	19.85
672.583	18.85
672.615	1.85
672.646	15.85
672.677	-3.15
672.708	1.85
672.739	-2.15
672.77	15.85
672.802	-12.15
672.833	-7.15
672.864	-1.15
672.895	-1.15
672.926	-4.15
672.957	-0.15
672.989	-14.15
673.02	-4.15
673.051	-7.15
673.082	25.85
673.113	14.85
673.144	7.85
673.175	-5.15
673.206	1.85
673.238	0.85
673.269	-4.15
673.3	-14.15
673.331	-3.15
673.362	8.85
673.393	-7.15
673.424	4.85
673.455	25.85
673.487	4.85
673.518	12.85
673.549	5.85
673.58	-1.15
673.611	-4.15
673.642	2.85
673.673	-23.15
673.704	2.85
673.735	4.85
673.766	-7.15
673.797	8.85
673.828	2.85
673.86	-5.15
673.891	1.85
673.922	-11.15
673.953	-9.15
673.984	6.85
674.015	5.85
674.046	0.85
674.077	-1.15
674.108	-5.15
674.139	-0.15
674.17	13.85
674.201	-10.15
674.232	-25.15
674.263	-9.15
674.294	-24.15
674.325	-9.15
674.356	-5.15
674.387	24.85
674.418	15.85
674.449	-11.15
674.48	-1.15
674.511	-10.15
674.542	15.85
674.573	-7.15
674.604	14.85
674.635	9.85
674.666	-1.15
674.697	-5.15
674.728	-4.15
674.759	-8.15
674.79	-1.15
674.821	1.85
674.852	-0.15
674.883	-6.15
674.914	-3.15
674.945	-3.15
674.976	-5.15
675.007	7.85
675.038	-8.15
675.069	-7.15
675.1	-11.15
675.131	8.85
675.162	-13.15
675.193	-17.15
675.224	-15.15
675.254	11.85
675.285	11.85
675.316	15.85
675.347	2.85
675.378	-1.15
675.409	-6.15
675.44	12.85
675.471	-1.15
675.502	-6.15
675.533	-3.15
675.564	0.85
675.595	-5.15
675.625	7.85
675.656	1.85
675.687	-5.15
675.718	-6.15
675.749	17.85
675.78	19.85
675.811	-5.15
675.842	-7.15
675.873	-0.15
675.903	0.85
675.934	-4.15
675.965	-12.15
675.996	7.85
676.027	2.85
676.058	-4.15
676.089	-2.15
676.119	-0.15
676.15	-9.15
676.181	6.85
676.212	-0.15
676.243	8.85
676.274	7.85
676.304	8.85
676.335	-0.15
676.366	-11.15
676.397	-7.15
676.428	-8.15
676.459	-5.15
676.489	13.85
676.52	12.85
676.551	-8.15
676.582	-17.15
676.613	0.85
676.643	-2.15
676.674	13.85
676.705	1.85
676.736	8.85
676.767	13.85
676.797	9.85
676.828	6.85
676.859	2.85
676.89	-2.15
676.92	4.85
676.951	7.85
676.982	-1.15
677.013	-14.15
677.044	12.85
677.074	22.85
677.105	-3.15
677.136	10.85
677.167	8.85
677.197	15.85
677.228	3.85
677.259	1.85
677.289	4.85
677.32	-18.15
677.351	-8.15
677.382	1.85
677.412	4.85
677.443	1.85
677.474	-15.15
677.505	-15.15
677.535	0.85
677.566	-2.15
677.597	-5.15
677.627	-18.15
677.658	-24.15
677.689	2.85
677.72	-0.15
677.75	3.85
677.781	25.85
677.812	3.85
677.842	6.85
677.873	1.85
677.904	-15.15
677.934	-3.15
677.965	-2.15
677.996	-6.15
678.026	5.85
678.057	1.85
678.088	-3.15
678.118	2.85
678.149	2.85
678.18	15.85
678.21	18.85
678.241	-3.15
678.272	10.85
678.302	15.85
678.333	-1.15
678.363	-0.15
678.394	7.85
678.425	-5.15
678.455	-9.15
678.486	19.85
678.517	-17.15
678.547	-20.15
678.578	5.85
678.608	-17.15
678.639	16.85
678.67	3.85
678.7	-9.15
678.731	-6.15
678.761	-7.15
678.792	10.85
678.823	7.85
678.853	11.85
678.884	-4.15
678.914	4.85
678.945	28.85
678.975	-4.15
679.006	6.85
679.037	-11.15
679.067	15.85
679.098	-10.15
679.128	-10.15
679.159	-11.15
679.189	19.85
679.22	-5.15
679.25	-13.15
679.281	-8.15
679.312	-0.15
679.342	-10.15
679.373	28.85
679.403	6.85
679.434	8.85
679.464	13.85
679.495	-7.15
679.525	3.85
679.556	-1.15
679.586	3.85
679.617	25.85
679.647	3.85
679.678	7.85
679.708	2.85
679.739	-12.15
679.769	-11.15
679.8	-13.15
679.83	-22.15
679.861	2.85
679.891	-10.15
679.922	-24.15
679.952	-11.15
679.983	-7.15
680.013	-6.15
680.044	-11.15
680.074	7.85
680.105	4.85
680.135	9.85
680.165	16.85
680.196	3.85
680.226	4.85
680.257	16.85
680.287	12.85
680.318	12.85
680.348	0.85
680.379	15.85
680.409	3.85
680.439	-4.15
680.47	-10.15
680.5	7.85
680.531	6.85
680.561	-6.15
680.592	-10.15
680.622	6.85
680.652	10.85
680.683	14.85
680.713	-6.15
680.744	-4.15
680.774	-10.15
680.804	12.85
680.835	-9.15
680.865	-5.15
680.896	12.85
680.926	18.85
680.956	5.85
680.987	-7.15
681.017	5.85
681.047	-0.15
681.078	-10.15
681.108	4.85
681.139	-8.15
681.169	-19.15
681.199	-1.15
681.23	16.85
681.26	-5.15
681.29	-14.15
681.321	-11.15
681.351	4.85
681.381	-14.15
681.412	-0.15
681.442	-0.15
681.472	18.85
681.503	20.85
681.533	7.85
681.563	2.85
681.594	1.85
681.624	11.85
681.654	0.85
681.685	0.85
681.715	-0.15
681.745	-9.15
681.775	-8.15
681.806	-13.15
681.836	2.85
681.866	-6.15
681.897	3.85
681.927	-1.15
681.957	-0.15
681.987	14.85
682.018	1.85
682.048	2.85
682.078	9.85
682.109	24.85
682.139	12.85
682.169	3.85
682.199	9.85
682.23	-2.15
682.26	4.85
682.29	3.85
682.32	1.85
682.351	-3.15
682.381	4.85
682.411	6.85
682.441	13.85
682.472	3.85
682.502	-4.15
682.532	1.85
682.562	-7.15
682.592	13.85
682.623	13.85
682.653	7.85
682.683	4.85
682.713	15.85
682.743	-0.15
682.774	-5.15
682.804	-4.15
682.834	4.85
682.864	-16.15
682.894	-9.15
682.925	5.85
682.955	2.85
682.985	-0.15
683.015	-0.15
683.045	13.85
683.076	-5.15
683.106	-14.15
683.136	-6.15
683.166	7.85
683.196	-7.15
683.226	5.85
683.257	-6.15
683.287	-6.15
683.317	-5.15
683.347	-12.15
683.377	-3.15
683.407	10.85
683.437	5.85
683.468	4.85
683.498	-12.15
683.528	15.85
683.558	9.85
683.588	9.85
683.618	-0.15
683.648	-0.15
683.678	13.85
683.708	19.85
683.739	14.85
683.769	-8.15
683.799	-1.15
683.829	0.85
683.859	-0.15
683.889	-4.15
683.919	-12.15
683.949	1.85
683.979	-7.15
684.009	0.85
684.039	10.85
684.07	-5.15
684.1	9.85
684.13	0.85
684.16	6.85
684.19	17.85
684.22	-10.15
684.25	5.85
684.28	7.85
684.31	17.85
684.34	12.85
684.37	1.85
684.4	-1.15
684.43	14.85
684.46	0.85
684.49	14.85
684.52	-1.15
684.55	20.85
684.58	4.85
684.61	9.85
684.64	10.85
684.67	16.85
684.7	-0.15
684.73	1.85
684.76	-0.15
684.79	25.85
684.82	2.85
684.85	-8.15
684.88	-0.15
684.91	-2.15
684.94	9.85
684.97	-20.15
685	-4.15
685.03	-14.15
685.06	-5.15
685.09	-6.15
685.12	10.85
685.15	4.85
685.18	17.85
685.21	1.85
685.24	6.85
685.27	1.85
685.3	-4.15
685.33	-10.15
685.36	-4.15
685.39	-2.15
685.42	-3.15
685.45	4.85
685.48	13.85
685.51	3.85
685.54	13.85
685.569	13.85
685.599	10.85
685.629	0.85
685.659	17.85
685.689	16.85
685.719	-1.15
685.749	-11.15
685.779	5.85
685.809	14.85
685.839	6.85
685.869	2.85
685.898	11.85
685.928	5.85
685.958	0.85
685.988	21.85
686.018	-7.15
686.048	2.85
686.078	11.85
686.108	8.85
686.137	3.85
686.167	12.85
686.197	-23.15
686.227	10.85
686.257	31.85
686.287	12.85
686.317	4.85
686.346	2.85
686.376	-12.15
686.406	1.85
686.436	17.85
686.466	9.85
686.496	19.85
686.525	6.85
686.555	-5.15
686.585	23.85
686.615	26.85
686.645	8.85
686.675	5.85
686.704	16.85
686.734	1.85
686.764	-2.15
686.794	5.85
686.824	6.85
686.853	10.85
686.883	16.85
686.913	14.85
686.943	3.85
686.973	-6.15
687.002	1.85
687.032	14.85
687.062	-0.15
687.092	16.85
687.121	3.85
687.151	-4.15
687.181	7.85
687.211	8.85
687.24	-7.15
687.27	6.85
687.3	7.85
687.33	6.85
687.359	-6.15
687.389	-2.15
687.419	-5.15
687.449	-9.15
687.478	-5.15
687.508	8.85
687.538	-4.15
687.568	0.85
687.597	-19.15
687.627	-14.15
687.657	-9.15
687.686	-1.15
687.716	16.85
687.746	-21.15
687.776	-13.15
687.805	7.85
687.835	8.85
687.865	20.85
687.894	8.85
687.924	0.85
687.954	-9.15
687.983	4.85
688.013	3.85
688.043	27.85
688.072	12.85
688.102	8.85
688.132	1.85
688.161	2.85
688.191	9.85
688.221	17.85
688.25	-2.15
688.28	20.85
688.31	8.85
688.339	-14.15
688.369	-7.15
688.399	-4.15
688.428	-0.15
688.458	-3.15
688.488	-8.15
688.517	10.85
688.547	-2.15
688.576	29.85
688.606	6.85
688.636	-9.15
688.665	7.85
688.695	18.85
688.725	0.85
688.754	-3.15
688.784	-14.15
688.813	14.85
688.843	14.85
688.873	12.85
688.902	1.85
688.932	7.85
688.961	8.85
688.991	2.85
689.02	17.85
689.05	1.85
689.08	5.85
689.109	15.85
689.139	-5.15
689.168	18.85
689.198	7.85
689.227	5.85
689.257	6.85
689.287	13.85
689.316	5.85
689.346	-10.15
689.375	-5.15
689.405	24.85
689.434	4.85
689.464	11.85
689.493	-1.15
689.523	3.85
689.552	-0.15
689.582	3.85
689.611	0.85
689.641	3.85
689.67	10.85
689.7	3.85
689.73	14.85
689.759	5.85
689.789	8.85
689.818	-3.15
689.848	9.85
689.877	25.85
689.906	-6.15
689.936	-0.15
689.965	0.85
689.995	7.85
690.024	14.85
690.054	9.85
690.083	-0.15
690.113	9.85
690.142	12.85
690.172	1.85
690.201	11.85
690.231	-1.15
690.26	11.85
690.29	7.85
690.319	14.85
690.348	9.85
690.378	6.85
690.407	9.85
690.437	1.85
690.466	-11.15
690.496	-8.15
690.525	1.85
690.555	-10.15
690.584	7.85
690.613	-6.15
690.643	1.85
690.672	9.85
690.702	1.85
690.731	7.85
690.76	43.85
690.79	50.85
690.819	50.85
690.849	34.85
690.878	20.85
690.907	23.85
690.937	22.85
690.966	17.85
690.996	-7.15
691.025	-25.15
691.054	-5.15
691.084	17.85
691.113	18.85
691.142	3.85
691.172	24.85
691.201	11.85
691.23	1.85
691.26	17.85
691.289	14.85
691.319	-7.15
691.348	11.85
691.377	10.85
691.407	11.85
691.436	16.85
691.465	10.85
691.495	10.85
691.524	-3.15
691.553	4.85
691.583	2.85
691.612	26.85
691.641	16.85
691.67	9.85
691.7	17.85
691.729	-6.15
691.758	16.85
691.788	4.85
691.817	10.85
691.846	-7.15
691.876	-2.15
691.905	-1.15
691.934	-6.15
691.963	4.85
691.993	-5.15
692.022	3.85
692.051	1.85
692.081	10.85
692.11	24.85
692.139	11.85
692.168	15.85
692.198	19.85
692.227	8.85
692.256	10.85
692.285	-0.15
692.315	9.85
692.344	19.85
692.373	3.85
692.402	-20.15
692.432	-15.15
692.461	6.85
692.49	1.85
692.519	4.85
692.548	11.85
692.578	7.85
692.607	4.85
692.636	-3.15
692.665	11.85
692.694	2.85
692.724	3.85
692.753	7.85
692.782	6.85
692.811	4.85
692.84	6.85
692.87	-3.15
692.899	-6.15
692.928	11.85
692.957	20.85
692.986	10.85
693.016	-4.15
693.045	10.85
693.074	16.85
693.103	-3.15
693.132	17.85
693.161	8.85
693.191	6.85
693.22	-8.15
693.249	7.85
693.278	-7.15
693.307	18.85
693.336	2.85
693.365	-10.15
693.395	-11.15
693.424	1.85
693.453	18.85
693.482	-3.15
693.511	-2.15
693.54	-1.15
693.569	0.85
693.598	14.85
693.628	7.85
693.657	11.85
693.686	17.85
693.715	34.85
693.744	27.85
693.773	18.85
693.802	9.85
693.831	2.85
693.86	17.85
693.889	6.85
693.919	20.85
693.948	7.85
693.977	15.85
694.006	-5.15
694.035	2.85
694.064	1.85
694.093	7.85
694.122	6.85
694.151	13.85
694.18	2.85
694.209	22.85
694.238	-1.15
694.267	15.85
694.296	12.85
694.325	4.85
694.354	12.85
694.383	23.85
694.412	-1.15
694.441	4.85
694.471	-6.15
694.5	-1.15
694.529	-11.15
694.558	19.85
694.587	26.85
694.616	3.85
694.645	13.85
694.674	6.85
694.703	15.85
694.732	11.85
694.761	20.85
694.79	23.85
694.819	4.85
694.848	2.85
694.877	12.85
694.906	25.85
694.935	10.85
694.963	22.85
694.992	-5.15
695.021	15.85
695.05	-3.15
695.079	1.85
695.108	-2.15
695.137	23.85
695.166	12.85
695.195	0.85
695.224	19.85
695.253	-1.15
695.282	10.85
695.311	2.85
695.34	-7.15
695.369	21.85
695.398	16.85
695.427	17.85
695.456	-2.15
695.485	-2.15
695.513	-3.15
695.542	-3.15
695.571	3.85
695.6	29.85
695.629	7.85
695.658	15.85
695.687	4.85
695.716	-2.15
695.745	16.85
695.774	-2.15
695.802	2.85
695.831	-1.15
695.86	8.85
695.889	9.85
695.918	-1.15
695.947	-4.15
695.976	1.85
696.005	12.85
696.033	15.85
696.062	17.85
696.091	-4.15
696.12	9.85
696.149	34.85
696.178	7.85
696.207	19.85
696.235	-9.15
696.264	15.85
696.293	7.85
696.322	22.85
696.351	7.85
696.38	-6.15
696.408	5.85
696.437	-7.15
696.466	9.85
696.495	22.85
696.524	10.85
696.553	13.85
696.581	28.85
696.61	9.85
696.639	16.85
696.668	11.85
696.697	-0.15
696.725	5.85
696.754	3.85
696.783	19.85
696.812	-1.15
696.84	-1.15
696.869	6.85
696.898	3.85
696.927	-17.15
696.956	14.85
696.984	3.85
697.013	-3.15
697.042	1.85
697.071	7.85
697.099	21.85
697.128	12.85
697.157	6.85
697.186	2.85
697.214	3.85
697.243	-4.15
697.272	-0.15
697.301	4.85
697.329	6.85
697.358	-10.15
697.387	18.85
697.415	16.85
697.444	13.85
697.473	13.85
697.502	15.85
697.53	7.85
697.559	11.85
697.588	6.85
697.616	-1.15
697.645	3.85
697.674	7.85
697.703	6.85
697.731	12.85
697.76	0.85
697.789	-9.15
697.817	11.85
697.846	25.85
697.875	16.85
697.903	11.85
697.932	25.85
697.961	6.85
697.989	15.85
698.018	3.85
698.047	9.85
698.075	6.85
698.104	10.85
698.133	-1.15
698.161	-0.15
698.19	-4.15
698.218	3.85
698.247	3.85
698.276	-5.15
698.304	9.85
698.333	-3.15
698.362	7.85
698.39	10.85
698.419	15.85
698.447	-4.15
698.476	-4.15
698.505	16.85
698.533	6.85
698.562	7.85
698.591	-1.15
698.619	-11.15
698.648	13.85
698.676	6.85
698.705	24.85
698.733	-7.15
698.762	10.85
698.791	-15.15
698.819	-3.15
698.848	0.85
698.876	13.85
698.905	12.85
698.933	12.85
698.962	24.85
698.991	21.85
699.019	20.85
699.048	8.85
699.076	-10.15
699.105	-11.15
699.133	2.85
699.162	9.85
699.19	18.85
699.219	23.85
699.248	-15.15
699.276	-7.15
699.305	-17.15
699.333	10.85
699.362	1.85
699.39	18.85
699.419	-2.15
699.447	-4.15
699.476	13.85
699.504	-4.15
699.533	-1.15
699.561	-8.15
699.59	-1.15
699.618	2.85
699.647	4.85
699.675	12.85
699.704	16.85
699.732	-2.15
699.761	21.85
699.789	10.85
699.818	5.85
699.846	-1.15
699.874	-12.15
699.903	2.85
699.931	1.85
699.96	9.85
699.988	-0.15
700.017	-0.15
700.045	-1.15
700.074	0.85
700.102	-0.15
700.13	-3.15
700.159	2.85
700.187	2.85
700.216	-3.15
700.244	-7.15
700.273	-10.15
700.301	-2.15
700.329	-2.15
700.358	15.85
700.386	1.85
700.415	1.85
700.443	-15.15
700.472	1.85
700.5	0.85
700.528	10.85
700.557	-8.15
700.585	-9.15
700.614	10.85
700.642	11.85
700.67	18.85
700.699	7.85
700.727	2.85
700.755	-7.15
700.784	-1.15
700.812	-2.15
700.841	19.85
700.869	12.85
700.897	-14.15
700.926	-1.15
700.954	13.85
700.982	15.85
701.011	13.85
701.039	17.85
701.067	5.85
701.096	13.85
701.124	-13.15
701.152	5.85
701.181	-1.15
701.209	-7.15
701.237	-2.15
701.266	-0.15
701.294	2.85
701.322	13.85
701.351	0.85
701.379	7.85
701.407	-3.15
701.435	12.85
701.464	8.85
701.492	11.85
701.52	-6.15
701.549	-2.15
701.577	-21.15
701.605	-5.15
701.634	18.85
701.662	12.85
701.69	-16.15
701.718	-6.15
701.747	-0.15
701.775	-1.15
701.803	2.85
701.831	16.85
701.86	0.85
701.888	26.85
701.916	4.85
701.944	-9.15
701.973	3.85
702.001	-13.15
702.029	-5.15
702.057	-3.15
702.086	-10.15
702.114	-26.15
702.142	-2.15
702.17	-5.15
702.199	4.85
702.227	10.85
702.255	14.85
702.283	6.85
702.311	5.85
702.34	3.85
702.368	-12.15
702.396	-4.15
702.424	-15.15
702.452	-4.15
702.481	-3.15
702.509	-12.15
702.537	1.85
702.565	10.85
702.593	-14.15
702.621	2.85
702.65	17.85
702.678	6.85
702.706	18.85
702.734	18.85
702.762	20.85
702.79	17.85
702.819	14.85
702.847	1.85
702.875	14.85
702.903	15.85
702.931	-7.15
702.959	6.85
702.988	-4.15
703.016	-17.15
703.044	-6.15
703.072	-7.15
703.1	-14.15
703.128	0.85
703.156	5.85
703.184	5.85
703.212	23.85
703.241	4.85
703.269	15.85
703.297	14.85
703.325	-2.15
703.353	-3.15
703.381	-10.15
703.409	1.85
703.437	-10.15
703.465	5.85
703.493	-11.15
703.522	1.85
703.55	9.85
703.578	6.85
703.606	-13.15
703.634	-2.15
703.662	-9.15
703.69	-5.15
703.718	-0.15
703.746	12.85
703.774	10.85
703.802	19.85
703.83	-2.15
703.858	1.85
703.886	-2.15
703.914	-6.15
703.942	13.85
703.97	8.85
703.998	-5.15
704.027	20.85
704.055	18.85
704.083	12.85
704.111	-17.15
704.139	0.85
704.167	-7.15
704.195	-9.15
704.223	-4.15
704.251	21.85
704.279	-2.15
704.307	-5.15
704.335	-8.15
704.363	-0.15
704.391	-6.15
704.419	-7.15
704.447	-7.15
704.475	0.85
704.503	-11.15
704.531	12.85
704.558	4.85
704.586	-1.15
704.614	-4.15
704.642	-14.15
704.67	-14.15
704.698	1.85
704.726	12.85
704.754	-10.15
704.782	-10.15
704.81	-4.15
704.838	16.85
704.866	9.85
704.894	-9.15
704.922	2.85
704.95	4.85
704.978	12.85
705.006	4.85
705.034	13.85
705.061	-14.15
705.089	-9.15
705.117	-8.15
705.145	-13.15
705.173	8.85
705.201	-7.15
705.229	6.85
705.257	16.85
705.285	-4.15
705.313	6.85
705.34	10.85
705.368	9.85
705.396	11.85
705.424	-4.15
705.452	-5.15
705.48	4.85
705.508	1.85
705.536	-8.15
705.563	-7.15
705.591	18.85
705.619	7.85
705.647	-1.15
705.675	-2.15
705.703	10.85
705.731	-13.15
705.758	-8.15
705.786	-0.15
705.814	11.85
705.842	7.85
705.87	2.85
705.898	20.85
705.925	2.85
705.953	-12.15
705.981	-3.15
706.009	-9.15
706.037	1.85
706.065	-5.15
706.092	7.85
706.12	3.85
706.148	7.85
706.176	-2.15
706.204	6.85
706.231	-6.15
706.259	-10.15
706.287	5.85
706.315	1.85
706.342	-4.15
706.37	16.85
706.398	2.85
706.426	3.85
706.454	-1.15
706.481	16.85
706.509	-0.15
706.537	-9.15
706.565	-13.15
706.592	9.85
706.62	-11.15
706.648	7.85
706.676	-22.15
706.703	-10.15
706.731	-3.15
706.759	-7.15
706.787	-0.15
706.814	10.85
706.842	11.85
706.87	10.85
706.897	0.85
706.925	-5.15
706.953	15.85
706.981	25.85
707.008	5.85
707.036	-7.15
707.064	-8.15
707.091	-11.15
707.119	22.85
707.147	19.85
707.174	-2.15
707.202	15.85
707.23	-10.15
707.258	-4.15
707.285	-11.15
707.313	-0.15
707.341	-2.15
707.368	-6.15
707.396	3.85
707.424	27.85
707.451	8.85
707.479	15.85
707.507	5.85
707.534	-0.15
707.562	6.85
707.59	-5.15
707.617	-8.15
707.645	-6.15
707.672	0.85
707.7	13.85
707.728	21.85
707.755	12.85
707.783	-13.15
707.811	5.85
707.838	2.85
707.866	-4.15
707.893	-5.15
707.921	3.85
707.949	-2.15
707.976	-2.15
708.004	10.85
708.031	-1.15
708.059	0.85
708.087	-4.15
708.114	-6.15
708.142	-5.15
708.169	7.85
708.197	-7.15
708.225	7.85
708.252	11.85
708.28	29.85
708.307	3.85
708.335	10.85
708.362	6.85
708.39	-20.15
708.418	1.85
708.445	-10.15
708.473	5.85
708.5	-8.15
708.528	9.85
708.555	4.85
708.583	-2.15
708.61	-4.15
708.638	-2.15
708.665	-2.15
708.693	-2.15
708.72	-15.15
708.748	-6.15
708.776	-5.15
708.803	20.85
708.831	17.85
708.858	5.85
708.886	-11.15
708.913	7.85
708.941	-0.15
708.968	6.85
708.996	4.85
709.023	24.85
709.051	-0.15
709.078	-4.15
709.105	11.85
709.133	-1.15
709.16	-3.15
709.188	6.85
709.215	13.85
709.243	17.85
709.27	-8.15
709.298	-1.15
709.325	1.85
709.353	9.85
709.38	17.85
709.408	24.85
709.435	9.85
709.462	1.85
709.49	17.85
709.517	1.85
709.545	2.85
709.572	4.85
709.6	6.85
709.627	3.85
709.655	-2.15
709.682	1.85
709.709	-4.15
709.737	-3.15
709.764	-4.15
709.792	10.85
709.819	15.85
709.846	4.85
709.874	2.85
709.901	15.85
709.929	23.85
709.956	15.85
709.983	-13.15
710.011	-7.15
710.038	-12.15
710.066	18.85
710.093	21.85
710.12	1.85
710.148	-5.15
710.175	-11.15
710.202	3.85
710.23	7.85
710.257	3.85
710.284	18.85
710.312	13.85
710.339	2.85
710.366	-7.15
710.394	-8.15
710.421	-2.15
710.448	10.85
710.476	-21.15
710.503	-5.15
710.53	21.85
710.558	17.85
710.585	18.85
710.612	-1.15
710.64	-10.15
710.667	-4.15
710.694	0.85
710.722	12.85
710.749	1.85
710.776	-2.15
710.804	3.85
710.831	7.85
710.858	-8.15
710.885	-8.15
710.913	-8.15
710.94	21.85
710.967	-0.15
710.995	9.85
711.022	-2.15
711.049	6.85
711.076	-9.15
711.104	14.85
711.131	-9.15
711.158	-7.15
711.185	14.85
711.213	-11.15
711.24	-8.15
711.267	1.85
711.294	-0.15
711.322	22.85
711.349	-9.15
711.376	-9.15
711.403	6.85
711.431	-0.15
711.458	4.85
711.485	-9.15
711.512	8.85
711.54	-0.15
711.567	9.85
711.594	-0.15
711.621	7.85
711.648	-1.15
711.676	3.85
711.703	-0.15
711.73	-8.15
711.757	13.85
711.784	-9.15
711.812	-2.15
711.839	1.85
711.866	-7.15
711.893	-2.15
711.92	-0.15
711.947	-16.15
711.975	5.85
712.002	10.85
712.029	13.85
712.056	-7.15
712.083	15.85
712.11	-17.15
712.138	-0.15
712.165	4.85
712.192	9.85
712.219	1.85
712.246	0.85
712.273	-0.15
712.3	-13.15
712.328	3.85
712.355	3.85
712.382	-18.15
712.409	11.85
712.436	-1.15
712.463	21.85
712.49	6.85
712.517	-2.15
712.544	7.85
712.572	-0.15
712.599	-1.15
712.626	3.85
712.653	-5.15
712.68	-5.15
712.707	14.85
712.734	-2.15
712.761	-1.15
712.788	-0.15
712.815	6.85
712.842	8.85
712.87	13.85
712.897	-4.15
712.924	-8.15
712.951	8.85
712.978	15.85
713.005	8.85
713.032	8.85
713.059	-11.15
713.086	-2.15
713.113	-1.15
713.14	-8.15
713.167	10.85
713.194	28.85
713.221	12.85
713.248	20.85
713.275	9.85
713.302	-7.15
713.329	-3.15
713.356	4.85
713.383	26.85
713.41	8.85
713.437	5.85
713.464	12.85
713.491	14.85
713.518	-1.15
713.545	-2.15
713.572	-5.15
713.599	10.85
713.626	-6.15
713.653	-5.15
713.68	-4.15
713.707	1.85
713.734	-3.15
713.761	-4.15
713.788	14.85
713.815	20.85
713.842	5.85
713.869	14.85
713.896	9.85
713.923	11.85
713.95	-0.15
713.977	-2.15
714.004	-0.15
714.031	-1.15
714.058	-10.15
714.085	-1.15
714.112	17.85
714.139	-2.15
714.165	-13.15
714.192	1.85
714.219	9.85
714.246	5.85
714.273	-2.15
714.3	-9.15
714.327	3.85
714.354	17.85
714.381	0.85
714.408	2.85
714.435	-6.15
714.461	7.85
714.488	-0.15
714.515	9.85
714.542	8.85
714.569	3.85
714.596	-11.15
714.623	-8.15
714.65	-13.15
714.677	0.85
714.703	12.85
714.73	11.85
714.757	-1.15
714.784	3.85
714.811	-14.15
714.838	10.85
714.865	2.85
714.891	10.85
714.918	1.85
714.945	-8.15
714.972	-7.15
714.999	12.85
715.026	-4.15
715.052	13.85
715.079	3.85
715.106	32.85
715.133	13.85
715.16	7.85
715.187	15.85
715.213	17.85
715.24	-7.15
715.267	-2.15
715.294	-2.15
715.321	-0.15
715.347	11.85
715.374	-18.15
715.401	-12.15
715.428	-6.15
715.455	1.85
715.481	-5.15
715.508	7.85
715.535	-9.15
715.562	5.85
715.588	-6.15
715.615	3.85
715.642	0.85
715.669	5.85
715.695	-2.15
715.722	-2.15
715.749	17.85
715.776	19.85
715.802	7.85
715.829	-2.15
715.856	-2.15
715.883	4.85
715.909	-20.15
715.936	0.85
715.963	10.85
715.99	-2.15
716.016	-2.15
716.043	-0.15
716.07	-0.15
716.096	-11.15
716.123	-1.15
716.15	5.85
716.177	9.85
716.203	6.85
716.23	-2.15
716.257	2.85
716.283	19.85
716.31	-8.15
716.337	6.85
716.363	7.85
716.39	7.85
716.417	15.85
716.443	-11.15
716.47	12.85
716.497	3.85
716.523	19.85
716.55	14.85
716.577	6.85
716.603	-6.15
716.63	11.85
716.657	10.85
716.683	-7.15
716.71	-6.15
716.737	4.85
716.763	-4.15
716.79	3.85
716.817	21.85
716.843	-0.15
716.87	-4.15
716.897	-0.15
716.923	8.85
716.95	4.85
716.976	-4.15
717.003	-5.15
717.03	11.85
717.056	-17.15
717.083	-13.15
717.109	4.85
717.136	10.85
717.163	12.85
717.189	1.85
717.216	5.85
717.242	1.85
717.269	-11.15
717.296	1.85
717.322	8.85
717.349	16.85
717.375	8.85
717.402	0.85
717.428	8.85
717.455	6.85
717.481	4.85
717.508	1.85
717.535	18.85
717.561	1.85
717.588	-10.15
717.614	15.85
717.641	-7.15
717.667	-5.15
717.694	-0.15
717.72	7.85
717.747	15.85
717.773	6.85
717.8	11.85
717.826	-4.15
717.853	2.85
717.88	11.85
717.906	3.85
717.933	29.85
717.959	3.85
717.986	4.85
718.012	10.85
718.039	7.85
718.065	9.85
718.092	1.85
718.118	-6.15
718.144	-9.15
718.171	10.85
718.197	24.85
718.224	7.85
718.25	16.85
718.277	14.85
718.303	14.85
718.33	4.85
718.356	3.85
718.383	4.85
718.409	3.85
718.436	2.85
718.462	-1.15
718.489	-14.15
718.515	11.85
718.541	29.85
718.568	10.85
718.594	2.85
718.621	-1.15
718.647	-10.15
718.674	0.85
718.7	10.85
718.726	-9.15
718.753	1.85
718.779	14.85
718.806	7.85
718.832	-0.15
718.858	-18.15
718.885	-2.15
718.911	1.85
718.938	11.85
718.964	2.85
718.99	9.85
719.017	-2.15
719.043	14.85
719.07	27.85
719.096	-9.15
719.122	11.85
719.149	1.85
719.175	1.85
719.201	9.85
719.228	-16.15
719.254	-2.15
719.281	4.85
719.307	0.85
719.333	3.85
719.36	7.85
719.386	7.85
719.412	15.85
719.439	1.85
719.465	5.85
719.491	-3.15
719.518	7.85
719.544	5.85
719.57	14.85
719.597	21.85
719.623	0.85
719.649	-6.15
719.675	4.85
719.702	11.85
719.728	15.85
719.754	-0.15
719.781	0.85
719.807	5.85
719.833	2.85
719.86	5.85
719.886	-0.15
719.912	-5.15
719.938	-11.15
719.965	-1.15
719.991	16.85
720.017	-6.15
720.044	1.85
720.07	10.85
720.096	17.85
720.122	20.85
720.149	5.85
720.175	33.85
720.201	4.85
720.227	11.85
720.254	11.85
720.28	5.85
720.306	12.85
720.332	8.85
720.359	8.85
720.385	15.85
720.411	5.85
720.437	7.85
720.463	7.85
720.49	1.85
720.516	2.85
720.542	-6.15
720.568	-14.15
720.595	11.85
720.621	17.85
720.647	6.85
720.673	11.85
720.699	4.85
720.725	18.85
720.752	10.85
720.778	11.85
720.804	12.85
720.83	10.85
720.856	3.85
720.883	-0.15
720.909	9.85
720.935	2.85
720.961	12.85
720.987	1.85
721.013	1.85
721.04	-1.15
721.066	3.85
721.092	-5.15
721.118	6.85
721.144	-3.15
721.17	-8.15
721.196	0.85
721.223	-7.15
721.249	11.85
721.275	2.85
721.301	-1.15
721.327	11.85
721.353	0.85
721.379	8.85
721.405	3.85
721.432	5.85
721.458	-2.15
721.484	4.85
721.51	-28.15
721.536	-10.15
721.562	2.85
721.588	9.85
721.614	-11.15
721.64	-8.15
721.666	-7.15
721.693	1.85
721.719	0.85
721.745	-8.15
721.771	-12.15
721.797	8.85
721.823	-4.15
721.849	28.85
721.875	11.85
721.901	1.85
721.927	0.85
721.953	9.85
721.979	9.85
722.005	30.85
722.031	-10.15
722.057	0.85
722.083	5.85
722.109	16.85
722.135	14.85
722.161	3.85
722.187	-5.15
722.214	-6.15
722.24	0.85
722.266	-6.15
722.292	-4.15
722.318	16.85
722.344	-0.15
722.37	9.85
722.396	16.85
722.422	-4.15
722.448	-13.15
722.474	-15.15
722.5	22.85
722.526	-4.15
722.552	-4.15
722.578	-2.15
722.603	1.85
722.629	-1.15
722.655	13.85
722.681	-1.15
722.707	-2.15
722.733	-8.15
722.759	-12.15
722.785	-1.15
722.811	2.85
722.837	6.85
722.863	11.85
722.889	10.85
722.915	6.85
722.941	-15.15
722.967	20.85
722.993	5.85
723.019	5.85
723.045	8.85
723.071	7.85
723.097	-0.15
723.122	25.85
723.148	-13.15
723.174	-5.15
723.2	15.85
723.226	5.85
723.252	2.85
723.278	-7.15
723.304	-9.15
723.33	-3.15
723.356	-3.15
723.381	2.85
723.407	-18.15
723.433	22.85
723.459	2.85
723.485	0.85
723.511	18.85
723.537	0.85
723.563	6.85
723.588	-6.15
723.614	17.85
723.64	-1.15
723.666	-3.15
723.692	15.85
723.718	11.85
723.744	6.85
723.769	-4.15
723.795	-2.15
723.821	-5.15
723.847	-9.15
723.873	7.85
723.899	-6.15
723.924	-1.15
723.95	5.85
723.976	-5.15
724.002	-0.15
724.028	-0.15
724.053	-6.15
724.079	-9.15
724.105	1.85
724.131	-13.15
724.157	-2.15
724.182	-4.15
724.208	-13.15
724.234	-1.15
724.26	-16.15
724.286	-4.15
724.311	10.85
724.337	-4.15
724.363	-12.15
724.389	4.85
724.415	9.85
724.44	20.85
724.466	13.85
724.492	1.85
724.518	8.85
724.543	-9.15
724.569	-5.15
724.595	-7.15
724.621	3.85
724.646	-6.15
724.672	-1.15
724.698	8.85
724.723	-7.15
724.749	-8.15
724.775	13.85
724.801	4.85
724.826	-8.15
724.852	4.85
724.878	-4.15
724.904	-5.15
724.929	9.85
724.955	-2.15
724.981	5.85
725.006	5.85
725.032	9.85
725.058	29.85
725.083	-0.15
725.109	-3.15
725.135	1.85
725.161	1.85
725.186	6.85
725.212	-3.15
725.238	-1.15
725.263	2.85
725.289	-7.15
725.315	-10.15
725.34	-0.15
725.366	22.85
725.392	5.85
725.417	-10.15
725.443	2.85
725.468	5.85
725.494	-1.15
725.52	5.85
725.545	-11.15
725.571	-6.15
725.597	-4.15
725.622	5.85
725.648	10.85
725.674	18.85
725.699	26.85
725.725	10.85
725.75	22.85
725.776	-2.15
725.802	-10.15
725.827	13.85
725.853	18.85
725.878	4.85
725.904	10.85
725.93	11.85
725.955	-14.15
725.981	-5.15
726.006	11.85
726.032	14.85
726.057	-1.15
726.083	6.85
726.109	-6.15
726.134	-9.15
726.16	-7.15
726.185	-2.15
726.211	8.85
726.236	14.85
726.262	12.85
726.288	12.85
726.313	20.85
726.339	3.85
726.364	5.85
726.39	1.85
726.415	-5.15
726.441	-2.15
726.466	-20.15
726.492	-2.15
726.517	4.85
726.543	-4.15
726.568	-12.15
726.594	10.85
726.619	18.85
726.645	19.85
726.67	15.85
726.696	5.85
726.721	-0.15
726.747	-11.15
726.772	2.85
726.798	-1.15
726.823	4.85
726.849	5.85
726.874	-1.15
726.9	24.85
726.925	-1.15
726.951	12.85
726.976	19.85
727.002	-4.15
727.027	-0.15
727.053	17.85
727.078	0.85
727.104	-0.15
727.129	-9.15
727.155	2.85
727.18	13.85
727.205	7.85
727.231	-1.15
727.256	17.85
727.282	17.85
727.307	6.85
727.333	-1.15
727.358	0.85
727.383	-10.15
727.409	3.85
727.434	10.85
727.46	-11.15
727.485	-13.15
727.511	-0.15
727.536	2.85
727.561	-5.15
727.587	-0.15
727.612	-1.15
727.637	1.85
727.663	-3.15
727.688	18.85
727.714	2.85
727.739	3.85
727.764	-0.15
727.79	-2.15
727.815	2.85
727.841	-2.15
727.866	7.85
727.891	14.85
727.917	-7.15
727.942	-21.15
727.967	-3.15
727.993	-13.15
728.018	3.85
728.043	10.85
728.069	14.85
728.094	4.85
728.119	-2.15
728.145	18.85
728.17	-5.15
728.195	9.85
728.221	-4.15
728.246	13.85
728.271	-10.15
728.297	3.85
728.322	0.85
728.347	6.85
728.373	19.85
728.398	16.85
728.423	5.85
728.448	11.85
728.474	-2.15
728.499	-0.15
728.524	-17.15
728.55	-15.15
728.575	-4.15
728.6	5.85
728.625	-11.15
728.651	2.85
728.676	-16.15
728.701	1.85
728.727	13.85
728.752	-2.15
728.777	4.85
728.802	15.85
728.828	2.85
728.853	3.85
728.878	5.85
728.903	-8.15
728.929	-3.15
728.954	-1.15
728.979	1.85
729.004	-4.15
729.03	2.85
729.055	15.85
729.08	-4.15
729.105	7.85
729.13	26.85
729.156	1.85
729.181	4.85
729.206	-10.15
729.231	-12.15
729.256	6.85
729.282	-14.15
729.307	-6.15
729.332	-6.15
729.357	-8.15
729.382	-9.15
729.408	-1.15
729.433	-6.15
729.458	1.85
729.483	12.85
729.508	16.85
729.533	10.85
729.559	6.85
729.584	-14.15
729.609	16.85
729.634	0.85
729.659	-3.15
729.684	-10.15
729.71	3.85
729.735	4.85
729.76	14.85
729.785	1.85
729.81	17.85
729.835	12.85
729.86	-11.15
729.886	25.85
729.911	3.85
729.936	7.85
729.961	29.85
729.986	12.85
730.011	63.85
730.036	207.85
730.061	1041.85
730.086	2717.85
730.112	3377.85
730.137	2838.85
730.162	2089.85
730.187	1667.85
730.212	1271.85
730.237	776.85
730.262	446.85
730.287	234.85
730.312	141.85
730.337	65.85
730.362	62.85
730.387	35.85
730.413	9.85
730.438	16.85
730.463	30.85
730.488	10.85
730.513	4.85
730.538	7.85
730.563	12.85
730.588	25.85
730.613	21.85
730.638	14.85
730.663	6.85
730.688	25.85
730.713	9.85
730.738	1.85
730.763	2.85
730.788	-9.15
730.813	-1.15
730.838	-6.15
730.863	5.85
730.888	12.85
730.913	2.85
730.938	-9.15
730.963	37.85
730.988	134.85
731.013	402.85
731.038	618.85
731.063	590.85
731.088	452.85
731.113	346.85
731.138	290.85
731.163	199.85
731.188	123.85
731.213	68.85
731.238	45.85
731.263	12.85
731.288	5.85
731.313	0.85
731.338	4.85
731.363	8.85
731.388	3.85
731.413	-0.15
731.438	19.85
731.463	13.85
731.487	15.85
731.512	7.85
731.537	6.85
731.562	-6.15
731.587	-8.15
731.612	-9.15
731.637	2.85
731.662	-5.15
731.687	3.85
731.712	-10.15
731.737	-4.15
731.762	2.85
731.786	6.85
731.811	17.85
731.836	2.85
731.861	-2.15
731.886	-11.15
731.911	-4.15
731.936	13.85
731.961	10.85
731.986	0.85
732.01	2.85
732.035	11.85
732.06	21.85
732.085	18.85
732.11	-9.15
732.135	-23.15
732.16	-13.15
732.184	-7.15
732.209	-0.15
732.234	1.85
732.259	-2.15
732.284	10.85
732.309	-9.15
732.334	-1.15
732.358	-6.15
732.383	-6.15
732.408	-2.15
732.433	10.85
732.458	7.85
732.482	-1.15
732.507	-13.15
732.532	14.85
732.557	14.85
732.582	20.85
732.607	14.85
732.631	47.85
732.656	83.85
732.681	141.85
732.706	327.85
732.73	459.85
732.755	417.85
732.78	292.85
732.805	242.85
732.83	195.85
732.854	129.85
732.879	102.85
732.904	36.85
732.929	19.85
732.953	27.85
732.978	10.85
733.003	0.85
733.028	-10.15
733.052	13.85
733.077	11.85
733.102	8.85
733.127	13.85
733.151	5.85
733.176	3.85
733.201	-1.15
733.226	-6.15
733.25	7.85
733.275	-3.15
733.3	7.85
733.324	10.85
733.349	2.85
733.374	21.85
733.399	6.85
733.423	13.85
733.448	4.85
733.473	-2.15
733.497	3.85
733.522	-2.15
733.547	-8.15
733.571	1.85
733.596	2.85
733.621	6.85
733.646	0.85
733.67	-1.15
733.695	2.85
733.72	-8.15
733.744	6.85
733.769	29.85
733.794	3.85
733.818	-1.15
733.843	-2.15
733.867	-15.15
733.892	-7.15
733.917	3.85
733.941	-5.15
733.966	-6.15
733.991	12.85
734.015	24.85
734.04	15.85
734.065	4.85
734.089	17.85
734.114	-3.15
734.138	-2.15
734.163	8.85
734.188	9.85
734.212	12.85
734.237	14.85
734.261	13.85
734.286	5.85
734.311	8.85
734.335	6.85
734.36	16.85
734.384	11.85
734.409	7.85
734.434	5.85
734.458	0.85
734.483	-0.15
734.507	-10.15
734.532	1.85
734.556	12.85
734.581	-6.15
734.606	-5.15
734.63	-8.15
734.655	-3.15
734.679	-2.15
734.704	-14.15
734.728	-1.15
734.753	1.85
734.777	1.85
734.802	16.85
734.826	3.85
734.851	11.85
734.876	15.85
734.9	13.85
734.925	9.85
734.949	0.85
734.974	6.85
734.998	11.85
735.023	-12.15
735.047	-7.15
735.072	19.85
735.096	12.85
735.121	-7.15
735.145	-3.15
735.17	-3.15
735.194	4.85
735.219	3.85
735.243	-1.15
735.268	1.85
735.292	2.85
735.317	7.85
735.341	25.85
735.365	-2.15
735.39	9.85
735.414	5.85
735.439	-1.15
735.463	9.85
735.488	6.85
735.512	-1.15
735.537	-1.15
735.561	8.85
735.586	7.85
735.61	4.85
735.634	-1.15
735.659	15.85
735.683	17.85
735.708	1.85
735.732	0.85
735.757	-0.15
735.781	3.85
735.805	-5.15
735.83	-18.15
735.854	1.85
735.879	6.85
735.903	16.85
735.927	3.85
735.952	7.85
735.976	6.85
736.001	-4.15
736.025	-8.15
736.049	10.85
736.074	3.85
736.098	6.85
736.123	20.85
736.147	-10.15
736.171	-1.15
736.196	-1.15
736.22	-9.15
736.244	11.85
736.269	15.85
736.293	3.85
736.317	22.85
736.342	17.85
736.366	14.85
736.39	22.85
736.415	7.85
736.439	15.85
736.463	14.85
736.488	14.85
736.512	-7.15
736.536	23.85
736.561	29.85
736.585	-1.15
736.609	5.85
736.634	2.85
736.658	14.85
736.682	-10.15
736.707	-6.15
736.731	-4.15
736.755	-13.15
736.78	11.85
736.804	15.85
736.828	10.85
736.852	0.85
736.877	-12.15
736.901	-8.15
736.925	20.85
736.949	22.85
736.974	1.85
736.998	4.85
737.022	17.85
737.047	4.85
737.071	0.85
737.095	15.85
737.119	31.85
737.144	17.85
737.168	6.85
737.192	-5.15
737.216	11.85
737.241	-5.15
737.265	2.85
737.289	7.85
737.313	1.85
737.337	12.85
737.362	-4.15
737.386	-6.15
737.41	-10.15
737.434	3.85
737.459	5.85
737.483	16.85
737.507	11.85
737.531	12.85
737.555	14.85
737.58	3.85
737.604	2.85
737.628	-8.15
737.652	-11.15
737.676	1.85
737.701	1.85
737.725	-2.15
737.749	2.85
737.773	-7.15
737.797	-4.15
737.821	8.85
737.846	-1.15
737.87	28.85
737.894	9.85
737.918	10.85
737.942	-2.15
737.966	20.85
737.99	13.85
738.015	-14.15
738.039	-4.15
738.063	-3.15
738.087	11.85
738.111	-2.15
738.135	18.85
738.159	5.85
738.184	7.85
738.208	18.85
738.232	-0.15
738.256	17.85
738.28	15.85
738.304	21.85
738.328	-8.15
738.352	-1.15
738.376	3.85
738.4	5.85
738.425	2.85
738.449	-5.15
738.473	13.85
738.497	6.85
738.521	2.85
738.545	3.85
738.569	12.85
738.593	18.85
738.617	13.85
738.641	-5.15
738.665	4.85
738.689	0.85
738.713	-1.15
738.737	4.85
738.762	27.85
738.786	21.85
738.81	-3.15
738.834	19.85
738.858	-1.15
738.882	9.85
738.906	2.85
738.93	-2.15
738.954	-3.15
738.978	5.85
739.002	2.85
739.026	2.85
739.05	-2.15
739.074	-5.15
739.098	13.85
739.122	14.85
739.146	19.85
739.17	14.85
739.194	-0.15
739.218	-9.15
739.242	0.85
739.266	3.85
739.29	2.85
739.314	-0.15
739.338	2.85
739.362	-1.15
739.386	12.85
739.41	5.85
739.434	1.85
739.458	9.85
739.482	5.85
739.506	23.85
739.53	-6.15
739.554	17.85
739.577	-15.15
739.601	4.85
739.625	-9.15
739.649	7.85
739.673	-14.15
739.697	17.85
739.721	-12.15
739.745	-2.15
739.769	7.85
739.793	12.85
739.817	4.85
739.841	-1.15
739.865	6.85
739.889	-8.15
739.912	18.85
739.936	6.85
739.96	-2.15
739.984	23.85
740.008	9.85
740.032	6.85
740.056	1.85
740.08	2.85
740.104	-6.15
740.127	19.85
740.151	20.85
740.175	8.85
740.199	6.85
740.223	33.85
740.247	15.85
740.271	-3.15
740.295	-2.15
740.318	-3.15
740.342	-10.15
740.366	-0.15
740.39	4.85
740.414	0.85
740.438	-7.15
740.461	27.85
740.485	14.85
740.509	-9.15
740.533	9.85
740.557	8.85
740.581	-0.15
740.604	-12.15
740.628	-5.15
740.652	15.85
740.676	-5.15
740.7	10.85
740.723	-0.15
740.747	-10.15
740.771	6.85
740.795	-10.15
740.819	8.85
740.842	2.85
740.866	20.85
740.89	16.85
740.914	-10.15
740.938	-9.15
740.961	22.85
740.985	11.85
741.009	1.85
741.033	1.85
741.056	-5.15
741.08	1.85
741.104	9.85
741.128	8.85
741.151	3.85
741.175	-5.15
741.199	1.85
741.223	-15.15
741.246	-8.15
741.27	6.85
741.294	13.85
741.318	-6.15
741.341	-0.15
741.365	-9.15
741.389	6.85
741.413	11.85
741.436	15.85
741.46	19.85
741.484	18.85
741.507	17.85
741.531	35.85
741.555	11.85
741.579	-2.15
741.602	-0.15
741.626	1.85
741.65	6.85
741.673	-7.15
741.697	11.85
741.721	17.85
741.744	-25.15
741.768	-9.15
741.792	2.85
741.815	-5.15
741.839	2.85
741.863	9.85
741.886	12.85
741.91	20.85
741.934	0.85
741.957	-2.15
741.981	4.85
742.005	11.85
742.028	-6.15
742.052	0.85
742.075	21.85
742.099	17.85
742.123	8.85
742.146	10.85
742.17	-5.15
742.194	-13.15
742.217	-6.15
742.241	-12.15
742.264	-15.15
742.288	18.85
742.312	7.85
742.335	10.85
742.359	3.85
742.382	21.85
742.406	20.85
742.43	-6.15
742.453	-1.15
742.477	-7.15
742.5	8.85
742.524	-4.15
742.548	-5.15
742.571	-2.15
742.595	-8.15
742.618	-4.15
742.642	-1.15
742.665	8.85
742.689	-15.15
742.712	0.85
742.736	-6.15
742.76	11.85
742.783	6.85
742.807	9.85
742.83	20.85
742.854	-12.15
742.877	-17.15
742.901	6.85
742.924	0.85
742.948	-5.15
742.971	3.85
742.995	8.85
743.018	-5.15
743.042	-7.15
743.065	-10.15
743.089	-1.15
743.112	22.85
743.136	3.85
743.159	-1.15
743.183	10.85
743.206	-12.15
743.23	13.85
743.253	2.85
743.277	0.85
743.3	-7.15
743.324	-4.15
743.347	-16.15
743.371	-6.15
743.394	18.85
743.418	29.85
743.441	2.85
743.465	-8.15
743.488	10.85
743.512	-3.15
743.535	-6.15
743.558	0.85
743.582	28.85
743.605	5.85
743.629	5.85
743.652	-0.15
743.676	11.85
743.699	23.85
743.723	15.85
743.746	14.85
743.769	2.85
743.793	6.85
743.816	-17.15
743.84	21.85
743.863	-14.15
743.886	12.85
743.91	5.85
743.933	9.85
743.957	3.85
743.98	-4.15
744.003	-1.15
744.027	14.85
744.05	5.85
744.074	9.85
744.097	-3.15
744.12	-14.15
744.144	-7.15
744.167	-6.15
744.19	-5.15
744.214	20.85
744.237	-2.15
744.26	-5.15
744.284	-1.15
744.307	-23.15
744.331	3.85
744.354	-4.15
744.377	10.85
744.401	2.85
744.424	-1.15
744.447	-15.15
744.471	11.85
