Data from HighRes_mercury_15_13_11_07_2024_HR4C61891__38__15-14-26-986.txt Node

Date: Thu Nov 07 15:14:26 EST 2024
User: crc00042
Spectrometer: HR4C6189
Trigger mode: 4
Integration Time (sec): 1.000000E-1
Scans to average: 1
Electric dark correction enabled: true
Nonlinearity correction enabled: false
Boxcar width: 0
XAxis mode: Wavelengths
Number of Pixels in Spectrum: 3648
>>>>>Begin Spectral Data<<<<<
639.567	-61.08
639.602	-61.08
639.636	-61.08
639.67	-56.08
639.704	-32.08
639.738	-10.08
639.773	8.92
639.807	-21.08
639.841	-9.08
639.875	22.92
639.909	-5.08
639.943	-14.08
639.978	-0.08
640.012	7.92
640.046	22.92
640.08	8.92
640.114	-8.08
640.148	-4.08
640.182	-7.08
640.217	-13.08
640.251	0.92
640.285	-1.08
640.319	-11.08
640.353	-1.08
640.387	-12.08
640.421	-17.08
640.455	-11.08
640.49	-8.08
640.524	-19.08
640.558	2.92
640.592	-19.08
640.626	-1.08
640.66	0.92
640.694	-8.08
640.728	13.92
640.762	5.92
640.796	0.92
640.83	-7.08
640.865	-15.08
640.899	4.92
640.933	-10.08
640.967	0.92
641.001	6.92
641.035	10.92
641.069	-1.08
641.103	-8.08
641.137	-1.08
641.171	-23.08
641.205	8.92
641.239	-13.08
641.273	3.92
641.307	16.92
641.341	-4.08
641.375	0.92
641.409	-1.08
641.443	-2.08
641.477	-5.08
641.511	4.92
641.545	-8.08
641.579	-9.08
641.614	-17.08
641.648	12.92
641.682	-7.08
641.716	5.92
641.75	24.92
641.784	-0.08
641.818	-4.08
641.852	7.92
641.886	6.92
641.919	14.92
641.953	-4.08
641.987	-3.08
642.021	0.92
642.055	7.92
642.089	-7.08
642.123	-8.08
642.157	-14.08
642.191	-1.08
642.225	3.92
642.259	-1.08
642.293	4.92
642.327	3.92
642.361	-3.08
642.395	-3.08
642.429	5.92
642.463	5.92
642.497	-0.08
642.531	-7.08
642.565	-3.08
642.599	-1.08
642.633	-23.08
642.666	-3.08
642.7	-11.08
642.734	8.92
642.768	-5.08
642.802	-13.08
642.836	-2.08
642.87	-16.08
642.904	-2.08
642.938	12.92
642.972	-7.08
643.005	-3.08
643.039	5.92
643.073	-7.08
643.107	-5.08
643.141	-12.08
643.175	1.92
643.209	-3.08
643.243	-1.08
643.276	-7.08
643.31	-7.08
643.344	-10.08
643.378	-14.08
643.412	-0.08
643.446	-10.08
643.48	-20.08
643.513	2.92
643.547	-1.08
643.581	-13.08
643.615	5.92
643.649	-9.08
643.683	0.92
643.716	-1.08
643.75	-4.08
643.784	-19.08
643.818	2.92
643.852	-5.08
643.886	-10.08
643.919	-0.08
643.953	-7.08
643.987	-1.08
644.021	6.92
644.055	6.92
644.088	-0.08
644.122	-6.08
644.156	-13.08
644.19	-4.08
644.224	1.92
644.257	17.92
644.291	7.92
644.325	-6.08
644.359	-2.08
644.392	-4.08
644.426	15.92
644.46	8.92
644.494	13.92
644.527	-15.08
644.561	-17.08
644.595	-2.08
644.629	4.92
644.662	-7.08
644.696	15.92
644.73	-13.08
644.764	-2.08
644.797	0.92
644.831	4.92
644.865	12.92
644.899	-0.08
644.932	0.92
644.966	-2.08
645	6.92
645.033	19.92
645.067	-13.08
645.101	-5.08
645.135	-4.08
645.168	3.92
645.202	2.92
645.236	-13.08
645.269	-4.08
645.303	-10.08
645.337	-18.08
645.37	-7.08
645.404	-7.08
645.438	-0.08
645.471	-4.08
645.505	8.92
645.539	-11.08
645.572	3.92
645.606	-15.08
645.64	-8.08
645.673	-11.08
645.707	5.92
645.741	4.92
645.774	-5.08
645.808	-1.08
645.842	-14.08
645.875	-16.08
645.909	-23.08
645.943	-13.08
645.976	-14.08
646.01	7.92
646.043	1.92
646.077	-9.08
646.111	0.92
646.144	1.92
646.178	11.92
646.212	-4.08
646.245	-0.08
646.279	3.92
646.312	-2.08
646.346	-13.08
646.38	2.92
646.413	2.92
646.447	-0.08
646.48	1.92
646.514	-1.08
646.547	10.92
646.581	-6.08
646.615	-12.08
646.648	-19.08
646.682	6.92
646.715	-6.08
646.749	2.92
646.782	-2.08
646.816	-3.08
646.85	4.92
646.883	-13.08
646.917	4.92
646.95	11.92
646.984	-13.08
647.017	10.92
647.051	10.92
647.084	15.92
647.118	-7.08
647.151	-12.08
647.185	-6.08
647.218	-15.08
647.252	-14.08
647.285	-29.08
647.319	-5.08
647.353	1.92
647.386	4.92
647.42	-7.08
647.453	-0.08
647.487	-7.08
647.52	-7.08
647.553	15.92
647.587	-2.08
647.62	-3.08
647.654	-4.08
647.687	6.92
647.721	-8.08
647.754	-1.08
647.788	-4.08
647.821	-14.08
647.855	-7.08
647.888	16.92
647.922	9.92
647.955	3.92
647.989	2.92
648.022	-1.08
648.055	-2.08
648.089	-18.08
648.122	17.92
648.156	-7.08
648.189	-16.08
648.223	-6.08
648.256	29.92
648.29	3.92
648.323	3.92
648.356	8.92
648.39	11.92
648.423	-3.08
648.457	-3.08
648.49	2.92
648.523	4.92
648.557	11.92
648.59	0.92
648.624	8.92
648.657	10.92
648.69	2.92
648.724	10.92
648.757	10.92
648.791	4.92
648.824	-2.08
648.857	8.92
648.891	6.92
648.924	5.92
648.957	11.92
648.991	-1.08
649.024	6.92
649.057	-2.08
649.091	-3.08
649.124	14.92
649.158	2.92
649.191	13.92
649.224	-5.08
649.258	-5.08
649.291	1.92
649.324	5.92
649.358	6.92
649.391	0.92
649.424	-6.08
649.458	-1.08
649.491	-19.08
649.524	-6.08
649.557	-20.08
649.591	-19.08
649.624	9.92
649.657	-16.08
649.691	-15.08
649.724	-2.08
649.757	-12.08
649.791	-18.08
649.824	19.92
649.857	14.92
649.89	-0.08
649.924	-2.08
649.957	-7.08
649.99	-15.08
650.023	0.92
650.057	-18.08
650.09	-7.08
650.123	-2.08
650.157	9.92
650.19	11.92
650.223	-9.08
650.256	-16.08
650.29	-3.08
650.323	1.92
650.356	-1.08
650.389	-12.08
650.423	-21.08
650.456	-7.08
650.489	-11.08
650.522	0.92
650.555	17.92
650.589	1.92
650.622	1.92
650.655	11.92
650.688	6.92
650.721	-15.08
650.755	-7.08
650.788	6.92
650.821	1.92
650.854	7.92
650.887	15.92
650.921	4.92
650.954	0.92
650.987	0.92
651.02	-18.08
651.053	-27.08
651.087	-25.08
651.12	12.92
651.153	13.92
651.186	-20.08
651.219	-12.08
651.252	0.92
651.286	-10.08
651.319	-8.08
651.352	-3.08
651.385	0.92
651.418	-5.08
651.451	12.92
651.484	1.92
651.518	-3.08
651.551	15.92
651.584	-18.08
651.617	10.92
651.65	-6.08
651.683	-2.08
651.716	-11.08
651.749	-5.08
651.783	-6.08
651.816	-4.08
651.849	4.92
651.882	0.92
651.915	9.92
651.948	8.92
651.981	6.92
652.014	-1.08
652.047	10.92
652.08	-26.08
652.114	-1.08
652.147	-14.08
652.18	-13.08
652.213	21.92
652.246	-3.08
652.279	-7.08
652.312	16.92
652.345	9.92
652.378	10.92
652.411	19.92
652.444	2.92
652.477	-9.08
652.51	-1.08
652.543	-21.08
652.576	0.92
652.609	1.92
652.642	9.92
652.675	9.92
652.709	1.92
652.742	3.92
652.775	-6.08
652.808	7.92
652.841	4.92
652.874	-2.08
652.907	-6.08
652.94	-11.08
652.973	-14.08
653.006	-0.08
653.039	-11.08
653.072	2.92
653.105	-17.08
653.138	-15.08
653.171	-13.08
653.204	-9.08
653.237	1.92
653.27	-9.08
653.303	-8.08
653.336	-0.08
653.368	-22.08
653.401	-4.08
653.434	-7.08
653.467	-10.08
653.5	-31.08
653.533	-22.08
653.566	-0.08
653.599	0.92
653.632	8.92
653.665	9.92
653.698	-11.08
653.731	-21.08
653.764	-1.08
653.797	11.92
653.83	6.92
653.863	-2.08
653.896	3.92
653.929	0.92
653.961	6.92
653.994	-13.08
654.027	-17.08
654.06	-14.08
654.093	7.92
654.126	15.92
654.159	-16.08
654.192	-14.08
654.225	-15.08
654.258	-12.08
654.29	12.92
654.323	-12.08
654.356	-21.08
654.389	-14.08
654.422	-6.08
654.455	-12.08
654.488	11.92
654.521	-12.08
654.553	-12.08
654.586	-8.08
654.619	-12.08
654.652	-17.08
654.685	-5.08
654.718	-7.08
654.751	-15.08
654.783	-7.08
654.816	0.92
654.849	9.92
654.882	-4.08
654.915	-11.08
654.948	-26.08
654.98	-19.08
655.013	1.92
655.046	-1.08
655.079	4.92
655.112	-12.08
655.144	-10.08
655.177	-2.08
655.21	9.92
655.243	-2.08
655.276	-5.08
655.308	-2.08
655.341	-19.08
655.374	-6.08
655.407	-5.08
655.44	-8.08
655.472	8.92
655.505	10.92
655.538	-10.08
655.571	12.92
655.603	-0.08
655.636	-5.08
655.669	6.92
655.702	7.92
655.734	-14.08
655.767	-24.08
655.8	-5.08
655.833	0.92
655.865	5.92
655.898	-3.08
655.931	-5.08
655.964	-7.08
655.996	-16.08
656.029	-1.08
656.062	-8.08
656.095	-5.08
656.127	-8.08
656.16	-11.08
656.193	-7.08
656.225	-2.08
656.258	4.92
656.291	-12.08
656.324	6.92
656.356	10.92
656.389	-2.08
656.422	12.92
656.454	-10.08
656.487	-17.08
656.52	-6.08
656.552	-17.08
656.585	-3.08
656.618	7.92
656.65	1.92
656.683	-7.08
656.716	7.92
656.748	-9.08
656.781	-17.08
656.814	-21.08
656.846	14.92
656.879	-6.08
656.912	3.92
656.944	-7.08
656.977	-11.08
657.01	-3.08
657.042	-6.08
657.075	7.92
657.108	-10.08
657.14	-16.08
657.173	2.92
657.205	14.92
657.238	-4.08
657.271	2.92
657.303	-10.08
657.336	-2.08
657.369	-11.08
657.401	-5.08
657.434	3.92
657.466	7.92
657.499	-0.08
657.532	-22.08
657.564	0.92
657.597	-10.08
657.629	7.92
657.662	-1.08
657.694	-7.08
657.727	-24.08
657.76	-1.08
657.792	-6.08
657.825	-15.08
657.857	-5.08
657.89	-11.08
657.922	-6.08
657.955	-9.08
657.987	-19.08
658.02	-0.08
658.053	5.92
658.085	5.92
658.118	-6.08
658.15	7.92
658.183	6.92
658.215	-6.08
658.248	3.92
658.28	-9.08
658.313	12.92
658.345	18.92
658.378	-11.08
658.41	-9.08
658.443	-4.08
658.475	-24.08
658.508	-12.08
658.54	-6.08
658.573	-5.08
658.605	-14.08
658.638	5.92
658.67	3.92
658.703	-12.08
658.735	-22.08
658.768	-7.08
658.8	-9.08
658.833	4.92
658.865	-8.08
658.898	-0.08
658.93	-10.08
658.963	-13.08
658.995	0.92
659.028	2.92
659.06	-10.08
659.092	1.92
659.125	-7.08
659.157	6.92
659.19	-10.08
659.222	-9.08
659.255	-5.08
659.287	-5.08
659.32	-7.08
659.352	-6.08
659.384	-0.08
659.417	-17.08
659.449	-10.08
659.482	-1.08
659.514	-12.08
659.546	-9.08
659.579	-16.08
659.611	-4.08
659.644	-16.08
659.676	-24.08
659.708	-24.08
659.741	-19.08
659.773	9.92
659.806	-11.08
659.838	1.92
659.87	5.92
659.903	-9.08
659.935	-2.08
659.967	7.92
660	15.92
660.032	-27.08
660.065	16.92
660.097	-2.08
660.129	3.92
660.162	-21.08
660.194	11.92
660.226	-7.08
660.259	-4.08
660.291	-8.08
660.323	-16.08
660.356	-0.08
660.388	-10.08
660.42	-11.08
660.453	2.92
660.485	4.92
660.517	13.92
660.55	15.92
660.582	-5.08
660.614	11.92
660.647	-7.08
660.679	-28.08
660.711	-1.08
660.743	-7.08
660.776	3.92
660.808	-14.08
660.84	-15.08
660.873	-8.08
660.905	-8.08
660.937	-9.08
660.969	0.92
661.002	-9.08
661.034	-0.08
661.066	-9.08
661.099	-5.08
661.131	11.92
661.163	1.92
661.195	-21.08
661.228	-11.08
661.26	-10.08
661.292	-19.08
661.324	-3.08
661.357	-5.08
661.389	-2.08
661.421	13.92
661.453	-12.08
661.485	-6.08
661.518	-8.08
661.55	-6.08
661.582	-13.08
661.614	-11.08
661.647	-1.08
661.679	9.92
661.711	-2.08
661.743	-20.08
661.775	-6.08
661.808	2.92
661.84	-11.08
661.872	-3.08
661.904	0.92
661.936	7.92
661.969	-7.08
662.001	-14.08
662.033	-4.08
662.065	-23.08
662.097	11.92
662.129	-3.08
662.162	-16.08
662.194	-7.08
662.226	-3.08
662.258	2.92
662.29	-1.08
662.322	-7.08
662.355	-25.08
662.387	26.92
662.419	12.92
662.451	-0.08
662.483	8.92
662.515	-19.08
662.547	-4.08
662.58	-10.08
662.612	-18.08
662.644	-5.08
662.676	-5.08
662.708	-6.08
662.74	4.92
662.772	-2.08
662.804	10.92
662.836	10.92
662.869	-12.08
662.901	10.92
662.933	-15.08
662.965	9.92
662.997	-7.08
663.029	-12.08
663.061	-6.08
663.093	-19.08
663.125	-4.08
663.157	1.92
663.189	-19.08
663.221	0.92
663.254	2.92
663.286	-4.08
663.318	-14.08
663.35	-5.08
663.382	-11.08
663.414	17.92
663.446	15.92
663.478	-6.08
663.51	21.92
663.542	-13.08
663.574	-7.08
663.606	-6.08
663.638	-10.08
663.67	-7.08
663.702	-3.08
663.734	-2.08
663.766	-0.08
663.798	-6.08
663.83	-6.08
663.862	3.92
663.894	5.92
663.926	-2.08
663.958	1.92
663.99	-3.08
664.022	-9.08
664.054	2.92
664.086	-8.08
664.118	-21.08
664.15	-20.08
664.182	1.92
664.214	-2.08
664.246	9.92
664.278	12.92
664.31	24.92
664.342	-0.08
664.374	-4.08
664.406	1.92
664.438	0.92
664.47	15.92
664.502	1.92
664.534	-1.08
664.566	-12.08
664.598	13.92
664.63	5.92
664.662	5.92
664.693	-0.08
664.725	-8.08
664.757	-12.08
664.789	-2.08
664.821	-2.08
664.853	-2.08
664.885	5.92
664.917	-2.08
664.949	10.92
664.981	26.92
665.013	3.92
665.045	-22.08
665.076	1.92
665.108	-18.08
665.14	-5.08
665.172	-3.08
665.204	-1.08
665.236	-7.08
665.268	6.92
665.3	-6.08
665.331	-8.08
665.363	-1.08
665.395	-0.08
665.427	-9.08
665.459	0.92
665.491	-13.08
665.523	-24.08
665.555	-5.08
665.586	12.92
665.618	3.92
665.65	-19.08
665.682	11.92
665.714	-5.08
665.746	2.92
665.777	7.92
665.809	10.92
665.841	8.92
665.873	-6.08
665.905	8.92
665.937	13.92
665.968	15.92
666	-7.08
666.032	-3.08
666.064	-2.08
666.096	-8.08
666.127	8.92
666.159	15.92
666.191	-2.08
666.223	6.92
666.255	7.92
666.286	-1.08
666.318	-12.08
666.35	2.92
666.382	11.92
666.413	-11.08
666.445	-13.08
666.477	-7.08
666.509	-15.08
666.54	-11.08
666.572	0.92
666.604	5.92
666.636	1.92
666.667	3.92
666.699	11.92
666.731	-0.08
666.763	-14.08
666.794	-20.08
666.826	-10.08
666.858	-23.08
666.89	7.92
666.921	0.92
666.953	24.92
666.985	20.92
667.017	7.92
667.048	12.92
667.08	-5.08
667.112	-5.08
667.143	2.92
667.175	-8.08
667.207	-3.08
667.238	3.92
667.27	-3.08
667.302	-11.08
667.334	13.92
667.365	11.92
667.397	7.92
667.429	-9.08
667.46	6.92
667.492	-0.08
667.524	-5.08
667.555	4.92
667.587	-6.08
667.619	0.92
667.65	-4.08
667.682	1.92
667.714	6.92
667.745	-0.08
667.777	0.92
667.808	17.92
667.84	8.92
667.872	-10.08
667.903	15.92
667.935	-8.08
667.967	4.92
667.998	-5.08
668.03	0.92
668.061	-11.08
668.093	-24.08
668.125	-9.08
668.156	-3.08
668.188	-19.08
668.22	-13.08
668.251	-8.08
668.283	-3.08
668.314	-7.08
668.346	1.92
668.377	18.92
668.409	8.92
668.441	14.92
668.472	13.92
668.504	3.92
668.535	-13.08
668.567	15.92
668.599	4.92
668.63	-5.08
668.662	-8.08
668.693	8.92
668.725	9.92
668.756	3.92
668.788	6.92
668.819	-2.08
668.851	-8.08
668.882	-8.08
668.914	-20.08
668.946	-15.08
668.977	-11.08
669.009	-16.08
669.04	-16.08
669.072	1.92
669.103	-2.08
669.135	-3.08
669.166	0.92
669.198	3.92
669.229	1.92
669.261	-8.08
669.292	-14.08
669.324	-11.08
669.355	1.92
669.387	-15.08
669.418	-4.08
669.45	-14.08
669.481	6.92
669.513	7.92
669.544	-4.08
669.576	-7.08
669.607	4.92
669.639	4.92
669.67	-23.08
669.701	-8.08
669.733	-9.08
669.764	-7.08
669.796	-8.08
669.827	-22.08
669.859	-22.08
669.89	12.92
669.922	18.92
669.953	-12.08
669.985	17.92
670.016	12.92
670.047	-12.08
670.079	-11.08
670.11	-10.08
670.142	0.92
670.173	-17.08
670.204	-0.08
670.236	-6.08
670.267	-17.08
670.299	0.92
670.33	-6.08
670.362	3.92
670.393	-6.08
670.424	5.92
670.456	-0.08
670.487	6.92
670.518	4.92
670.55	10.92
670.581	2.92
670.613	-7.08
670.644	4.92
670.675	-9.08
670.707	-16.08
670.738	1.92
670.769	-5.08
670.801	-7.08
670.832	-0.08
670.864	-6.08
670.895	-6.08
670.926	-12.08
670.958	-8.08
670.989	-7.08
671.02	-2.08
671.052	3.92
671.083	-1.08
671.114	-5.08
671.146	2.92
671.177	-8.08
671.208	-8.08
671.24	-18.08
671.271	-12.08
671.302	1.92
671.333	-22.08
671.365	-11.08
671.396	-6.08
671.427	-5.08
671.459	-0.08
671.49	6.92
671.521	-0.08
671.553	-3.08
671.584	-0.08
671.615	-1.08
671.646	2.92
671.678	3.92
671.709	-14.08
671.74	-11.08
671.771	-20.08
671.803	-18.08
671.834	-3.08
671.865	-11.08
671.896	11.92
671.928	0.92
671.959	-14.08
671.99	-3.08
672.021	-0.08
672.053	-10.08
672.084	7.92
672.115	4.92
672.146	-6.08
672.178	-13.08
672.209	-3.08
672.24	0.92
672.271	20.92
672.303	3.92
672.334	-10.08
672.365	-3.08
672.396	5.92
672.427	-4.08
672.459	-4.08
672.49	4.92
672.521	-2.08
672.552	8.92
672.583	-1.08
672.615	-10.08
672.646	22.92
672.677	3.92
672.708	-5.08
672.739	-4.08
672.77	18.92
672.802	-6.08
672.833	-13.08
672.864	-6.08
672.895	-16.08
672.926	-13.08
672.957	-19.08
672.989	-19.08
673.02	-2.08
673.051	2.92
673.082	5.92
673.113	-21.08
673.144	-22.08
673.175	-17.08
673.206	-10.08
673.238	1.92
673.269	-4.08
673.3	-4.08
673.331	-7.08
673.362	-10.08
673.393	-6.08
673.424	0.92
673.455	4.92
673.487	-1.08
673.518	13.92
673.549	-2.08
673.58	-2.08
673.611	-9.08
673.642	5.92
673.673	-19.08
673.704	-2.08
673.735	-6.08
673.766	-11.08
673.797	-9.08
673.828	-10.08
673.86	-4.08
673.891	-24.08
673.922	-27.08
673.953	-15.08
673.984	-2.08
674.015	2.92
674.046	-1.08
674.077	0.92
674.108	-20.08
674.139	-15.08
674.17	-4.08
674.201	-20.08
674.232	-6.08
674.263	-15.08
674.294	-3.08
674.325	-12.08
674.356	-12.08
674.387	4.92
674.418	-5.08
674.449	-1.08
674.48	-3.08
674.511	-2.08
674.542	0.92
674.573	-16.08
674.604	4.92
674.635	-2.08
674.666	-0.08
674.697	-7.08
674.728	-8.08
674.759	-15.08
674.79	-9.08
674.821	-13.08
674.852	-6.08
674.883	-19.08
674.914	2.92
674.945	1.92
674.976	-13.08
675.007	-2.08
675.038	-10.08
675.069	-7.08
675.1	-13.08
675.131	-20.08
675.162	-26.08
675.193	-23.08
675.224	-10.08
675.254	-3.08
675.285	11.92
675.316	6.92
675.347	-5.08
675.378	-16.08
675.409	-6.08
675.44	-10.08
675.471	0.92
675.502	-4.08
675.533	-22.08
675.564	-18.08
675.595	-8.08
675.625	9.92
675.656	-2.08
675.687	-0.08
675.718	-9.08
675.749	-16.08
675.78	-3.08
675.811	-1.08
675.842	0.92
675.873	1.92
675.903	1.92
675.934	-4.08
675.965	7.92
675.996	-1.08
676.027	-5.08
676.058	-3.08
676.089	-19.08
676.119	-0.08
676.15	-3.08
676.181	5.92
676.212	-12.08
676.243	8.92
676.274	-10.08
676.304	0.92
676.335	-22.08
676.366	-2.08
676.397	-26.08
676.428	-7.08
676.459	-2.08
676.489	8.92
676.52	-13.08
676.551	-13.08
676.582	-10.08
676.613	-13.08
676.643	-15.08
676.674	1.92
676.705	-2.08
676.736	9.92
676.767	-7.08
676.797	-5.08
676.828	12.92
676.859	-9.08
676.89	-21.08
676.92	-1.08
676.951	-15.08
676.982	8.92
677.013	-2.08
677.044	17.92
677.074	16.92
677.105	-30.08
677.136	-11.08
677.167	-2.08
677.197	11.92
677.228	0.92
677.259	-11.08
677.289	-11.08
677.32	-24.08
677.351	-3.08
677.382	-5.08
677.412	-7.08
677.443	-0.08
677.474	-5.08
677.505	-11.08
677.535	-14.08
677.566	-3.08
677.597	-18.08
677.627	-29.08
677.658	-5.08
677.689	9.92
677.72	-3.08
677.75	-22.08
677.781	-8.08
677.812	0.92
677.842	1.92
677.873	0.92
677.904	-4.08
677.934	-12.08
677.965	-7.08
677.996	-21.08
678.026	4.92
678.057	11.92
678.088	-16.08
678.118	-17.08
678.149	-16.08
678.18	-14.08
678.21	-19.08
678.241	-6.08
678.272	-11.08
678.302	6.92
678.333	-4.08
678.363	-2.08
678.394	-25.08
678.425	-16.08
678.455	-5.08
678.486	6.92
678.517	3.92
678.547	-6.08
678.578	-8.08
678.608	-28.08
678.639	10.92
678.67	0.92
678.7	-5.08
678.731	-3.08
678.761	-9.08
678.792	-2.08
678.823	5.92
678.853	5.92
678.884	-30.08
678.914	-1.08
678.945	-0.08
678.975	-13.08
679.006	4.92
679.037	-17.08
679.067	4.92
679.098	-13.08
679.128	-27.08
679.159	-14.08
679.189	-3.08
679.22	-6.08
679.25	20.92
679.281	2.92
679.312	8.92
679.342	-8.08
679.373	9.92
679.403	8.92
679.434	10.92
679.464	5.92
679.495	10.92
679.525	-0.08
679.556	-3.08
679.586	-11.08
679.617	0.92
679.647	-2.08
679.678	-14.08
679.708	-10.08
679.739	-6.08
679.769	-0.08
679.8	-3.08
679.83	0.92
679.861	-7.08
679.891	-14.08
679.922	-11.08
679.952	-7.08
679.983	-10.08
680.013	-12.08
680.044	-12.08
680.074	13.92
680.105	20.92
680.135	6.92
680.165	13.92
680.196	-22.08
680.226	-6.08
680.257	19.92
680.287	11.92
680.318	-11.08
680.348	-13.08
680.379	9.92
680.409	0.92
680.439	-11.08
680.47	-3.08
680.5	-9.08
680.531	-9.08
680.561	-10.08
680.592	4.92
680.622	9.92
680.652	-22.08
680.683	10.92
680.713	6.92
680.744	-9.08
680.774	-5.08
680.804	3.92
680.835	-9.08
680.865	-22.08
680.896	21.92
680.926	2.92
680.956	-9.08
680.987	-13.08
681.017	-15.08
681.047	-15.08
681.078	-6.08
681.108	-10.08
681.139	5.92
681.169	-0.08
681.199	-9.08
681.23	-13.08
681.26	-19.08
681.29	-7.08
681.321	-22.08
681.351	1.92
681.381	-22.08
681.412	3.92
681.442	8.92
681.472	7.92
681.503	5.92
681.533	13.92
681.563	-3.08
681.594	-10.08
681.624	3.92
681.654	-8.08
681.685	-9.08
681.715	4.92
681.745	9.92
681.775	1.92
681.806	-4.08
681.836	-28.08
681.866	-19.08
681.897	-1.08
681.927	-16.08
681.957	-12.08
681.987	16.92
682.018	-12.08
682.048	-8.08
682.078	-15.08
682.109	5.92
682.139	12.92
682.169	0.92
682.199	-11.08
682.23	-8.08
682.26	2.92
682.29	-9.08
682.32	-19.08
682.351	-20.08
682.381	4.92
682.411	-15.08
682.441	-14.08
682.472	-13.08
682.502	-6.08
682.532	0.92
682.562	-6.08
682.592	7.92
682.623	6.92
682.653	3.92
682.683	0.92
682.713	9.92
682.743	4.92
682.774	-5.08
682.804	-3.08
682.834	3.92
682.864	-16.08
682.894	-12.08
682.925	-7.08
682.955	-15.08
682.985	-5.08
683.015	0.92
683.045	11.92
683.076	3.92
683.106	-0.08
683.136	-2.08
683.166	-8.08
683.196	-3.08
683.226	-5.08
683.257	-15.08
683.287	-4.08
683.317	-0.08
683.347	-13.08
683.377	-5.08
683.407	-3.08
683.437	-2.08
683.468	8.92
683.498	-19.08
683.528	-6.08
683.558	0.92
683.588	-3.08
683.618	-10.08
683.648	-8.08
683.678	-0.08
683.708	5.92
683.739	-8.08
683.769	-0.08
683.799	-8.08
683.829	-5.08
683.859	-7.08
683.889	-1.08
683.919	0.92
683.949	-5.08
683.979	-2.08
684.009	4.92
684.039	-3.08
684.07	-2.08
684.1	5.92
684.13	1.92
684.16	-7.08
684.19	0.92
684.22	0.92
684.25	-4.08
684.28	-8.08
684.31	12.92
684.34	3.92
684.37	-3.08
684.4	-1.08
684.43	-2.08
684.46	-5.08
684.49	4.92
684.52	-10.08
684.55	-1.08
684.58	-4.08
684.61	-15.08
684.64	6.92
684.67	7.92
684.7	1.92
684.73	-8.08
684.76	-13.08
684.79	24.92
684.82	-2.08
684.85	-3.08
684.88	-1.08
684.91	-2.08
684.94	-1.08
684.97	-15.08
685	-12.08
685.03	-17.08
685.06	-3.08
685.09	-24.08
685.12	9.92
685.15	-7.08
685.18	2.92
685.21	-14.08
685.24	-6.08
685.27	-4.08
685.3	-0.08
685.33	-11.08
685.36	5.92
685.39	-6.08
685.42	-18.08
685.45	3.92
685.48	3.92
685.51	-3.08
685.54	16.92
685.569	-5.08
685.599	-1.08
685.629	5.92
685.659	5.92
685.689	-4.08
685.719	1.92
685.749	6.92
685.779	6.92
685.809	4.92
685.839	-5.08
685.869	-3.08
685.898	-9.08
685.928	-13.08
685.958	-9.08
685.988	5.92
686.018	1.92
686.048	-7.08
686.078	-3.08
686.108	12.92
686.137	-10.08
686.167	-4.08
686.197	-17.08
686.227	-6.08
686.257	24.92
686.287	17.92
686.317	11.92
686.346	-12.08
686.376	-5.08
686.406	-15.08
686.436	8.92
686.466	-17.08
686.496	4.92
686.525	0.92
686.555	-3.08
686.585	5.92
686.615	32.92
686.645	1.92
686.675	0.92
686.704	-5.08
686.734	-5.08
686.764	-22.08
686.794	1.92
686.824	-8.08
686.853	11.92
686.883	13.92
686.913	2.92
686.943	-7.08
686.973	-5.08
687.002	-14.08
687.032	5.92
687.062	-6.08
687.092	13.92
687.121	-4.08
687.151	-4.08
687.181	-16.08
687.211	1.92
687.24	6.92
687.27	-3.08
687.3	-1.08
687.33	0.92
687.359	-14.08
687.389	-9.08
687.419	-9.08
687.449	-8.08
687.478	4.92
687.508	-12.08
687.538	4.92
687.568	6.92
687.597	-15.08
687.627	-1.08
687.657	-10.08
687.686	8.92
687.716	4.92
687.746	-15.08
687.776	-20.08
687.805	-8.08
687.835	-10.08
687.865	16.92
687.894	3.92
687.924	-2.08
687.954	-3.08
687.983	-8.08
688.013	-8.08
688.043	-5.08
688.072	-19.08
688.102	3.92
688.132	-5.08
688.161	-12.08
688.191	-14.08
688.221	11.92
688.25	-13.08
688.28	5.92
688.31	-2.08
688.339	-6.08
688.369	-11.08
688.399	-5.08
688.428	-13.08
688.458	-2.08
688.488	-7.08
688.517	9.92
688.547	1.92
688.576	16.92
688.606	1.92
688.636	-17.08
688.665	11.92
688.695	0.92
688.725	6.92
688.754	-0.08
688.784	-9.08
688.813	4.92
688.843	-3.08
688.873	-8.08
688.902	-21.08
688.932	-2.08
688.961	-16.08
688.991	10.92
689.02	-1.08
689.05	-2.08
689.08	3.92
689.109	-1.08
689.139	0.92
689.168	-4.08
689.198	-4.08
689.227	4.92
689.257	-2.08
689.287	-0.08
689.316	-3.08
689.346	-11.08
689.375	-8.08
689.405	14.92
689.434	-11.08
689.464	3.92
689.493	-9.08
689.523	-8.08
689.552	-20.08
689.582	-4.08
689.611	-18.08
689.641	0.92
689.67	1.92
689.7	0.92
689.73	9.92
689.759	8.92
689.789	-2.08
689.818	-7.08
689.848	-9.08
689.877	0.92
689.906	-4.08
689.936	-16.08
689.965	-0.08
689.995	-11.08
690.024	-4.08
690.054	-1.08
690.083	3.92
690.113	-6.08
690.142	-7.08
690.172	-0.08
690.201	11.92
690.231	-11.08
690.26	5.92
690.29	-0.08
690.319	-6.08
690.348	-28.08
690.378	-0.08
690.407	-5.08
690.437	-1.08
690.466	-7.08
690.496	-2.08
690.525	4.92
690.555	-2.08
690.584	-14.08
690.613	-13.08
690.643	1.92
690.672	6.92
690.702	5.92
690.731	4.92
690.76	13.92
690.79	62.92
690.819	39.92
690.849	27.92
690.878	22.92
690.907	8.92
690.937	14.92
690.966	13.92
690.996	-11.08
691.025	1.92
691.054	-11.08
691.084	-3.08
691.113	-9.08
691.142	10.92
691.172	1.92
691.201	-1.08
691.23	-11.08
691.26	7.92
691.289	-4.08
691.319	-7.08
691.348	-14.08
691.377	1.92
691.407	-10.08
691.436	-1.08
691.465	-0.08
691.495	3.92
691.524	-9.08
691.553	-6.08
691.583	-11.08
691.612	12.92
691.641	-1.08
691.67	-10.08
691.7	0.92
691.729	-10.08
691.758	2.92
691.788	-2.08
691.817	-17.08
691.846	-1.08
691.876	-12.08
691.905	-1.08
691.934	-1.08
691.963	5.92
691.993	4.92
692.022	-14.08
692.051	-7.08
692.081	8.92
692.11	19.92
692.139	-11.08
692.168	3.92
692.198	12.92
692.227	4.92
692.256	-8.08
692.285	-0.08
692.315	8.92
692.344	14.92
692.373	-6.08
692.402	-27.08
692.432	-20.08
692.461	-27.08
692.49	-19.08
692.519	-11.08
692.548	-4.08
692.578	2.92
692.607	-7.08
692.636	-6.08
692.665	9.92
692.694	0.92
692.724	-1.08
692.753	2.92
692.782	7.92
692.811	-3.08
692.84	-27.08
692.87	-10.08
692.899	1.92
692.928	-1.08
692.957	-3.08
692.986	-1.08
693.016	4.92
693.045	6.92
693.074	-3.08
693.103	3.92
693.132	1.92
693.161	8.92
693.191	-4.08
693.22	-14.08
693.249	6.92
693.278	-2.08
693.307	4.92
693.336	1.92
693.365	-25.08
693.395	-16.08
693.424	-8.08
693.453	18.92
693.482	6.92
693.511	-1.08
693.54	3.92
693.569	-6.08
693.598	17.92
693.628	-5.08
693.657	14.92
693.686	1.92
693.715	-3.08
693.744	4.92
693.773	16.92
693.802	-2.08
693.831	-18.08
693.86	16.92
693.889	-13.08
693.919	-6.08
693.948	2.92
693.977	8.92
694.006	-3.08
694.035	2.92
694.064	11.92
694.093	-8.08
694.122	-11.08
694.151	-3.08
694.18	-3.08
694.209	6.92
694.238	-3.08
694.267	15.92
694.296	13.92
694.325	2.92
694.354	8.92
694.383	-1.08
694.412	-1.08
694.441	-2.08
694.471	-2.08
694.5	-19.08
694.529	-0.08
694.558	4.92
694.587	21.92
694.616	-10.08
694.645	-5.08
694.674	14.92
694.703	-11.08
694.732	-3.08
694.761	5.92
694.79	-4.08
694.819	-23.08
694.848	3.92
694.877	13.92
694.906	15.92
694.935	0.92
694.963	20.92
694.992	-5.08
695.021	8.92
695.05	-5.08
695.079	0.92
695.108	7.92
695.137	16.92
695.166	11.92
695.195	3.92
695.224	1.92
695.253	-7.08
695.282	-12.08
695.311	-1.08
695.34	-5.08
695.369	-3.08
695.398	0.92
695.427	18.92
695.456	4.92
695.485	2.92
695.513	-0.08
695.542	-2.08
695.571	-1.08
695.6	21.92
695.629	2.92
695.658	1.92
695.687	5.92
695.716	-21.08
695.745	13.92
695.774	-30.08
695.802	-11.08
695.831	-10.08
695.86	-0.08
695.889	-3.08
695.918	1.92
695.947	2.92
695.976	-11.08
696.005	8.92
696.033	5.92
696.062	8.92
696.091	-10.08
696.12	5.92
696.149	13.92
696.178	1.92
696.207	9.92
696.235	-6.08
696.264	1.92
696.293	10.92
696.322	13.92
696.351	22.92
696.38	-10.08
696.408	-10.08
696.437	-5.08
696.466	3.92
696.495	12.92
696.524	0.92
696.553	5.92
696.581	11.92
696.61	-2.08
696.639	-13.08
696.668	-5.08
696.697	3.92
696.725	4.92
696.754	-3.08
696.783	-0.08
696.812	-1.08
696.84	-0.08
696.869	6.92
696.898	-6.08
696.927	1.92
696.956	15.92
696.984	-3.08
697.013	-0.08
697.042	11.92
697.071	1.92
697.099	10.92
697.128	6.92
697.157	-6.08
697.186	-7.08
697.214	-20.08
697.243	-0.08
697.272	-0.08
697.301	-3.08
697.329	-10.08
697.358	3.92
697.387	30.92
697.415	29.92
697.444	-6.08
697.473	-0.08
697.502	-14.08
697.53	-7.08
697.559	0.92
697.588	0.92
697.616	-3.08
697.645	-5.08
697.674	0.92
697.703	-10.08
697.731	7.92
697.76	3.92
697.789	2.92
697.817	5.92
697.846	9.92
697.875	-1.08
697.903	20.92
697.932	-7.08
697.961	11.92
697.989	8.92
698.018	18.92
698.047	11.92
698.075	1.92
698.104	9.92
698.133	3.92
698.161	-12.08
698.19	9.92
698.218	-6.08
698.247	11.92
698.276	-1.08
698.304	3.92
698.333	16.92
698.362	6.92
698.39	8.92
698.419	8.92
698.447	-5.08
698.476	0.92
698.505	5.92
698.533	0.92
698.562	7.92
698.591	-13.08
698.619	-14.08
698.648	1.92
698.676	-0.08
698.705	-5.08
698.733	-12.08
698.762	-9.08
698.791	-5.08
698.819	-2.08
698.848	-14.08
698.876	0.92
698.905	-2.08
698.933	6.92
698.962	15.92
698.991	-4.08
699.019	10.92
699.048	3.92
699.076	-14.08
699.105	-28.08
699.133	-5.08
699.162	8.92
699.19	10.92
699.219	-14.08
699.248	-5.08
699.276	-1.08
699.305	-14.08
699.333	7.92
699.362	-6.08
699.39	-9.08
699.419	-10.08
699.447	8.92
699.476	-2.08
699.504	-6.08
699.533	1.92
699.561	-23.08
699.59	-8.08
699.618	1.92
699.647	2.92
699.675	4.92
699.704	-8.08
699.732	8.92
699.761	5.92
699.789	0.92
699.818	6.92
699.846	-6.08
699.874	-9.08
699.903	-12.08
699.931	-14.08
699.96	-2.08
699.988	1.92
700.017	-3.08
700.045	-11.08
700.074	-16.08
700.102	1.92
700.13	-10.08
700.159	-1.08
700.187	-1.08
700.216	0.92
700.244	-13.08
700.273	-10.08
700.301	-5.08
700.329	-3.08
700.358	16.92
700.386	5.92
700.415	-14.08
700.443	-12.08
700.472	-16.08
700.5	1.92
700.528	20.92
700.557	11.92
700.585	-7.08
700.614	-9.08
700.642	-4.08
700.67	12.92
700.699	-8.08
700.727	-0.08
700.755	1.92
700.784	-8.08
700.812	-10.08
700.841	-4.08
700.869	4.92
700.897	-10.08
700.926	7.92
700.954	13.92
700.982	-7.08
701.011	-11.08
701.039	-0.08
701.067	-7.08
701.096	-8.08
701.124	-14.08
701.152	-7.08
701.181	-6.08
701.209	-34.08
701.237	-7.08
701.266	-9.08
701.294	-16.08
701.322	-1.08
701.351	5.92
701.379	-2.08
701.407	-2.08
701.435	-3.08
701.464	2.92
701.492	12.92
701.52	-6.08
701.549	3.92
701.577	-10.08
701.605	-10.08
701.634	4.92
701.662	7.92
701.69	-14.08
701.718	-4.08
701.747	12.92
701.775	-1.08
701.803	-7.08
701.831	15.92
701.86	-0.08
701.888	6.92
701.916	-11.08
701.944	-3.08
701.973	-19.08
702.001	-8.08
702.029	-14.08
702.057	13.92
702.086	-4.08
702.114	-14.08
702.142	0.92
702.17	-10.08
702.199	-3.08
702.227	-15.08
702.255	-7.08
702.283	-16.08
702.311	8.92
702.34	-7.08
702.368	-10.08
702.396	-7.08
702.424	-8.08
702.452	-6.08
702.481	-2.08
702.509	-10.08
702.537	1.92
702.565	1.92
702.593	-14.08
702.621	7.92
702.65	0.92
702.678	-1.08
702.706	2.92
702.734	-11.08
702.762	1.92
702.79	-4.08
702.819	8.92
702.847	-6.08
702.875	9.92
702.903	-4.08
702.931	-7.08
702.959	-3.08
702.988	-9.08
703.016	-11.08
703.044	2.92
703.072	-6.08
703.1	-6.08
703.128	-6.08
703.156	9.92
703.184	-9.08
703.212	-1.08
703.241	-5.08
703.269	-14.08
703.297	-21.08
703.325	4.92
703.353	-23.08
703.381	-24.08
703.409	9.92
703.437	1.92
703.465	-7.08
703.493	-6.08
703.522	7.92
703.55	-5.08
703.578	1.92
703.606	-21.08
703.634	-10.08
703.662	-12.08
703.69	4.92
703.718	11.92
703.746	11.92
703.774	-17.08
703.802	15.92
703.83	-22.08
703.858	-3.08
703.886	-9.08
703.914	-26.08
703.942	-14.08
703.97	-13.08
703.998	-12.08
704.027	11.92
704.055	-3.08
704.083	-14.08
704.111	-8.08
704.139	-11.08
704.167	-6.08
704.195	0.92
704.223	-9.08
704.251	-4.08
704.279	1.92
704.307	-4.08
704.335	-18.08
704.363	-10.08
704.391	-7.08
704.419	-17.08
704.447	-23.08
704.475	-1.08
704.503	-8.08
704.531	3.92
704.558	-1.08
704.586	13.92
704.614	-8.08
704.642	-18.08
704.67	-10.08
704.698	-6.08
704.726	-10.08
704.754	-8.08
704.782	-3.08
704.81	-9.08
704.838	16.92
704.866	13.92
704.894	-20.08
704.922	3.92
704.95	3.92
704.978	5.92
705.006	-2.08
705.034	6.92
705.061	2.92
705.089	-8.08
705.117	-3.08
705.145	-8.08
705.173	-3.08
705.201	4.92
705.229	11.92
705.257	-3.08
705.285	-2.08
705.313	18.92
705.34	-7.08
705.368	-9.08
705.396	-5.08
705.424	-7.08
705.452	-14.08
705.48	-2.08
705.508	-6.08
705.536	12.92
705.563	-10.08
705.591	0.92
705.619	0.92
705.647	-10.08
705.675	5.92
705.703	-9.08
705.731	-23.08
705.758	4.92
705.786	-10.08
705.814	6.92
705.842	-11.08
705.87	19.92
705.898	9.92
705.925	-0.08
705.953	12.92
705.981	-8.08
706.009	-1.08
706.037	-12.08
706.065	-8.08
706.092	-9.08
706.12	-3.08
706.148	-12.08
706.176	-10.08
706.204	20.92
706.231	4.92
706.259	-11.08
706.287	-15.08
706.315	-5.08
706.342	-14.08
706.37	10.92
706.398	-13.08
706.426	-8.08
706.454	-20.08
706.481	17.92
706.509	-5.08
706.537	-9.08
706.565	-15.08
706.592	-9.08
706.62	-7.08
706.648	0.92
706.676	-28.08
706.703	-11.08
706.731	-11.08
706.759	-3.08
706.787	5.92
706.814	-5.08
706.842	-22.08
706.87	-24.08
706.897	0.92
706.925	-11.08
706.953	23.92
706.981	13.92
707.008	4.92
707.036	-8.08
707.064	1.92
707.091	-21.08
707.119	9.92
707.147	-6.08
707.174	-11.08
707.202	-1.08
707.23	-13.08
707.258	-2.08
707.285	-20.08
707.313	-0.08
707.341	-14.08
707.368	-8.08
707.396	-16.08
707.424	17.92
707.451	0.92
707.479	-11.08
707.507	6.92
707.534	-18.08
707.562	-11.08
707.59	-11.08
707.617	-12.08
707.645	-0.08
707.672	-1.08
707.7	10.92
707.728	15.92
707.755	-4.08
707.783	3.92
707.811	-3.08
707.838	-11.08
707.866	17.92
707.893	-15.08
707.921	-0.08
707.949	-11.08
707.976	-10.08
708.004	-9.08
708.031	-22.08
708.059	-15.08
708.087	-11.08
708.114	-2.08
708.142	-3.08
708.169	-15.08
708.197	-24.08
708.225	-14.08
708.252	-1.08
708.28	-6.08
708.307	-9.08
708.335	12.92
708.362	8.92
708.39	-10.08
708.418	-0.08
708.445	-5.08
708.473	-6.08
708.5	-0.08
708.528	9.92
708.555	-5.08
708.583	-0.08
708.61	-22.08
708.638	-7.08
708.665	-12.08
708.693	-11.08
708.72	-20.08
708.748	-12.08
708.776	-10.08
708.803	-4.08
708.831	2.92
708.858	10.92
708.886	-11.08
708.913	0.92
708.941	-5.08
708.968	0.92
708.996	-15.08
709.023	23.92
709.051	-2.08
709.078	-17.08
709.105	-2.08
709.133	-12.08
709.16	3.92
709.188	9.92
709.215	11.92
709.243	-1.08
709.27	-1.08
709.298	-12.08
709.325	-9.08
709.353	-7.08
709.38	-1.08
709.408	-2.08
709.435	2.92
709.462	-11.08
709.49	-7.08
709.517	-18.08
709.545	-2.08
709.572	-18.08
709.6	-27.08
709.627	-15.08
709.655	-16.08
709.682	2.92
709.709	4.92
709.737	-6.08
709.764	-4.08
709.792	13.92
709.819	1.92
709.846	-8.08
709.874	0.92
709.901	9.92
709.929	7.92
709.956	3.92
709.983	-17.08
710.011	-5.08
710.038	2.92
710.066	-6.08
710.093	-8.08
710.12	-10.08
710.148	-5.08
710.175	-16.08
710.202	-8.08
710.23	-3.08
710.257	-14.08
710.284	-1.08
710.312	2.92
710.339	-4.08
710.366	-18.08
710.394	3.92
710.421	2.92
710.448	-19.08
710.476	-12.08
710.503	0.92
710.53	1.92
710.558	3.92
710.585	15.92
710.612	-18.08
710.64	-19.08
710.667	-10.08
710.694	-12.08
710.722	-5.08
710.749	-3.08
710.776	-18.08
710.804	1.92
710.831	-8.08
710.858	-9.08
710.885	-6.08
710.913	-7.08
710.94	2.92
710.967	0.92
710.995	-10.08
711.022	-3.08
711.049	3.92
711.076	0.92
711.104	2.92
711.131	-9.08
711.158	10.92
711.185	11.92
711.213	0.92
711.24	-9.08
711.267	-5.08
711.294	-1.08
711.322	13.92
711.349	3.92
711.376	-2.08
711.403	-0.08
711.431	-22.08
711.458	-4.08
711.485	-17.08
711.512	-0.08
711.54	-5.08
711.567	-0.08
711.594	-6.08
711.621	-15.08
711.648	-11.08
711.676	-3.08
711.703	-7.08
711.73	-9.08
711.757	2.92
711.784	4.92
711.812	-0.08
711.839	-11.08
711.866	-11.08
711.893	-17.08
711.92	11.92
711.947	10.92
711.975	13.92
712.002	-4.08
712.029	-0.08
712.056	-2.08
712.083	-10.08
712.11	-18.08
712.138	7.92
712.165	-5.08
712.192	-10.08
712.219	-10.08
712.246	-6.08
712.273	-10.08
712.3	-8.08
712.328	-14.08
712.355	8.92
712.382	-3.08
712.409	10.92
712.436	0.92
712.463	-0.08
712.49	12.92
712.517	-4.08
712.544	2.92
712.572	2.92
712.599	-13.08
712.626	-2.08
712.653	-6.08
712.68	-13.08
712.707	11.92
712.734	-5.08
712.761	-8.08
712.788	3.92
712.815	-1.08
712.842	10.92
712.87	-1.08
712.897	-13.08
712.924	-13.08
712.951	-4.08
712.978	13.92
713.005	13.92
713.032	9.92
713.059	6.92
713.086	4.92
713.113	-19.08
713.14	-28.08
713.167	2.92
713.194	7.92
713.221	-12.08
713.248	7.92
713.275	-10.08
713.302	-16.08
713.329	-13.08
713.356	-15.08
713.383	12.92
713.41	1.92
713.437	2.92
713.464	6.92
713.491	8.92
713.518	-4.08
713.545	-11.08
713.572	-15.08
713.599	-0.08
713.626	2.92
713.653	1.92
713.68	-6.08
713.707	-2.08
713.734	-11.08
713.761	7.92
713.788	-3.08
713.815	-0.08
713.842	-3.08
713.869	-3.08
713.896	4.92
713.923	-17.08
713.95	-10.08
713.977	-10.08
714.004	-9.08
714.031	-14.08
714.058	-13.08
714.085	-7.08
714.112	4.92
714.139	-1.08
714.165	-8.08
714.192	-3.08
714.219	5.92
714.246	-14.08
714.273	-6.08
714.3	-1.08
714.327	-1.08
714.354	11.92
714.381	-11.08
714.408	-6.08
714.435	-1.08
714.461	-7.08
714.488	-1.08
714.515	-8.08
714.542	-15.08
714.569	-7.08
714.596	-12.08
714.623	2.92
714.65	-6.08
714.677	-6.08
714.703	-0.08
714.73	-13.08
714.757	-7.08
714.784	0.92
714.811	-13.08
714.838	-10.08
714.865	-8.08
714.891	12.92
714.918	-8.08
714.945	-17.08
714.972	0.92
714.999	12.92
715.026	-13.08
715.052	11.92
715.079	-9.08
715.106	-5.08
715.133	5.92
715.16	-2.08
715.187	-10.08
715.213	15.92
715.24	-0.08
715.267	0.92
715.294	-7.08
715.321	-1.08
715.347	-3.08
715.374	-11.08
715.401	-12.08
715.428	-10.08
715.455	5.92
715.481	-7.08
715.508	-7.08
715.535	-11.08
715.562	11.92
715.588	1.92
715.615	-1.08
715.642	-10.08
715.669	13.92
715.695	-1.08
715.722	-14.08
715.749	-10.08
715.776	5.92
715.802	-4.08
715.829	-10.08
715.856	-12.08
715.883	-4.08
715.909	-5.08
715.936	-2.08
715.963	2.92
715.99	-9.08
716.016	-4.08
716.043	-6.08
716.07	-13.08
716.096	-16.08
716.123	-7.08
716.15	0.92
716.177	12.92
716.203	15.92
716.23	7.92
716.257	4.92
716.283	13.92
716.31	1.92
716.337	8.92
716.363	0.92
716.39	-7.08
716.417	-6.08
716.443	-12.08
716.47	0.92
716.497	2.92
716.523	8.92
716.55	6.92
716.577	5.92
716.603	4.92
716.63	-5.08
716.657	-3.08
716.683	-8.08
716.71	-0.08
716.737	-2.08
716.763	-1.08
716.79	-4.08
716.817	9.92
716.843	7.92
716.87	-8.08
716.897	-5.08
716.923	19.92
716.95	-2.08
716.976	-14.08
717.003	-6.08
717.03	-1.08
717.056	3.92
717.083	-5.08
717.109	-1.08
717.136	-3.08
717.163	-3.08
717.189	-2.08
717.216	-28.08
717.242	-10.08
717.269	0.92
717.296	2.92
717.322	-1.08
717.349	-4.08
717.375	-2.08
717.402	-8.08
717.428	1.92
717.455	9.92
717.481	-11.08
717.508	-2.08
717.535	12.92
717.561	-3.08
717.588	-21.08
717.614	-3.08
717.641	-8.08
717.667	-10.08
717.694	-0.08
717.72	-0.08
717.747	-3.08
717.773	-6.08
717.8	-2.08
717.826	-1.08
717.853	-17.08
717.88	-10.08
717.906	-8.08
717.933	-3.08
717.959	2.92
717.986	-4.08
718.012	-12.08
718.039	5.92
718.065	14.92
718.092	4.92
718.118	-3.08
718.144	-1.08
718.171	10.92
718.197	28.92
718.224	1.92
718.25	2.92
718.277	-5.08
718.303	-0.08
718.33	-5.08
718.356	-11.08
718.383	6.92
718.409	-7.08
718.436	-13.08
718.462	-18.08
718.489	-11.08
718.515	-4.08
718.541	0.92
718.568	0.92
718.594	-8.08
718.621	-9.08
718.647	-3.08
718.674	5.92
718.7	16.92
718.726	1.92
718.753	-2.08
718.779	11.92
718.806	-2.08
718.832	-15.08
718.858	-8.08
718.885	-14.08
718.911	-8.08
718.938	-2.08
718.964	-18.08
718.99	-1.08
719.017	4.92
719.043	-1.08
719.07	10.92
719.096	-0.08
719.122	5.92
719.149	-2.08
719.175	-0.08
719.201	-5.08
719.228	-13.08
719.254	-7.08
719.281	-7.08
719.307	3.92
719.333	-3.08
719.36	-1.08
719.386	-8.08
719.412	-5.08
719.439	-7.08
719.465	-10.08
719.491	-4.08
719.518	8.92
719.544	-8.08
719.57	3.92
719.597	-5.08
719.623	-2.08
719.649	-4.08
719.675	-7.08
719.702	-5.08
719.728	8.92
719.754	-11.08
719.781	2.92
719.807	-13.08
719.833	-12.08
719.86	-2.08
719.886	3.92
719.912	8.92
719.938	-11.08
719.965	-7.08
719.991	4.92
720.017	-9.08
720.044	-8.08
720.07	-4.08
720.096	9.92
720.122	7.92
720.149	12.92
720.175	24.92
720.201	0.92
720.227	-8.08
720.254	-5.08
720.28	0.92
720.306	-7.08
720.332	-1.08
720.359	4.92
720.385	0.92
720.411	0.92
720.437	7.92
720.463	-12.08
720.49	26.92
720.516	-12.08
720.542	-18.08
720.568	1.92
720.595	-1.08
720.621	4.92
720.647	-0.08
720.673	4.92
720.699	-7.08
720.725	8.92
720.752	2.92
720.778	5.92
720.804	11.92
720.83	0.92
720.856	-3.08
720.883	-28.08
720.909	-13.08
720.935	-1.08
720.961	7.92
720.987	5.92
721.013	1.92
721.04	-22.08
721.066	-20.08
721.092	-5.08
721.118	-7.08
721.144	-13.08
721.17	-17.08
721.196	-3.08
721.223	-5.08
721.249	-9.08
721.275	11.92
721.301	-6.08
721.327	1.92
721.353	17.92
721.379	-12.08
721.405	7.92
721.432	15.92
721.458	0.92
721.484	-9.08
721.51	-26.08
721.536	1.92
721.562	-0.08
721.588	-8.08
721.614	-0.08
721.64	-8.08
721.666	-13.08
721.693	-14.08
721.719	-4.08
721.745	-10.08
721.771	-4.08
721.797	8.92
721.823	3.92
721.849	-5.08
721.875	-5.08
721.901	4.92
721.927	-0.08
721.953	-2.08
721.979	12.92
722.005	2.92
722.031	-4.08
722.057	1.92
722.083	8.92
722.109	-12.08
722.135	5.92
722.161	20.92
722.187	0.92
722.214	-14.08
722.24	-20.08
722.266	-32.08
722.292	-7.08
722.318	-8.08
722.344	-3.08
722.37	5.92
722.396	8.92
722.422	-13.08
722.448	3.92
722.474	-3.08
722.5	-5.08
722.526	8.92
722.552	1.92
722.578	4.92
722.603	-0.08
722.629	-10.08
722.655	9.92
722.681	-7.08
722.707	-8.08
722.733	-10.08
722.759	-15.08
722.785	-9.08
722.811	-0.08
722.837	18.92
722.863	7.92
722.889	16.92
722.915	-3.08
722.941	-11.08
722.967	9.92
722.993	13.92
723.019	1.92
723.045	0.92
723.071	-6.08
723.097	-6.08
723.122	-7.08
723.148	-4.08
723.174	-18.08
723.2	-5.08
723.226	4.92
723.252	-0.08
723.278	-4.08
723.304	-7.08
723.33	10.92
723.356	-14.08
723.381	-18.08
723.407	-16.08
723.433	4.92
723.459	-14.08
723.485	-12.08
723.511	-2.08
723.537	-13.08
723.563	4.92
723.588	21.92
723.614	13.92
723.64	-3.08
723.666	-11.08
723.692	12.92
723.718	-3.08
723.744	-0.08
723.769	-5.08
723.795	-6.08
723.821	-4.08
723.847	-4.08
723.873	3.92
723.899	-4.08
723.924	-14.08
723.95	5.92
723.976	-12.08
724.002	0.92
724.028	4.92
724.053	-4.08
724.079	-10.08
724.105	-22.08
724.131	-15.08
724.157	-0.08
724.182	2.92
724.208	-2.08
724.234	-7.08
724.26	-24.08
724.286	0.92
724.311	-3.08
724.337	-15.08
724.363	-40.08
724.389	-18.08
724.415	-15.08
724.44	21.92
724.466	-9.08
724.492	8.92
724.518	4.92
724.543	-11.08
724.569	5.92
724.595	14.92
724.621	-14.08
724.646	-11.08
724.672	5.92
724.698	-12.08
724.723	-5.08
724.749	-7.08
724.775	-1.08
724.801	2.92
724.826	-3.08
724.852	-6.08
724.878	-13.08
724.904	-4.08
724.929	3.92
724.955	-15.08
724.981	3.92
725.006	4.92
725.032	-21.08
725.058	-10.08
725.083	3.92
725.109	-6.08
725.135	11.92
725.161	-8.08
725.186	-6.08
725.212	-11.08
725.238	4.92
725.263	4.92
725.289	-13.08
725.315	-15.08
725.34	-0.08
725.366	-12.08
725.392	-5.08
725.417	-8.08
725.443	-15.08
725.468	-6.08
725.494	-6.08
725.52	-3.08
725.545	-7.08
725.571	-6.08
725.597	-6.08
725.622	1.92
725.648	1.92
725.674	0.92
725.699	-10.08
725.725	-12.08
725.75	16.92
725.776	-5.08
725.802	-4.08
725.827	1.92
725.853	8.92
725.878	3.92
725.904	-3.08
725.93	2.92
725.955	-11.08
725.981	-11.08
726.006	-7.08
726.032	5.92
726.057	-12.08
726.083	-9.08
726.109	10.92
726.134	0.92
726.16	-2.08
726.185	-10.08
726.211	-26.08
726.236	-5.08
726.262	-6.08
726.288	1.92
726.313	15.92
726.339	6.92
726.364	0.92
726.39	0.92
726.415	-3.08
726.441	-5.08
726.466	-4.08
726.492	7.92
726.517	-2.08
726.543	8.92
726.568	-13.08
726.594	-9.08
726.619	-3.08
726.645	-11.08
726.67	-12.08
726.696	7.92
726.721	-6.08
726.747	-10.08
726.772	-11.08
726.798	-0.08
726.823	15.92
726.849	-12.08
726.874	5.92
726.9	19.92
726.925	-3.08
726.951	-0.08
726.976	7.92
727.002	1.92
727.027	1.92
727.053	-0.08
727.078	-9.08
727.104	-13.08
727.129	-15.08
727.155	-17.08
727.18	15.92
727.205	2.92
727.231	-4.08
727.256	3.92
727.282	-14.08
727.307	-8.08
727.333	-8.08
727.358	-4.08
727.383	-2.08
727.409	-3.08
727.434	-2.08
727.46	-11.08
727.485	-15.08
727.511	-4.08
727.536	-16.08
727.561	-8.08
727.587	-8.08
727.612	-4.08
727.637	-11.08
727.663	-6.08
727.688	17.92
727.714	0.92
727.739	2.92
727.764	-2.08
727.79	-3.08
727.815	2.92
727.841	1.92
727.866	-8.08
727.891	8.92
727.917	-3.08
727.942	-10.08
727.967	-4.08
727.993	-18.08
728.018	-2.08
728.043	13.92
728.069	-1.08
728.094	5.92
728.119	-21.08
728.145	3.92
728.17	-7.08
728.195	6.92
728.221	20.92
728.246	-6.08
728.271	-18.08
728.297	-0.08
728.322	1.92
728.347	-2.08
728.373	-4.08
728.398	-9.08
728.423	-5.08
728.448	-2.08
728.474	9.92
728.499	14.92
728.524	-12.08
728.55	-5.08
728.575	-7.08
728.6	0.92
728.625	-6.08
728.651	4.92
728.676	-14.08
728.701	3.92
728.727	-0.08
728.752	4.92
728.777	-1.08
728.802	-2.08
728.828	5.92
728.853	-12.08
728.878	-10.08
728.903	-4.08
728.929	-12.08
728.954	-30.08
728.979	-21.08
729.004	-7.08
729.03	-1.08
729.055	7.92
729.08	-27.08
729.105	-15.08
729.13	13.92
729.156	-1.08
729.181	-1.08
729.206	-30.08
729.231	0.92
729.256	15.92
729.282	9.92
729.307	-23.08
729.332	-6.08
729.357	2.92
729.382	2.92
729.408	-5.08
729.433	-6.08
729.458	8.92
729.483	4.92
729.508	16.92
729.533	-5.08
729.559	1.92
729.584	-15.08
729.609	-6.08
729.634	-10.08
729.659	-3.08
729.684	-2.08
729.71	5.92
729.735	8.92
729.76	-5.08
729.785	9.92
729.81	7.92
729.835	-3.08
729.86	-6.08
729.886	0.92
729.911	14.92
729.936	5.92
729.961	28.92
729.986	21.92
730.011	75.92
730.036	205.92
730.061	1016.92
730.086	2744.92
730.112	3403.92
730.137	2868.92
730.162	2144.92
730.187	1665.92
730.212	1245.92
730.237	803.92
730.262	468.92
730.287	233.92
730.312	134.92
730.337	72.92
730.362	57.92
730.387	34.92
730.413	11.92
730.438	5.92
730.463	24.92
730.488	-3.08
730.513	5.92
730.538	-1.08
730.563	13.92
730.588	20.92
730.613	15.92
730.638	4.92
730.663	-0.08
730.688	12.92
730.713	4.92
730.738	-6.08
730.763	1.92
730.788	-13.08
730.813	13.92
730.838	0.92
730.863	14.92
730.888	-7.08
730.913	-6.08
730.938	-17.08
730.963	7.92
730.988	111.92
731.013	411.92
731.038	616.92
731.063	598.92
731.088	463.92
731.113	349.92
731.138	254.92
731.163	187.92
731.188	100.92
731.213	70.92
731.238	30.92
731.263	7.92
731.288	11.92
731.313	14.92
731.338	-0.08
731.363	-1.08
731.388	-10.08
731.413	-7.08
731.438	3.92
731.463	-2.08
731.487	0.92
731.512	-11.08
731.537	-17.08
731.562	1.92
731.587	3.92
731.612	-5.08
731.637	3.92
731.662	1.92
731.687	-0.08
731.712	-18.08
731.737	-3.08
731.762	-0.08
731.786	2.92
731.811	-12.08
731.836	-7.08
731.861	-3.08
731.886	-7.08
731.911	-16.08
731.936	-17.08
731.961	-6.08
731.986	-6.08
732.01	14.92
732.035	-9.08
732.06	1.92
732.085	-8.08
732.11	-3.08
732.135	-13.08
732.16	-0.08
732.184	-6.08
732.209	-15.08
732.234	1.92
732.259	-3.08
732.284	14.92
732.309	-0.08
732.334	-8.08
732.358	-9.08
732.383	-22.08
732.408	-13.08
732.433	-8.08
732.458	-19.08
732.482	-5.08
732.507	-10.08
732.532	0.92
732.557	11.92
732.582	-6.08
732.607	20.92
732.631	48.92
732.656	67.92
732.681	128.92
732.706	320.92
732.73	416.92
732.755	385.92
732.78	293.92
732.805	227.92
732.83	180.92
732.854	104.92
732.879	73.92
732.904	42.92
732.929	21.92
732.953	11.92
732.978	1.92
733.003	-0.08
733.028	0.92
733.052	16.92
733.077	3.92
733.102	-8.08
733.127	-13.08
733.151	-6.08
733.176	5.92
733.201	-8.08
733.226	-4.08
733.25	-10.08
733.275	-11.08
733.3	-7.08
733.324	9.92
733.349	1.92
733.374	2.92
733.399	6.92
733.423	4.92
733.448	-15.08
733.473	-3.08
733.497	2.92
733.522	-2.08
733.547	10.92
733.571	1.92
733.596	-11.08
733.621	0.92
733.646	-3.08
733.67	9.92
733.695	-16.08
733.72	5.92
733.744	2.92
733.769	-11.08
733.794	14.92
733.818	1.92
733.843	-16.08
733.867	-19.08
733.892	-16.08
733.917	-21.08
733.941	-3.08
733.966	-7.08
733.991	-23.08
734.015	7.92
734.04	-2.08
734.065	-3.08
734.089	11.92
734.114	-9.08
734.138	8.92
734.163	-23.08
734.188	-1.08
734.212	8.92
734.237	6.92
734.261	2.92
734.286	-0.08
734.311	-20.08
734.335	-11.08
734.36	-5.08
734.384	-12.08
734.409	-8.08
734.434	-12.08
734.458	-9.08
734.483	9.92
734.507	0.92
734.532	4.92
734.556	9.92
734.581	-10.08
734.606	-16.08
734.63	-23.08
734.655	0.92
734.679	-1.08
734.704	-4.08
734.728	-8.08
734.753	3.92
734.777	8.92
734.802	-12.08
734.826	3.92
734.851	-10.08
734.876	-6.08
734.9	3.92
734.925	4.92
734.949	9.92
734.974	-19.08
734.998	-5.08
735.023	-5.08
735.047	-9.08
735.072	11.92
735.096	-16.08
735.121	-3.08
735.145	5.92
735.17	-2.08
735.194	-15.08
735.219	-10.08
735.243	-19.08
735.268	-8.08
735.292	8.92
735.317	3.92
735.341	4.92
735.365	0.92
735.39	9.92
735.414	-4.08
735.439	-1.08
735.463	-7.08
735.488	0.92
735.512	-7.08
735.537	-4.08
735.561	-14.08
735.586	-0.08
735.61	-8.08
735.634	-3.08
735.659	12.92
735.683	14.92
735.708	-16.08
735.732	-16.08
735.757	-14.08
735.781	0.92
735.805	-5.08
735.83	-7.08
735.854	-4.08
735.879	-3.08
735.903	10.92
735.927	8.92
735.952	-1.08
735.976	-10.08
736.001	-7.08
736.025	1.92
736.049	-1.08
736.074	-2.08
736.098	5.92
736.123	-0.08
736.147	-5.08
736.171	-10.08
736.196	-10.08
736.22	-15.08
736.244	-9.08
736.269	-11.08
736.293	-10.08
736.317	2.92
736.342	8.92
736.366	31.92
736.39	2.92
736.415	-10.08
736.439	-8.08
736.463	10.92
736.488	-0.08
736.512	0.92
736.536	-6.08
736.561	17.92
736.585	-10.08
736.609	-3.08
736.634	-9.08
736.658	-7.08
736.682	-19.08
736.707	-22.08
736.731	-24.08
736.755	5.92
736.78	6.92
736.804	3.92
736.828	16.92
736.852	-4.08
736.877	-4.08
736.901	1.92
736.925	-8.08
736.949	-8.08
736.974	-4.08
736.998	-0.08
737.022	3.92
737.047	-12.08
737.071	-6.08
737.095	-0.08
737.119	20.92
737.144	10.92
737.168	-14.08
737.192	-16.08
737.216	0.92
737.241	-22.08
737.265	-12.08
737.289	-6.08
737.313	-15.08
737.337	-0.08
737.362	-5.08
737.386	-2.08
737.41	-6.08
737.434	2.92
737.459	8.92
737.483	-9.08
737.507	2.92
737.531	-3.08
737.555	-3.08
737.58	7.92
737.604	7.92
737.628	-8.08
737.652	-6.08
737.676	-7.08
737.701	-6.08
737.725	-2.08
737.749	6.92
737.773	9.92
737.797	-8.08
737.821	-15.08
737.846	-9.08
737.87	19.92
737.894	1.92
737.918	-20.08
737.942	-14.08
737.966	1.92
737.99	7.92
738.015	-7.08
738.039	-8.08
738.063	-2.08
738.087	0.92
738.111	-14.08
738.135	-4.08
738.159	-17.08
738.184	-14.08
738.208	2.92
738.232	2.92
738.256	8.92
738.28	-3.08
738.304	20.92
738.328	-7.08
738.352	7.92
738.376	-12.08
738.4	12.92
738.425	-4.08
738.449	-13.08
738.473	8.92
738.497	6.92
738.521	-5.08
738.545	2.92
738.569	8.92
738.593	10.92
738.617	17.92
738.641	-4.08
738.665	-16.08
738.689	0.92
738.713	-3.08
738.737	-1.08
738.762	17.92
738.786	0.92
738.81	-14.08
738.834	22.92
738.858	-5.08
738.882	-24.08
738.906	-15.08
738.93	7.92
738.954	-7.08
738.978	5.92
739.002	7.92
739.026	6.92
739.05	-15.08
739.074	-8.08
739.098	16.92
739.122	5.92
739.146	-1.08
739.17	19.92
739.194	-6.08
739.218	-8.08
739.242	-4.08
739.266	-3.08
739.29	-3.08
739.314	8.92
739.338	-5.08
739.362	-12.08
739.386	-10.08
739.41	-7.08
739.434	-6.08
739.458	8.92
739.482	4.92
739.506	14.92
739.53	-15.08
739.554	-0.08
739.577	-15.08
739.601	4.92
739.625	-13.08
739.649	-18.08
739.673	-4.08
739.697	2.92
739.721	-14.08
739.745	9.92
739.769	4.92
739.793	4.92
739.817	-0.08
739.841	-15.08
739.865	-8.08
739.889	-4.08
739.912	8.92
739.936	5.92
739.96	3.92
739.984	2.92
740.008	-2.08
740.032	-27.08
740.056	-2.08
740.08	-7.08
740.104	-11.08
740.127	4.92
740.151	6.92
740.175	7.92
740.199	0.92
740.223	68.92
740.247	10.92
740.271	7.92
740.295	2.92
740.318	-17.08
740.342	-13.08
740.366	-8.08
740.39	0.92
740.414	1.92
740.438	-6.08
740.461	20.92
740.485	-3.08
740.509	-3.08
740.533	-9.08
740.557	-11.08
740.581	-11.08
740.604	-20.08
740.628	8.92
740.652	-1.08
740.676	-6.08
740.7	11.92
740.723	-2.08
740.747	-9.08
740.771	-12.08
740.795	-2.08
740.819	2.92
740.842	-8.08
740.866	4.92
740.89	4.92
740.914	-11.08
740.938	-7.08
740.961	-0.08
740.985	-8.08
741.009	13.92
741.033	1.92
741.056	-3.08
741.08	-23.08
741.104	-14.08
741.128	1.92
741.151	-6.08
741.175	-2.08
741.199	3.92
741.223	2.92
741.246	-29.08
741.27	6.92
741.294	4.92
741.318	-15.08
741.341	-18.08
741.365	1.92
741.389	-9.08
741.413	12.92
741.436	11.92
741.46	-5.08
741.484	-3.08
741.507	1.92
741.531	15.92
741.555	12.92
741.579	-10.08
741.602	-10.08
741.626	-4.08
741.65	-4.08
741.673	-5.08
741.697	17.92
741.721	19.92
741.744	-21.08
741.768	-10.08
741.792	2.92
741.815	-7.08
741.839	0.92
741.863	-1.08
741.886	1.92
741.91	5.92
741.934	-5.08
741.957	-14.08
741.981	-4.08
742.005	-10.08
742.028	-21.08
742.052	-6.08
742.075	3.92
742.099	3.92
742.123	11.92
742.146	-7.08
742.17	-5.08
742.194	-13.08
742.217	-0.08
742.241	-7.08
742.264	-4.08
742.288	6.92
742.312	-1.08
742.335	-7.08
742.359	9.92
742.382	13.92
742.406	12.92
742.43	-15.08
742.453	-4.08
742.477	-23.08
742.5	-10.08
742.524	-3.08
742.548	5.92
742.571	-5.08
742.595	-0.08
742.618	-0.08
742.642	-12.08
742.665	-2.08
742.689	-12.08
742.712	-2.08
742.736	7.92
742.76	-5.08
742.783	-9.08
742.807	-0.08
742.83	4.92
742.854	-6.08
742.877	-19.08
742.901	-3.08
742.924	-5.08
742.948	3.92
742.971	-2.08
742.995	-4.08
743.018	-7.08
743.042	-16.08
743.065	-5.08
743.089	0.92
743.112	1.92
743.136	-14.08
743.159	-5.08
743.183	-9.08
743.206	-7.08
743.23	-18.08
743.253	5.92
743.277	2.92
743.3	-4.08
743.324	-7.08
743.347	-12.08
743.371	-1.08
743.394	9.92
743.418	20.92
743.441	8.92
743.465	-0.08
743.488	-5.08
743.512	-19.08
743.535	-8.08
743.558	3.92
743.582	1.92
743.605	21.92
743.629	16.92
743.652	6.92
743.676	-8.08
743.699	-5.08
743.723	10.92
743.746	9.92
743.769	-2.08
743.793	2.92
743.816	-0.08
743.84	11.92
743.863	-10.08
743.886	8.92
743.91	11.92
743.933	5.92
743.957	-6.08
743.98	0.92
744.003	-1.08
744.027	-15.08
744.05	-5.08
744.074	7.92
744.097	-3.08
744.12	-19.08
744.144	-18.08
744.167	1.92
744.19	2.92
744.214	2.92
744.237	-8.08
744.26	-6.08
744.284	2.92
744.307	-4.08
744.331	-1.08
744.354	-21.08
744.377	-8.08
744.401	-12.08
744.424	-8.08
744.447	-11.08
744.471	-7.08
