Data from HighRes_mercury_15_13_11_07_2024_HR4C61891__46__15-14-27-786.txt Node

Date: Thu Nov 07 15:14:27 EST 2024
User: crc00042
Spectrometer: HR4C6189
Trigger mode: 4
Integration Time (sec): 1.000000E-1
Scans to average: 1
Electric dark correction enabled: true
Nonlinearity correction enabled: false
Boxcar width: 0
XAxis mode: Wavelengths
Number of Pixels in Spectrum: 3648
>>>>>Begin Spectral Data<<<<<
639.567	-71.54
639.602	-71.54
639.636	-71.54
639.67	-37.54
639.704	-26.54
639.738	3.46
639.773	6.46
639.807	-15.54
639.841	3.46
639.875	9.46
639.909	4.46
639.943	-2.54
639.978	0.46
640.012	2.46
640.046	15.46
640.08	0.46
640.114	-2.54
640.148	-25.54
640.182	1.46
640.217	3.46
640.251	13.46
640.285	-10.54
640.319	-6.54
640.353	1.46
640.387	-1.54
640.421	-4.54
640.455	-2.54
640.49	4.46
640.524	3.46
640.558	14.46
640.592	6.46
640.626	-2.54
640.66	3.46
640.694	4.46
640.728	2.46
640.762	8.46
640.796	15.46
640.83	7.46
640.865	-19.54
640.899	-7.54
640.933	5.46
640.967	9.46
641.001	4.46
641.035	5.46
641.069	3.46
641.103	-2.54
641.137	-17.54
641.171	-14.54
641.205	22.46
641.239	7.46
641.273	22.46
641.307	21.46
641.341	1.46
641.375	-12.54
641.409	-3.54
641.443	-2.54
641.477	3.46
641.511	7.46
641.545	-0.54
641.579	-0.54
641.614	11.46
641.648	7.46
641.682	-18.54
641.716	-1.54
641.75	23.46
641.784	-9.54
641.818	3.46
641.852	8.46
641.886	-6.54
641.919	16.46
641.953	11.46
641.987	-13.54
642.021	-4.54
642.055	13.46
642.089	2.46
642.123	-5.54
642.157	-3.54
642.191	2.46
642.225	2.46
642.259	-9.54
642.293	-0.54
642.327	11.46
642.361	-14.54
642.395	4.46
642.429	-10.54
642.463	4.46
642.497	20.46
642.531	-5.54
642.565	-1.54
642.599	20.46
642.633	-3.54
642.666	16.46
642.7	15.46
642.734	14.46
642.768	-2.54
642.802	-1.54
642.836	15.46
642.87	2.46
642.904	-0.54
642.938	8.46
642.972	2.46
643.005	1.46
643.039	8.46
643.073	5.46
643.107	16.46
643.141	14.46
643.175	24.46
643.209	-2.54
643.243	7.46
643.276	1.46
643.31	5.46
643.344	8.46
643.378	-3.54
643.412	8.46
643.446	12.46
643.48	-2.54
643.513	1.46
643.547	-0.54
643.581	-15.54
643.615	4.46
643.649	5.46
643.683	4.46
643.716	7.46
643.75	-0.54
643.784	-12.54
643.818	1.46
643.852	7.46
643.886	6.46
643.919	13.46
643.953	-0.54
643.987	-4.54
644.021	13.46
644.055	4.46
644.088	3.46
644.122	1.46
644.156	3.46
644.19	-1.54
644.224	2.46
644.257	-1.54
644.291	19.46
644.325	-0.54
644.359	-15.54
644.392	19.46
644.426	9.46
644.46	-3.54
644.494	3.46
644.527	-13.54
644.561	0.46
644.595	12.46
644.629	3.46
644.662	-4.54
644.696	13.46
644.73	3.46
644.764	4.46
644.797	-4.54
644.831	8.46
644.865	11.46
644.899	0.46
644.932	18.46
644.966	5.46
645	0.46
645.033	2.46
645.067	-7.54
645.101	-1.54
645.135	-7.54
645.168	2.46
645.202	2.46
645.236	-0.54
645.269	-6.54
645.303	1.46
645.337	1.46
645.37	-13.54
645.404	-4.54
645.438	-0.54
645.471	-5.54
645.505	-3.54
645.539	-3.54
645.572	-8.54
645.606	1.46
645.64	4.46
645.673	7.46
645.707	23.46
645.741	-12.54
645.774	-20.54
645.808	-11.54
645.842	-18.54
645.875	14.46
645.909	-10.54
645.943	-13.54
645.976	-9.54
646.01	17.46
646.043	1.46
646.077	10.46
646.111	-1.54
646.144	14.46
646.178	9.46
646.212	-17.54
646.245	-13.54
646.279	0.46
646.312	16.46
646.346	21.46
646.38	-6.54
646.413	10.46
646.447	8.46
646.48	2.46
646.514	5.46
646.547	-2.54
646.581	0.46
646.615	5.46
646.648	-10.54
646.682	3.46
646.715	2.46
646.749	-10.54
646.782	8.46
646.816	-1.54
646.85	16.46
646.883	-11.54
646.917	-7.54
646.95	10.46
646.984	4.46
647.017	-9.54
647.051	11.46
647.084	2.46
647.118	-11.54
647.151	-7.54
647.185	0.46
647.218	4.46
647.252	17.46
647.285	-10.54
647.319	-12.54
647.353	6.46
647.386	33.46
647.42	7.46
647.453	4.46
647.487	8.46
647.52	12.46
647.553	4.46
647.587	10.46
647.62	-8.54
647.654	8.46
647.687	-2.54
647.721	8.46
647.754	15.46
647.788	7.46
647.821	5.46
647.855	16.46
647.888	16.46
647.922	6.46
647.955	-11.54
647.989	-5.54
648.022	2.46
648.055	16.46
648.089	-5.54
648.122	34.46
648.156	0.46
648.189	4.46
648.223	-3.54
648.256	30.46
648.29	17.46
648.323	-12.54
648.356	17.46
648.39	9.46
648.423	-3.54
648.457	4.46
648.49	5.46
648.523	1.46
648.557	-1.54
648.59	0.46
648.624	-2.54
648.657	0.46
648.69	5.46
648.724	4.46
648.757	16.46
648.791	2.46
648.824	8.46
648.857	16.46
648.891	4.46
648.924	7.46
648.957	9.46
648.991	-1.54
649.024	5.46
649.057	-4.54
649.091	-26.54
649.124	-1.54
649.158	8.46
649.191	19.46
649.224	10.46
649.258	4.46
649.291	20.46
649.324	0.46
649.358	2.46
649.391	-0.54
649.424	4.46
649.458	-4.54
649.491	-2.54
649.524	-17.54
649.557	6.46
649.591	-25.54
649.624	11.46
649.657	6.46
649.691	21.46
649.724	11.46
649.757	-2.54
649.791	-18.54
649.824	18.46
649.857	4.46
649.89	3.46
649.924	-10.54
649.957	-7.54
649.99	-7.54
650.023	-4.54
650.057	-3.54
650.09	-5.54
650.123	-6.54
650.157	11.46
650.19	14.46
650.223	2.46
650.256	-26.54
650.29	-19.54
650.323	13.46
650.356	6.46
650.389	-10.54
650.423	-14.54
650.456	2.46
650.489	7.46
650.522	-7.54
650.555	23.46
650.589	4.46
650.622	-0.54
650.655	9.46
650.688	13.46
650.721	10.46
650.755	-1.54
650.788	20.46
650.821	-3.54
650.854	-5.54
650.887	-10.54
650.921	4.46
650.954	3.46
650.987	5.46
651.02	-11.54
651.053	-11.54
651.087	4.46
651.12	25.46
651.153	7.46
651.186	7.46
651.219	-0.54
651.252	1.46
651.286	4.46
651.319	-1.54
651.352	-6.54
651.385	-1.54
651.418	0.46
651.451	16.46
651.484	3.46
651.518	-9.54
651.551	23.46
651.584	-8.54
651.617	5.46
651.65	-5.54
651.683	16.46
651.716	4.46
651.749	-1.54
651.783	-20.54
651.816	-5.54
651.849	13.46
651.882	20.46
651.915	-14.54
651.948	2.46
651.981	1.46
652.014	-18.54
652.047	-18.54
652.08	-11.54
652.114	-7.54
652.147	4.46
652.18	12.46
652.213	35.46
652.246	-12.54
652.279	0.46
652.312	13.46
652.345	0.46
652.378	16.46
652.411	12.46
652.444	8.46
652.477	-7.54
652.51	-2.54
652.543	-17.54
652.576	0.46
652.609	-14.54
652.642	-0.54
652.675	4.46
652.709	-12.54
652.742	0.46
652.775	1.46
652.808	5.46
652.841	-6.54
652.874	1.46
652.907	0.46
652.94	-7.54
652.973	-24.54
653.006	-10.54
653.039	-2.54
653.072	7.46
653.105	-4.54
653.138	-21.54
653.171	-0.54
653.204	-1.54
653.237	-3.54
653.27	-7.54
653.303	3.46
653.336	8.46
653.368	-3.54
653.401	-1.54
653.434	-23.54
653.467	12.46
653.5	-7.54
653.533	-12.54
653.566	5.46
653.599	-10.54
653.632	-5.54
653.665	-11.54
653.698	-18.54
653.731	-10.54
653.764	12.46
653.797	6.46
653.83	6.46
653.863	-14.54
653.896	-13.54
653.929	0.46
653.961	4.46
653.994	-2.54
654.027	-2.54
654.06	6.46
654.093	-0.54
654.126	-3.54
654.159	-1.54
654.192	5.46
654.225	4.46
654.258	-4.54
654.29	-3.54
654.323	-10.54
654.356	-7.54
654.389	-8.54
654.422	-12.54
654.455	6.46
654.488	-10.54
654.521	-20.54
654.553	-19.54
654.586	4.46
654.619	4.46
654.652	-14.54
654.685	14.46
654.718	-14.54
654.751	-8.54
654.783	-4.54
654.816	12.46
654.849	4.46
654.882	-6.54
654.915	-13.54
654.948	-9.54
654.98	-6.54
655.013	-4.54
655.046	-3.54
655.079	-6.54
655.112	-6.54
655.144	-8.54
655.177	1.46
655.21	11.46
655.243	16.46
655.276	-3.54
655.308	3.46
655.341	-5.54
655.374	11.46
655.407	4.46
655.44	4.46
655.472	2.46
655.505	-3.54
655.538	4.46
655.571	19.46
655.603	-16.54
655.636	-6.54
655.669	-14.54
655.702	-16.54
655.734	-7.54
655.767	-18.54
655.8	-6.54
655.833	-7.54
655.865	0.46
655.898	-1.54
655.931	4.46
655.964	9.46
655.996	1.46
656.029	9.46
656.062	-3.54
656.095	-21.54
656.127	-22.54
656.16	-6.54
656.193	-4.54
656.225	4.46
656.258	6.46
656.291	9.46
656.324	3.46
656.356	-3.54
656.389	0.46
656.422	6.46
656.454	-8.54
656.487	3.46
656.52	-8.54
656.552	-7.54
656.585	-4.54
656.618	10.46
656.65	9.46
656.683	3.46
656.716	13.46
656.748	1.46
656.781	-9.54
656.814	-7.54
656.846	-3.54
656.879	-6.54
656.912	3.46
656.944	-24.54
656.977	-14.54
657.01	-2.54
657.042	3.46
657.075	7.46
657.108	-2.54
657.14	2.46
657.173	17.46
657.205	13.46
657.238	-7.54
657.271	-2.54
657.303	0.46
657.336	11.46
657.369	19.46
657.401	2.46
657.434	-12.54
657.466	0.46
657.499	-15.54
657.532	-0.54
657.564	11.46
657.597	2.46
657.629	12.46
657.662	12.46
657.694	-1.54
657.727	-22.54
657.76	3.46
657.792	-4.54
657.825	-12.54
657.857	-4.54
657.89	-14.54
657.922	9.46
657.955	-6.54
657.987	-3.54
658.02	28.46
658.053	15.46
658.085	-11.54
658.118	-0.54
658.15	15.46
658.183	20.46
658.215	5.46
658.248	7.46
658.28	-4.54
658.313	9.46
658.345	7.46
658.378	-6.54
658.41	-10.54
658.443	22.46
658.475	-10.54
658.508	-4.54
658.54	8.46
658.573	-7.54
658.605	10.46
658.638	-3.54
658.67	-1.54
658.703	7.46
658.735	-7.54
658.768	12.46
658.8	-18.54
658.833	11.46
658.865	1.46
658.898	2.46
658.93	-14.54
658.963	0.46
658.995	-19.54
659.028	-6.54
659.06	8.46
659.092	3.46
659.125	0.46
659.157	11.46
659.19	-12.54
659.222	11.46
659.255	9.46
659.287	-3.54
659.32	-8.54
659.352	7.46
659.384	20.46
659.417	3.46
659.449	7.46
659.482	14.46
659.514	-3.54
659.546	9.46
659.579	-25.54
659.611	9.46
659.644	7.46
659.676	-15.54
659.708	-27.54
659.741	-22.54
659.773	0.46
659.806	-9.54
659.838	-9.54
659.87	-4.54
659.903	7.46
659.935	5.46
659.967	10.46
660	4.46
660.032	-26.54
660.065	13.46
660.097	6.46
660.129	-11.54
660.162	-13.54
660.194	13.46
660.226	1.46
660.259	4.46
660.291	1.46
660.323	-12.54
660.356	-2.54
660.388	-1.54
660.42	-0.54
660.453	2.46
660.485	0.46
660.517	13.46
660.55	12.46
660.582	15.46
660.614	4.46
660.647	-3.54
660.679	-14.54
660.711	0.46
660.743	-13.54
660.776	-1.54
660.808	-7.54
660.84	-23.54
660.873	-9.54
660.905	8.46
660.937	6.46
660.969	3.46
661.002	-3.54
661.034	0.46
661.066	-8.54
661.099	16.46
661.131	9.46
661.163	2.46
661.195	-2.54
661.228	7.46
661.26	-10.54
661.292	-10.54
661.324	0.46
661.357	-2.54
661.389	-10.54
661.421	14.46
661.453	-2.54
661.485	-0.54
661.518	9.46
661.55	-13.54
661.582	-23.54
661.614	2.46
661.647	-1.54
661.679	2.46
661.711	-5.54
661.743	-7.54
661.775	-5.54
661.808	9.46
661.84	-12.54
661.872	1.46
661.904	-1.54
661.936	-11.54
661.969	-6.54
662.001	7.46
662.033	10.46
662.065	0.46
662.097	9.46
662.129	17.46
662.162	-0.54
662.194	4.46
662.226	-7.54
662.258	1.46
662.29	-4.54
662.322	-17.54
662.355	-25.54
662.387	10.46
662.419	18.46
662.451	31.46
662.483	23.46
662.515	-6.54
662.547	4.46
662.58	-0.54
662.612	-27.54
662.644	-3.54
662.676	5.46
662.708	9.46
662.74	-7.54
662.772	-0.54
662.804	-1.54
662.836	9.46
662.869	-5.54
662.901	14.46
662.933	1.46
662.965	7.46
662.997	28.46
663.029	-9.54
663.061	0.46
663.093	0.46
663.125	1.46
663.157	3.46
663.189	10.46
663.221	-2.54
663.254	-7.54
663.286	22.46
663.318	-3.54
663.35	-14.54
663.382	5.46
663.414	15.46
663.446	3.46
663.478	-24.54
663.51	19.46
663.542	-0.54
663.574	19.46
663.606	-4.54
663.638	-26.54
663.67	-3.54
663.702	-8.54
663.734	0.46
663.766	-10.54
663.798	-22.54
663.83	6.46
663.862	6.46
663.894	4.46
663.926	3.46
663.958	10.46
663.99	16.46
664.022	-19.54
664.054	9.46
664.086	1.46
664.118	-10.54
664.15	6.46
664.182	-6.54
664.214	0.46
664.246	8.46
664.278	-2.54
664.31	20.46
664.342	2.46
664.374	1.46
664.406	0.46
664.438	2.46
664.47	-2.54
664.502	10.46
664.534	0.46
664.566	0.46
664.598	3.46
664.63	6.46
664.662	0.46
664.693	6.46
664.725	-2.54
664.757	18.46
664.789	-15.54
664.821	21.46
664.853	24.46
664.885	11.46
664.917	-9.54
664.949	14.46
664.981	4.46
665.013	3.46
665.045	-7.54
665.076	-3.54
665.108	-0.54
665.14	-16.54
665.172	6.46
665.204	5.46
665.236	10.46
665.268	19.46
665.3	-11.54
665.331	-14.54
665.363	2.46
665.395	-4.54
665.427	-7.54
665.459	2.46
665.491	-1.54
665.523	3.46
665.555	1.46
665.586	-1.54
665.618	-2.54
665.65	-22.54
665.682	1.46
665.714	-3.54
665.746	-15.54
665.777	-5.54
665.809	-3.54
665.841	2.46
665.873	-3.54
665.905	9.46
665.937	-1.54
665.968	0.46
666	10.46
666.032	-8.54
666.064	0.46
666.096	-8.54
666.127	0.46
666.159	5.46
666.191	6.46
666.223	12.46
666.255	0.46
666.286	1.46
666.318	13.46
666.35	13.46
666.382	4.46
666.413	-3.54
666.445	0.46
666.477	-24.54
666.509	-22.54
666.54	-11.54
666.572	-9.54
666.604	-13.54
666.636	-1.54
666.667	19.46
666.699	15.46
666.731	3.46
666.763	3.46
666.794	4.46
666.826	-2.54
666.858	1.46
666.89	2.46
666.921	-2.54
666.953	3.46
666.985	-1.54
667.017	5.46
667.048	5.46
667.08	-19.54
667.112	-2.54
667.143	-12.54
667.175	-7.54
667.207	-9.54
667.238	4.46
667.27	-6.54
667.302	1.46
667.334	-1.54
667.365	15.46
667.397	4.46
667.429	-7.54
667.46	0.46
667.492	-13.54
667.524	-10.54
667.555	-0.54
667.587	9.46
667.619	-1.54
667.65	-16.54
667.682	13.46
667.714	10.46
667.745	4.46
667.777	3.46
667.808	4.46
667.84	12.46
667.872	5.46
667.903	23.46
667.935	-14.54
667.967	-7.54
667.998	-0.54
668.03	1.46
668.061	5.46
668.093	-11.54
668.125	0.46
668.156	2.46
668.188	8.46
668.22	-0.54
668.251	17.46
668.283	22.46
668.314	26.46
668.346	5.46
668.377	7.46
668.409	12.46
668.441	17.46
668.472	17.46
668.504	7.46
668.535	-0.54
668.567	15.46
668.599	-4.54
668.63	-5.54
668.662	-3.54
668.693	15.46
668.725	5.46
668.756	6.46
668.788	-3.54
668.819	-5.54
668.851	13.46
668.882	13.46
668.914	3.46
668.946	9.46
668.977	-6.54
669.009	16.46
669.04	-11.54
669.072	-2.54
669.103	5.46
669.135	-6.54
669.166	0.46
669.198	-3.54
669.229	9.46
669.261	1.46
669.292	5.46
669.324	-3.54
669.355	19.46
669.387	-23.54
669.418	10.46
669.45	-22.54
669.481	9.46
669.513	11.46
669.544	-4.54
669.576	7.46
669.607	24.46
669.639	26.46
669.67	-4.54
669.701	9.46
669.733	-12.54
669.764	4.46
669.796	-9.54
669.827	-7.54
669.859	-17.54
669.89	14.46
669.922	2.46
669.953	-0.54
669.985	-0.54
670.016	1.46
670.047	0.46
670.079	-1.54
670.11	4.46
670.142	1.46
670.173	13.46
670.204	7.46
670.236	10.46
670.267	16.46
670.299	-8.54
670.33	4.46
670.362	-0.54
670.393	-25.54
670.424	-0.54
670.456	-3.54
670.487	8.46
670.518	4.46
670.55	-0.54
670.581	3.46
670.613	8.46
670.644	-5.54
670.675	-11.54
670.707	-5.54
670.738	2.46
670.769	-9.54
670.801	-22.54
670.832	23.46
670.864	-12.54
670.895	15.46
670.926	-2.54
670.958	5.46
670.989	-10.54
671.02	-4.54
671.052	-7.54
671.083	-9.54
671.114	4.46
671.146	15.46
671.177	-1.54
671.208	-22.54
671.24	-9.54
671.271	6.46
671.302	5.46
671.333	-1.54
671.365	-14.54
671.396	-7.54
671.427	8.46
671.459	6.46
671.49	20.46
671.521	9.46
671.553	-9.54
671.584	-12.54
671.615	1.46
671.646	12.46
671.678	-5.54
671.709	-18.54
671.74	-19.54
671.771	6.46
671.803	-11.54
671.834	5.46
671.865	-16.54
671.896	4.46
671.928	-11.54
671.959	-8.54
671.99	-2.54
672.021	-0.54
672.053	-12.54
672.084	-0.54
672.115	4.46
672.146	-19.54
672.178	-24.54
672.209	1.46
672.24	-3.54
672.271	10.46
672.303	2.46
672.334	-13.54
672.365	1.46
672.396	2.46
672.427	7.46
672.459	7.46
672.49	15.46
672.521	-11.54
672.552	17.46
672.583	6.46
672.615	-2.54
672.646	11.46
672.677	5.46
672.708	-5.54
672.739	1.46
672.77	7.46
672.802	5.46
672.833	2.46
672.864	9.46
672.895	-17.54
672.926	-11.54
672.957	-16.54
672.989	-7.54
673.02	4.46
673.051	3.46
673.082	2.46
673.113	9.46
673.144	4.46
673.175	12.46
673.206	-5.54
673.238	-4.54
673.269	-5.54
673.3	-16.54
673.331	13.46
673.362	-1.54
673.393	-6.54
673.424	20.46
673.455	9.46
673.487	6.46
673.518	16.46
673.549	-5.54
673.58	12.46
673.611	4.46
673.642	-1.54
673.673	-18.54
673.704	-15.54
673.735	0.46
673.766	-6.54
673.797	-12.54
673.828	2.46
673.86	0.46
673.891	-4.54
673.922	-0.54
673.953	-15.54
673.984	-0.54
674.015	-2.54
674.046	-3.54
674.077	5.46
674.108	9.46
674.139	-7.54
674.17	-9.54
674.201	-20.54
674.232	-13.54
674.263	-7.54
674.294	-4.54
674.325	-14.54
674.356	5.46
674.387	1.46
674.418	-10.54
674.449	-0.54
674.48	-10.54
674.511	-7.54
674.542	1.46
674.573	-11.54
674.604	10.46
674.635	-7.54
674.666	10.46
674.697	3.46
674.728	-4.54
674.759	14.46
674.79	-22.54
674.821	-14.54
674.852	-3.54
674.883	4.46
674.914	-12.54
674.945	-11.54
674.976	-5.54
675.007	-4.54
675.038	-9.54
675.069	-15.54
675.1	5.46
675.131	4.46
675.162	-17.54
675.193	-9.54
675.224	-16.54
675.254	-5.54
675.285	7.46
675.316	22.46
675.347	1.46
675.378	-4.54
675.409	-13.54
675.44	5.46
675.471	0.46
675.502	-3.54
675.533	0.46
675.564	-3.54
675.595	7.46
675.625	30.46
675.656	0.46
675.687	-1.54
675.718	-3.54
675.749	10.46
675.78	-2.54
675.811	-6.54
675.842	7.46
675.873	-7.54
675.903	-8.54
675.934	4.46
675.965	-7.54
675.996	-6.54
676.027	-0.54
676.058	-3.54
676.089	-5.54
676.119	-9.54
676.15	-14.54
676.181	-6.54
676.212	-8.54
676.243	6.46
676.274	-13.54
676.304	-4.54
676.335	-15.54
676.366	6.46
676.397	-1.54
676.428	-18.54
676.459	4.46
676.489	8.46
676.52	1.46
676.551	-2.54
676.582	-8.54
676.613	-6.54
676.643	-7.54
676.674	13.46
676.705	5.46
676.736	24.46
676.767	26.46
676.797	7.46
676.828	14.46
676.859	8.46
676.89	1.46
676.92	1.46
676.951	8.46
676.982	-2.54
677.013	-4.54
677.044	6.46
677.074	25.46
677.105	-6.54
677.136	-4.54
677.167	8.46
677.197	14.46
677.228	-3.54
677.259	-7.54
677.289	14.46
677.32	-12.54
677.351	-7.54
677.382	3.46
677.412	0.46
677.443	8.46
677.474	-4.54
677.505	-2.54
677.535	5.46
677.566	-8.54
677.597	-17.54
677.627	-8.54
677.658	-16.54
677.689	-4.54
677.72	-2.54
677.75	-10.54
677.781	-3.54
677.812	-7.54
677.842	1.46
677.873	5.46
677.904	3.46
677.934	0.46
677.965	-2.54
677.996	-15.54
678.026	0.46
678.057	3.46
678.088	-17.54
678.118	-10.54
678.149	-17.54
678.18	-10.54
678.21	-18.54
678.241	-12.54
678.272	0.46
678.302	-2.54
678.333	2.46
678.363	1.46
678.394	0.46
678.425	-5.54
678.455	-0.54
678.486	20.46
678.517	-9.54
678.547	-3.54
678.578	-1.54
678.608	-15.54
678.639	8.46
678.67	23.46
678.7	-0.54
678.731	7.46
678.761	-4.54
678.792	-11.54
678.823	12.46
678.853	4.46
678.884	-25.54
678.914	2.46
678.945	0.46
678.975	-9.54
679.006	13.46
679.037	-9.54
679.067	20.46
679.098	0.46
679.128	-11.54
679.159	-13.54
679.189	7.46
679.22	-10.54
679.25	-11.54
679.281	11.46
679.312	5.46
679.342	-0.54
679.373	12.46
679.403	-14.54
679.434	4.46
679.464	4.46
679.495	4.46
679.525	8.46
679.556	-0.54
679.586	16.46
679.617	19.46
679.647	12.46
679.678	6.46
679.708	-3.54
679.739	7.46
679.769	-6.54
679.8	1.46
679.83	2.46
679.861	14.46
679.891	-14.54
679.922	-10.54
679.952	-16.54
679.983	0.46
680.013	8.46
680.044	-3.54
680.074	18.46
680.105	8.46
680.135	11.46
680.165	8.46
680.196	-3.54
680.226	4.46
680.257	-3.54
680.287	-3.54
680.318	-2.54
680.348	-5.54
680.379	8.46
680.409	7.46
680.439	3.46
680.47	5.46
680.5	-0.54
680.531	9.46
680.561	16.46
680.592	7.46
680.622	5.46
680.652	7.46
680.683	16.46
680.713	-10.54
680.744	-9.54
680.774	-5.54
680.804	12.46
680.835	-6.54
680.865	-11.54
680.896	4.46
680.926	14.46
680.956	-15.54
680.987	-9.54
681.017	-12.54
681.047	2.46
681.078	1.46
681.108	-1.54
681.139	3.46
681.169	-5.54
681.199	-10.54
681.23	-4.54
681.26	4.46
681.29	17.46
681.321	-11.54
681.351	-1.54
681.381	-14.54
681.412	10.46
681.442	-6.54
681.472	8.46
681.503	9.46
681.533	-9.54
681.563	-9.54
681.594	-17.54
681.624	12.46
681.654	-4.54
681.685	-12.54
681.715	0.46
681.745	-8.54
681.775	17.46
681.806	14.46
681.836	13.46
681.866	7.46
681.897	-3.54
681.927	-2.54
681.957	-11.54
681.987	9.46
682.018	-9.54
682.048	20.46
682.078	18.46
682.109	23.46
682.139	10.46
682.169	12.46
682.199	-8.54
682.23	-4.54
682.26	-3.54
682.29	3.46
682.32	-0.54
682.351	-4.54
682.381	-1.54
682.411	-11.54
682.441	-9.54
682.472	-10.54
682.502	6.46
682.532	-5.54
682.562	6.46
682.592	1.46
682.623	14.46
682.653	1.46
682.683	-0.54
682.713	10.46
682.743	-0.54
682.774	-16.54
682.804	-2.54
682.834	9.46
682.864	-20.54
682.894	-1.54
682.925	1.46
682.955	-9.54
682.985	-6.54
683.015	1.46
683.045	4.46
683.076	-10.54
683.106	-0.54
683.136	-0.54
683.166	-9.54
683.196	-19.54
683.226	-13.54
683.257	-5.54
683.287	1.46
683.317	-0.54
683.347	-0.54
683.377	8.46
683.407	-1.54
683.437	13.46
683.468	28.46
683.498	-10.54
683.528	-0.54
683.558	7.46
683.588	-11.54
683.618	-9.54
683.648	-7.54
683.678	-11.54
683.708	16.46
683.739	8.46
683.769	6.46
683.799	-1.54
683.829	-3.54
683.859	5.46
683.889	12.46
683.919	5.46
683.949	7.46
683.979	-1.54
684.009	0.46
684.039	4.46
684.07	-9.54
684.1	23.46
684.13	7.46
684.16	3.46
684.19	0.46
684.22	9.46
684.25	-6.54
684.28	0.46
684.31	16.46
684.34	0.46
684.37	-8.54
684.4	-13.54
684.43	6.46
684.46	4.46
684.49	8.46
684.52	7.46
684.55	9.46
684.58	5.46
684.61	-1.54
684.64	7.46
684.67	3.46
684.7	4.46
684.73	16.46
684.76	-9.54
684.79	8.46
684.82	-0.54
684.85	-14.54
684.88	6.46
684.91	1.46
684.94	6.46
684.97	5.46
685	-1.54
685.03	-14.54
685.06	-16.54
685.09	-11.54
685.12	3.46
685.15	-8.54
685.18	5.46
685.21	2.46
685.24	10.46
685.27	10.46
685.3	6.46
685.33	9.46
685.36	-11.54
685.39	7.46
685.42	-5.54
685.45	0.46
685.48	7.46
685.51	-6.54
685.54	18.46
685.569	11.46
685.599	-0.54
685.629	-2.54
685.659	5.46
685.689	1.46
685.719	3.46
685.749	-7.54
685.779	13.46
685.809	6.46
685.839	-0.54
685.869	-1.54
685.898	13.46
685.928	1.46
685.958	-10.54
685.988	5.46
686.018	0.46
686.048	2.46
686.078	6.46
686.108	22.46
686.137	4.46
686.167	23.46
686.197	-16.54
686.227	11.46
686.257	34.46
686.287	19.46
686.317	4.46
686.346	-5.54
686.376	-8.54
686.406	-3.54
686.436	8.46
686.466	-13.54
686.496	11.46
686.525	-5.54
686.555	-3.54
686.585	11.46
686.615	24.46
686.645	-3.54
686.675	-1.54
686.704	9.46
686.734	2.46
686.764	5.46
686.794	1.46
686.824	-3.54
686.853	14.46
686.883	8.46
686.913	20.46
686.943	-0.54
686.973	4.46
687.002	11.46
687.032	7.46
687.062	-11.54
687.092	3.46
687.121	9.46
687.151	3.46
687.181	-2.54
687.211	9.46
687.24	3.46
687.27	-10.54
687.3	-9.54
687.33	2.46
687.359	-27.54
687.389	-7.54
687.419	-0.54
687.449	-14.54
687.478	4.46
687.508	-1.54
687.538	5.46
687.568	20.46
687.597	14.46
687.627	11.46
687.657	13.46
687.686	8.46
687.716	13.46
687.746	-20.54
687.776	-7.54
687.805	8.46
687.835	0.46
687.865	11.46
687.894	13.46
687.924	-11.54
687.954	-17.54
687.983	6.46
688.013	0.46
688.043	8.46
688.072	0.46
688.102	-3.54
688.132	-1.54
688.161	3.46
688.191	5.46
688.221	13.46
688.25	-2.54
688.28	9.46
688.31	6.46
688.339	-6.54
688.369	-0.54
688.399	-0.54
688.428	5.46
688.458	15.46
688.488	6.46
688.517	4.46
688.547	-8.54
688.576	40.46
688.606	22.46
688.636	-9.54
688.665	12.46
688.695	10.46
688.725	16.46
688.754	9.46
688.784	-2.54
688.813	9.46
688.843	-3.54
688.873	10.46
688.902	-3.54
688.932	-7.54
688.961	1.46
688.991	28.46
689.02	5.46
689.05	-1.54
689.08	7.46
689.109	16.46
689.139	-11.54
689.168	10.46
689.198	3.46
689.227	2.46
689.257	8.46
689.287	6.46
689.316	-7.54
689.346	-3.54
689.375	-7.54
689.405	13.46
689.434	-2.54
689.464	2.46
689.493	13.46
689.523	-11.54
689.552	-17.54
689.582	-1.54
689.611	-3.54
689.641	14.46
689.67	5.46
689.7	-1.54
689.73	2.46
689.759	8.46
689.789	-1.54
689.818	-3.54
689.848	1.46
689.877	0.46
689.906	-6.54
689.936	-3.54
689.965	-6.54
689.995	3.46
690.024	6.46
690.054	-2.54
690.083	5.46
690.113	0.46
690.142	7.46
690.172	24.46
690.201	7.46
690.231	2.46
690.26	-2.54
690.29	6.46
690.319	20.46
690.348	-1.54
690.378	5.46
690.407	-6.54
690.437	9.46
690.466	-1.54
690.496	10.46
690.525	19.46
690.555	-7.54
690.584	-6.54
690.613	-0.54
690.643	10.46
690.672	8.46
690.702	7.46
690.731	3.46
690.76	17.46
690.79	55.46
690.819	49.46
690.849	32.46
690.878	18.46
690.907	5.46
690.937	13.46
690.966	20.46
690.996	12.46
691.025	9.46
691.054	4.46
691.084	4.46
691.113	7.46
691.142	-6.54
691.172	12.46
691.201	10.46
691.23	-18.54
691.26	4.46
691.289	4.46
691.319	-9.54
691.348	6.46
691.377	7.46
691.407	-2.54
691.436	8.46
691.465	7.46
691.495	1.46
691.524	-15.54
691.553	-9.54
691.583	10.46
691.612	17.46
691.641	11.46
691.67	6.46
691.7	18.46
691.729	-8.54
691.758	1.46
691.788	-4.54
691.817	0.46
691.846	-17.54
691.876	-10.54
691.905	-3.54
691.934	0.46
691.963	5.46
691.993	6.46
692.022	-6.54
692.051	-10.54
692.081	21.46
692.11	10.46
692.139	-4.54
692.168	6.46
692.198	14.46
692.227	-9.54
692.256	8.46
692.285	-7.54
692.315	-1.54
692.344	2.46
692.373	-0.54
692.402	-6.54
692.432	-10.54
692.461	-2.54
692.49	-20.54
692.519	-10.54
692.548	7.46
692.578	-1.54
692.607	1.46
692.636	6.46
692.665	11.46
692.694	8.46
692.724	8.46
692.753	3.46
692.782	10.46
692.811	-3.54
692.84	2.46
692.87	6.46
692.899	1.46
692.928	0.46
692.957	9.46
692.986	21.46
693.016	3.46
693.045	0.46
693.074	18.46
693.103	4.46
693.132	-2.54
693.161	16.46
693.191	-3.54
693.22	-6.54
693.249	9.46
693.278	4.46
693.307	7.46
693.336	-9.54
693.365	-9.54
693.395	-8.54
693.424	-0.54
693.453	15.46
693.482	-6.54
693.511	6.46
693.54	3.46
693.569	5.46
693.598	-3.54
693.628	7.46
693.657	10.46
693.686	7.46
693.715	11.46
693.744	7.46
693.773	17.46
693.802	-14.54
693.831	-4.54
693.86	14.46
693.889	-18.54
693.919	-0.54
693.948	6.46
693.977	5.46
694.006	-0.54
694.035	-2.54
694.064	0.46
694.093	-4.54
694.122	-7.54
694.151	11.46
694.18	12.46
694.209	26.46
694.238	-0.54
694.267	12.46
694.296	16.46
694.325	11.46
694.354	15.46
694.383	10.46
694.412	-15.54
694.441	-11.54
694.471	3.46
694.5	-5.54
694.529	6.46
694.558	20.46
694.587	17.46
694.616	1.46
694.645	0.46
694.674	16.46
694.703	1.46
694.732	-5.54
694.761	9.46
694.79	7.46
694.819	1.46
694.848	-0.54
694.877	7.46
694.906	28.46
694.935	-0.54
694.963	18.46
694.992	6.46
695.021	7.46
695.05	10.46
695.079	-3.54
695.108	-6.54
695.137	18.46
695.166	-2.54
695.195	5.46
695.224	18.46
695.253	15.46
695.282	11.46
695.311	7.46
695.34	-0.54
695.369	6.46
695.398	-11.54
695.427	25.46
695.456	-0.54
695.485	0.46
695.513	0.46
695.542	-4.54
695.571	4.46
695.6	21.46
695.629	6.46
695.658	-1.54
695.687	-5.54
695.716	10.46
695.745	24.46
695.774	2.46
695.802	-3.54
695.831	4.46
695.86	-3.54
695.889	-3.54
695.918	-0.54
695.947	-6.54
695.976	10.46
696.005	-2.54
696.033	4.46
696.062	7.46
696.091	5.46
696.12	10.46
696.149	13.46
696.178	-8.54
696.207	16.46
696.235	-9.54
696.264	1.46
696.293	-2.54
696.322	5.46
696.351	7.46
696.38	-18.54
696.408	9.46
696.437	-1.54
696.466	23.46
696.495	10.46
696.524	8.46
696.553	5.46
696.581	-1.54
696.61	4.46
696.639	-1.54
696.668	13.46
696.697	-4.54
696.725	10.46
696.754	-6.54
696.783	-4.54
696.812	6.46
696.84	11.46
696.869	19.46
696.898	2.46
696.927	3.46
696.956	-0.54
696.984	9.46
697.013	4.46
697.042	6.46
697.071	21.46
697.099	6.46
697.128	5.46
697.157	15.46
697.186	-4.54
697.214	-6.54
697.243	-15.54
697.272	-4.54
697.301	-0.54
697.329	-2.54
697.358	1.46
697.387	19.46
697.415	6.46
697.444	-0.54
697.473	-0.54
697.502	6.46
697.53	4.46
697.559	4.46
697.588	10.46
697.616	0.46
697.645	-10.54
697.674	14.46
697.703	11.46
697.731	11.46
697.76	18.46
697.789	15.46
697.817	22.46
697.846	38.46
697.875	6.46
697.903	19.46
697.932	5.46
697.961	5.46
697.989	8.46
698.018	7.46
698.047	12.46
698.075	20.46
698.104	8.46
698.133	-3.54
698.161	-4.54
698.19	7.46
698.218	-2.54
698.247	6.46
698.276	-7.54
698.304	18.46
698.333	15.46
698.362	9.46
698.39	2.46
698.419	12.46
698.447	1.46
698.476	-4.54
698.505	16.46
698.533	7.46
698.562	11.46
698.591	-2.54
698.619	-16.54
698.648	-2.54
698.676	0.46
698.705	-16.54
698.733	-20.54
698.762	11.46
698.791	9.46
698.819	-5.54
698.848	-8.54
698.876	22.46
698.905	-6.54
698.933	-0.54
698.962	6.46
698.991	5.46
699.019	18.46
699.048	10.46
699.076	0.46
699.105	-11.54
699.133	-4.54
699.162	9.46
699.19	15.46
699.219	4.46
699.248	-1.54
699.276	-0.54
699.305	2.46
699.333	7.46
699.362	2.46
699.39	-4.54
699.419	-9.54
699.447	-0.54
699.476	18.46
699.504	-2.54
699.533	8.46
699.561	-4.54
699.59	-2.54
699.618	-12.54
699.647	3.46
699.675	3.46
699.704	16.46
699.732	-6.54
699.761	18.46
699.789	19.46
699.818	22.46
699.846	-3.54
699.874	-14.54
699.903	-7.54
699.931	2.46
699.96	16.46
699.988	4.46
700.017	2.46
700.045	9.46
700.074	-4.54
700.102	3.46
700.13	-11.54
700.159	-9.54
700.187	14.46
700.216	-11.54
700.244	-17.54
700.273	-8.54
700.301	-3.54
700.329	2.46
700.358	10.46
700.386	-4.54
700.415	1.46
700.443	5.46
700.472	-6.54
700.5	-20.54
700.528	-12.54
700.557	16.46
700.585	-2.54
700.614	-3.54
700.642	23.46
700.67	18.46
700.699	7.46
700.727	-3.54
700.755	13.46
700.784	12.46
700.812	-1.54
700.841	19.46
700.869	-4.54
700.897	-7.54
700.926	-5.54
700.954	10.46
700.982	-8.54
701.011	-8.54
701.039	-5.54
701.067	-3.54
701.096	13.46
701.124	-3.54
701.152	-0.54
701.181	3.46
701.209	-19.54
701.237	7.46
701.266	4.46
701.294	-11.54
701.322	-1.54
701.351	12.46
701.379	3.46
701.407	-13.54
701.435	12.46
701.464	9.46
701.492	11.46
701.52	0.46
701.549	-8.54
701.577	-15.54
701.605	-15.54
701.634	-11.54
701.662	7.46
701.69	-15.54
701.718	-12.54
701.747	-4.54
701.775	5.46
701.803	-18.54
701.831	9.46
701.86	-6.54
701.888	-0.54
701.916	-9.54
701.944	8.46
701.973	-1.54
702.001	-5.54
702.029	-11.54
702.057	-1.54
702.086	-8.54
702.114	-11.54
702.142	-12.54
702.17	5.46
702.199	3.46
702.227	4.46
702.255	5.46
702.283	-12.54
702.311	-6.54
702.34	0.46
702.368	1.46
702.396	0.46
702.424	-10.54
702.452	10.46
702.481	-4.54
702.509	-10.54
702.537	12.46
702.565	-6.54
702.593	-9.54
702.621	-12.54
702.65	22.46
702.678	3.46
702.706	7.46
702.734	-10.54
702.762	2.46
702.79	4.46
702.819	0.46
702.847	9.46
702.875	6.46
702.903	3.46
702.931	-15.54
702.959	-0.54
702.988	14.46
703.016	-2.54
703.044	-12.54
703.072	-2.54
703.1	5.46
703.128	-10.54
703.156	8.46
703.184	-10.54
703.212	15.46
703.241	19.46
703.269	2.46
703.297	-16.54
703.325	-6.54
703.353	-17.54
703.381	-13.54
703.409	3.46
703.437	-2.54
703.465	-5.54
703.493	-1.54
703.522	7.46
703.55	-3.54
703.578	5.46
703.606	-12.54
703.634	-18.54
703.662	2.46
703.69	-6.54
703.718	-10.54
703.746	23.46
703.774	-4.54
703.802	17.46
703.83	7.46
703.858	-0.54
703.886	-18.54
703.914	-15.54
703.942	5.46
703.97	-4.54
703.998	-10.54
704.027	-6.54
704.055	8.46
704.083	0.46
704.111	-2.54
704.139	15.46
704.167	-8.54
704.195	-8.54
704.223	-10.54
704.251	-3.54
704.279	3.46
704.307	-1.54
704.335	-17.54
704.363	-2.54
704.391	3.46
704.419	3.46
704.447	-10.54
704.475	-6.54
704.503	-3.54
704.531	23.46
704.558	11.46
704.586	-14.54
704.614	7.46
704.642	0.46
704.67	-12.54
704.698	-2.54
704.726	-7.54
704.754	-0.54
704.782	-4.54
704.81	-5.54
704.838	35.46
704.866	22.46
704.894	-4.54
704.922	-7.54
704.95	-4.54
704.978	0.46
705.006	-8.54
705.034	8.46
705.061	-21.54
705.089	-8.54
705.117	-1.54
705.145	3.46
705.173	5.46
705.201	-7.54
705.229	4.46
705.257	-3.54
705.285	5.46
705.313	2.46
705.34	-5.54
705.368	9.46
705.396	6.46
705.424	5.46
705.452	6.46
705.48	6.46
705.508	-14.54
705.536	-9.54
705.563	-6.54
705.591	-3.54
705.619	-6.54
705.647	-10.54
705.675	-9.54
705.703	-6.54
705.731	-13.54
705.758	-2.54
705.786	4.46
705.814	9.46
705.842	8.46
705.87	1.46
705.898	16.46
705.925	-4.54
705.953	15.46
705.981	-8.54
706.009	-7.54
706.037	13.46
706.065	-4.54
706.092	-5.54
706.12	14.46
706.148	-3.54
706.176	-4.54
706.204	16.46
706.231	8.46
706.259	1.46
706.287	-7.54
706.315	8.46
706.342	-13.54
706.37	10.46
706.398	12.46
706.426	-4.54
706.454	1.46
706.481	12.46
706.509	-4.54
706.537	-9.54
706.565	-10.54
706.592	3.46
706.62	-3.54
706.648	-0.54
706.676	-7.54
706.703	7.46
706.731	-4.54
706.759	-4.54
706.787	-2.54
706.814	-3.54
706.842	4.46
706.87	-7.54
706.897	4.46
706.925	-2.54
706.953	21.46
706.981	7.46
707.008	-3.54
707.036	-8.54
707.064	-13.54
707.091	-14.54
707.119	8.46
707.147	-4.54
707.174	-14.54
707.202	9.46
707.23	-12.54
707.258	5.46
707.285	-3.54
707.313	-4.54
707.341	-5.54
707.368	-16.54
707.396	5.46
707.424	11.46
707.451	1.46
707.479	-5.54
707.507	-9.54
707.534	-12.54
707.562	-8.54
707.59	-8.54
707.617	-8.54
707.645	5.46
707.672	7.46
707.7	-8.54
707.728	6.46
707.755	4.46
707.783	2.46
707.811	-7.54
707.838	-9.54
707.866	2.46
707.893	-8.54
707.921	2.46
707.949	-3.54
707.976	-2.54
708.004	2.46
708.031	-11.54
708.059	-10.54
708.087	-0.54
708.114	-13.54
708.142	3.46
708.169	3.46
708.197	-2.54
708.225	-6.54
708.252	9.46
708.28	8.46
708.307	1.46
708.335	-3.54
708.362	8.46
708.39	-7.54
708.418	1.46
708.445	7.46
708.473	3.46
708.5	-4.54
708.528	4.46
708.555	3.46
708.583	0.46
708.61	6.46
708.638	11.46
708.665	-15.54
708.693	1.46
708.72	-12.54
708.748	-18.54
708.776	13.46
708.803	10.46
708.831	7.46
708.858	15.46
708.886	7.46
708.913	-9.54
708.941	-6.54
708.968	4.46
708.996	-5.54
709.023	37.46
709.051	2.46
709.078	-31.54
709.105	1.46
709.133	-7.54
709.16	-10.54
709.188	-2.54
709.215	3.46
709.243	14.46
709.27	-7.54
709.298	-13.54
709.325	-16.54
709.353	-4.54
709.38	-15.54
709.408	-0.54
709.435	4.46
709.462	0.46
709.49	3.46
709.517	-19.54
709.545	-7.54
709.572	-8.54
709.6	-7.54
709.627	11.46
709.655	-12.54
709.682	-11.54
709.709	0.46
709.737	3.46
709.764	-19.54
709.792	1.46
709.819	0.46
709.846	-1.54
709.874	4.46
709.901	20.46
709.929	18.46
709.956	28.46
709.983	3.46
710.011	-10.54
710.038	-9.54
710.066	-7.54
710.093	11.46
710.12	1.46
710.148	-7.54
710.175	-6.54
710.202	-1.54
710.23	8.46
710.257	-6.54
710.284	5.46
710.312	-4.54
710.339	0.46
710.366	4.46
710.394	7.46
710.421	13.46
710.448	-1.54
710.476	-15.54
710.503	-7.54
710.53	7.46
710.558	30.46
710.585	-2.54
710.612	-6.54
710.64	-6.54
710.667	-8.54
710.694	-10.54
710.722	0.46
710.749	-0.54
710.776	-3.54
710.804	8.46
710.831	-3.54
710.858	0.46
710.885	-5.54
710.913	-7.54
710.94	18.46
710.967	-7.54
710.995	6.46
711.022	-2.54
711.049	9.46
711.076	1.46
711.104	-2.54
711.131	-23.54
711.158	-5.54
711.185	0.46
711.213	-3.54
711.24	1.46
711.267	-15.54
711.294	4.46
711.322	3.46
711.349	-2.54
711.376	-18.54
711.403	-2.54
711.431	1.46
711.458	-0.54
711.485	-10.54
711.512	15.46
711.54	-6.54
711.567	0.46
711.594	-19.54
711.621	-3.54
711.648	8.46
711.676	11.46
711.703	5.46
711.73	-7.54
711.757	0.46
711.784	-13.54
711.812	-0.54
711.839	-1.54
711.866	-2.54
711.893	-11.54
711.92	0.46
711.947	4.46
711.975	7.46
712.002	11.46
712.029	16.46
712.056	1.46
712.083	-4.54
712.11	-23.54
712.138	-3.54
712.165	8.46
712.192	-1.54
712.219	-4.54
712.246	-4.54
712.273	-2.54
712.3	-8.54
712.328	13.46
712.355	-1.54
712.382	-8.54
712.409	11.46
712.436	-7.54
712.463	-10.54
712.49	9.46
712.517	1.46
712.544	-3.54
712.572	1.46
712.599	-18.54
712.626	-6.54
712.653	1.46
712.68	-15.54
712.707	-4.54
712.734	4.46
712.761	19.46
712.788	10.46
712.815	-6.54
712.842	6.46
712.87	4.46
712.897	-7.54
712.924	-18.54
712.951	1.46
712.978	15.46
713.005	14.46
713.032	20.46
713.059	-12.54
713.086	-6.54
713.113	-19.54
713.14	-23.54
713.167	0.46
713.194	1.46
713.221	2.46
713.248	-0.54
713.275	-6.54
713.302	-4.54
713.329	5.46
713.356	-1.54
713.383	9.46
713.41	14.46
713.437	-8.54
713.464	0.46
713.491	3.46
713.518	-6.54
713.545	3.46
713.572	-7.54
713.599	5.46
713.626	-6.54
713.653	4.46
713.68	-3.54
713.707	-6.54
713.734	7.46
713.761	6.46
713.788	-1.54
713.815	8.46
713.842	-2.54
713.869	6.46
713.896	-8.54
713.923	-14.54
713.95	-6.54
713.977	-6.54
714.004	-20.54
714.031	-11.54
714.058	7.46
714.085	10.46
714.112	9.46
714.139	-4.54
714.165	0.46
714.192	-7.54
714.219	-6.54
714.246	-2.54
714.273	-2.54
714.3	5.46
714.327	-6.54
714.354	4.46
714.381	-2.54
714.408	-4.54
714.435	6.46
714.461	-5.54
714.488	-0.54
714.515	-7.54
714.542	-23.54
714.569	-19.54
714.596	-14.54
714.623	0.46
714.65	2.46
714.677	8.46
714.703	13.46
714.73	-4.54
714.757	1.46
714.784	2.46
714.811	-6.54
714.838	7.46
714.865	-4.54
714.891	1.46
714.918	-5.54
714.945	-19.54
714.972	-3.54
714.999	19.46
715.026	-3.54
715.052	4.46
715.079	-5.54
715.106	-5.54
715.133	-8.54
715.16	-20.54
715.187	5.46
715.213	2.46
715.24	-9.54
715.267	-1.54
715.294	-5.54
715.321	7.46
715.347	-6.54
715.374	-22.54
715.401	-8.54
715.428	-8.54
715.455	4.46
715.481	5.46
715.508	7.46
715.535	-0.54
715.562	3.46
715.588	-2.54
715.615	-2.54
715.642	-4.54
715.669	14.46
715.695	-12.54
715.722	-12.54
715.749	16.46
715.776	10.46
715.802	-3.54
715.829	0.46
715.856	-12.54
715.883	3.46
715.909	-0.54
715.936	-16.54
715.963	3.46
715.99	-17.54
716.016	2.46
716.043	-3.54
716.07	0.46
716.096	-12.54
716.123	-3.54
716.15	-9.54
716.177	4.46
716.203	1.46
716.23	-0.54
716.257	7.46
716.283	13.46
716.31	7.46
716.337	-4.54
716.363	-6.54
716.39	5.46
716.417	3.46
716.443	3.46
716.47	16.46
716.497	17.46
716.523	20.46
716.55	6.46
716.577	-0.54
716.603	24.46
716.63	22.46
716.657	25.46
716.683	-15.54
716.71	-9.54
716.737	-5.54
716.763	1.46
716.79	-8.54
716.817	13.46
716.843	-2.54
716.87	-19.54
716.897	-6.54
716.923	18.46
716.95	-1.54
716.976	-6.54
717.003	-4.54
717.03	-0.54
717.056	16.46
717.083	-0.54
717.109	-9.54
717.136	9.46
717.163	-9.54
717.189	-6.54
717.216	-4.54
717.242	9.46
717.269	-2.54
717.296	7.46
717.322	8.46
717.349	7.46
717.375	-0.54
717.402	3.46
717.428	-1.54
717.455	20.46
717.481	1.46
717.508	1.46
717.535	8.46
717.561	7.46
717.588	-6.54
717.614	-11.54
717.641	8.46
717.667	-2.54
717.694	21.46
717.72	5.46
717.747	14.46
717.773	-4.54
717.8	-4.54
717.826	-13.54
717.853	-3.54
717.88	16.46
717.906	6.46
717.933	6.46
717.959	20.46
717.986	2.46
718.012	-0.54
718.039	12.46
718.065	7.46
718.092	-0.54
718.118	-16.54
718.144	-13.54
718.171	18.46
718.197	17.46
718.224	-14.54
718.25	-3.54
718.277	-3.54
718.303	-2.54
718.33	3.46
718.356	-19.54
718.383	-16.54
718.409	-6.54
718.436	3.46
718.462	-0.54
718.489	3.46
718.515	3.46
718.541	6.46
718.568	8.46
718.594	-2.54
718.621	11.46
718.647	-0.54
718.674	16.46
718.7	16.46
718.726	-3.54
718.753	-2.54
718.779	7.46
718.806	-1.54
718.832	-9.54
718.858	-2.54
718.885	-17.54
718.911	-3.54
718.938	6.46
718.964	-11.54
718.99	9.46
719.017	-3.54
719.043	11.46
719.07	24.46
719.096	12.46
719.122	11.46
719.149	6.46
719.175	11.46
719.201	4.46
719.228	-3.54
719.254	10.46
719.281	-10.54
719.307	0.46
719.333	-1.54
719.36	6.46
719.386	8.46
719.412	7.46
719.439	-9.54
719.465	-7.54
719.491	-5.54
719.518	15.46
719.544	11.46
719.57	0.46
719.597	-12.54
719.623	-9.54
719.649	-8.54
719.675	-9.54
719.702	9.46
719.728	8.46
719.754	-2.54
719.781	1.46
719.807	5.46
719.833	4.46
719.86	3.46
719.886	2.46
719.912	-4.54
719.938	-17.54
719.965	6.46
719.991	-9.54
720.017	-3.54
720.044	-1.54
720.07	-0.54
720.096	11.46
720.122	-9.54
720.149	14.46
720.175	20.46
720.201	-3.54
720.227	-2.54
720.254	8.46
720.28	-6.54
720.306	-18.54
720.332	12.46
720.359	0.46
720.385	-1.54
720.411	0.46
720.437	16.46
720.463	-9.54
720.49	10.46
720.516	-8.54
720.542	-1.54
720.568	0.46
720.595	9.46
720.621	-6.54
720.647	-7.54
720.673	19.46
720.699	-5.54
720.725	-2.54
720.752	-0.54
720.778	11.46
720.804	2.46
720.83	19.46
720.856	2.46
720.883	-2.54
720.909	11.46
720.935	27.46
720.961	8.46
720.987	7.46
721.013	10.46
721.04	-0.54
721.066	3.46
721.092	-1.54
721.118	13.46
721.144	4.46
721.17	-4.54
721.196	4.46
721.223	-8.54
721.249	2.46
721.275	7.46
721.301	-5.54
721.327	4.46
721.353	-2.54
721.379	-6.54
721.405	9.46
721.432	13.46
721.458	6.46
721.484	7.46
721.51	-16.54
721.536	5.46
721.562	6.46
721.588	4.46
721.614	-18.54
721.64	-0.54
721.666	-3.54
721.693	-6.54
721.719	-3.54
721.745	-4.54
721.771	-4.54
721.797	6.46
721.823	2.46
721.849	16.46
721.875	12.46
721.901	7.46
721.927	-6.54
721.953	-1.54
721.979	19.46
722.005	6.46
722.031	-5.54
722.057	-6.54
722.083	3.46
722.109	8.46
722.135	14.46
722.161	5.46
722.187	-2.54
722.214	8.46
722.24	-0.54
722.266	-5.54
722.292	0.46
722.318	-1.54
722.344	-2.54
722.37	3.46
722.396	1.46
722.422	5.46
722.448	-4.54
722.474	-3.54
722.5	13.46
722.526	-5.54
722.552	-2.54
722.578	-4.54
722.603	4.46
722.629	-4.54
722.655	-11.54
722.681	-5.54
722.707	2.46
722.733	1.46
722.759	-1.54
722.785	4.46
722.811	-4.54
722.837	-6.54
722.863	13.46
722.889	10.46
722.915	0.46
722.941	-7.54
722.967	-0.54
722.993	6.46
723.019	14.46
723.045	10.46
723.071	20.46
723.097	3.46
723.122	6.46
723.148	0.46
723.174	-1.54
723.2	11.46
723.226	-7.54
723.252	1.46
723.278	-6.54
723.304	1.46
723.33	-9.54
723.356	-1.54
723.381	5.46
723.407	-3.54
723.433	5.46
723.459	-4.54
723.485	6.46
723.511	3.46
723.537	0.46
723.563	3.46
723.588	5.46
723.614	11.46
723.64	-8.54
723.666	4.46
723.692	8.46
723.718	1.46
723.744	-0.54
723.769	-4.54
723.795	6.46
723.821	14.46
723.847	16.46
723.873	10.46
723.899	-8.54
723.924	-5.54
723.95	-7.54
723.976	-12.54
724.002	-6.54
724.028	15.46
724.053	-2.54
724.079	-6.54
724.105	9.46
724.131	-3.54
724.157	1.46
724.182	-4.54
724.208	-9.54
724.234	-0.54
724.26	-7.54
724.286	11.46
724.311	8.46
724.337	-4.54
724.363	1.46
724.389	4.46
724.415	3.46
724.44	29.46
724.466	4.46
724.492	-11.54
724.518	1.46
724.543	-15.54
724.569	-1.54
724.595	-4.54
724.621	-6.54
724.646	0.46
724.672	-0.54
724.698	-6.54
724.723	-7.54
724.749	-4.54
724.775	27.46
724.801	12.46
724.826	-0.54
724.852	-4.54
724.878	-10.54
724.904	-12.54
724.929	-0.54
724.955	-15.54
724.981	-8.54
725.006	-6.54
725.032	-0.54
725.058	13.46
725.083	-2.54
725.109	-12.54
725.135	-3.54
725.161	-0.54
725.186	-9.54
725.212	13.46
725.238	19.46
725.263	-0.54
725.289	-8.54
725.315	-14.54
725.34	-6.54
725.366	-1.54
725.392	-8.54
725.417	-4.54
725.443	1.46
725.468	5.46
725.494	4.46
725.52	6.46
725.545	-9.54
725.571	-7.54
725.597	-6.54
725.622	14.46
725.648	2.46
725.674	10.46
725.699	6.46
725.725	-1.54
725.75	27.46
725.776	0.46
725.802	15.46
725.827	9.46
725.853	-18.54
725.878	11.46
725.904	-0.54
725.93	-6.54
725.955	-7.54
725.981	-0.54
726.006	0.46
726.032	13.46
726.057	-0.54
726.083	-0.54
726.109	8.46
726.134	-8.54
726.16	-10.54
726.185	-6.54
726.211	-4.54
726.236	12.46
726.262	2.46
726.288	23.46
726.313	17.46
726.339	4.46
726.364	-1.54
726.39	11.46
726.415	-12.54
726.441	-10.54
726.466	-8.54
726.492	-0.54
726.517	7.46
726.543	-4.54
726.568	-17.54
726.594	-18.54
726.619	0.46
726.645	13.46
726.67	7.46
726.696	-4.54
726.721	-10.54
726.747	-15.54
726.772	-2.54
726.798	-3.54
726.823	1.46
726.849	-2.54
726.874	-0.54
726.9	20.46
726.925	12.46
726.951	0.46
726.976	2.46
727.002	-0.54
727.027	9.46
727.053	20.46
727.078	-3.54
727.104	-4.54
727.129	-4.54
727.155	-15.54
727.18	-5.54
727.205	-3.54
727.231	-0.54
727.256	-1.54
727.282	-1.54
727.307	-7.54
727.333	-11.54
727.358	-8.54
727.383	-12.54
727.409	-1.54
727.434	9.46
727.46	-0.54
727.485	-0.54
727.511	5.46
727.536	-4.54
727.561	-2.54
727.587	-8.54
727.612	-19.54
727.637	1.46
727.663	-8.54
727.688	13.46
727.714	-1.54
727.739	-14.54
727.764	-7.54
727.79	4.46
727.815	-1.54
727.841	15.46
727.866	0.46
727.891	8.46
727.917	-9.54
727.942	-12.54
727.967	-8.54
727.993	-2.54
728.018	-11.54
728.043	-11.54
728.069	3.46
728.094	4.46
728.119	0.46
728.145	11.46
728.17	6.46
728.195	-12.54
728.221	14.46
728.246	-2.54
728.271	-4.54
728.297	4.46
728.322	-3.54
728.347	17.46
728.373	-6.54
728.398	3.46
728.423	-17.54
728.448	-10.54
728.474	0.46
728.499	5.46
728.524	-5.54
728.55	-8.54
728.575	7.46
728.6	7.46
728.625	-1.54
728.651	-2.54
728.676	-4.54
728.701	-11.54
728.727	4.46
728.752	6.46
728.777	1.46
728.802	-5.54
728.828	5.46
728.853	0.46
728.878	-4.54
728.903	-12.54
728.929	-9.54
728.954	-0.54
728.979	-11.54
729.004	-8.54
729.03	-10.54
729.055	7.46
729.08	-15.54
729.105	-10.54
729.13	11.46
729.156	-2.54
729.181	0.46
729.206	-19.54
729.231	-20.54
729.256	5.46
729.282	3.46
729.307	0.46
729.332	-4.54
729.357	-4.54
729.382	3.46
729.408	-9.54
729.433	16.46
729.458	4.46
729.483	1.46
729.508	10.46
729.533	-14.54
729.559	4.46
729.584	-18.54
729.609	6.46
729.634	9.46
729.659	4.46
729.684	11.46
729.71	16.46
729.735	6.46
729.76	5.46
729.785	-2.54
729.81	6.46
729.835	-12.54
729.86	9.46
729.886	14.46
729.911	10.46
729.936	15.46
729.961	17.46
729.986	12.46
730.011	54.46
730.036	195.46
730.061	990.46
730.086	2677.46
730.112	3409.46
730.137	2844.46
730.162	2144.46
730.187	1682.46
730.212	1275.46
730.237	809.46
730.262	460.46
730.287	221.46
730.312	125.46
730.337	74.46
730.362	61.46
730.387	39.46
730.413	18.46
730.438	9.46
730.463	5.46
730.488	-5.54
730.513	19.46
730.538	4.46
730.563	15.46
730.588	21.46
730.613	3.46
730.638	-7.54
730.663	-2.54
730.688	19.46
730.713	14.46
730.738	14.46
730.763	8.46
730.788	1.46
730.813	-1.54
730.838	-7.54
730.863	-8.54
730.888	10.46
730.913	7.46
730.938	-17.54
730.963	34.46
730.988	112.46
731.013	385.46
731.038	606.46
731.063	604.46
731.088	454.46
731.113	348.46
731.138	259.46
731.163	194.46
731.188	108.46
731.213	38.46
731.238	34.46
731.263	17.46
731.288	4.46
731.313	15.46
731.338	3.46
731.363	1.46
731.388	5.46
731.413	4.46
731.438	16.46
731.463	20.46
731.487	7.46
731.512	-11.54
731.537	6.46
731.562	19.46
731.587	1.46
731.612	-3.54
731.637	6.46
731.662	-2.54
731.687	-4.54
731.712	-12.54
731.737	-2.54
731.762	-5.54
731.786	-5.54
731.811	7.46
731.836	-8.54
731.861	-3.54
731.886	1.46
731.911	1.46
731.936	15.46
731.961	-0.54
731.986	-3.54
732.01	-2.54
732.035	8.46
732.06	12.46
732.085	2.46
732.11	8.46
732.135	-8.54
732.16	-9.54
732.184	2.46
732.209	9.46
732.234	8.46
732.259	0.46
732.284	18.46
732.309	-16.54
732.334	-9.54
732.358	-16.54
732.383	-12.54
732.408	-1.54
732.433	9.46
732.458	-2.54
732.482	5.46
732.507	1.46
732.532	5.46
732.557	10.46
732.582	14.46
732.607	19.46
732.631	60.46
732.656	88.46
732.681	152.46
732.706	326.46
732.73	481.46
732.755	415.46
732.78	299.46
732.805	236.46
732.83	176.46
732.854	112.46
732.879	94.46
732.904	37.46
732.929	27.46
732.953	29.46
732.978	9.46
733.003	-0.54
733.028	2.46
733.052	20.46
733.077	2.46
733.102	11.46
733.127	-6.54
733.151	0.46
733.176	2.46
733.201	2.46
733.226	-10.54
733.25	-3.54
733.275	2.46
733.3	3.46
733.324	4.46
733.349	7.46
733.374	22.46
733.399	-11.54
733.423	-1.54
733.448	-7.54
733.473	-6.54
733.497	-17.54
733.522	-15.54
733.547	-4.54
733.571	16.46
733.596	3.46
733.621	16.46
733.646	8.46
733.67	7.46
733.695	-8.54
733.72	-9.54
733.744	15.46
733.769	8.46
733.794	-0.54
733.818	-16.54
733.843	-10.54
733.867	-6.54
733.892	7.46
733.917	3.46
733.941	-6.54
733.966	5.46
733.991	6.46
734.015	9.46
734.04	-7.54
734.065	1.46
734.089	-11.54
734.114	-8.54
734.138	0.46
734.163	8.46
734.188	14.46
734.212	0.46
734.237	7.46
734.261	0.46
734.286	-8.54
734.311	2.46
734.335	-0.54
734.36	4.46
734.384	13.46
734.409	0.46
734.434	-11.54
734.458	-0.54
734.483	-1.54
734.507	-10.54
734.532	2.46
734.556	15.46
734.581	-3.54
734.606	-3.54
734.63	2.46
734.655	-4.54
734.679	12.46
734.704	-11.54
734.728	-1.54
734.753	-10.54
734.777	-10.54
734.802	-6.54
734.826	-4.54
734.851	3.46
734.876	9.46
734.9	-5.54
734.925	10.46
734.949	-7.54
734.974	5.46
734.998	18.46
735.023	-12.54
735.047	-18.54
735.072	4.46
735.096	-7.54
735.121	3.46
735.145	2.46
735.17	-0.54
735.194	2.46
735.219	-7.54
735.243	2.46
735.268	4.46
735.292	-2.54
735.317	3.46
735.341	-0.54
735.365	-13.54
735.39	-2.54
735.414	2.46
735.439	5.46
735.463	0.46
735.488	2.46
735.512	-4.54
735.537	-8.54
735.561	4.46
735.586	-8.54
735.61	7.46
735.634	-4.54
735.659	4.46
735.683	22.46
735.708	-15.54
735.732	-4.54
735.757	-10.54
735.781	0.46
735.805	1.46
735.83	-7.54
735.854	-7.54
735.879	-4.54
735.903	0.46
735.927	-1.54
735.952	-6.54
735.976	-7.54
736.001	-7.54
736.025	-3.54
736.049	8.46
736.074	9.46
736.098	-3.54
736.123	17.46
736.147	-4.54
736.171	-3.54
736.196	-8.54
736.22	-18.54
736.244	-2.54
736.269	3.46
736.293	-9.54
736.317	-13.54
736.342	7.46
736.366	15.46
736.39	18.46
736.415	0.46
736.439	6.46
736.463	0.46
736.488	12.46
736.512	-0.54
736.536	11.46
736.561	18.46
736.585	15.46
736.609	18.46
736.634	2.46
736.658	1.46
736.682	-22.54
736.707	10.46
736.731	-8.54
736.755	4.46
736.78	13.46
736.804	18.46
736.828	9.46
736.852	-4.54
736.877	0.46
736.901	0.46
736.925	1.46
736.949	3.46
736.974	-8.54
736.998	-13.54
737.022	2.46
737.047	-2.54
737.071	12.46
737.095	4.46
737.119	25.46
737.144	8.46
737.168	-3.54
737.192	3.46
737.216	8.46
737.241	-13.54
737.265	8.46
737.289	-3.54
737.313	-4.54
737.337	8.46
737.362	18.46
737.386	11.46
737.41	-18.54
737.434	0.46
737.459	5.46
737.483	12.46
737.507	13.46
737.531	16.46
737.555	-0.54
737.58	-2.54
737.604	0.46
737.628	-14.54
737.652	-14.54
737.676	-2.54
737.701	-0.54
737.725	-0.54
737.749	-0.54
737.773	12.46
737.797	-10.54
737.821	1.46
737.846	3.46
737.87	26.46
737.894	13.46
737.918	6.46
737.942	-8.54
737.966	14.46
737.99	8.46
738.015	17.46
738.039	3.46
738.063	-6.54
738.087	-2.54
738.111	-2.54
738.135	15.46
738.159	3.46
738.184	1.46
738.208	8.46
738.232	9.46
738.256	15.46
738.28	11.46
738.304	10.46
738.328	-6.54
738.352	1.46
738.376	2.46
738.4	10.46
738.425	-2.54
738.449	-0.54
738.473	8.46
738.497	8.46
738.521	7.46
738.545	20.46
738.569	9.46
738.593	4.46
738.617	12.46
738.641	0.46
738.665	-4.54
738.689	12.46
738.713	6.46
738.737	12.46
738.762	11.46
738.786	7.46
738.81	-15.54
738.834	6.46
738.858	4.46
738.882	-4.54
738.906	-4.54
738.93	9.46
738.954	-3.54
738.978	-1.54
739.002	-10.54
739.026	-0.54
739.05	-11.54
739.074	8.46
739.098	14.46
739.122	9.46
739.146	5.46
739.17	13.46
739.194	14.46
739.218	-7.54
739.242	10.46
739.266	-0.54
739.29	20.46
739.314	21.46
739.338	-2.54
739.362	-11.54
739.386	-0.54
739.41	9.46
739.434	-8.54
739.458	5.46
739.482	5.46
739.506	13.46
739.53	2.46
739.554	4.46
739.577	9.46
739.601	1.46
739.625	-9.54
739.649	-12.54
739.673	-11.54
739.697	4.46
739.721	-18.54
739.745	-2.54
739.769	3.46
739.793	11.46
739.817	12.46
739.841	-9.54
739.865	5.46
739.889	-14.54
739.912	-3.54
739.936	-1.54
739.96	6.46
739.984	8.46
740.008	-1.54
740.032	-1.54
740.056	-2.54
740.08	1.46
740.104	3.46
740.127	25.46
740.151	12.46
740.175	13.46
740.199	3.46
740.223	45.46
740.247	5.46
740.271	0.46
740.295	-3.54
740.318	-16.54
740.342	-1.54
740.366	-2.54
740.39	10.46
740.414	3.46
740.438	-9.54
740.461	15.46
740.485	11.46
740.509	-2.54
740.533	11.46
740.557	1.46
740.581	-9.54
740.604	-8.54
740.628	2.46
740.652	18.46
740.676	1.46
740.7	2.46
740.723	0.46
740.747	-4.54
740.771	-2.54
740.795	0.46
740.819	13.46
740.842	16.46
740.866	3.46
740.89	-8.54
740.914	-2.54
740.938	-11.54
740.961	4.46
740.985	3.46
741.009	1.46
741.033	-3.54
741.056	-8.54
741.08	-2.54
741.104	-9.54
741.128	9.46
741.151	19.46
741.175	-9.54
741.199	-1.54
741.223	22.46
741.246	9.46
741.27	10.46
741.294	12.46
741.318	-2.54
741.341	9.46
741.365	3.46
741.389	-7.54
741.413	9.46
741.436	11.46
741.46	4.46
741.484	25.46
741.507	-10.54
741.531	17.46
741.555	11.46
741.579	1.46
741.602	6.46
741.626	4.46
741.65	-3.54
741.673	7.46
741.697	13.46
741.721	-1.54
741.744	-6.54
741.768	-8.54
741.792	5.46
741.815	-3.54
741.839	24.46
741.863	13.46
741.886	11.46
741.91	0.46
741.934	7.46
741.957	-1.54
741.981	-11.54
742.005	2.46
742.028	-11.54
742.052	-15.54
742.075	-0.54
742.099	8.46
742.123	-6.54
742.146	-10.54
742.17	11.46
742.194	-10.54
742.217	-10.54
742.241	-6.54
742.264	7.46
742.288	30.46
742.312	-0.54
742.335	-3.54
742.359	7.46
742.382	3.46
742.406	9.46
742.43	-9.54
742.453	10.46
742.477	-3.54
742.5	-1.54
742.524	0.46
742.548	-4.54
742.571	5.46
742.595	-0.54
742.618	-7.54
742.642	-8.54
742.665	10.46
742.689	-9.54
742.712	12.46
742.736	-3.54
742.76	8.46
742.783	0.46
742.807	5.46
742.83	16.46
742.854	-12.54
742.877	-0.54
742.901	4.46
742.924	-12.54
742.948	-6.54
742.971	3.46
742.995	-0.54
743.018	-4.54
743.042	-10.54
743.065	-3.54
743.089	-16.54
743.112	7.46
743.136	0.46
743.159	-13.54
743.183	-5.54
743.206	9.46
743.23	-2.54
743.253	6.46
743.277	8.46
743.3	-10.54
743.324	-0.54
743.347	-0.54
743.371	15.46
743.394	18.46
743.418	11.46
743.441	6.46
743.465	-4.54
743.488	4.46
743.512	-12.54
743.535	1.46
743.558	1.46
743.582	12.46
743.605	9.46
743.629	-7.54
743.652	-4.54
743.676	-1.54
743.699	9.46
743.723	-9.54
743.746	5.46
743.769	-10.54
743.793	4.46
743.816	-9.54
743.84	13.46
743.863	-17.54
743.886	-10.54
743.91	3.46
743.933	1.46
743.957	-7.54
743.98	5.46
744.003	-8.54
744.027	0.46
744.05	3.46
744.074	3.46
744.097	-5.54
744.12	-14.54
744.144	-16.54
744.167	3.46
744.19	-12.54
744.214	-9.54
744.237	-6.54
744.26	13.46
744.284	8.46
744.307	-1.54
744.331	17.46
744.354	-4.54
744.377	-6.54
744.401	-17.54
744.424	-5.54
744.447	-13.54
744.471	-9.54
