Data from HighRes_mercury_15_13_11_07_2024_HR4C61891__47__15-14-27-888.txt Node

Date: Thu Nov 07 15:14:27 EST 2024
User: crc00042
Spectrometer: HR4C6189
Trigger mode: 4
Integration Time (sec): 1.000000E-1
Scans to average: 1
Electric dark correction enabled: true
Nonlinearity correction enabled: false
Boxcar width: 0
XAxis mode: Wavelengths
Number of Pixels in Spectrum: 3648
>>>>>Begin Spectral Data<<<<<
639.567	-33.38
639.602	-33.38
639.636	-33.38
639.67	-46.38
639.704	-23.38
639.738	-0.38
639.773	9.62
639.807	-20.38
639.841	1.62
639.875	20.62
639.909	-6.38
639.943	-8.38
639.978	2.62
640.012	-7.38
640.046	20.62
640.08	-1.38
640.114	0.62
640.148	-11.38
640.182	-4.38
640.217	-2.38
640.251	32.62
640.285	17.62
640.319	-6.38
640.353	3.62
640.387	6.62
640.421	6.62
640.455	2.62
640.49	1.62
640.524	2.62
640.558	26.62
640.592	-6.38
640.626	0.62
640.66	-2.38
640.694	0.62
640.728	-3.38
640.762	15.62
640.796	9.62
640.83	10.62
640.865	1.62
640.899	0.62
640.933	0.62
640.967	7.62
641.001	2.62
641.035	11.62
641.069	-9.38
641.103	-15.38
641.137	-1.38
641.171	-13.38
641.205	-3.38
641.239	9.62
641.273	20.62
641.307	-1.38
641.341	13.62
641.375	7.62
641.409	-10.38
641.443	6.62
641.477	6.62
641.511	16.62
641.545	-0.38
641.579	-19.38
641.614	18.62
641.648	11.62
641.682	-6.38
641.716	1.62
641.75	8.62
641.784	14.62
641.818	5.62
641.852	0.62
641.886	-0.38
641.919	13.62
641.953	-4.38
641.987	-6.38
642.021	-8.38
642.055	8.62
642.089	-2.38
642.123	6.62
642.157	7.62
642.191	-6.38
642.225	8.62
642.259	-8.38
642.293	4.62
642.327	10.62
642.361	0.62
642.395	15.62
642.429	20.62
642.463	9.62
642.497	24.62
642.531	-0.38
642.565	-8.38
642.599	11.62
642.633	-15.38
642.666	15.62
642.7	4.62
642.734	5.62
642.768	12.62
642.802	14.62
642.836	-2.38
642.87	-5.38
642.904	-5.38
642.938	-0.38
642.972	-3.38
643.005	-11.38
643.039	21.62
643.073	-12.38
643.107	-9.38
643.141	-10.38
643.175	-10.38
643.209	7.62
643.243	-2.38
643.276	7.62
643.31	-8.38
643.344	-3.38
643.378	5.62
643.412	24.62
643.446	6.62
643.48	-9.38
643.513	2.62
643.547	6.62
643.581	-12.38
643.615	5.62
643.649	12.62
643.683	7.62
643.716	14.62
643.75	7.62
643.784	-10.38
643.818	10.62
643.852	-1.38
643.886	3.62
643.919	5.62
643.953	-10.38
643.987	-6.38
644.021	20.62
644.055	-8.38
644.088	6.62
644.122	6.62
644.156	8.62
644.19	17.62
644.224	-8.38
644.257	-4.38
644.291	9.62
644.325	2.62
644.359	-13.38
644.392	11.62
644.426	15.62
644.46	16.62
644.494	-3.38
644.527	-7.38
644.561	8.62
644.595	11.62
644.629	-0.38
644.662	-16.38
644.696	11.62
644.73	12.62
644.764	21.62
644.797	-0.38
644.831	-2.38
644.865	6.62
644.899	9.62
644.932	26.62
644.966	8.62
645	18.62
645.033	18.62
645.067	0.62
645.101	2.62
645.135	8.62
645.168	0.62
645.202	-1.38
645.236	3.62
645.269	9.62
645.303	2.62
645.337	-4.38
645.37	-8.38
645.404	9.62
645.438	-1.38
645.471	1.62
645.505	3.62
645.539	11.62
645.572	10.62
645.606	-4.38
645.64	2.62
645.673	-2.38
645.707	8.62
645.741	2.62
645.774	-4.38
645.808	7.62
645.842	5.62
645.875	-8.38
645.909	-8.38
645.943	-14.38
645.976	-0.38
646.01	17.62
646.043	9.62
646.077	13.62
646.111	1.62
646.144	-2.38
646.178	0.62
646.212	-13.38
646.245	-1.38
646.279	-1.38
646.312	3.62
646.346	24.62
646.38	3.62
646.413	8.62
646.447	-5.38
646.48	8.62
646.514	22.62
646.547	-1.38
646.581	4.62
646.615	8.62
646.648	8.62
646.682	12.62
646.715	-11.38
646.749	16.62
646.782	5.62
646.816	1.62
646.85	0.62
646.883	-7.38
646.917	2.62
646.95	5.62
646.984	0.62
647.017	1.62
647.051	-0.38
647.084	8.62
647.118	-6.38
647.151	3.62
647.185	6.62
647.218	-1.38
647.252	7.62
647.285	-4.38
647.319	-16.38
647.353	11.62
647.386	22.62
647.42	5.62
647.453	2.62
647.487	1.62
647.52	10.62
647.553	-8.38
647.587	-11.38
647.62	4.62
647.654	7.62
647.687	14.62
647.721	22.62
647.754	5.62
647.788	-1.38
647.821	-4.38
647.855	4.62
647.888	-1.38
647.922	7.62
647.955	15.62
647.989	5.62
648.022	0.62
648.055	14.62
648.089	5.62
648.122	35.62
648.156	-2.38
648.189	9.62
648.223	18.62
648.256	8.62
648.29	-0.38
648.323	-7.38
648.356	12.62
648.39	11.62
648.423	-2.38
648.457	-9.38
648.49	23.62
648.523	19.62
648.557	-21.38
648.59	-3.38
648.624	2.62
648.657	21.62
648.69	17.62
648.724	-5.38
648.757	24.62
648.791	2.62
648.824	7.62
648.857	24.62
648.891	9.62
648.924	4.62
648.957	23.62
648.991	-15.38
649.024	13.62
649.057	11.62
649.091	8.62
649.124	14.62
649.158	11.62
649.191	30.62
649.224	-0.38
649.258	16.62
649.291	-8.38
649.324	7.62
649.358	-6.38
649.391	6.62
649.424	9.62
649.458	-8.38
649.491	-7.38
649.524	-2.38
649.557	-0.38
649.591	-15.38
649.624	19.62
649.657	-13.38
649.691	-3.38
649.724	-0.38
649.757	-1.38
649.791	-7.38
649.824	-0.38
649.857	4.62
649.89	-1.38
649.924	-21.38
649.957	3.62
649.99	-20.38
650.023	-18.38
650.057	-1.38
650.09	-0.38
650.123	8.62
650.157	6.62
650.19	27.62
650.223	-0.38
650.256	-15.38
650.29	6.62
650.323	-3.38
650.356	3.62
650.389	2.62
650.423	15.62
650.456	10.62
650.489	5.62
650.522	23.62
650.555	25.62
650.589	5.62
650.622	6.62
650.655	17.62
650.688	15.62
650.721	16.62
650.755	11.62
650.788	26.62
650.821	-9.38
650.854	0.62
650.887	7.62
650.921	-5.38
650.954	8.62
650.987	-6.38
651.02	9.62
651.053	3.62
651.087	-2.38
651.12	8.62
651.153	8.62
651.186	-8.38
651.219	1.62
651.252	9.62
651.286	-10.38
651.319	-8.38
651.352	11.62
651.385	15.62
651.418	5.62
651.451	17.62
651.484	3.62
651.518	4.62
651.551	14.62
651.584	-2.38
651.617	12.62
651.65	2.62
651.683	5.62
651.716	-2.38
651.749	-3.38
651.783	9.62
651.816	12.62
651.849	6.62
651.882	1.62
651.915	4.62
651.948	12.62
651.981	19.62
652.014	-21.38
652.047	-12.38
652.08	2.62
652.114	2.62
652.147	-13.38
652.18	21.62
652.213	31.62
652.246	2.62
652.279	-0.38
652.312	3.62
652.345	-5.38
652.378	7.62
652.411	17.62
652.444	-3.38
652.477	-5.38
652.51	-5.38
652.543	12.62
652.576	5.62
652.609	-17.38
652.642	2.62
652.675	1.62
652.709	13.62
652.742	18.62
652.775	5.62
652.808	0.62
652.841	4.62
652.874	17.62
652.907	18.62
652.94	2.62
652.973	-16.38
653.006	-0.38
653.039	-10.38
653.072	-1.38
653.105	-4.38
653.138	-25.38
653.171	-17.38
653.204	-8.38
653.237	12.62
653.27	-13.38
653.303	-1.38
653.336	11.62
653.368	0.62
653.401	14.62
653.434	-3.38
653.467	10.62
653.5	-7.38
653.533	-9.38
653.566	0.62
653.599	7.62
653.632	-5.38
653.665	3.62
653.698	-8.38
653.731	-11.38
653.764	-5.38
653.797	7.62
653.83	19.62
653.863	-1.38
653.896	6.62
653.929	-2.38
653.961	5.62
653.994	4.62
654.027	0.62
654.06	6.62
654.093	2.62
654.126	-12.38
654.159	-2.38
654.192	-10.38
654.225	9.62
654.258	-7.38
654.29	-7.38
654.323	0.62
654.356	-6.38
654.389	-2.38
654.422	8.62
654.455	-1.38
654.488	3.62
654.521	-8.38
654.553	2.62
654.586	4.62
654.619	0.62
654.652	6.62
654.685	13.62
654.718	20.62
654.751	13.62
654.783	-3.38
654.816	14.62
654.849	-0.38
654.882	1.62
654.915	-5.38
654.948	5.62
654.98	0.62
655.013	24.62
655.046	2.62
655.079	2.62
655.112	2.62
655.144	-22.38
655.177	11.62
655.21	14.62
655.243	12.62
655.276	14.62
655.308	2.62
655.341	7.62
655.374	13.62
655.407	-8.38
655.44	-17.38
655.472	3.62
655.505	-5.38
655.538	-0.38
655.571	5.62
655.603	-10.38
655.636	4.62
655.669	8.62
655.702	-2.38
655.734	-7.38
655.767	-10.38
655.8	-5.38
655.833	1.62
655.865	9.62
655.898	3.62
655.931	3.62
655.964	-4.38
655.996	-11.38
656.029	1.62
656.062	3.62
656.095	-4.38
656.127	-17.38
656.16	7.62
656.193	8.62
656.225	-9.38
656.258	16.62
656.291	-0.38
656.324	0.62
656.356	17.62
656.389	2.62
656.422	6.62
656.454	-9.38
656.487	1.62
656.52	10.62
656.552	-3.38
656.585	-4.38
656.618	2.62
656.65	9.62
656.683	-5.38
656.716	8.62
656.748	-8.38
656.781	-8.38
656.814	-8.38
656.846	-0.38
656.879	2.62
656.912	5.62
656.944	-8.38
656.977	-6.38
657.01	-2.38
657.042	-4.38
657.075	4.62
657.108	1.62
657.14	0.62
657.173	21.62
657.205	20.62
657.238	3.62
657.271	-1.38
657.303	2.62
657.336	10.62
657.369	5.62
657.401	1.62
657.434	4.62
657.466	6.62
657.499	-3.38
657.532	-8.38
657.564	18.62
657.597	-1.38
657.629	1.62
657.662	-9.38
657.694	-10.38
657.727	-5.38
657.76	2.62
657.792	-7.38
657.825	-20.38
657.857	-1.38
657.89	-3.38
657.922	15.62
657.955	-3.38
657.987	10.62
658.02	4.62
658.053	-7.38
658.085	-14.38
658.118	-12.38
658.15	19.62
658.183	17.62
658.215	12.62
658.248	10.62
658.28	-3.38
658.313	4.62
658.345	7.62
658.378	16.62
658.41	8.62
658.443	5.62
658.475	-5.38
658.508	-0.38
658.54	3.62
658.573	-5.38
658.605	8.62
658.638	-15.38
658.67	-8.38
658.703	7.62
658.735	5.62
658.768	6.62
658.8	-14.38
658.833	0.62
658.865	5.62
658.898	-1.38
658.93	-4.38
658.963	9.62
658.995	-10.38
659.028	-3.38
659.06	14.62
659.092	-3.38
659.125	3.62
659.157	27.62
659.19	-22.38
659.222	-3.38
659.255	2.62
659.287	13.62
659.32	11.62
659.352	-5.38
659.384	7.62
659.417	1.62
659.449	1.62
659.482	14.62
659.514	-16.38
659.546	-6.38
659.579	-12.38
659.611	2.62
659.644	7.62
659.676	0.62
659.708	-4.38
659.741	-7.38
659.773	17.62
659.806	0.62
659.838	6.62
659.87	7.62
659.903	-0.38
659.935	5.62
659.967	19.62
660	6.62
660.032	-22.38
660.065	13.62
660.097	0.62
660.129	10.62
660.162	-8.38
660.194	7.62
660.226	9.62
660.259	18.62
660.291	-7.38
660.323	-15.38
660.356	-7.38
660.388	-9.38
660.42	8.62
660.453	4.62
660.485	6.62
660.517	0.62
660.55	26.62
660.582	4.62
660.614	10.62
660.647	-9.38
660.679	-17.38
660.711	0.62
660.743	-12.38
660.776	-11.38
660.808	-5.38
660.84	3.62
660.873	15.62
660.905	-3.38
660.937	-1.38
660.969	-21.38
661.002	-14.38
661.034	16.62
661.066	2.62
661.099	10.62
661.131	14.62
661.163	12.62
661.195	4.62
661.228	34.62
661.26	3.62
661.292	1.62
661.324	16.62
661.357	11.62
661.389	-2.38
661.421	1.62
661.453	-20.38
661.485	-7.38
661.518	-2.38
661.55	-19.38
661.582	-21.38
661.614	6.62
661.647	17.62
661.679	-1.38
661.711	-3.38
661.743	-16.38
661.775	8.62
661.808	4.62
661.84	-5.38
661.872	-6.38
661.904	6.62
661.936	5.62
661.969	3.62
662.001	2.62
662.033	-5.38
662.065	3.62
662.097	15.62
662.129	19.62
662.162	-11.38
662.194	12.62
662.226	3.62
662.258	10.62
662.29	13.62
662.322	-9.38
662.355	-3.38
662.387	25.62
662.419	5.62
662.451	14.62
662.483	9.62
662.515	-5.38
662.547	-8.38
662.58	6.62
662.612	-16.38
662.644	-36.38
662.676	-0.38
662.708	15.62
662.74	10.62
662.772	13.62
662.804	4.62
662.836	16.62
662.869	-1.38
662.901	7.62
662.933	19.62
662.965	22.62
662.997	6.62
663.029	-23.38
663.061	8.62
663.093	-11.38
663.125	9.62
663.157	11.62
663.189	5.62
663.221	-0.38
663.254	-16.38
663.286	14.62
663.318	-3.38
663.35	-5.38
663.382	-15.38
663.414	-1.38
663.446	5.62
663.478	-17.38
663.51	3.62
663.542	8.62
663.574	-13.38
663.606	15.62
663.638	-10.38
663.67	4.62
663.702	17.62
663.734	4.62
663.766	0.62
663.798	5.62
663.83	-3.38
663.862	-18.38
663.894	-11.38
663.926	-5.38
663.958	17.62
663.99	9.62
664.022	0.62
664.054	12.62
664.086	-13.38
664.118	-17.38
664.15	-17.38
664.182	14.62
664.214	-11.38
664.246	17.62
664.278	-1.38
664.31	1.62
664.342	10.62
664.374	-12.38
664.406	-2.38
664.438	-0.38
664.47	11.62
664.502	-3.38
664.534	-10.38
664.566	-15.38
664.598	6.62
664.63	4.62
664.662	-2.38
664.693	8.62
664.725	-12.38
664.757	-9.38
664.789	-4.38
664.821	1.62
664.853	16.62
664.885	-7.38
664.917	-11.38
664.949	1.62
664.981	21.62
665.013	-9.38
665.045	-21.38
665.076	15.62
665.108	0.62
665.14	-0.38
665.172	10.62
665.204	-8.38
665.236	4.62
665.268	4.62
665.3	5.62
665.331	-1.38
665.363	8.62
665.395	-7.38
665.427	7.62
665.459	15.62
665.491	7.62
665.523	-4.38
665.555	1.62
665.586	3.62
665.618	7.62
665.65	-10.38
665.682	12.62
665.714	15.62
665.746	-5.38
665.777	-0.38
665.809	3.62
665.841	11.62
665.873	-7.38
665.905	-1.38
665.937	-1.38
665.968	2.62
666	-0.38
666.032	2.62
666.064	-0.38
666.096	5.62
666.127	7.62
666.159	15.62
666.191	-2.38
666.223	17.62
666.255	-5.38
666.286	0.62
666.318	2.62
666.35	16.62
666.382	-2.38
666.413	1.62
666.445	-8.38
666.477	-12.38
666.509	-0.38
666.54	7.62
666.572	5.62
666.604	-4.38
666.636	-1.38
666.667	5.62
666.699	8.62
666.731	2.62
666.763	-8.38
666.794	5.62
666.826	-3.38
666.858	6.62
666.89	14.62
666.921	6.62
666.953	-3.38
666.985	9.62
667.017	24.62
667.048	4.62
667.08	-19.38
667.112	-1.38
667.143	-1.38
667.175	11.62
667.207	9.62
667.238	5.62
667.27	0.62
667.302	-1.38
667.334	-21.38
667.365	12.62
667.397	6.62
667.429	-13.38
667.46	16.62
667.492	8.62
667.524	-4.38
667.555	13.62
667.587	0.62
667.619	-11.38
667.65	-13.38
667.682	11.62
667.714	18.62
667.745	-5.38
667.777	1.62
667.808	5.62
667.84	8.62
667.872	16.62
667.903	10.62
667.935	0.62
667.967	-11.38
667.998	-7.38
668.03	9.62
668.061	-1.38
668.093	-3.38
668.125	4.62
668.156	4.62
668.188	-2.38
668.22	10.62
668.251	20.62
668.283	2.62
668.314	8.62
668.346	0.62
668.377	14.62
668.409	13.62
668.441	30.62
668.472	8.62
668.504	3.62
668.535	6.62
668.567	19.62
668.599	-3.38
668.63	9.62
668.662	4.62
668.693	23.62
668.725	19.62
668.756	8.62
668.788	8.62
668.819	12.62
668.851	2.62
668.882	15.62
668.914	2.62
668.946	7.62
668.977	-5.38
669.009	-12.38
669.04	-8.38
669.072	9.62
669.103	7.62
669.135	-21.38
669.166	1.62
669.198	8.62
669.229	11.62
669.261	2.62
669.292	-0.38
669.324	-2.38
669.355	-0.38
669.387	-9.38
669.418	23.62
669.45	-16.38
669.481	1.62
669.513	-3.38
669.544	-5.38
669.576	7.62
669.607	34.62
669.639	19.62
669.67	-6.38
669.701	5.62
669.733	-8.38
669.764	-0.38
669.796	2.62
669.827	5.62
669.859	-14.38
669.89	15.62
669.922	19.62
669.953	12.62
669.985	9.62
670.016	15.62
670.047	22.62
670.079	5.62
670.11	3.62
670.142	20.62
670.173	-5.38
670.204	-7.38
670.236	6.62
670.267	-14.38
670.299	1.62
670.33	-1.38
670.362	6.62
670.393	-6.38
670.424	5.62
670.456	-13.38
670.487	-10.38
670.518	-7.38
670.55	4.62
670.581	2.62
670.613	0.62
670.644	4.62
670.675	1.62
670.707	-12.38
670.738	10.62
670.769	-7.38
670.801	-2.38
670.832	1.62
670.864	3.62
670.895	7.62
670.926	-7.38
670.958	9.62
670.989	-0.38
671.02	-9.38
671.052	-5.38
671.083	-7.38
671.114	-4.38
671.146	-4.38
671.177	7.62
671.208	-3.38
671.24	3.62
671.271	-6.38
671.302	8.62
671.333	-3.38
671.365	11.62
671.396	-0.38
671.427	13.62
671.459	9.62
671.49	12.62
671.521	9.62
671.553	0.62
671.584	9.62
671.615	-2.38
671.646	13.62
671.678	-2.38
671.709	-15.38
671.74	-1.38
671.771	-24.38
671.803	-1.38
671.834	10.62
671.865	-6.38
671.896	1.62
671.928	3.62
671.959	-18.38
671.99	-12.38
672.021	-0.38
672.053	-5.38
672.084	2.62
672.115	8.62
672.146	1.62
672.178	-7.38
672.209	2.62
672.24	7.62
672.271	22.62
672.303	22.62
672.334	1.62
672.365	-7.38
672.396	-6.38
672.427	12.62
672.459	7.62
672.49	13.62
672.521	19.62
672.552	12.62
672.583	0.62
672.615	-0.38
672.646	5.62
672.677	-13.38
672.708	-0.38
672.739	6.62
672.77	-2.38
672.802	0.62
672.833	-5.38
672.864	-7.38
672.895	-11.38
672.926	-7.38
672.957	-20.38
672.989	-16.38
673.02	8.62
673.051	1.62
673.082	21.62
673.113	4.62
673.144	13.62
673.175	0.62
673.206	-8.38
673.238	-4.38
673.269	-8.38
673.3	-1.38
673.331	4.62
673.362	12.62
673.393	8.62
673.424	19.62
673.455	6.62
673.487	29.62
673.518	12.62
673.549	12.62
673.58	4.62
673.611	-2.38
673.642	-9.38
673.673	-9.38
673.704	8.62
673.735	-1.38
673.766	-5.38
673.797	-6.38
673.828	9.62
673.86	-17.38
673.891	-10.38
673.922	-19.38
673.953	0.62
673.984	-5.38
674.015	11.62
674.046	10.62
674.077	16.62
674.108	6.62
674.139	3.62
674.17	-4.38
674.201	-13.38
674.232	0.62
674.263	1.62
674.294	-14.38
674.325	-15.38
674.356	-9.38
674.387	4.62
674.418	0.62
674.449	-20.38
674.48	-24.38
674.511	6.62
674.542	3.62
674.573	-8.38
674.604	5.62
674.635	1.62
674.666	13.62
674.697	1.62
674.728	9.62
674.759	-9.38
674.79	-17.38
674.821	-16.38
674.852	2.62
674.883	-3.38
674.914	-10.38
674.945	1.62
674.976	16.62
675.007	11.62
675.038	4.62
675.069	14.62
675.1	-8.38
675.131	16.62
675.162	-3.38
675.193	4.62
675.224	8.62
675.254	1.62
675.285	14.62
675.316	33.62
675.347	-0.38
675.378	1.62
675.409	8.62
675.44	17.62
675.471	1.62
675.502	-11.38
675.533	-10.38
675.564	6.62
675.595	1.62
675.625	25.62
675.656	12.62
675.687	2.62
675.718	-24.38
675.749	1.62
675.78	1.62
675.811	-1.38
675.842	9.62
675.873	8.62
675.903	1.62
675.934	-17.38
675.965	-14.38
675.996	-17.38
676.027	3.62
676.058	-0.38
676.089	-6.38
676.119	-17.38
676.15	10.62
676.181	-9.38
676.212	-8.38
676.243	8.62
676.274	12.62
676.304	14.62
676.335	-20.38
676.366	-1.38
676.397	2.62
676.428	-2.38
676.459	5.62
676.489	33.62
676.52	18.62
676.551	-0.38
676.582	-12.38
676.613	18.62
676.643	-6.38
676.674	7.62
676.705	5.62
676.736	4.62
676.767	12.62
676.797	11.62
676.828	2.62
676.859	3.62
676.89	-7.38
676.92	-13.38
676.951	-5.38
676.982	-6.38
677.013	-7.38
677.044	20.62
677.074	22.62
677.105	-5.38
677.136	-6.38
677.167	-0.38
677.197	13.62
677.228	10.62
677.259	-6.38
677.289	-15.38
677.32	-17.38
677.351	-23.38
677.382	-1.38
677.412	-2.38
677.443	15.62
677.474	12.62
677.505	-1.38
677.535	8.62
677.566	-6.38
677.597	-13.38
677.627	-5.38
677.658	-8.38
677.689	0.62
677.72	5.62
677.75	-1.38
677.781	-7.38
677.812	-1.38
677.842	-2.38
677.873	-6.38
677.904	-2.38
677.934	7.62
677.965	-3.38
677.996	-19.38
678.026	2.62
678.057	0.62
678.088	-1.38
678.118	-5.38
678.149	-9.38
678.18	7.62
678.21	14.62
678.241	13.62
678.272	-5.38
678.302	-15.38
678.333	4.62
678.363	3.62
678.394	7.62
678.425	-5.38
678.455	9.62
678.486	1.62
678.517	0.62
678.547	-8.38
678.578	-2.38
678.608	-12.38
678.639	9.62
678.67	4.62
678.7	-12.38
678.731	-5.38
678.761	-6.38
678.792	-5.38
678.823	8.62
678.853	5.62
678.884	-4.38
678.914	7.62
678.945	-14.38
678.975	2.62
679.006	7.62
679.037	-18.38
679.067	26.62
679.098	3.62
679.128	0.62
679.159	0.62
679.189	5.62
679.22	-6.38
679.25	0.62
679.281	5.62
679.312	-7.38
679.342	13.62
679.373	36.62
679.403	11.62
679.434	17.62
679.464	6.62
679.495	2.62
679.525	3.62
679.556	-0.38
679.586	3.62
679.617	1.62
679.647	-0.38
679.678	5.62
679.708	7.62
679.739	9.62
679.769	14.62
679.8	-7.38
679.83	-4.38
679.861	4.62
679.891	5.62
679.922	-4.38
679.952	3.62
679.983	12.62
680.013	11.62
680.044	-0.38
680.074	14.62
680.105	7.62
680.135	-2.38
680.165	17.62
680.196	-9.38
680.226	-4.38
680.257	10.62
680.287	9.62
680.318	12.62
680.348	-25.38
680.379	-1.38
680.409	-5.38
680.439	8.62
680.47	9.62
680.5	-7.38
680.531	0.62
680.561	27.62
680.592	20.62
680.622	20.62
680.652	-10.38
680.683	13.62
680.713	2.62
680.744	-0.38
680.774	-15.38
680.804	25.62
680.835	-6.38
680.865	-2.38
680.896	6.62
680.926	-3.38
680.956	7.62
680.987	1.62
681.017	-3.38
681.047	10.62
681.078	-0.38
681.108	0.62
681.139	10.62
681.169	7.62
681.199	-4.38
681.23	11.62
681.26	-4.38
681.29	19.62
681.321	-20.38
681.351	5.62
681.381	-6.38
681.412	8.62
681.442	-9.38
681.472	12.62
681.503	-5.38
681.533	7.62
681.563	10.62
681.594	3.62
681.624	4.62
681.654	6.62
681.685	-3.38
681.715	-5.38
681.745	7.62
681.775	1.62
681.806	-3.38
681.836	-0.38
681.866	-12.38
681.897	2.62
681.927	-10.38
681.957	-21.38
681.987	-0.38
682.018	-1.38
682.048	8.62
682.078	4.62
682.109	15.62
682.139	4.62
682.169	3.62
682.199	5.62
682.23	-11.38
682.26	13.62
682.29	-0.38
682.32	0.62
682.351	-0.38
682.381	0.62
682.411	7.62
682.441	-12.38
682.472	-9.38
682.502	-19.38
682.532	-11.38
682.562	-7.38
682.592	8.62
682.623	18.62
682.653	5.62
682.683	-4.38
682.713	-11.38
682.743	3.62
682.774	-19.38
682.804	0.62
682.834	15.62
682.864	0.62
682.894	-6.38
682.925	-8.38
682.955	1.62
682.985	-10.38
683.015	4.62
683.045	3.62
683.076	-12.38
683.106	1.62
683.136	11.62
683.166	3.62
683.196	-8.38
683.226	-1.38
683.257	-8.38
683.287	-0.38
683.317	-12.38
683.347	-4.38
683.377	-10.38
683.407	8.62
683.437	16.62
683.468	19.62
683.498	3.62
683.528	8.62
683.558	-3.38
683.588	-7.38
683.618	8.62
683.648	6.62
683.678	1.62
683.708	26.62
683.739	4.62
683.769	-4.38
683.799	4.62
683.829	-2.38
683.859	12.62
683.889	16.62
683.919	10.62
683.949	5.62
683.979	-20.38
684.009	-14.38
684.039	-1.38
684.07	-12.38
684.1	14.62
684.13	11.62
684.16	-3.38
684.19	4.62
684.22	12.62
684.25	-0.38
684.28	-11.38
684.31	17.62
684.34	5.62
684.37	-7.38
684.4	0.62
684.43	3.62
684.46	10.62
684.49	-4.38
684.52	6.62
684.55	14.62
684.58	-2.38
684.61	6.62
684.64	1.62
684.67	8.62
684.7	2.62
684.73	11.62
684.76	-2.38
684.79	18.62
684.82	3.62
684.85	-5.38
684.88	10.62
684.91	9.62
684.94	3.62
684.97	2.62
685	-1.38
685.03	-10.38
685.06	-15.38
685.09	5.62
685.12	15.62
685.15	-14.38
685.18	14.62
685.21	4.62
685.24	14.62
685.27	14.62
685.3	-4.38
685.33	3.62
685.36	-9.38
685.39	0.62
685.42	0.62
685.45	-4.38
685.48	15.62
685.51	6.62
685.54	2.62
685.569	2.62
685.599	10.62
685.629	12.62
685.659	2.62
685.689	-24.38
685.719	-1.38
685.749	-19.38
685.779	4.62
685.809	3.62
685.839	0.62
685.869	10.62
685.898	8.62
685.928	11.62
685.958	-16.38
685.988	17.62
686.018	-8.38
686.048	5.62
686.078	16.62
686.108	15.62
686.137	14.62
686.167	-6.38
686.197	-15.38
686.227	-6.38
686.257	27.62
686.287	22.62
686.317	2.62
686.346	0.62
686.376	-9.38
686.406	-9.38
686.436	-5.38
686.466	-6.38
686.496	-4.38
686.525	12.62
686.555	12.62
686.585	17.62
686.615	13.62
686.645	9.62
686.675	2.62
686.704	17.62
686.734	10.62
686.764	16.62
686.794	-0.38
686.824	0.62
686.853	12.62
686.883	22.62
686.913	20.62
686.943	-4.38
686.973	-18.38
687.002	-1.38
687.032	-0.38
687.062	-6.38
687.092	15.62
687.121	6.62
687.151	3.62
687.181	-7.38
687.211	9.62
687.24	1.62
687.27	-5.38
687.3	-6.38
687.33	-15.38
687.359	-21.38
687.389	-14.38
687.419	3.62
687.449	15.62
687.478	25.62
687.508	6.62
687.538	6.62
687.568	6.62
687.597	9.62
687.627	12.62
687.657	12.62
687.686	25.62
687.716	22.62
687.746	-9.38
687.776	-7.38
687.805	-7.38
687.835	-3.38
687.865	22.62
687.894	-1.38
687.924	2.62
687.954	2.62
687.983	-9.38
688.013	2.62
688.043	10.62
688.072	0.62
688.102	9.62
688.132	-5.38
688.161	-6.38
688.191	10.62
688.221	26.62
688.25	-3.38
688.28	13.62
688.31	-9.38
688.339	0.62
688.369	11.62
688.399	-11.38
688.428	-6.38
688.458	12.62
688.488	-2.38
688.517	14.62
688.547	-12.38
688.576	29.62
688.606	24.62
688.636	9.62
688.665	9.62
688.695	2.62
688.725	15.62
688.754	14.62
688.784	0.62
688.813	16.62
688.843	7.62
688.873	9.62
688.902	-12.38
688.932	-0.38
688.961	0.62
688.991	1.62
689.02	-4.38
689.05	9.62
689.08	5.62
689.109	8.62
689.139	3.62
689.168	-8.38
689.198	-10.38
689.227	-11.38
689.257	10.62
689.287	-0.38
689.316	3.62
689.346	-8.38
689.375	-2.38
689.405	2.62
689.434	2.62
689.464	-4.38
689.493	2.62
689.523	-13.38
689.552	-1.38
689.582	-1.38
689.611	13.62
689.641	-11.38
689.67	-1.38
689.7	16.62
689.73	18.62
689.759	18.62
689.789	10.62
689.818	-0.38
689.848	8.62
689.877	7.62
689.906	2.62
689.936	4.62
689.965	8.62
689.995	3.62
690.024	13.62
690.054	-13.38
690.083	5.62
690.113	-0.38
690.142	-7.38
690.172	-11.38
690.201	-2.38
690.231	18.62
690.26	-3.38
690.29	-5.38
690.319	14.62
690.348	-1.38
690.378	6.62
690.407	1.62
690.437	6.62
690.466	1.62
690.496	-13.38
690.525	7.62
690.555	5.62
690.584	-0.38
690.613	-2.38
690.643	11.62
690.672	2.62
690.702	18.62
690.731	18.62
690.76	21.62
690.79	57.62
690.819	43.62
690.849	35.62
690.878	18.62
690.907	35.62
690.937	27.62
690.966	17.62
690.996	4.62
691.025	3.62
691.054	-4.38
691.084	-0.38
691.113	7.62
691.142	15.62
691.172	18.62
691.201	1.62
691.23	16.62
691.26	17.62
691.289	9.62
691.319	-7.38
691.348	9.62
691.377	20.62
691.407	9.62
691.436	17.62
691.465	11.62
691.495	-1.38
691.524	5.62
691.553	-1.38
691.583	-8.38
691.612	11.62
691.641	16.62
691.67	2.62
691.7	9.62
691.729	-6.38
691.758	4.62
691.788	-5.38
691.817	-4.38
691.846	-6.38
691.876	1.62
691.905	4.62
691.934	-2.38
691.963	4.62
691.993	8.62
692.022	-2.38
692.051	2.62
692.081	14.62
692.11	2.62
692.139	-5.38
692.168	14.62
692.198	32.62
692.227	12.62
692.256	6.62
692.285	1.62
692.315	5.62
692.344	-2.38
692.373	-3.38
692.402	0.62
692.432	-0.38
692.461	1.62
692.49	-9.38
692.519	-12.38
692.548	2.62
692.578	10.62
692.607	5.62
692.636	-14.38
692.665	21.62
692.694	9.62
692.724	6.62
692.753	11.62
692.782	2.62
692.811	-2.38
692.84	8.62
692.87	0.62
692.899	-0.38
692.928	-5.38
692.957	5.62
692.986	12.62
693.016	11.62
693.045	10.62
693.074	8.62
693.103	7.62
693.132	9.62
693.161	11.62
693.191	-21.38
693.22	-14.38
693.249	0.62
693.278	10.62
693.307	21.62
693.336	-8.38
693.365	-7.38
693.395	-5.38
693.424	4.62
693.453	8.62
693.482	0.62
693.511	14.62
693.54	-0.38
693.569	0.62
693.598	2.62
693.628	9.62
693.657	6.62
693.686	17.62
693.715	13.62
693.744	13.62
693.773	13.62
693.802	9.62
693.831	-9.38
693.86	5.62
693.889	-10.38
693.919	10.62
693.948	11.62
693.977	15.62
694.006	4.62
694.035	15.62
694.064	13.62
694.093	9.62
694.122	16.62
694.151	-6.38
694.18	-8.38
694.209	7.62
694.238	-3.38
694.267	15.62
694.296	10.62
694.325	5.62
694.354	27.62
694.383	9.62
694.412	1.62
694.441	-8.38
694.471	-6.38
694.5	-10.38
694.529	-1.38
694.558	20.62
694.587	6.62
694.616	4.62
694.645	4.62
694.674	12.62
694.703	17.62
694.732	9.62
694.761	11.62
694.79	23.62
694.819	-7.38
694.848	-8.38
694.877	19.62
694.906	17.62
694.935	7.62
694.963	25.62
694.992	-13.38
695.021	0.62
695.05	7.62
695.079	6.62
695.108	4.62
695.137	12.62
695.166	13.62
695.195	-8.38
695.224	26.62
695.253	18.62
695.282	3.62
695.311	25.62
695.34	-3.38
695.369	2.62
695.398	-6.38
695.427	17.62
695.456	11.62
695.485	16.62
695.513	9.62
695.542	1.62
695.571	-12.38
695.6	7.62
695.629	3.62
695.658	-0.38
695.687	-10.38
695.716	-1.38
695.745	18.62
695.774	0.62
695.802	-3.38
695.831	1.62
695.86	-0.38
695.889	17.62
695.918	14.62
695.947	10.62
695.976	2.62
696.005	-1.38
696.033	10.62
696.062	19.62
696.091	6.62
696.12	5.62
696.149	9.62
696.178	6.62
696.207	15.62
696.235	-11.38
696.264	20.62
696.293	14.62
696.322	6.62
696.351	29.62
696.38	18.62
696.408	10.62
696.437	2.62
696.466	12.62
696.495	23.62
696.524	-1.38
696.553	4.62
696.581	5.62
696.61	0.62
696.639	15.62
696.668	1.62
696.697	3.62
696.725	15.62
696.754	-4.38
696.783	-8.38
696.812	-1.38
696.84	6.62
696.869	19.62
696.898	0.62
696.927	0.62
696.956	14.62
696.984	-0.38
697.013	3.62
697.042	21.62
697.071	10.62
697.099	10.62
697.128	9.62
697.157	11.62
697.186	-1.38
697.214	15.62
697.243	-1.38
697.272	9.62
697.301	8.62
697.329	10.62
697.358	14.62
697.387	34.62
697.415	9.62
697.444	6.62
697.473	-8.38
697.502	-0.38
697.53	7.62
697.559	2.62
697.588	2.62
697.616	1.62
697.645	-0.38
697.674	29.62
697.703	-6.38
697.731	17.62
697.76	15.62
697.789	-0.38
697.817	12.62
697.846	18.62
697.875	11.62
697.903	22.62
697.932	9.62
697.961	8.62
697.989	16.62
698.018	15.62
698.047	20.62
698.075	11.62
698.104	1.62
698.133	4.62
698.161	-4.38
698.19	-6.38
698.218	2.62
698.247	11.62
698.276	6.62
698.304	9.62
698.333	2.62
698.362	17.62
698.39	10.62
698.419	20.62
698.447	8.62
698.476	6.62
698.505	3.62
698.533	-2.38
698.562	9.62
698.591	15.62
698.619	-22.38
698.648	13.62
698.676	7.62
698.705	10.62
698.733	-2.38
698.762	17.62
698.791	25.62
698.819	4.62
698.848	-0.38
698.876	10.62
698.905	-1.38
698.933	23.62
698.962	6.62
698.991	6.62
699.019	15.62
699.048	0.62
699.076	1.62
699.105	-11.38
699.133	-14.38
699.162	7.62
699.19	20.62
699.219	0.62
699.248	9.62
699.276	10.62
699.305	-8.38
699.333	2.62
699.362	3.62
699.39	15.62
699.419	-5.38
699.447	13.62
699.476	-4.38
699.504	4.62
699.533	1.62
699.561	0.62
699.59	11.62
699.618	10.62
699.647	0.62
699.675	9.62
699.704	7.62
699.732	2.62
699.761	8.62
699.789	1.62
699.818	3.62
699.846	-5.38
699.874	-1.38
699.903	-0.38
699.931	1.62
699.96	8.62
699.988	6.62
700.017	-0.38
700.045	4.62
700.074	-1.38
700.102	-0.38
700.13	-5.38
700.159	2.62
700.187	11.62
700.216	-0.38
700.244	-11.38
700.273	-4.38
700.301	-4.38
700.329	26.62
700.358	7.62
700.386	4.62
700.415	9.62
700.443	8.62
700.472	4.62
700.5	-2.38
700.528	22.62
700.557	15.62
700.585	-8.38
700.614	-13.38
700.642	1.62
700.67	6.62
700.699	6.62
700.727	6.62
700.755	19.62
700.784	10.62
700.812	3.62
700.841	7.62
700.869	-2.38
700.897	-11.38
700.926	-2.38
700.954	-1.38
700.982	11.62
701.011	6.62
701.039	11.62
701.067	3.62
701.096	10.62
701.124	-1.38
701.152	12.62
701.181	7.62
701.209	0.62
701.237	9.62
701.266	6.62
701.294	-4.38
701.322	5.62
701.351	-0.38
701.379	10.62
701.407	-2.38
701.435	2.62
701.464	9.62
701.492	17.62
701.52	9.62
701.549	7.62
701.577	-0.38
701.605	9.62
701.634	5.62
701.662	8.62
701.69	-1.38
701.718	-26.38
701.747	14.62
701.775	11.62
701.803	-2.38
701.831	11.62
701.86	-12.38
701.888	-3.38
701.916	4.62
701.944	-19.38
701.973	-14.38
702.001	-18.38
702.029	5.62
702.057	-4.38
702.086	-8.38
702.114	-3.38
702.142	-0.38
702.17	2.62
702.199	14.62
702.227	-8.38
702.255	9.62
702.283	-15.38
702.311	1.62
702.34	-4.38
702.368	-14.38
702.396	9.62
702.424	7.62
702.452	-2.38
702.481	-2.38
702.509	2.62
702.537	-2.38
702.565	11.62
702.593	-22.38
702.621	6.62
702.65	2.62
702.678	4.62
702.706	13.62
702.734	5.62
702.762	8.62
702.79	-9.38
702.819	5.62
702.847	19.62
702.875	10.62
702.903	10.62
702.931	4.62
702.959	5.62
702.988	1.62
703.016	-4.38
703.044	6.62
703.072	2.62
703.1	5.62
703.128	2.62
703.156	5.62
703.184	3.62
703.212	1.62
703.241	11.62
703.269	4.62
703.297	3.62
703.325	-0.38
703.353	-6.38
703.381	-1.38
703.409	-4.38
703.437	-24.38
703.465	-5.38
703.493	3.62
703.522	7.62
703.55	12.62
703.578	9.62
703.606	5.62
703.634	7.62
703.662	-13.38
703.69	-1.38
703.718	-0.38
703.746	3.62
703.774	1.62
703.802	24.62
703.83	-7.38
703.858	-0.38
703.886	-8.38
703.914	-1.38
703.942	19.62
703.97	3.62
703.998	-20.38
704.027	21.62
704.055	-2.38
704.083	-8.38
704.111	-5.38
704.139	10.62
704.167	4.62
704.195	-6.38
704.223	-3.38
704.251	1.62
704.279	1.62
704.307	-0.38
704.335	1.62
704.363	-4.38
704.391	4.62
704.419	-10.38
704.447	-18.38
704.475	7.62
704.503	-6.38
704.531	14.62
704.558	3.62
704.586	-4.38
704.614	-2.38
704.642	10.62
704.67	-9.38
704.698	0.62
704.726	1.62
704.754	-4.38
704.782	-3.38
704.81	-2.38
704.838	24.62
704.866	7.62
704.894	3.62
704.922	7.62
704.95	11.62
704.978	26.62
705.006	1.62
705.034	10.62
705.061	-1.38
705.089	3.62
705.117	-5.38
705.145	-1.38
705.173	3.62
705.201	12.62
705.229	3.62
705.257	-1.38
705.285	6.62
705.313	-1.38
705.34	-4.38
705.368	-12.38
705.396	8.62
705.424	7.62
705.452	-4.38
705.48	9.62
705.508	8.62
705.536	7.62
705.563	2.62
705.591	1.62
705.619	7.62
705.647	-14.38
705.675	-1.38
705.703	18.62
705.731	-16.38
705.758	-6.38
705.786	9.62
705.814	16.62
705.842	14.62
705.87	9.62
705.898	19.62
705.925	10.62
705.953	7.62
705.981	4.62
706.009	15.62
706.037	-9.38
706.065	3.62
706.092	-1.38
706.12	0.62
706.148	-5.38
706.176	-6.38
706.204	3.62
706.231	7.62
706.259	-17.38
706.287	11.62
706.315	6.62
706.342	6.62
706.37	12.62
706.398	1.62
706.426	-1.38
706.454	-0.38
706.481	9.62
706.509	3.62
706.537	2.62
706.565	-20.38
706.592	5.62
706.62	8.62
706.648	29.62
706.676	-1.38
706.703	11.62
706.731	16.62
706.759	6.62
706.787	15.62
706.814	3.62
706.842	6.62
706.87	-0.38
706.897	-2.38
706.925	5.62
706.953	14.62
706.981	11.62
707.008	17.62
707.036	14.62
707.064	-10.38
707.091	-4.38
707.119	21.62
707.147	-4.38
707.174	-4.38
707.202	6.62
707.23	-14.38
707.258	-1.38
707.285	1.62
707.313	7.62
707.341	-15.38
707.368	-5.38
707.396	-2.38
707.424	10.62
707.451	6.62
707.479	-4.38
707.507	-13.38
707.534	0.62
707.562	5.62
707.59	-1.38
707.617	-17.38
707.645	-13.38
707.672	-8.38
707.7	5.62
707.728	8.62
707.755	6.62
707.783	-5.38
707.811	6.62
707.838	-6.38
707.866	5.62
707.893	3.62
707.921	10.62
707.949	-5.38
707.976	-3.38
708.004	3.62
708.031	7.62
708.059	-2.38
708.087	2.62
708.114	3.62
708.142	-12.38
708.169	-7.38
708.197	-7.38
708.225	6.62
708.252	7.62
708.28	6.62
708.307	6.62
708.335	7.62
708.362	-10.38
708.39	-11.38
708.418	2.62
708.445	-3.38
708.473	-12.38
708.5	1.62
708.528	-2.38
708.555	-8.38
708.583	-6.38
708.61	-10.38
708.638	11.62
708.665	3.62
708.693	-4.38
708.72	11.62
708.748	-9.38
708.776	-6.38
708.803	8.62
708.831	12.62
708.858	7.62
708.886	5.62
708.913	17.62
708.941	-9.38
708.968	7.62
708.996	9.62
709.023	19.62
709.051	-4.38
709.078	-0.38
709.105	5.62
709.133	1.62
709.16	4.62
709.188	5.62
709.215	-2.38
709.243	2.62
709.27	4.62
709.298	-4.38
709.325	-2.38
709.353	-11.38
709.38	-5.38
709.408	22.62
709.435	19.62
709.462	0.62
709.49	-0.38
709.517	25.62
709.545	13.62
709.572	5.62
709.6	-11.38
709.627	13.62
709.655	-2.38
709.682	-2.38
709.709	9.62
709.737	6.62
709.764	-4.38
709.792	0.62
709.819	-3.38
709.846	5.62
709.874	3.62
709.901	9.62
709.929	26.62
709.956	13.62
709.983	-4.38
710.011	-6.38
710.038	0.62
710.066	7.62
710.093	14.62
710.12	10.62
710.148	4.62
710.175	-12.38
710.202	-6.38
710.23	16.62
710.257	5.62
710.284	3.62
710.312	1.62
710.339	-6.38
710.366	-6.38
710.394	-5.38
710.421	4.62
710.448	10.62
710.476	-7.38
710.503	10.62
710.53	10.62
710.558	24.62
710.585	19.62
710.612	-5.38
710.64	-5.38
710.667	8.62
710.694	4.62
710.722	0.62
710.749	-18.38
710.776	0.62
710.804	16.62
710.831	-4.38
710.858	-5.38
710.885	-9.38
710.913	0.62
710.94	13.62
710.967	-6.38
710.995	3.62
711.022	1.62
711.049	5.62
711.076	3.62
711.104	1.62
711.131	-14.38
711.158	-5.38
711.185	21.62
711.213	-2.38
711.24	-19.38
711.267	-0.38
711.294	-1.38
711.322	11.62
711.349	-14.38
711.376	-9.38
711.403	6.62
711.431	-12.38
711.458	-1.38
711.485	-12.38
711.512	6.62
711.54	1.62
711.567	2.62
711.594	-6.38
711.621	9.62
711.648	13.62
711.676	-5.38
711.703	-9.38
711.73	-28.38
711.757	4.62
711.784	1.62
711.812	-5.38
711.839	5.62
711.866	-9.38
711.893	-6.38
711.92	5.62
711.947	-2.38
711.975	14.62
712.002	0.62
712.029	4.62
712.056	7.62
712.083	4.62
712.11	-1.38
712.138	3.62
712.165	18.62
712.192	9.62
712.219	-3.38
712.246	1.62
712.273	5.62
712.3	-16.38
712.328	-0.38
712.355	9.62
712.382	-12.38
712.409	7.62
712.436	-6.38
712.463	5.62
712.49	8.62
712.517	-2.38
712.544	-2.38
712.572	-4.38
712.599	-1.38
712.626	-1.38
712.653	-5.38
712.68	-11.38
712.707	5.62
712.734	-5.38
712.761	15.62
712.788	20.62
712.815	2.62
712.842	16.62
712.87	2.62
712.897	-3.38
712.924	-8.38
712.951	-15.38
712.978	6.62
713.005	14.62
713.032	7.62
713.059	-1.38
713.086	4.62
713.113	-14.38
713.14	-8.38
713.167	-5.38
713.194	2.62
713.221	-7.38
713.248	19.62
713.275	22.62
713.302	-5.38
713.329	2.62
713.356	5.62
713.383	17.62
713.41	15.62
713.437	-11.38
713.464	-7.38
713.491	16.62
713.518	23.62
713.545	4.62
713.572	2.62
713.599	15.62
713.626	1.62
713.653	8.62
713.68	1.62
713.707	-12.38
713.734	-5.38
713.761	-10.38
713.788	2.62
713.815	16.62
713.842	1.62
713.869	8.62
713.896	-0.38
713.923	3.62
713.95	3.62
713.977	-3.38
714.004	13.62
714.031	-11.38
714.058	-5.38
714.085	-13.38
714.112	11.62
714.139	10.62
714.165	4.62
714.192	3.62
714.219	-1.38
714.246	14.62
714.273	-5.38
714.3	-8.38
714.327	13.62
714.354	-0.38
714.381	8.62
714.408	7.62
714.435	-8.38
714.461	-0.38
714.488	-4.38
714.515	-2.38
714.542	-14.38
714.569	-21.38
714.596	-16.38
714.623	-3.38
714.65	-3.38
714.677	-12.38
714.703	1.62
714.73	8.62
714.757	12.62
714.784	7.62
714.811	-1.38
714.838	4.62
714.865	4.62
714.891	7.62
714.918	-6.38
714.945	-15.38
714.972	0.62
714.999	19.62
715.026	6.62
715.052	22.62
715.079	-23.38
715.106	-8.38
715.133	10.62
715.16	-2.38
715.187	-4.38
715.213	31.62
715.24	-10.38
715.267	-6.38
715.294	-9.38
715.321	-8.38
715.347	-11.38
715.374	-4.38
715.401	-4.38
715.428	-3.38
715.455	8.62
715.481	-5.38
715.508	9.62
715.535	2.62
715.562	17.62
715.588	2.62
715.615	8.62
715.642	1.62
715.669	1.62
715.695	-12.38
715.722	-8.38
715.749	6.62
715.776	5.62
715.802	-0.38
715.829	2.62
715.856	-11.38
715.883	6.62
715.909	-9.38
715.936	5.62
715.963	-7.38
715.99	-13.38
716.016	8.62
716.043	6.62
716.07	2.62
716.096	-13.38
716.123	-0.38
716.15	5.62
716.177	-0.38
716.203	7.62
716.23	14.62
716.257	12.62
716.283	13.62
716.31	-1.38
716.337	1.62
716.363	-10.38
716.39	1.62
716.417	-0.38
716.443	-4.38
716.47	18.62
716.497	14.62
716.523	7.62
716.55	3.62
716.577	17.62
716.603	2.62
716.63	0.62
716.657	21.62
716.683	-2.38
716.71	-8.38
716.737	1.62
716.763	9.62
716.79	10.62
716.817	9.62
716.843	13.62
716.87	-4.38
716.897	-2.38
716.923	11.62
716.95	-6.38
716.976	-1.38
717.003	-6.38
717.03	5.62
717.056	8.62
717.083	8.62
717.109	11.62
717.136	9.62
717.163	-15.38
717.189	0.62
717.216	-16.38
717.242	-14.38
717.269	-1.38
717.296	22.62
717.322	24.62
717.349	6.62
717.375	5.62
717.402	5.62
717.428	-6.38
717.455	3.62
717.481	-5.38
717.508	11.62
717.535	8.62
717.561	18.62
717.588	0.62
717.614	0.62
717.641	-8.38
717.667	-15.38
717.694	6.62
717.72	1.62
717.747	0.62
717.773	-9.38
717.8	23.62
717.826	11.62
717.853	-4.38
717.88	11.62
717.906	7.62
717.933	14.62
717.959	21.62
717.986	13.62
718.012	-5.38
718.039	6.62
718.065	-2.38
718.092	-13.38
718.118	2.62
718.144	-8.38
718.171	8.62
718.197	17.62
718.224	-2.38
718.25	18.62
718.277	7.62
718.303	9.62
718.33	7.62
718.356	-4.38
718.383	-8.38
718.409	-7.38
718.436	19.62
718.462	-4.38
718.489	-2.38
718.515	14.62
718.541	9.62
718.568	10.62
718.594	-4.38
718.621	12.62
718.647	2.62
718.674	18.62
718.7	2.62
718.726	-4.38
718.753	4.62
718.779	14.62
718.806	1.62
718.832	3.62
718.858	10.62
718.885	-5.38
718.911	0.62
718.938	24.62
718.964	-15.38
718.99	12.62
719.017	3.62
719.043	0.62
719.07	13.62
719.096	-7.38
719.122	10.62
719.149	-5.38
719.175	6.62
719.201	9.62
719.228	0.62
719.254	3.62
719.281	-15.38
719.307	-3.38
719.333	-4.38
719.36	7.62
719.386	6.62
719.412	4.62
719.439	6.62
719.465	5.62
719.491	1.62
719.518	3.62
719.544	-6.38
719.57	4.62
719.597	13.62
719.623	2.62
719.649	13.62
719.675	0.62
719.702	7.62
719.728	12.62
719.754	-2.38
719.781	-2.38
719.807	0.62
719.833	-2.38
719.86	-2.38
719.886	-1.38
719.912	12.62
719.938	-5.38
719.965	-2.38
719.991	-9.38
720.017	6.62
720.044	-6.38
720.07	6.62
720.096	14.62
720.122	-2.38
720.149	11.62
720.175	25.62
720.201	3.62
720.227	5.62
720.254	2.62
720.28	0.62
720.306	-4.38
720.332	7.62
720.359	2.62
720.385	15.62
720.411	13.62
720.437	17.62
720.463	-10.38
720.49	1.62
720.516	-2.38
720.542	-12.38
720.568	12.62
720.595	17.62
720.621	0.62
720.647	7.62
720.673	1.62
720.699	-7.38
720.725	4.62
720.752	11.62
720.778	7.62
720.804	11.62
720.83	6.62
720.856	-13.38
720.883	-17.38
720.909	-1.38
720.935	11.62
720.961	12.62
720.987	7.62
721.013	0.62
721.04	-8.38
721.066	-2.38
721.092	-12.38
721.118	2.62
721.144	0.62
721.17	-6.38
721.196	-0.38
721.223	-3.38
721.249	4.62
721.275	9.62
721.301	-0.38
721.327	4.62
721.353	-0.38
721.379	-5.38
721.405	4.62
721.432	20.62
721.458	-4.38
721.484	5.62
721.51	-9.38
721.536	6.62
721.562	9.62
721.588	3.62
721.614	-4.38
721.64	-10.38
721.666	8.62
721.693	11.62
721.719	1.62
721.745	6.62
721.771	10.62
721.797	7.62
721.823	7.62
721.849	19.62
721.875	15.62
721.901	-0.38
721.927	-9.38
721.953	-9.38
721.979	16.62
722.005	16.62
722.031	17.62
722.057	14.62
722.083	-4.38
722.109	9.62
722.135	8.62
722.161	1.62
722.187	0.62
722.214	-10.38
722.24	-6.38
722.266	-8.38
722.292	3.62
722.318	9.62
722.344	10.62
722.37	15.62
722.396	11.62
722.422	4.62
722.448	-6.38
722.474	-15.38
722.5	6.62
722.526	12.62
722.552	-2.38
722.578	-1.38
722.603	7.62
722.629	-2.38
722.655	-1.38
722.681	0.62
722.707	1.62
722.733	2.62
722.759	-9.38
722.785	-9.38
722.811	9.62
722.837	4.62
722.863	14.62
722.889	23.62
722.915	5.62
722.941	-7.38
722.967	2.62
722.993	21.62
723.019	-5.38
723.045	13.62
723.071	11.62
723.097	-2.38
723.122	-2.38
723.148	-7.38
723.174	-10.38
723.2	-2.38
723.226	-3.38
723.252	3.62
723.278	-11.38
723.304	-10.38
723.33	4.62
723.356	2.62
723.381	-17.38
723.407	-6.38
723.433	-2.38
723.459	-4.38
723.485	5.62
723.511	17.62
723.537	6.62
723.563	-5.38
723.588	9.62
723.614	17.62
723.64	-3.38
723.666	8.62
723.692	14.62
723.718	9.62
723.744	7.62
723.769	-0.38
723.795	5.62
723.821	-4.38
723.847	3.62
723.873	7.62
723.899	2.62
723.924	6.62
723.95	7.62
723.976	-1.38
724.002	4.62
724.028	16.62
724.053	-4.38
724.079	-11.38
724.105	-9.38
724.131	-5.38
724.157	-4.38
724.182	3.62
724.208	11.62
724.234	4.62
724.26	-7.38
724.286	7.62
724.311	19.62
724.337	-11.38
724.363	-26.38
724.389	-9.38
724.415	-4.38
724.44	18.62
724.466	6.62
724.492	1.62
724.518	23.62
724.543	1.62
724.569	3.62
724.595	9.62
724.621	2.62
724.646	-12.38
724.672	-1.38
724.698	7.62
724.723	11.62
724.749	14.62
724.775	17.62
724.801	4.62
724.826	-7.38
724.852	-5.38
724.878	-4.38
724.904	-11.38
724.929	8.62
724.955	-5.38
724.981	-11.38
725.006	-5.38
725.032	1.62
725.058	11.62
725.083	-18.38
725.109	-8.38
725.135	19.62
725.161	8.62
725.186	-4.38
725.212	7.62
725.238	-0.38
725.263	-4.38
725.289	-16.38
725.315	-11.38
725.34	1.62
725.366	22.62
725.392	0.62
725.417	-13.38
725.443	-2.38
725.468	-1.38
725.494	13.62
725.52	6.62
725.545	11.62
725.571	1.62
725.597	-5.38
725.622	8.62
725.648	7.62
725.674	17.62
725.699	14.62
725.725	3.62
725.75	17.62
725.776	-5.38
725.802	0.62
725.827	14.62
725.853	-1.38
725.878	1.62
725.904	2.62
725.93	5.62
725.955	-15.38
725.981	-10.38
726.006	-7.38
726.032	10.62
726.057	-4.38
726.083	12.62
726.109	7.62
726.134	1.62
726.16	7.62
726.185	1.62
726.211	-9.38
726.236	6.62
726.262	14.62
726.288	14.62
726.313	11.62
726.339	6.62
726.364	8.62
726.39	12.62
726.415	12.62
726.441	-1.38
726.466	-8.38
726.492	3.62
726.517	9.62
726.543	4.62
726.568	-9.38
726.594	-5.38
726.619	8.62
726.645	0.62
726.67	13.62
726.696	9.62
726.721	16.62
726.747	1.62
726.772	18.62
726.798	-0.38
726.823	3.62
726.849	-1.38
726.874	0.62
726.9	33.62
726.925	4.62
726.951	9.62
726.976	4.62
727.002	-3.38
727.027	-2.38
727.053	2.62
727.078	9.62
727.104	9.62
727.129	-7.38
727.155	-7.38
727.18	15.62
727.205	10.62
727.231	5.62
727.256	9.62
727.282	1.62
727.307	14.62
727.333	3.62
727.358	1.62
727.383	-5.38
727.409	-1.38
727.434	12.62
727.46	4.62
727.485	-0.38
727.511	7.62
727.536	-18.38
727.561	-3.38
727.587	-8.38
727.612	-5.38
727.637	7.62
727.663	-11.38
727.688	8.62
727.714	-1.38
727.739	5.62
727.764	1.62
727.79	-1.38
727.815	7.62
727.841	10.62
727.866	3.62
727.891	-5.38
727.917	-2.38
727.942	5.62
727.967	6.62
727.993	-7.38
728.018	-6.38
728.043	2.62
728.069	11.62
728.094	5.62
728.119	-14.38
728.145	37.62
728.17	26.62
728.195	5.62
728.221	14.62
728.246	11.62
728.271	-16.38
728.297	21.62
728.322	0.62
728.347	14.62
728.373	11.62
728.398	9.62
728.423	2.62
728.448	9.62
728.474	2.62
728.499	8.62
728.524	1.62
728.55	4.62
728.575	6.62
728.6	6.62
728.625	-5.38
728.651	7.62
728.676	14.62
728.701	-0.38
728.727	-4.38
728.752	1.62
728.777	4.62
728.802	6.62
728.828	16.62
728.853	18.62
728.878	1.62
728.903	-2.38
728.929	-10.38
728.954	5.62
728.979	-0.38
729.004	5.62
729.03	-5.38
729.055	3.62
729.08	-10.38
729.105	-16.38
729.13	14.62
729.156	-0.38
729.181	-13.38
729.206	-7.38
729.231	7.62
729.256	9.62
729.282	5.62
729.307	0.62
729.332	2.62
729.357	-4.38
729.382	11.62
729.408	13.62
729.433	4.62
729.458	1.62
729.483	4.62
729.508	16.62
729.533	-1.38
729.559	5.62
729.584	3.62
729.609	1.62
729.634	10.62
729.659	7.62
729.684	-8.38
729.71	32.62
729.735	10.62
729.76	15.62
729.785	1.62
729.81	22.62
729.835	0.62
729.86	-1.38
729.886	3.62
729.911	31.62
729.936	-1.38
729.961	19.62
729.986	18.62
730.011	68.62
730.036	209.62
730.061	1009.62
730.086	2745.62
730.112	3438.62
730.137	2852.62
730.162	2103.62
730.187	1636.62
730.212	1273.62
730.237	804.62
730.262	462.62
730.287	246.62
730.312	151.62
730.337	86.62
730.362	72.62
730.387	26.62
730.413	18.62
730.438	34.62
730.463	37.62
730.488	5.62
730.513	11.62
730.538	3.62
730.563	27.62
730.588	7.62
730.613	5.62
730.638	14.62
730.663	11.62
730.688	23.62
730.713	2.62
730.738	-1.38
730.763	-8.38
730.788	-8.38
730.813	4.62
730.838	-10.38
730.863	3.62
730.888	-7.38
730.913	-13.38
730.938	-2.38
730.963	33.62
730.988	107.62
731.013	405.62
731.038	638.62
731.063	601.62
731.088	453.62
731.113	358.62
731.138	292.62
731.163	215.62
731.188	101.62
731.213	68.62
731.238	40.62
731.263	14.62
731.288	25.62
731.313	0.62
731.338	-1.38
731.363	-2.38
731.388	2.62
731.413	-2.38
731.438	12.62
731.463	2.62
731.487	15.62
731.512	-7.38
731.537	-2.38
731.562	-1.38
731.587	3.62
731.612	1.62
731.637	5.62
731.662	-4.38
731.687	-6.38
731.712	-5.38
731.737	-4.38
731.762	-6.38
731.786	15.62
731.811	12.62
731.836	4.62
731.861	8.62
731.886	-6.38
731.911	12.62
731.936	9.62
731.961	-5.38
731.986	3.62
732.01	4.62
732.035	3.62
732.06	9.62
732.085	-5.38
732.11	-5.38
732.135	-7.38
732.16	5.62
732.184	18.62
732.209	12.62
732.234	9.62
732.259	0.62
732.284	9.62
732.309	-11.38
732.334	-8.38
732.358	-8.38
732.383	-3.38
732.408	-12.38
732.433	-4.38
732.458	5.62
732.482	2.62
732.507	3.62
732.532	8.62
732.557	24.62
732.582	15.62
732.607	19.62
732.631	56.62
732.656	80.62
732.681	144.62
732.706	331.62
732.73	472.62
732.755	404.62
732.78	296.62
732.805	229.62
732.83	159.62
732.854	130.62
732.879	87.62
732.904	57.62
732.929	26.62
732.953	12.62
732.978	2.62
733.003	4.62
733.028	14.62
733.052	4.62
733.077	8.62
733.102	15.62
733.127	3.62
733.151	3.62
733.176	-8.38
733.201	-8.38
733.226	-2.38
733.25	-2.38
733.275	-3.38
733.3	1.62
733.324	9.62
733.349	9.62
733.374	9.62
733.399	17.62
733.423	3.62
733.448	-13.38
733.473	-2.38
733.497	-1.38
733.522	-6.38
733.547	9.62
733.571	2.62
733.596	2.62
733.621	7.62
733.646	2.62
733.67	0.62
733.695	-22.38
733.72	6.62
733.744	18.62
733.769	15.62
733.794	7.62
733.818	3.62
733.843	5.62
733.867	-17.38
733.892	-5.38
733.917	-2.38
733.941	-1.38
733.966	-17.38
733.991	-3.38
734.015	8.62
734.04	4.62
734.065	8.62
734.089	17.62
734.114	3.62
734.138	11.62
734.163	-5.38
734.188	8.62
734.212	13.62
734.237	-0.38
734.261	-6.38
734.286	-16.38
734.311	-6.38
734.335	-14.38
734.36	-6.38
734.384	-9.38
734.409	-1.38
734.434	-11.38
734.458	6.62
734.483	2.62
734.507	-5.38
734.532	-9.38
734.556	1.62
734.581	-7.38
734.606	-6.38
734.63	12.62
734.655	6.62
734.679	9.62
734.704	-2.38
734.728	-10.38
734.753	11.62
734.777	2.62
734.802	-5.38
734.826	7.62
734.851	-9.38
734.876	14.62
734.9	-2.38
734.925	6.62
734.949	16.62
734.974	-0.38
734.998	5.62
735.023	-18.38
735.047	-15.38
735.072	17.62
735.096	-5.38
735.121	-7.38
735.145	5.62
735.17	9.62
735.194	17.62
735.219	1.62
735.243	5.62
735.268	10.62
735.292	16.62
735.317	8.62
735.341	14.62
735.365	-18.38
735.39	6.62
735.414	4.62
735.439	15.62
735.463	-6.38
735.488	17.62
735.512	-0.38
735.537	-4.38
735.561	2.62
735.586	-0.38
735.61	-3.38
735.634	-5.38
735.659	3.62
735.683	10.62
735.708	-7.38
735.732	-5.38
735.757	3.62
735.781	13.62
735.805	3.62
735.83	-4.38
735.854	8.62
735.879	12.62
735.903	14.62
735.927	2.62
735.952	16.62
735.976	-1.38
736.001	-5.38
736.025	9.62
736.049	16.62
736.074	-5.38
736.098	-4.38
736.123	5.62
736.147	-1.38
736.171	4.62
736.196	20.62
736.22	17.62
736.244	5.62
736.269	1.62
736.293	-2.38
736.317	-1.38
736.342	-5.38
736.366	14.62
736.39	12.62
736.415	1.62
736.439	-2.38
736.463	7.62
736.488	15.62
736.512	-3.38
736.536	1.62
736.561	16.62
736.585	4.62
736.609	23.62
736.634	-8.38
736.658	-18.38
736.682	-10.38
736.707	-13.38
736.731	-8.38
736.755	4.62
736.78	14.62
736.804	9.62
736.828	-1.38
736.852	-11.38
736.877	11.62
736.901	13.62
736.925	2.62
736.949	13.62
736.974	5.62
736.998	-7.38
737.022	7.62
737.047	-11.38
737.071	-16.38
737.095	26.62
737.119	30.62
737.144	9.62
737.168	-6.38
737.192	-1.38
737.216	7.62
737.241	1.62
737.265	6.62
737.289	-4.38
737.313	-13.38
737.337	5.62
737.362	6.62
737.386	-1.38
737.41	1.62
737.434	-3.38
737.459	3.62
737.483	8.62
737.507	0.62
737.531	7.62
737.555	4.62
737.58	5.62
737.604	7.62
737.628	0.62
737.652	-6.38
737.676	-11.38
737.701	3.62
737.725	-6.38
737.749	0.62
737.773	-0.38
737.797	-16.38
737.821	-1.38
737.846	-11.38
737.87	10.62
737.894	-5.38
737.918	-6.38
737.942	-12.38
737.966	5.62
737.99	23.62
738.015	12.62
738.039	-5.38
738.063	2.62
738.087	14.62
738.111	11.62
738.135	22.62
738.159	11.62
738.184	6.62
738.208	-7.38
738.232	10.62
738.256	11.62
738.28	9.62
738.304	17.62
738.328	5.62
738.352	8.62
738.376	6.62
738.4	0.62
738.425	12.62
738.449	9.62
738.473	19.62
738.497	6.62
738.521	4.62
738.545	-7.38
738.569	5.62
738.593	15.62
738.617	10.62
738.641	9.62
738.665	12.62
738.689	11.62
738.713	12.62
738.737	-0.38
738.762	6.62
738.786	4.62
738.81	-1.38
738.834	18.62
738.858	1.62
738.882	20.62
738.906	-12.38
738.93	6.62
738.954	12.62
738.978	18.62
739.002	-7.38
739.026	14.62
739.05	3.62
739.074	2.62
739.098	25.62
739.122	2.62
739.146	2.62
739.17	7.62
739.194	34.62
739.218	-3.38
739.242	-12.38
739.266	-18.38
739.29	3.62
739.314	-2.38
739.338	-6.38
739.362	-3.38
739.386	-2.38
739.41	-2.38
739.434	-22.38
739.458	0.62
739.482	12.62
739.506	13.62
739.53	3.62
739.554	23.62
739.577	13.62
739.601	3.62
739.625	-0.38
739.649	7.62
739.673	-4.38
739.697	15.62
739.721	0.62
739.745	21.62
739.769	-5.38
739.793	-5.38
739.817	10.62
739.841	1.62
739.865	-8.38
739.889	-2.38
739.912	2.62
739.936	-6.38
739.96	-20.38
739.984	16.62
740.008	3.62
740.032	12.62
740.056	-0.38
740.08	-3.38
740.104	-2.38
740.127	9.62
740.151	14.62
740.175	24.62
740.199	21.62
740.223	47.62
740.247	17.62
740.271	-1.38
740.295	-7.38
740.318	-13.38
740.342	-12.38
740.366	-14.38
740.39	21.62
740.414	-2.38
740.438	-14.38
740.461	10.62
740.485	1.62
740.509	-7.38
740.533	2.62
740.557	-5.38
740.581	3.62
740.604	-10.38
740.628	2.62
740.652	12.62
740.676	-0.38
740.7	21.62
740.723	-0.38
740.747	13.62
740.771	9.62
740.795	-4.38
740.819	5.62
740.842	12.62
740.866	9.62
740.89	1.62
740.914	-12.38
740.938	-8.38
740.961	10.62
740.985	-5.38
741.009	-7.38
741.033	-2.38
741.056	14.62
741.08	-6.38
741.104	-12.38
741.128	8.62
741.151	10.62
741.175	9.62
741.199	1.62
741.223	13.62
741.246	-0.38
741.27	-2.38
741.294	3.62
741.318	2.62
741.341	-4.38
741.365	11.62
741.389	8.62
741.413	30.62
741.436	0.62
741.46	5.62
741.484	13.62
741.507	8.62
741.531	19.62
741.555	10.62
741.579	6.62
741.602	3.62
741.626	20.62
741.65	0.62
741.673	16.62
741.697	9.62
741.721	3.62
741.744	-7.38
741.768	-5.38
741.792	-5.38
741.815	-11.38
741.839	6.62
741.863	5.62
741.886	12.62
741.91	26.62
741.934	-1.38
741.957	-5.38
741.981	20.62
742.005	6.62
742.028	-6.38
742.052	-6.38
742.075	9.62
742.099	23.62
742.123	-6.38
742.146	5.62
742.17	-2.38
742.194	-7.38
742.217	-10.38
742.241	7.62
742.264	4.62
742.288	21.62
742.312	9.62
742.335	6.62
742.359	16.62
742.382	13.62
742.406	11.62
742.43	-14.38
742.453	-9.38
742.477	-8.38
742.5	-17.38
742.524	-3.38
742.548	-9.38
742.571	6.62
742.595	6.62
742.618	1.62
742.642	6.62
742.665	7.62
742.689	-1.38
742.712	1.62
742.736	-7.38
742.76	11.62
742.783	-6.38
742.807	9.62
742.83	8.62
742.854	-8.38
742.877	4.62
742.901	-3.38
742.924	-5.38
742.948	6.62
742.971	15.62
742.995	5.62
743.018	-13.38
743.042	-20.38
743.065	-2.38
743.089	-16.38
743.112	2.62
743.136	-1.38
743.159	-6.38
743.183	1.62
743.206	6.62
743.23	-6.38
743.253	9.62
743.277	2.62
743.3	10.62
743.324	7.62
743.347	-0.38
743.371	10.62
743.394	11.62
743.418	9.62
743.441	-10.38
743.465	2.62
743.488	0.62
743.512	-8.38
743.535	9.62
743.558	13.62
743.582	9.62
743.605	1.62
743.629	16.62
743.652	17.62
743.676	-4.38
743.699	10.62
743.723	9.62
743.746	1.62
743.769	10.62
743.793	13.62
743.816	-6.38
743.84	19.62
743.863	-4.38
743.886	1.62
743.91	15.62
743.933	-7.38
743.957	7.62
743.98	-9.38
744.003	3.62
744.027	-1.38
744.05	1.62
744.074	8.62
744.097	-11.38
744.12	-5.38
744.144	-8.38
744.167	6.62
744.19	-2.38
744.214	-4.38
744.237	-8.38
744.26	14.62
744.284	-5.38
744.307	-1.38
744.331	0.62
744.354	-14.38
744.377	-16.38
744.401	6.62
744.424	-3.38
744.447	-8.38
744.471	-6.38
