Data from HighRes_mercury_15_13_11_07_2024_HR4C61891__96__15-14-32-785.txt Node

Date: Thu Nov 07 15:14:32 EST 2024
User: crc00042
Spectrometer: HR4C6189
Trigger mode: 4
Integration Time (sec): 1.000000E-1
Scans to average: 1
Electric dark correction enabled: true
Nonlinearity correction enabled: false
Boxcar width: 0
XAxis mode: Wavelengths
Number of Pixels in Spectrum: 3648
>>>>>Begin Spectral Data<<<<<
639.567	-47.77
639.602	-47.77
639.636	-47.77
639.67	-29.77
639.704	-24.77
639.738	-1.77
639.773	-1.77
639.807	-24.77
639.841	6.23
639.875	2.23
639.909	3.23
639.943	-7.77
639.978	-5.77
640.012	4.23
640.046	8.23
640.08	5.23
640.114	3.23
640.148	9.23
640.182	-2.77
640.217	-6.77
640.251	18.23
640.285	5.23
640.319	-3.77
640.353	-8.77
640.387	-2.77
640.421	-4.77
640.455	-12.77
640.49	-5.77
640.524	9.23
640.558	19.23
640.592	-1.77
640.626	6.23
640.66	27.23
640.694	-4.77
640.728	5.23
640.762	18.23
640.796	24.23
640.83	21.23
640.865	-7.77
640.899	12.23
640.933	5.23
640.967	-10.77
641.001	13.23
641.035	-5.77
641.069	6.23
641.103	0.23
641.137	0.23
641.171	-10.77
641.205	8.23
641.239	11.23
641.273	24.23
641.307	19.23
641.341	-4.77
641.375	-4.77
641.409	-12.77
641.443	2.23
641.477	14.23
641.511	30.23
641.545	18.23
641.579	-2.77
641.614	4.23
641.648	12.23
641.682	-0.77
641.716	12.23
641.75	11.23
641.784	15.23
641.818	13.23
641.852	5.23
641.886	-10.77
641.919	23.23
641.953	2.23
641.987	-5.77
642.021	-4.77
642.055	8.23
642.089	14.23
642.123	-4.77
642.157	-5.77
642.191	-5.77
642.225	14.23
642.259	-5.77
642.293	5.23
642.327	11.23
642.361	3.23
642.395	6.23
642.429	19.23
642.463	9.23
642.497	8.23
642.531	17.23
642.565	6.23
642.599	2.23
642.633	-0.77
642.666	15.23
642.7	0.23
642.734	10.23
642.768	7.23
642.802	1.23
642.836	10.23
642.87	-7.77
642.904	1.23
642.938	16.23
642.972	4.23
643.005	19.23
643.039	11.23
643.073	7.23
643.107	9.23
643.141	7.23
643.175	7.23
643.209	4.23
643.243	2.23
643.276	8.23
643.31	4.23
643.344	0.23
643.378	-5.77
643.412	16.23
643.446	13.23
643.48	-3.77
643.513	8.23
643.547	4.23
643.581	-6.77
643.615	18.23
643.649	-3.77
643.683	5.23
643.716	-9.77
643.75	9.23
643.784	-3.77
643.818	20.23
643.852	-6.77
643.886	3.23
643.919	4.23
643.953	-3.77
643.987	-0.77
644.021	10.23
644.055	9.23
644.088	19.23
644.122	-2.77
644.156	6.23
644.19	2.23
644.224	6.23
644.257	7.23
644.291	6.23
644.325	19.23
644.359	5.23
644.392	31.23
644.426	28.23
644.46	6.23
644.494	0.23
644.527	-2.77
644.561	4.23
644.595	-8.77
644.629	-15.77
644.662	-20.77
644.696	21.23
644.73	9.23
644.764	17.23
644.797	2.23
644.831	4.23
644.865	5.23
644.899	0.23
644.932	20.23
644.966	2.23
645	12.23
645.033	17.23
645.067	-9.77
645.101	3.23
645.135	13.23
645.168	6.23
645.202	-16.77
645.236	13.23
645.269	20.23
645.303	3.23
645.337	-3.77
645.37	-3.77
645.404	10.23
645.438	7.23
645.471	-10.77
645.505	12.23
645.539	-5.77
645.572	-21.77
645.606	-14.77
645.64	15.23
645.673	4.23
645.707	15.23
645.741	3.23
645.774	-13.77
645.808	-7.77
645.842	5.23
645.875	15.23
645.909	11.23
645.943	-0.77
645.976	16.23
646.01	18.23
646.043	5.23
646.077	13.23
646.111	14.23
646.144	26.23
646.178	4.23
646.212	-23.77
646.245	4.23
646.279	1.23
646.312	-4.77
646.346	15.23
646.38	3.23
646.413	5.23
646.447	-1.77
646.48	9.23
646.514	3.23
646.547	-2.77
646.581	2.23
646.615	3.23
646.648	-4.77
646.682	15.23
646.715	4.23
646.749	6.23
646.782	3.23
646.816	8.23
646.85	14.23
646.883	3.23
646.917	18.23
646.95	10.23
646.984	-6.77
647.017	-18.77
647.051	21.23
647.084	13.23
647.118	-2.77
647.151	10.23
647.185	9.23
647.218	0.23
647.252	15.23
647.285	-4.77
647.319	-13.77
647.353	2.23
647.386	33.23
647.42	16.23
647.453	4.23
647.487	15.23
647.52	-12.77
647.553	5.23
647.587	3.23
647.62	3.23
647.654	2.23
647.687	5.23
647.721	16.23
647.754	7.23
647.788	9.23
647.821	-8.77
647.855	-3.77
647.888	7.23
647.922	28.23
647.955	9.23
647.989	7.23
648.022	-1.77
648.055	19.23
648.089	-10.77
648.122	23.23
648.156	7.23
648.189	1.23
648.223	10.23
648.256	18.23
648.29	12.23
648.323	0.23
648.356	30.23
648.39	1.23
648.423	13.23
648.457	27.23
648.49	12.23
648.523	-3.77
648.557	16.23
648.59	2.23
648.624	-7.77
648.657	13.23
648.69	9.23
648.724	9.23
648.757	32.23
648.791	7.23
648.824	18.23
648.857	14.23
648.891	-2.77
648.924	11.23
648.957	7.23
648.991	-20.77
649.024	17.23
649.057	-6.77
649.091	2.23
649.124	15.23
649.158	8.23
649.191	14.23
649.224	12.23
649.258	15.23
649.291	4.23
649.324	10.23
649.358	6.23
649.391	7.23
649.424	3.23
649.458	-6.77
649.491	-0.77
649.524	1.23
649.557	-2.77
649.591	-15.77
649.624	13.23
649.657	-3.77
649.691	3.23
649.724	5.23
649.757	11.23
649.791	-9.77
649.824	25.23
649.857	5.23
649.89	-7.77
649.924	-11.77
649.957	6.23
649.99	-11.77
650.023	0.23
650.057	1.23
650.09	12.23
650.123	8.23
650.157	17.23
650.19	21.23
650.223	1.23
650.256	9.23
650.29	10.23
650.323	8.23
650.356	2.23
650.389	-4.77
650.423	-15.77
650.456	-5.77
650.489	12.23
650.522	10.23
650.555	1.23
650.589	23.23
650.622	-0.77
650.655	10.23
650.688	7.23
650.721	0.23
650.755	-1.77
650.788	3.23
650.821	4.23
650.854	0.23
650.887	11.23
650.921	-0.77
650.954	-0.77
650.987	12.23
651.02	-3.77
651.053	-8.77
651.087	-12.77
651.12	22.23
651.153	12.23
651.186	13.23
651.219	-7.77
651.252	6.23
651.286	14.23
651.319	-5.77
651.352	-3.77
651.385	5.23
651.418	6.23
651.451	15.23
651.484	13.23
651.518	-7.77
651.551	22.23
651.584	-2.77
651.617	16.23
651.65	14.23
651.683	10.23
651.716	3.23
651.749	-16.77
651.783	0.23
651.816	5.23
651.849	17.23
651.882	10.23
651.915	0.23
651.948	2.23
651.981	-4.77
652.014	-3.77
652.047	-6.77
652.08	-1.77
652.114	-7.77
652.147	-13.77
652.18	9.23
652.213	21.23
652.246	1.23
652.279	7.23
652.312	13.23
652.345	-8.77
652.378	3.23
652.411	12.23
652.444	4.23
652.477	0.23
652.51	9.23
652.543	-10.77
652.576	-6.77
652.609	-3.77
652.642	9.23
652.675	20.23
652.709	-2.77
652.742	2.23
652.775	1.23
652.808	10.23
652.841	-2.77
652.874	-4.77
652.907	10.23
652.94	-6.77
652.973	-10.77
653.006	-0.77
653.039	-7.77
653.072	-8.77
653.105	-3.77
653.138	-11.77
653.171	18.23
653.204	21.23
653.237	6.23
653.27	-6.77
653.303	22.23
653.336	17.23
653.368	-8.77
653.401	-2.77
653.434	-9.77
653.467	3.23
653.5	-9.77
653.533	-12.77
653.566	-3.77
653.599	4.23
653.632	23.23
653.665	4.23
653.698	-2.77
653.731	-14.77
653.764	0.23
653.797	15.23
653.83	2.23
653.863	6.23
653.896	12.23
653.929	-2.77
653.961	3.23
653.994	-0.77
654.027	-6.77
654.06	-10.77
654.093	11.23
654.126	15.23
654.159	-8.77
654.192	11.23
654.225	-2.77
654.258	1.23
654.29	-0.77
654.323	22.23
654.356	-0.77
654.389	4.23
654.422	7.23
654.455	-7.77
654.488	12.23
654.521	-13.77
654.553	-32.77
654.586	13.23
654.619	6.23
654.652	2.23
654.685	8.23
654.718	7.23
654.751	21.23
654.783	-4.77
654.816	7.23
654.849	7.23
654.882	-19.77
654.915	-10.77
654.948	-5.77
654.98	-3.77
655.013	4.23
655.046	-8.77
655.079	-23.77
655.112	12.23
655.144	-9.77
655.177	-0.77
655.21	11.23
655.243	10.23
655.276	13.23
655.308	-3.77
655.341	-12.77
655.374	14.23
655.407	-0.77
655.44	-3.77
655.472	-0.77
655.505	-4.77
655.538	0.23
655.571	15.23
655.603	10.23
655.636	-1.77
655.669	10.23
655.702	13.23
655.734	-8.77
655.767	-16.77
655.8	0.23
655.833	8.23
655.865	9.23
655.898	3.23
655.931	5.23
655.964	-0.77
655.996	4.23
656.029	3.23
656.062	-24.77
656.095	-2.77
656.127	-22.77
656.16	-3.77
656.193	7.23
656.225	13.23
656.258	0.23
656.291	4.23
656.324	9.23
656.356	28.23
656.389	9.23
656.422	10.23
656.454	-1.77
656.487	2.23
656.52	20.23
656.552	-3.77
656.585	3.23
656.618	6.23
656.65	4.23
656.683	-7.77
656.716	4.23
656.748	1.23
656.781	4.23
656.814	-2.77
656.846	11.23
656.879	0.23
656.912	-8.77
656.944	-21.77
656.977	-13.77
657.01	1.23
657.042	-0.77
657.075	11.23
657.108	3.23
657.14	10.23
657.173	20.23
657.205	9.23
657.238	19.23
657.271	18.23
657.303	0.23
657.336	6.23
657.369	10.23
657.401	-6.77
657.434	-12.77
657.466	-6.77
657.499	0.23
657.532	-5.77
657.564	3.23
657.597	1.23
657.629	20.23
657.662	-3.77
657.694	-5.77
657.727	-1.77
657.76	8.23
657.792	2.23
657.825	-3.77
657.857	4.23
657.89	-8.77
657.922	14.23
657.955	-3.77
657.987	-1.77
658.02	7.23
658.053	0.23
658.085	-0.77
658.118	26.23
658.15	3.23
658.183	11.23
658.215	4.23
658.248	-3.77
658.28	-3.77
658.313	11.23
658.345	10.23
658.378	9.23
658.41	-4.77
658.443	13.23
658.475	-3.77
658.508	-6.77
658.54	6.23
658.573	8.23
658.605	13.23
658.638	4.23
658.67	6.23
658.703	10.23
658.735	5.23
658.768	4.23
658.8	-3.77
658.833	33.23
658.865	8.23
658.898	9.23
658.93	13.23
658.963	-2.77
658.995	-14.77
659.028	-4.77
659.06	-7.77
659.092	0.23
659.125	-9.77
659.157	-4.77
659.19	-0.77
659.222	3.23
659.255	14.23
659.287	5.23
659.32	1.23
659.352	6.23
659.384	10.23
659.417	-13.77
659.449	6.23
659.482	7.23
659.514	-2.77
659.546	1.23
659.579	-7.77
659.611	1.23
659.644	0.23
659.676	-3.77
659.708	-15.77
659.741	-8.77
659.773	-20.77
659.806	6.23
659.838	8.23
659.87	6.23
659.903	-8.77
659.935	8.23
659.967	6.23
660	17.23
660.032	-17.77
660.065	16.23
660.097	6.23
660.129	5.23
660.162	-18.77
660.194	-8.77
660.226	-1.77
660.259	3.23
660.291	-4.77
660.323	-0.77
660.356	4.23
660.388	-4.77
660.42	-5.77
660.453	10.23
660.485	-8.77
660.517	7.23
660.55	15.23
660.582	5.23
660.614	-5.77
660.647	0.23
660.679	-18.77
660.711	11.23
660.743	-17.77
660.776	-10.77
660.808	9.23
660.84	9.23
660.873	3.23
660.905	4.23
660.937	-6.77
660.969	-0.77
661.002	-1.77
661.034	12.23
661.066	-6.77
661.099	-5.77
661.131	7.23
661.163	13.23
661.195	-10.77
661.228	5.23
661.26	9.23
661.292	-7.77
661.324	13.23
661.357	12.23
661.389	-11.77
661.421	4.23
661.453	-6.77
661.485	6.23
661.518	5.23
661.55	-1.77
661.582	-16.77
661.614	-3.77
661.647	13.23
661.679	-8.77
661.711	-7.77
661.743	-8.77
661.775	9.23
661.808	32.23
661.84	-2.77
661.872	5.23
661.904	1.23
661.936	6.23
661.969	-5.77
662.001	-4.77
662.033	3.23
662.065	13.23
662.097	22.23
662.129	0.23
662.162	-9.77
662.194	-3.77
662.226	4.23
662.258	-5.77
662.29	-5.77
662.322	2.23
662.355	-5.77
662.387	27.23
662.419	17.23
662.451	13.23
662.483	22.23
662.515	7.23
662.547	-5.77
662.58	-18.77
662.612	2.23
662.644	-7.77
662.676	4.23
662.708	9.23
662.74	7.23
662.772	6.23
662.804	2.23
662.836	6.23
662.869	6.23
662.901	4.23
662.933	-1.77
662.965	17.23
662.997	26.23
663.029	3.23
663.061	-9.77
663.093	-1.77
663.125	21.23
663.157	8.23
663.189	0.23
663.221	20.23
663.254	5.23
663.286	7.23
663.318	2.23
663.35	1.23
663.382	-7.77
663.414	8.23
663.446	0.23
663.478	-4.77
663.51	16.23
663.542	-2.77
663.574	15.23
663.606	10.23
663.638	-11.77
663.67	7.23
663.702	0.23
663.734	1.23
663.766	8.23
663.798	-7.77
663.83	0.23
663.862	3.23
663.894	16.23
663.926	1.23
663.958	0.23
663.99	16.23
664.022	-12.77
664.054	0.23
664.086	-9.77
664.118	-2.77
664.15	-8.77
664.182	15.23
664.214	6.23
664.246	9.23
664.278	4.23
664.31	10.23
664.342	-2.77
664.374	0.23
664.406	1.23
664.438	-2.77
664.47	25.23
664.502	-11.77
664.534	-5.77
664.566	-4.77
664.598	4.23
664.63	0.23
664.662	6.23
664.693	11.23
664.725	9.23
664.757	-1.77
664.789	-8.77
664.821	1.23
664.853	17.23
664.885	-5.77
664.917	-6.77
664.949	4.23
664.981	13.23
665.013	-7.77
665.045	-4.77
665.076	-1.77
665.108	3.23
665.14	-5.77
665.172	-7.77
665.204	2.23
665.236	8.23
665.268	22.23
665.3	3.23
665.331	-8.77
665.363	-5.77
665.395	-16.77
665.427	-12.77
665.459	4.23
665.491	4.23
665.523	-2.77
665.555	13.23
665.586	6.23
665.618	2.23
665.65	-8.77
665.682	10.23
665.714	16.23
665.746	4.23
665.777	-11.77
665.809	3.23
665.841	3.23
665.873	-16.77
665.905	-2.77
665.937	17.23
665.968	3.23
666	11.23
666.032	10.23
666.064	12.23
666.096	5.23
666.127	15.23
666.159	10.23
666.191	4.23
666.223	-1.77
666.255	9.23
666.286	2.23
666.318	-2.77
666.35	20.23
666.382	-3.77
666.413	-8.77
666.445	-17.77
666.477	-18.77
666.509	-14.77
666.54	13.23
666.572	12.23
666.604	-3.77
666.636	6.23
666.667	19.23
666.699	18.23
666.731	11.23
666.763	-20.77
666.794	-4.77
666.826	13.23
666.858	1.23
666.89	17.23
666.921	4.23
666.953	4.23
666.985	17.23
667.017	13.23
667.048	3.23
667.08	0.23
667.112	16.23
667.143	-16.77
667.175	-2.77
667.207	13.23
667.238	19.23
667.27	-6.77
667.302	4.23
667.334	6.23
667.365	18.23
667.397	15.23
667.429	-14.77
667.46	13.23
667.492	18.23
667.524	0.23
667.555	1.23
667.587	-3.77
667.619	-13.77
667.65	-12.77
667.682	9.23
667.714	10.23
667.745	4.23
667.777	-15.77
667.808	16.23
667.84	10.23
667.872	-2.77
667.903	25.23
667.935	2.23
667.967	3.23
667.998	15.23
668.03	-6.77
668.061	-1.77
668.093	5.23
668.125	1.23
668.156	17.23
668.188	2.23
668.22	7.23
668.251	5.23
668.283	9.23
668.314	23.23
668.346	2.23
668.377	24.23
668.409	8.23
668.441	32.23
668.472	14.23
668.504	13.23
668.535	8.23
668.567	10.23
668.599	-2.77
668.63	3.23
668.662	-1.77
668.693	3.23
668.725	7.23
668.756	6.23
668.788	10.23
668.819	19.23
668.851	-10.77
668.882	-3.77
668.914	-1.77
668.946	3.23
668.977	2.23
669.009	-1.77
669.04	-5.77
669.072	-4.77
669.103	8.23
669.135	2.23
669.166	1.23
669.198	9.23
669.229	12.23
669.261	14.23
669.292	7.23
669.324	-4.77
669.355	-4.77
669.387	-7.77
669.418	2.23
669.45	-4.77
669.481	-1.77
669.513	-6.77
669.544	-4.77
669.576	-0.77
669.607	11.23
669.639	7.23
669.67	-6.77
669.701	14.23
669.733	-10.77
669.764	-1.77
669.796	-2.77
669.827	1.23
669.859	10.23
669.89	6.23
669.922	14.23
669.953	-5.77
669.985	11.23
670.016	6.23
670.047	1.23
670.079	-9.77
670.11	4.23
670.142	14.23
670.173	3.23
670.204	5.23
670.236	-8.77
670.267	4.23
670.299	5.23
670.33	8.23
670.362	12.23
670.393	-6.77
670.424	10.23
670.456	-10.77
670.487	1.23
670.518	-6.77
670.55	9.23
670.581	11.23
670.613	-1.77
670.644	-9.77
670.675	-16.77
670.707	1.23
670.738	2.23
670.769	-12.77
670.801	-28.77
670.832	11.23
670.864	-4.77
670.895	-0.77
670.926	-0.77
670.958	1.23
670.989	19.23
671.02	0.23
671.052	0.23
671.083	-0.77
671.114	-11.77
671.146	-4.77
671.177	-4.77
671.208	-0.77
671.24	-13.77
671.271	-11.77
671.302	6.23
671.333	-11.77
671.365	-6.77
671.396	1.23
671.427	-11.77
671.459	4.23
671.49	6.23
671.521	-0.77
671.553	-8.77
671.584	3.23
671.615	-3.77
671.646	8.23
671.678	2.23
671.709	5.23
671.74	-13.77
671.771	-8.77
671.803	0.23
671.834	12.23
671.865	6.23
671.896	-1.77
671.928	3.23
671.959	-12.77
671.99	12.23
672.021	2.23
672.053	-10.77
672.084	7.23
672.115	0.23
672.146	2.23
672.178	-17.77
672.209	-3.77
672.24	-3.77
672.271	20.23
672.303	8.23
672.334	9.23
672.365	7.23
672.396	4.23
672.427	-11.77
672.459	12.23
672.49	24.23
672.521	12.23
672.552	-2.77
672.583	5.23
672.615	4.23
672.646	4.23
672.677	-13.77
672.708	6.23
672.739	16.23
672.77	18.23
672.802	-1.77
672.833	-10.77
672.864	-11.77
672.895	-12.77
672.926	4.23
672.957	8.23
672.989	12.23
673.02	21.23
673.051	-16.77
673.082	7.23
673.113	-13.77
673.144	7.23
673.175	18.23
673.206	0.23
673.238	-8.77
673.269	-4.77
673.3	4.23
673.331	3.23
673.362	4.23
673.393	2.23
673.424	9.23
673.455	14.23
673.487	6.23
673.518	0.23
673.549	-1.77
673.58	-8.77
673.611	3.23
673.642	-5.77
673.673	-13.77
673.704	3.23
673.735	-8.77
673.766	-0.77
673.797	-9.77
673.828	4.23
673.86	-5.77
673.891	-20.77
673.922	-25.77
673.953	-5.77
673.984	-0.77
674.015	-2.77
674.046	0.23
674.077	7.23
674.108	-5.77
674.139	2.23
674.17	-12.77
674.201	-6.77
674.232	-7.77
674.263	-0.77
674.294	8.23
674.325	-5.77
674.356	13.23
674.387	25.23
674.418	12.23
674.449	-0.77
674.48	-10.77
674.511	3.23
674.542	5.23
674.573	-8.77
674.604	13.23
674.635	7.23
674.666	23.23
674.697	9.23
674.728	2.23
674.759	11.23
674.79	-24.77
674.821	-12.77
674.852	-2.77
674.883	-7.77
674.914	-1.77
674.945	-1.77
674.976	15.23
675.007	-16.77
675.038	-10.77
675.069	1.23
675.1	-2.77
675.131	1.23
675.162	-11.77
675.193	-0.77
675.224	-3.77
675.254	21.23
675.285	5.23
675.316	19.23
675.347	-3.77
675.378	-4.77
675.409	10.23
675.44	6.23
675.471	11.23
675.502	2.23
675.533	18.23
675.564	0.23
675.595	-6.77
675.625	6.23
675.656	23.23
675.687	2.23
675.718	0.23
675.749	2.23
675.78	7.23
675.811	-8.77
675.842	-2.77
675.873	7.23
675.903	3.23
675.934	24.23
675.965	-4.77
675.996	-15.77
676.027	3.23
676.058	-7.77
676.089	-20.77
676.119	-0.77
676.15	-11.77
676.181	-8.77
676.212	7.23
676.243	-0.77
676.274	-21.77
676.304	11.23
676.335	-6.77
676.366	-2.77
676.397	-0.77
676.428	-7.77
676.459	-4.77
676.489	6.23
676.52	19.23
676.551	6.23
676.582	3.23
676.613	5.23
676.643	-7.77
676.674	0.23
676.705	2.23
676.736	3.23
676.767	9.23
676.797	6.23
676.828	15.23
676.859	-11.77
676.89	-4.77
676.92	-5.77
676.951	12.23
676.982	0.23
677.013	-20.77
677.044	-0.77
677.074	23.23
677.105	-3.77
677.136	2.23
677.167	1.23
677.197	12.23
677.228	2.23
677.259	3.23
677.289	-6.77
677.32	-22.77
677.351	-11.77
677.382	0.23
677.412	-3.77
677.443	13.23
677.474	-9.77
677.505	-14.77
677.535	2.23
677.566	-5.77
677.597	2.23
677.627	7.23
677.658	6.23
677.689	5.23
677.72	2.23
677.75	3.23
677.781	4.23
677.812	3.23
677.842	8.23
677.873	2.23
677.904	1.23
677.934	-9.77
677.965	11.23
677.996	-19.77
678.026	-2.77
678.057	8.23
678.088	-0.77
678.118	8.23
678.149	-8.77
678.18	13.23
678.21	-3.77
678.241	2.23
678.272	2.23
678.302	7.23
678.333	1.23
678.363	11.23
678.394	-2.77
678.425	-3.77
678.455	5.23
678.486	18.23
678.517	4.23
678.547	-7.77
678.578	0.23
678.608	-8.77
678.639	0.23
678.67	11.23
678.7	-8.77
678.731	-6.77
678.761	-22.77
678.792	22.23
678.823	-2.77
678.853	9.23
678.884	-11.77
678.914	7.23
678.945	3.23
678.975	-3.77
679.006	-0.77
679.037	12.23
679.067	21.23
679.098	2.23
679.128	-7.77
679.159	-4.77
679.189	15.23
679.22	0.23
679.25	6.23
679.281	-1.77
679.312	4.23
679.342	11.23
679.373	20.23
679.403	13.23
679.434	3.23
679.464	1.23
679.495	10.23
679.525	0.23
679.556	-4.77
679.586	6.23
679.617	4.23
679.647	5.23
679.678	4.23
679.708	-0.77
679.739	-8.77
679.769	4.23
679.8	2.23
679.83	3.23
679.861	9.23
679.891	9.23
679.922	-27.77
679.952	2.23
679.983	7.23
680.013	2.23
680.044	-8.77
680.074	10.23
680.105	3.23
680.135	-0.77
680.165	6.23
680.196	6.23
680.226	17.23
680.257	8.23
680.287	1.23
680.318	6.23
680.348	-2.77
680.379	20.23
680.409	2.23
680.439	-2.77
680.47	3.23
680.5	7.23
680.531	3.23
680.561	12.23
680.592	1.23
680.622	21.23
680.652	3.23
680.683	20.23
680.713	-10.77
680.744	8.23
680.774	-3.77
680.804	11.23
680.835	0.23
680.865	-4.77
680.896	2.23
680.926	19.23
680.956	-0.77
680.987	7.23
681.017	4.23
681.047	0.23
681.078	-10.77
681.108	-31.77
681.139	-14.77
681.169	4.23
681.199	-13.77
681.23	12.23
681.26	0.23
681.29	9.23
681.321	-9.77
681.351	3.23
681.381	-15.77
681.412	8.23
681.442	13.23
681.472	11.23
681.503	2.23
681.533	2.23
681.563	7.23
681.594	22.23
681.624	-7.77
681.654	-19.77
681.685	-0.77
681.715	-3.77
681.745	-7.77
681.775	6.23
681.806	16.23
681.836	9.23
681.866	-14.77
681.897	2.23
681.927	2.23
681.957	-7.77
681.987	7.23
682.018	10.23
682.048	15.23
682.078	9.23
682.109	11.23
682.139	8.23
682.169	2.23
682.199	3.23
682.23	1.23
682.26	16.23
682.29	5.23
682.32	2.23
682.351	1.23
682.381	-9.77
682.411	-13.77
682.441	-22.77
682.472	-14.77
682.502	-13.77
682.532	-8.77
682.562	11.23
682.592	17.23
682.623	13.23
682.653	16.23
682.683	-0.77
682.713	11.23
682.743	-8.77
682.774	-1.77
682.804	10.23
682.834	23.23
682.864	-11.77
682.894	-5.77
682.925	0.23
682.955	-6.77
682.985	-0.77
683.015	3.23
683.045	2.23
683.076	-8.77
683.106	7.23
683.136	1.23
683.166	3.23
683.196	7.23
683.226	0.23
683.257	-0.77
683.287	5.23
683.317	3.23
683.347	-9.77
683.377	9.23
683.407	21.23
683.437	4.23
683.468	3.23
683.498	1.23
683.528	8.23
683.558	9.23
683.588	-4.77
683.618	-3.77
683.648	0.23
683.678	1.23
683.708	15.23
683.739	-4.77
683.769	8.23
683.799	12.23
683.829	-0.77
683.859	-8.77
683.889	7.23
683.919	-11.77
683.949	3.23
683.979	-9.77
684.009	8.23
684.039	6.23
684.07	-2.77
684.1	4.23
684.13	6.23
684.16	16.23
684.19	8.23
684.22	-0.77
684.25	8.23
684.28	-6.77
684.31	15.23
684.34	3.23
684.37	-0.77
684.4	-10.77
684.43	7.23
684.46	0.23
684.49	3.23
684.52	10.23
684.55	13.23
684.58	1.23
684.61	4.23
684.64	12.23
684.67	18.23
684.7	4.23
684.73	11.23
684.76	2.23
684.79	15.23
684.82	4.23
684.85	-1.77
684.88	7.23
684.91	1.23
684.94	0.23
684.97	-16.77
685	-25.77
685.03	-6.77
685.06	-8.77
685.09	-13.77
685.12	12.23
685.15	-10.77
685.18	0.23
685.21	1.23
685.24	-0.77
685.27	10.23
685.3	15.23
685.33	1.23
685.36	0.23
685.39	2.23
685.42	-5.77
685.45	5.23
685.48	-4.77
685.51	-0.77
685.54	7.23
685.569	12.23
685.599	7.23
685.629	13.23
685.659	5.23
685.689	-0.77
685.719	0.23
685.749	-0.77
685.779	16.23
685.809	12.23
685.839	7.23
685.869	5.23
685.898	6.23
685.928	15.23
685.958	8.23
685.988	20.23
686.018	10.23
686.048	11.23
686.078	15.23
686.108	15.23
686.137	1.23
686.167	11.23
686.197	-5.77
686.227	1.23
686.257	36.23
686.287	26.23
686.317	0.23
686.346	-0.77
686.376	7.23
686.406	2.23
686.436	17.23
686.466	7.23
686.496	10.23
686.525	0.23
686.555	2.23
686.585	12.23
686.615	27.23
686.645	6.23
686.675	-2.77
686.704	9.23
686.734	-1.77
686.764	-8.77
686.794	-7.77
686.824	5.23
686.853	7.23
686.883	16.23
686.913	15.23
686.943	8.23
686.973	-8.77
687.002	-10.77
687.032	25.23
687.062	5.23
687.092	16.23
687.121	-5.77
687.151	1.23
687.181	21.23
687.211	24.23
687.24	0.23
687.27	11.23
687.3	10.23
687.33	4.23
687.359	-8.77
687.389	1.23
687.419	7.23
687.449	12.23
687.478	-2.77
687.508	5.23
687.538	6.23
687.568	14.23
687.597	3.23
687.627	5.23
687.657	0.23
687.686	1.23
687.716	28.23
687.746	-5.77
687.776	-14.77
687.805	10.23
687.835	6.23
687.865	14.23
687.894	22.23
687.924	-4.77
687.954	14.23
687.983	-6.77
688.013	20.23
688.043	3.23
688.072	3.23
688.102	2.23
688.132	1.23
688.161	7.23
688.191	-3.77
688.221	12.23
688.25	-1.77
688.28	13.23
688.31	2.23
688.339	4.23
688.369	-1.77
688.399	10.23
688.428	-22.77
688.458	12.23
688.488	0.23
688.517	10.23
688.547	7.23
688.576	39.23
688.606	15.23
688.636	-6.77
688.665	3.23
688.695	7.23
688.725	16.23
688.754	-1.77
688.784	-4.77
688.813	6.23
688.843	1.23
688.873	9.23
688.902	-11.77
688.932	-4.77
688.961	4.23
688.991	13.23
689.02	20.23
689.05	-0.77
689.08	10.23
689.109	19.23
689.139	5.23
689.168	10.23
689.198	-2.77
689.227	-0.77
689.257	6.23
689.287	7.23
689.316	-3.77
689.346	2.23
689.375	-2.77
689.405	5.23
689.434	10.23
689.464	3.23
689.493	6.23
689.523	-8.77
689.552	-10.77
689.582	11.23
689.611	11.23
689.641	7.23
689.67	24.23
689.7	6.23
689.73	7.23
689.759	-1.77
689.789	19.23
689.818	-2.77
689.848	13.23
689.877	37.23
689.906	-3.77
689.936	4.23
689.965	-1.77
689.995	12.23
690.024	1.23
690.054	-6.77
690.083	11.23
690.113	2.23
690.142	2.23
690.172	23.23
690.201	2.23
690.231	-4.77
690.26	-2.77
690.29	9.23
690.319	17.23
690.348	0.23
690.378	-3.77
690.407	-11.77
690.437	2.23
690.466	8.23
690.496	-2.77
690.525	7.23
690.555	0.23
690.584	-10.77
690.613	-3.77
690.643	-6.77
690.672	13.23
690.702	14.23
690.731	0.23
690.76	25.23
690.79	45.23
690.819	43.23
690.849	45.23
690.878	20.23
690.907	24.23
690.937	25.23
690.966	38.23
690.996	12.23
691.025	9.23
691.054	10.23
691.084	4.23
691.113	5.23
691.142	17.23
691.172	1.23
691.201	5.23
691.23	9.23
691.26	6.23
691.289	1.23
691.319	9.23
691.348	11.23
691.377	4.23
691.407	-3.77
691.436	18.23
691.465	4.23
691.495	5.23
691.524	-3.77
691.553	-9.77
691.583	-0.77
691.612	-1.77
691.641	-5.77
691.67	-13.77
691.7	-8.77
691.729	-7.77
691.758	9.23
691.788	-5.77
691.817	-4.77
691.846	-2.77
691.876	-4.77
691.905	12.23
691.934	3.23
691.963	10.23
691.993	2.23
692.022	9.23
692.051	1.23
692.081	25.23
692.11	29.23
692.139	26.23
692.168	2.23
692.198	14.23
692.227	6.23
692.256	8.23
692.285	13.23
692.315	-5.77
692.344	-3.77
692.373	7.23
692.402	-6.77
692.432	20.23
692.461	20.23
692.49	3.23
692.519	-10.77
692.548	5.23
692.578	11.23
692.607	10.23
692.636	-2.77
692.665	16.23
692.694	-0.77
692.724	-3.77
692.753	2.23
692.782	13.23
692.811	-13.77
692.84	13.23
692.87	9.23
692.899	10.23
692.928	6.23
692.957	16.23
692.986	10.23
693.016	13.23
693.045	12.23
693.074	-10.77
693.103	4.23
693.132	0.23
693.161	15.23
693.191	9.23
693.22	-10.77
693.249	-7.77
693.278	-0.77
693.307	25.23
693.336	-12.77
693.365	-10.77
693.395	-8.77
693.424	-7.77
693.453	5.23
693.482	9.23
693.511	19.23
693.54	-0.77
693.569	5.23
693.598	3.23
693.628	14.23
693.657	20.23
693.686	25.23
693.715	10.23
693.744	21.23
693.773	18.23
693.802	19.23
693.831	18.23
693.86	23.23
693.889	-4.77
693.919	11.23
693.948	0.23
693.977	5.23
694.006	4.23
694.035	4.23
694.064	-5.77
694.093	11.23
694.122	5.23
694.151	7.23
694.18	12.23
694.209	10.23
694.238	5.23
694.267	20.23
694.296	14.23
694.325	8.23
694.354	7.23
694.383	16.23
694.412	-12.77
694.441	4.23
694.471	2.23
694.5	0.23
694.529	7.23
694.558	19.23
694.587	22.23
694.616	-1.77
694.645	-4.77
694.674	5.23
694.703	9.23
694.732	-3.77
694.761	11.23
694.79	13.23
694.819	-2.77
694.848	-6.77
694.877	13.23
694.906	16.23
694.935	-3.77
694.963	29.23
694.992	16.23
695.021	-4.77
695.05	0.23
695.079	-7.77
695.108	2.23
695.137	23.23
695.166	13.23
695.195	10.23
695.224	23.23
695.253	-3.77
695.282	7.23
695.311	3.23
695.34	-0.77
695.369	26.23
695.398	11.23
695.427	15.23
695.456	8.23
695.485	-1.77
695.513	13.23
695.542	2.23
695.571	9.23
695.6	20.23
695.629	12.23
695.658	8.23
695.687	13.23
695.716	-5.77
695.745	22.23
695.774	-6.77
695.802	-1.77
695.831	8.23
695.86	25.23
695.889	0.23
695.918	7.23
695.947	-0.77
695.976	-5.77
696.005	12.23
696.033	2.23
696.062	15.23
696.091	6.23
696.12	17.23
696.149	14.23
696.178	4.23
696.207	4.23
696.235	0.23
696.264	18.23
696.293	2.23
696.322	15.23
696.351	19.23
696.38	1.23
696.408	12.23
696.437	7.23
696.466	21.23
696.495	35.23
696.524	12.23
696.553	12.23
696.581	22.23
696.61	10.23
696.639	-9.77
696.668	7.23
696.697	-2.77
696.725	13.23
696.754	0.23
696.783	-5.77
696.812	3.23
696.84	21.23
696.869	7.23
696.898	2.23
696.927	11.23
696.956	34.23
696.984	0.23
697.013	-4.77
697.042	4.23
697.071	3.23
697.099	19.23
697.128	4.23
697.157	-7.77
697.186	-2.77
697.214	-0.77
697.243	14.23
697.272	2.23
697.301	8.23
697.329	3.23
697.358	3.23
697.387	16.23
697.415	7.23
697.444	9.23
697.473	10.23
697.502	2.23
697.53	17.23
697.559	7.23
697.588	3.23
697.616	4.23
697.645	-7.77
697.674	16.23
697.703	8.23
697.731	23.23
697.76	20.23
697.789	7.23
697.817	0.23
697.846	26.23
697.875	21.23
697.903	32.23
697.932	18.23
697.961	12.23
697.989	3.23
698.018	-6.77
698.047	13.23
698.075	12.23
698.104	-0.77
698.133	-14.77
698.161	-8.77
698.19	3.23
698.218	10.23
698.247	9.23
698.276	-2.77
698.304	14.23
698.333	10.23
698.362	-2.77
698.39	10.23
698.419	6.23
698.447	1.23
698.476	5.23
698.505	-0.77
698.533	12.23
698.562	2.23
698.591	-13.77
698.619	4.23
698.648	-0.77
698.676	1.23
698.705	11.23
698.733	-3.77
698.762	8.23
698.791	8.23
698.819	8.23
698.848	4.23
698.876	16.23
698.905	3.23
698.933	16.23
698.962	2.23
698.991	11.23
699.019	8.23
699.048	21.23
699.076	12.23
699.105	4.23
699.133	-1.77
699.162	19.23
699.19	24.23
699.219	3.23
699.248	3.23
699.276	-2.77
699.305	-8.77
699.333	9.23
699.362	5.23
699.39	19.23
699.419	2.23
699.447	20.23
699.476	11.23
699.504	-3.77
699.533	-5.77
699.561	-9.77
699.59	27.23
699.618	-7.77
699.647	17.23
699.675	0.23
699.704	-3.77
699.732	13.23
699.761	10.23
699.789	2.23
699.818	16.23
699.846	0.23
699.874	-7.77
699.903	-8.77
699.931	-7.77
699.96	1.23
699.988	-6.77
700.017	6.23
700.045	8.23
700.074	4.23
700.102	7.23
700.13	-14.77
700.159	16.23
700.187	0.23
700.216	-2.77
700.244	-8.77
700.273	-7.77
700.301	-5.77
700.329	13.23
700.358	11.23
700.386	-1.77
700.415	3.23
700.443	4.23
700.472	2.23
700.5	-2.77
700.528	-2.77
700.557	4.23
700.585	-6.77
700.614	1.23
700.642	-2.77
700.67	16.23
700.699	21.23
700.727	2.23
700.755	6.23
700.784	6.23
700.812	-9.77
700.841	22.23
700.869	14.23
700.897	-13.77
700.926	-9.77
700.954	7.23
700.982	8.23
701.011	9.23
701.039	11.23
701.067	15.23
701.096	5.23
701.124	1.23
701.152	1.23
701.181	-10.77
701.209	1.23
701.237	16.23
701.266	12.23
701.294	-11.77
701.322	-6.77
701.351	-5.77
701.379	-4.77
701.407	-5.77
701.435	-8.77
701.464	24.23
701.492	15.23
701.52	-6.77
701.549	-3.77
701.577	-2.77
701.605	-4.77
701.634	12.23
701.662	4.23
701.69	-18.77
701.718	-8.77
701.747	-0.77
701.775	5.23
701.803	-7.77
701.831	4.23
701.86	-5.77
701.888	6.23
701.916	-3.77
701.944	1.23
701.973	2.23
702.001	4.23
702.029	2.23
702.057	8.23
702.086	3.23
702.114	-7.77
702.142	-0.77
702.17	5.23
702.199	10.23
702.227	18.23
702.255	11.23
702.283	-10.77
702.311	3.23
702.34	-3.77
702.368	8.23
702.396	-6.77
702.424	-3.77
702.452	-1.77
702.481	6.23
702.509	3.23
702.537	5.23
702.565	5.23
702.593	-11.77
702.621	-2.77
702.65	18.23
702.678	18.23
702.706	15.23
702.734	-0.77
702.762	11.23
702.79	9.23
702.819	1.23
702.847	-11.77
702.875	4.23
702.903	2.23
702.931	-12.77
702.959	-4.77
702.988	-7.77
703.016	-6.77
703.044	-9.77
703.072	-4.77
703.1	-20.77
703.128	13.23
703.156	-3.77
703.184	-5.77
703.212	15.23
703.241	2.23
703.269	4.23
703.297	-3.77
703.325	5.23
703.353	-2.77
703.381	-11.77
703.409	14.23
703.437	-0.77
703.465	-1.77
703.493	-1.77
703.522	17.23
703.55	17.23
703.578	13.23
703.606	3.23
703.634	-2.77
703.662	-14.77
703.69	3.23
703.718	16.23
703.746	35.23
703.774	-0.77
703.802	16.23
703.83	3.23
703.858	1.23
703.886	-14.77
703.914	-11.77
703.942	5.23
703.97	-0.77
703.998	-14.77
704.027	6.23
704.055	16.23
704.083	11.23
704.111	0.23
704.139	3.23
704.167	-5.77
704.195	13.23
704.223	-0.77
704.251	-4.77
704.279	0.23
704.307	18.23
704.335	-10.77
704.363	-0.77
704.391	-5.77
704.419	1.23
704.447	-8.77
704.475	-4.77
704.503	3.23
704.531	0.23
704.558	8.23
704.586	0.23
704.614	8.23
704.642	6.23
704.67	-14.77
704.698	-1.77
704.726	11.23
704.754	-5.77
704.782	-13.77
704.81	-11.77
704.838	18.23
704.866	9.23
704.894	-2.77
704.922	1.23
704.95	0.23
704.978	1.23
705.006	11.23
705.034	24.23
705.061	9.23
705.089	-0.77
705.117	0.23
705.145	7.23
705.173	7.23
705.201	7.23
705.229	24.23
705.257	1.23
705.285	3.23
705.313	3.23
705.34	-7.77
705.368	-12.77
705.396	5.23
705.424	-7.77
705.452	7.23
705.48	11.23
705.508	11.23
705.536	-5.77
705.563	-12.77
705.591	1.23
705.619	-3.77
705.647	-4.77
705.675	13.23
705.703	16.23
705.731	-6.77
705.758	10.23
705.786	6.23
705.814	28.23
705.842	8.23
705.87	16.23
705.898	18.23
705.925	-12.77
705.953	9.23
705.981	4.23
706.009	2.23
706.037	17.23
706.065	6.23
706.092	0.23
706.12	-10.77
706.148	-8.77
706.176	-8.77
706.204	8.23
706.231	13.23
706.259	6.23
706.287	-0.77
706.315	0.23
706.342	-12.77
706.37	10.23
706.398	-2.77
706.426	6.23
706.454	-3.77
706.481	6.23
706.509	-4.77
706.537	-8.77
706.565	-4.77
706.592	4.23
706.62	-0.77
706.648	0.23
706.676	-13.77
706.703	-1.77
706.731	2.23
706.759	12.23
706.787	9.23
706.814	12.23
706.842	1.23
706.87	2.23
706.897	7.23
706.925	-3.77
706.953	16.23
706.981	24.23
707.008	12.23
707.036	13.23
707.064	-8.77
707.091	-10.77
707.119	18.23
707.147	2.23
707.174	-12.77
707.202	4.23
707.23	-9.77
707.258	11.23
707.285	6.23
707.313	7.23
707.341	-20.77
707.368	-3.77
707.396	-4.77
707.424	17.23
707.451	19.23
707.479	10.23
707.507	13.23
707.534	1.23
707.562	4.23
707.59	-4.77
707.617	1.23
707.645	-3.77
707.672	8.23
707.7	4.23
707.728	8.23
707.755	4.23
707.783	3.23
707.811	15.23
707.838	-2.77
707.866	5.23
707.893	12.23
707.921	7.23
707.949	-6.77
707.976	-9.77
708.004	10.23
708.031	-13.77
708.059	1.23
708.087	1.23
708.114	-7.77
708.142	7.23
708.169	-3.77
708.197	-2.77
708.225	9.23
708.252	11.23
708.28	28.23
708.307	14.23
708.335	18.23
708.362	-6.77
708.39	9.23
708.418	0.23
708.445	-0.77
708.473	1.23
708.5	3.23
708.528	15.23
708.555	-0.77
708.583	-10.77
708.61	-10.77
708.638	11.23
708.665	-11.77
708.693	3.23
708.72	-0.77
708.748	7.23
708.776	-9.77
708.803	14.23
708.831	13.23
708.858	18.23
708.886	-0.77
708.913	7.23
708.941	1.23
708.968	0.23
708.996	-3.77
709.023	24.23
709.051	9.23
709.078	-5.77
709.105	8.23
709.133	-1.77
709.16	1.23
709.188	8.23
709.215	23.23
709.243	18.23
709.27	5.23
709.298	3.23
709.325	-0.77
709.353	6.23
709.38	5.23
709.408	14.23
709.435	11.23
709.462	-3.77
709.49	5.23
709.517	-5.77
709.545	-4.77
709.572	1.23
709.6	-2.77
709.627	3.23
709.655	-9.77
709.682	9.23
709.709	-1.77
709.737	12.23
709.764	-0.77
709.792	4.23
709.819	15.23
709.846	-0.77
709.874	2.23
709.901	13.23
709.929	9.23
709.956	6.23
709.983	-1.77
710.011	-0.77
710.038	-5.77
710.066	5.23
710.093	26.23
710.12	12.23
710.148	0.23
710.175	-10.77
710.202	-0.77
710.23	2.23
710.257	3.23
710.284	16.23
710.312	18.23
710.339	-4.77
710.366	9.23
710.394	-9.77
710.421	-0.77
710.448	2.23
710.476	-4.77
710.503	0.23
710.53	7.23
710.558	14.23
710.585	16.23
710.612	2.23
710.64	7.23
710.667	0.23
710.694	-1.77
710.722	7.23
710.749	0.23
710.776	1.23
710.804	2.23
710.831	-0.77
710.858	7.23
710.885	13.23
710.913	-1.77
710.94	21.23
710.967	1.23
710.995	0.23
711.022	9.23
711.049	1.23
711.076	-1.77
711.104	6.23
711.131	7.23
711.158	27.23
711.185	20.23
711.213	-14.77
711.24	3.23
711.267	-5.77
711.294	0.23
711.322	26.23
711.349	-0.77
711.376	-3.77
711.403	20.23
711.431	-4.77
711.458	-6.77
711.485	-8.77
711.512	-1.77
711.54	-2.77
711.567	4.23
711.594	-1.77
711.621	2.23
711.648	7.23
711.676	0.23
711.703	-0.77
711.73	-6.77
711.757	0.23
711.784	-1.77
711.812	-12.77
711.839	0.23
711.866	-8.77
711.893	-13.77
711.92	13.23
711.947	6.23
711.975	7.23
712.002	-3.77
712.029	11.23
712.056	17.23
712.083	16.23
712.11	-6.77
712.138	10.23
712.165	8.23
712.192	-3.77
712.219	-5.77
712.246	2.23
712.273	1.23
712.3	-0.77
712.328	0.23
712.355	-2.77
712.382	-12.77
712.409	6.23
712.436	-13.77
712.463	20.23
712.49	6.23
712.517	2.23
712.544	-7.77
712.572	0.23
712.599	0.23
712.626	9.23
712.653	4.23
712.68	1.23
712.707	7.23
712.734	1.23
712.761	6.23
712.788	1.23
712.815	8.23
712.842	19.23
712.87	8.23
712.897	-27.77
712.924	-8.77
712.951	5.23
712.978	24.23
713.005	17.23
713.032	18.23
713.059	6.23
713.086	1.23
713.113	-1.77
713.14	-17.77
713.167	6.23
713.194	0.23
713.221	-8.77
713.248	-0.77
713.275	-10.77
713.302	-5.77
713.329	16.23
713.356	16.23
713.383	18.23
713.41	8.23
713.437	-0.77
713.464	-8.77
713.491	11.23
713.518	7.23
713.545	3.23
713.572	0.23
713.599	22.23
713.626	6.23
713.653	7.23
713.68	-10.77
713.707	6.23
713.734	9.23
713.761	10.23
713.788	5.23
713.815	10.23
713.842	-7.77
713.869	-9.77
713.896	-6.77
713.923	4.23
713.95	13.23
713.977	-6.77
714.004	7.23
714.031	-3.77
714.058	-0.77
714.085	0.23
714.112	15.23
714.139	-7.77
714.165	-3.77
714.192	1.23
714.219	19.23
714.246	3.23
714.273	25.23
714.3	11.23
714.327	5.23
714.354	2.23
714.381	5.23
714.408	-4.77
714.435	-8.77
714.461	-1.77
714.488	11.23
714.515	2.23
714.542	6.23
714.569	-3.77
714.596	-11.77
714.623	7.23
714.65	-8.77
714.677	16.23
714.703	8.23
714.73	0.23
714.757	0.23
714.784	18.23
714.811	-11.77
714.838	18.23
714.865	2.23
714.891	10.23
714.918	8.23
714.945	5.23
714.972	22.23
714.999	14.23
715.026	-6.77
715.052	11.23
715.079	-8.77
715.106	2.23
715.133	3.23
715.16	2.23
715.187	8.23
715.213	9.23
715.24	-1.77
715.267	-3.77
715.294	1.23
715.321	-7.77
715.347	2.23
715.374	5.23
715.401	2.23
715.428	-13.77
715.455	2.23
715.481	-6.77
715.508	15.23
715.535	-8.77
715.562	16.23
715.588	18.23
715.615	3.23
715.642	17.23
715.669	13.23
715.695	-0.77
715.722	-0.77
715.749	3.23
715.776	11.23
715.802	7.23
715.829	3.23
715.856	-5.77
715.883	14.23
715.909	1.23
715.936	0.23
715.963	-1.77
715.99	4.23
716.016	-7.77
716.043	-0.77
716.07	-6.77
716.096	-15.77
716.123	-0.77
716.15	-3.77
716.177	-3.77
716.203	18.23
716.23	22.23
716.257	17.23
716.283	13.23
716.31	9.23
716.337	17.23
716.363	2.23
716.39	1.23
716.417	25.23
716.443	-4.77
716.47	-1.77
716.497	27.23
716.523	23.23
716.55	0.23
716.577	2.23
716.603	6.23
716.63	8.23
716.657	15.23
716.683	1.23
716.71	-0.77
716.737	-6.77
716.763	12.23
716.79	16.23
716.817	16.23
716.843	5.23
716.87	-1.77
716.897	7.23
716.923	15.23
716.95	6.23
716.976	-15.77
717.003	-4.77
717.03	8.23
717.056	12.23
717.083	4.23
717.109	11.23
717.136	18.23
717.163	-3.77
717.189	10.23
717.216	14.23
717.242	7.23
717.269	21.23
717.296	6.23
717.322	10.23
717.349	35.23
717.375	17.23
717.402	13.23
717.428	4.23
717.455	12.23
717.481	-7.77
717.508	5.23
717.535	8.23
717.561	3.23
717.588	-0.77
717.614	14.23
717.641	6.23
717.667	-7.77
717.694	-1.77
717.72	-6.77
717.747	-0.77
717.773	-20.77
717.8	7.23
717.826	-0.77
717.853	2.23
717.88	9.23
717.906	15.23
717.933	8.23
717.959	18.23
717.986	1.23
718.012	6.23
718.039	15.23
718.065	-0.77
718.092	10.23
718.118	-3.77
718.144	-4.77
718.171	18.23
718.197	12.23
718.224	10.23
718.25	11.23
718.277	7.23
718.303	10.23
718.33	-1.77
718.356	0.23
718.383	-8.77
718.409	6.23
718.436	12.23
718.462	-2.77
718.489	-1.77
718.515	10.23
718.541	9.23
718.568	16.23
718.594	11.23
718.621	3.23
718.647	8.23
718.674	3.23
718.7	0.23
718.726	2.23
718.753	14.23
718.779	13.23
718.806	-8.77
718.832	-9.77
718.858	7.23
718.885	10.23
718.911	14.23
718.938	-5.77
718.964	-17.77
718.99	-1.77
719.017	3.23
719.043	6.23
719.07	3.23
719.096	-15.77
719.122	17.23
719.149	-8.77
719.175	6.23
719.201	-4.77
719.228	3.23
719.254	2.23
719.281	-5.77
719.307	8.23
719.333	11.23
719.36	14.23
719.386	5.23
719.412	20.23
719.439	-5.77
719.465	16.23
719.491	-11.77
719.518	13.23
719.544	-0.77
719.57	7.23
719.597	12.23
719.623	-6.77
719.649	-4.77
719.675	-12.77
719.702	-8.77
719.728	9.23
719.754	17.23
719.781	8.23
719.807	-5.77
719.833	8.23
719.86	14.23
719.886	9.23
719.912	6.23
719.938	-5.77
719.965	-11.77
719.991	2.23
720.017	9.23
720.044	3.23
720.07	15.23
720.096	12.23
720.122	-13.77
720.149	-3.77
720.175	20.23
720.201	10.23
720.227	10.23
720.254	1.23
720.28	-0.77
720.306	-4.77
720.332	7.23
720.359	-1.77
720.385	-0.77
720.411	-0.77
720.437	2.23
720.463	-1.77
720.49	23.23
720.516	1.23
720.542	-3.77
720.568	0.23
720.595	7.23
720.621	10.23
720.647	22.23
720.673	9.23
720.699	-0.77
720.725	7.23
720.752	11.23
720.778	12.23
720.804	19.23
720.83	4.23
720.856	-1.77
720.883	15.23
720.909	-3.77
720.935	13.23
720.961	39.23
720.987	14.23
721.013	1.23
721.04	-3.77
721.066	-1.77
721.092	-6.77
721.118	21.23
721.144	14.23
721.17	1.23
721.196	2.23
721.223	5.23
721.249	9.23
721.275	2.23
721.301	2.23
721.327	20.23
721.353	12.23
721.379	4.23
721.405	-2.77
721.432	20.23
721.458	-6.77
721.484	3.23
721.51	-3.77
721.536	14.23
721.562	-0.77
721.588	-6.77
721.614	-3.77
721.64	0.23
721.666	7.23
721.693	-0.77
721.719	1.23
721.745	0.23
721.771	-0.77
721.797	-1.77
721.823	4.23
721.849	10.23
721.875	11.23
721.901	1.23
721.927	-11.77
721.953	5.23
721.979	18.23
722.005	17.23
722.031	-11.77
722.057	11.23
722.083	15.23
722.109	3.23
722.135	4.23
722.161	-3.77
722.187	10.23
722.214	-2.77
722.24	-2.77
722.266	-0.77
722.292	3.23
722.318	22.23
722.344	3.23
722.37	11.23
722.396	15.23
722.422	6.23
722.448	-3.77
722.474	-1.77
722.5	9.23
722.526	7.23
722.552	3.23
722.578	7.23
722.603	-4.77
722.629	-3.77
722.655	10.23
722.681	-9.77
722.707	-6.77
722.733	-5.77
722.759	-2.77
722.785	-4.77
722.811	4.23
722.837	8.23
722.863	22.23
722.889	6.23
722.915	10.23
722.941	-7.77
722.967	-1.77
722.993	7.23
723.019	-0.77
723.045	7.23
723.071	-1.77
723.097	1.23
723.122	0.23
723.148	-6.77
723.174	2.23
723.2	-0.77
723.226	4.23
723.252	14.23
723.278	-20.77
723.304	-3.77
723.33	-4.77
723.356	-6.77
723.381	-1.77
723.407	-13.77
723.433	-0.77
723.459	-9.77
723.485	9.23
723.511	10.23
723.537	-3.77
723.563	-14.77
723.588	13.23
723.614	15.23
723.64	1.23
723.666	14.23
723.692	6.23
723.718	11.23
723.744	11.23
723.769	6.23
723.795	-0.77
723.821	15.23
723.847	-8.77
723.873	9.23
723.899	8.23
723.924	-1.77
723.95	26.23
723.976	-11.77
724.002	-2.77
724.028	1.23
724.053	0.23
724.079	-6.77
724.105	6.23
724.131	-2.77
724.157	7.23
724.182	18.23
724.208	-8.77
724.234	10.23
724.26	-1.77
724.286	17.23
724.311	2.23
724.337	1.23
724.363	-5.77
724.389	14.23
724.415	2.23
724.44	24.23
724.466	6.23
724.492	-0.77
724.518	16.23
724.543	3.23
724.569	15.23
724.595	9.23
724.621	3.23
724.646	2.23
724.672	2.23
724.698	-12.77
724.723	-0.77
724.749	-9.77
724.775	4.23
724.801	7.23
724.826	-3.77
724.852	-1.77
724.878	1.23
724.904	-14.77
724.929	8.23
724.955	-3.77
724.981	-4.77
725.006	10.23
725.032	-1.77
725.058	8.23
725.083	2.23
725.109	-13.77
725.135	11.23
725.161	15.23
725.186	6.23
725.212	7.23
725.238	15.23
725.263	-10.77
725.289	-8.77
725.315	-9.77
725.34	-8.77
725.366	11.23
725.392	-1.77
725.417	-4.77
725.443	6.23
725.468	12.23
725.494	12.23
725.52	24.23
725.545	2.23
725.571	12.23
725.597	-0.77
725.622	1.23
725.648	7.23
725.674	12.23
725.699	-3.77
725.725	-8.77
725.75	26.23
725.776	2.23
725.802	8.23
725.827	16.23
725.853	7.23
725.878	6.23
725.904	12.23
725.93	10.23
725.955	-9.77
725.981	-10.77
726.006	-0.77
726.032	13.23
726.057	-0.77
726.083	-2.77
726.109	20.23
726.134	16.23
726.16	8.23
726.185	20.23
726.211	-15.77
726.236	3.23
726.262	14.23
726.288	30.23
726.313	2.23
726.339	10.23
726.364	-5.77
726.39	8.23
726.415	0.23
726.441	-17.77
726.466	-12.77
726.492	0.23
726.517	1.23
726.543	-3.77
726.568	-1.77
726.594	-2.77
726.619	11.23
726.645	11.23
726.67	2.23
726.696	7.23
726.721	4.23
726.747	-7.77
726.772	-6.77
726.798	-0.77
726.823	11.23
726.849	-15.77
726.874	4.23
726.9	15.23
726.925	3.23
726.951	5.23
726.976	-0.77
727.002	0.23
727.027	10.23
727.053	12.23
727.078	-13.77
727.104	-16.77
727.129	-17.77
727.155	-1.77
727.18	12.23
727.205	13.23
727.231	-1.77
727.256	-0.77
727.282	0.23
727.307	7.23
727.333	-1.77
727.358	7.23
727.383	-12.77
727.409	-1.77
727.434	19.23
727.46	4.23
727.485	12.23
727.511	24.23
727.536	-19.77
727.561	-0.77
727.587	-15.77
727.612	-1.77
727.637	-1.77
727.663	11.23
727.688	28.23
727.714	2.23
727.739	2.23
727.764	17.23
727.79	12.23
727.815	3.23
727.841	7.23
727.866	16.23
727.891	12.23
727.917	-7.77
727.942	3.23
727.967	-0.77
727.993	-2.77
728.018	9.23
728.043	-3.77
728.069	10.23
728.094	10.23
728.119	3.23
728.145	24.23
728.17	2.23
728.195	11.23
728.221	23.23
728.246	1.23
728.271	-0.77
728.297	-3.77
728.322	-3.77
728.347	-4.77
728.373	2.23
728.398	10.23
728.423	-0.77
728.448	2.23
728.474	-1.77
728.499	18.23
728.524	-7.77
728.55	3.23
728.575	-1.77
728.6	7.23
728.625	-2.77
728.651	6.23
728.676	2.23
728.701	1.23
728.727	0.23
728.752	-5.77
728.777	-3.77
728.802	5.23
728.828	-1.77
728.853	10.23
728.878	-8.77
728.903	-5.77
728.929	-4.77
728.954	-8.77
728.979	20.23
729.004	15.23
729.03	-20.77
729.055	15.23
729.08	-8.77
729.105	-8.77
729.13	9.23
729.156	2.23
729.181	7.23
729.206	-24.77
729.231	-10.77
729.256	-1.77
729.282	10.23
729.307	-0.77
729.332	-2.77
729.357	1.23
729.382	-3.77
729.408	3.23
729.433	16.23
729.458	7.23
729.483	11.23
729.508	24.23
729.533	20.23
729.559	2.23
729.584	5.23
729.609	13.23
729.634	23.23
729.659	-4.77
729.684	-7.77
729.71	23.23
729.735	11.23
729.76	7.23
729.785	14.23
729.81	23.23
729.835	1.23
729.86	7.23
729.886	23.23
729.911	16.23
729.936	3.23
729.961	18.23
729.986	16.23
730.011	69.23
730.036	231.23
730.061	998.23
730.086	2688.23
730.112	3378.23
730.137	2871.23
730.162	2160.23
730.187	1687.23
730.212	1282.23
730.237	825.23
730.262	446.23
730.287	240.23
730.312	155.23
730.337	79.23
730.362	54.23
730.387	35.23
730.413	17.23
730.438	11.23
730.463	37.23
730.488	8.23
730.513	14.23
730.538	7.23
730.563	17.23
730.588	19.23
730.613	19.23
730.638	2.23
730.663	15.23
730.688	31.23
730.713	0.23
730.738	14.23
730.763	2.23
730.788	-5.77
730.813	9.23
730.838	7.23
730.863	15.23
730.888	11.23
730.913	1.23
730.938	-9.77
730.963	35.23
730.988	117.23
731.013	394.23
731.038	601.23
731.063	620.23
731.088	471.23
731.113	351.23
731.138	251.23
731.163	207.23
731.188	94.23
731.213	65.23
731.238	43.23
731.263	27.23
731.288	2.23
731.313	17.23
731.338	5.23
731.363	14.23
731.388	11.23
731.413	11.23
731.438	12.23
731.463	0.23
731.487	3.23
731.512	13.23
731.537	5.23
731.562	14.23
731.587	6.23
731.612	-1.77
731.637	12.23
731.662	7.23
731.687	-1.77
731.712	-4.77
731.737	12.23
731.762	9.23
731.786	10.23
731.811	-4.77
731.836	-1.77
731.861	5.23
731.886	0.23
731.911	10.23
731.936	17.23
731.961	-6.77
731.986	-9.77
732.01	0.23
732.035	3.23
732.06	30.23
732.085	6.23
732.11	-3.77
732.135	-21.77
732.16	-1.77
732.184	6.23
732.209	-0.77
732.234	9.23
732.259	-5.77
732.284	19.23
732.309	-3.77
732.334	-3.77
732.358	-5.77
732.383	-21.77
732.408	-0.77
732.433	-0.77
732.458	-11.77
732.482	13.23
732.507	-3.77
732.532	18.23
732.557	24.23
732.582	22.23
732.607	35.23
732.631	62.23
732.656	95.23
732.681	151.23
732.706	330.23
732.73	462.23
732.755	396.23
732.78	305.23
732.805	236.23
732.83	170.23
732.854	113.23
732.879	94.23
732.904	39.23
732.929	11.23
732.953	18.23
732.978	12.23
733.003	-1.77
733.028	6.23
733.052	10.23
733.077	0.23
733.102	25.23
733.127	2.23
733.151	6.23
733.176	10.23
733.201	-6.77
733.226	7.23
733.25	34.23
733.275	5.23
733.3	10.23
733.324	22.23
733.349	14.23
733.374	15.23
733.399	2.23
733.423	-1.77
733.448	-3.77
733.473	8.23
733.497	6.23
733.522	-0.77
733.547	10.23
733.571	15.23
733.596	12.23
733.621	11.23
733.646	11.23
733.67	23.23
733.695	4.23
733.72	1.23
733.744	2.23
733.769	6.23
733.794	9.23
733.818	7.23
733.843	-2.77
733.867	-3.77
733.892	10.23
733.917	-2.77
733.941	5.23
733.966	4.23
733.991	4.23
734.015	5.23
734.04	3.23
734.065	19.23
734.089	9.23
734.114	5.23
734.138	6.23
734.163	-1.77
734.188	0.23
734.212	8.23
734.237	21.23
734.261	6.23
734.286	10.23
734.311	3.23
734.335	7.23
734.36	0.23
734.384	14.23
734.409	11.23
734.434	-1.77
734.458	7.23
734.483	8.23
734.507	1.23
734.532	-1.77
734.556	10.23
734.581	-7.77
734.606	-1.77
734.63	-16.77
734.655	9.23
734.679	6.23
734.704	7.23
734.728	4.23
734.753	-11.77
734.777	0.23
734.802	6.23
734.826	19.23
734.851	-0.77
734.876	15.23
734.9	3.23
734.925	14.23
734.949	14.23
734.974	11.23
734.998	0.23
735.023	-1.77
735.047	-4.77
735.072	0.23
735.096	10.23
735.121	-4.77
735.145	0.23
735.17	-0.77
735.194	5.23
735.219	-14.77
735.243	6.23
735.268	12.23
735.292	2.23
735.317	-4.77
735.341	11.23
735.365	-5.77
735.39	12.23
735.414	0.23
735.439	4.23
735.463	3.23
735.488	8.23
735.512	5.23
735.537	19.23
735.561	-13.77
735.586	5.23
735.61	10.23
735.634	-4.77
735.659	-6.77
735.683	15.23
735.708	-12.77
735.732	4.23
735.757	-2.77
735.781	-0.77
735.805	14.23
735.83	-8.77
735.854	-1.77
735.879	5.23
735.903	4.23
735.927	9.23
735.952	2.23
735.976	-1.77
736.001	0.23
736.025	-1.77
736.049	9.23
736.074	3.23
736.098	2.23
736.123	5.23
736.147	11.23
736.171	2.23
736.196	12.23
736.22	-1.77
736.244	-4.77
736.269	3.23
736.293	0.23
736.317	0.23
736.342	1.23
736.366	17.23
736.39	3.23
736.415	1.23
736.439	6.23
736.463	-0.77
736.488	9.23
736.512	-2.77
736.536	12.23
736.561	36.23
736.585	5.23
736.609	11.23
736.634	3.23
736.658	-1.77
736.682	3.23
736.707	-24.77
736.731	-7.77
736.755	-5.77
736.78	16.23
736.804	9.23
736.828	1.23
736.852	-1.77
736.877	-7.77
736.901	6.23
736.925	8.23
736.949	11.23
736.974	6.23
736.998	-7.77
737.022	2.23
737.047	-0.77
737.071	-7.77
737.095	19.23
737.119	20.23
737.144	4.23
737.168	-0.77
737.192	-3.77
737.216	9.23
737.241	5.23
737.265	2.23
737.289	11.23
737.313	8.23
737.337	20.23
737.362	7.23
737.386	-4.77
737.41	1.23
737.434	14.23
737.459	-3.77
737.483	11.23
737.507	13.23
737.531	9.23
737.555	9.23
737.58	3.23
737.604	2.23
737.628	-11.77
737.652	-6.77
737.676	-8.77
737.701	3.23
737.725	2.23
737.749	10.23
737.773	3.23
737.797	-3.77
737.821	3.23
737.846	10.23
737.87	26.23
737.894	-5.77
737.918	-4.77
737.942	0.23
737.966	-1.77
737.99	6.23
738.015	6.23
738.039	20.23
738.063	-1.77
738.087	8.23
738.111	6.23
738.135	20.23
738.159	-1.77
738.184	-5.77
738.208	-9.77
738.232	-0.77
738.256	19.23
738.28	8.23
738.304	10.23
738.328	7.23
738.352	11.23
738.376	-6.77
738.4	9.23
738.425	15.23
738.449	9.23
738.473	40.23
738.497	17.23
738.521	-3.77
738.545	2.23
738.569	9.23
738.593	8.23
738.617	8.23
738.641	-14.77
738.665	-3.77
738.689	1.23
738.713	-5.77
738.737	11.23
738.762	10.23
738.786	19.23
738.81	-7.77
738.834	13.23
738.858	14.23
738.882	16.23
738.906	8.23
738.93	10.23
738.954	2.23
738.978	13.23
739.002	-13.77
739.026	15.23
739.05	8.23
739.074	-15.77
739.098	23.23
739.122	7.23
739.146	-0.77
739.17	1.23
739.194	19.23
739.218	-3.77
739.242	-0.77
739.266	-5.77
739.29	3.23
739.314	18.23
739.338	10.23
739.362	0.23
739.386	10.23
739.41	11.23
739.434	-5.77
739.458	17.23
739.482	15.23
739.506	7.23
739.53	3.23
739.554	17.23
739.577	-5.77
739.601	3.23
739.625	-9.77
739.649	6.23
739.673	2.23
739.697	24.23
739.721	3.23
739.745	19.23
739.769	6.23
739.793	13.23
739.817	4.23
739.841	1.23
739.865	14.23
739.889	-16.77
739.912	13.23
739.936	14.23
739.96	4.23
739.984	11.23
740.008	-9.77
740.032	-17.77
740.056	-7.77
740.08	-1.77
740.104	-8.77
740.127	12.23
740.151	3.23
740.175	2.23
740.199	-3.77
740.223	53.23
740.247	2.23
740.271	12.23
740.295	-7.77
740.318	-8.77
740.342	-15.77
740.366	12.23
740.39	15.23
740.414	-8.77
740.438	3.23
740.461	15.23
740.485	10.23
740.509	-4.77
740.533	18.23
740.557	-5.77
740.581	-4.77
740.604	-11.77
740.628	-10.77
740.652	12.23
740.676	-2.77
740.7	8.23
740.723	3.23
740.747	3.23
740.771	5.23
740.795	-3.77
740.819	11.23
740.842	16.23
740.866	14.23
740.89	1.23
740.914	-1.77
740.938	-1.77
740.961	20.23
740.985	7.23
741.009	15.23
741.033	8.23
741.056	6.23
741.08	-12.77
741.104	-5.77
741.128	-14.77
741.151	10.23
741.175	12.23
741.199	-4.77
741.223	10.23
741.246	8.23
741.27	8.23
741.294	13.23
741.318	-2.77
741.341	0.23
741.365	7.23
741.389	-1.77
741.413	20.23
741.436	26.23
741.46	16.23
741.484	1.23
741.507	2.23
741.531	13.23
741.555	12.23
741.579	14.23
741.602	9.23
741.626	9.23
741.65	-9.77
741.673	12.23
741.697	26.23
741.721	7.23
741.744	-3.77
741.768	13.23
741.792	-5.77
741.815	6.23
741.839	16.23
741.863	6.23
741.886	7.23
741.91	11.23
741.934	16.23
741.957	-8.77
741.981	7.23
742.005	10.23
742.028	-3.77
742.052	-15.77
742.075	16.23
742.099	6.23
742.123	7.23
742.146	1.23
742.17	3.23
742.194	-6.77
742.217	6.23
742.241	-6.77
742.264	0.23
742.288	7.23
742.312	6.23
742.335	0.23
742.359	2.23
742.382	12.23
742.406	26.23
742.43	-13.77
742.453	0.23
742.477	-2.77
742.5	0.23
742.524	-6.77
742.548	-11.77
742.571	6.23
742.595	-0.77
742.618	-6.77
742.642	0.23
742.665	8.23
742.689	-4.77
742.712	4.23
742.736	-13.77
742.76	7.23
742.783	-2.77
742.807	14.23
742.83	15.23
742.854	-8.77
742.877	3.23
742.901	14.23
742.924	-1.77
742.948	-1.77
742.971	15.23
742.995	5.23
743.018	-16.77
743.042	3.23
743.065	-11.77
743.089	-0.77
743.112	5.23
743.136	9.23
743.159	9.23
743.183	4.23
743.206	-1.77
743.23	-7.77
743.253	17.23
743.277	3.23
743.3	-7.77
743.324	-10.77
743.347	-5.77
743.371	6.23
743.394	5.23
743.418	2.23
743.441	9.23
743.465	15.23
743.488	9.23
743.512	1.23
743.535	-6.77
743.558	-6.77
743.582	-0.77
743.605	5.23
743.629	3.23
743.652	18.23
743.676	12.23
743.699	10.23
743.723	-4.77
743.746	-5.77
743.769	3.23
743.793	8.23
743.816	-9.77
743.84	7.23
743.863	2.23
743.886	15.23
743.91	13.23
743.933	17.23
743.957	16.23
743.98	-4.77
744.003	-0.77
744.027	3.23
744.05	8.23
744.074	6.23
744.097	-13.77
744.12	3.23
744.144	-13.77
744.167	-6.77
744.19	1.23
744.214	12.23
744.237	-1.77
744.26	15.23
744.284	-7.77
744.307	-2.77
744.331	1.23
744.354	-4.77
744.377	-1.77
744.401	-5.77
744.424	-3.77
744.447	-19.77
744.471	0.23
