Data from HighRes_H2D2_15_04_11_07_2024_HR4C61891__0__15-05-34-443.txt Node

Date: Thu Nov 07 15:05:34 EST 2024
User: crc00042
Spectrometer: HR4C6189
Trigger mode: 4
Integration Time (sec): 1.000000E-1
Scans to average: 1
Electric dark correction enabled: true
Nonlinearity correction enabled: false
Boxcar width: 0
XAxis mode: Wavelengths
Number of Pixels in Spectrum: 3648
>>>>>Begin Spectral Data<<<<<
639.567	-27.38
639.602	-27.38
639.636	-27.38
639.67	-38.38
639.704	-36.38
639.738	-6.38
639.773	-5.38
639.807	-10.38
639.841	15.62
639.875	12.62
639.909	8.62
639.943	3.62
639.978	1.62
640.012	-17.38
640.046	-2.38
640.08	4.62
640.114	0.62
640.148	-5.38
640.182	-9.38
640.217	5.62
640.251	13.62
640.285	9.62
640.319	-11.38
640.353	-11.38
640.387	-0.38
640.421	-14.38
640.455	-8.38
640.49	-0.38
640.524	1.62
640.558	12.62
640.592	-4.38
640.626	9.62
640.66	12.62
640.694	-18.38
640.728	-4.38
640.762	8.62
640.796	17.62
640.83	0.62
640.865	-10.38
640.899	-7.38
640.933	-5.38
640.967	-21.38
641.001	13.62
641.035	-2.38
641.069	9.62
641.103	13.62
641.137	-9.38
641.171	-22.38
641.205	-0.38
641.239	-2.38
641.273	9.62
641.307	-1.38
641.341	-24.38
641.375	-6.38
641.409	-3.38
641.443	8.62
641.477	13.62
641.511	9.62
641.545	5.62
641.579	11.62
641.614	11.62
641.648	11.62
641.682	-11.38
641.716	2.62
641.75	10.62
641.784	-2.38
641.818	1.62
641.852	0.62
641.886	6.62
641.919	19.62
641.953	-2.38
641.987	-17.38
642.021	0.62
642.055	13.62
642.089	-7.38
642.123	-11.38
642.157	-7.38
642.191	-2.38
642.225	8.62
642.259	-16.38
642.293	14.62
642.327	-1.38
642.361	-3.38
642.395	-8.38
642.429	11.62
642.463	9.62
642.497	15.62
642.531	9.62
642.565	-22.38
642.599	8.62
642.633	-11.38
642.666	16.62
642.7	11.62
642.734	-9.38
642.768	-10.38
642.802	-18.38
642.836	3.62
642.87	0.62
642.904	8.62
642.938	-1.38
642.972	-10.38
643.005	5.62
643.039	0.62
643.073	-18.38
643.107	2.62
643.141	2.62
643.175	-7.38
643.209	-4.38
643.243	8.62
643.276	20.62
643.31	-2.38
643.344	2.62
643.378	-3.38
643.412	9.62
643.446	-9.38
643.48	-3.38
643.513	-7.38
643.547	4.62
643.581	7.62
643.615	23.62
643.649	1.62
643.683	-6.38
643.716	-8.38
643.75	7.62
643.784	-13.38
643.818	-1.38
643.852	-1.38
643.886	6.62
643.919	4.62
643.953	-16.38
643.987	-10.38
644.021	-17.38
644.055	7.62
644.088	2.62
644.122	-1.38
644.156	-10.38
644.19	-6.38
644.224	-0.38
644.257	-0.38
644.291	8.62
644.325	5.62
644.359	6.62
644.392	15.62
644.426	9.62
644.46	-23.38
644.494	-14.38
644.527	-26.38
644.561	3.62
644.595	-13.38
644.629	6.62
644.662	-9.38
644.696	16.62
644.73	3.62
644.764	5.62
644.797	8.62
644.831	-7.38
644.865	1.62
644.899	-5.38
644.932	19.62
644.966	12.62
645	2.62
645.033	17.62
645.067	-1.38
645.101	4.62
645.135	-6.38
645.168	9.62
645.202	-7.38
645.236	0.62
645.269	4.62
645.303	6.62
645.337	-15.38
645.37	-12.38
645.404	-3.38
645.438	-3.38
645.471	0.62
645.505	-5.38
645.539	-3.38
645.572	8.62
645.606	8.62
645.64	10.62
645.673	-5.38
645.707	0.62
645.741	7.62
645.774	-14.38
645.808	10.62
645.842	-6.38
645.875	0.62
645.909	-12.38
645.943	-8.38
645.976	2.62
646.01	9.62
646.043	11.62
646.077	19.62
646.111	9.62
646.144	3.62
646.178	3.62
646.212	-14.38
646.245	-3.38
646.279	2.62
646.312	4.62
646.346	12.62
646.38	-0.38
646.413	12.62
646.447	-10.38
646.48	-7.38
646.514	-5.38
646.547	-16.38
646.581	9.62
646.615	5.62
646.648	-15.38
646.682	4.62
646.715	-7.38
646.749	16.62
646.782	-10.38
646.816	-14.38
646.85	-1.38
646.883	4.62
646.917	-6.38
646.95	1.62
646.984	5.62
647.017	-12.38
647.051	0.62
647.084	4.62
647.118	-5.38
647.151	4.62
647.185	2.62
647.218	4.62
647.252	-3.38
647.285	-7.38
647.319	-10.38
647.353	3.62
647.386	9.62
647.42	-3.38
647.453	-5.38
647.487	-3.38
647.52	2.62
647.553	5.62
647.587	-6.38
647.62	-3.38
647.654	-3.38
647.687	21.62
647.721	12.62
647.754	-14.38
647.788	20.62
647.821	-12.38
647.855	-3.38
647.888	4.62
647.922	6.62
647.955	5.62
647.989	-2.38
648.022	1.62
648.055	18.62
648.089	-6.38
648.122	18.62
648.156	-10.38
648.189	-7.38
648.223	24.62
648.256	7.62
648.29	3.62
648.323	-6.38
648.356	1.62
648.39	4.62
648.423	1.62
648.457	-14.38
648.49	10.62
648.523	-1.38
648.557	7.62
648.59	-6.38
648.624	9.62
648.657	-2.38
648.69	16.62
648.724	-2.38
648.757	5.62
648.791	-4.38
648.824	3.62
648.857	4.62
648.891	4.62
648.924	-7.38
648.957	15.62
648.991	5.62
649.024	26.62
649.057	-13.38
649.091	6.62
649.124	16.62
649.158	12.62
649.191	29.62
649.224	23.62
649.258	-9.38
649.291	-10.38
649.324	-8.38
649.358	14.62
649.391	-2.38
649.424	9.62
649.458	-0.38
649.491	-0.38
649.524	-9.38
649.557	-10.38
649.591	-10.38
649.624	9.62
649.657	-5.38
649.691	4.62
649.724	17.62
649.757	1.62
649.791	-1.38
649.824	9.62
649.857	7.62
649.89	-9.38
649.924	-18.38
649.957	-3.38
649.99	-27.38
650.023	7.62
650.057	-7.38
650.09	17.62
650.123	-3.38
650.157	13.62
650.19	6.62
650.223	-11.38
650.256	-2.38
650.29	5.62
650.323	1.62
650.356	15.62
650.389	-6.38
650.423	-16.38
650.456	12.62
650.489	1.62
650.522	11.62
650.555	16.62
650.589	16.62
650.622	1.62
650.655	28.62
650.688	7.62
650.721	0.62
650.755	3.62
650.788	1.62
650.821	-9.38
650.854	9.62
650.887	16.62
650.921	-3.38
650.954	0.62
650.987	-2.38
651.02	-3.38
651.053	-6.38
651.087	-7.38
651.12	9.62
651.153	10.62
651.186	1.62
651.219	-11.38
651.252	-1.38
651.286	20.62
651.319	-12.38
651.352	6.62
651.385	8.62
651.418	10.62
651.451	27.62
651.484	11.62
651.518	1.62
651.551	9.62
651.584	-5.38
651.617	9.62
651.65	4.62
651.683	10.62
651.716	3.62
651.749	-10.38
651.783	-14.38
651.816	6.62
651.849	1.62
651.882	7.62
651.915	-6.38
651.948	1.62
651.981	0.62
652.014	10.62
652.047	-4.38
652.08	1.62
652.114	-9.38
652.147	-1.38
652.18	13.62
652.213	36.62
652.246	7.62
652.279	-8.38
652.312	9.62
652.345	-16.38
652.378	8.62
652.411	24.62
652.444	7.62
652.477	3.62
652.51	1.62
652.543	-23.38
652.576	0.62
652.609	-11.38
652.642	7.62
652.675	13.62
652.709	0.62
652.742	2.62
652.775	6.62
652.808	20.62
652.841	-9.38
652.874	11.62
652.907	-1.38
652.94	-22.38
652.973	-25.38
653.006	-0.38
653.039	4.62
653.072	3.62
653.105	-4.38
653.138	-15.38
653.171	-17.38
653.204	7.62
653.237	15.62
653.27	3.62
653.303	-6.38
653.336	7.62
653.368	11.62
653.401	-5.38
653.434	9.62
653.467	-6.38
653.5	-1.38
653.533	-1.38
653.566	-2.38
653.599	-6.38
653.632	5.62
653.665	3.62
653.698	-11.38
653.731	-13.38
653.764	0.62
653.797	7.62
653.83	11.62
653.863	4.62
653.896	-15.38
653.929	-5.38
653.961	3.62
653.994	-3.38
654.027	2.62
654.06	4.62
654.093	-1.38
654.126	12.62
654.159	8.62
654.192	-7.38
654.225	7.62
654.258	0.62
654.29	-7.38
654.323	-3.38
654.356	6.62
654.389	1.62
654.422	-0.38
654.455	5.62
654.488	12.62
654.521	-11.38
654.553	-1.38
654.586	8.62
654.619	-2.38
654.652	0.62
654.685	16.62
654.718	12.62
654.751	9.62
654.783	-1.38
654.816	8.62
654.849	3.62
654.882	-11.38
654.915	-12.38
654.948	4.62
654.98	6.62
655.013	8.62
655.046	-10.38
655.079	-7.38
655.112	3.62
655.144	-0.38
655.177	5.62
655.21	13.62
655.243	18.62
655.276	10.62
655.308	0.62
655.341	-13.38
655.374	15.62
655.407	7.62
655.44	-4.38
655.472	-1.38
655.505	6.62
655.538	9.62
655.571	-3.38
655.603	-11.38
655.636	-3.38
655.669	7.62
655.702	23.62
655.734	-0.38
655.767	0.62
655.8	3.62
655.833	-1.38
655.865	-2.38
655.898	-8.38
655.931	10.62
655.964	3.62
655.996	19.62
656.029	24.62
656.062	22.62
656.095	34.62
656.127	91.62
656.16	212.62
656.193	622.62
656.225	971.62
656.258	571.62
656.291	214.62
656.324	170.62
656.356	377.62
656.389	777.62
656.422	683.62
656.454	247.62
656.487	73.62
656.52	23.62
656.552	9.62
656.585	16.62
656.618	15.62
656.65	16.62
656.683	13.62
656.716	9.62
656.748	2.62
656.781	-6.38
656.814	-10.38
656.846	3.62
656.879	-7.38
656.912	12.62
656.944	-10.38
656.977	-6.38
657.01	-4.38
657.042	5.62
657.075	5.62
657.108	-19.38
657.14	14.62
657.173	10.62
657.205	15.62
657.238	6.62
657.271	0.62
657.303	-8.38
657.336	2.62
657.369	-8.38
657.401	8.62
657.434	5.62
657.466	10.62
657.499	7.62
657.532	4.62
657.564	9.62
657.597	9.62
657.629	6.62
657.662	2.62
657.694	-5.38
657.727	-24.38
657.76	-4.38
657.792	-6.38
657.825	-10.38
657.857	-14.38
657.89	11.62
657.922	-4.38
657.955	-18.38
657.987	-2.38
658.02	6.62
658.053	3.62
658.085	10.62
658.118	6.62
658.15	8.62
658.183	11.62
658.215	-16.38
658.248	9.62
658.28	-10.38
658.313	-1.38
658.345	12.62
658.378	-1.38
658.41	-6.38
658.443	3.62
658.475	2.62
658.508	-15.38
658.54	0.62
658.573	-5.38
658.605	-1.38
658.638	12.62
658.67	-5.38
658.703	-3.38
658.735	-14.38
658.768	0.62
658.8	-10.38
658.833	4.62
658.865	10.62
658.898	0.62
658.93	-4.38
658.963	-11.38
658.995	-17.38
659.028	13.62
659.06	4.62
659.092	6.62
659.125	9.62
659.157	-0.38
659.19	-7.38
659.222	-2.38
659.255	-0.38
659.287	5.62
659.32	-4.38
659.352	-4.38
659.384	23.62
659.417	10.62
659.449	10.62
659.482	7.62
659.514	-15.38
659.546	-0.38
659.579	-8.38
659.611	-7.38
659.644	-2.38
659.676	-9.38
659.708	-20.38
659.741	-7.38
659.773	6.62
659.806	11.62
659.838	4.62
659.87	1.62
659.903	-8.38
659.935	9.62
659.967	20.62
660	7.62
660.032	-19.38
660.065	3.62
660.097	1.62
660.129	-2.38
660.162	-11.38
660.194	7.62
660.226	11.62
660.259	11.62
660.291	-12.38
660.323	-16.38
660.356	-6.38
660.388	-9.38
660.42	-1.38
660.453	1.62
660.485	10.62
660.517	-10.38
660.55	7.62
660.582	4.62
660.614	10.62
660.647	2.62
660.679	-7.38
660.711	13.62
660.743	-7.38
660.776	-8.38
660.808	2.62
660.84	-2.38
660.873	-3.38
660.905	-0.38
660.937	5.62
660.969	3.62
661.002	3.62
661.034	2.62
661.066	-12.38
661.099	5.62
661.131	15.62
661.163	0.62
661.195	-6.38
661.228	24.62
661.26	-2.38
661.292	-2.38
661.324	14.62
661.357	16.62
661.389	6.62
661.421	4.62
661.453	-0.38
661.485	12.62
661.518	11.62
661.55	-13.38
661.582	-4.38
661.614	0.62
661.647	5.62
661.679	-24.38
661.711	-3.38
661.743	-9.38
661.775	5.62
661.808	31.62
661.84	-5.38
661.872	7.62
661.904	-4.38
661.936	3.62
661.969	-0.38
662.001	1.62
662.033	-2.38
662.065	0.62
662.097	-0.38
662.129	14.62
662.162	0.62
662.194	-1.38
662.226	6.62
662.258	-5.38
662.29	0.62
662.322	-3.38
662.355	-16.38
662.387	22.62
662.419	-3.38
662.451	0.62
662.483	8.62
662.515	-20.38
662.547	-8.38
662.58	-3.38
662.612	-8.38
662.644	-18.38
662.676	-14.38
662.708	2.62
662.74	-2.38
662.772	4.62
662.804	13.62
662.836	9.62
662.869	-1.38
662.901	-3.38
662.933	6.62
662.965	19.62
662.997	5.62
663.029	-4.38
663.061	10.62
663.093	6.62
663.125	-1.38
663.157	-20.38
663.189	5.62
663.221	-1.38
663.254	-12.38
663.286	4.62
663.318	-17.38
663.35	-5.38
663.382	2.62
663.414	6.62
663.446	-3.38
663.478	-10.38
663.51	12.62
663.542	-25.38
663.574	-18.38
663.606	-3.38
663.638	-18.38
663.67	-9.38
663.702	2.62
663.734	10.62
663.766	6.62
663.798	-6.38
663.83	3.62
663.862	27.62
663.894	-0.38
663.926	-15.38
663.958	12.62
663.99	9.62
664.022	-7.38
664.054	1.62
664.086	7.62
664.118	-16.38
664.15	-0.38
664.182	-0.38
664.214	-12.38
664.246	18.62
664.278	6.62
664.31	16.62
664.342	-3.38
664.374	-0.38
664.406	2.62
664.438	-5.38
664.47	0.62
664.502	-10.38
664.534	8.62
664.566	-4.38
664.598	-3.38
664.63	3.62
664.662	2.62
664.693	8.62
664.725	-19.38
664.757	-3.38
664.789	-1.38
664.821	2.62
664.853	14.62
664.885	5.62
664.917	-2.38
664.949	10.62
664.981	8.62
665.013	-2.38
665.045	-18.38
665.076	-13.38
665.108	-0.38
665.14	-4.38
665.172	5.62
665.204	-11.38
665.236	-14.38
665.268	2.62
665.3	-5.38
665.331	-6.38
665.363	-13.38
665.395	-16.38
665.427	-5.38
665.459	2.62
665.491	-4.38
665.523	-1.38
665.555	-7.38
665.586	2.62
665.618	1.62
665.65	-9.38
665.682	9.62
665.714	-7.38
665.746	-7.38
665.777	6.62
665.809	-9.38
665.841	-2.38
665.873	5.62
665.905	-10.38
665.937	14.62
665.968	16.62
666	-3.38
666.032	7.62
666.064	-8.38
666.096	5.62
666.127	12.62
666.159	-2.38
666.191	3.62
666.223	8.62
666.255	-0.38
666.286	-5.38
666.318	4.62
666.35	8.62
666.382	12.62
666.413	4.62
666.445	-5.38
666.477	-20.38
666.509	-4.38
666.54	4.62
666.572	1.62
666.604	6.62
666.636	8.62
666.667	14.62
666.699	20.62
666.731	4.62
666.763	-6.38
666.794	15.62
666.826	0.62
666.858	-18.38
666.89	16.62
666.921	10.62
666.953	6.62
666.985	-1.38
667.017	21.62
667.048	9.62
667.08	12.62
667.112	-1.38
667.143	-3.38
667.175	4.62
667.207	8.62
667.238	0.62
667.27	-11.38
667.302	5.62
667.334	2.62
667.365	12.62
667.397	-5.38
667.429	6.62
667.46	-2.38
667.492	-4.38
667.524	-15.38
667.555	-12.38
667.587	-6.38
667.619	-5.38
667.65	-7.38
667.682	6.62
667.714	-4.38
667.745	6.62
667.777	3.62
667.808	12.62
667.84	26.62
667.872	8.62
667.903	23.62
667.935	-7.38
667.967	4.62
667.998	-1.38
668.03	4.62
668.061	1.62
668.093	1.62
668.125	3.62
668.156	-12.38
668.188	-11.38
668.22	-4.38
668.251	16.62
668.283	6.62
668.314	-2.38
668.346	-1.38
668.377	1.62
668.409	-18.38
668.441	-0.38
668.472	-10.38
668.504	2.62
668.535	7.62
668.567	10.62
668.599	8.62
668.63	-2.38
668.662	-5.38
668.693	15.62
668.725	7.62
668.756	-3.38
668.788	5.62
668.819	-3.38
668.851	1.62
668.882	12.62
668.914	2.62
668.946	10.62
668.977	-2.38
669.009	8.62
669.04	0.62
669.072	3.62
669.103	12.62
669.135	-13.38
669.166	15.62
669.198	13.62
669.229	1.62
669.261	6.62
669.292	1.62
669.324	-0.38
669.355	12.62
669.387	-17.38
669.418	-1.38
669.45	-24.38
669.481	16.62
669.513	12.62
669.544	-4.38
669.576	-0.38
669.607	13.62
669.639	8.62
669.67	1.62
669.701	-5.38
669.733	-17.38
669.764	-4.38
669.796	-12.38
669.827	-26.38
669.859	-4.38
669.89	-1.38
669.922	8.62
669.953	5.62
669.985	17.62
670.016	10.62
670.047	0.62
670.079	4.62
670.11	16.62
670.142	7.62
670.173	0.62
670.204	-8.38
670.236	4.62
670.267	-7.38
670.299	9.62
670.33	9.62
670.362	7.62
670.393	-12.38
670.424	4.62
670.456	-6.38
670.487	-5.38
670.518	9.62
670.55	5.62
670.581	3.62
670.613	-0.38
670.644	-15.38
670.675	-6.38
670.707	3.62
670.738	7.62
670.769	1.62
670.801	5.62
670.832	4.62
670.864	-21.38
670.895	8.62
670.926	4.62
670.958	-12.38
670.989	0.62
671.02	15.62
671.052	2.62
671.083	6.62
671.114	-7.38
671.146	1.62
671.177	1.62
671.208	-9.38
671.24	-6.38
671.271	-3.38
671.302	6.62
671.333	-4.38
671.365	5.62
671.396	8.62
671.427	10.62
671.459	11.62
671.49	-10.38
671.521	-20.38
671.553	15.62
671.584	3.62
671.615	-19.38
671.646	2.62
671.678	13.62
671.709	4.62
671.74	-1.38
671.771	-20.38
671.803	-24.38
671.834	-8.38
671.865	-4.38
671.896	9.62
671.928	5.62
671.959	-3.38
671.99	-8.38
672.021	-4.38
672.053	12.62
672.084	-4.38
672.115	-8.38
672.146	-9.38
672.178	-5.38
672.209	-4.38
672.24	8.62
672.271	13.62
672.303	4.62
672.334	1.62
672.365	-15.38
672.396	1.62
672.427	-6.38
672.459	16.62
672.49	24.62
672.521	21.62
672.552	6.62
672.583	12.62
672.615	6.62
672.646	12.62
672.677	-3.38
672.708	2.62
672.739	-1.38
672.77	9.62
672.802	4.62
672.833	-0.38
672.864	-10.38
672.895	3.62
672.926	3.62
672.957	-6.38
672.989	-9.38
673.02	10.62
673.051	1.62
673.082	18.62
673.113	-3.38
673.144	-6.38
673.175	10.62
673.206	-16.38
673.238	-11.38
673.269	-0.38
673.3	-17.38
673.331	10.62
673.362	0.62
673.393	-1.38
673.424	6.62
673.455	25.62
673.487	-15.38
673.518	5.62
673.549	-5.38
673.58	0.62
673.611	-3.38
673.642	-7.38
673.673	-25.38
673.704	-1.38
673.735	-8.38
673.766	-10.38
673.797	0.62
673.828	3.62
673.86	-8.38
673.891	-14.38
673.922	-4.38
673.953	-19.38
673.984	-7.38
674.015	8.62
674.046	9.62
674.077	-1.38
674.108	-3.38
674.139	-18.38
674.17	7.62
674.201	-7.38
674.232	-20.38
674.263	-16.38
674.294	-8.38
674.325	-10.38
674.356	22.62
674.387	-0.38
674.418	11.62
674.449	-0.38
674.48	-15.38
674.511	-3.38
674.542	12.62
674.573	-15.38
674.604	18.62
674.635	-6.38
674.666	-4.38
674.697	-4.38
674.728	6.62
674.759	8.62
674.79	-6.38
674.821	-14.38
674.852	15.62
674.883	-0.38
674.914	6.62
674.945	-3.38
674.976	6.62
675.007	7.62
675.038	-6.38
675.069	-4.38
675.1	-13.38
675.131	9.62
675.162	1.62
675.193	8.62
675.224	7.62
675.254	-0.38
675.285	8.62
675.316	11.62
675.347	9.62
675.378	0.62
675.409	-1.38
675.44	-2.38
675.471	5.62
675.502	4.62
675.533	-4.38
675.564	2.62
675.595	4.62
675.625	36.62
675.656	26.62
675.687	7.62
675.718	-23.38
675.749	0.62
675.78	-3.38
675.811	-9.38
675.842	11.62
675.873	-2.38
675.903	-8.38
675.934	-7.38
675.965	-10.38
675.996	-14.38
676.027	0.62
676.058	-0.38
676.089	-20.38
676.119	-3.38
676.15	-11.38
676.181	7.62
676.212	-5.38
676.243	16.62
676.274	-4.38
676.304	18.62
676.335	-5.38
676.366	8.62
676.397	-4.38
676.428	-3.38
676.459	7.62
676.489	11.62
676.52	0.62
676.551	-1.38
676.582	-6.38
676.613	4.62
676.643	2.62
676.674	11.62
676.705	3.62
676.736	-1.38
676.767	20.62
676.797	-3.38
676.828	11.62
676.859	-11.38
676.89	2.62
676.92	-6.38
676.951	-4.38
676.982	-12.38
677.013	-6.38
677.044	8.62
677.074	6.62
677.105	-19.38
677.136	3.62
677.167	-0.38
677.197	21.62
677.228	2.62
677.259	1.62
677.289	9.62
677.32	-8.38
677.351	-4.38
677.382	-4.38
677.412	-12.38
677.443	4.62
677.474	0.62
677.505	-11.38
677.535	8.62
677.566	18.62
677.597	-3.38
677.627	-1.38
677.658	-5.38
677.689	-9.38
677.72	-6.38
677.75	-2.38
677.781	-4.38
677.812	-3.38
677.842	15.62
677.873	15.62
677.904	5.62
677.934	11.62
677.965	3.62
677.996	-6.38
678.026	-5.38
678.057	-1.38
678.088	-6.38
678.118	-5.38
678.149	-11.38
678.18	1.62
678.21	10.62
678.241	-8.38
678.272	1.62
678.302	5.62
678.333	9.62
678.363	-1.38
678.394	-3.38
678.425	-5.38
678.455	3.62
678.486	10.62
678.517	-8.38
678.547	0.62
678.578	4.62
678.608	-18.38
678.639	8.62
678.67	0.62
678.7	5.62
678.731	-17.38
678.761	3.62
678.792	-7.38
678.823	12.62
678.853	7.62
678.884	-9.38
678.914	0.62
678.945	5.62
678.975	-18.38
679.006	5.62
679.037	-4.38
679.067	4.62
679.098	2.62
679.128	-11.38
679.159	0.62
679.189	2.62
679.22	-23.38
679.25	8.62
679.281	2.62
679.312	-3.38
679.342	10.62
679.373	19.62
679.403	15.62
679.434	13.62
679.464	7.62
679.495	1.62
679.525	1.62
679.556	12.62
679.586	14.62
679.617	-2.38
679.647	-0.38
679.678	-17.38
679.708	-2.38
679.739	-4.38
679.769	-10.38
679.8	-17.38
679.83	5.62
679.861	7.62
679.891	-11.38
679.922	-6.38
679.952	-7.38
679.983	5.62
680.013	-0.38
680.044	-3.38
680.074	14.62
680.105	15.62
680.135	-4.38
680.165	7.62
680.196	2.62
680.226	-6.38
680.257	13.62
680.287	13.62
680.318	9.62
680.348	-8.38
680.379	18.62
680.409	12.62
680.439	-7.38
680.47	5.62
680.5	-5.38
680.531	8.62
680.561	13.62
680.592	-0.38
680.622	26.62
680.652	-14.38
680.683	19.62
680.713	3.62
680.744	-4.38
680.774	-0.38
680.804	11.62
680.835	-0.38
680.865	-15.38
680.896	12.62
680.926	17.62
680.956	-12.38
680.987	2.62
681.017	-9.38
681.047	11.62
681.078	5.62
681.108	-1.38
681.139	7.62
681.169	-11.38
681.199	-1.38
681.23	1.62
681.26	-10.38
681.29	-8.38
681.321	-16.38
681.351	2.62
681.381	-3.38
681.412	6.62
681.442	2.62
681.472	21.62
681.503	12.62
681.533	-3.38
681.563	-2.38
681.594	2.62
681.624	-0.38
681.654	-13.38
681.685	-6.38
681.715	-4.38
681.745	24.62
681.775	1.62
681.806	-3.38
681.836	-17.38
681.866	-10.38
681.897	-1.38
681.927	-5.38
681.957	-18.38
681.987	4.62
682.018	-26.38
682.048	0.62
682.078	2.62
682.109	8.62
682.139	-2.38
682.169	-1.38
682.199	5.62
682.23	-19.38
682.26	-8.38
682.29	-7.38
682.32	6.62
682.351	-18.38
682.381	6.62
682.411	3.62
682.441	5.62
682.472	-12.38
682.502	-8.38
682.532	-0.38
682.562	-11.38
682.592	5.62
682.623	-10.38
682.653	7.62
682.683	10.62
682.713	2.62
682.743	-23.38
682.774	-21.38
682.804	-7.38
682.834	5.62
682.864	1.62
682.894	0.62
682.925	-11.38
682.955	-3.38
682.985	-1.38
683.015	1.62
683.045	8.62
683.076	-8.38
683.106	-0.38
683.136	-7.38
683.166	7.62
683.196	-14.38
683.226	2.62
683.257	-5.38
683.287	-4.38
683.317	-10.38
683.347	-10.38
683.377	-0.38
683.407	-4.38
683.437	5.62
683.468	25.62
683.498	-12.38
683.528	-5.38
683.558	5.62
683.588	-1.38
683.618	1.62
683.648	-1.38
683.678	-1.38
683.708	3.62
683.739	3.62
683.769	5.62
683.799	1.62
683.829	-14.38
683.859	0.62
683.889	5.62
683.919	-6.38
683.949	0.62
683.979	-14.38
684.009	-3.38
684.039	9.62
684.07	-6.38
684.1	5.62
684.13	-2.38
684.16	7.62
684.19	-9.38
684.22	-11.38
684.25	7.62
684.28	0.62
684.31	12.62
684.34	5.62
684.37	11.62
684.4	-6.38
684.43	8.62
684.46	-3.38
684.49	3.62
684.52	16.62
684.55	18.62
684.58	-0.38
684.61	6.62
684.64	-3.38
684.67	3.62
684.7	-4.38
684.73	1.62
684.76	1.62
684.79	20.62
684.82	1.62
684.85	-3.38
684.88	15.62
684.91	3.62
684.94	-5.38
684.97	-12.38
685	3.62
685.03	-11.38
685.06	-6.38
685.09	-4.38
685.12	10.62
685.15	-7.38
685.18	-13.38
685.21	3.62
685.24	0.62
685.27	-0.38
685.3	9.62
685.33	0.62
685.36	-2.38
685.39	-6.38
685.42	-2.38
685.45	3.62
685.48	8.62
685.51	-24.38
685.54	2.62
685.569	7.62
685.599	1.62
685.629	-0.38
685.659	-3.38
685.689	-18.38
685.719	-5.38
685.749	-21.38
685.779	5.62
685.809	16.62
685.839	8.62
685.869	14.62
685.898	6.62
685.928	0.62
685.958	5.62
685.988	7.62
686.018	-5.38
686.048	8.62
686.078	18.62
686.108	10.62
686.137	7.62
686.167	16.62
686.197	-4.38
686.227	9.62
686.257	22.62
686.287	18.62
686.317	2.62
686.346	-0.38
686.376	-6.38
686.406	1.62
686.436	10.62
686.466	-9.38
686.496	13.62
686.525	-1.38
686.555	-10.38
686.585	4.62
686.615	33.62
686.645	7.62
686.675	7.62
686.704	-3.38
686.734	-4.38
686.764	-8.38
686.794	0.62
686.824	-7.38
686.853	4.62
686.883	-3.38
686.913	9.62
686.943	9.62
686.973	-17.38
687.002	20.62
687.032	8.62
687.062	-9.38
687.092	22.62
687.121	-6.38
687.151	-18.38
687.181	0.62
687.211	21.62
687.24	0.62
687.27	-4.38
687.3	6.62
687.33	-6.38
687.359	-7.38
687.389	10.62
687.419	-0.38
687.449	4.62
687.478	-4.38
687.508	5.62
687.538	-4.38
687.568	2.62
687.597	4.62
687.627	15.62
687.657	1.62
687.686	8.62
687.716	25.62
687.746	-10.38
687.776	-16.38
687.805	-5.38
687.835	2.62
687.865	7.62
687.894	14.62
687.924	-8.38
687.954	-0.38
687.983	-0.38
688.013	4.62
688.043	8.62
688.072	8.62
688.102	17.62
688.132	0.62
688.161	11.62
688.191	-20.38
688.221	13.62
688.25	-1.38
688.28	7.62
688.31	9.62
688.339	0.62
688.369	0.62
688.399	3.62
688.428	2.62
688.458	-6.38
688.488	7.62
688.517	1.62
688.547	-3.38
688.576	21.62
688.606	14.62
688.636	-6.38
688.665	-9.38
688.695	-2.38
688.725	12.62
688.754	6.62
688.784	-2.38
688.813	6.62
688.843	-18.38
688.873	1.62
688.902	-0.38
688.932	6.62
688.961	20.62
688.991	13.62
689.02	6.62
689.05	-6.38
689.08	15.62
689.109	15.62
689.139	2.62
689.168	-3.38
689.198	1.62
689.227	8.62
689.257	0.62
689.287	7.62
689.316	15.62
689.346	-1.38
689.375	-2.38
689.405	-2.38
689.434	-3.38
689.464	20.62
689.493	6.62
689.523	-1.38
689.552	-3.38
689.582	-4.38
689.611	1.62
689.641	-0.38
689.67	2.62
689.7	7.62
689.73	23.62
689.759	8.62
689.789	11.62
689.818	-5.38
689.848	-3.38
689.877	13.62
689.906	-12.38
689.936	-22.38
689.965	1.62
689.995	27.62
690.024	6.62
690.054	-11.38
690.083	7.62
690.113	0.62
690.142	-1.38
690.172	0.62
690.201	0.62
690.231	-8.38
690.26	0.62
690.29	-2.38
690.319	9.62
690.348	3.62
690.378	1.62
690.407	-2.38
690.437	5.62
690.466	4.62
690.496	11.62
690.525	16.62
690.555	-0.38
690.584	-1.38
690.613	-4.38
690.643	-3.38
690.672	-3.38
690.702	-7.38
690.731	0.62
690.76	7.62
690.79	-22.38
690.819	1.62
690.849	-0.38
690.878	-5.38
690.907	-6.38
690.937	16.62
690.966	3.62
690.996	-6.38
691.025	8.62
691.054	5.62
691.084	17.62
691.113	-3.38
691.142	2.62
691.172	15.62
691.201	-5.38
691.23	-7.38
691.26	8.62
691.289	-0.38
691.319	-12.38
691.348	14.62
691.377	5.62
691.407	-3.38
691.436	10.62
691.465	4.62
691.495	8.62
691.524	-4.38
691.553	-27.38
691.583	0.62
691.612	15.62
691.641	7.62
691.67	7.62
691.7	-7.38
691.729	-22.38
691.758	-8.38
691.788	1.62
691.817	-12.38
691.846	-3.38
691.876	-7.38
691.905	0.62
691.934	-4.38
691.963	25.62
691.993	1.62
692.022	0.62
692.051	-18.38
692.081	6.62
692.11	0.62
692.139	-5.38
692.168	4.62
692.198	18.62
692.227	13.62
692.256	6.62
692.285	-10.38
692.315	-3.38
692.344	5.62
692.373	-1.38
692.402	-4.38
692.432	8.62
692.461	1.62
692.49	15.62
692.519	-11.38
692.548	17.62
692.578	17.62
692.607	7.62
692.636	0.62
692.665	16.62
692.694	6.62
692.724	8.62
692.753	1.62
692.782	3.62
692.811	-8.38
692.84	-9.38
692.87	10.62
692.899	-7.38
692.928	-1.38
692.957	9.62
692.986	-4.38
693.016	7.62
693.045	4.62
693.074	-9.38
693.103	-1.38
693.132	0.62
693.161	0.62
693.191	-3.38
693.22	-3.38
693.249	-23.38
693.278	-6.38
693.307	8.62
693.336	-7.38
693.365	-10.38
693.395	-4.38
693.424	-3.38
693.453	11.62
693.482	-0.38
693.511	1.62
693.54	4.62
693.569	6.62
693.598	-0.38
693.628	19.62
693.657	11.62
693.686	0.62
693.715	11.62
693.744	17.62
693.773	12.62
693.802	-4.38
693.831	-19.38
693.86	21.62
693.889	8.62
693.919	12.62
693.948	-2.38
693.977	-2.38
694.006	-21.38
694.035	-2.38
694.064	-8.38
694.093	-0.38
694.122	-18.38
694.151	-4.38
694.18	8.62
694.209	21.62
694.238	-2.38
694.267	13.62
694.296	20.62
694.325	17.62
694.354	6.62
694.383	3.62
694.412	-11.38
694.441	-12.38
694.471	-0.38
694.5	-10.38
694.529	6.62
694.558	35.62
694.587	14.62
694.616	18.62
694.645	12.62
694.674	21.62
694.703	-0.38
694.732	0.62
694.761	11.62
694.79	-1.38
694.819	1.62
694.848	-0.38
694.877	13.62
694.906	25.62
694.935	11.62
694.963	3.62
694.992	-9.38
695.021	10.62
695.05	11.62
695.079	2.62
695.108	0.62
695.137	31.62
695.166	8.62
695.195	-6.38
695.224	16.62
695.253	15.62
695.282	19.62
695.311	16.62
695.34	-11.38
695.369	12.62
695.398	4.62
695.427	5.62
695.456	-7.38
695.485	7.62
695.513	-5.38
695.542	3.62
695.571	3.62
695.6	26.62
695.629	17.62
695.658	16.62
695.687	8.62
695.716	6.62
695.745	16.62
695.774	-19.38
695.802	-12.38
695.831	8.62
695.86	2.62
695.889	4.62
695.918	5.62
695.947	6.62
695.976	2.62
696.005	9.62
696.033	18.62
696.062	16.62
696.091	5.62
696.12	5.62
696.149	21.62
696.178	4.62
696.207	5.62
696.235	-6.38
696.264	8.62
696.293	10.62
696.322	8.62
696.351	6.62
696.38	0.62
696.408	4.62
696.437	-0.38
696.466	9.62
696.495	16.62
696.524	-6.38
696.553	9.62
696.581	5.62
696.61	-9.38
696.639	14.62
696.668	10.62
696.697	-2.38
696.725	6.62
696.754	-4.38
696.783	11.62
696.812	14.62
696.84	4.62
696.869	21.62
696.898	3.62
696.927	5.62
696.956	3.62
696.984	3.62
697.013	1.62
697.042	-1.38
697.071	-2.38
697.099	29.62
697.128	10.62
697.157	5.62
697.186	2.62
697.214	9.62
697.243	8.62
697.272	2.62
697.301	17.62
697.329	13.62
697.358	3.62
697.387	35.62
697.415	5.62
697.444	-0.38
697.473	5.62
697.502	4.62
697.53	6.62
697.559	0.62
697.588	12.62
697.616	5.62
697.645	-3.38
697.674	7.62
697.703	6.62
697.731	21.62
697.76	28.62
697.789	-3.38
697.817	10.62
697.846	22.62
697.875	23.62
697.903	38.62
697.932	8.62
697.961	-11.38
697.989	21.62
698.018	10.62
698.047	25.62
698.075	20.62
698.104	1.62
698.133	0.62
698.161	0.62
698.19	9.62
698.218	-5.38
698.247	3.62
698.276	-4.38
698.304	15.62
698.333	6.62
698.362	3.62
698.39	11.62
698.419	1.62
698.447	-2.38
698.476	-0.38
698.505	4.62
698.533	-2.38
698.562	-0.38
698.591	-2.38
698.619	-16.38
698.648	7.62
698.676	16.62
698.705	0.62
698.733	-21.38
698.762	2.62
698.791	9.62
698.819	-6.38
698.848	3.62
698.876	11.62
698.905	-3.38
698.933	-6.38
698.962	-9.38
698.991	-1.38
699.019	3.62
699.048	4.62
699.076	4.62
699.105	-8.38
699.133	-4.38
699.162	4.62
699.19	23.62
699.219	12.62
699.248	-7.38
699.276	5.62
699.305	-0.38
699.333	10.62
699.362	6.62
699.39	4.62
699.419	0.62
699.447	-3.38
699.476	11.62
699.504	4.62
699.533	-2.38
699.561	-13.38
699.59	1.62
699.618	8.62
699.647	4.62
699.675	-7.38
699.704	15.62
699.732	5.62
699.761	11.62
699.789	3.62
699.818	5.62
699.846	-0.38
699.874	-4.38
699.903	-0.38
699.931	1.62
699.96	7.62
699.988	-11.38
700.017	5.62
700.045	-3.38
700.074	-8.38
700.102	2.62
700.13	-1.38
700.159	-8.38
700.187	10.62
700.216	-8.38
700.244	0.62
700.273	-1.38
700.301	-16.38
700.329	2.62
700.358	7.62
700.386	1.62
700.415	3.62
700.443	6.62
700.472	4.62
700.5	1.62
700.528	-2.38
700.557	4.62
700.585	-0.38
700.614	1.62
700.642	9.62
700.67	7.62
700.699	10.62
700.727	5.62
700.755	12.62
700.784	7.62
700.812	9.62
700.841	1.62
700.869	-5.38
700.897	8.62
700.926	-6.38
700.954	3.62
700.982	8.62
701.011	-0.38
701.039	8.62
701.067	8.62
701.096	11.62
701.124	-3.38
701.152	-12.38
701.181	3.62
701.209	0.62
701.237	12.62
701.266	7.62
701.294	-4.38
701.322	3.62
701.351	18.62
701.379	2.62
701.407	-15.38
701.435	12.62
701.464	14.62
701.492	17.62
701.52	-15.38
701.549	-0.38
701.577	-10.38
701.605	-2.38
701.634	6.62
701.662	26.62
701.69	-6.38
701.718	-6.38
701.747	12.62
701.775	-6.38
701.803	-1.38
701.831	10.62
701.86	0.62
701.888	4.62
701.916	8.62
701.944	1.62
701.973	-7.38
702.001	8.62
702.029	3.62
702.057	-21.38
702.086	10.62
702.114	-4.38
702.142	3.62
702.17	1.62
702.199	3.62
702.227	0.62
702.255	-5.38
702.283	-13.38
702.311	-0.38
702.34	-3.38
702.368	-0.38
702.396	0.62
702.424	4.62
702.452	7.62
702.481	12.62
702.509	-3.38
702.537	-3.38
702.565	-5.38
702.593	-7.38
702.621	-2.38
702.65	5.62
702.678	11.62
702.706	4.62
702.734	0.62
702.762	-0.38
702.79	4.62
702.819	13.62
702.847	-1.38
702.875	4.62
702.903	11.62
702.931	0.62
702.959	0.62
702.988	17.62
703.016	-3.38
703.044	-10.38
703.072	2.62
703.1	-1.38
703.128	7.62
703.156	-3.38
703.184	3.62
703.212	17.62
703.241	3.62
703.269	5.62
703.297	-3.38
703.325	-2.38
703.353	-1.38
703.381	-1.38
703.409	7.62
703.437	-11.38
703.465	-3.38
703.493	-19.38
703.522	0.62
703.55	5.62
703.578	2.62
703.606	-9.38
703.634	-10.38
703.662	-2.38
703.69	2.62
703.718	5.62
703.746	23.62
703.774	-6.38
703.802	24.62
703.83	3.62
703.858	11.62
703.886	-9.38
703.914	-8.38
703.942	1.62
703.97	11.62
703.998	4.62
704.027	17.62
704.055	-6.38
704.083	-0.38
704.111	-9.38
704.139	7.62
704.167	2.62
704.195	-7.38
704.223	-2.38
704.251	-7.38
704.279	13.62
704.307	4.62
704.335	1.62
704.363	15.62
704.391	-3.38
704.419	13.62
704.447	14.62
704.475	-0.38
704.503	-1.38
704.531	14.62
704.558	-3.38
704.586	6.62
704.614	4.62
704.642	7.62
704.67	-14.38
704.698	3.62
704.726	-2.38
704.754	-0.38
704.782	-1.38
704.81	-1.38
704.838	19.62
704.866	14.62
704.894	-7.38
704.922	3.62
704.95	25.62
704.978	8.62
705.006	10.62
705.034	15.62
705.061	-5.38
705.089	-2.38
705.117	-7.38
705.145	-12.38
705.173	2.62
705.201	1.62
705.229	4.62
705.257	0.62
705.285	-6.38
705.313	12.62
705.34	4.62
705.368	-3.38
705.396	-6.38
705.424	19.62
705.452	8.62
705.48	3.62
705.508	2.62
705.536	-14.38
705.563	-4.38
705.591	3.62
705.619	-3.38
705.647	-3.38
705.675	10.62
705.703	2.62
705.731	5.62
705.758	10.62
705.786	11.62
705.814	9.62
705.842	-2.38
705.87	3.62
705.898	12.62
705.925	-18.38
705.953	5.62
705.981	-7.38
706.009	4.62
706.037	-1.38
706.065	-6.38
706.092	-10.38
706.12	7.62
706.148	-4.38
706.176	6.62
706.204	11.62
706.231	1.62
706.259	-2.38
706.287	0.62
706.315	-1.38
706.342	-16.38
706.37	13.62
706.398	-4.38
706.426	8.62
706.454	-3.38
706.481	5.62
706.509	0.62
706.537	5.62
706.565	6.62
706.592	1.62
706.62	3.62
706.648	-0.38
706.676	1.62
706.703	-7.38
706.731	1.62
706.759	-1.38
706.787	-0.38
706.814	3.62
706.842	4.62
706.87	-8.38
706.897	-5.38
706.925	-0.38
706.953	8.62
706.981	11.62
707.008	12.62
707.036	-4.38
707.064	-10.38
707.091	-10.38
707.119	21.62
707.147	8.62
707.174	-4.38
707.202	10.62
707.23	-1.38
707.258	8.62
707.285	-5.38
707.313	10.62
707.341	5.62
707.368	-0.38
707.396	-1.38
707.424	9.62
707.451	7.62
707.479	-6.38
707.507	11.62
707.534	7.62
707.562	5.62
707.59	-4.38
707.617	6.62
707.645	0.62
707.672	0.62
707.7	-0.38
707.728	9.62
707.755	2.62
707.783	3.62
707.811	0.62
707.838	10.62
707.866	1.62
707.893	5.62
707.921	3.62
707.949	2.62
707.976	0.62
708.004	-1.38
708.031	-0.38
708.059	-18.38
708.087	-0.38
708.114	-2.38
708.142	-1.38
708.169	-3.38
708.197	-5.38
708.225	-6.38
708.252	-9.38
708.28	0.62
708.307	9.62
708.335	0.62
708.362	9.62
708.39	-10.38
708.418	-9.38
708.445	-12.38
708.473	-30.38
708.5	-16.38
708.528	21.62
708.555	-0.38
708.583	-4.38
708.61	-2.38
708.638	3.62
708.665	-2.38
708.693	7.62
708.72	8.62
708.748	-7.38
708.776	-5.38
708.803	10.62
708.831	7.62
708.858	18.62
708.886	0.62
708.913	-12.38
708.941	-8.38
708.968	-4.38
708.996	-16.38
709.023	31.62
709.051	-0.38
709.078	-15.38
709.105	-0.38
709.133	-1.38
709.16	12.62
709.188	11.62
709.215	8.62
709.243	5.62
709.27	-7.38
709.298	-0.38
709.325	-3.38
709.353	-8.38
709.38	11.62
709.408	4.62
709.435	17.62
709.462	-1.38
709.49	-11.38
709.517	-2.38
709.545	-7.38
709.572	1.62
709.6	0.62
709.627	7.62
709.655	-12.38
709.682	-24.38
709.709	0.62
709.737	-3.38
709.764	0.62
709.792	-6.38
709.819	-0.38
709.846	-9.38
709.874	12.62
709.901	20.62
709.929	24.62
709.956	30.62
709.983	-7.38
710.011	-7.38
710.038	-5.38
710.066	-4.38
710.093	9.62
710.12	8.62
710.148	2.62
710.175	-2.38
710.202	-10.38
710.23	13.62
710.257	4.62
710.284	-1.38
710.312	12.62
710.339	-0.38
710.366	9.62
710.394	-10.38
710.421	-6.38
710.448	9.62
710.476	-7.38
710.503	0.62
710.53	17.62
710.558	11.62
710.585	-2.38
710.612	-4.38
710.64	7.62
710.667	-0.38
710.694	-9.38
710.722	5.62
710.749	-4.38
710.776	4.62
710.804	24.62
710.831	5.62
710.858	-8.38
710.885	-3.38
710.913	-8.38
710.94	-0.38
710.967	2.62
710.995	11.62
711.022	-7.38
711.049	3.62
711.076	-0.38
711.104	-7.38
711.131	-15.38
711.158	-0.38
711.185	13.62
711.213	-9.38
711.24	-3.38
711.267	7.62
711.294	4.62
711.322	7.62
711.349	-2.38
711.376	-0.38
711.403	16.62
711.431	1.62
711.458	-4.38
711.485	-0.38
711.512	11.62
711.54	4.62
711.567	-4.38
711.594	-0.38
711.621	-4.38
711.648	0.62
711.676	4.62
711.703	21.62
711.73	1.62
711.757	-2.38
711.784	10.62
711.812	4.62
711.839	-8.38
711.866	-6.38
711.893	1.62
711.92	10.62
711.947	7.62
711.975	5.62
712.002	0.62
712.029	23.62
712.056	3.62
712.083	5.62
712.11	-18.38
712.138	12.62
712.165	19.62
712.192	0.62
712.219	0.62
712.246	-9.38
712.273	-10.38
712.3	-3.38
712.328	2.62
712.355	-7.38
712.382	-1.38
712.409	27.62
712.436	-18.38
712.463	-7.38
712.49	19.62
712.517	12.62
712.544	-0.38
712.572	4.62
712.599	-12.38
712.626	-3.38
712.653	0.62
712.68	-7.38
712.707	21.62
712.734	13.62
712.761	-8.38
712.788	-0.38
712.815	19.62
712.842	2.62
712.87	1.62
712.897	-13.38
712.924	-5.38
712.951	14.62
712.978	12.62
713.005	5.62
713.032	15.62
713.059	-8.38
713.086	3.62
713.113	3.62
713.14	-5.38
713.167	-3.38
713.194	-1.38
713.221	-5.38
713.248	22.62
713.275	-0.38
713.302	-0.38
713.329	0.62
713.356	12.62
713.383	10.62
713.41	11.62
713.437	-5.38
713.464	0.62
713.491	7.62
713.518	-2.38
713.545	-6.38
713.572	-4.38
713.599	13.62
713.626	0.62
713.653	16.62
713.68	-4.38
713.707	0.62
713.734	3.62
713.761	-1.38
713.788	-6.38
713.815	13.62
713.842	-2.38
713.869	2.62
713.896	11.62
713.923	-1.38
713.95	-7.38
713.977	0.62
714.004	8.62
714.031	-15.38
714.058	-9.38
714.085	8.62
714.112	9.62
714.139	4.62
714.165	-4.38
714.192	-3.38
714.219	8.62
714.246	0.62
714.273	5.62
714.3	8.62
714.327	11.62
714.354	7.62
714.381	-11.38
714.408	1.62
714.435	4.62
714.461	9.62
714.488	15.62
714.515	2.62
714.542	0.62
714.569	-5.38
714.596	-10.38
714.623	-5.38
714.65	-16.38
714.677	11.62
714.703	4.62
714.73	-4.38
714.757	3.62
714.784	7.62
714.811	-10.38
714.838	1.62
714.865	-7.38
714.891	27.62
714.918	0.62
714.945	-6.38
714.972	-11.38
714.999	12.62
715.026	-2.38
715.052	7.62
715.079	-7.38
715.106	4.62
715.133	-2.38
715.16	-4.38
715.187	-4.38
715.213	2.62
715.24	-3.38
715.267	1.62
715.294	-7.38
715.321	-14.38
715.347	-1.38
715.374	-9.38
715.401	-4.38
715.428	-4.38
715.455	10.62
715.481	-1.38
715.508	22.62
715.535	-1.38
715.562	26.62
715.588	8.62
715.615	0.62
715.642	21.62
715.669	10.62
715.695	-7.38
715.722	-16.38
715.749	4.62
715.776	9.62
715.802	-5.38
715.829	12.62
715.856	-8.38
715.883	-3.38
715.909	-15.38
715.936	-3.38
715.963	8.62
715.99	-5.38
716.016	1.62
716.043	7.62
716.07	-4.38
716.096	1.62
716.123	18.62
716.15	3.62
716.177	10.62
716.203	8.62
716.23	11.62
716.257	2.62
716.283	12.62
716.31	-5.38
716.337	-2.38
716.363	-3.38
716.39	0.62
716.417	19.62
716.443	1.62
716.47	2.62
716.497	11.62
716.523	5.62
716.55	8.62
716.577	15.62
716.603	-1.38
716.63	14.62
716.657	9.62
716.683	-5.38
716.71	-6.38
716.737	-1.38
716.763	16.62
716.79	-4.38
716.817	14.62
716.843	-2.38
716.87	0.62
716.897	-0.38
716.923	20.62
716.95	13.62
716.976	-10.38
717.003	-3.38
717.03	-9.38
717.056	20.62
717.083	-12.38
717.109	-5.38
717.136	7.62
717.163	-7.38
717.189	10.62
717.216	-2.38
717.242	-11.38
717.269	-3.38
717.296	0.62
717.322	16.62
717.349	11.62
717.375	3.62
717.402	-12.38
717.428	-1.38
717.455	4.62
717.481	-2.38
717.508	19.62
717.535	0.62
717.561	-10.38
717.588	-1.38
717.614	-8.38
717.641	-7.38
717.667	8.62
717.694	0.62
717.72	-0.38
717.747	5.62
717.773	-6.38
717.8	24.62
717.826	2.62
717.853	3.62
717.88	-1.38
717.906	4.62
717.933	1.62
717.959	11.62
717.986	4.62
718.012	4.62
718.039	8.62
718.065	6.62
718.092	-0.38
718.118	-0.38
718.144	-7.38
718.171	14.62
718.197	8.62
718.224	-5.38
718.25	-6.38
718.277	5.62
718.303	9.62
718.33	3.62
718.356	-9.38
718.383	-9.38
718.409	2.62
718.436	1.62
718.462	-5.38
718.489	-9.38
718.515	14.62
718.541	19.62
718.568	20.62
718.594	-4.38
718.621	12.62
718.647	20.62
718.674	9.62
718.7	3.62
718.726	6.62
718.753	7.62
718.779	9.62
718.806	-4.38
718.832	-2.38
718.858	-0.38
718.885	4.62
718.911	0.62
718.938	1.62
718.964	-2.38
718.99	12.62
719.017	0.62
719.043	6.62
719.07	24.62
719.096	-1.38
719.122	1.62
719.149	4.62
719.175	-0.38
719.201	6.62
719.228	-1.38
719.254	-9.38
719.281	-2.38
719.307	-12.38
719.333	-7.38
719.36	7.62
719.386	1.62
719.412	15.62
719.439	-7.38
719.465	-12.38
719.491	-18.38
719.518	6.62
719.544	0.62
719.57	0.62
719.597	5.62
719.623	-4.38
719.649	-3.38
719.675	-0.38
719.702	1.62
719.728	6.62
719.754	-21.38
719.781	-3.38
719.807	9.62
719.833	-3.38
719.86	-15.38
719.886	2.62
719.912	-3.38
719.938	-4.38
719.965	-3.38
719.991	6.62
720.017	5.62
720.044	-1.38
720.07	-4.38
720.096	0.62
720.122	11.62
720.149	19.62
720.175	16.62
720.201	11.62
720.227	9.62
720.254	3.62
720.28	-10.38
720.306	-10.38
720.332	7.62
720.359	4.62
720.385	14.62
720.411	-3.38
720.437	5.62
720.463	6.62
720.49	6.62
720.516	-14.38
720.542	-7.38
720.568	0.62
720.595	22.62
720.621	12.62
720.647	9.62
720.673	14.62
720.699	-0.38
720.725	-8.38
720.752	-10.38
720.778	4.62
720.804	5.62
720.83	4.62
720.856	3.62
720.883	-3.38
720.909	5.62
720.935	13.62
720.961	3.62
720.987	3.62
721.013	12.62
721.04	1.62
721.066	9.62
721.092	1.62
721.118	4.62
721.144	2.62
721.17	8.62
721.196	3.62
721.223	-3.38
721.249	2.62
721.275	16.62
721.301	4.62
721.327	12.62
721.353	5.62
721.379	1.62
721.405	3.62
721.432	23.62
721.458	-6.38
721.484	4.62
721.51	-19.38
721.536	-0.38
721.562	6.62
721.588	1.62
721.614	-8.38
721.64	-18.38
721.666	-4.38
721.693	-11.38
721.719	-16.38
721.745	-9.38
721.771	-2.38
721.797	10.62
721.823	2.62
721.849	14.62
721.875	-3.38
721.901	13.62
721.927	-7.38
721.953	8.62
721.979	4.62
722.005	8.62
722.031	-0.38
722.057	23.62
722.083	11.62
722.109	-2.38
722.135	15.62
722.161	21.62
722.187	7.62
722.214	-19.38
722.24	-12.38
722.266	-6.38
722.292	13.62
722.318	7.62
722.344	13.62
722.37	7.62
722.396	13.62
722.422	8.62
722.448	10.62
722.474	-16.38
722.5	6.62
722.526	3.62
722.552	5.62
722.578	-7.38
722.603	-2.38
722.629	-7.38
722.655	6.62
722.681	-1.38
722.707	3.62
722.733	-5.38
722.759	-18.38
722.785	4.62
722.811	10.62
722.837	7.62
722.863	9.62
722.889	1.62
722.915	-5.38
722.941	-6.38
722.967	10.62
722.993	9.62
723.019	-3.38
723.045	-3.38
723.071	-3.38
723.097	-10.38
723.122	-2.38
723.148	-7.38
723.174	-7.38
723.2	13.62
723.226	12.62
723.252	9.62
723.278	-11.38
723.304	-7.38
723.33	-0.38
723.356	-12.38
723.381	-5.38
723.407	-23.38
723.433	14.62
723.459	-10.38
723.485	-4.38
723.511	10.62
723.537	7.62
723.563	2.62
723.588	15.62
723.614	17.62
723.64	3.62
723.666	-10.38
723.692	11.62
723.718	6.62
723.744	13.62
723.769	-4.38
723.795	-2.38
723.821	-1.38
723.847	-6.38
723.873	7.62
723.899	-12.38
723.924	4.62
723.95	-6.38
723.976	-12.38
724.002	18.62
724.028	10.62
724.053	-10.38
724.079	-5.38
724.105	-1.38
724.131	10.62
724.157	0.62
724.182	23.62
724.208	9.62
724.234	8.62
724.26	8.62
724.286	10.62
724.311	3.62
724.337	-5.38
724.363	-6.38
724.389	11.62
724.415	-4.38
724.44	17.62
724.466	8.62
724.492	-0.38
724.518	12.62
724.543	3.62
724.569	-1.38
724.595	-7.38
724.621	-3.38
724.646	1.62
724.672	-0.38
724.698	0.62
724.723	-11.38
724.749	-14.38
724.775	12.62
724.801	3.62
724.826	-4.38
724.852	-2.38
724.878	-0.38
724.904	-12.38
724.929	1.62
724.955	-7.38
724.981	7.62
725.006	11.62
725.032	-12.38
725.058	1.62
725.083	5.62
725.109	-16.38
725.135	4.62
725.161	-0.38
725.186	-9.38
725.212	-3.38
725.238	-6.38
725.263	3.62
725.289	-0.38
725.315	-7.38
725.34	-6.38
725.366	-5.38
725.392	-16.38
725.417	0.62
725.443	0.62
725.468	-4.38
725.494	-8.38
725.52	-0.38
725.545	-5.38
725.571	-11.38
725.597	-6.38
725.622	6.62
725.648	3.62
725.674	19.62
725.699	3.62
725.725	0.62
725.75	24.62
725.776	-5.38
725.802	-10.38
725.827	13.62
725.853	4.62
725.878	10.62
725.904	-5.38
725.93	-4.38
725.955	-12.38
725.981	-5.38
726.006	7.62
726.032	5.62
726.057	-4.38
726.083	-7.38
726.109	2.62
726.134	-8.38
726.16	-0.38
726.185	-0.38
726.211	-8.38
726.236	-4.38
726.262	1.62
726.288	-2.38
726.313	14.62
726.339	13.62
726.364	-0.38
726.39	17.62
726.415	2.62
726.441	-2.38
726.466	-8.38
726.492	3.62
726.517	0.62
726.543	3.62
726.568	-4.38
726.594	3.62
726.619	17.62
726.645	14.62
726.67	-0.38
726.696	3.62
726.721	3.62
726.747	-17.38
726.772	14.62
726.798	4.62
726.823	-1.38
726.849	-7.38
726.874	-3.38
726.9	14.62
726.925	1.62
726.951	-11.38
726.976	14.62
727.002	0.62
727.027	7.62
727.053	9.62
727.078	-4.38
727.104	6.62
727.129	-23.38
727.155	-3.38
727.18	7.62
727.205	7.62
727.231	1.62
727.256	1.62
727.282	-2.38
727.307	7.62
727.333	-23.38
727.358	-6.38
727.383	-16.38
727.409	-18.38
727.434	-0.38
727.46	-12.38
727.485	-14.38
727.511	1.62
727.536	-20.38
727.561	-5.38
727.587	0.62
727.612	7.62
727.637	-0.38
727.663	-6.38
727.688	13.62
727.714	6.62
727.739	9.62
727.764	-9.38
727.79	-2.38
727.815	17.62
727.841	11.62
727.866	1.62
727.891	-0.38
727.917	-6.38
727.942	-1.38
727.967	-2.38
727.993	-20.38
728.018	-4.38
728.043	5.62
728.069	23.62
728.094	15.62
728.119	-6.38
728.145	2.62
728.17	-1.38
728.195	11.62
728.221	9.62
728.246	7.62
728.271	-15.38
728.297	8.62
728.322	-7.38
728.347	-4.38
728.373	-4.38
728.398	14.62
728.423	2.62
728.448	-4.38
728.474	5.62
728.499	3.62
728.524	-14.38
728.55	-12.38
728.575	-7.38
728.6	9.62
728.625	4.62
728.651	7.62
728.676	18.62
728.701	-5.38
728.727	-1.38
728.752	-3.38
728.777	11.62
728.802	6.62
728.828	12.62
728.853	5.62
728.878	4.62
728.903	7.62
728.929	10.62
728.954	14.62
728.979	10.62
729.004	-0.38
729.03	-3.38
729.055	9.62
729.08	-8.38
729.105	-0.38
729.13	11.62
729.156	17.62
729.181	1.62
729.206	-7.38
729.231	-12.38
729.256	6.62
729.282	8.62
729.307	-6.38
729.332	-21.38
729.357	-12.38
729.382	10.62
729.408	3.62
729.433	-4.38
729.458	-1.38
729.483	14.62
729.508	25.62
729.533	19.62
729.559	10.62
729.584	7.62
729.609	20.62
729.634	24.62
729.659	1.62
729.684	-7.38
729.71	19.62
729.735	1.62
729.76	7.62
729.785	2.62
729.81	15.62
729.835	-4.38
729.86	-11.38
729.886	9.62
729.911	9.62
729.936	-9.38
729.961	-7.38
729.986	-14.38
730.011	-12.38
730.036	-1.38
730.061	9.62
730.086	-1.38
730.112	-5.38
730.137	16.62
730.162	6.62
730.187	-19.38
730.212	3.62
730.237	-0.38
730.262	11.62
730.287	0.62
730.312	26.62
730.337	4.62
730.362	4.62
730.387	29.62
730.413	-3.38
730.438	8.62
730.463	1.62
730.488	-19.38
730.513	-8.38
730.538	-12.38
730.563	20.62
730.588	7.62
730.613	3.62
730.638	-2.38
730.663	-9.38
730.688	11.62
730.713	4.62
730.738	5.62
730.763	-1.38
730.788	-3.38
730.813	32.62
730.838	4.62
730.863	4.62
730.888	-2.38
730.913	-8.38
730.938	-9.38
730.963	-15.38
730.988	0.62
731.013	8.62
731.038	-9.38
731.063	-0.38
731.088	10.62
731.113	-1.38
731.138	8.62
731.163	-3.38
731.188	-3.38
731.213	7.62
731.238	0.62
731.263	2.62
731.288	-8.38
731.313	16.62
731.338	1.62
731.363	4.62
731.388	1.62
731.413	-0.38
731.438	5.62
731.463	5.62
731.487	8.62
731.512	1.62
731.537	-0.38
731.562	-11.38
731.587	-15.38
731.612	-22.38
731.637	-0.38
731.662	-1.38
731.687	4.62
731.712	-18.38
731.737	0.62
731.762	7.62
731.786	15.62
731.811	11.62
731.836	-14.38
731.861	-12.38
731.886	-3.38
731.911	14.62
731.936	14.62
731.961	4.62
731.986	-4.38
732.01	16.62
732.035	-2.38
732.06	21.62
732.085	-9.38
732.11	0.62
732.135	-9.38
732.16	-3.38
732.184	8.62
732.209	9.62
732.234	5.62
732.259	-2.38
732.284	0.62
732.309	-5.38
732.334	13.62
732.358	-8.38
732.383	-4.38
732.408	-4.38
732.433	-5.38
732.458	-4.38
732.482	2.62
732.507	11.62
732.532	10.62
732.557	9.62
732.582	13.62
732.607	2.62
732.631	-8.38
732.656	-14.38
732.681	-2.38
732.706	1.62
732.73	-0.38
732.755	0.62
732.78	-2.38
732.805	-11.38
732.83	-8.38
732.854	-1.38
732.879	3.62
732.904	5.62
732.929	-3.38
732.953	2.62
732.978	-1.38
733.003	-0.38
733.028	-4.38
733.052	5.62
733.077	-4.38
733.102	-3.38
733.127	-1.38
733.151	4.62
733.176	12.62
733.201	-4.38
733.226	-3.38
733.25	-0.38
733.275	-3.38
733.3	-0.38
733.324	18.62
733.349	1.62
733.374	19.62
733.399	-1.38
733.423	0.62
733.448	-0.38
733.473	5.62
733.497	5.62
733.522	-2.38
733.547	15.62
733.571	25.62
733.596	0.62
733.621	-6.38
733.646	-3.38
733.67	9.62
733.695	-11.38
733.72	7.62
733.744	-18.38
733.769	1.62
733.794	18.62
733.818	1.62
733.843	-5.38
733.867	-24.38
733.892	-0.38
733.917	-3.38
733.941	-4.38
733.966	-15.38
733.991	-3.38
734.015	7.62
734.04	5.62
734.065	12.62
734.089	23.62
734.114	-1.38
734.138	21.62
734.163	-3.38
734.188	0.62
734.212	9.62
734.237	2.62
734.261	20.62
734.286	-4.38
734.311	10.62
734.335	-7.38
734.36	-5.38
734.384	-11.38
734.409	4.62
734.434	-2.38
734.458	-0.38
734.483	-9.38
734.507	-11.38
734.532	-6.38
734.556	4.62
734.581	-2.38
734.606	16.62
734.63	-3.38
734.655	0.62
734.679	-1.38
734.704	7.62
734.728	-18.38
734.753	-2.38
734.777	-4.38
734.802	0.62
734.826	5.62
734.851	-3.38
734.876	1.62
734.9	6.62
734.925	11.62
734.949	17.62
734.974	-7.38
734.998	16.62
735.023	-4.38
735.047	-11.38
735.072	15.62
735.096	-2.38
735.121	1.62
735.145	8.62
735.17	-4.38
735.194	2.62
735.219	10.62
735.243	8.62
735.268	24.62
735.292	8.62
735.317	-0.38
735.341	-12.38
735.365	-13.38
735.39	7.62
735.414	16.62
735.439	-4.38
735.463	1.62
735.488	15.62
735.512	-4.38
735.537	3.62
735.561	6.62
735.586	4.62
735.61	9.62
735.634	0.62
735.659	0.62
735.683	14.62
735.708	-1.38
735.732	10.62
735.757	-0.38
735.781	0.62
735.805	8.62
735.83	-4.38
735.854	-6.38
735.879	-2.38
735.903	-12.38
735.927	-12.38
735.952	8.62
735.976	5.62
736.001	0.62
736.025	-4.38
736.049	-8.38
736.074	2.62
736.098	-14.38
736.123	13.62
736.147	-6.38
736.171	5.62
736.196	21.62
736.22	-16.38
736.244	1.62
736.269	3.62
736.293	6.62
736.317	10.62
736.342	16.62
736.366	8.62
736.39	11.62
736.415	5.62
736.439	-4.38
736.463	2.62
736.488	-4.38
736.512	6.62
736.536	13.62
736.561	7.62
736.585	-1.38
736.609	5.62
736.634	-1.38
736.658	-1.38
736.682	0.62
736.707	-4.38
736.731	0.62
736.755	-1.38
736.78	16.62
736.804	5.62
736.828	8.62
736.852	-12.38
736.877	0.62
736.901	20.62
736.925	-3.38
736.949	1.62
736.974	-7.38
736.998	-3.38
737.022	7.62
737.047	-0.38
737.071	-4.38
737.095	12.62
737.119	21.62
737.144	16.62
737.168	-4.38
737.192	6.62
737.216	8.62
737.241	0.62
737.265	7.62
737.289	-5.38
737.313	-5.38
737.337	8.62
737.362	-6.38
737.386	-15.38
737.41	-6.38
737.434	8.62
737.459	-6.38
737.483	2.62
737.507	5.62
737.531	3.62
737.555	-3.38
737.58	3.62
737.604	-1.38
737.628	-16.38
737.652	-8.38
737.676	3.62
737.701	-3.38
737.725	-10.38
737.749	8.62
737.773	-0.38
737.797	20.62
737.821	-0.38
737.846	-9.38
737.87	7.62
737.894	-6.38
737.918	-7.38
737.942	-6.38
737.966	13.62
737.99	25.62
738.015	17.62
738.039	8.62
738.063	-12.38
738.087	-5.38
738.111	0.62
738.135	11.62
738.159	-4.38
738.184	7.62
738.208	-2.38
738.232	4.62
738.256	16.62
738.28	30.62
738.304	24.62
738.328	-4.38
738.352	1.62
738.376	-3.38
738.4	6.62
738.425	9.62
738.449	-6.38
738.473	17.62
738.497	21.62
738.521	10.62
738.545	20.62
738.569	8.62
738.593	8.62
738.617	20.62
738.641	1.62
738.665	4.62
738.689	0.62
738.713	0.62
738.737	7.62
738.762	15.62
738.786	2.62
738.81	-24.38
738.834	23.62
738.858	0.62
738.882	-1.38
738.906	-12.38
738.93	22.62
738.954	16.62
738.978	15.62
739.002	4.62
739.026	14.62
739.05	16.62
739.074	3.62
739.098	24.62
739.122	23.62
739.146	8.62
739.17	14.62
739.194	5.62
739.218	-7.38
739.242	-6.38
739.266	-12.38
739.29	-5.38
739.314	5.62
739.338	-1.38
739.362	-2.38
739.386	-4.38
739.41	1.62
739.434	-0.38
739.458	5.62
739.482	-6.38
739.506	5.62
739.53	1.62
739.554	1.62
739.577	4.62
739.601	20.62
739.625	4.62
739.649	9.62
739.673	-5.38
739.697	3.62
739.721	-3.38
739.745	-1.38
739.769	7.62
739.793	12.62
739.817	17.62
739.841	-15.38
739.865	3.62
739.889	-2.38
739.912	9.62
739.936	1.62
739.96	7.62
739.984	7.62
740.008	7.62
740.032	-0.38
740.056	12.62
740.08	4.62
740.104	-3.38
740.127	6.62
740.151	5.62
740.175	2.62
740.199	20.62
740.223	47.62
740.247	9.62
740.271	1.62
740.295	9.62
740.318	-7.38
740.342	0.62
740.366	8.62
740.39	6.62
740.414	18.62
740.438	1.62
740.461	20.62
740.485	11.62
740.509	3.62
740.533	6.62
740.557	6.62
740.581	-7.38
740.604	-8.38
740.628	-5.38
740.652	8.62
740.676	-5.38
740.7	3.62
740.723	-4.38
740.747	-5.38
740.771	-0.38
740.795	-8.38
740.819	9.62
740.842	4.62
740.866	13.62
740.89	2.62
740.914	-6.38
740.938	-8.38
740.961	7.62
740.985	-0.38
741.009	-1.38
741.033	4.62
741.056	2.62
741.08	5.62
741.104	3.62
741.128	14.62
741.151	11.62
741.175	-0.38
741.199	7.62
741.223	9.62
741.246	0.62
741.27	1.62
741.294	10.62
741.318	-0.38
741.341	2.62
741.365	-1.38
741.389	-0.38
741.413	-0.38
741.436	11.62
741.46	12.62
741.484	15.62
741.507	0.62
741.531	10.62
741.555	14.62
741.579	21.62
741.602	9.62
741.626	9.62
741.65	-2.38
741.673	8.62
741.697	13.62
741.721	-6.38
741.744	-11.38
741.768	-4.38
741.792	1.62
741.815	-4.38
741.839	16.62
741.863	14.62
741.886	11.62
741.91	6.62
741.934	4.62
741.957	1.62
741.981	24.62
742.005	3.62
742.028	-10.38
742.052	10.62
742.075	7.62
742.099	14.62
742.123	-3.38
742.146	3.62
742.17	13.62
742.194	-6.38
742.217	0.62
742.241	-3.38
742.264	1.62
742.288	17.62
742.312	4.62
742.335	5.62
742.359	3.62
742.382	2.62
742.406	3.62
742.43	-13.38
742.453	3.62
742.477	-1.38
742.5	9.62
742.524	1.62
742.548	-0.38
742.571	12.62
742.595	-4.38
742.618	-9.38
742.642	-4.38
742.665	-1.38
742.689	2.62
742.712	18.62
742.736	9.62
742.76	7.62
742.783	2.62
742.807	10.62
742.83	-5.38
742.854	-4.38
742.877	18.62
742.901	5.62
742.924	-9.38
742.948	-0.38
742.971	6.62
742.995	-9.38
743.018	-10.38
743.042	-5.38
743.065	-8.38
743.089	6.62
743.112	-12.38
743.136	-10.38
743.159	-1.38
743.183	6.62
743.206	6.62
743.23	-0.38
743.253	18.62
743.277	3.62
743.3	0.62
743.324	-1.38
743.347	4.62
743.371	13.62
743.394	1.62
743.418	14.62
743.441	0.62
743.465	8.62
743.488	12.62
743.512	-4.38
743.535	1.62
743.558	-2.38
743.582	25.62
743.605	0.62
743.629	3.62
743.652	9.62
743.676	-4.38
743.699	10.62
743.723	13.62
743.746	-1.38
743.769	1.62
743.793	-1.38
743.816	5.62
743.84	5.62
743.863	-10.38
743.886	1.62
743.91	12.62
743.933	-0.38
743.957	3.62
743.98	7.62
744.003	13.62
744.027	15.62
744.05	11.62
744.074	15.62
744.097	-9.38
744.12	6.62
744.144	-6.38
744.167	4.62
744.19	10.62
744.214	-8.38
744.237	-8.38
744.26	14.62
744.284	1.62
744.307	-8.38
744.331	-2.38
744.354	-3.38
744.377	-19.38
744.401	0.62
744.424	-12.38
744.447	-11.38
744.471	-5.38
