Data from HighRes_H2D2_15_04_11_07_2024_HR4C61891__73__15-05-41-743.txt Node

Date: Thu Nov 07 15:05:41 EST 2024
User: crc00042
Spectrometer: HR4C6189
Trigger mode: 4
Integration Time (sec): 1.000000E-1
Scans to average: 1
Electric dark correction enabled: true
Nonlinearity correction enabled: false
Boxcar width: 0
XAxis mode: Wavelengths
Number of Pixels in Spectrum: 3648
>>>>>Begin Spectral Data<<<<<
639.567	-20.77
639.602	-20.77
639.636	-20.77
639.67	-44.77
639.704	-23.77
639.738	-9.77
639.773	-6.77
639.807	-20.77
639.841	5.23
639.875	14.23
639.909	0.23
639.943	-1.77
639.978	-15.77
640.012	-8.77
640.046	16.23
640.08	10.23
640.114	12.23
640.148	5.23
640.182	-15.77
640.217	1.23
640.251	-2.77
640.285	7.23
640.319	-15.77
640.353	1.23
640.387	-3.77
640.421	6.23
640.455	-12.77
640.49	-6.77
640.524	8.23
640.558	14.23
640.592	5.23
640.626	-1.77
640.66	15.23
640.694	-10.77
640.728	7.23
640.762	13.23
640.796	11.23
640.83	16.23
640.865	5.23
640.899	4.23
640.933	1.23
640.967	10.23
641.001	16.23
641.035	7.23
641.069	7.23
641.103	4.23
641.137	2.23
641.171	-16.77
641.205	17.23
641.239	3.23
641.273	16.23
641.307	-0.77
641.341	12.23
641.375	-8.77
641.409	9.23
641.443	-0.77
641.477	8.23
641.511	5.23
641.545	10.23
641.579	9.23
641.614	11.23
641.648	-5.77
641.682	-2.77
641.716	23.23
641.75	10.23
641.784	-8.77
641.818	-7.77
641.852	-10.77
641.886	2.23
641.919	28.23
641.953	1.23
641.987	-7.77
642.021	-4.77
642.055	12.23
642.089	-4.77
642.123	-1.77
642.157	2.23
642.191	-1.77
642.225	0.23
642.259	5.23
642.293	7.23
642.327	-10.77
642.361	-12.77
642.395	3.23
642.429	12.23
642.463	8.23
642.497	17.23
642.531	10.23
642.565	-8.77
642.599	12.23
642.633	-0.77
642.666	4.23
642.7	21.23
642.734	12.23
642.768	1.23
642.802	0.23
642.836	2.23
642.87	-18.77
642.904	1.23
642.938	-2.77
642.972	-7.77
643.005	-2.77
643.039	8.23
643.073	-4.77
643.107	19.23
643.141	-1.77
643.175	-2.77
643.209	1.23
643.243	-0.77
643.276	4.23
643.31	-13.77
643.344	-13.77
643.378	1.23
643.412	4.23
643.446	5.23
643.48	10.23
643.513	12.23
643.547	3.23
643.581	-9.77
643.615	6.23
643.649	2.23
643.683	1.23
643.716	-1.77
643.75	8.23
643.784	-2.77
643.818	17.23
643.852	12.23
643.886	1.23
643.919	15.23
643.953	-5.77
643.987	-13.77
644.021	15.23
644.055	18.23
644.088	1.23
644.122	-8.77
644.156	-9.77
644.19	-0.77
644.224	-4.77
644.257	-13.77
644.291	11.23
644.325	7.23
644.359	6.23
644.392	24.23
644.426	-6.77
644.46	-1.77
644.494	-3.77
644.527	-8.77
644.561	-4.77
644.595	9.23
644.629	-16.77
644.662	-7.77
644.696	14.23
644.73	3.23
644.764	8.23
644.797	9.23
644.831	8.23
644.865	13.23
644.899	-3.77
644.932	16.23
644.966	2.23
645	10.23
645.033	30.23
645.067	-10.77
645.101	-3.77
645.135	-7.77
645.168	-1.77
645.202	10.23
645.236	-2.77
645.269	9.23
645.303	0.23
645.337	-1.77
645.37	2.23
645.404	11.23
645.438	12.23
645.471	1.23
645.505	6.23
645.539	0.23
645.572	4.23
645.606	-14.77
645.64	-5.77
645.673	-2.77
645.707	14.23
645.741	9.23
645.774	-6.77
645.808	5.23
645.842	-1.77
645.875	2.23
645.909	-3.77
645.943	-14.77
645.976	6.23
646.01	1.23
646.043	15.23
646.077	-14.77
646.111	6.23
646.144	22.23
646.178	8.23
646.212	-1.77
646.245	-9.77
646.279	-1.77
646.312	16.23
646.346	17.23
646.38	2.23
646.413	17.23
646.447	9.23
646.48	-6.77
646.514	5.23
646.547	6.23
646.581	1.23
646.615	-12.77
646.648	-17.77
646.682	2.23
646.715	2.23
646.749	0.23
646.782	-16.77
646.816	-0.77
646.85	5.23
646.883	-5.77
646.917	21.23
646.95	-4.77
646.984	14.23
647.017	11.23
647.051	5.23
647.084	-2.77
647.118	-4.77
647.151	-7.77
647.185	-7.77
647.218	-5.77
647.252	2.23
647.285	-9.77
647.319	-15.77
647.353	3.23
647.386	11.23
647.42	2.23
647.453	2.23
647.487	1.23
647.52	9.23
647.553	16.23
647.587	16.23
647.62	-2.77
647.654	-2.77
647.687	12.23
647.721	3.23
647.754	-2.77
647.788	-0.77
647.821	-11.77
647.855	1.23
647.888	14.23
647.922	4.23
647.955	3.23
647.989	10.23
648.022	11.23
648.055	16.23
648.089	-0.77
648.122	29.23
648.156	-0.77
648.189	5.23
648.223	2.23
648.256	32.23
648.29	23.23
648.323	-4.77
648.356	14.23
648.39	6.23
648.423	7.23
648.457	11.23
648.49	1.23
648.523	14.23
648.557	-21.77
648.59	-14.77
648.624	-0.77
648.657	5.23
648.69	9.23
648.724	4.23
648.757	7.23
648.791	0.23
648.824	5.23
648.857	18.23
648.891	4.23
648.924	-4.77
648.957	7.23
648.991	3.23
649.024	13.23
649.057	3.23
649.091	-0.77
649.124	26.23
649.158	7.23
649.191	11.23
649.224	2.23
649.258	10.23
649.291	5.23
649.324	-6.77
649.358	0.23
649.391	11.23
649.424	6.23
649.458	-8.77
649.491	9.23
649.524	-7.77
649.557	-4.77
649.591	-12.77
649.624	19.23
649.657	-6.77
649.691	-0.77
649.724	11.23
649.757	0.23
649.791	4.23
649.824	31.23
649.857	-4.77
649.89	-2.77
649.924	-2.77
649.957	-9.77
649.99	1.23
650.023	8.23
650.057	2.23
650.09	19.23
650.123	6.23
650.157	15.23
650.19	20.23
650.223	-6.77
650.256	-15.77
650.29	-14.77
650.323	-6.77
650.356	13.23
650.389	-8.77
650.423	-10.77
650.456	14.23
650.489	0.23
650.522	8.23
650.555	10.23
650.589	6.23
650.622	6.23
650.655	7.23
650.688	-13.77
650.721	-2.77
650.755	10.23
650.788	20.23
650.821	15.23
650.854	8.23
650.887	13.23
650.921	-9.77
650.954	-9.77
650.987	8.23
651.02	-2.77
651.053	-4.77
651.087	-2.77
651.12	16.23
651.153	11.23
651.186	5.23
651.219	-19.77
651.252	8.23
651.286	6.23
651.319	-7.77
651.352	2.23
651.385	2.23
651.418	-8.77
651.451	4.23
651.484	10.23
651.518	0.23
651.551	22.23
651.584	8.23
651.617	-0.77
651.65	-16.77
651.683	9.23
651.716	-3.77
651.749	-15.77
651.783	-4.77
651.816	15.23
651.849	0.23
651.882	6.23
651.915	8.23
651.948	2.23
651.981	-10.77
652.014	0.23
652.047	-9.77
652.08	-10.77
652.114	-3.77
652.147	-5.77
652.18	7.23
652.213	17.23
652.246	-1.77
652.279	-4.77
652.312	9.23
652.345	5.23
652.378	27.23
652.411	18.23
652.444	2.23
652.477	-3.77
652.51	2.23
652.543	-2.77
652.576	-1.77
652.609	-14.77
652.642	-7.77
652.675	12.23
652.709	13.23
652.742	5.23
652.775	8.23
652.808	12.23
652.841	19.23
652.874	-1.77
652.907	-5.77
652.94	-10.77
652.973	-10.77
653.006	-10.77
653.039	0.23
653.072	2.23
653.105	-1.77
653.138	-13.77
653.171	1.23
653.204	9.23
653.237	10.23
653.27	9.23
653.303	18.23
653.336	17.23
653.368	6.23
653.401	4.23
653.434	-4.77
653.467	8.23
653.5	-14.77
653.533	-15.77
653.566	2.23
653.599	5.23
653.632	4.23
653.665	2.23
653.698	-5.77
653.731	4.23
653.764	-6.77
653.797	7.23
653.83	3.23
653.863	-9.77
653.896	-0.77
653.929	-5.77
653.961	8.23
653.994	-11.77
654.027	-1.77
654.06	13.23
654.093	5.23
654.126	-2.77
654.159	8.23
654.192	12.23
654.225	-1.77
654.258	-14.77
654.29	0.23
654.323	5.23
654.356	9.23
654.389	8.23
654.422	4.23
654.455	1.23
654.488	12.23
654.521	-6.77
654.553	-6.77
654.586	19.23
654.619	6.23
654.652	7.23
654.685	23.23
654.718	10.23
654.751	-3.77
654.783	-7.77
654.816	6.23
654.849	3.23
654.882	10.23
654.915	-15.77
654.948	6.23
654.98	13.23
655.013	1.23
655.046	-0.77
655.079	-1.77
655.112	18.23
655.144	10.23
655.177	13.23
655.21	17.23
655.243	8.23
655.276	4.23
655.308	-3.77
655.341	7.23
655.374	24.23
655.407	10.23
655.44	7.23
655.472	3.23
655.505	-0.77
655.538	-3.77
655.571	21.23
655.603	-0.77
655.636	-7.77
655.669	9.23
655.702	4.23
655.734	-8.77
655.767	4.23
655.8	9.23
655.833	15.23
655.865	21.23
655.898	32.23
655.931	32.23
655.964	19.23
655.996	13.23
656.029	30.23
656.062	39.23
656.095	58.23
656.127	80.23
656.16	199.23
656.193	604.23
656.225	936.23
656.258	558.23
656.291	211.23
656.324	180.23
656.356	351.23
656.389	752.23
656.422	684.23
656.454	230.23
656.487	71.23
656.52	35.23
656.552	41.23
656.585	15.23
656.618	14.23
656.65	17.23
656.683	0.23
656.716	5.23
656.748	14.23
656.781	-5.77
656.814	-0.77
656.846	17.23
656.879	14.23
656.912	7.23
656.944	-17.77
656.977	-4.77
657.01	-13.77
657.042	8.23
657.075	13.23
657.108	-0.77
657.14	11.23
657.173	12.23
657.205	37.23
657.238	1.23
657.271	8.23
657.303	-17.77
657.336	2.23
657.369	7.23
657.401	-7.77
657.434	12.23
657.466	-0.77
657.499	10.23
657.532	-1.77
657.564	12.23
657.597	15.23
657.629	5.23
657.662	1.23
657.694	3.23
657.727	-16.77
657.76	15.23
657.792	-15.77
657.825	-14.77
657.857	-5.77
657.89	0.23
657.922	6.23
657.955	-13.77
657.987	18.23
658.02	11.23
658.053	15.23
658.085	12.23
658.118	3.23
658.15	22.23
658.183	25.23
658.215	5.23
658.248	22.23
658.28	5.23
658.313	13.23
658.345	24.23
658.378	1.23
658.41	-1.77
658.443	14.23
658.475	11.23
658.508	1.23
658.54	1.23
658.573	-0.77
658.605	11.23
658.638	5.23
658.67	1.23
658.703	-1.77
658.735	-3.77
658.768	-11.77
658.8	-18.77
658.833	15.23
658.865	2.23
658.898	-6.77
658.93	-7.77
658.963	0.23
658.995	-15.77
659.028	15.23
659.06	15.23
659.092	10.23
659.125	3.23
659.157	15.23
659.19	-5.77
659.222	-7.77
659.255	-3.77
659.287	2.23
659.32	8.23
659.352	16.23
659.384	12.23
659.417	4.23
659.449	36.23
659.482	6.23
659.514	10.23
659.546	0.23
659.579	-0.77
659.611	-9.77
659.644	-5.77
659.676	-3.77
659.708	-19.77
659.741	-8.77
659.773	-6.77
659.806	4.23
659.838	-4.77
659.87	1.23
659.903	4.23
659.935	0.23
659.967	10.23
660	14.23
660.032	-11.77
660.065	27.23
660.097	16.23
660.129	1.23
660.162	-17.77
660.194	14.23
660.226	9.23
660.259	13.23
660.291	4.23
660.323	-1.77
660.356	-7.77
660.388	-10.77
660.42	0.23
660.453	-1.77
660.485	8.23
660.517	12.23
660.55	12.23
660.582	0.23
660.614	11.23
660.647	5.23
660.679	-8.77
660.711	2.23
660.743	2.23
660.776	-4.77
660.808	-17.77
660.84	7.23
660.873	6.23
660.905	-7.77
660.937	10.23
660.969	-2.77
661.002	10.23
661.034	12.23
661.066	10.23
661.099	19.23
661.131	8.23
661.163	6.23
661.195	17.23
661.228	21.23
661.26	5.23
661.292	-8.77
661.324	13.23
661.357	6.23
661.389	-2.77
661.421	10.23
661.453	-6.77
661.485	5.23
661.518	3.23
661.55	-3.77
661.582	-2.77
661.614	4.23
661.647	13.23
661.679	8.23
661.711	9.23
661.743	-7.77
661.775	-3.77
661.808	5.23
661.84	-16.77
661.872	6.23
661.904	9.23
661.936	7.23
661.969	-9.77
662.001	-0.77
662.033	9.23
662.065	-10.77
662.097	-3.77
662.129	0.23
662.162	-9.77
662.194	0.23
662.226	-4.77
662.258	17.23
662.29	16.23
662.322	-18.77
662.355	-16.77
662.387	-1.77
662.419	12.23
662.451	10.23
662.483	9.23
662.515	11.23
662.547	-2.77
662.58	-21.77
662.612	-7.77
662.644	4.23
662.676	9.23
662.708	15.23
662.74	-1.77
662.772	-20.77
662.804	18.23
662.836	11.23
662.869	-6.77
662.901	8.23
662.933	-2.77
662.965	17.23
662.997	16.23
663.029	-2.77
663.061	13.23
663.093	14.23
663.125	7.23
663.157	14.23
663.189	6.23
663.221	13.23
663.254	-0.77
663.286	6.23
663.318	-1.77
663.35	8.23
663.382	-3.77
663.414	-1.77
663.446	-13.77
663.478	-6.77
663.51	15.23
663.542	1.23
663.574	-3.77
663.606	5.23
663.638	3.23
663.67	1.23
663.702	5.23
663.734	-0.77
663.766	7.23
663.798	-4.77
663.83	0.23
663.862	13.23
663.894	15.23
663.926	-13.77
663.958	3.23
663.99	-1.77
664.022	-6.77
664.054	13.23
664.086	-6.77
664.118	18.23
664.15	1.23
664.182	5.23
664.214	-15.77
664.246	-5.77
664.278	-2.77
664.31	11.23
664.342	16.23
664.374	14.23
664.406	-6.77
664.438	4.23
664.47	9.23
664.502	-1.77
664.534	-11.77
664.566	-8.77
664.598	17.23
664.63	2.23
664.662	11.23
664.693	-1.77
664.725	-13.77
664.757	5.23
664.789	-8.77
664.821	12.23
664.853	16.23
664.885	-3.77
664.917	-15.77
664.949	9.23
664.981	9.23
665.013	13.23
665.045	-16.77
665.076	7.23
665.108	-4.77
665.14	-0.77
665.172	8.23
665.204	1.23
665.236	-0.77
665.268	16.23
665.3	-1.77
665.331	0.23
665.363	4.23
665.395	-9.77
665.427	-8.77
665.459	12.23
665.491	7.23
665.523	6.23
665.555	-7.77
665.586	-0.77
665.618	-2.77
665.65	-20.77
665.682	19.23
665.714	-3.77
665.746	-5.77
665.777	-6.77
665.809	5.23
665.841	12.23
665.873	-9.77
665.905	-6.77
665.937	1.23
665.968	3.23
666	-2.77
666.032	7.23
666.064	6.23
666.096	2.23
666.127	5.23
666.159	8.23
666.191	13.23
666.223	10.23
666.255	5.23
666.286	-6.77
666.318	-2.77
666.35	25.23
666.382	19.23
666.413	-6.77
666.445	-7.77
666.477	-27.77
666.509	-2.77
666.54	9.23
666.572	-13.77
666.604	1.23
666.636	-0.77
666.667	12.23
666.699	25.23
666.731	8.23
666.763	0.23
666.794	-14.77
666.826	16.23
666.858	-8.77
666.89	-1.77
666.921	-7.77
666.953	7.23
666.985	-5.77
667.017	5.23
667.048	11.23
667.08	7.23
667.112	-8.77
667.143	-17.77
667.175	13.23
667.207	-0.77
667.238	7.23
667.27	19.23
667.302	6.23
667.334	-3.77
667.365	20.23
667.397	-6.77
667.429	-4.77
667.46	2.23
667.492	-8.77
667.524	-2.77
667.555	-8.77
667.587	1.23
667.619	-3.77
667.65	-6.77
667.682	-5.77
667.714	16.23
667.745	26.23
667.777	16.23
667.808	3.23
667.84	9.23
667.872	-0.77
667.903	20.23
667.935	-0.77
667.967	7.23
667.998	16.23
668.03	0.23
668.061	-1.77
668.093	6.23
668.125	14.23
668.156	7.23
668.188	10.23
668.22	5.23
668.251	-2.77
668.283	-14.77
668.314	-1.77
668.346	-12.77
668.377	7.23
668.409	2.23
668.441	10.23
668.472	0.23
668.504	-3.77
668.535	6.23
668.567	12.23
668.599	0.23
668.63	0.23
668.662	5.23
668.693	1.23
668.725	-18.77
668.756	-6.77
668.788	3.23
668.819	7.23
668.851	-2.77
668.882	-2.77
668.914	-7.77
668.946	3.23
668.977	6.23
669.009	12.23
669.04	-10.77
669.072	-2.77
669.103	-1.77
669.135	-0.77
669.166	-1.77
669.198	5.23
669.229	6.23
669.261	-4.77
669.292	-2.77
669.324	8.23
669.355	1.23
669.387	-15.77
669.418	9.23
669.45	1.23
669.481	7.23
669.513	4.23
669.544	8.23
669.576	-0.77
669.607	15.23
669.639	-2.77
669.67	-14.77
669.701	13.23
669.733	-0.77
669.764	-4.77
669.796	-2.77
669.827	-10.77
669.859	1.23
669.89	16.23
669.922	13.23
669.953	8.23
669.985	1.23
670.016	10.23
670.047	-1.77
670.079	3.23
670.11	13.23
670.142	-8.77
670.173	-4.77
670.204	-4.77
670.236	9.23
670.267	-2.77
670.299	1.23
670.33	-3.77
670.362	19.23
670.393	-28.77
670.424	4.23
670.456	-19.77
670.487	-7.77
670.518	-2.77
670.55	18.23
670.581	11.23
670.613	-2.77
670.644	-14.77
670.675	-2.77
670.707	-10.77
670.738	16.23
670.769	8.23
670.801	-7.77
670.832	-9.77
670.864	-13.77
670.895	11.23
670.926	3.23
670.958	-8.77
670.989	10.23
671.02	-2.77
671.052	-7.77
671.083	1.23
671.114	1.23
671.146	2.23
671.177	-1.77
671.208	6.23
671.24	-4.77
671.271	-9.77
671.302	5.23
671.333	-0.77
671.365	-8.77
671.396	-4.77
671.427	7.23
671.459	-7.77
671.49	-2.77
671.521	-0.77
671.553	11.23
671.584	13.23
671.615	-4.77
671.646	8.23
671.678	-8.77
671.709	-0.77
671.74	-12.77
671.771	-17.77
671.803	-13.77
671.834	-14.77
671.865	0.23
671.896	15.23
671.928	-0.77
671.959	-12.77
671.99	-5.77
672.021	-9.77
672.053	-6.77
672.084	24.23
672.115	-4.77
672.146	-18.77
672.178	-17.77
672.209	-15.77
672.24	-8.77
672.271	35.23
672.303	2.23
672.334	0.23
672.365	-0.77
672.396	2.23
672.427	-1.77
672.459	9.23
672.49	29.23
672.521	11.23
672.552	13.23
672.583	4.23
672.615	-9.77
672.646	-5.77
672.677	-0.77
672.708	8.23
672.739	5.23
672.77	9.23
672.802	10.23
672.833	-7.77
672.864	5.23
672.895	2.23
672.926	6.23
672.957	7.23
672.989	-0.77
673.02	-6.77
673.051	0.23
673.082	12.23
673.113	6.23
673.144	-5.77
673.175	14.23
673.206	5.23
673.238	-4.77
673.269	-0.77
673.3	7.23
673.331	13.23
673.362	6.23
673.393	15.23
673.424	18.23
673.455	-5.77
673.487	-11.77
673.518	28.23
673.549	7.23
673.58	10.23
673.611	11.23
673.642	-7.77
673.673	-19.77
673.704	0.23
673.735	17.23
673.766	-8.77
673.797	-2.77
673.828	13.23
673.86	-4.77
673.891	-3.77
673.922	-5.77
673.953	-3.77
673.984	-15.77
674.015	-3.77
674.046	10.23
674.077	8.23
674.108	5.23
674.139	0.23
674.17	-2.77
674.201	16.23
674.232	-1.77
674.263	12.23
674.294	3.23
674.325	-5.77
674.356	-17.77
674.387	15.23
674.418	14.23
674.449	2.23
674.48	8.23
674.511	2.23
674.542	-3.77
674.573	-16.77
674.604	-0.77
674.635	-2.77
674.666	14.23
674.697	8.23
674.728	3.23
674.759	-6.77
674.79	-9.77
674.821	-6.77
674.852	-3.77
674.883	-16.77
674.914	-5.77
674.945	-5.77
674.976	-0.77
675.007	-17.77
675.038	-13.77
675.069	-23.77
675.1	8.23
675.131	18.23
675.162	-7.77
675.193	-6.77
675.224	-14.77
675.254	2.23
675.285	-0.77
675.316	-2.77
675.347	5.23
675.378	1.23
675.409	-1.77
675.44	1.23
675.471	-18.77
675.502	-10.77
675.533	-9.77
675.564	-13.77
675.595	-8.77
675.625	14.23
675.656	6.23
675.687	-3.77
675.718	-16.77
675.749	-6.77
675.78	-0.77
675.811	-10.77
675.842	10.23
675.873	2.23
675.903	-9.77
675.934	1.23
675.965	0.23
675.996	2.23
676.027	11.23
676.058	-0.77
676.089	-25.77
676.119	-10.77
676.15	1.23
676.181	8.23
676.212	-8.77
676.243	6.23
676.274	-5.77
676.304	19.23
676.335	1.23
676.366	9.23
676.397	4.23
676.428	-14.77
676.459	18.23
676.489	1.23
676.52	1.23
676.551	-1.77
676.582	-7.77
676.613	7.23
676.643	-10.77
676.674	6.23
676.705	-6.77
676.736	-5.77
676.767	26.23
676.797	1.23
676.828	-2.77
676.859	-9.77
676.89	-18.77
676.92	7.23
676.951	13.23
676.982	4.23
677.013	0.23
677.044	15.23
677.074	-9.77
677.105	-2.77
677.136	7.23
677.167	-0.77
677.197	8.23
677.228	1.23
677.259	-0.77
677.289	-9.77
677.32	-0.77
677.351	6.23
677.382	9.23
677.412	14.23
677.443	8.23
677.474	-0.77
677.505	0.23
677.535	0.23
677.566	-5.77
677.597	-6.77
677.627	-17.77
677.658	-15.77
677.689	-10.77
677.72	7.23
677.75	2.23
677.781	0.23
677.812	5.23
677.842	6.23
677.873	14.23
677.904	-1.77
677.934	-0.77
677.965	-11.77
677.996	-6.77
678.026	-3.77
678.057	-9.77
678.088	-20.77
678.118	-3.77
678.149	-6.77
678.18	-3.77
678.21	10.23
678.241	-6.77
678.272	7.23
678.302	-2.77
678.333	7.23
678.363	14.23
678.394	10.23
678.425	-7.77
678.455	-1.77
678.486	16.23
678.517	5.23
678.547	5.23
678.578	5.23
678.608	-5.77
678.639	16.23
678.67	11.23
678.7	1.23
678.731	-7.77
678.761	-15.77
678.792	2.23
678.823	5.23
678.853	5.23
678.884	2.23
678.914	4.23
678.945	12.23
678.975	-7.77
679.006	18.23
679.037	-4.77
679.067	19.23
679.098	12.23
679.128	-2.77
679.159	2.23
679.189	14.23
679.22	-1.77
679.25	3.23
679.281	14.23
679.312	-2.77
679.342	13.23
679.373	35.23
679.403	6.23
679.434	7.23
679.464	4.23
679.495	11.23
679.525	6.23
679.556	-13.77
679.586	-2.77
679.617	4.23
679.647	0.23
679.678	0.23
679.708	-13.77
679.739	11.23
679.769	-1.77
679.8	8.23
679.83	-4.77
679.861	0.23
679.891	-17.77
679.922	-11.77
679.952	0.23
679.983	8.23
680.013	14.23
680.044	-8.77
680.074	18.23
680.105	2.23
680.135	2.23
680.165	13.23
680.196	-4.77
680.226	9.23
680.257	23.23
680.287	15.23
680.318	5.23
680.348	-4.77
680.379	6.23
680.409	6.23
680.439	-5.77
680.47	-4.77
680.5	-8.77
680.531	-11.77
680.561	4.23
680.592	2.23
680.622	8.23
680.652	-1.77
680.683	14.23
680.713	-11.77
680.744	5.23
680.774	7.23
680.804	24.23
680.835	-13.77
680.865	8.23
680.896	9.23
680.926	19.23
680.956	1.23
680.987	6.23
681.017	-16.77
681.047	4.23
681.078	-4.77
681.108	5.23
681.139	1.23
681.169	-2.77
681.199	5.23
681.23	26.23
681.26	16.23
681.29	8.23
681.321	-8.77
681.351	-15.77
681.381	-15.77
681.412	-5.77
681.442	8.23
681.472	13.23
681.503	-5.77
681.533	8.23
681.563	14.23
681.594	-3.77
681.624	0.23
681.654	15.23
681.685	7.23
681.715	5.23
681.745	3.23
681.775	13.23
681.806	4.23
681.836	-4.77
681.866	-5.77
681.897	1.23
681.927	-3.77
681.957	-16.77
681.987	6.23
682.018	4.23
682.048	-7.77
682.078	-4.77
682.109	22.23
682.139	12.23
682.169	12.23
682.199	4.23
682.23	-14.77
682.26	2.23
682.29	-13.77
682.32	-8.77
682.351	1.23
682.381	-1.77
682.411	0.23
682.441	2.23
682.472	-3.77
682.502	9.23
682.532	4.23
682.562	-4.77
682.592	1.23
682.623	17.23
682.653	-4.77
682.683	-18.77
682.713	6.23
682.743	-1.77
682.774	13.23
682.804	8.23
682.834	9.23
682.864	-11.77
682.894	19.23
682.925	8.23
682.955	1.23
682.985	-15.77
683.015	2.23
683.045	6.23
683.076	-21.77
683.106	-8.77
683.136	3.23
683.166	15.23
683.196	-1.77
683.226	-2.77
683.257	0.23
683.287	-0.77
683.317	-17.77
683.347	-3.77
683.377	-19.77
683.407	5.23
683.437	1.23
683.468	13.23
683.498	5.23
683.528	13.23
683.558	-2.77
683.588	17.23
683.618	0.23
683.648	-9.77
683.678	-0.77
683.708	21.23
683.739	19.23
683.769	14.23
683.799	-2.77
683.829	9.23
683.859	-1.77
683.889	17.23
683.919	2.23
683.949	7.23
683.979	1.23
684.009	8.23
684.039	4.23
684.07	2.23
684.1	17.23
684.13	6.23
684.16	0.23
684.19	16.23
684.22	6.23
684.25	3.23
684.28	-2.77
684.31	9.23
684.34	10.23
684.37	-10.77
684.4	0.23
684.43	10.23
684.46	-3.77
684.49	6.23
684.52	4.23
684.55	13.23
684.58	-6.77
684.61	-0.77
684.64	11.23
684.67	21.23
684.7	3.23
684.73	8.23
684.76	-1.77
684.79	27.23
684.82	4.23
684.85	-11.77
684.88	9.23
684.91	6.23
684.94	8.23
684.97	6.23
685	-6.77
685.03	-10.77
685.06	-11.77
685.09	-3.77
685.12	3.23
685.15	-7.77
685.18	10.23
685.21	21.23
685.24	11.23
685.27	14.23
685.3	5.23
685.33	1.23
685.36	0.23
685.39	-9.77
685.42	-7.77
685.45	2.23
685.48	0.23
685.51	-4.77
685.54	18.23
685.569	15.23
685.599	11.23
685.629	1.23
685.659	10.23
685.689	12.23
685.719	11.23
685.749	16.23
685.779	-18.77
685.809	7.23
685.839	4.23
685.869	8.23
685.898	-1.77
685.928	3.23
685.958	-11.77
685.988	25.23
686.018	4.23
686.048	8.23
686.078	19.23
686.108	23.23
686.137	17.23
686.167	8.23
686.197	1.23
686.227	-5.77
686.257	24.23
686.287	30.23
686.317	7.23
686.346	-8.77
686.376	-5.77
686.406	5.23
686.436	16.23
686.466	10.23
686.496	3.23
686.525	4.23
686.555	3.23
686.585	24.23
686.615	35.23
686.645	-6.77
686.675	10.23
686.704	5.23
686.734	9.23
686.764	-11.77
686.794	1.23
686.824	7.23
686.853	15.23
686.883	24.23
686.913	2.23
686.943	12.23
686.973	-3.77
687.002	3.23
687.032	0.23
687.062	-6.77
687.092	12.23
687.121	-7.77
687.151	1.23
687.181	-5.77
687.211	14.23
687.24	9.23
687.27	0.23
687.3	0.23
687.33	-0.77
687.359	-22.77
687.389	1.23
687.419	13.23
687.449	25.23
687.478	18.23
687.508	17.23
687.538	16.23
687.568	7.23
687.597	-1.77
687.627	16.23
687.657	4.23
687.686	6.23
687.716	25.23
687.746	-10.77
687.776	3.23
687.805	20.23
687.835	-3.77
687.865	7.23
687.894	8.23
687.924	-5.77
687.954	-2.77
687.983	6.23
688.013	15.23
688.043	21.23
688.072	13.23
688.102	-4.77
688.132	-2.77
688.161	-11.77
688.191	-0.77
688.221	14.23
688.25	7.23
688.28	10.23
688.31	-6.77
688.339	-6.77
688.369	2.23
688.399	-2.77
688.428	6.23
688.458	5.23
688.488	-6.77
688.517	10.23
688.547	8.23
688.576	37.23
688.606	18.23
688.636	5.23
688.665	1.23
688.695	5.23
688.725	9.23
688.754	11.23
688.784	10.23
688.813	17.23
688.843	0.23
688.873	-4.77
688.902	-0.77
688.932	-4.77
688.961	9.23
688.991	-2.77
689.02	18.23
689.05	-6.77
689.08	5.23
689.109	3.23
689.139	13.23
689.168	20.23
689.198	1.23
689.227	1.23
689.257	-0.77
689.287	12.23
689.316	-3.77
689.346	-4.77
689.375	1.23
689.405	-2.77
689.434	6.23
689.464	12.23
689.493	10.23
689.523	-1.77
689.552	-1.77
689.582	7.23
689.611	-0.77
689.641	7.23
689.67	4.23
689.7	8.23
689.73	13.23
689.759	-3.77
689.789	9.23
689.818	4.23
689.848	-1.77
689.877	16.23
689.906	-2.77
689.936	-2.77
689.965	2.23
689.995	7.23
690.024	5.23
690.054	-2.77
690.083	17.23
690.113	12.23
690.142	9.23
690.172	4.23
690.201	7.23
690.231	-5.77
690.26	11.23
690.29	10.23
690.319	10.23
690.348	4.23
690.378	8.23
690.407	2.23
690.437	-0.77
690.466	-6.77
690.496	4.23
690.525	-3.77
690.555	-22.77
690.584	5.23
690.613	3.23
690.643	6.23
690.672	-2.77
690.702	6.23
690.731	10.23
690.76	-2.77
690.79	-14.77
690.819	-12.77
690.849	4.23
690.878	1.23
690.907	2.23
690.937	2.23
690.966	18.23
690.996	2.23
691.025	-6.77
691.054	0.23
691.084	7.23
691.113	10.23
691.142	4.23
691.172	6.23
691.201	17.23
691.23	9.23
691.26	10.23
691.289	8.23
691.319	6.23
691.348	5.23
691.377	11.23
691.407	8.23
691.436	9.23
691.465	-5.77
691.495	3.23
691.524	6.23
691.553	-1.77
691.583	-14.77
691.612	13.23
691.641	6.23
691.67	7.23
691.7	7.23
691.729	-19.77
691.758	5.23
691.788	-7.77
691.817	7.23
691.846	1.23
691.876	1.23
691.905	4.23
691.934	-4.77
691.963	7.23
691.993	8.23
692.022	-0.77
692.051	-8.77
692.081	21.23
692.11	11.23
692.139	6.23
692.168	13.23
692.198	23.23
692.227	11.23
692.256	8.23
692.285	1.23
692.315	3.23
692.344	16.23
692.373	4.23
692.402	-10.77
692.432	-10.77
692.461	-3.77
692.49	-2.77
692.519	6.23
692.548	-3.77
692.578	14.23
692.607	6.23
692.636	-4.77
692.665	19.23
692.694	5.23
692.724	0.23
692.753	2.23
692.782	17.23
692.811	-0.77
692.84	-5.77
692.87	-1.77
692.899	-2.77
692.928	14.23
692.957	5.23
692.986	23.23
693.016	8.23
693.045	16.23
693.074	7.23
693.103	1.23
693.132	2.23
693.161	4.23
693.191	-2.77
693.22	-17.77
693.249	9.23
693.278	-4.77
693.307	14.23
693.336	-4.77
693.365	-18.77
693.395	1.23
693.424	11.23
693.453	27.23
693.482	1.23
693.511	3.23
693.54	10.23
693.569	-2.77
693.598	2.23
693.628	23.23
693.657	22.23
693.686	25.23
693.715	17.23
693.744	8.23
693.773	21.23
693.802	6.23
693.831	6.23
693.86	21.23
693.889	-2.77
693.919	1.23
693.948	-0.77
693.977	-3.77
694.006	-6.77
694.035	1.23
694.064	13.23
694.093	15.23
694.122	5.23
694.151	0.23
694.18	6.23
694.209	16.23
694.238	-13.77
694.267	29.23
694.296	22.23
694.325	14.23
694.354	18.23
694.383	18.23
694.412	6.23
694.441	1.23
694.471	-11.77
694.5	-0.77
694.529	27.23
694.558	7.23
694.587	24.23
694.616	10.23
694.645	-5.77
694.674	15.23
694.703	18.23
694.732	-6.77
694.761	14.23
694.79	13.23
694.819	-14.77
694.848	19.23
694.877	22.23
694.906	41.23
694.935	17.23
694.963	25.23
694.992	17.23
695.021	9.23
695.05	16.23
695.079	12.23
695.108	9.23
695.137	17.23
695.166	8.23
695.195	-5.77
695.224	21.23
695.253	15.23
695.282	24.23
695.311	8.23
695.34	12.23
695.369	15.23
695.398	8.23
695.427	10.23
695.456	7.23
695.485	19.23
695.513	-5.77
695.542	-2.77
695.571	-1.77
695.6	15.23
695.629	5.23
695.658	21.23
695.687	14.23
695.716	3.23
695.745	12.23
695.774	-0.77
695.802	-0.77
695.831	16.23
695.86	14.23
695.889	8.23
695.918	8.23
695.947	-5.77
695.976	8.23
696.005	19.23
696.033	27.23
696.062	22.23
696.091	8.23
696.12	11.23
696.149	7.23
696.178	-4.77
696.207	-1.77
696.235	-5.77
696.264	2.23
696.293	3.23
696.322	8.23
696.351	7.23
696.38	2.23
696.408	10.23
696.437	-0.77
696.466	3.23
696.495	14.23
696.524	7.23
696.553	15.23
696.581	8.23
696.61	5.23
696.639	0.23
696.668	14.23
696.697	12.23
696.725	6.23
696.754	-5.77
696.783	-0.77
696.812	-5.77
696.84	7.23
696.869	6.23
696.898	-7.77
696.927	5.23
696.956	17.23
696.984	1.23
697.013	9.23
697.042	-8.77
697.071	21.23
697.099	9.23
697.128	8.23
697.157	4.23
697.186	-4.77
697.214	1.23
697.243	1.23
697.272	9.23
697.301	25.23
697.329	6.23
697.358	21.23
697.387	30.23
697.415	10.23
697.444	-3.77
697.473	-2.77
697.502	3.23
697.53	8.23
697.559	-3.77
697.588	8.23
697.616	1.23
697.645	2.23
697.674	17.23
697.703	-6.77
697.731	23.23
697.76	0.23
697.789	5.23
697.817	-2.77
697.846	21.23
697.875	7.23
697.903	14.23
697.932	8.23
697.961	16.23
697.989	23.23
698.018	8.23
698.047	3.23
698.075	21.23
698.104	-6.77
698.133	8.23
698.161	-1.77
698.19	-5.77
698.218	-14.77
698.247	-1.77
698.276	3.23
698.304	9.23
698.333	3.23
698.362	1.23
698.39	19.23
698.419	8.23
698.447	-6.77
698.476	-5.77
698.505	5.23
698.533	22.23
698.562	6.23
698.591	-5.77
698.619	-23.77
698.648	-3.77
698.676	-3.77
698.705	-15.77
698.733	1.23
698.762	2.23
698.791	2.23
698.819	15.23
698.848	16.23
698.876	15.23
698.905	17.23
698.933	19.23
698.962	18.23
698.991	8.23
699.019	28.23
699.048	4.23
699.076	21.23
699.105	-4.77
699.133	-8.77
699.162	11.23
699.19	19.23
699.219	3.23
699.248	7.23
699.276	-1.77
699.305	4.23
699.333	19.23
699.362	7.23
699.39	-1.77
699.419	2.23
699.447	9.23
699.476	8.23
699.504	10.23
699.533	3.23
699.561	-2.77
699.59	19.23
699.618	-3.77
699.647	-3.77
699.675	13.23
699.704	5.23
699.732	2.23
699.761	6.23
699.789	-6.77
699.818	-4.77
699.846	-2.77
699.874	0.23
699.903	8.23
699.931	9.23
699.96	12.23
699.988	10.23
700.017	2.23
700.045	3.23
700.074	-7.77
700.102	1.23
700.13	-4.77
700.159	6.23
700.187	2.23
700.216	5.23
700.244	6.23
700.273	-1.77
700.301	4.23
700.329	2.23
700.358	12.23
700.386	-6.77
700.415	12.23
700.443	-10.77
700.472	-1.77
700.5	6.23
700.528	-0.77
700.557	-6.77
700.585	-0.77
700.614	4.23
700.642	14.23
700.67	28.23
700.699	25.23
700.727	15.23
700.755	17.23
700.784	7.23
700.812	11.23
700.841	5.23
700.869	8.23
700.897	-13.77
700.926	-6.77
700.954	0.23
700.982	8.23
701.011	-1.77
701.039	13.23
701.067	4.23
701.096	10.23
701.124	-3.77
701.152	2.23
701.181	-7.77
701.209	-13.77
701.237	6.23
701.266	-1.77
701.294	-2.77
701.322	11.23
701.351	17.23
701.379	4.23
701.407	-8.77
701.435	3.23
701.464	7.23
701.492	16.23
701.52	7.23
701.549	11.23
701.577	-3.77
701.605	-4.77
701.634	-13.77
701.662	9.23
701.69	-10.77
701.718	-19.77
701.747	17.23
701.775	-2.77
701.803	-1.77
701.831	5.23
701.86	-3.77
701.888	14.23
701.916	-8.77
701.944	2.23
701.973	-2.77
702.001	-19.77
702.029	-6.77
702.057	-7.77
702.086	-1.77
702.114	1.23
702.142	-0.77
702.17	-16.77
702.199	7.23
702.227	5.23
702.255	12.23
702.283	-3.77
702.311	11.23
702.34	21.23
702.368	-7.77
702.396	13.23
702.424	5.23
702.452	7.23
702.481	-4.77
702.509	-5.77
702.537	15.23
702.565	20.23
702.593	-10.77
702.621	8.23
702.65	6.23
702.678	12.23
702.706	6.23
702.734	-4.77
702.762	9.23
702.79	3.23
702.819	1.23
702.847	18.23
702.875	16.23
702.903	9.23
702.931	7.23
702.959	13.23
702.988	12.23
703.016	-7.77
703.044	-1.77
703.072	-2.77
703.1	4.23
703.128	0.23
703.156	6.23
703.184	4.23
703.212	19.23
703.241	10.23
703.269	9.23
703.297	-7.77
703.325	4.23
703.353	-20.77
703.381	-22.77
703.409	-7.77
703.437	-7.77
703.465	-8.77
703.493	-16.77
703.522	7.23
703.55	0.23
703.578	5.23
703.606	-11.77
703.634	2.23
703.662	-2.77
703.69	15.23
703.718	21.23
703.746	17.23
703.774	-2.77
703.802	1.23
703.83	4.23
703.858	10.23
703.886	0.23
703.914	2.23
703.942	18.23
703.97	6.23
703.998	-2.77
704.027	22.23
704.055	6.23
704.083	2.23
704.111	-14.77
704.139	16.23
704.167	1.23
704.195	1.23
704.223	6.23
704.251	-6.77
704.279	17.23
704.307	9.23
704.335	-17.77
704.363	11.23
704.391	-1.77
704.419	5.23
704.447	-10.77
704.475	14.23
704.503	-15.77
704.531	7.23
704.558	4.23
704.586	0.23
704.614	3.23
704.642	12.23
704.67	-15.77
704.698	-6.77
704.726	-2.77
704.754	-0.77
704.782	4.23
704.81	0.23
704.838	18.23
704.866	17.23
704.894	-18.77
704.922	-12.77
704.95	4.23
704.978	9.23
705.006	5.23
705.034	22.23
705.061	-4.77
705.089	0.23
705.117	-9.77
705.145	-6.77
705.173	-1.77
705.201	-4.77
705.229	12.23
705.257	12.23
705.285	2.23
705.313	2.23
705.34	-13.77
705.368	-3.77
705.396	5.23
705.424	5.23
705.452	-1.77
705.48	-0.77
705.508	-5.77
705.536	-10.77
705.563	6.23
705.591	13.23
705.619	-2.77
705.647	-19.77
705.675	-1.77
705.703	4.23
705.731	9.23
705.758	2.23
705.786	5.23
705.814	19.23
705.842	8.23
705.87	5.23
705.898	6.23
705.925	-9.77
705.953	4.23
705.981	1.23
706.009	1.23
706.037	-0.77
706.065	1.23
706.092	-20.77
706.12	-10.77
706.148	1.23
706.176	6.23
706.204	15.23
706.231	14.23
706.259	-2.77
706.287	-3.77
706.315	12.23
706.342	5.23
706.37	14.23
706.398	6.23
706.426	-5.77
706.454	4.23
706.481	13.23
706.509	5.23
706.537	-7.77
706.565	-4.77
706.592	26.23
706.62	14.23
706.648	10.23
706.676	-7.77
706.703	12.23
706.731	4.23
706.759	-11.77
706.787	-1.77
706.814	5.23
706.842	-2.77
706.87	4.23
706.897	7.23
706.925	4.23
706.953	22.23
706.981	23.23
707.008	14.23
707.036	2.23
707.064	-3.77
707.091	-8.77
707.119	15.23
707.147	17.23
707.174	4.23
707.202	7.23
707.23	-6.77
707.258	2.23
707.285	-5.77
707.313	-9.77
707.341	-6.77
707.368	-4.77
707.396	14.23
707.424	28.23
707.451	3.23
707.479	0.23
707.507	-1.77
707.534	-10.77
707.562	11.23
707.59	-6.77
707.617	-7.77
707.645	9.23
707.672	7.23
707.7	3.23
707.728	11.23
707.755	4.23
707.783	-2.77
707.811	6.23
707.838	-6.77
707.866	7.23
707.893	-0.77
707.921	-8.77
707.949	-1.77
707.976	1.23
708.004	3.23
708.031	2.23
708.059	8.23
708.087	4.23
708.114	4.23
708.142	-1.77
708.169	-10.77
708.197	-27.77
708.225	-7.77
708.252	-2.77
708.28	0.23
708.307	-9.77
708.335	9.23
708.362	-6.77
708.39	-5.77
708.418	-9.77
708.445	-10.77
708.473	-1.77
708.5	-6.77
708.528	9.23
708.555	-0.77
708.583	6.23
708.61	-0.77
708.638	4.23
708.665	-3.77
708.693	7.23
708.72	-2.77
708.748	2.23
708.776	11.23
708.803	9.23
708.831	-0.77
708.858	5.23
708.886	5.23
708.913	-3.77
708.941	2.23
708.968	5.23
708.996	-3.77
709.023	23.23
709.051	4.23
709.078	5.23
709.105	2.23
709.133	0.23
709.16	9.23
709.188	12.23
709.215	6.23
709.243	1.23
709.27	-2.77
709.298	-1.77
709.325	-0.77
709.353	-5.77
709.38	19.23
709.408	17.23
709.435	5.23
709.462	11.23
709.49	6.23
709.517	-1.77
709.545	-0.77
709.572	6.23
709.6	-2.77
709.627	11.23
709.655	13.23
709.682	-4.77
709.709	-4.77
709.737	9.23
709.764	-2.77
709.792	19.23
709.819	-4.77
709.846	-4.77
709.874	9.23
709.901	16.23
709.929	29.23
709.956	16.23
709.983	-10.77
710.011	8.23
710.038	1.23
710.066	2.23
710.093	13.23
710.12	-2.77
710.148	-8.77
710.175	0.23
710.202	-8.77
710.23	-2.77
710.257	-6.77
710.284	-5.77
710.312	-0.77
710.339	2.23
710.366	2.23
710.394	-7.77
710.421	-5.77
710.448	10.23
710.476	-5.77
710.503	12.23
710.53	21.23
710.558	18.23
710.585	16.23
710.612	2.23
710.64	6.23
710.667	-2.77
710.694	-11.77
710.722	11.23
710.749	3.23
710.776	8.23
710.804	24.23
710.831	1.23
710.858	-2.77
710.885	0.23
710.913	2.23
710.94	14.23
710.967	13.23
710.995	15.23
711.022	0.23
711.049	13.23
711.076	-8.77
711.104	-9.77
711.131	-14.77
711.158	0.23
711.185	4.23
711.213	-4.77
711.24	-9.77
711.267	-10.77
711.294	-14.77
711.322	10.23
711.349	-0.77
711.376	0.23
711.403	4.23
711.431	-4.77
711.458	4.23
711.485	1.23
711.512	4.23
711.54	10.23
711.567	2.23
711.594	11.23
711.621	-1.77
711.648	1.23
711.676	1.23
711.703	17.23
711.73	12.23
711.757	6.23
711.784	8.23
711.812	1.23
711.839	-5.77
711.866	-9.77
711.893	-0.77
711.92	17.23
711.947	0.23
711.975	4.23
712.002	5.23
712.029	20.23
712.056	5.23
712.083	14.23
712.11	-9.77
712.138	-0.77
712.165	-2.77
712.192	-1.77
712.219	-2.77
712.246	-0.77
712.273	5.23
712.3	-6.77
712.328	2.23
712.355	4.23
712.382	-7.77
712.409	12.23
712.436	-7.77
712.463	2.23
712.49	1.23
712.517	0.23
712.544	-7.77
712.572	8.23
712.599	8.23
712.626	-3.77
712.653	-0.77
712.68	6.23
712.707	9.23
712.734	5.23
712.761	8.23
712.788	4.23
712.815	-0.77
712.842	19.23
712.87	2.23
712.897	-7.77
712.924	4.23
712.951	10.23
712.978	22.23
713.005	25.23
713.032	8.23
713.059	-4.77
713.086	-4.77
713.113	-9.77
713.14	-16.77
713.167	1.23
713.194	4.23
713.221	9.23
713.248	15.23
713.275	7.23
713.302	-13.77
713.329	11.23
713.356	1.23
713.383	2.23
713.41	17.23
713.437	4.23
713.464	4.23
713.491	22.23
713.518	16.23
713.545	1.23
713.572	8.23
713.599	18.23
713.626	4.23
713.653	22.23
713.68	0.23
713.707	2.23
713.734	0.23
713.761	11.23
713.788	9.23
713.815	-1.77
713.842	-6.77
713.869	2.23
713.896	6.23
713.923	9.23
713.95	1.23
713.977	-3.77
714.004	-3.77
714.031	-3.77
714.058	-2.77
714.085	-2.77
714.112	15.23
714.139	4.23
714.165	10.23
714.192	13.23
714.219	13.23
714.246	5.23
714.273	17.23
714.3	16.23
714.327	6.23
714.354	18.23
714.381	-1.77
714.408	1.23
714.435	-4.77
714.461	13.23
714.488	-2.77
714.515	-3.77
714.542	-7.77
714.569	-9.77
714.596	-12.77
714.623	1.23
714.65	-8.77
714.677	3.23
714.703	-3.77
714.73	-0.77
714.757	7.23
714.784	4.23
714.811	-0.77
714.838	4.23
714.865	-5.77
714.891	5.23
714.918	10.23
714.945	-9.77
714.972	11.23
714.999	19.23
715.026	-7.77
715.052	16.23
715.079	8.23
715.106	3.23
715.133	11.23
715.16	-11.77
715.187	1.23
715.213	10.23
715.24	-15.77
715.267	2.23
715.294	5.23
715.321	8.23
715.347	-1.77
715.374	-2.77
715.401	2.23
715.428	9.23
715.455	2.23
715.481	-22.77
715.508	4.23
715.535	14.23
715.562	25.23
715.588	-5.77
715.615	-3.77
715.642	-1.77
715.669	9.23
715.695	-3.77
715.722	-11.77
715.749	13.23
715.776	9.23
715.802	18.23
715.829	8.23
715.856	5.23
715.883	20.23
715.909	4.23
715.936	2.23
715.963	1.23
715.99	0.23
716.016	8.23
716.043	14.23
716.07	-9.77
716.096	9.23
716.123	5.23
716.15	3.23
716.177	2.23
716.203	17.23
716.23	-2.77
716.257	7.23
716.283	18.23
716.31	4.23
716.337	8.23
716.363	-11.77
716.39	5.23
716.417	31.23
716.443	11.23
716.47	10.23
716.497	13.23
716.523	5.23
716.55	4.23
716.577	13.23
716.603	4.23
716.63	5.23
716.657	8.23
716.683	4.23
716.71	5.23
716.737	12.23
716.763	9.23
716.79	16.23
716.817	15.23
716.843	3.23
716.87	-2.77
716.897	0.23
716.923	17.23
716.95	4.23
716.976	2.23
717.003	4.23
717.03	4.23
717.056	3.23
717.083	-2.77
717.109	6.23
717.136	-4.77
717.163	-6.77
717.189	-0.77
717.216	-14.77
717.242	-19.77
717.269	-13.77
717.296	20.23
717.322	0.23
717.349	-0.77
717.375	11.23
717.402	0.23
717.428	5.23
717.455	11.23
717.481	10.23
717.508	12.23
717.535	7.23
717.561	6.23
717.588	5.23
717.614	-0.77
717.641	-6.77
717.667	-2.77
717.694	10.23
717.72	0.23
717.747	5.23
717.773	-0.77
717.8	12.23
717.826	23.23
717.853	8.23
717.88	1.23
717.906	1.23
717.933	3.23
717.959	-5.77
717.986	6.23
718.012	10.23
718.039	12.23
718.065	18.23
718.092	13.23
718.118	9.23
718.144	12.23
718.171	7.23
718.197	26.23
718.224	5.23
718.25	4.23
718.277	11.23
718.303	14.23
718.33	6.23
718.356	-2.77
718.383	-2.77
718.409	29.23
718.436	-4.77
718.462	2.23
718.489	4.23
718.515	19.23
718.541	9.23
718.568	10.23
718.594	14.23
718.621	8.23
718.647	10.23
718.674	9.23
718.7	9.23
718.726	5.23
718.753	10.23
718.779	5.23
718.806	16.23
718.832	-1.77
718.858	1.23
718.885	-7.77
718.911	12.23
718.938	16.23
718.964	-11.77
718.99	2.23
719.017	4.23
719.043	7.23
719.07	19.23
719.096	8.23
719.122	18.23
719.149	13.23
719.175	2.23
719.201	-1.77
719.228	-14.77
719.254	5.23
719.281	-3.77
719.307	5.23
719.333	8.23
719.36	8.23
719.386	2.23
719.412	1.23
719.439	-8.77
719.465	-6.77
719.491	6.23
719.518	0.23
719.544	4.23
719.57	25.23
719.597	8.23
719.623	-3.77
719.649	5.23
719.675	6.23
719.702	9.23
719.728	23.23
719.754	-3.77
719.781	4.23
719.807	-3.77
719.833	-1.77
719.86	-1.77
719.886	0.23
719.912	5.23
719.938	4.23
719.965	3.23
719.991	11.23
720.017	1.23
720.044	-6.77
720.07	20.23
720.096	21.23
720.122	-0.77
720.149	5.23
720.175	30.23
720.201	15.23
720.227	-3.77
720.254	-2.77
720.28	-2.77
720.306	-13.77
720.332	11.23
720.359	4.23
720.385	6.23
720.411	7.23
720.437	2.23
720.463	0.23
720.49	-2.77
720.516	-7.77
720.542	-7.77
720.568	-0.77
720.595	12.23
720.621	1.23
720.647	2.23
720.673	8.23
720.699	11.23
720.725	11.23
720.752	11.23
720.778	7.23
720.804	24.23
720.83	8.23
720.856	-13.77
720.883	-3.77
720.909	-17.77
720.935	4.23
720.961	19.23
720.987	-2.77
721.013	8.23
721.04	-6.77
721.066	9.23
721.092	-3.77
721.118	-0.77
721.144	3.23
721.17	1.23
721.196	2.23
721.223	-7.77
721.249	-9.77
721.275	7.23
721.301	14.23
721.327	8.23
721.353	5.23
721.379	25.23
721.405	8.23
721.432	17.23
721.458	-8.77
721.484	8.23
721.51	-10.77
721.536	-0.77
721.562	-1.77
721.588	0.23
721.614	-21.77
721.64	-9.77
721.666	1.23
721.693	5.23
721.719	5.23
721.745	-0.77
721.771	2.23
721.797	-3.77
721.823	2.23
721.849	17.23
721.875	6.23
721.901	42.23
721.927	12.23
721.953	2.23
721.979	13.23
722.005	6.23
722.031	5.23
722.057	-3.77
722.083	7.23
722.109	8.23
722.135	14.23
722.161	1.23
722.187	-1.77
722.214	0.23
722.24	5.23
722.266	-15.77
722.292	17.23
722.318	6.23
722.344	5.23
722.37	6.23
722.396	13.23
722.422	-6.77
722.448	9.23
722.474	-3.77
722.5	11.23
722.526	-6.77
722.552	15.23
722.578	12.23
722.603	1.23
722.629	13.23
722.655	-2.77
722.681	-8.77
722.707	2.23
722.733	-13.77
722.759	-11.77
722.785	-5.77
722.811	2.23
722.837	9.23
722.863	-0.77
722.889	17.23
722.915	-11.77
722.941	-9.77
722.967	0.23
722.993	15.23
723.019	17.23
723.045	22.23
723.071	-2.77
723.097	1.23
723.122	1.23
723.148	-9.77
723.174	8.23
723.2	17.23
723.226	-2.77
723.252	15.23
723.278	-5.77
723.304	-2.77
723.33	8.23
723.356	-6.77
723.381	-3.77
723.407	-8.77
723.433	23.23
723.459	3.23
723.485	12.23
723.511	12.23
723.537	-7.77
723.563	-11.77
723.588	-6.77
723.614	5.23
723.64	-1.77
723.666	-1.77
723.692	1.23
723.718	6.23
723.744	14.23
723.769	-10.77
723.795	-7.77
723.821	7.23
723.847	10.23
723.873	10.23
723.899	24.23
723.924	12.23
723.95	-5.77
723.976	-15.77
724.002	-5.77
724.028	0.23
724.053	-5.77
724.079	-5.77
724.105	1.23
724.131	1.23
724.157	9.23
724.182	1.23
724.208	1.23
724.234	-0.77
724.26	11.23
724.286	4.23
724.311	-0.77
724.337	5.23
724.363	7.23
724.389	5.23
724.415	8.23
724.44	30.23
724.466	17.23
724.492	0.23
724.518	5.23
724.543	7.23
724.569	-3.77
724.595	1.23
724.621	2.23
724.646	0.23
724.672	2.23
724.698	-4.77
724.723	4.23
724.749	-1.77
724.775	9.23
724.801	12.23
724.826	-22.77
724.852	-4.77
724.878	-6.77
724.904	-7.77
724.929	7.23
724.955	-14.77
724.981	-1.77
725.006	-3.77
725.032	-3.77
725.058	11.23
725.083	4.23
725.109	-7.77
725.135	-3.77
725.161	5.23
725.186	1.23
725.212	-0.77
725.238	3.23
725.263	2.23
725.289	-9.77
725.315	-4.77
725.34	9.23
725.366	21.23
725.392	12.23
725.417	10.23
725.443	0.23
725.468	-2.77
725.494	10.23
725.52	7.23
725.545	2.23
725.571	-5.77
725.597	4.23
725.622	5.23
725.648	0.23
725.674	-1.77
725.699	0.23
725.725	6.23
725.75	16.23
725.776	-8.77
725.802	4.23
725.827	8.23
725.853	0.23
725.878	17.23
725.904	0.23
725.93	-1.77
725.955	2.23
725.981	1.23
726.006	6.23
726.032	16.23
726.057	8.23
726.083	-3.77
726.109	11.23
726.134	9.23
726.16	25.23
726.185	9.23
726.211	6.23
726.236	13.23
726.262	9.23
726.288	0.23
726.313	16.23
726.339	13.23
726.364	-16.77
726.39	5.23
726.415	-1.77
726.441	-17.77
726.466	-2.77
726.492	-0.77
726.517	-3.77
726.543	6.23
726.568	-16.77
726.594	-6.77
726.619	0.23
726.645	16.23
726.67	12.23
726.696	14.23
726.721	8.23
726.747	4.23
726.772	8.23
726.798	9.23
726.823	13.23
726.849	-10.77
726.874	11.23
726.9	20.23
726.925	21.23
726.951	15.23
726.976	21.23
727.002	8.23
727.027	10.23
727.053	19.23
727.078	-3.77
727.104	-6.77
727.129	-8.77
727.155	-1.77
727.18	8.23
727.205	-1.77
727.231	6.23
727.256	2.23
727.282	-10.77
727.307	5.23
727.333	5.23
727.358	0.23
727.383	-3.77
727.409	-11.77
727.434	26.23
727.46	-17.77
727.485	-0.77
727.511	18.23
727.536	1.23
727.561	6.23
727.587	9.23
727.612	-11.77
727.637	-8.77
727.663	-7.77
727.688	14.23
727.714	-5.77
727.739	11.23
727.764	-5.77
727.79	0.23
727.815	2.23
727.841	-0.77
727.866	7.23
727.891	5.23
727.917	1.23
727.942	-2.77
727.967	9.23
727.993	-3.77
728.018	-1.77
728.043	9.23
728.069	23.23
728.094	7.23
728.119	1.23
728.145	12.23
728.17	-0.77
728.195	3.23
728.221	0.23
728.246	4.23
728.271	2.23
728.297	15.23
728.322	5.23
728.347	11.23
728.373	2.23
728.398	10.23
728.423	1.23
728.448	13.23
728.474	8.23
728.499	12.23
728.524	-24.77
728.55	-9.77
728.575	4.23
728.6	8.23
728.625	5.23
728.651	1.23
728.676	5.23
728.701	3.23
728.727	7.23
728.752	12.23
728.777	-7.77
728.802	8.23
728.828	5.23
728.853	4.23
728.878	6.23
728.903	-5.77
728.929	-11.77
728.954	-3.77
728.979	15.23
729.004	11.23
729.03	-0.77
729.055	21.23
729.08	-3.77
729.105	-10.77
729.13	21.23
729.156	12.23
729.181	12.23
729.206	-13.77
729.231	-9.77
729.256	15.23
729.282	12.23
729.307	-8.77
729.332	1.23
729.357	1.23
729.382	-3.77
729.408	-4.77
729.433	4.23
729.458	1.23
729.483	7.23
729.508	18.23
729.533	6.23
729.559	13.23
729.584	4.23
729.609	-1.77
729.634	3.23
729.659	-8.77
729.684	8.23
729.71	22.23
729.735	-2.77
729.76	5.23
729.785	11.23
729.81	5.23
729.835	8.23
729.86	-9.77
729.886	14.23
729.911	9.23
729.936	-0.77
729.961	5.23
729.986	-6.77
730.011	-1.77
730.036	2.23
730.061	6.23
730.086	20.23
730.112	-10.77
730.137	8.23
730.162	8.23
730.187	-1.77
730.212	10.23
730.237	-3.77
730.262	-0.77
730.287	5.23
730.312	-0.77
730.337	-0.77
730.362	22.23
730.387	5.23
730.413	-11.77
730.438	2.23
730.463	14.23
730.488	-2.77
730.513	15.23
730.538	-3.77
730.563	14.23
730.588	14.23
730.613	1.23
730.638	-5.77
730.663	-1.77
730.688	8.23
730.713	6.23
730.738	-1.77
730.763	5.23
730.788	-5.77
730.813	7.23
730.838	-4.77
730.863	5.23
730.888	-7.77
730.913	-9.77
730.938	-13.77
730.963	-4.77
730.988	-4.77
731.013	9.23
731.038	-6.77
731.063	-3.77
731.088	29.23
731.113	-4.77
731.138	1.23
731.163	4.23
731.188	3.23
731.213	20.23
731.238	14.23
731.263	-17.77
731.288	-1.77
731.313	-0.77
731.338	-4.77
731.363	3.23
731.388	5.23
731.413	-11.77
731.438	13.23
731.463	2.23
731.487	9.23
731.512	-9.77
731.537	3.23
731.562	5.23
731.587	-8.77
731.612	-0.77
731.637	-0.77
731.662	3.23
731.687	-0.77
731.712	-7.77
731.737	12.23
731.762	1.23
731.786	6.23
731.811	10.23
731.836	1.23
731.861	1.23
731.886	0.23
731.911	17.23
731.936	14.23
731.961	8.23
731.986	-1.77
732.01	0.23
732.035	6.23
732.06	24.23
732.085	-0.77
732.11	14.23
732.135	1.23
732.16	-0.77
732.184	-1.77
732.209	10.23
732.234	15.23
732.259	-1.77
732.284	24.23
732.309	-12.77
732.334	4.23
732.358	-14.77
732.383	-2.77
732.408	1.23
732.433	2.23
732.458	2.23
732.482	13.23
732.507	4.23
732.532	8.23
732.557	15.23
732.582	13.23
732.607	-8.77
732.631	-7.77
732.656	-9.77
732.681	0.23
732.706	-11.77
732.73	1.23
732.755	4.23
732.78	2.23
732.805	4.23
732.83	-3.77
732.854	5.23
732.879	23.23
732.904	-6.77
732.929	-3.77
732.953	0.23
732.978	15.23
733.003	-2.77
733.028	5.23
733.052	19.23
733.077	7.23
733.102	13.23
733.127	-5.77
733.151	5.23
733.176	13.23
733.201	3.23
733.226	-7.77
733.25	0.23
733.275	0.23
733.3	0.23
733.324	16.23
733.349	2.23
733.374	30.23
733.399	4.23
733.423	2.23
733.448	-0.77
733.473	19.23
733.497	-8.77
733.522	0.23
733.547	10.23
733.571	19.23
733.596	-2.77
733.621	4.23
733.646	4.23
733.67	15.23
733.695	-9.77
733.72	9.23
733.744	2.23
733.769	-5.77
733.794	-6.77
733.818	4.23
733.843	-9.77
733.867	-14.77
733.892	-3.77
733.917	7.23
733.941	4.23
733.966	-0.77
733.991	2.23
734.015	10.23
734.04	4.23
734.065	9.23
734.089	12.23
734.114	-9.77
734.138	4.23
734.163	3.23
734.188	14.23
734.212	19.23
734.237	13.23
734.261	11.23
734.286	3.23
734.311	4.23
734.335	13.23
734.36	-6.77
734.384	19.23
734.409	2.23
734.434	0.23
734.458	2.23
734.483	24.23
734.507	2.23
734.532	8.23
734.556	1.23
734.581	19.23
734.606	3.23
734.63	-10.77
734.655	17.23
734.679	0.23
734.704	4.23
734.728	8.23
734.753	2.23
734.777	4.23
734.802	-1.77
734.826	2.23
734.851	-5.77
734.876	18.23
734.9	22.23
734.925	20.23
734.949	9.23
734.974	10.23
734.998	8.23
735.023	-5.77
735.047	-11.77
735.072	4.23
735.096	0.23
735.121	6.23
735.145	6.23
735.17	15.23
735.194	5.23
735.219	11.23
735.243	16.23
735.268	12.23
735.292	7.23
735.317	12.23
735.341	6.23
735.365	-21.77
735.39	9.23
735.414	-3.77
735.439	-0.77
735.463	-6.77
735.488	18.23
735.512	11.23
735.537	7.23
735.561	8.23
735.586	-8.77
735.61	-4.77
735.634	0.23
735.659	13.23
735.683	18.23
735.708	-0.77
735.732	12.23
735.757	6.23
735.781	-7.77
735.805	12.23
735.83	2.23
735.854	4.23
735.879	1.23
735.903	9.23
735.927	9.23
735.952	10.23
735.976	16.23
736.001	8.23
736.025	-1.77
736.049	11.23
736.074	5.23
736.098	-1.77
736.123	4.23
736.147	0.23
736.171	-11.77
736.196	5.23
736.22	-19.77
736.244	-2.77
736.269	4.23
736.293	-3.77
736.317	5.23
736.342	5.23
736.366	19.23
736.39	2.23
736.415	10.23
736.439	-5.77
736.463	6.23
736.488	14.23
736.512	13.23
736.536	4.23
736.561	20.23
736.585	-6.77
736.609	5.23
736.634	-19.77
736.658	14.23
736.682	-4.77
736.707	-1.77
736.731	-1.77
736.755	1.23
736.78	25.23
736.804	12.23
736.828	7.23
736.852	9.23
736.877	0.23
736.901	-0.77
736.925	3.23
736.949	6.23
736.974	-4.77
736.998	-5.77
737.022	-5.77
737.047	-8.77
737.071	-3.77
737.095	4.23
737.119	8.23
737.144	21.23
737.168	13.23
737.192	1.23
737.216	8.23
737.241	-5.77
737.265	22.23
737.289	-0.77
737.313	-8.77
737.337	22.23
737.362	16.23
737.386	3.23
737.41	1.23
737.434	4.23
737.459	3.23
737.483	23.23
737.507	7.23
737.531	7.23
737.555	11.23
737.58	9.23
737.604	11.23
737.628	-4.77
737.652	2.23
737.676	1.23
737.701	8.23
737.725	-4.77
737.749	4.23
737.773	5.23
737.797	-16.77
737.821	8.23
737.846	2.23
737.87	21.23
737.894	-1.77
737.918	13.23
737.942	7.23
737.966	29.23
737.99	14.23
738.015	-3.77
738.039	2.23
738.063	9.23
738.087	19.23
738.111	8.23
738.135	-3.77
738.159	-6.77
738.184	0.23
738.208	9.23
738.232	8.23
738.256	23.23
738.28	9.23
738.304	11.23
738.328	0.23
738.352	-2.77
738.376	8.23
738.4	12.23
738.425	11.23
738.449	-2.77
738.473	13.23
738.497	-2.77
738.521	-7.77
738.545	6.23
738.569	29.23
738.593	13.23
738.617	1.23
738.641	-0.77
738.665	6.23
738.689	12.23
738.713	-5.77
738.737	10.23
738.762	12.23
738.786	-9.77
738.81	-7.77
738.834	14.23
738.858	-13.77
738.882	4.23
738.906	-1.77
738.93	11.23
738.954	7.23
738.978	5.23
739.002	-1.77
739.026	12.23
739.05	26.23
739.074	11.23
739.098	35.23
739.122	23.23
739.146	-7.77
739.17	12.23
739.194	9.23
739.218	2.23
739.242	-2.77
739.266	-8.77
739.29	12.23
739.314	4.23
739.338	13.23
739.362	14.23
739.386	12.23
739.41	-2.77
739.434	8.23
739.458	15.23
739.482	10.23
739.506	-0.77
739.53	-3.77
739.554	4.23
739.577	-2.77
739.601	15.23
739.625	-24.77
739.649	-10.77
739.673	16.23
739.697	18.23
739.721	14.23
739.745	11.23
739.769	13.23
739.793	10.23
739.817	16.23
739.841	10.23
739.865	12.23
739.889	-18.77
739.912	19.23
739.936	9.23
739.96	16.23
739.984	13.23
740.008	-15.77
740.032	0.23
740.056	-4.77
740.08	-1.77
740.104	1.23
740.127	-2.77
740.151	25.23
740.175	10.23
740.199	24.23
740.223	38.23
740.247	9.23
740.271	13.23
740.295	5.23
740.318	-13.77
740.342	7.23
740.366	16.23
740.39	7.23
740.414	1.23
740.438	8.23
740.461	24.23
740.485	8.23
740.509	8.23
740.533	5.23
740.557	2.23
740.581	-0.77
740.604	-14.77
740.628	1.23
740.652	10.23
740.676	-6.77
740.7	5.23
740.723	-3.77
740.747	2.23
740.771	0.23
740.795	11.23
740.819	12.23
740.842	8.23
740.866	12.23
740.89	16.23
740.914	1.23
740.938	0.23
740.961	7.23
740.985	21.23
741.009	1.23
741.033	6.23
741.056	9.23
741.08	7.23
741.104	2.23
741.128	15.23
741.151	28.23
741.175	4.23
741.199	9.23
741.223	8.23
741.246	-14.77
741.27	-9.77
741.294	-2.77
741.318	-2.77
741.341	7.23
741.365	9.23
741.389	12.23
741.413	6.23
741.436	10.23
741.46	7.23
741.484	18.23
741.507	0.23
741.531	20.23
741.555	23.23
741.579	16.23
741.602	16.23
741.626	4.23
741.65	-1.77
741.673	9.23
741.697	3.23
741.721	8.23
741.744	-4.77
741.768	-6.77
741.792	13.23
741.815	11.23
741.839	12.23
741.863	21.23
741.886	13.23
741.91	7.23
741.934	14.23
741.957	-0.77
741.981	19.23
742.005	1.23
742.028	-0.77
742.052	-13.77
742.075	5.23
742.099	7.23
742.123	13.23
742.146	1.23
742.17	10.23
742.194	5.23
742.217	1.23
742.241	18.23
742.264	6.23
742.288	35.23
742.312	9.23
742.335	2.23
742.359	9.23
742.382	6.23
742.406	23.23
742.43	3.23
742.453	16.23
742.477	-10.77
742.5	-2.77
742.524	10.23
742.548	15.23
742.571	-11.77
742.595	-0.77
742.618	0.23
742.642	-3.77
742.665	5.23
742.689	-3.77
742.712	0.23
742.736	-20.77
742.76	-0.77
742.783	2.23
742.807	19.23
742.83	16.23
742.854	-1.77
742.877	-6.77
742.901	3.23
742.924	1.23
742.948	-18.77
742.971	5.23
742.995	4.23
743.018	2.23
743.042	-0.77
743.065	-1.77
743.089	0.23
743.112	2.23
743.136	-10.77
743.159	-5.77
743.183	-7.77
743.206	15.23
743.23	-1.77
743.253	2.23
743.277	14.23
743.3	-6.77
743.324	8.23
743.347	-15.77
743.371	16.23
743.394	20.23
743.418	19.23
743.441	9.23
743.465	0.23
743.488	4.23
743.512	-1.77
743.535	1.23
743.558	9.23
743.582	12.23
743.605	-5.77
743.629	5.23
743.652	3.23
743.676	-4.77
743.699	8.23
743.723	7.23
743.746	4.23
743.769	-1.77
743.793	-0.77
743.816	-1.77
743.84	24.23
743.863	-9.77
743.886	-5.77
743.91	1.23
743.933	23.23
743.957	8.23
743.98	5.23
744.003	13.23
744.027	10.23
744.05	-5.77
744.074	-0.77
744.097	-17.77
744.12	2.23
744.144	6.23
744.167	12.23
744.19	8.23
744.214	2.23
744.237	-0.77
744.26	18.23
744.284	-2.77
744.307	-8.77
744.331	2.23
744.354	-5.77
744.377	5.23
744.401	6.23
744.424	8.23
744.447	-7.77
744.471	-7.77
