Data from HighRes_H2D2_15_04_11_07_2024_HR4C61891__62__15-05-40-643.txt Node

Date: Thu Nov 07 15:05:40 EST 2024
User: crc00042
Spectrometer: HR4C6189
Trigger mode: 4
Integration Time (sec): 1.000000E-1
Scans to average: 1
Electric dark correction enabled: true
Nonlinearity correction enabled: false
Boxcar width: 0
XAxis mode: Wavelengths
Number of Pixels in Spectrum: 3648
>>>>>Begin Spectral Data<<<<<
639.567	-74.77
639.602	-74.77
639.636	-74.77
639.67	-47.77
639.704	-3.77
639.738	-2.77
639.773	5.23
639.807	-28.77
639.841	-1.77
639.875	8.23
639.909	-3.77
639.943	-7.77
639.978	9.23
640.012	7.23
640.046	8.23
640.08	7.23
640.114	14.23
640.148	-14.77
640.182	-1.77
640.217	1.23
640.251	11.23
640.285	12.23
640.319	3.23
640.353	-8.77
640.387	3.23
640.421	-3.77
640.455	-0.77
640.49	-1.77
640.524	-7.77
640.558	1.23
640.592	-2.77
640.626	-9.77
640.66	1.23
640.694	-9.77
640.728	13.23
640.762	2.23
640.796	20.23
640.83	19.23
640.865	0.23
640.899	-5.77
640.933	13.23
640.967	3.23
641.001	5.23
641.035	11.23
641.069	-1.77
641.103	-1.77
641.137	14.23
641.171	12.23
641.205	-0.77
641.239	-2.77
641.273	13.23
641.307	0.23
641.341	6.23
641.375	-0.77
641.409	-8.77
641.443	-3.77
641.477	2.23
641.511	1.23
641.545	0.23
641.579	-2.77
641.614	2.23
641.648	2.23
641.682	-3.77
641.716	6.23
641.75	10.23
641.784	0.23
641.818	9.23
641.852	-0.77
641.886	-10.77
641.919	6.23
641.953	3.23
641.987	-6.77
642.021	-2.77
642.055	17.23
642.089	11.23
642.123	-7.77
642.157	-24.77
642.191	-6.77
642.225	7.23
642.259	2.23
642.293	6.23
642.327	4.23
642.361	-6.77
642.395	1.23
642.429	26.23
642.463	15.23
642.497	7.23
642.531	6.23
642.565	-0.77
642.599	8.23
642.633	-12.77
642.666	5.23
642.7	16.23
642.734	15.23
642.768	-4.77
642.802	18.23
642.836	11.23
642.87	-10.77
642.904	3.23
642.938	15.23
642.972	-0.77
643.005	-6.77
643.039	31.23
643.073	-17.77
643.107	4.23
643.141	14.23
643.175	6.23
643.209	3.23
643.243	-5.77
643.276	5.23
643.31	22.23
643.344	-14.77
643.378	1.23
643.412	33.23
643.446	-1.77
643.48	-10.77
643.513	3.23
643.547	9.23
643.581	-12.77
643.615	3.23
643.649	12.23
643.683	-8.77
643.716	6.23
643.75	-7.77
643.784	-10.77
643.818	-8.77
643.852	5.23
643.886	-0.77
643.919	8.23
643.953	16.23
643.987	14.23
644.021	15.23
644.055	10.23
644.088	4.23
644.122	12.23
644.156	1.23
644.19	-5.77
644.224	4.23
644.257	12.23
644.291	19.23
644.325	17.23
644.359	-18.77
644.392	18.23
644.426	20.23
644.46	16.23
644.494	14.23
644.527	-2.77
644.561	-0.77
644.595	4.23
644.629	0.23
644.662	-12.77
644.696	19.23
644.73	0.23
644.764	-4.77
644.797	14.23
644.831	12.23
644.865	9.23
644.899	13.23
644.932	32.23
644.966	9.23
645	5.23
645.033	9.23
645.067	15.23
645.101	4.23
645.135	-4.77
645.168	-12.77
645.202	-5.77
645.236	-10.77
645.269	33.23
645.303	-21.77
645.337	-9.77
645.37	7.23
645.404	2.23
645.438	2.23
645.471	12.23
645.505	14.23
645.539	6.23
645.572	-19.77
645.606	-5.77
645.64	-6.77
645.673	2.23
645.707	18.23
645.741	-8.77
645.774	-16.77
645.808	-0.77
645.842	-5.77
645.875	16.23
645.909	-3.77
645.943	-0.77
645.976	-9.77
646.01	2.23
646.043	11.23
646.077	26.23
646.111	12.23
646.144	12.23
646.178	10.23
646.212	-2.77
646.245	2.23
646.279	8.23
646.312	6.23
646.346	4.23
646.38	7.23
646.413	5.23
646.447	19.23
646.48	1.23
646.514	14.23
646.547	-6.77
646.581	-6.77
646.615	-1.77
646.648	-14.77
646.682	6.23
646.715	-2.77
646.749	3.23
646.782	1.23
646.816	-5.77
646.85	2.23
646.883	-20.77
646.917	3.23
646.95	4.23
646.984	-0.77
647.017	0.23
647.051	9.23
647.084	14.23
647.118	-7.77
647.151	2.23
647.185	-1.77
647.218	-21.77
647.252	5.23
647.285	-5.77
647.319	-1.77
647.353	13.23
647.386	1.23
647.42	-3.77
647.453	-15.77
647.487	-1.77
647.52	0.23
647.553	7.23
647.587	-3.77
647.62	2.23
647.654	-6.77
647.687	6.23
647.721	-0.77
647.754	3.23
647.788	-6.77
647.821	-3.77
647.855	26.23
647.888	7.23
647.922	13.23
647.955	5.23
647.989	8.23
648.022	8.23
648.055	20.23
648.089	14.23
648.122	22.23
648.156	11.23
648.189	-9.77
648.223	15.23
648.256	20.23
648.29	9.23
648.323	8.23
648.356	-1.77
648.39	-8.77
648.423	13.23
648.457	7.23
648.49	-0.77
648.523	10.23
648.557	1.23
648.59	-0.77
648.624	11.23
648.657	5.23
648.69	10.23
648.724	9.23
648.757	3.23
648.791	6.23
648.824	19.23
648.857	22.23
648.891	14.23
648.924	5.23
648.957	17.23
648.991	-3.77
649.024	9.23
649.057	6.23
649.091	2.23
649.124	15.23
649.158	-1.77
649.191	22.23
649.224	6.23
649.258	-1.77
649.291	10.23
649.324	16.23
649.358	12.23
649.391	5.23
649.424	-3.77
649.458	-6.77
649.491	-6.77
649.524	-11.77
649.557	-10.77
649.591	-16.77
649.624	13.23
649.657	-5.77
649.691	9.23
649.724	12.23
649.757	9.23
649.791	1.23
649.824	7.23
649.857	23.23
649.89	12.23
649.924	3.23
649.957	7.23
649.99	-8.77
650.023	-3.77
650.057	1.23
650.09	5.23
650.123	-1.77
650.157	17.23
650.19	7.23
650.223	4.23
650.256	-15.77
650.29	7.23
650.323	11.23
650.356	14.23
650.389	-6.77
650.423	-13.77
650.456	12.23
650.489	2.23
650.522	6.23
650.555	21.23
650.589	9.23
650.622	5.23
650.655	25.23
650.688	9.23
650.721	7.23
650.755	7.23
650.788	18.23
650.821	7.23
650.854	4.23
650.887	9.23
650.921	13.23
650.954	8.23
650.987	2.23
651.02	-0.77
651.053	-11.77
651.087	-13.77
651.12	16.23
651.153	9.23
651.186	-9.77
651.219	0.23
651.252	12.23
651.286	17.23
651.319	0.23
651.352	-8.77
651.385	5.23
651.418	2.23
651.451	16.23
651.484	7.23
651.518	0.23
651.551	25.23
651.584	-8.77
651.617	10.23
651.65	11.23
651.683	18.23
651.716	-1.77
651.749	-7.77
651.783	-2.77
651.816	4.23
651.849	0.23
651.882	-6.77
651.915	-2.77
651.948	5.23
651.981	9.23
652.014	3.23
652.047	-17.77
652.08	2.23
652.114	-3.77
652.147	-4.77
652.18	16.23
652.213	10.23
652.246	11.23
652.279	5.23
652.312	-0.77
652.345	3.23
652.378	16.23
652.411	7.23
652.444	2.23
652.477	2.23
652.51	-3.77
652.543	-4.77
652.576	2.23
652.609	-8.77
652.642	24.23
652.675	9.23
652.709	5.23
652.742	17.23
652.775	6.23
652.808	-1.77
652.841	2.23
652.874	-0.77
652.907	3.23
652.94	8.23
652.973	-1.77
653.006	0.23
653.039	-3.77
653.072	5.23
653.105	3.23
653.138	3.23
653.171	-1.77
653.204	-14.77
653.237	-8.77
653.27	1.23
653.303	15.23
653.336	10.23
653.368	-14.77
653.401	2.23
653.434	6.23
653.467	4.23
653.5	-3.77
653.533	9.23
653.566	8.23
653.599	-2.77
653.632	8.23
653.665	-5.77
653.698	-1.77
653.731	-6.77
653.764	3.23
653.797	11.23
653.83	18.23
653.863	-0.77
653.896	2.23
653.929	-8.77
653.961	-3.77
653.994	-3.77
654.027	-5.77
654.06	-0.77
654.093	11.23
654.126	10.23
654.159	-4.77
654.192	0.23
654.225	-2.77
654.258	-6.77
654.29	7.23
654.323	9.23
654.356	-16.77
654.389	12.23
654.422	2.23
654.455	2.23
654.488	13.23
654.521	-2.77
654.553	-20.77
654.586	8.23
654.619	-3.77
654.652	-10.77
654.685	3.23
654.718	18.23
654.751	-1.77
654.783	-2.77
654.816	17.23
654.849	7.23
654.882	-4.77
654.915	-14.77
654.948	-6.77
654.98	-13.77
655.013	13.23
655.046	-5.77
655.079	-8.77
655.112	13.23
655.144	-8.77
655.177	6.23
655.21	9.23
655.243	2.23
655.276	-0.77
655.308	-12.77
655.341	-0.77
655.374	10.23
655.407	10.23
655.44	14.23
655.472	7.23
655.505	1.23
655.538	-0.77
655.571	10.23
655.603	4.23
655.636	23.23
655.669	26.23
655.702	12.23
655.734	-5.77
655.767	-7.77
655.8	13.23
655.833	14.23
655.865	25.23
655.898	14.23
655.931	14.23
655.964	15.23
655.996	15.23
656.029	30.23
656.062	45.23
656.095	46.23
656.127	87.23
656.16	202.23
656.193	644.23
656.225	940.23
656.258	556.23
656.291	217.23
656.324	170.23
656.356	358.23
656.389	783.23
656.422	689.23
656.454	235.23
656.487	84.23
656.52	35.23
656.552	17.23
656.585	4.23
656.618	25.23
656.65	9.23
656.683	10.23
656.716	22.23
656.748	13.23
656.781	6.23
656.814	-10.77
656.846	8.23
656.879	6.23
656.912	14.23
656.944	-5.77
656.977	-7.77
657.01	-0.77
657.042	7.23
657.075	14.23
657.108	1.23
657.14	14.23
657.173	11.23
657.205	32.23
657.238	12.23
657.271	12.23
657.303	6.23
657.336	10.23
657.369	4.23
657.401	0.23
657.434	0.23
657.466	10.23
657.499	6.23
657.532	10.23
657.564	2.23
657.597	-0.77
657.629	12.23
657.662	8.23
657.694	5.23
657.727	-1.77
657.76	5.23
657.792	0.23
657.825	-3.77
657.857	-3.77
657.89	11.23
657.922	17.23
657.955	-17.77
657.987	-6.77
658.02	-1.77
658.053	19.23
658.085	7.23
658.118	-7.77
658.15	19.23
658.183	19.23
658.215	0.23
658.248	-7.77
658.28	-5.77
658.313	17.23
658.345	4.23
658.378	16.23
658.41	11.23
658.443	20.23
658.475	4.23
658.508	4.23
658.54	-8.77
658.573	3.23
658.605	-1.77
658.638	2.23
658.67	3.23
658.703	13.23
658.735	10.23
658.768	8.23
658.8	-0.77
658.833	6.23
658.865	15.23
658.898	-1.77
658.93	10.23
658.963	12.23
658.995	-1.77
659.028	2.23
659.06	2.23
659.092	1.23
659.125	-5.77
659.157	5.23
659.19	4.23
659.222	-2.77
659.255	-2.77
659.287	-9.77
659.32	-5.77
659.352	8.23
659.384	5.23
659.417	-17.77
659.449	4.23
659.482	10.23
659.514	0.23
659.546	-2.77
659.579	-7.77
659.611	10.23
659.644	7.23
659.676	-3.77
659.708	-6.77
659.741	-16.77
659.773	1.23
659.806	12.23
659.838	1.23
659.87	6.23
659.903	-8.77
659.935	11.23
659.967	21.23
660	-5.77
660.032	-19.77
660.065	5.23
660.097	7.23
660.129	-1.77
660.162	-12.77
660.194	3.23
660.226	21.23
660.259	13.23
660.291	6.23
660.323	7.23
660.356	14.23
660.388	2.23
660.42	-1.77
660.453	0.23
660.485	-8.77
660.517	-9.77
660.55	18.23
660.582	-4.77
660.614	-0.77
660.647	2.23
660.679	-7.77
660.711	8.23
660.743	7.23
660.776	1.23
660.808	3.23
660.84	-1.77
660.873	12.23
660.905	11.23
660.937	7.23
660.969	12.23
661.002	-1.77
661.034	-3.77
661.066	-8.77
661.099	10.23
661.131	15.23
661.163	-6.77
661.195	-2.77
661.228	15.23
661.26	-7.77
661.292	-0.77
661.324	-5.77
661.357	10.23
661.389	14.23
661.421	-4.77
661.453	-6.77
661.485	-1.77
661.518	16.23
661.55	-9.77
661.582	-14.77
661.614	-12.77
661.647	0.23
661.679	2.23
661.711	12.23
661.743	4.23
661.775	11.23
661.808	22.23
661.84	-2.77
661.872	-12.77
661.904	-3.77
661.936	6.23
661.969	3.23
662.001	6.23
662.033	-4.77
662.065	-9.77
662.097	11.23
662.129	14.23
662.162	-9.77
662.194	15.23
662.226	16.23
662.258	7.23
662.29	-1.77
662.322	-15.77
662.355	-9.77
662.387	11.23
662.419	10.23
662.451	28.23
662.483	18.23
662.515	1.23
662.547	-1.77
662.58	-25.77
662.612	-19.77
662.644	-10.77
662.676	6.23
662.708	14.23
662.74	-2.77
662.772	-3.77
662.804	25.23
662.836	15.23
662.869	-1.77
662.901	26.23
662.933	0.23
662.965	4.23
662.997	8.23
663.029	3.23
663.061	6.23
663.093	-3.77
663.125	3.23
663.157	-5.77
663.189	-0.77
663.221	4.23
663.254	-6.77
663.286	0.23
663.318	2.23
663.35	-9.77
663.382	14.23
663.414	9.23
663.446	4.23
663.478	-9.77
663.51	23.23
663.542	4.23
663.574	-5.77
663.606	10.23
663.638	-1.77
663.67	-13.77
663.702	-2.77
663.734	1.23
663.766	3.23
663.798	4.23
663.83	-5.77
663.862	2.23
663.894	19.23
663.926	5.23
663.958	17.23
663.99	2.23
664.022	9.23
664.054	15.23
664.086	3.23
664.118	-5.77
664.15	-13.77
664.182	11.23
664.214	8.23
664.246	24.23
664.278	6.23
664.31	20.23
664.342	6.23
664.374	4.23
664.406	-7.77
664.438	3.23
664.47	14.23
664.502	2.23
664.534	0.23
664.566	-7.77
664.598	7.23
664.63	-0.77
664.662	-0.77
664.693	-3.77
664.725	-8.77
664.757	4.23
664.789	-0.77
664.821	21.23
664.853	17.23
664.885	14.23
664.917	3.23
664.949	13.23
664.981	20.23
665.013	15.23
665.045	7.23
665.076	4.23
665.108	6.23
665.14	1.23
665.172	9.23
665.204	-9.77
665.236	-4.77
665.268	8.23
665.3	-6.77
665.331	-8.77
665.363	8.23
665.395	-0.77
665.427	7.23
665.459	9.23
665.491	-0.77
665.523	2.23
665.555	2.23
665.586	1.23
665.618	0.23
665.65	-5.77
665.682	5.23
665.714	11.23
665.746	2.23
665.777	3.23
665.809	2.23
665.841	-2.77
665.873	-9.77
665.905	3.23
665.937	6.23
665.968	0.23
666	7.23
666.032	-2.77
666.064	-7.77
666.096	2.23
666.127	8.23
666.159	9.23
666.191	6.23
666.223	12.23
666.255	22.23
666.286	21.23
666.318	-0.77
666.35	20.23
666.382	11.23
666.413	-4.77
666.445	-4.77
666.477	-2.77
666.509	6.23
666.54	-0.77
666.572	4.23
666.604	-6.77
666.636	17.23
666.667	18.23
666.699	9.23
666.731	2.23
666.763	-12.77
666.794	-7.77
666.826	-4.77
666.858	-6.77
666.89	13.23
666.921	2.23
666.953	-7.77
666.985	16.23
667.017	29.23
667.048	8.23
667.08	-2.77
667.112	-19.77
667.143	-1.77
667.175	5.23
667.207	-1.77
667.238	6.23
667.27	10.23
667.302	1.23
667.334	-1.77
667.365	9.23
667.397	9.23
667.429	-2.77
667.46	18.23
667.492	11.23
667.524	3.23
667.555	8.23
667.587	-1.77
667.619	-4.77
667.65	-15.77
667.682	2.23
667.714	17.23
667.745	6.23
667.777	-0.77
667.808	8.23
667.84	15.23
667.872	8.23
667.903	18.23
667.935	14.23
667.967	16.23
667.998	16.23
668.03	5.23
668.061	16.23
668.093	10.23
668.125	12.23
668.156	14.23
668.188	-11.77
668.22	-23.77
668.251	-4.77
668.283	5.23
668.314	11.23
668.346	-10.77
668.377	-16.77
668.409	-1.77
668.441	9.23
668.472	11.23
668.504	15.23
668.535	11.23
668.567	26.23
668.599	6.23
668.63	0.23
668.662	10.23
668.693	21.23
668.725	-6.77
668.756	17.23
668.788	-4.77
668.819	-3.77
668.851	-3.77
668.882	9.23
668.914	7.23
668.946	1.23
668.977	-0.77
669.009	3.23
669.04	-9.77
669.072	11.23
669.103	20.23
669.135	-0.77
669.166	-3.77
669.198	8.23
669.229	5.23
669.261	6.23
669.292	-6.77
669.324	14.23
669.355	2.23
669.387	-9.77
669.418	12.23
669.45	2.23
669.481	11.23
669.513	12.23
669.544	8.23
669.576	2.23
669.607	10.23
669.639	7.23
669.67	-0.77
669.701	4.23
669.733	-12.77
669.764	6.23
669.796	-2.77
669.827	-8.77
669.859	-9.77
669.89	-2.77
669.922	6.23
669.953	9.23
669.985	10.23
670.016	13.23
670.047	5.23
670.079	16.23
670.11	-4.77
670.142	-0.77
670.173	6.23
670.204	-1.77
670.236	-12.77
670.267	-5.77
670.299	-5.77
670.33	0.23
670.362	7.23
670.393	-6.77
670.424	3.23
670.456	-25.77
670.487	-5.77
670.518	10.23
670.55	-6.77
670.581	-14.77
670.613	7.23
670.644	-17.77
670.675	-6.77
670.707	-1.77
670.738	3.23
670.769	1.23
670.801	-15.77
670.832	-3.77
670.864	-1.77
670.895	26.23
670.926	-2.77
670.958	-6.77
670.989	1.23
671.02	2.23
671.052	3.23
671.083	3.23
671.114	-8.77
671.146	-1.77
671.177	11.23
671.208	2.23
671.24	-13.77
671.271	4.23
671.302	5.23
671.333	-0.77
671.365	1.23
671.396	3.23
671.427	16.23
671.459	9.23
671.49	8.23
671.521	14.23
671.553	-0.77
671.584	12.23
671.615	-0.77
671.646	16.23
671.678	7.23
671.709	-13.77
671.74	-25.77
671.771	-19.77
671.803	4.23
671.834	9.23
671.865	5.23
671.896	2.23
671.928	5.23
671.959	2.23
671.99	-13.77
672.021	2.23
672.053	-5.77
672.084	16.23
672.115	-4.77
672.146	6.23
672.178	7.23
672.209	-10.77
672.24	-9.77
672.271	32.23
672.303	10.23
672.334	-1.77
672.365	-1.77
672.396	10.23
672.427	7.23
672.459	14.23
672.49	15.23
672.521	-4.77
672.552	21.23
672.583	-0.77
672.615	4.23
672.646	8.23
672.677	-2.77
672.708	2.23
672.739	-0.77
672.77	6.23
672.802	-12.77
672.833	-20.77
672.864	-1.77
672.895	-1.77
672.926	21.23
672.957	14.23
672.989	-1.77
673.02	17.23
673.051	-17.77
673.082	8.23
673.113	1.23
673.144	0.23
673.175	9.23
673.206	-6.77
673.238	-6.77
673.269	-2.77
673.3	-5.77
673.331	6.23
673.362	3.23
673.393	11.23
673.424	15.23
673.455	30.23
673.487	0.23
673.518	13.23
673.549	1.23
673.58	-2.77
673.611	8.23
673.642	-10.77
673.673	-4.77
673.704	1.23
673.735	11.23
673.766	-8.77
673.797	-30.77
673.828	0.23
673.86	-5.77
673.891	-24.77
673.922	-10.77
673.953	0.23
673.984	16.23
674.015	-3.77
674.046	18.23
674.077	11.23
674.108	-5.77
674.139	-16.77
674.17	1.23
674.201	-5.77
674.232	12.23
674.263	-0.77
674.294	-1.77
674.325	-0.77
674.356	3.23
674.387	14.23
674.418	13.23
674.449	-8.77
674.48	-5.77
674.511	9.23
674.542	-6.77
674.573	-4.77
674.604	13.23
674.635	16.23
674.666	14.23
674.697	8.23
674.728	-0.77
674.759	-10.77
674.79	-2.77
674.821	-6.77
674.852	0.23
674.883	6.23
674.914	8.23
674.945	4.23
674.976	0.23
675.007	-4.77
675.038	-3.77
675.069	-9.77
675.1	-1.77
675.131	11.23
675.162	0.23
675.193	3.23
675.224	5.23
675.254	0.23
675.285	14.23
675.316	23.23
675.347	2.23
675.378	-21.77
675.409	0.23
675.44	0.23
675.471	7.23
675.502	3.23
675.533	-22.77
675.564	0.23
675.595	5.23
675.625	31.23
675.656	-3.77
675.687	-5.77
675.718	-2.77
675.749	0.23
675.78	10.23
675.811	-6.77
675.842	7.23
675.873	9.23
675.903	-6.77
675.934	-14.77
675.965	0.23
675.996	-7.77
676.027	3.23
676.058	0.23
676.089	-12.77
676.119	-5.77
676.15	-0.77
676.181	9.23
676.212	6.23
676.243	10.23
676.274	0.23
676.304	22.23
676.335	-13.77
676.366	1.23
676.397	5.23
676.428	28.23
676.459	4.23
676.489	4.23
676.52	5.23
676.551	6.23
676.582	1.23
676.613	5.23
676.643	-9.77
676.674	5.23
676.705	10.23
676.736	19.23
676.767	10.23
676.797	10.23
676.828	17.23
676.859	17.23
676.89	6.23
676.92	8.23
676.951	1.23
676.982	-3.77
677.013	3.23
677.044	22.23
677.074	5.23
677.105	-14.77
677.136	10.23
677.167	-6.77
677.197	14.23
677.228	-0.77
677.259	5.23
677.289	2.23
677.32	-13.77
677.351	-5.77
677.382	-17.77
677.412	4.23
677.443	11.23
677.474	-10.77
677.505	-4.77
677.535	6.23
677.566	-17.77
677.597	-18.77
677.627	-9.77
677.658	12.23
677.689	28.23
677.72	21.23
677.75	-7.77
677.781	20.23
677.812	12.23
677.842	-0.77
677.873	1.23
677.904	-1.77
677.934	-13.77
677.965	4.23
677.996	-5.77
678.026	6.23
678.057	1.23
678.088	0.23
678.118	4.23
678.149	-4.77
678.18	5.23
678.21	-6.77
678.241	-0.77
678.272	-11.77
678.302	14.23
678.333	8.23
678.363	4.23
678.394	10.23
678.425	-4.77
678.455	8.23
678.486	13.23
678.517	-8.77
678.547	8.23
678.578	-5.77
678.608	-14.77
678.639	18.23
678.67	8.23
678.7	2.23
678.731	-2.77
678.761	6.23
678.792	19.23
678.823	18.23
678.853	-2.77
678.884	-11.77
678.914	1.23
678.945	5.23
678.975	-12.77
679.006	8.23
679.037	10.23
679.067	28.23
679.098	-6.77
679.128	-6.77
679.159	-9.77
679.189	18.23
679.22	-0.77
679.25	13.23
679.281	-2.77
679.312	-13.77
679.342	-9.77
679.373	26.23
679.403	-5.77
679.434	3.23
679.464	-8.77
679.495	0.23
679.525	-5.77
679.556	1.23
679.586	9.23
679.617	10.23
679.647	-0.77
679.678	3.23
679.708	5.23
679.739	9.23
679.769	8.23
679.8	8.23
679.83	11.23
679.861	12.23
679.891	10.23
679.922	3.23
679.952	6.23
679.983	13.23
680.013	18.23
680.044	13.23
680.074	10.23
680.105	6.23
680.135	8.23
680.165	6.23
680.196	15.23
680.226	-1.77
680.257	2.23
680.287	-9.77
680.318	7.23
680.348	-18.77
680.379	5.23
680.409	8.23
680.439	-6.77
680.47	-4.77
680.5	12.23
680.531	24.23
680.561	19.23
680.592	27.23
680.622	32.23
680.652	-4.77
680.683	20.23
680.713	4.23
680.744	-8.77
680.774	-5.77
680.804	15.23
680.835	7.23
680.865	0.23
680.896	4.23
680.926	-0.77
680.956	-0.77
680.987	0.23
681.017	-3.77
681.047	12.23
681.078	-16.77
681.108	-0.77
681.139	12.23
681.169	14.23
681.199	6.23
681.23	15.23
681.26	10.23
681.29	18.23
681.321	-2.77
681.351	11.23
681.381	-3.77
681.412	-6.77
681.442	15.23
681.472	18.23
681.503	12.23
681.533	9.23
681.563	2.23
681.594	7.23
681.624	8.23
681.654	7.23
681.685	-2.77
681.715	17.23
681.745	15.23
681.775	-23.77
681.806	10.23
681.836	7.23
681.866	-4.77
681.897	-16.77
681.927	-2.77
681.957	-4.77
681.987	-3.77
682.018	-3.77
682.048	-0.77
682.078	12.23
682.109	32.23
682.139	17.23
682.169	-4.77
682.199	-25.77
682.23	-1.77
682.26	14.23
682.29	-12.77
682.32	-1.77
682.351	3.23
682.381	7.23
682.411	5.23
682.441	1.23
682.472	2.23
682.502	3.23
682.532	-10.77
682.562	9.23
682.592	6.23
682.623	17.23
682.653	-6.77
682.683	2.23
682.713	16.23
682.743	11.23
682.774	8.23
682.804	10.23
682.834	20.23
682.864	-9.77
682.894	3.23
682.925	3.23
682.955	-2.77
682.985	1.23
683.015	14.23
683.045	14.23
683.076	-1.77
683.106	-4.77
683.136	2.23
683.166	4.23
683.196	11.23
683.226	-2.77
683.257	-4.77
683.287	7.23
683.317	-21.77
683.347	11.23
683.377	3.23
683.407	5.23
683.437	6.23
683.468	15.23
683.498	1.23
683.528	-0.77
683.558	-0.77
683.588	5.23
683.618	-14.77
683.648	-7.77
683.678	-5.77
683.708	13.23
683.739	11.23
683.769	1.23
683.799	4.23
683.829	-2.77
683.859	-3.77
683.889	14.23
683.919	-4.77
683.949	7.23
683.979	-8.77
684.009	-2.77
684.039	2.23
684.07	-0.77
684.1	21.23
684.13	8.23
684.16	4.23
684.19	-1.77
684.22	-3.77
684.25	-4.77
684.28	-5.77
684.31	11.23
684.34	27.23
684.37	23.23
684.4	-2.77
684.43	3.23
684.46	17.23
684.49	22.23
684.52	19.23
684.55	10.23
684.58	-4.77
684.61	7.23
684.64	12.23
684.67	10.23
684.7	10.23
684.73	26.23
684.76	1.23
684.79	14.23
684.82	5.23
684.85	-3.77
684.88	11.23
684.91	7.23
684.94	4.23
684.97	-12.77
685	7.23
685.03	6.23
685.06	7.23
685.09	-0.77
685.12	15.23
685.15	5.23
685.18	2.23
685.21	0.23
685.24	14.23
685.27	23.23
685.3	6.23
685.33	16.23
685.36	4.23
685.39	21.23
685.42	1.23
685.45	-11.77
685.48	0.23
685.51	24.23
685.54	21.23
685.569	14.23
685.599	26.23
685.629	9.23
685.659	2.23
685.689	-9.77
685.719	15.23
685.749	-5.77
685.779	4.23
685.809	4.23
685.839	12.23
685.869	15.23
685.898	10.23
685.928	6.23
685.958	11.23
685.988	17.23
686.018	-4.77
686.048	14.23
686.078	24.23
686.108	14.23
686.137	14.23
686.167	16.23
686.197	-20.77
686.227	8.23
686.257	38.23
686.287	20.23
686.317	4.23
686.346	-4.77
686.376	-16.77
686.406	-1.77
686.436	16.23
686.466	1.23
686.496	19.23
686.525	1.23
686.555	-2.77
686.585	16.23
686.615	27.23
686.645	17.23
686.675	4.23
686.704	9.23
686.734	6.23
686.764	-8.77
686.794	10.23
686.824	-9.77
686.853	3.23
686.883	7.23
686.913	6.23
686.943	12.23
686.973	9.23
687.002	-0.77
687.032	3.23
687.062	-5.77
687.092	17.23
687.121	1.23
687.151	7.23
687.181	6.23
687.211	15.23
687.24	13.23
687.27	15.23
687.3	3.23
687.33	1.23
687.359	-24.77
687.389	18.23
687.419	0.23
687.449	1.23
687.478	12.23
687.508	-11.77
687.538	6.23
687.568	6.23
687.597	-6.77
687.627	18.23
687.657	5.23
687.686	11.23
687.716	-1.77
687.746	-5.77
687.776	8.23
687.805	7.23
687.835	3.23
687.865	22.23
687.894	17.23
687.924	7.23
687.954	-2.77
687.983	-2.77
688.013	18.23
688.043	11.23
688.072	13.23
688.102	11.23
688.132	-7.77
688.161	-9.77
688.191	1.23
688.221	22.23
688.25	-3.77
688.28	4.23
688.31	2.23
688.339	-0.77
688.369	-8.77
688.399	5.23
688.428	7.23
688.458	6.23
688.488	-16.77
688.517	-7.77
688.547	-7.77
688.576	30.23
688.606	12.23
688.636	-2.77
688.665	4.23
688.695	1.23
688.725	6.23
688.754	5.23
688.784	2.23
688.813	6.23
688.843	0.23
688.873	-14.77
688.902	-2.77
688.932	3.23
688.961	-8.77
688.991	-3.77
689.02	11.23
689.05	-1.77
689.08	13.23
689.109	11.23
689.139	2.23
689.168	9.23
689.198	-0.77
689.227	-9.77
689.257	13.23
689.287	17.23
689.316	15.23
689.346	10.23
689.375	8.23
689.405	15.23
689.434	2.23
689.464	18.23
689.493	19.23
689.523	1.23
689.552	1.23
689.582	7.23
689.611	0.23
689.641	14.23
689.67	6.23
689.7	5.23
689.73	17.23
689.759	11.23
689.789	7.23
689.818	-9.77
689.848	1.23
689.877	18.23
689.906	-0.77
689.936	-9.77
689.965	-5.77
689.995	2.23
690.024	10.23
690.054	15.23
690.083	15.23
690.113	10.23
690.142	5.23
690.172	4.23
690.201	8.23
690.231	-0.77
690.26	-1.77
690.29	-2.77
690.319	28.23
690.348	16.23
690.378	0.23
690.407	13.23
690.437	5.23
690.466	3.23
690.496	7.23
690.525	10.23
690.555	-2.77
690.584	11.23
690.613	13.23
690.643	-4.77
690.672	2.23
690.702	-4.77
690.731	9.23
690.76	1.23
690.79	-6.77
690.819	-0.77
690.849	-0.77
690.878	-4.77
690.907	8.23
690.937	3.23
690.966	6.23
690.996	6.23
691.025	10.23
691.054	17.23
691.084	1.23
691.113	5.23
691.142	13.23
691.172	5.23
691.201	10.23
691.23	-3.77
691.26	13.23
691.289	8.23
691.319	-4.77
691.348	15.23
691.377	17.23
691.407	19.23
691.436	15.23
691.465	16.23
691.495	16.23
691.524	4.23
691.553	-3.77
691.583	3.23
691.612	10.23
691.641	4.23
691.67	-3.77
691.7	4.23
691.729	-6.77
691.758	4.23
691.788	1.23
691.817	4.23
691.846	8.23
691.876	9.23
691.905	14.23
691.934	17.23
691.963	18.23
691.993	6.23
692.022	-8.77
692.051	-0.77
692.081	27.23
692.11	26.23
692.139	14.23
692.168	-4.77
692.198	16.23
692.227	8.23
692.256	10.23
692.285	-1.77
692.315	9.23
692.344	9.23
692.373	17.23
692.402	-17.77
692.432	-2.77
692.461	6.23
692.49	6.23
692.519	-0.77
692.548	14.23
692.578	19.23
692.607	-4.77
692.636	1.23
692.665	9.23
692.694	4.23
692.724	10.23
692.753	-2.77
692.782	8.23
692.811	-8.77
692.84	3.23
692.87	20.23
692.899	6.23
692.928	9.23
692.957	3.23
692.986	0.23
693.016	-1.77
693.045	15.23
693.074	3.23
693.103	4.23
693.132	5.23
693.161	3.23
693.191	2.23
693.22	8.23
693.249	6.23
693.278	-0.77
693.307	4.23
693.336	-8.77
693.365	5.23
693.395	7.23
693.424	3.23
693.453	17.23
693.482	-3.77
693.511	0.23
693.54	15.23
693.569	16.23
693.598	14.23
693.628	4.23
693.657	9.23
693.686	24.23
693.715	34.23
693.744	13.23
693.773	21.23
693.802	11.23
693.831	16.23
693.86	41.23
693.889	4.23
693.919	11.23
693.948	9.23
693.977	7.23
694.006	1.23
694.035	14.23
694.064	-4.77
694.093	1.23
694.122	0.23
694.151	3.23
694.18	19.23
694.209	43.23
694.238	6.23
694.267	24.23
694.296	7.23
694.325	5.23
694.354	20.23
694.383	9.23
694.412	12.23
694.441	-4.77
694.471	9.23
694.5	-5.77
694.529	15.23
694.558	13.23
694.587	16.23
694.616	-4.77
694.645	11.23
694.674	14.23
694.703	19.23
694.732	3.23
694.761	30.23
694.79	26.23
694.819	-10.77
694.848	-7.77
694.877	35.23
694.906	19.23
694.935	12.23
694.963	23.23
694.992	0.23
695.021	9.23
695.05	10.23
695.079	16.23
695.108	7.23
695.137	16.23
695.166	8.23
695.195	3.23
695.224	4.23
695.253	10.23
695.282	18.23
695.311	18.23
695.34	20.23
695.369	17.23
695.398	5.23
695.427	17.23
695.456	20.23
695.485	6.23
695.513	5.23
695.542	11.23
695.571	3.23
695.6	16.23
695.629	13.23
695.658	24.23
695.687	15.23
695.716	6.23
695.745	39.23
695.774	0.23
695.802	7.23
695.831	5.23
695.86	8.23
695.889	3.23
695.918	17.23
695.947	0.23
695.976	5.23
696.005	-0.77
696.033	10.23
696.062	8.23
696.091	-9.77
696.12	6.23
696.149	27.23
696.178	-0.77
696.207	18.23
696.235	-4.77
696.264	6.23
696.293	2.23
696.322	10.23
696.351	15.23
696.38	10.23
696.408	-2.77
696.437	-1.77
696.466	2.23
696.495	6.23
696.524	10.23
696.553	26.23
696.581	28.23
696.61	-0.77
696.639	7.23
696.668	7.23
696.697	-2.77
696.725	10.23
696.754	12.23
696.783	3.23
696.812	1.23
696.84	2.23
696.869	17.23
696.898	7.23
696.927	3.23
696.956	14.23
696.984	0.23
697.013	10.23
697.042	-1.77
697.071	6.23
697.099	18.23
697.128	18.23
697.157	5.23
697.186	7.23
697.214	7.23
697.243	7.23
697.272	12.23
697.301	7.23
697.329	11.23
697.358	3.23
697.387	16.23
697.415	10.23
697.444	0.23
697.473	10.23
697.502	-5.77
697.53	0.23
697.559	7.23
697.588	12.23
697.616	15.23
697.645	0.23
697.674	16.23
697.703	2.23
697.731	5.23
697.76	2.23
697.789	-0.77
697.817	6.23
697.846	30.23
697.875	6.23
697.903	28.23
697.932	23.23
697.961	8.23
697.989	6.23
698.018	12.23
698.047	-3.77
698.075	18.23
698.104	8.23
698.133	2.23
698.161	-2.77
698.19	0.23
698.218	-2.77
698.247	7.23
698.276	20.23
698.304	16.23
698.333	15.23
698.362	8.23
698.39	5.23
698.419	14.23
698.447	-2.77
698.476	-1.77
698.505	7.23
698.533	-2.77
698.562	16.23
698.591	0.23
698.619	-4.77
698.648	8.23
698.676	6.23
698.705	-0.77
698.733	-10.77
698.762	4.23
698.791	22.23
698.819	6.23
698.848	16.23
698.876	18.23
698.905	6.23
698.933	28.23
698.962	15.23
698.991	5.23
699.019	18.23
699.048	1.23
699.076	14.23
699.105	7.23
699.133	2.23
699.162	13.23
699.19	25.23
699.219	3.23
699.248	0.23
699.276	0.23
699.305	-7.77
699.333	11.23
699.362	4.23
699.39	13.23
699.419	-8.77
699.447	9.23
699.476	-2.77
699.504	13.23
699.533	6.23
699.561	5.23
699.59	10.23
699.618	6.23
699.647	13.23
699.675	-0.77
699.704	16.23
699.732	15.23
699.761	-8.77
699.789	6.23
699.818	27.23
699.846	6.23
699.874	5.23
699.903	-4.77
699.931	1.23
699.96	17.23
699.988	7.23
700.017	1.23
700.045	-8.77
700.074	-6.77
700.102	-5.77
700.13	6.23
700.159	8.23
700.187	2.23
700.216	-11.77
700.244	-15.77
700.273	-10.77
700.301	8.23
700.329	4.23
700.358	17.23
700.386	-5.77
700.415	11.23
700.443	6.23
700.472	6.23
700.5	6.23
700.528	15.23
700.557	6.23
700.585	1.23
700.614	-3.77
700.642	3.23
700.67	14.23
700.699	19.23
700.727	8.23
700.755	0.23
700.784	11.23
700.812	9.23
700.841	9.23
700.869	8.23
700.897	6.23
700.926	2.23
700.954	11.23
700.982	6.23
701.011	2.23
701.039	20.23
701.067	2.23
701.096	10.23
701.124	1.23
701.152	2.23
701.181	-2.77
701.209	4.23
701.237	13.23
701.266	-8.77
701.294	-5.77
701.322	2.23
701.351	16.23
701.379	8.23
701.407	7.23
701.435	8.23
701.464	22.23
701.492	18.23
701.52	7.23
701.549	13.23
701.577	-1.77
701.605	-7.77
701.634	11.23
701.662	15.23
701.69	-8.77
701.718	-14.77
701.747	6.23
701.775	9.23
701.803	-1.77
701.831	8.23
701.86	-1.77
701.888	10.23
701.916	0.23
701.944	14.23
701.973	-1.77
702.001	0.23
702.029	7.23
702.057	-2.77
702.086	-14.77
702.114	-9.77
702.142	2.23
702.17	-0.77
702.199	10.23
702.227	8.23
702.255	-9.77
702.283	3.23
702.311	7.23
702.34	-3.77
702.368	0.23
702.396	7.23
702.424	6.23
702.452	5.23
702.481	2.23
702.509	1.23
702.537	13.23
702.565	-5.77
702.593	-6.77
702.621	14.23
702.65	10.23
702.678	-3.77
702.706	23.23
702.734	8.23
702.762	-4.77
702.79	-1.77
702.819	20.23
702.847	5.23
702.875	3.23
702.903	11.23
702.931	7.23
702.959	0.23
702.988	2.23
703.016	-28.77
703.044	-1.77
703.072	-9.77
703.1	-3.77
703.128	-7.77
703.156	-7.77
703.184	-2.77
703.212	19.23
703.241	6.23
703.269	-1.77
703.297	-0.77
703.325	3.23
703.353	-0.77
703.381	5.23
703.409	9.23
703.437	-8.77
703.465	5.23
703.493	-7.77
703.522	5.23
703.55	5.23
703.578	-4.77
703.606	-14.77
703.634	1.23
703.662	-2.77
703.69	13.23
703.718	9.23
703.746	7.23
703.774	-4.77
703.802	22.23
703.83	-2.77
703.858	-10.77
703.886	-8.77
703.914	-2.77
703.942	14.23
703.97	7.23
703.998	4.23
704.027	12.23
704.055	28.23
704.083	15.23
704.111	3.23
704.139	9.23
704.167	3.23
704.195	25.23
704.223	-6.77
704.251	0.23
704.279	10.23
704.307	7.23
704.335	-5.77
704.363	-5.77
704.391	-4.77
704.419	7.23
704.447	-0.77
704.475	5.23
704.503	-6.77
704.531	19.23
704.558	18.23
704.586	6.23
704.614	-2.77
704.642	7.23
704.67	-0.77
704.698	-1.77
704.726	0.23
704.754	-4.77
704.782	0.23
704.81	3.23
704.838	26.23
704.866	12.23
704.894	-14.77
704.922	-3.77
704.95	5.23
704.978	-6.77
705.006	10.23
705.034	32.23
705.061	2.23
705.089	4.23
705.117	0.23
705.145	13.23
705.173	2.23
705.201	3.23
705.229	12.23
705.257	9.23
705.285	11.23
705.313	15.23
705.34	6.23
705.368	8.23
705.396	24.23
705.424	8.23
705.452	1.23
705.48	6.23
705.508	-15.77
705.536	6.23
705.563	-1.77
705.591	7.23
705.619	6.23
705.647	7.23
705.675	7.23
705.703	-2.77
705.731	-6.77
705.758	5.23
705.786	8.23
705.814	22.23
705.842	-2.77
705.87	-0.77
705.898	17.23
705.925	2.23
705.953	3.23
705.981	-20.77
706.009	-4.77
706.037	6.23
706.065	-1.77
706.092	-19.77
706.12	-1.77
706.148	-9.77
706.176	14.23
706.204	10.23
706.231	7.23
706.259	-4.77
706.287	-4.77
706.315	2.23
706.342	5.23
706.37	29.23
706.398	9.23
706.426	-8.77
706.454	-1.77
706.481	11.23
706.509	0.23
706.537	-7.77
706.565	-0.77
706.592	10.23
706.62	8.23
706.648	-1.77
706.676	-10.77
706.703	0.23
706.731	1.23
706.759	1.23
706.787	3.23
706.814	12.23
706.842	6.23
706.87	-9.77
706.897	5.23
706.925	1.23
706.953	12.23
706.981	18.23
707.008	10.23
707.036	3.23
707.064	9.23
707.091	-14.77
707.119	17.23
707.147	16.23
707.174	-0.77
707.202	12.23
707.23	4.23
707.258	11.23
707.285	-5.77
707.313	12.23
707.341	-1.77
707.368	7.23
707.396	9.23
707.424	31.23
707.451	6.23
707.479	3.23
707.507	6.23
707.534	1.23
707.562	-1.77
707.59	-8.77
707.617	-8.77
707.645	-5.77
707.672	9.23
707.7	-4.77
707.728	12.23
707.755	5.23
707.783	1.23
707.811	5.23
707.838	-1.77
707.866	-5.77
707.893	6.23
707.921	7.23
707.949	6.23
707.976	3.23
708.004	17.23
708.031	5.23
708.059	3.23
708.087	12.23
708.114	-0.77
708.142	-5.77
708.169	-9.77
708.197	-8.77
708.225	-12.77
708.252	-14.77
708.28	8.23
708.307	-5.77
708.335	9.23
708.362	2.23
708.39	-17.77
708.418	-9.77
708.445	-7.77
708.473	-5.77
708.5	-2.77
708.528	14.23
708.555	-2.77
708.583	-2.77
708.61	-7.77
708.638	4.23
708.665	3.23
708.693	2.23
708.72	9.23
708.748	13.23
708.776	3.23
708.803	29.23
708.831	8.23
708.858	9.23
708.886	7.23
708.913	-3.77
708.941	-2.77
708.968	-0.77
708.996	2.23
709.023	10.23
709.051	3.23
709.078	-9.77
709.105	10.23
709.133	-2.77
709.16	3.23
709.188	13.23
709.215	-4.77
709.243	4.23
709.27	2.23
709.298	0.23
709.325	-6.77
709.353	-3.77
709.38	2.23
709.408	3.23
709.435	7.23
709.462	14.23
709.49	6.23
709.517	0.23
709.545	-4.77
709.572	7.23
709.6	6.23
709.627	7.23
709.655	-1.77
709.682	2.23
709.709	-9.77
709.737	3.23
709.764	9.23
709.792	20.23
709.819	9.23
709.846	1.23
709.874	9.23
709.901	2.23
709.929	10.23
709.956	9.23
709.983	-8.77
710.011	0.23
710.038	-5.77
710.066	8.23
710.093	6.23
710.12	10.23
710.148	-2.77
710.175	-4.77
710.202	-14.77
710.23	14.23
710.257	18.23
710.284	9.23
710.312	-4.77
710.339	8.23
710.366	-5.77
710.394	10.23
710.421	11.23
710.448	-3.77
710.476	-5.77
710.503	5.23
710.53	9.23
710.558	18.23
710.585	7.23
710.612	-14.77
710.64	-6.77
710.667	-10.77
710.694	-16.77
710.722	19.23
710.749	9.23
710.776	5.23
710.804	20.23
710.831	7.23
710.858	4.23
710.885	4.23
710.913	9.23
710.94	25.23
710.967	6.23
710.995	22.23
711.022	2.23
711.049	11.23
711.076	-0.77
711.104	5.23
711.131	-10.77
711.158	10.23
711.185	13.23
711.213	4.23
711.24	-4.77
711.267	-8.77
711.294	0.23
711.322	17.23
711.349	0.23
711.376	-5.77
711.403	-4.77
711.431	-1.77
711.458	-5.77
711.485	-13.77
711.512	8.23
711.54	12.23
711.567	6.23
711.594	-6.77
711.621	-10.77
711.648	5.23
711.676	24.23
711.703	7.23
711.73	-1.77
711.757	2.23
711.784	7.23
711.812	9.23
711.839	7.23
711.866	-17.77
711.893	-1.77
711.92	1.23
711.947	14.23
711.975	8.23
712.002	-3.77
712.029	7.23
712.056	-4.77
712.083	1.23
712.11	-17.77
712.138	7.23
712.165	8.23
712.192	-0.77
712.219	0.23
712.246	15.23
712.273	10.23
712.3	6.23
712.328	9.23
712.355	16.23
712.382	2.23
712.409	3.23
712.436	-14.77
712.463	-7.77
712.49	14.23
712.517	9.23
712.544	2.23
712.572	5.23
712.599	4.23
712.626	15.23
712.653	5.23
712.68	-1.77
712.707	17.23
712.734	14.23
712.761	-0.77
712.788	3.23
712.815	5.23
712.842	11.23
712.87	0.23
712.897	5.23
712.924	-10.77
712.951	-6.77
712.978	10.23
713.005	15.23
713.032	11.23
713.059	-4.77
713.086	-10.77
713.113	-3.77
713.14	-12.77
713.167	6.23
713.194	31.23
713.221	6.23
713.248	17.23
713.275	2.23
713.302	-10.77
713.329	-23.77
713.356	16.23
713.383	3.23
713.41	-4.77
713.437	-1.77
713.464	10.23
713.491	23.23
713.518	10.23
713.545	-0.77
713.572	3.23
713.599	9.23
713.626	-0.77
713.653	-0.77
713.68	-14.77
713.707	8.23
713.734	17.23
713.761	-3.77
713.788	-6.77
713.815	3.23
713.842	-0.77
713.869	6.23
713.896	12.23
713.923	2.23
713.95	-1.77
713.977	-4.77
714.004	-9.77
714.031	11.23
714.058	-9.77
714.085	9.23
714.112	11.23
714.139	-7.77
714.165	-13.77
714.192	-1.77
714.219	11.23
714.246	9.23
714.273	5.23
714.3	21.23
714.327	8.23
714.354	12.23
714.381	-0.77
714.408	1.23
714.435	-1.77
714.461	5.23
714.488	22.23
714.515	7.23
714.542	-10.77
714.569	-4.77
714.596	-13.77
714.623	9.23
714.65	5.23
714.677	16.23
714.703	10.23
714.73	13.23
714.757	1.23
714.784	17.23
714.811	5.23
714.838	10.23
714.865	6.23
714.891	19.23
714.918	2.23
714.945	1.23
714.972	-2.77
714.999	15.23
715.026	-16.77
715.052	10.23
715.079	1.23
715.106	-2.77
715.133	-4.77
715.16	-5.77
715.187	-2.77
715.213	16.23
715.24	6.23
715.267	-0.77
715.294	1.23
715.321	6.23
715.347	3.23
715.374	-2.77
715.401	9.23
715.428	1.23
715.455	12.23
715.481	-13.77
715.508	5.23
715.535	-4.77
715.562	39.23
715.588	10.23
715.615	4.23
715.642	3.23
715.669	5.23
715.695	1.23
715.722	8.23
715.749	5.23
715.776	19.23
715.802	3.23
715.829	7.23
715.856	-6.77
715.883	8.23
715.909	-6.77
715.936	-0.77
715.963	-2.77
715.99	-19.77
716.016	9.23
716.043	-8.77
716.07	2.23
716.096	-12.77
716.123	-3.77
716.15	6.23
716.177	22.23
716.203	12.23
716.23	13.23
716.257	18.23
716.283	20.23
716.31	3.23
716.337	2.23
716.363	13.23
716.39	7.23
716.417	18.23
716.443	3.23
716.47	9.23
716.497	25.23
716.523	26.23
716.55	3.23
716.577	22.23
716.603	10.23
716.63	14.23
716.657	7.23
716.683	2.23
716.71	-1.77
716.737	-9.77
716.763	23.23
716.79	20.23
716.817	21.23
716.843	12.23
716.87	5.23
716.897	6.23
716.923	18.23
716.95	-13.77
716.976	5.23
717.003	5.23
717.03	11.23
717.056	2.23
717.083	7.23
717.109	-1.77
717.136	8.23
717.163	-2.77
717.189	13.23
717.216	-3.77
717.242	-6.77
717.269	1.23
717.296	8.23
717.322	9.23
717.349	20.23
717.375	12.23
717.402	8.23
717.428	2.23
717.455	6.23
717.481	1.23
717.508	14.23
717.535	4.23
717.561	7.23
717.588	5.23
717.614	3.23
717.641	12.23
717.667	3.23
717.694	20.23
717.72	17.23
717.747	1.23
717.773	-12.77
717.8	0.23
717.826	2.23
717.853	6.23
717.88	5.23
717.906	2.23
717.933	2.23
717.959	7.23
717.986	8.23
718.012	2.23
718.039	3.23
718.065	9.23
718.092	13.23
718.118	5.23
718.144	-4.77
718.171	8.23
718.197	13.23
718.224	9.23
718.25	4.23
718.277	-2.77
718.303	3.23
718.33	4.23
718.356	0.23
718.383	-10.77
718.409	20.23
718.436	14.23
718.462	10.23
718.489	1.23
718.515	15.23
718.541	13.23
718.568	20.23
718.594	24.23
718.621	5.23
718.647	8.23
718.674	6.23
718.7	11.23
718.726	0.23
718.753	14.23
718.779	-0.77
718.806	-7.77
718.832	10.23
718.858	4.23
718.885	3.23
718.911	10.23
718.938	25.23
718.964	-10.77
718.99	-0.77
719.017	-4.77
719.043	8.23
719.07	7.23
719.096	-6.77
719.122	14.23
719.149	6.23
719.175	-0.77
719.201	3.23
719.228	-15.77
719.254	2.23
719.281	-15.77
719.307	-2.77
719.333	-13.77
719.36	1.23
719.386	1.23
719.412	2.23
719.439	-17.77
719.465	13.23
719.491	-1.77
719.518	9.23
719.544	9.23
719.57	15.23
719.597	15.23
719.623	-13.77
719.649	-5.77
719.675	8.23
719.702	9.23
719.728	0.23
719.754	-1.77
719.781	4.23
719.807	-4.77
719.833	-5.77
719.86	0.23
719.886	3.23
719.912	7.23
719.938	7.23
719.965	-0.77
719.991	3.23
720.017	-14.77
720.044	-2.77
720.07	9.23
720.096	6.23
720.122	-4.77
720.149	8.23
720.175	11.23
720.201	3.23
720.227	6.23
720.254	0.23
720.28	3.23
720.306	10.23
720.332	-0.77
720.359	3.23
720.385	14.23
720.411	7.23
720.437	15.23
720.463	0.23
720.49	-4.77
720.516	0.23
720.542	-17.77
720.568	-14.77
720.595	10.23
720.621	0.23
720.647	9.23
720.673	14.23
720.699	1.23
720.725	13.23
720.752	6.23
720.778	18.23
720.804	8.23
720.83	22.23
720.856	1.23
720.883	7.23
720.909	2.23
720.935	2.23
720.961	16.23
720.987	10.23
721.013	6.23
721.04	-0.77
721.066	-0.77
721.092	12.23
721.118	0.23
721.144	12.23
721.17	28.23
721.196	-1.77
721.223	-2.77
721.249	3.23
721.275	19.23
721.301	0.23
721.327	14.23
721.353	19.23
721.379	7.23
721.405	11.23
721.432	9.23
721.458	7.23
721.484	6.23
721.51	-8.77
721.536	2.23
721.562	5.23
721.588	22.23
721.614	15.23
721.64	6.23
721.666	13.23
721.693	-11.77
721.719	-9.77
721.745	7.23
721.771	1.23
721.797	6.23
721.823	6.23
721.849	6.23
721.875	23.23
721.901	6.23
721.927	-1.77
721.953	1.23
721.979	11.23
722.005	-3.77
722.031	4.23
722.057	15.23
722.083	1.23
722.109	0.23
722.135	7.23
722.161	18.23
722.187	3.23
722.214	6.23
722.24	13.23
722.266	-3.77
722.292	5.23
722.318	22.23
722.344	10.23
722.37	13.23
722.396	34.23
722.422	5.23
722.448	-0.77
722.474	-6.77
722.5	10.23
722.526	1.23
722.552	2.23
722.578	4.23
722.603	16.23
722.629	-1.77
722.655	7.23
722.681	-1.77
722.707	7.23
722.733	-0.77
722.759	6.23
722.785	7.23
722.811	5.23
722.837	-8.77
722.863	15.23
722.889	17.23
722.915	-5.77
722.941	1.23
722.967	-0.77
722.993	-1.77
723.019	6.23
723.045	10.23
723.071	19.23
723.097	13.23
723.122	1.23
723.148	-1.77
723.174	-3.77
723.2	5.23
723.226	-1.77
723.252	1.23
723.278	-11.77
723.304	6.23
723.33	6.23
723.356	1.23
723.381	-7.77
723.407	-3.77
723.433	2.23
723.459	15.23
723.485	11.23
723.511	-2.77
723.537	-10.77
723.563	-2.77
723.588	14.23
723.614	1.23
723.64	6.23
723.666	2.23
723.692	10.23
723.718	12.23
723.744	13.23
723.769	9.23
723.795	-10.77
723.821	9.23
723.847	10.23
723.873	12.23
723.899	-3.77
723.924	-0.77
723.95	-9.77
723.976	-5.77
724.002	-0.77
724.028	3.23
724.053	4.23
724.079	13.23
724.105	13.23
724.131	18.23
724.157	14.23
724.182	19.23
724.208	11.23
724.234	24.23
724.26	-1.77
724.286	0.23
724.311	12.23
724.337	0.23
724.363	8.23
724.389	11.23
724.415	5.23
724.44	25.23
724.466	2.23
724.492	-0.77
724.518	22.23
724.543	-2.77
724.569	-8.77
724.595	0.23
724.621	0.23
724.646	-1.77
724.672	1.23
724.698	2.23
724.723	16.23
724.749	17.23
724.775	11.23
724.801	5.23
724.826	6.23
724.852	3.23
724.878	-8.77
724.904	1.23
724.929	8.23
724.955	-16.77
724.981	0.23
725.006	1.23
725.032	6.23
725.058	17.23
725.083	-6.77
725.109	-8.77
725.135	4.23
725.161	16.23
725.186	5.23
725.212	7.23
725.238	11.23
725.263	7.23
725.289	-9.77
725.315	-15.77
725.34	0.23
725.366	1.23
725.392	8.23
725.417	16.23
725.443	9.23
725.468	6.23
725.494	12.23
725.52	14.23
725.545	-6.77
725.571	-1.77
725.597	-7.77
725.622	10.23
725.648	5.23
725.674	12.23
725.699	10.23
725.725	7.23
725.75	23.23
725.776	-0.77
725.802	9.23
725.827	8.23
725.853	10.23
725.878	6.23
725.904	5.23
725.93	4.23
725.955	-8.77
725.981	-0.77
726.006	2.23
726.032	14.23
726.057	-0.77
726.083	7.23
726.109	3.23
726.134	9.23
726.16	9.23
726.185	-3.77
726.211	-8.77
726.236	1.23
726.262	-2.77
726.288	4.23
726.313	22.23
726.339	16.23
726.364	7.23
726.39	23.23
726.415	-2.77
726.441	3.23
726.466	-7.77
726.492	13.23
726.517	11.23
726.543	-0.77
726.568	7.23
726.594	5.23
726.619	9.23
726.645	5.23
726.67	-3.77
726.696	-0.77
726.721	6.23
726.747	-5.77
726.772	8.23
726.798	8.23
726.823	21.23
726.849	5.23
726.874	9.23
726.9	14.23
726.925	3.23
726.951	2.23
726.976	20.23
727.002	-0.77
727.027	5.23
727.053	18.23
727.078	-0.77
727.104	20.23
727.129	-14.77
727.155	10.23
727.18	14.23
727.205	6.23
727.231	3.23
727.256	2.23
727.282	-0.77
727.307	13.23
727.333	-6.77
727.358	-15.77
727.383	-6.77
727.409	-5.77
727.434	4.23
727.46	-0.77
727.485	-9.77
727.511	5.23
727.536	-4.77
727.561	-4.77
727.587	2.23
727.612	0.23
727.637	8.23
727.663	17.23
727.688	20.23
727.714	6.23
727.739	10.23
727.764	3.23
727.79	-4.77
727.815	-6.77
727.841	0.23
727.866	5.23
727.891	17.23
727.917	4.23
727.942	-10.77
727.967	2.23
727.993	-4.77
728.018	10.23
728.043	7.23
728.069	5.23
728.094	9.23
728.119	8.23
728.145	7.23
728.17	-2.77
728.195	9.23
728.221	8.23
728.246	-0.77
728.271	-0.77
728.297	2.23
728.322	-3.77
728.347	7.23
728.373	14.23
728.398	20.23
728.423	4.23
728.448	8.23
728.474	6.23
728.499	18.23
728.524	2.23
728.55	-1.77
728.575	13.23
728.6	-0.77
728.625	-8.77
728.651	13.23
728.676	2.23
728.701	-10.77
728.727	-16.77
728.752	-2.77
728.777	9.23
728.802	24.23
728.828	9.23
728.853	-1.77
728.878	-0.77
728.903	-14.77
728.929	-10.77
728.954	1.23
728.979	25.23
729.004	5.23
729.03	16.23
729.055	14.23
729.08	-2.77
729.105	-2.77
729.13	17.23
729.156	6.23
729.181	14.23
729.206	-10.77
729.231	-1.77
729.256	-0.77
729.282	0.23
729.307	-3.77
729.332	-19.77
729.357	0.23
729.382	-1.77
729.408	11.23
729.433	7.23
729.458	1.23
729.483	15.23
729.508	16.23
729.533	-1.77
729.559	9.23
729.584	-6.77
729.609	17.23
729.634	25.23
729.659	-1.77
729.684	8.23
729.71	18.23
729.735	12.23
729.76	4.23
729.785	-0.77
729.81	17.23
729.835	-4.77
729.86	0.23
729.886	16.23
729.911	15.23
729.936	-0.77
729.961	-0.77
729.986	1.23
730.011	12.23
730.036	15.23
730.061	27.23
730.086	17.23
730.112	19.23
730.137	23.23
730.162	0.23
730.187	1.23
730.212	21.23
730.237	1.23
730.262	1.23
730.287	6.23
730.312	23.23
730.337	2.23
730.362	13.23
730.387	11.23
730.413	1.23
730.438	9.23
730.463	-4.77
730.488	-0.77
730.513	15.23
730.538	10.23
730.563	20.23
730.588	4.23
730.613	13.23
730.638	-1.77
730.663	1.23
730.688	9.23
730.713	5.23
730.738	5.23
730.763	5.23
730.788	2.23
730.813	14.23
730.838	-1.77
730.863	-5.77
730.888	-0.77
730.913	1.23
730.938	-6.77
730.963	10.23
730.988	16.23
731.013	27.23
731.038	-4.77
731.063	-10.77
731.088	14.23
731.113	-5.77
731.138	-0.77
731.163	0.23
731.188	-0.77
731.213	7.23
731.238	11.23
731.263	-8.77
731.288	-1.77
731.313	5.23
731.338	4.23
731.363	17.23
731.388	5.23
731.413	8.23
731.438	15.23
731.463	11.23
731.487	-1.77
731.512	-13.77
731.537	-0.77
731.562	3.23
731.587	-3.77
731.612	-14.77
731.637	-9.77
731.662	12.23
731.687	10.23
731.712	-8.77
731.737	5.23
731.762	-3.77
731.786	3.23
731.811	14.23
731.836	-1.77
731.861	1.23
731.886	3.23
731.911	24.23
731.936	8.23
731.961	2.23
731.986	3.23
732.01	13.23
732.035	7.23
732.06	9.23
732.085	10.23
732.11	5.23
732.135	-6.77
732.16	5.23
732.184	7.23
732.209	3.23
732.234	20.23
732.259	5.23
732.284	20.23
732.309	-3.77
732.334	-2.77
732.358	-4.77
732.383	-15.77
732.408	-7.77
732.433	25.23
732.458	20.23
732.482	-5.77
732.507	-2.77
732.532	-4.77
732.557	3.23
732.582	-1.77
732.607	6.23
732.631	-8.77
732.656	-6.77
732.681	-6.77
732.706	2.23
732.73	5.23
732.755	-16.77
732.78	0.23
732.805	13.23
732.83	1.23
732.854	12.23
732.879	20.23
732.904	14.23
732.929	3.23
732.953	20.23
732.978	17.23
733.003	-5.77
733.028	-6.77
733.052	5.23
733.077	3.23
733.102	7.23
733.127	8.23
733.151	7.23
733.176	21.23
733.201	8.23
733.226	-13.77
733.25	2.23
733.275	-3.77
733.3	5.23
733.324	26.23
733.349	27.23
733.374	21.23
733.399	0.23
733.423	12.23
733.448	12.23
733.473	6.23
733.497	-5.77
733.522	-9.77
733.547	15.23
733.571	22.23
733.596	6.23
733.621	2.23
733.646	5.23
733.67	22.23
733.695	1.23
733.72	1.23
733.744	21.23
733.769	9.23
733.794	18.23
733.818	-6.77
733.843	2.23
733.867	-11.77
733.892	-6.77
733.917	2.23
733.941	6.23
733.966	-9.77
733.991	1.23
734.015	2.23
734.04	0.23
734.065	15.23
734.089	12.23
734.114	12.23
734.138	15.23
734.163	1.23
734.188	13.23
734.212	12.23
734.237	5.23
734.261	5.23
734.286	-10.77
734.311	-6.77
734.335	10.23
734.36	2.23
734.384	12.23
734.409	8.23
734.434	-5.77
734.458	-1.77
734.483	16.23
734.507	3.23
734.532	7.23
734.556	17.23
734.581	-2.77
734.606	5.23
734.63	-0.77
734.655	19.23
734.679	9.23
734.704	9.23
734.728	1.23
734.753	-1.77
734.777	-2.77
734.802	-16.77
734.826	0.23
734.851	-0.77
734.876	11.23
734.9	11.23
734.925	12.23
734.949	9.23
734.974	-0.77
734.998	11.23
735.023	-0.77
735.047	-0.77
735.072	28.23
735.096	9.23
735.121	10.23
735.145	2.23
735.17	6.23
735.194	20.23
735.219	3.23
735.243	-9.77
735.268	5.23
735.292	21.23
735.317	1.23
735.341	8.23
735.365	-7.77
735.39	29.23
735.414	0.23
735.439	4.23
735.463	6.23
735.488	7.23
735.512	12.23
735.537	0.23
735.561	13.23
735.586	7.23
735.61	7.23
735.634	-10.77
735.659	2.23
735.683	25.23
735.708	0.23
735.732	3.23
735.757	15.23
735.781	5.23
735.805	5.23
735.83	-9.77
735.854	7.23
735.879	14.23
735.903	17.23
735.927	-5.77
735.952	9.23
735.976	0.23
736.001	2.23
736.025	-0.77
736.049	17.23
736.074	24.23
736.098	6.23
736.123	7.23
736.147	3.23
736.171	1.23
736.196	-2.77
736.22	-2.77
736.244	13.23
736.269	10.23
736.293	-3.77
736.317	3.23
736.342	17.23
736.366	21.23
736.39	14.23
736.415	4.23
736.439	3.23
736.463	9.23
736.488	19.23
736.512	6.23
736.536	2.23
736.561	23.23
736.585	-9.77
736.609	8.23
736.634	-8.77
736.658	5.23
736.682	2.23
736.707	-13.77
736.731	-3.77
736.755	-6.77
736.78	31.23
736.804	21.23
736.828	9.23
736.852	4.23
736.877	13.23
736.901	-4.77
736.925	5.23
736.949	13.23
736.974	-8.77
736.998	-8.77
737.022	9.23
737.047	-9.77
737.071	11.23
737.095	9.23
737.119	30.23
737.144	8.23
737.168	3.23
737.192	1.23
737.216	20.23
737.241	1.23
737.265	11.23
737.289	7.23
737.313	-1.77
737.337	14.23
737.362	5.23
737.386	-9.77
737.41	5.23
737.434	8.23
737.459	3.23
737.483	17.23
737.507	29.23
737.531	19.23
737.555	7.23
737.58	15.23
737.604	7.23
737.628	-3.77
737.652	-2.77
737.676	-7.77
737.701	-12.77
737.725	7.23
737.749	12.23
737.773	-3.77
737.797	12.23
737.821	11.23
737.846	11.23
737.87	30.23
737.894	8.23
737.918	-4.77
737.942	-2.77
737.966	8.23
737.99	2.23
738.015	1.23
738.039	-0.77
738.063	-9.77
738.087	-9.77
738.111	7.23
738.135	7.23
738.159	6.23
738.184	13.23
738.208	5.23
738.232	17.23
738.256	14.23
738.28	0.23
738.304	18.23
738.328	11.23
738.352	18.23
738.376	13.23
738.4	13.23
738.425	17.23
738.449	5.23
738.473	24.23
738.497	11.23
738.521	2.23
738.545	10.23
738.569	8.23
738.593	7.23
738.617	11.23
738.641	0.23
738.665	1.23
738.689	28.23
738.713	2.23
738.737	2.23
738.762	23.23
738.786	-2.77
738.81	-15.77
738.834	-7.77
738.858	7.23
738.882	21.23
738.906	3.23
738.93	3.23
738.954	5.23
738.978	22.23
739.002	7.23
739.026	16.23
739.05	10.23
739.074	9.23
739.098	27.23
739.122	11.23
739.146	10.23
739.17	21.23
739.194	22.23
739.218	15.23
739.242	-3.77
739.266	-8.77
739.29	10.23
739.314	2.23
739.338	4.23
739.362	10.23
739.386	5.23
739.41	-4.77
739.434	-5.77
739.458	22.23
739.482	1.23
739.506	20.23
739.53	3.23
739.554	-0.77
739.577	-8.77
739.601	14.23
739.625	6.23
739.649	13.23
739.673	3.23
739.697	23.23
739.721	8.23
739.745	12.23
739.769	17.23
739.793	3.23
739.817	10.23
739.841	10.23
739.865	5.23
739.889	-12.77
739.912	8.23
739.936	17.23
739.96	-0.77
739.984	19.23
740.008	5.23
740.032	-1.77
740.056	9.23
740.08	10.23
740.104	1.23
740.127	7.23
740.151	2.23
740.175	2.23
740.199	16.23
740.223	59.23
740.247	18.23
740.271	7.23
740.295	14.23
740.318	-5.77
740.342	19.23
740.366	24.23
740.39	8.23
740.414	-2.77
740.438	-3.77
740.461	11.23
740.485	13.23
740.509	1.23
740.533	13.23
740.557	-2.77
740.581	10.23
740.604	1.23
740.628	-7.77
740.652	16.23
740.676	-2.77
740.7	24.23
740.723	-5.77
740.747	-15.77
740.771	-6.77
740.795	5.23
740.819	27.23
740.842	2.23
740.866	9.23
740.89	7.23
740.914	9.23
740.938	-5.77
740.961	19.23
740.985	-4.77
741.009	-1.77
741.033	10.23
741.056	13.23
741.08	12.23
741.104	5.23
741.128	-4.77
741.151	14.23
741.175	-14.77
741.199	5.23
741.223	-1.77
741.246	5.23
741.27	1.23
741.294	0.23
741.318	2.23
741.341	-0.77
741.365	7.23
741.389	0.23
741.413	18.23
741.436	29.23
741.46	16.23
741.484	8.23
741.507	2.23
741.531	16.23
741.555	18.23
741.579	7.23
741.602	6.23
741.626	24.23
741.65	5.23
741.673	-0.77
741.697	17.23
741.721	-3.77
741.744	-5.77
741.768	1.23
741.792	-2.77
741.815	2.23
741.839	16.23
741.863	12.23
741.886	19.23
741.91	7.23
741.934	8.23
741.957	-9.77
741.981	5.23
742.005	2.23
742.028	-7.77
742.052	7.23
742.075	14.23
742.099	20.23
742.123	3.23
742.146	4.23
742.17	-1.77
742.194	2.23
742.217	-8.77
742.241	-8.77
742.264	-2.77
742.288	9.23
742.312	12.23
742.335	11.23
742.359	8.23
742.382	11.23
742.406	13.23
742.43	-1.77
742.453	22.23
742.477	2.23
742.5	3.23
742.524	-4.77
742.548	-8.77
742.571	3.23
742.595	6.23
742.618	2.23
742.642	-6.77
742.665	-2.77
742.689	-0.77
742.712	7.23
742.736	-1.77
742.76	17.23
742.783	6.23
742.807	12.23
742.83	7.23
742.854	-9.77
742.877	13.23
742.901	0.23
742.924	2.23
742.948	12.23
742.971	8.23
742.995	-5.77
743.018	-5.77
743.042	1.23
743.065	7.23
743.089	-2.77
743.112	12.23
743.136	5.23
743.159	-6.77
743.183	-6.77
743.206	6.23
743.23	1.23
743.253	5.23
743.277	26.23
743.3	2.23
743.324	2.23
743.347	3.23
743.371	21.23
743.394	6.23
743.418	23.23
743.441	6.23
743.465	19.23
743.488	10.23
743.512	2.23
743.535	-2.77
743.558	-6.77
743.582	-1.77
743.605	10.23
743.629	25.23
743.652	5.23
743.676	0.23
743.699	15.23
743.723	7.23
743.746	1.23
743.769	-0.77
743.793	-7.77
743.816	10.23
743.84	10.23
743.863	8.23
743.886	21.23
743.91	11.23
743.933	-5.77
743.957	15.23
743.98	9.23
744.003	6.23
744.027	-2.77
744.05	2.23
744.074	0.23
744.097	-17.77
744.12	-7.77
744.144	-13.77
744.167	11.23
744.19	9.23
744.214	4.23
744.237	3.23
744.26	20.23
744.284	-6.77
744.307	-1.77
744.331	-4.77
744.354	-2.77
744.377	-7.77
744.401	5.23
744.424	-5.77
744.447	-19.77
744.471	-7.77
