Data from HighRes_H2D2_15_04_11_07_2024_HR4C61891__14__15-05-35-843.txt Node

Date: Thu Nov 07 15:05:35 EST 2024
User: crc00042
Spectrometer: HR4C6189
Trigger mode: 4
Integration Time (sec): 1.000000E-1
Scans to average: 1
Electric dark correction enabled: true
Nonlinearity correction enabled: false
Boxcar width: 0
XAxis mode: Wavelengths
Number of Pixels in Spectrum: 3648
>>>>>Begin Spectral Data<<<<<
639.567	-93.77
639.602	-93.77
639.636	-93.77
639.67	-49.77
639.704	-29.77
639.738	-0.77
639.773	3.23
639.807	-17.77
639.841	-0.77
639.875	6.23
639.909	-4.77
639.943	-0.77
639.978	-9.77
640.012	11.23
640.046	8.23
640.08	1.23
640.114	-2.77
640.148	7.23
640.182	-3.77
640.217	-5.77
640.251	8.23
640.285	-4.77
640.319	-2.77
640.353	3.23
640.387	6.23
640.421	-0.77
640.455	-1.77
640.49	-0.77
640.524	-2.77
640.558	2.23
640.592	-4.77
640.626	-20.77
640.66	7.23
640.694	-4.77
640.728	-20.77
640.762	13.23
640.796	17.23
640.83	8.23
640.865	-4.77
640.899	0.23
640.933	-4.77
640.967	-17.77
641.001	-5.77
641.035	-9.77
641.069	-8.77
641.103	-32.77
641.137	-2.77
641.171	-20.77
641.205	-2.77
641.239	-3.77
641.273	5.23
641.307	-10.77
641.341	4.23
641.375	-3.77
641.409	-18.77
641.443	-5.77
641.477	4.23
641.511	2.23
641.545	3.23
641.579	7.23
641.614	7.23
641.648	3.23
641.682	-16.77
641.716	-4.77
641.75	3.23
641.784	-10.77
641.818	4.23
641.852	4.23
641.886	-14.77
641.919	22.23
641.953	-0.77
641.987	-0.77
642.021	-10.77
642.055	-6.77
642.089	-0.77
642.123	3.23
642.157	-10.77
642.191	-19.77
642.225	-8.77
642.259	-20.77
642.293	3.23
642.327	-3.77
642.361	-3.77
642.395	8.23
642.429	-1.77
642.463	-6.77
642.497	5.23
642.531	6.23
642.565	4.23
642.599	12.23
642.633	-0.77
642.666	-6.77
642.7	19.23
642.734	14.23
642.768	-20.77
642.802	-12.77
642.836	-2.77
642.87	-3.77
642.904	-9.77
642.938	2.23
642.972	-10.77
643.005	7.23
643.039	-7.77
643.073	4.23
643.107	1.23
643.141	-2.77
643.175	-0.77
643.209	-2.77
643.243	-3.77
643.276	7.23
643.31	-8.77
643.344	-8.77
643.378	-12.77
643.412	-1.77
643.446	-0.77
643.48	-5.77
643.513	8.23
643.547	3.23
643.581	-14.77
643.615	1.23
643.649	-6.77
643.683	-0.77
643.716	-5.77
643.75	14.23
643.784	-4.77
643.818	-9.77
643.852	-3.77
643.886	-6.77
643.919	11.23
643.953	8.23
643.987	2.23
644.021	4.23
644.055	3.23
644.088	-7.77
644.122	-7.77
644.156	-7.77
644.19	9.23
644.224	7.23
644.257	14.23
644.291	12.23
644.325	11.23
644.359	-12.77
644.392	7.23
644.426	10.23
644.46	-13.77
644.494	-4.77
644.527	-8.77
644.561	5.23
644.595	0.23
644.629	13.23
644.662	-15.77
644.696	11.23
644.73	4.23
644.764	-9.77
644.797	-20.77
644.831	-13.77
644.865	8.23
644.899	4.23
644.932	17.23
644.966	-2.77
645	15.23
645.033	2.23
645.067	-4.77
645.101	2.23
645.135	-7.77
645.168	-10.77
645.202	-1.77
645.236	4.23
645.269	0.23
645.303	-10.77
645.337	-7.77
645.37	3.23
645.404	1.23
645.438	-1.77
645.471	5.23
645.505	-9.77
645.539	-12.77
645.572	-21.77
645.606	10.23
645.64	-1.77
645.673	-18.77
645.707	3.23
645.741	-10.77
645.774	-28.77
645.808	4.23
645.842	-18.77
645.875	8.23
645.909	-11.77
645.943	-10.77
645.976	-3.77
646.01	6.23
646.043	10.23
646.077	8.23
646.111	-1.77
646.144	9.23
646.178	10.23
646.212	-9.77
646.245	-10.77
646.279	-0.77
646.312	-8.77
646.346	-5.77
646.38	-0.77
646.413	3.23
646.447	2.23
646.48	-3.77
646.514	-0.77
646.547	-5.77
646.581	-8.77
646.615	-9.77
646.648	-6.77
646.682	-2.77
646.715	4.23
646.749	-7.77
646.782	-22.77
646.816	-1.77
646.85	9.23
646.883	-12.77
646.917	1.23
646.95	-17.77
646.984	6.23
647.017	1.23
647.051	-1.77
647.084	-1.77
647.118	-6.77
647.151	1.23
647.185	10.23
647.218	4.23
647.252	-2.77
647.285	5.23
647.319	-1.77
647.353	17.23
647.386	9.23
647.42	-8.77
647.453	-7.77
647.487	-0.77
647.52	-6.77
647.553	0.23
647.587	-6.77
647.62	-10.77
647.654	9.23
647.687	-0.77
647.721	15.23
647.754	4.23
647.788	4.23
647.821	-12.77
647.855	-2.77
647.888	4.23
647.922	11.23
647.955	-2.77
647.989	0.23
648.022	-8.77
648.055	10.23
648.089	2.23
648.122	16.23
648.156	-1.77
648.189	-6.77
648.223	2.23
648.256	-2.77
648.29	9.23
648.323	14.23
648.356	8.23
648.39	5.23
648.423	11.23
648.457	5.23
648.49	6.23
648.523	13.23
648.557	-5.77
648.59	-11.77
648.624	6.23
648.657	7.23
648.69	13.23
648.724	18.23
648.757	17.23
648.791	-9.77
648.824	-14.77
648.857	4.23
648.891	6.23
648.924	-1.77
648.957	22.23
648.991	-19.77
649.024	-1.77
649.057	-9.77
649.091	-25.77
649.124	-1.77
649.158	10.23
649.191	14.23
649.224	2.23
649.258	-5.77
649.291	13.23
649.324	-3.77
649.358	-3.77
649.391	-2.77
649.424	-8.77
649.458	-2.77
649.491	-13.77
649.524	-8.77
649.557	-8.77
649.591	-37.77
649.624	8.23
649.657	-21.77
649.691	-3.77
649.724	-2.77
649.757	5.23
649.791	-9.77
649.824	8.23
649.857	19.23
649.89	0.23
649.924	-14.77
649.957	-5.77
649.99	-25.77
650.023	3.23
650.057	-7.77
650.09	-7.77
650.123	-0.77
650.157	10.23
650.19	12.23
650.223	5.23
650.256	-5.77
650.29	-10.77
650.323	3.23
650.356	0.23
650.389	-3.77
650.423	-9.77
650.456	10.23
650.489	-2.77
650.522	6.23
650.555	22.23
650.589	12.23
650.622	-2.77
650.655	6.23
650.688	-4.77
650.721	-7.77
650.755	-0.77
650.788	1.23
650.821	-1.77
650.854	10.23
650.887	12.23
650.921	-10.77
650.954	-6.77
650.987	2.23
651.02	-5.77
651.053	-3.77
651.087	-2.77
651.12	7.23
651.153	-3.77
651.186	3.23
651.219	-11.77
651.252	6.23
651.286	19.23
651.319	-5.77
651.352	0.23
651.385	6.23
651.418	3.23
651.451	8.23
651.484	9.23
651.518	-5.77
651.551	7.23
651.584	-0.77
651.617	21.23
651.65	-5.77
651.683	13.23
651.716	-2.77
651.749	-7.77
651.783	-10.77
651.816	-7.77
651.849	-5.77
651.882	-16.77
651.915	-11.77
651.948	1.23
651.981	-18.77
652.014	-6.77
652.047	-4.77
652.08	-11.77
652.114	-6.77
652.147	0.23
652.18	13.23
652.213	19.23
652.246	10.23
652.279	-10.77
652.312	8.23
652.345	-2.77
652.378	4.23
652.411	2.23
652.444	13.23
652.477	-2.77
652.51	-7.77
652.543	-6.77
652.576	6.23
652.609	-20.77
652.642	10.23
652.675	24.23
652.709	-2.77
652.742	-9.77
652.775	0.23
652.808	-4.77
652.841	-0.77
652.874	1.23
652.907	-3.77
652.94	2.23
652.973	-10.77
653.006	2.23
653.039	6.23
653.072	6.23
653.105	9.23
653.138	-5.77
653.171	-18.77
653.204	-0.77
653.237	-6.77
653.27	-18.77
653.303	7.23
653.336	4.23
653.368	4.23
653.401	10.23
653.434	-8.77
653.467	19.23
653.5	-4.77
653.533	-6.77
653.566	7.23
653.599	-0.77
653.632	7.23
653.665	10.23
653.698	-8.77
653.731	-5.77
653.764	-3.77
653.797	-0.77
653.83	3.23
653.863	-8.77
653.896	-1.77
653.929	-2.77
653.961	-4.77
653.994	-7.77
654.027	0.23
654.06	6.23
654.093	15.23
654.126	-8.77
654.159	-13.77
654.192	-10.77
654.225	-13.77
654.258	-23.77
654.29	2.23
654.323	-1.77
654.356	2.23
654.389	-9.77
654.422	-9.77
654.455	1.23
654.488	-8.77
654.521	-9.77
654.553	-14.77
654.586	14.23
654.619	9.23
654.652	-11.77
654.685	10.23
654.718	11.23
654.751	24.23
654.783	-12.77
654.816	8.23
654.849	3.23
654.882	-4.77
654.915	0.23
654.948	4.23
654.98	-1.77
655.013	-2.77
655.046	9.23
655.079	-5.77
655.112	2.23
655.144	-1.77
655.177	6.23
655.21	2.23
655.243	20.23
655.276	4.23
655.308	-4.77
655.341	-12.77
655.374	-0.77
655.407	-11.77
655.44	-5.77
655.472	9.23
655.505	15.23
655.538	-6.77
655.571	-1.77
655.603	-7.77
655.636	-2.77
655.669	21.23
655.702	-0.77
655.734	-4.77
655.767	11.23
655.8	3.23
655.833	8.23
655.865	23.23
655.898	0.23
655.931	0.23
655.964	29.23
655.996	17.23
656.029	20.23
656.062	23.23
656.095	38.23
656.127	83.23
656.16	214.23
656.193	657.23
656.225	969.23
656.258	540.23
656.291	202.23
656.324	162.23
656.356	349.23
656.389	781.23
656.422	703.23
656.454	246.23
656.487	89.23
656.52	27.23
656.552	13.23
656.585	15.23
656.618	18.23
656.65	24.23
656.683	-0.77
656.716	-3.77
656.748	-3.77
656.781	5.23
656.814	2.23
656.846	-2.77
656.879	-14.77
656.912	-8.77
656.944	-8.77
656.977	0.23
657.01	-13.77
657.042	11.23
657.075	7.23
657.108	-3.77
657.14	5.23
657.173	-0.77
657.205	6.23
657.238	-5.77
657.271	-14.77
657.303	-22.77
657.336	-11.77
657.369	-4.77
657.401	-6.77
657.434	-8.77
657.466	10.23
657.499	-10.77
657.532	-7.77
657.564	-4.77
657.597	-6.77
657.629	5.23
657.662	11.23
657.694	10.23
657.727	-9.77
657.76	-2.77
657.792	5.23
657.825	-6.77
657.857	-2.77
657.89	-8.77
657.922	11.23
657.955	-13.77
657.987	-7.77
658.02	13.23
658.053	10.23
658.085	8.23
658.118	1.23
658.15	4.23
658.183	10.23
658.215	0.23
658.248	-1.77
658.28	-5.77
658.313	17.23
658.345	29.23
658.378	7.23
658.41	-10.77
658.443	0.23
658.475	1.23
658.508	9.23
658.54	-1.77
658.573	3.23
658.605	-1.77
658.638	-2.77
658.67	-3.77
658.703	5.23
658.735	-18.77
658.768	-4.77
658.8	-23.77
658.833	11.23
658.865	2.23
658.898	-2.77
658.93	-5.77
658.963	10.23
658.995	-21.77
659.028	6.23
659.06	-5.77
659.092	-15.77
659.125	-2.77
659.157	8.23
659.19	-11.77
659.222	-6.77
659.255	-0.77
659.287	-6.77
659.32	4.23
659.352	3.23
659.384	8.23
659.417	-10.77
659.449	5.23
659.482	-5.77
659.514	-17.77
659.546	-4.77
659.579	-21.77
659.611	6.23
659.644	-9.77
659.676	-17.77
659.708	-3.77
659.741	-9.77
659.773	11.23
659.806	2.23
659.838	4.23
659.87	-2.77
659.903	-16.77
659.935	25.23
659.967	9.23
660	-2.77
660.032	-25.77
660.065	3.23
660.097	-3.77
660.129	-5.77
660.162	-24.77
660.194	6.23
660.226	1.23
660.259	1.23
660.291	6.23
660.323	-9.77
660.356	1.23
660.388	-20.77
660.42	-13.77
660.453	-2.77
660.485	2.23
660.517	8.23
660.55	1.23
660.582	-5.77
660.614	-5.77
660.647	1.23
660.679	-23.77
660.711	-11.77
660.743	-4.77
660.776	-16.77
660.808	0.23
660.84	-3.77
660.873	-6.77
660.905	-15.77
660.937	7.23
660.969	3.23
661.002	-7.77
661.034	-7.77
661.066	-13.77
661.099	-4.77
661.131	3.23
661.163	1.23
661.195	-10.77
661.228	6.23
661.26	-3.77
661.292	-9.77
661.324	-1.77
661.357	10.23
661.389	-4.77
661.421	6.23
661.453	-0.77
661.485	5.23
661.518	7.23
661.55	0.23
661.582	-14.77
661.614	-5.77
661.647	5.23
661.679	-5.77
661.711	6.23
661.743	5.23
661.775	-10.77
661.808	17.23
661.84	-10.77
661.872	7.23
661.904	-9.77
661.936	1.23
661.969	-8.77
662.001	-18.77
662.033	-4.77
662.065	-7.77
662.097	5.23
662.129	8.23
662.162	-5.77
662.194	5.23
662.226	5.23
662.258	8.23
662.29	7.23
662.322	3.23
662.355	-20.77
662.387	0.23
662.419	2.23
662.451	-0.77
662.483	9.23
662.515	-0.77
662.547	-6.77
662.58	5.23
662.612	-7.77
662.644	-9.77
662.676	-1.77
662.708	7.23
662.74	-16.77
662.772	3.23
662.804	-3.77
662.836	10.23
662.869	-6.77
662.901	2.23
662.933	-9.77
662.965	17.23
662.997	2.23
663.029	-7.77
663.061	-0.77
663.093	-13.77
663.125	-5.77
663.157	10.23
663.189	7.23
663.221	15.23
663.254	-4.77
663.286	1.23
663.318	-9.77
663.35	-18.77
663.382	-2.77
663.414	-1.77
663.446	8.23
663.478	-4.77
663.51	29.23
663.542	-4.77
663.574	4.23
663.606	4.23
663.638	-21.77
663.67	-26.77
663.702	6.23
663.734	3.23
663.766	-2.77
663.798	-11.77
663.83	-5.77
663.862	14.23
663.894	-8.77
663.926	-9.77
663.958	-5.77
663.99	5.23
664.022	-4.77
664.054	-16.77
664.086	-9.77
664.118	-13.77
664.15	-12.77
664.182	-2.77
664.214	8.23
664.246	4.23
664.278	1.23
664.31	0.23
664.342	-4.77
664.374	-5.77
664.406	-10.77
664.438	-18.77
664.47	-3.77
664.502	-3.77
664.534	-8.77
664.566	-7.77
664.598	10.23
664.63	-10.77
664.662	11.23
664.693	-4.77
664.725	-3.77
664.757	7.23
664.789	-10.77
664.821	9.23
664.853	7.23
664.885	6.23
664.917	-11.77
664.949	10.23
664.981	7.23
665.013	-5.77
665.045	5.23
665.076	-0.77
665.108	-1.77
665.14	-3.77
665.172	8.23
665.204	-11.77
665.236	-1.77
665.268	18.23
665.3	-0.77
665.331	-4.77
665.363	14.23
665.395	-4.77
665.427	-13.77
665.459	3.23
665.491	-36.77
665.523	-13.77
665.555	-12.77
665.586	-0.77
665.618	-7.77
665.65	-7.77
665.682	9.23
665.714	1.23
665.746	-19.77
665.777	-20.77
665.809	-26.77
665.841	0.23
665.873	-11.77
665.905	-7.77
665.937	10.23
665.968	-0.77
666	4.23
666.032	-17.77
666.064	-5.77
666.096	9.23
666.127	27.23
666.159	4.23
666.191	-3.77
666.223	10.23
666.255	3.23
666.286	1.23
666.318	-9.77
666.35	4.23
666.382	-4.77
666.413	-7.77
666.445	-11.77
666.477	-19.77
666.509	-18.77
666.54	-4.77
666.572	-18.77
666.604	-11.77
666.636	-1.77
666.667	30.23
666.699	18.23
666.731	-2.77
666.763	-10.77
666.794	-7.77
666.826	-13.77
666.858	-28.77
666.89	0.23
666.921	4.23
666.953	-10.77
666.985	3.23
667.017	26.23
667.048	8.23
667.08	-1.77
667.112	-4.77
667.143	1.23
667.175	21.23
667.207	2.23
667.238	-2.77
667.27	6.23
667.302	-10.77
667.334	1.23
667.365	22.23
667.397	4.23
667.429	-4.77
667.46	5.23
667.492	-0.77
667.524	-7.77
667.555	-6.77
667.587	8.23
667.619	-2.77
667.65	-1.77
667.682	-2.77
667.714	-1.77
667.745	3.23
667.777	-4.77
667.808	5.23
667.84	2.23
667.872	-4.77
667.903	26.23
667.935	-14.77
667.967	-3.77
667.998	-2.77
668.03	3.23
668.061	-8.77
668.093	-2.77
668.125	-2.77
668.156	-3.77
668.188	-10.77
668.22	-16.77
668.251	18.23
668.283	6.23
668.314	8.23
668.346	-2.77
668.377	3.23
668.409	5.23
668.441	-0.77
668.472	-5.77
668.504	-10.77
668.535	12.23
668.567	-0.77
668.599	-0.77
668.63	-9.77
668.662	0.23
668.693	29.23
668.725	13.23
668.756	2.23
668.788	-5.77
668.819	-3.77
668.851	0.23
668.882	4.23
668.914	-2.77
668.946	4.23
668.977	8.23
669.009	4.23
669.04	-8.77
669.072	0.23
669.103	-10.77
669.135	-9.77
669.166	-8.77
669.198	-9.77
669.229	-16.77
669.261	0.23
669.292	-1.77
669.324	-5.77
669.355	13.23
669.387	-6.77
669.418	4.23
669.45	-20.77
669.481	1.23
669.513	16.23
669.544	15.23
669.576	-4.77
669.607	21.23
669.639	-5.77
669.67	-4.77
669.701	-7.77
669.733	-19.77
669.764	-3.77
669.796	2.23
669.827	1.23
669.859	-8.77
669.89	15.23
669.922	6.23
669.953	18.23
669.985	10.23
670.016	2.23
670.047	9.23
670.079	-12.77
670.11	7.23
670.142	-5.77
670.173	-5.77
670.204	-2.77
670.236	-2.77
670.267	-16.77
670.299	-0.77
670.33	-10.77
670.362	4.23
670.393	-10.77
670.424	4.23
670.456	-8.77
670.487	-7.77
670.518	13.23
670.55	0.23
670.581	15.23
670.613	4.23
670.644	-0.77
670.675	-3.77
670.707	-0.77
670.738	1.23
670.769	-4.77
670.801	-22.77
670.832	-9.77
670.864	-18.77
670.895	0.23
670.926	-2.77
670.958	3.23
670.989	-2.77
671.02	-15.77
671.052	3.23
671.083	-0.77
671.114	-4.77
671.146	4.23
671.177	11.23
671.208	-8.77
671.24	-18.77
671.271	3.23
671.302	-9.77
671.333	13.23
671.365	-6.77
671.396	6.23
671.427	-4.77
671.459	11.23
671.49	-0.77
671.521	-10.77
671.553	-3.77
671.584	5.23
671.615	-6.77
671.646	2.23
671.678	7.23
671.709	-0.77
671.74	4.23
671.771	-4.77
671.803	-11.77
671.834	2.23
671.865	-4.77
671.896	-1.77
671.928	-6.77
671.959	-5.77
671.99	-8.77
672.021	3.23
672.053	-5.77
672.084	7.23
672.115	12.23
672.146	-7.77
672.178	-7.77
672.209	-5.77
672.24	9.23
672.271	31.23
672.303	-3.77
672.334	11.23
672.365	-5.77
672.396	4.23
672.427	2.23
672.459	11.23
672.49	26.23
672.521	-5.77
672.552	11.23
672.583	4.23
672.615	-8.77
672.646	13.23
672.677	-5.77
672.708	-14.77
672.739	-3.77
672.77	4.23
672.802	-8.77
672.833	-5.77
672.864	-1.77
672.895	-10.77
672.926	-10.77
672.957	-10.77
672.989	-9.77
673.02	3.23
673.051	-0.77
673.082	2.23
673.113	-1.77
673.144	8.23
673.175	-1.77
673.206	-6.77
673.238	-0.77
673.269	-4.77
673.3	-13.77
673.331	-8.77
673.362	6.23
673.393	16.23
673.424	5.23
673.455	17.23
673.487	-7.77
673.518	13.23
673.549	3.23
673.58	-15.77
673.611	2.23
673.642	-0.77
673.673	-12.77
673.704	3.23
673.735	11.23
673.766	2.23
673.797	-19.77
673.828	-10.77
673.86	9.23
673.891	-9.77
673.922	10.23
673.953	8.23
673.984	-2.77
674.015	-0.77
674.046	-5.77
674.077	6.23
674.108	-5.77
674.139	-8.77
674.17	-5.77
674.201	-18.77
674.232	-10.77
674.263	2.23
674.294	-8.77
674.325	-11.77
674.356	2.23
674.387	10.23
674.418	1.23
674.449	-2.77
674.48	-11.77
674.511	1.23
674.542	18.23
674.573	-1.77
674.604	6.23
674.635	3.23
674.666	13.23
674.697	8.23
674.728	9.23
674.759	6.23
674.79	0.23
674.821	-5.77
674.852	0.23
674.883	-20.77
674.914	-0.77
674.945	-5.77
674.976	-5.77
675.007	-22.77
675.038	-8.77
675.069	-14.77
675.1	0.23
675.131	-9.77
675.162	-9.77
675.193	-18.77
675.224	-11.77
675.254	5.23
675.285	-5.77
675.316	20.23
675.347	9.23
675.378	-5.77
675.409	-24.77
675.44	2.23
675.471	0.23
675.502	-0.77
675.533	11.23
675.564	11.23
675.595	3.23
675.625	12.23
675.656	-2.77
675.687	-8.77
675.718	-17.77
675.749	8.23
675.78	4.23
675.811	3.23
675.842	-6.77
675.873	4.23
675.903	3.23
675.934	3.23
675.965	-9.77
675.996	-36.77
676.027	-14.77
676.058	-1.77
676.089	-5.77
676.119	10.23
676.15	0.23
676.181	-1.77
676.212	-2.77
676.243	3.23
676.274	-11.77
676.304	-1.77
676.335	-3.77
676.366	11.23
676.397	1.23
676.428	-9.77
676.459	8.23
676.489	15.23
676.52	21.23
676.551	-0.77
676.582	-0.77
676.613	-0.77
676.643	-1.77
676.674	-7.77
676.705	-1.77
676.736	-3.77
676.767	26.23
676.797	0.23
676.828	0.23
676.859	-5.77
676.89	-12.77
676.92	-7.77
676.951	16.23
676.982	0.23
677.013	4.23
677.044	8.23
677.074	4.23
677.105	-6.77
677.136	9.23
677.167	9.23
677.197	12.23
677.228	-5.77
677.259	-6.77
677.289	-0.77
677.32	-4.77
677.351	6.23
677.382	-4.77
677.412	-18.77
677.443	-2.77
677.474	-5.77
677.505	7.23
677.535	1.23
677.566	-8.77
677.597	-5.77
677.627	-9.77
677.658	-8.77
677.689	1.23
677.72	-2.77
677.75	6.23
677.781	10.23
677.812	-4.77
677.842	17.23
677.873	13.23
677.904	7.23
677.934	4.23
677.965	2.23
677.996	-18.77
678.026	-7.77
678.057	5.23
678.088	-5.77
678.118	-18.77
678.149	-1.77
678.18	5.23
678.21	-6.77
678.241	6.23
678.272	-5.77
678.302	-5.77
678.333	2.23
678.363	10.23
678.394	-9.77
678.425	0.23
678.455	2.23
678.486	3.23
678.517	-9.77
678.547	-14.77
678.578	-5.77
678.608	-21.77
678.639	12.23
678.67	2.23
678.7	-3.77
678.731	-9.77
678.761	1.23
678.792	-6.77
678.823	0.23
678.853	-21.77
678.884	-21.77
678.914	-7.77
678.945	13.23
678.975	-5.77
679.006	-5.77
679.037	-12.77
679.067	18.23
679.098	7.23
679.128	-4.77
679.159	-13.77
679.189	6.23
679.22	0.23
679.25	-1.77
679.281	-11.77
679.312	5.23
679.342	1.23
679.373	13.23
679.403	-4.77
679.434	13.23
679.464	6.23
679.495	3.23
679.525	1.23
679.556	-7.77
679.586	2.23
679.617	-3.77
679.647	-5.77
679.678	9.23
679.708	3.23
679.739	14.23
679.769	14.23
679.8	8.23
679.83	-13.77
679.861	14.23
679.891	5.23
679.922	-6.77
679.952	0.23
679.983	-9.77
680.013	-13.77
680.044	-8.77
680.074	5.23
680.105	1.23
680.135	-4.77
680.165	-3.77
680.196	5.23
680.226	-0.77
680.257	5.23
680.287	-10.77
680.318	2.23
680.348	-15.77
680.379	12.23
680.409	2.23
680.439	-5.77
680.47	8.23
680.5	-3.77
680.531	-8.77
680.561	11.23
680.592	15.23
680.622	21.23
680.652	-19.77
680.683	4.23
680.713	-25.77
680.744	1.23
680.774	-5.77
680.804	16.23
680.835	-4.77
680.865	-6.77
680.896	19.23
680.926	12.23
680.956	-4.77
680.987	4.23
681.017	-1.77
681.047	-2.77
681.078	-10.77
681.108	-13.77
681.139	9.23
681.169	1.23
681.199	-12.77
681.23	-7.77
681.26	4.23
681.29	0.23
681.321	-13.77
681.351	16.23
681.381	-3.77
681.412	-0.77
681.442	4.23
681.472	12.23
681.503	13.23
681.533	10.23
681.563	-9.77
681.594	-4.77
681.624	4.23
681.654	-2.77
681.685	-11.77
681.715	1.23
681.745	-11.77
681.775	-12.77
681.806	-0.77
681.836	2.23
681.866	-4.77
681.897	-15.77
681.927	1.23
681.957	-23.77
681.987	-1.77
682.018	-4.77
682.048	8.23
682.078	1.23
682.109	7.23
682.139	4.23
682.169	2.23
682.199	-13.77
682.23	-0.77
682.26	-1.77
682.29	-10.77
682.32	0.23
682.351	-1.77
682.381	-24.77
682.411	-0.77
682.441	-17.77
682.472	-13.77
682.502	-11.77
682.532	-9.77
682.562	4.23
682.592	-3.77
682.623	1.23
682.653	-0.77
682.683	-11.77
682.713	2.23
682.743	2.23
682.774	-8.77
682.804	-1.77
682.834	16.23
682.864	1.23
682.894	-10.77
682.925	-17.77
682.955	-1.77
682.985	-7.77
683.015	-7.77
683.045	-1.77
683.076	-4.77
683.106	1.23
683.136	-2.77
683.166	-17.77
683.196	-3.77
683.226	-7.77
683.257	-7.77
683.287	-5.77
683.317	-18.77
683.347	-17.77
683.377	2.23
683.407	5.23
683.437	7.23
683.468	-4.77
683.498	-15.77
683.528	6.23
683.558	11.23
683.588	-2.77
683.618	-7.77
683.648	-14.77
683.678	10.23
683.708	0.23
683.739	-4.77
683.769	8.23
683.799	6.23
683.829	-2.77
683.859	-5.77
683.889	12.23
683.919	2.23
683.949	-6.77
683.979	-6.77
684.009	-0.77
684.039	-5.77
684.07	-16.77
684.1	2.23
684.13	-6.77
684.16	-2.77
684.19	-8.77
684.22	1.23
684.25	0.23
684.28	-2.77
684.31	15.23
684.34	20.23
684.37	4.23
684.4	-18.77
684.43	-0.77
684.46	5.23
684.49	0.23
684.52	18.23
684.55	2.23
684.58	-8.77
684.61	1.23
684.64	-9.77
684.67	-4.77
684.7	-7.77
684.73	4.23
684.76	-7.77
684.79	12.23
684.82	-2.77
684.85	-10.77
684.88	5.23
684.91	-0.77
684.94	-14.77
684.97	-23.77
685	-8.77
685.03	-1.77
685.06	-18.77
685.09	-12.77
685.12	8.23
685.15	-7.77
685.18	6.23
685.21	-1.77
685.24	19.23
685.27	0.23
685.3	-6.77
685.33	1.23
685.36	14.23
685.39	2.23
685.42	-0.77
685.45	-6.77
685.48	-8.77
685.51	-5.77
685.54	4.23
685.569	-1.77
685.599	-4.77
685.629	8.23
685.659	-9.77
685.689	-14.77
685.719	-9.77
685.749	-6.77
685.779	5.23
685.809	17.23
685.839	3.23
685.869	-2.77
685.898	9.23
685.928	6.23
685.958	2.23
685.988	18.23
686.018	4.23
686.048	11.23
686.078	-0.77
686.108	3.23
686.137	8.23
686.167	6.23
686.197	-12.77
686.227	7.23
686.257	41.23
686.287	19.23
686.317	-11.77
686.346	-6.77
686.376	-6.77
686.406	1.23
686.436	0.23
686.466	-15.77
686.496	16.23
686.525	13.23
686.555	-1.77
686.585	13.23
686.615	19.23
686.645	-2.77
686.675	-3.77
686.704	12.23
686.734	-6.77
686.764	8.23
686.794	3.23
686.824	-11.77
686.853	3.23
686.883	9.23
686.913	5.23
686.943	0.23
686.973	-16.77
687.002	1.23
687.032	0.23
687.062	-3.77
687.092	13.23
687.121	8.23
687.151	-2.77
687.181	-0.77
687.211	7.23
687.24	7.23
687.27	-9.77
687.3	-3.77
687.33	2.23
687.359	-19.77
687.389	5.23
687.419	6.23
687.449	-1.77
687.478	-14.77
687.508	3.23
687.538	5.23
687.568	-0.77
687.597	-9.77
687.627	-4.77
687.657	-1.77
687.686	10.23
687.716	12.23
687.746	-7.77
687.776	-4.77
687.805	-0.77
687.835	0.23
687.865	-1.77
687.894	5.23
687.924	-10.77
687.954	-2.77
687.983	-6.77
688.013	-9.77
688.043	-1.77
688.072	4.23
688.102	16.23
688.132	18.23
688.161	7.23
688.191	9.23
688.221	22.23
688.25	-9.77
688.28	-3.77
688.31	-7.77
688.339	-6.77
688.369	-27.77
688.399	-13.77
688.428	-11.77
688.458	-7.77
688.488	-12.77
688.517	-4.77
688.547	3.23
688.576	22.23
688.606	22.23
688.636	-19.77
688.665	7.23
688.695	8.23
688.725	-2.77
688.754	8.23
688.784	15.23
688.813	18.23
688.843	2.23
688.873	-21.77
688.902	-7.77
688.932	-3.77
688.961	1.23
688.991	15.23
689.02	10.23
689.05	-18.77
689.08	-2.77
689.109	9.23
689.139	3.23
689.168	-1.77
689.198	-7.77
689.227	-8.77
689.257	3.23
689.287	17.23
689.316	2.23
689.346	-6.77
689.375	-14.77
689.405	-1.77
689.434	-8.77
689.464	4.23
689.493	9.23
689.523	0.23
689.552	-3.77
689.582	-12.77
689.611	2.23
689.641	7.23
689.67	-9.77
689.7	-3.77
689.73	11.23
689.759	11.23
689.789	7.23
689.818	1.23
689.848	4.23
689.877	17.23
689.906	-1.77
689.936	2.23
689.965	0.23
689.995	-6.77
690.024	10.23
690.054	-6.77
690.083	11.23
690.113	24.23
690.142	8.23
690.172	9.23
690.201	-3.77
690.231	-1.77
690.26	13.23
690.29	2.23
690.319	1.23
690.348	1.23
690.378	-2.77
690.407	8.23
690.437	1.23
690.466	9.23
690.496	5.23
690.525	-0.77
690.555	-7.77
690.584	2.23
690.613	3.23
690.643	6.23
690.672	4.23
690.702	16.23
690.731	-7.77
690.76	9.23
690.79	1.23
690.819	8.23
690.849	-3.77
690.878	3.23
690.907	5.23
690.937	22.23
690.966	3.23
690.996	19.23
691.025	-5.77
691.054	3.23
691.084	-1.77
691.113	12.23
691.142	-1.77
691.172	15.23
691.201	6.23
691.23	2.23
691.26	11.23
691.289	10.23
691.319	2.23
691.348	5.23
691.377	7.23
691.407	13.23
691.436	14.23
691.465	2.23
691.495	9.23
691.524	-10.77
691.553	-6.77
691.583	2.23
691.612	17.23
691.641	9.23
691.67	-1.77
691.7	-3.77
691.729	-15.77
691.758	-1.77
691.788	5.23
691.817	0.23
691.846	-7.77
691.876	-7.77
691.905	0.23
691.934	-6.77
691.963	11.23
691.993	-10.77
692.022	18.23
692.051	-6.77
692.081	10.23
692.11	4.23
692.139	5.23
692.168	16.23
692.198	11.23
692.227	-3.77
692.256	0.23
692.285	11.23
692.315	-1.77
692.344	3.23
692.373	-6.77
692.402	-1.77
692.432	-5.77
692.461	1.23
692.49	-7.77
692.519	-7.77
692.548	10.23
692.578	-3.77
692.607	-8.77
692.636	-5.77
692.665	7.23
692.694	-6.77
692.724	-0.77
692.753	-5.77
692.782	1.23
692.811	-13.77
692.84	-8.77
692.87	10.23
692.899	1.23
692.928	-3.77
692.957	9.23
692.986	2.23
693.016	-1.77
693.045	11.23
693.074	13.23
693.103	-1.77
693.132	-0.77
693.161	4.23
693.191	-10.77
693.22	-5.77
693.249	-13.77
693.278	1.23
693.307	16.23
693.336	-9.77
693.365	-4.77
693.395	2.23
693.424	15.23
693.453	21.23
693.482	15.23
693.511	10.23
693.54	-4.77
693.569	2.23
693.598	-9.77
693.628	12.23
693.657	16.23
693.686	36.23
693.715	2.23
693.744	5.23
693.773	5.23
693.802	7.23
693.831	13.23
693.86	12.23
693.889	-14.77
693.919	1.23
693.948	-5.77
693.977	-3.77
694.006	6.23
694.035	0.23
694.064	-5.77
694.093	0.23
694.122	-14.77
694.151	-0.77
694.18	9.23
694.209	5.23
694.238	-4.77
694.267	6.23
694.296	10.23
694.325	6.23
694.354	9.23
694.383	5.23
694.412	3.23
694.441	-5.77
694.471	2.23
694.5	-10.77
694.529	5.23
694.558	15.23
694.587	18.23
694.616	3.23
694.645	18.23
694.674	-0.77
694.703	-1.77
694.732	15.23
694.761	19.23
694.79	21.23
694.819	-19.77
694.848	-11.77
694.877	11.23
694.906	25.23
694.935	6.23
694.963	10.23
694.992	2.23
695.021	-2.77
695.05	-3.77
695.079	-11.77
695.108	-10.77
695.137	1.23
695.166	6.23
695.195	-11.77
695.224	8.23
695.253	19.23
695.282	11.23
695.311	14.23
695.34	-9.77
695.369	13.23
695.398	9.23
695.427	11.23
695.456	1.23
695.485	9.23
695.513	-3.77
695.542	7.23
695.571	-0.77
695.6	19.23
695.629	13.23
695.658	20.23
695.687	2.23
695.716	-4.77
695.745	18.23
695.774	-2.77
695.802	-8.77
695.831	-7.77
695.86	6.23
695.889	12.23
695.918	-5.77
695.947	-5.77
695.976	7.23
696.005	13.23
696.033	0.23
696.062	6.23
696.091	-6.77
696.12	6.23
696.149	7.23
696.178	-1.77
696.207	-11.77
696.235	-13.77
696.264	9.23
696.293	20.23
696.322	3.23
696.351	-0.77
696.38	2.23
696.408	2.23
696.437	-7.77
696.466	6.23
696.495	5.23
696.524	17.23
696.553	4.23
696.581	11.23
696.61	3.23
696.639	-4.77
696.668	5.23
696.697	-4.77
696.725	-1.77
696.754	9.23
696.783	-8.77
696.812	5.23
696.84	-13.77
696.869	-3.77
696.898	1.23
696.927	9.23
696.956	19.23
696.984	10.23
697.013	4.23
697.042	-4.77
697.071	8.23
697.099	6.23
697.128	2.23
697.157	5.23
697.186	-10.77
697.214	5.23
697.243	-9.77
697.272	6.23
697.301	14.23
697.329	6.23
697.358	-1.77
697.387	12.23
697.415	8.23
697.444	6.23
697.473	3.23
697.502	1.23
697.53	1.23
697.559	9.23
697.588	3.23
697.616	5.23
697.645	6.23
697.674	6.23
697.703	-4.77
697.731	11.23
697.76	13.23
697.789	-4.77
697.817	0.23
697.846	14.23
697.875	3.23
697.903	29.23
697.932	13.23
697.961	4.23
697.989	-1.77
698.018	11.23
698.047	4.23
698.075	23.23
698.104	-5.77
698.133	3.23
698.161	-10.77
698.19	0.23
698.218	12.23
698.247	-1.77
698.276	9.23
698.304	6.23
698.333	6.23
698.362	10.23
698.39	-0.77
698.419	6.23
698.447	-5.77
698.476	-1.77
698.505	7.23
698.533	-10.77
698.562	9.23
698.591	6.23
698.619	-14.77
698.648	7.23
698.676	-6.77
698.705	2.23
698.733	-17.77
698.762	0.23
698.791	-1.77
698.819	4.23
698.848	-15.77
698.876	22.23
698.905	4.23
698.933	12.23
698.962	7.23
698.991	3.23
699.019	15.23
699.048	6.23
699.076	-5.77
699.105	-0.77
699.133	-9.77
699.162	6.23
699.19	13.23
699.219	9.23
699.248	-7.77
699.276	-3.77
699.305	-5.77
699.333	2.23
699.362	-1.77
699.39	5.23
699.419	-9.77
699.447	18.23
699.476	-2.77
699.504	12.23
699.533	13.23
699.561	-17.77
699.59	-0.77
699.618	-10.77
699.647	6.23
699.675	7.23
699.704	9.23
699.732	2.23
699.761	6.23
699.789	3.23
699.818	3.23
699.846	0.23
699.874	-2.77
699.903	-10.77
699.931	7.23
699.96	11.23
699.988	-1.77
700.017	-3.77
700.045	1.23
700.074	5.23
700.102	12.23
700.13	-4.77
700.159	-1.77
700.187	3.23
700.216	5.23
700.244	-9.77
700.273	-8.77
700.301	-3.77
700.329	-0.77
700.358	3.23
700.386	-12.77
700.415	-2.77
700.443	7.23
700.472	-9.77
700.5	6.23
700.528	7.23
700.557	5.23
700.585	1.23
700.614	8.23
700.642	15.23
700.67	23.23
700.699	7.23
700.727	13.23
700.755	-1.77
700.784	-12.77
700.812	-8.77
700.841	6.23
700.869	2.23
700.897	-7.77
700.926	-3.77
700.954	1.23
700.982	12.23
701.011	3.23
701.039	5.23
701.067	7.23
701.096	14.23
701.124	-20.77
701.152	-11.77
701.181	4.23
701.209	5.23
701.237	5.23
701.266	9.23
701.294	-6.77
701.322	8.23
701.351	6.23
701.379	-12.77
701.407	-2.77
701.435	-1.77
701.464	-0.77
701.492	1.23
701.52	-6.77
701.549	5.23
701.577	-0.77
701.605	-10.77
701.634	-1.77
701.662	9.23
701.69	-9.77
701.718	-13.77
701.747	3.23
701.775	6.23
701.803	-21.77
701.831	18.23
701.86	1.23
701.888	-6.77
701.916	-0.77
701.944	-4.77
701.973	-12.77
702.001	-25.77
702.029	-2.77
702.057	-17.77
702.086	-29.77
702.114	-14.77
702.142	6.23
702.17	-7.77
702.199	-9.77
702.227	9.23
702.255	7.23
702.283	-11.77
702.311	9.23
702.34	2.23
702.368	-14.77
702.396	-1.77
702.424	5.23
702.452	-13.77
702.481	-10.77
702.509	-2.77
702.537	-6.77
702.565	5.23
702.593	-3.77
702.621	6.23
702.65	15.23
702.678	15.23
702.706	20.23
702.734	2.23
702.762	7.23
702.79	9.23
702.819	3.23
702.847	-4.77
702.875	16.23
702.903	11.23
702.931	-2.77
702.959	-3.77
702.988	-4.77
703.016	-6.77
703.044	-2.77
703.072	3.23
703.1	-8.77
703.128	-1.77
703.156	-0.77
703.184	-9.77
703.212	16.23
703.241	21.23
703.269	-2.77
703.297	-10.77
703.325	2.23
703.353	-6.77
703.381	5.23
703.409	0.23
703.437	-9.77
703.465	-3.77
703.493	-18.77
703.522	8.23
703.55	9.23
703.578	-3.77
703.606	-9.77
703.634	2.23
703.662	-16.77
703.69	-7.77
703.718	5.23
703.746	15.23
703.774	-9.77
703.802	7.23
703.83	3.23
703.858	3.23
703.886	-7.77
703.914	-5.77
703.942	-3.77
703.97	-11.77
703.998	-14.77
704.027	2.23
704.055	8.23
704.083	10.23
704.111	4.23
704.139	1.23
704.167	5.23
704.195	4.23
704.223	3.23
704.251	3.23
704.279	7.23
704.307	0.23
704.335	-17.77
704.363	-3.77
704.391	-10.77
704.419	-5.77
704.447	-21.77
704.475	-2.77
704.503	-7.77
704.531	14.23
704.558	8.23
704.586	0.23
704.614	-7.77
704.642	1.23
704.67	0.23
704.698	-19.77
704.726	-8.77
704.754	-1.77
704.782	-2.77
704.81	6.23
704.838	10.23
704.866	-1.77
704.894	-12.77
704.922	-9.77
704.95	5.23
704.978	17.23
705.006	22.23
705.034	19.23
705.061	-13.77
705.089	5.23
705.117	-8.77
705.145	2.23
705.173	-2.77
705.201	5.23
705.229	10.23
705.257	-4.77
705.285	2.23
705.313	6.23
705.34	3.23
705.368	-3.77
705.396	4.23
705.424	11.23
705.452	-3.77
705.48	15.23
705.508	-9.77
705.536	-16.77
705.563	-3.77
705.591	2.23
705.619	11.23
705.647	3.23
705.675	-1.77
705.703	1.23
705.731	-4.77
705.758	17.23
705.786	3.23
705.814	14.23
705.842	17.23
705.87	3.23
705.898	13.23
705.925	-7.77
705.953	-3.77
705.981	-12.77
706.009	-8.77
706.037	1.23
706.065	6.23
706.092	6.23
706.12	13.23
706.148	-13.77
706.176	4.23
706.204	19.23
706.231	5.23
706.259	-14.77
706.287	-1.77
706.315	15.23
706.342	7.23
706.37	11.23
706.398	4.23
706.426	5.23
706.454	-3.77
706.481	14.23
706.509	17.23
706.537	1.23
706.565	-0.77
706.592	2.23
706.62	5.23
706.648	16.23
706.676	-7.77
706.703	-18.77
706.731	5.23
706.759	-4.77
706.787	10.23
706.814	-4.77
706.842	-0.77
706.87	3.23
706.897	5.23
706.925	-1.77
706.953	1.23
706.981	4.23
707.008	-0.77
707.036	3.23
707.064	-0.77
707.091	-8.77
707.119	11.23
707.147	8.23
707.174	-13.77
707.202	9.23
707.23	-13.77
707.258	1.23
707.285	-14.77
707.313	-9.77
707.341	-5.77
707.368	-14.77
707.396	-9.77
707.424	14.23
707.451	1.23
707.479	0.23
707.507	5.23
707.534	-9.77
707.562	8.23
707.59	-2.77
707.617	-10.77
707.645	-0.77
707.672	-3.77
707.7	-1.77
707.728	4.23
707.755	-6.77
707.783	-13.77
707.811	4.23
707.838	-6.77
707.866	23.23
707.893	4.23
707.921	9.23
707.949	-8.77
707.976	-6.77
708.004	-1.77
708.031	-1.77
708.059	-9.77
708.087	7.23
708.114	-13.77
708.142	-1.77
708.169	-1.77
708.197	1.23
708.225	-1.77
708.252	-13.77
708.28	11.23
708.307	-10.77
708.335	-15.77
708.362	-10.77
708.39	-27.77
708.418	-10.77
708.445	1.23
708.473	-7.77
708.5	-19.77
708.528	-5.77
708.555	2.23
708.583	3.23
708.61	-0.77
708.638	0.23
708.665	-19.77
708.693	0.23
708.72	-2.77
708.748	-12.77
708.776	-4.77
708.803	14.23
708.831	13.23
708.858	10.23
708.886	-4.77
708.913	-2.77
708.941	-9.77
708.968	7.23
708.996	12.23
709.023	25.23
709.051	7.23
709.078	-3.77
709.105	-8.77
709.133	-2.77
709.16	4.23
709.188	6.23
709.215	10.23
709.243	2.23
709.27	-12.77
709.298	1.23
709.325	-8.77
709.353	1.23
709.38	5.23
709.408	12.23
709.435	2.23
709.462	-10.77
709.49	2.23
709.517	-1.77
709.545	-13.77
709.572	-2.77
709.6	-2.77
709.627	2.23
709.655	-5.77
709.682	-3.77
709.709	0.23
709.737	7.23
709.764	1.23
709.792	1.23
709.819	-3.77
709.846	-9.77
709.874	3.23
709.901	16.23
709.929	18.23
709.956	14.23
709.983	-9.77
710.011	0.23
710.038	-1.77
710.066	-5.77
710.093	-1.77
710.12	4.23
710.148	-2.77
710.175	-12.77
710.202	-32.77
710.23	-4.77
710.257	-8.77
710.284	6.23
710.312	-3.77
710.339	1.23
710.366	-16.77
710.394	-0.77
710.421	12.23
710.448	-10.77
710.476	-11.77
710.503	-1.77
710.53	0.23
710.558	11.23
710.585	6.23
710.612	-1.77
710.64	1.23
710.667	-18.77
710.694	-14.77
710.722	-7.77
710.749	6.23
710.776	1.23
710.804	12.23
710.831	-1.77
710.858	8.23
710.885	-2.77
710.913	9.23
710.94	22.23
710.967	0.23
710.995	0.23
711.022	-3.77
711.049	3.23
711.076	-13.77
711.104	-2.77
711.131	-4.77
711.158	-10.77
711.185	8.23
711.213	-20.77
711.24	-18.77
711.267	-4.77
711.294	9.23
711.322	20.23
711.349	-2.77
711.376	-12.77
711.403	-3.77
711.431	-9.77
711.458	-4.77
711.485	2.23
711.512	-2.77
711.54	8.23
711.567	11.23
711.594	-1.77
711.621	-3.77
711.648	-6.77
711.676	10.23
711.703	-1.77
711.73	-7.77
711.757	-14.77
711.784	-3.77
711.812	-12.77
711.839	-3.77
711.866	1.23
711.893	7.23
711.92	-0.77
711.947	-1.77
711.975	8.23
712.002	-17.77
712.029	26.23
712.056	13.23
712.083	14.23
712.11	-11.77
712.138	5.23
712.165	6.23
712.192	0.23
712.219	-4.77
712.246	-0.77
712.273	-18.77
712.3	-32.77
712.328	-0.77
712.355	5.23
712.382	-12.77
712.409	-1.77
712.436	-6.77
712.463	9.23
712.49	15.23
712.517	2.23
712.544	6.23
712.572	2.23
712.599	0.23
712.626	10.23
712.653	-13.77
712.68	-19.77
712.707	10.23
712.734	2.23
712.761	-8.77
712.788	2.23
712.815	-0.77
712.842	9.23
712.87	-7.77
712.897	-5.77
712.924	-4.77
712.951	2.23
712.978	-1.77
713.005	-4.77
713.032	5.23
713.059	-13.77
713.086	-3.77
713.113	-8.77
713.14	-7.77
713.167	5.23
713.194	2.23
713.221	-2.77
713.248	4.23
713.275	-0.77
713.302	-5.77
713.329	11.23
713.356	7.23
713.383	9.23
713.41	9.23
713.437	-16.77
713.464	-11.77
713.491	2.23
713.518	2.23
713.545	-0.77
713.572	-4.77
713.599	3.23
713.626	-1.77
713.653	-1.77
713.68	-5.77
713.707	1.23
713.734	-2.77
713.761	-13.77
713.788	-8.77
713.815	6.23
713.842	-0.77
713.869	3.23
713.896	27.23
713.923	1.23
713.95	-6.77
713.977	-9.77
714.004	-5.77
714.031	-0.77
714.058	-19.77
714.085	-11.77
714.112	-2.77
714.139	0.23
714.165	1.23
714.192	-0.77
714.219	1.23
714.246	2.23
714.273	-8.77
714.3	-12.77
714.327	-12.77
714.354	2.23
714.381	4.23
714.408	4.23
714.435	-3.77
714.461	-6.77
714.488	-1.77
714.515	-3.77
714.542	-8.77
714.569	-8.77
714.596	-1.77
714.623	-5.77
714.65	0.23
714.677	10.23
714.703	-1.77
714.73	2.23
714.757	-8.77
714.784	-1.77
714.811	-22.77
714.838	-12.77
714.865	-1.77
714.891	22.23
714.918	10.23
714.945	-12.77
714.972	-1.77
714.999	-0.77
715.026	-3.77
715.052	8.23
715.079	-14.77
715.106	-6.77
715.133	-4.77
715.16	-5.77
715.187	10.23
715.213	15.23
715.24	-9.77
715.267	-6.77
715.294	-4.77
715.321	6.23
715.347	-1.77
715.374	-7.77
715.401	-7.77
715.428	2.23
715.455	-1.77
715.481	-0.77
715.508	1.23
715.535	-2.77
715.562	14.23
715.588	-0.77
715.615	3.23
715.642	-4.77
715.669	9.23
715.695	1.23
715.722	-6.77
715.749	1.23
715.776	14.23
715.802	4.23
715.829	3.23
715.856	-6.77
715.883	12.23
715.909	5.23
715.936	-2.77
715.963	-16.77
715.99	-24.77
716.016	4.23
716.043	13.23
716.07	-17.77
716.096	-6.77
716.123	1.23
716.15	17.23
716.177	-6.77
716.203	23.23
716.23	11.23
716.257	16.23
716.283	-2.77
716.31	0.23
716.337	-2.77
716.363	0.23
716.39	3.23
716.417	-3.77
716.443	4.23
716.47	6.23
716.497	7.23
716.523	19.23
716.55	-5.77
716.577	4.23
716.603	-11.77
716.63	-8.77
716.657	2.23
716.683	-7.77
716.71	-5.77
716.737	-5.77
716.763	-10.77
716.79	5.23
716.817	7.23
716.843	7.23
716.87	-1.77
716.897	-2.77
716.923	-2.77
716.95	-4.77
716.976	3.23
717.003	-6.77
717.03	-1.77
717.056	-1.77
717.083	-2.77
717.109	-1.77
717.136	5.23
717.163	-8.77
717.189	0.23
717.216	-4.77
717.242	13.23
717.269	-1.77
717.296	13.23
717.322	12.23
717.349	13.23
717.375	2.23
717.402	-2.77
717.428	-4.77
717.455	9.23
717.481	-1.77
717.508	8.23
717.535	1.23
717.561	-2.77
717.588	-9.77
717.614	1.23
717.641	-10.77
717.667	0.23
717.694	7.23
717.72	5.23
717.747	-1.77
717.773	8.23
717.8	6.23
717.826	6.23
717.853	-4.77
717.88	4.23
717.906	15.23
717.933	10.23
717.959	3.23
717.986	-1.77
718.012	-2.77
718.039	18.23
718.065	10.23
718.092	3.23
718.118	-3.77
718.144	-9.77
718.171	12.23
718.197	9.23
718.224	3.23
718.25	-5.77
718.277	-8.77
718.303	15.23
718.33	1.23
718.356	-6.77
718.383	-16.77
718.409	1.23
718.436	9.23
718.462	3.23
718.489	-4.77
718.515	12.23
718.541	14.23
718.568	7.23
718.594	15.23
718.621	5.23
718.647	-4.77
718.674	6.23
718.7	12.23
718.726	0.23
718.753	-2.77
718.779	9.23
718.806	-14.77
718.832	9.23
718.858	-0.77
718.885	-21.77
718.911	-11.77
718.938	9.23
718.964	-16.77
718.99	-7.77
719.017	-1.77
719.043	3.23
719.07	18.23
719.096	5.23
719.122	5.23
719.149	7.23
719.175	13.23
719.201	0.23
719.228	2.23
719.254	8.23
719.281	-3.77
719.307	15.23
719.333	2.23
719.36	18.23
719.386	8.23
719.412	15.23
719.439	13.23
719.465	5.23
719.491	-8.77
719.518	1.23
719.544	-3.77
719.57	12.23
719.597	5.23
719.623	-4.77
719.649	9.23
719.675	5.23
719.702	19.23
719.728	26.23
719.754	5.23
719.781	-9.77
719.807	-4.77
719.833	-2.77
719.86	1.23
719.886	2.23
719.912	10.23
719.938	-11.77
719.965	-6.77
719.991	11.23
720.017	-0.77
720.044	-7.77
720.07	-2.77
720.096	5.23
720.122	-2.77
720.149	9.23
720.175	19.23
720.201	5.23
720.227	-2.77
720.254	3.23
720.28	0.23
720.306	-3.77
720.332	-2.77
720.359	-3.77
720.385	14.23
720.411	6.23
720.437	5.23
720.463	-14.77
720.49	20.23
720.516	-6.77
720.542	-11.77
720.568	2.23
720.595	-2.77
720.621	-5.77
720.647	-4.77
720.673	-2.77
720.699	1.23
720.725	2.23
720.752	5.23
720.778	15.23
720.804	9.23
720.83	15.23
720.856	-6.77
720.883	1.23
720.909	5.23
720.935	-4.77
720.961	10.23
720.987	2.23
721.013	10.23
721.04	-0.77
721.066	-3.77
721.092	17.23
721.118	-6.77
721.144	-8.77
721.17	9.23
721.196	-3.77
721.223	-10.77
721.249	-12.77
721.275	19.23
721.301	4.23
721.327	1.23
721.353	12.23
721.379	2.23
721.405	26.23
721.432	16.23
721.458	1.23
721.484	2.23
721.51	-9.77
721.536	6.23
721.562	1.23
721.588	-2.77
721.614	5.23
721.64	5.23
721.666	4.23
721.693	1.23
721.719	3.23
721.745	2.23
721.771	-6.77
721.797	-18.77
721.823	-0.77
721.849	5.23
721.875	16.23
721.901	17.23
721.927	-7.77
721.953	-6.77
721.979	8.23
722.005	18.23
722.031	-2.77
722.057	3.23
722.083	2.23
722.109	2.23
722.135	3.23
722.161	3.23
722.187	2.23
722.214	3.23
722.24	-1.77
722.266	-9.77
722.292	3.23
722.318	16.23
722.344	9.23
722.37	18.23
722.396	16.23
722.422	-4.77
722.448	-14.77
722.474	-20.77
722.5	21.23
722.526	12.23
722.552	14.23
722.578	-5.77
722.603	9.23
722.629	-4.77
722.655	7.23
722.681	-3.77
722.707	7.23
722.733	-7.77
722.759	-1.77
722.785	-5.77
722.811	9.23
722.837	16.23
722.863	6.23
722.889	15.23
722.915	2.23
722.941	8.23
722.967	7.23
722.993	3.23
723.019	-1.77
723.045	2.23
723.071	10.23
723.097	1.23
723.122	-0.77
723.148	-1.77
723.174	5.23
723.2	4.23
723.226	-11.77
723.252	7.23
723.278	-14.77
723.304	-18.77
723.33	-2.77
723.356	-7.77
723.381	-14.77
723.407	-14.77
723.433	-3.77
723.459	-1.77
723.485	-5.77
723.511	-0.77
723.537	-10.77
723.563	8.23
723.588	-4.77
723.614	14.23
723.64	7.23
723.666	-18.77
723.692	8.23
723.718	9.23
723.744	-1.77
723.769	-10.77
723.795	-5.77
723.821	1.23
723.847	5.23
723.873	-0.77
723.899	1.23
723.924	-0.77
723.95	4.23
723.976	-5.77
724.002	2.23
724.028	7.23
724.053	-7.77
724.079	-2.77
724.105	7.23
724.131	-0.77
724.157	-6.77
724.182	-10.77
724.208	-6.77
724.234	-3.77
724.26	11.23
724.286	23.23
724.311	-9.77
724.337	-0.77
724.363	-4.77
724.389	2.23
724.415	-5.77
724.44	30.23
724.466	1.23
724.492	-8.77
724.518	1.23
724.543	2.23
724.569	21.23
724.595	6.23
724.621	-2.77
724.646	1.23
724.672	-18.77
724.698	-7.77
724.723	4.23
724.749	-5.77
724.775	5.23
724.801	11.23
724.826	-0.77
724.852	-0.77
724.878	-12.77
724.904	-8.77
724.929	5.23
724.955	-9.77
724.981	3.23
725.006	1.23
725.032	6.23
725.058	19.23
725.083	-8.77
725.109	-11.77
725.135	3.23
725.161	7.23
725.186	5.23
725.212	-11.77
725.238	6.23
725.263	1.23
725.289	-13.77
725.315	-16.77
725.34	-11.77
725.366	-3.77
725.392	10.23
725.417	1.23
725.443	-11.77
725.468	5.23
725.494	4.23
725.52	4.23
725.545	-13.77
725.571	-18.77
725.597	-1.77
725.622	6.23
725.648	-3.77
725.674	4.23
725.699	-5.77
725.725	-5.77
725.75	44.23
725.776	5.23
725.802	-0.77
725.827	5.23
725.853	2.23
725.878	-5.77
725.904	-7.77
725.93	-7.77
725.955	-9.77
725.981	-8.77
726.006	-1.77
726.032	-1.77
726.057	-2.77
726.083	-6.77
726.109	4.23
726.134	12.23
726.16	6.23
726.185	-8.77
726.211	-12.77
726.236	10.23
726.262	5.23
726.288	-9.77
726.313	4.23
726.339	18.23
726.364	5.23
726.39	10.23
726.415	-11.77
726.441	-8.77
726.466	-9.77
726.492	-1.77
726.517	4.23
726.543	3.23
726.568	-12.77
726.594	2.23
726.619	6.23
726.645	7.23
726.67	5.23
726.696	12.23
726.721	2.23
726.747	-7.77
726.772	-9.77
726.798	5.23
726.823	19.23
726.849	-0.77
726.874	2.23
726.9	12.23
726.925	19.23
726.951	1.23
726.976	-5.77
727.002	-13.77
727.027	-5.77
727.053	11.23
727.078	-1.77
727.104	5.23
727.129	-3.77
727.155	-3.77
727.18	9.23
727.205	11.23
727.231	-1.77
727.256	2.23
727.282	1.23
727.307	5.23
727.333	-11.77
727.358	-10.77
727.383	-10.77
727.409	-8.77
727.434	1.23
727.46	-2.77
727.485	-0.77
727.511	8.23
727.536	-12.77
727.561	-6.77
727.587	-9.77
727.612	1.23
727.637	17.23
727.663	-7.77
727.688	15.23
727.714	2.23
727.739	-3.77
727.764	-15.77
727.79	2.23
727.815	1.23
727.841	8.23
727.866	4.23
727.891	13.23
727.917	6.23
727.942	-7.77
727.967	1.23
727.993	-12.77
728.018	-3.77
728.043	2.23
728.069	-0.77
728.094	16.23
728.119	-2.77
728.145	-1.77
728.17	9.23
728.195	2.23
728.221	19.23
728.246	2.23
728.271	-10.77
728.297	5.23
728.322	15.23
728.347	-1.77
728.373	1.23
728.398	5.23
728.423	1.23
728.448	1.23
728.474	14.23
728.499	2.23
728.524	13.23
728.55	-2.77
728.575	-4.77
728.6	-4.77
728.625	-4.77
728.651	-5.77
728.676	1.23
728.701	0.23
728.727	-2.77
728.752	-1.77
728.777	-11.77
728.802	3.23
728.828	3.23
728.853	-8.77
728.878	-0.77
728.903	6.23
728.929	-13.77
728.954	-12.77
728.979	9.23
729.004	-1.77
729.03	-6.77
729.055	15.23
729.08	-5.77
729.105	-3.77
729.13	9.23
729.156	1.23
729.181	-7.77
729.206	-26.77
729.231	-11.77
729.256	-1.77
729.282	12.23
729.307	-10.77
729.332	-14.77
729.357	-9.77
729.382	1.23
729.408	-0.77
729.433	5.23
729.458	-5.77
729.483	5.23
729.508	22.23
729.533	2.23
729.559	-9.77
729.584	-17.77
729.609	3.23
729.634	24.23
729.659	-10.77
729.684	-1.77
729.71	12.23
729.735	14.23
729.76	1.23
729.785	-9.77
729.81	12.23
729.835	-6.77
729.86	-1.77
729.886	10.23
729.911	3.23
729.936	-1.77
729.961	4.23
729.986	-24.77
730.011	1.23
730.036	13.23
730.061	-2.77
730.086	-0.77
730.112	-1.77
730.137	1.23
730.162	-1.77
730.187	-6.77
730.212	11.23
730.237	-6.77
730.262	-9.77
730.287	-1.77
730.312	-0.77
730.337	-15.77
730.362	4.23
730.387	-13.77
730.413	-25.77
730.438	-16.77
730.463	3.23
730.488	1.23
730.513	-1.77
730.538	-2.77
730.563	23.23
730.588	-6.77
730.613	9.23
730.638	-0.77
730.663	-20.77
730.688	22.23
730.713	13.23
730.738	7.23
730.763	-5.77
730.788	-2.77
730.813	14.23
730.838	-2.77
730.863	-4.77
730.888	-4.77
730.913	-7.77
730.938	-13.77
730.963	-9.77
730.988	-4.77
731.013	7.23
731.038	-0.77
731.063	-4.77
731.088	5.23
731.113	8.23
731.138	-1.77
731.163	-5.77
731.188	2.23
731.213	14.23
731.238	22.23
731.263	-0.77
731.288	-7.77
731.313	-6.77
731.338	4.23
731.363	11.23
731.388	6.23
731.413	3.23
731.438	7.23
731.463	-3.77
731.487	4.23
731.512	-12.77
731.537	-3.77
731.562	-2.77
731.587	-9.77
731.612	-14.77
731.637	-10.77
731.662	5.23
731.687	-1.77
731.712	5.23
731.737	9.23
731.762	-6.77
731.786	-8.77
731.811	4.23
731.836	-2.77
731.861	6.23
731.886	3.23
731.911	14.23
731.936	15.23
731.961	-0.77
731.986	5.23
732.01	-0.77
732.035	-3.77
732.06	23.23
732.085	-3.77
732.11	-6.77
732.135	-12.77
732.16	-9.77
732.184	-2.77
732.209	3.23
732.234	6.23
732.259	-8.77
732.284	-6.77
732.309	-14.77
732.334	-8.77
732.358	-6.77
732.383	-6.77
732.408	-3.77
732.433	-0.77
732.458	6.23
732.482	9.23
732.507	-2.77
732.532	4.23
732.557	3.23
732.582	-2.77
732.607	-10.77
732.631	-13.77
732.656	-5.77
732.681	12.23
732.706	-4.77
732.73	5.23
732.755	3.23
732.78	11.23
732.805	17.23
732.83	3.23
732.854	-2.77
732.879	20.23
732.904	-5.77
732.929	-5.77
732.953	0.23
732.978	11.23
733.003	-7.77
733.028	-10.77
733.052	15.23
733.077	39.23
733.102	23.23
733.127	-12.77
733.151	-10.77
733.176	-11.77
733.201	-3.77
733.226	-5.77
733.25	-5.77
733.275	21.23
733.3	17.23
733.324	18.23
733.349	8.23
733.374	5.23
733.399	-5.77
733.423	0.23
733.448	-13.77
733.473	2.23
733.497	-6.77
733.522	-2.77
733.547	5.23
733.571	18.23
733.596	1.23
733.621	3.23
733.646	-0.77
733.67	0.23
733.695	-13.77
733.72	10.23
733.744	2.23
733.769	2.23
733.794	-0.77
733.818	-1.77
733.843	-2.77
733.867	-4.77
733.892	-2.77
733.917	-12.77
733.941	-6.77
733.966	-9.77
733.991	13.23
734.015	33.23
734.04	6.23
734.065	-1.77
734.089	19.23
734.114	6.23
734.138	-0.77
734.163	-8.77
734.188	16.23
734.212	10.23
734.237	10.23
734.261	7.23
734.286	10.23
734.311	15.23
734.335	-2.77
734.36	5.23
734.384	1.23
734.409	12.23
734.434	-13.77
734.458	-0.77
734.483	-8.77
734.507	-13.77
734.532	-5.77
734.556	-2.77
734.581	6.23
734.606	8.23
734.63	-11.77
734.655	-0.77
734.679	10.23
734.704	15.23
734.728	5.23
734.753	-0.77
734.777	4.23
734.802	0.23
734.826	-8.77
734.851	12.23
734.876	13.23
734.9	-3.77
734.925	-9.77
734.949	-9.77
734.974	-5.77
734.998	10.23
735.023	-7.77
735.047	-10.77
735.072	9.23
735.096	1.23
735.121	15.23
735.145	-0.77
735.17	5.23
735.194	4.23
735.219	4.23
735.243	1.23
735.268	18.23
735.292	10.23
735.317	-4.77
735.341	7.23
735.365	-7.77
735.39	7.23
735.414	14.23
735.439	-1.77
735.463	14.23
735.488	8.23
735.512	0.23
735.537	0.23
735.561	7.23
735.586	-0.77
735.61	3.23
735.634	-20.77
735.659	-2.77
735.683	5.23
735.708	-8.77
735.732	1.23
735.757	-2.77
735.781	17.23
735.805	11.23
735.83	1.23
735.854	14.23
735.879	5.23
735.903	2.23
735.927	-3.77
735.952	7.23
735.976	4.23
736.001	-9.77
736.025	13.23
736.049	-0.77
736.074	3.23
736.098	-3.77
736.123	8.23
736.147	-2.77
736.171	-4.77
736.196	11.23
736.22	-2.77
736.244	-2.77
736.269	2.23
736.293	1.23
736.317	8.23
736.342	3.23
736.366	0.23
736.39	2.23
736.415	3.23
736.439	-8.77
736.463	-1.77
736.488	-1.77
736.512	-1.77
736.536	-5.77
736.561	11.23
736.585	-13.77
736.609	6.23
736.634	0.23
736.658	6.23
736.682	-15.77
736.707	-10.77
736.731	-9.77
736.755	-0.77
736.78	18.23
736.804	-0.77
736.828	6.23
736.852	-6.77
736.877	-2.77
736.901	1.23
736.925	7.23
736.949	3.23
736.974	-0.77
736.998	-0.77
737.022	-0.77
737.047	-14.77
737.071	4.23
737.095	23.23
737.119	10.23
737.144	6.23
737.168	-2.77
737.192	-4.77
737.216	2.23
737.241	-1.77
737.265	13.23
737.289	4.23
737.313	-2.77
737.337	-0.77
737.362	-2.77
737.386	-1.77
737.41	-2.77
737.434	6.23
737.459	-1.77
737.483	-7.77
737.507	20.23
737.531	20.23
737.555	0.23
737.58	18.23
737.604	10.23
737.628	-13.77
737.652	-8.77
737.676	-3.77
737.701	6.23
737.725	8.23
737.749	12.23
737.773	-0.77
737.797	1.23
737.821	8.23
737.846	17.23
737.87	22.23
737.894	-4.77
737.918	-3.77
737.942	-21.77
737.966	1.23
737.99	-0.77
738.015	9.23
738.039	-5.77
738.063	6.23
738.087	7.23
738.111	-7.77
738.135	9.23
738.159	1.23
738.184	-3.77
738.208	1.23
738.232	3.23
738.256	6.23
738.28	8.23
738.304	7.23
738.328	-10.77
738.352	3.23
738.376	8.23
738.4	7.23
738.425	6.23
738.449	-6.77
738.473	15.23
738.497	-2.77
738.521	2.23
738.545	-3.77
738.569	6.23
738.593	9.23
738.617	-2.77
738.641	-8.77
738.665	-3.77
738.689	6.23
738.713	-1.77
738.737	12.23
738.762	20.23
738.786	23.23
738.81	-1.77
738.834	3.23
738.858	-10.77
738.882	7.23
738.906	8.23
738.93	13.23
738.954	-0.77
738.978	13.23
739.002	-8.77
739.026	1.23
739.05	16.23
739.074	-0.77
739.098	32.23
739.122	17.23
739.146	10.23
739.17	12.23
739.194	7.23
739.218	-9.77
739.242	-3.77
739.266	5.23
739.29	7.23
739.314	0.23
739.338	-3.77
739.362	-6.77
739.386	-12.77
739.41	6.23
739.434	-24.77
739.458	12.23
739.482	12.23
739.506	6.23
739.53	-5.77
739.554	-2.77
739.577	7.23
739.601	9.23
739.625	-10.77
739.649	7.23
739.673	-5.77
739.697	8.23
739.721	-0.77
739.745	10.23
739.769	17.23
739.793	17.23
739.817	8.23
739.841	-10.77
739.865	-2.77
739.889	-2.77
739.912	4.23
739.936	0.23
739.96	1.23
739.984	14.23
740.008	3.23
740.032	-8.77
740.056	2.23
740.08	9.23
740.104	2.23
740.127	7.23
740.151	10.23
740.175	10.23
740.199	8.23
740.223	44.23
740.247	1.23
740.271	5.23
740.295	2.23
740.318	-5.77
740.342	-4.77
740.366	14.23
740.39	12.23
740.414	7.23
740.438	-14.77
740.461	11.23
740.485	7.23
740.509	-9.77
740.533	-2.77
740.557	-2.77
740.581	-11.77
740.604	-8.77
740.628	-5.77
740.652	-2.77
740.676	-4.77
740.7	1.23
740.723	-13.77
740.747	-10.77
740.771	2.23
740.795	-7.77
740.819	-2.77
740.842	18.23
740.866	13.23
740.89	-0.77
740.914	-0.77
740.938	-6.77
740.961	3.23
740.985	11.23
741.009	2.23
741.033	5.23
741.056	1.23
741.08	14.23
741.104	-2.77
741.128	-2.77
741.151	-2.77
741.175	-4.77
741.199	1.23
741.223	14.23
741.246	-1.77
741.27	0.23
741.294	-4.77
741.318	-3.77
741.341	1.23
741.365	1.23
741.389	0.23
741.413	3.23
741.436	4.23
741.46	4.23
741.484	8.23
741.507	-2.77
741.531	20.23
741.555	8.23
741.579	5.23
741.602	-2.77
741.626	25.23
741.65	3.23
741.673	-1.77
741.697	-4.77
741.721	-2.77
741.744	-9.77
741.768	-0.77
741.792	-3.77
741.815	1.23
741.839	14.23
741.863	18.23
741.886	14.23
741.91	1.23
741.934	7.23
741.957	-12.77
741.981	6.23
742.005	-0.77
742.028	-10.77
742.052	-1.77
742.075	1.23
742.099	13.23
742.123	-6.77
742.146	-4.77
742.17	-11.77
742.194	-18.77
742.217	1.23
742.241	-3.77
742.264	7.23
742.288	19.23
742.312	12.23
742.335	17.23
742.359	6.23
742.382	0.23
742.406	25.23
742.43	7.23
742.453	-0.77
742.477	-4.77
742.5	-24.77
742.524	-10.77
742.548	-16.77
742.571	-3.77
742.595	-8.77
742.618	-17.77
742.642	-3.77
742.665	14.23
742.689	-8.77
742.712	1.23
742.736	-9.77
742.76	-0.77
742.783	15.23
742.807	29.23
742.83	22.23
742.854	-18.77
742.877	0.23
742.901	5.23
742.924	3.23
742.948	8.23
742.971	-1.77
742.995	-12.77
743.018	-17.77
743.042	-4.77
743.065	-7.77
743.089	4.23
743.112	4.23
743.136	-10.77
743.159	-8.77
743.183	-9.77
743.206	-4.77
743.23	2.23
743.253	6.23
743.277	1.23
743.3	2.23
743.324	9.23
743.347	-2.77
743.371	1.23
743.394	11.23
743.418	10.23
743.441	5.23
743.465	9.23
743.488	11.23
743.512	3.23
743.535	2.23
743.558	-2.77
743.582	-3.77
743.605	-3.77
743.629	10.23
743.652	17.23
743.676	13.23
743.699	6.23
743.723	-4.77
743.746	8.23
743.769	-5.77
743.793	0.23
743.816	5.23
743.84	5.23
743.863	0.23
743.886	5.23
743.91	22.23
743.933	15.23
743.957	3.23
743.98	5.23
744.003	7.23
744.027	9.23
744.05	-5.77
744.074	-1.77
744.097	-7.77
744.12	5.23
744.144	-15.77
744.167	1.23
744.19	-0.77
744.214	1.23
744.237	-10.77
744.26	16.23
744.284	1.23
744.307	-8.77
744.331	9.23
744.354	-4.77
744.377	-9.77
744.401	0.23
744.424	-6.77
744.447	-6.77
744.471	-15.77
