Data from HighRes_H2D2_15_04_11_07_2024_HR4C61891__44__15-05-38-843.txt Node

Date: Thu Nov 07 15:05:38 EST 2024
User: crc00042
Spectrometer: HR4C6189
Trigger mode: 4
Integration Time (sec): 1.000000E-1
Scans to average: 1
Electric dark correction enabled: true
Nonlinearity correction enabled: false
Boxcar width: 0
XAxis mode: Wavelengths
Number of Pixels in Spectrum: 3648
>>>>>Begin Spectral Data<<<<<
639.567	-79.77
639.602	-79.77
639.636	-79.77
639.67	-54.77
639.704	-32.77
639.738	0.23
639.773	-4.77
639.807	-6.77
639.841	8.23
639.875	12.23
639.909	-4.77
639.943	-0.77
639.978	1.23
640.012	3.23
640.046	4.23
640.08	-6.77
640.114	3.23
640.148	-8.77
640.182	-18.77
640.217	-11.77
640.251	22.23
640.285	3.23
640.319	-22.77
640.353	-8.77
640.387	3.23
640.421	-15.77
640.455	-13.77
640.49	-6.77
640.524	-1.77
640.558	8.23
640.592	4.23
640.626	17.23
640.66	1.23
640.694	-18.77
640.728	-10.77
640.762	2.23
640.796	13.23
640.83	21.23
640.865	-1.77
640.899	0.23
640.933	-8.77
640.967	-8.77
641.001	-18.77
641.035	-18.77
641.069	-10.77
641.103	-19.77
641.137	4.23
641.171	-4.77
641.205	5.23
641.239	-7.77
641.273	25.23
641.307	11.23
641.341	6.23
641.375	-6.77
641.409	0.23
641.443	8.23
641.477	7.23
641.511	8.23
641.545	10.23
641.579	-1.77
641.614	5.23
641.648	11.23
641.682	-10.77
641.716	-2.77
641.75	10.23
641.784	3.23
641.818	-6.77
641.852	4.23
641.886	-7.77
641.919	3.23
641.953	-10.77
641.987	-27.77
642.021	-2.77
642.055	-7.77
642.089	-5.77
642.123	-18.77
642.157	-15.77
642.191	-20.77
642.225	-1.77
642.259	-17.77
642.293	6.23
642.327	2.23
642.361	-10.77
642.395	4.23
642.429	-1.77
642.463	3.23
642.497	19.23
642.531	-11.77
642.565	-10.77
642.599	7.23
642.633	4.23
642.666	11.23
642.7	1.23
642.734	10.23
642.768	-18.77
642.802	13.23
642.836	-7.77
642.87	-17.77
642.904	-0.77
642.938	-2.77
642.972	-9.77
643.005	6.23
643.039	11.23
643.073	-1.77
643.107	1.23
643.141	3.23
643.175	-3.77
643.209	1.23
643.243	2.23
643.276	2.23
643.31	-10.77
643.344	3.23
643.378	-7.77
643.412	-0.77
643.446	13.23
643.48	-7.77
643.513	-5.77
643.547	-26.77
643.581	2.23
643.615	-3.77
643.649	-7.77
643.683	10.23
643.716	-17.77
643.75	-19.77
643.784	-11.77
643.818	3.23
643.852	-2.77
643.886	-10.77
643.919	-11.77
643.953	-27.77
643.987	-6.77
644.021	0.23
644.055	-1.77
644.088	-6.77
644.122	-12.77
644.156	-8.77
644.19	4.23
644.224	-3.77
644.257	-5.77
644.291	-4.77
644.325	-12.77
644.359	-5.77
644.392	15.23
644.426	5.23
644.46	8.23
644.494	0.23
644.527	-22.77
644.561	9.23
644.595	7.23
644.629	-10.77
644.662	-12.77
644.696	-2.77
644.73	12.23
644.764	3.23
644.797	-6.77
644.831	-0.77
644.865	3.23
644.899	1.23
644.932	5.23
644.966	-7.77
645	-1.77
645.033	7.23
645.067	-13.77
645.101	3.23
645.135	-2.77
645.168	-20.77
645.202	-2.77
645.236	13.23
645.269	11.23
645.303	-7.77
645.337	-15.77
645.37	0.23
645.404	2.23
645.438	-7.77
645.471	-13.77
645.505	-7.77
645.539	-2.77
645.572	-24.77
645.606	-9.77
645.64	-4.77
645.673	1.23
645.707	12.23
645.741	-3.77
645.774	-6.77
645.808	6.23
645.842	3.23
645.875	4.23
645.909	-14.77
645.943	-15.77
645.976	-1.77
646.01	-9.77
646.043	3.23
646.077	5.23
646.111	15.23
646.144	19.23
646.178	7.23
646.212	-18.77
646.245	-4.77
646.279	-1.77
646.312	9.23
646.346	-1.77
646.38	-3.77
646.413	-11.77
646.447	1.23
646.48	-4.77
646.514	-9.77
646.547	-9.77
646.581	-6.77
646.615	12.23
646.648	-15.77
646.682	-9.77
646.715	-1.77
646.749	-1.77
646.782	-5.77
646.816	-2.77
646.85	3.23
646.883	-8.77
646.917	-7.77
646.95	17.23
646.984	11.23
647.017	-6.77
647.051	6.23
647.084	12.23
647.118	-1.77
647.151	-17.77
647.185	-2.77
647.218	-24.77
647.252	-8.77
647.285	-11.77
647.319	-26.77
647.353	0.23
647.386	11.23
647.42	-0.77
647.453	-4.77
647.487	7.23
647.52	9.23
647.553	-15.77
647.587	-8.77
647.62	-3.77
647.654	-2.77
647.687	-12.77
647.721	3.23
647.754	-11.77
647.788	-7.77
647.821	4.23
647.855	6.23
647.888	5.23
647.922	4.23
647.955	-7.77
647.989	-5.77
648.022	-23.77
648.055	-1.77
648.089	1.23
648.122	18.23
648.156	-6.77
648.189	-11.77
648.223	-12.77
648.256	5.23
648.29	-6.77
648.323	-6.77
648.356	13.23
648.39	12.23
648.423	0.23
648.457	-3.77
648.49	-4.77
648.523	7.23
648.557	-4.77
648.59	1.23
648.624	1.23
648.657	8.23
648.69	1.23
648.724	7.23
648.757	9.23
648.791	-0.77
648.824	5.23
648.857	2.23
648.891	0.23
648.924	-4.77
648.957	18.23
648.991	-11.77
649.024	16.23
649.057	1.23
649.091	-26.77
649.124	1.23
649.158	14.23
649.191	19.23
649.224	3.23
649.258	4.23
649.291	-2.77
649.324	2.23
649.358	7.23
649.391	-10.77
649.424	-10.77
649.458	-4.77
649.491	-1.77
649.524	2.23
649.557	6.23
649.591	-5.77
649.624	10.23
649.657	-9.77
649.691	0.23
649.724	-5.77
649.757	-24.77
649.791	-16.77
649.824	6.23
649.857	13.23
649.89	-4.77
649.924	-20.77
649.957	1.23
649.99	-20.77
650.023	-12.77
650.057	-14.77
650.09	-11.77
650.123	-18.77
650.157	11.23
650.19	7.23
650.223	-7.77
650.256	-20.77
650.29	-3.77
650.323	-6.77
650.356	-9.77
650.389	-18.77
650.423	-8.77
650.456	6.23
650.489	14.23
650.522	-0.77
650.555	3.23
650.589	11.23
650.622	11.23
650.655	22.23
650.688	7.23
650.721	-8.77
650.755	9.23
650.788	5.23
650.821	6.23
650.854	1.23
650.887	2.23
650.921	-8.77
650.954	-15.77
650.987	12.23
651.02	7.23
651.053	-9.77
651.087	-7.77
651.12	19.23
651.153	-2.77
651.186	-1.77
651.219	-9.77
651.252	3.23
651.286	2.23
651.319	-13.77
651.352	-11.77
651.385	-5.77
651.418	-3.77
651.451	-4.77
651.484	-2.77
651.518	-3.77
651.551	28.23
651.584	4.23
651.617	16.23
651.65	-9.77
651.683	6.23
651.716	-2.77
651.749	-5.77
651.783	5.23
651.816	-2.77
651.849	14.23
651.882	6.23
651.915	-3.77
651.948	4.23
651.981	-9.77
652.014	-15.77
652.047	-21.77
652.08	-18.77
652.114	2.23
652.147	-4.77
652.18	-6.77
652.213	18.23
652.246	-11.77
652.279	-16.77
652.312	4.23
652.345	1.23
652.378	1.23
652.411	5.23
652.444	5.23
652.477	-8.77
652.51	-12.77
652.543	-11.77
652.576	-5.77
652.609	-15.77
652.642	-0.77
652.675	10.23
652.709	-11.77
652.742	5.23
652.775	6.23
652.808	5.23
652.841	-6.77
652.874	5.23
652.907	0.23
652.94	-3.77
652.973	2.23
653.006	0.23
653.039	5.23
653.072	-11.77
653.105	2.23
653.138	1.23
653.171	-7.77
653.204	-6.77
653.237	8.23
653.27	0.23
653.303	9.23
653.336	0.23
653.368	-1.77
653.401	6.23
653.434	0.23
653.467	6.23
653.5	-12.77
653.533	-18.77
653.566	6.23
653.599	0.23
653.632	-6.77
653.665	1.23
653.698	-8.77
653.731	-10.77
653.764	4.23
653.797	-4.77
653.83	5.23
653.863	-11.77
653.896	-9.77
653.929	0.23
653.961	5.23
653.994	-2.77
654.027	-1.77
654.06	6.23
654.093	-7.77
654.126	3.23
654.159	-0.77
654.192	-10.77
654.225	-4.77
654.258	-13.77
654.29	5.23
654.323	8.23
654.356	4.23
654.389	5.23
654.422	-11.77
654.455	-9.77
654.488	-0.77
654.521	-7.77
654.553	-4.77
654.586	15.23
654.619	-21.77
654.652	-13.77
654.685	13.23
654.718	-8.77
654.751	12.23
654.783	0.23
654.816	2.23
654.849	-6.77
654.882	-8.77
654.915	-7.77
654.948	-17.77
654.98	-10.77
655.013	6.23
655.046	11.23
655.079	-3.77
655.112	9.23
655.144	-6.77
655.177	-12.77
655.21	19.23
655.243	15.23
655.276	-5.77
655.308	-2.77
655.341	-10.77
655.374	5.23
655.407	-11.77
655.44	-4.77
655.472	-3.77
655.505	-7.77
655.538	-2.77
655.571	15.23
655.603	13.23
655.636	-1.77
655.669	11.23
655.702	-1.77
655.734	0.23
655.767	1.23
655.8	-4.77
655.833	12.23
655.865	0.23
655.898	-1.77
655.931	7.23
655.964	17.23
655.996	10.23
656.029	23.23
656.062	48.23
656.095	67.23
656.127	81.23
656.16	212.23
656.193	600.23
656.225	931.23
656.258	553.23
656.291	206.23
656.324	176.23
656.356	356.23
656.389	772.23
656.422	646.23
656.454	247.23
656.487	72.23
656.52	25.23
656.552	5.23
656.585	7.23
656.618	9.23
656.65	14.23
656.683	6.23
656.716	-0.77
656.748	14.23
656.781	-9.77
656.814	8.23
656.846	5.23
656.879	1.23
656.912	-7.77
656.944	-29.77
656.977	-11.77
657.01	5.23
657.042	13.23
657.075	-0.77
657.108	-18.77
657.14	18.23
657.173	5.23
657.205	32.23
657.238	12.23
657.271	-2.77
657.303	-22.77
657.336	-15.77
657.369	-18.77
657.401	-12.77
657.434	-10.77
657.466	8.23
657.499	3.23
657.532	3.23
657.564	9.23
657.597	-8.77
657.629	6.23
657.662	14.23
657.694	6.23
657.727	-22.77
657.76	9.23
657.792	-5.77
657.825	-0.77
657.857	3.23
657.89	9.23
657.922	10.23
657.955	-5.77
657.987	6.23
658.02	1.23
658.053	-13.77
658.085	-1.77
658.118	-16.77
658.15	17.23
658.183	13.23
658.215	-6.77
658.248	-9.77
658.28	7.23
658.313	17.23
658.345	5.23
658.378	3.23
658.41	-8.77
658.443	-6.77
658.475	-1.77
658.508	4.23
658.54	-4.77
658.573	-3.77
658.605	-3.77
658.638	-24.77
658.67	-2.77
658.703	2.23
658.735	-15.77
658.768	-4.77
658.8	-28.77
658.833	6.23
658.865	6.23
658.898	5.23
658.93	-5.77
658.963	-5.77
658.995	-3.77
659.028	0.23
659.06	-13.77
659.092	-6.77
659.125	-13.77
659.157	16.23
659.19	-7.77
659.222	-10.77
659.255	7.23
659.287	-0.77
659.32	5.23
659.352	8.23
659.384	5.23
659.417	-23.77
659.449	-7.77
659.482	-0.77
659.514	-12.77
659.546	-4.77
659.579	-7.77
659.611	3.23
659.644	-2.77
659.676	-10.77
659.708	-27.77
659.741	-20.77
659.773	7.23
659.806	-7.77
659.838	17.23
659.87	7.23
659.903	-4.77
659.935	4.23
659.967	7.23
660	2.23
660.032	-18.77
660.065	12.23
660.097	1.23
660.129	6.23
660.162	-22.77
660.194	-6.77
660.226	-2.77
660.259	4.23
660.291	15.23
660.323	-0.77
660.356	-11.77
660.388	-21.77
660.42	8.23
660.453	7.23
660.485	7.23
660.517	10.23
660.55	8.23
660.582	5.23
660.614	2.23
660.647	12.23
660.679	-10.77
660.711	2.23
660.743	-8.77
660.776	-14.77
660.808	-5.77
660.84	-25.77
660.873	-12.77
660.905	6.23
660.937	7.23
660.969	1.23
661.002	2.23
661.034	12.23
661.066	6.23
661.099	6.23
661.131	4.23
661.163	2.23
661.195	5.23
661.228	16.23
661.26	-23.77
661.292	-6.77
661.324	5.23
661.357	-6.77
661.389	4.23
661.421	4.23
661.453	-27.77
661.485	-3.77
661.518	-4.77
661.55	-25.77
661.582	-29.77
661.614	8.23
661.647	-2.77
661.679	-4.77
661.711	-4.77
661.743	-11.77
661.775	-4.77
661.808	9.23
661.84	-23.77
661.872	0.23
661.904	0.23
661.936	-0.77
661.969	-2.77
662.001	-5.77
662.033	0.23
662.065	-7.77
662.097	11.23
662.129	7.23
662.162	-15.77
662.194	-4.77
662.226	-2.77
662.258	3.23
662.29	-9.77
662.322	-21.77
662.355	-18.77
662.387	-0.77
662.419	5.23
662.451	26.23
662.483	7.23
662.515	-18.77
662.547	-14.77
662.58	-6.77
662.612	-1.77
662.644	-10.77
662.676	0.23
662.708	14.23
662.74	-3.77
662.772	3.23
662.804	3.23
662.836	4.23
662.869	-10.77
662.901	8.23
662.933	-15.77
662.965	-1.77
662.997	4.23
663.029	-9.77
663.061	-21.77
663.093	4.23
663.125	-10.77
663.157	-1.77
663.189	-2.77
663.221	7.23
663.254	0.23
663.286	0.23
663.318	9.23
663.35	-3.77
663.382	-3.77
663.414	5.23
663.446	-6.77
663.478	-9.77
663.51	17.23
663.542	4.23
663.574	2.23
663.606	-4.77
663.638	-13.77
663.67	-14.77
663.702	-3.77
663.734	-13.77
663.766	-6.77
663.798	-29.77
663.83	-18.77
663.862	5.23
663.894	6.23
663.926	-2.77
663.958	15.23
663.99	8.23
664.022	-1.77
664.054	1.23
664.086	-9.77
664.118	-24.77
664.15	-10.77
664.182	2.23
664.214	-7.77
664.246	-4.77
664.278	4.23
664.31	3.23
664.342	6.23
664.374	-1.77
664.406	-4.77
664.438	-10.77
664.47	-4.77
664.502	-19.77
664.534	-10.77
664.566	-14.77
664.598	3.23
664.63	-21.77
664.662	-3.77
664.693	-7.77
664.725	4.23
664.757	-2.77
664.789	-29.77
664.821	-3.77
664.853	-4.77
664.885	-15.77
664.917	-3.77
664.949	4.23
664.981	13.23
665.013	0.23
665.045	-3.77
665.076	-4.77
665.108	-8.77
665.14	-4.77
665.172	13.23
665.204	-11.77
665.236	-12.77
665.268	-4.77
665.3	-15.77
665.331	-12.77
665.363	6.23
665.395	-9.77
665.427	-10.77
665.459	-5.77
665.491	-2.77
665.523	-6.77
665.555	2.23
665.586	-10.77
665.618	-8.77
665.65	-21.77
665.682	11.23
665.714	20.23
665.746	-14.77
665.777	-17.77
665.809	-3.77
665.841	-6.77
665.873	-17.77
665.905	-10.77
665.937	-0.77
665.968	8.23
666	1.23
666.032	4.23
666.064	1.23
666.096	-8.77
666.127	5.23
666.159	2.23
666.191	8.23
666.223	5.23
666.255	-4.77
666.286	5.23
666.318	4.23
666.35	11.23
666.382	-8.77
666.413	-6.77
666.445	-20.77
666.477	-21.77
666.509	-9.77
666.54	-12.77
666.572	-11.77
666.604	-17.77
666.636	-6.77
666.667	11.23
666.699	6.23
666.731	-18.77
666.763	-0.77
666.794	2.23
666.826	4.23
666.858	-9.77
666.89	7.23
666.921	17.23
666.953	-11.77
666.985	0.23
667.017	17.23
667.048	5.23
667.08	-5.77
667.112	-9.77
667.143	-12.77
667.175	-0.77
667.207	3.23
667.238	9.23
667.27	-1.77
667.302	-7.77
667.334	-1.77
667.365	2.23
667.397	-8.77
667.429	1.23
667.46	20.23
667.492	12.23
667.524	0.23
667.555	-12.77
667.587	5.23
667.619	-10.77
667.65	2.23
667.682	-11.77
667.714	6.23
667.745	6.23
667.777	7.23
667.808	12.23
667.84	10.23
667.872	2.23
667.903	20.23
667.935	-6.77
667.967	-12.77
667.998	-5.77
668.03	-9.77
668.061	-3.77
668.093	-1.77
668.125	8.23
668.156	-9.77
668.188	-7.77
668.22	-5.77
668.251	3.23
668.283	-10.77
668.314	10.23
668.346	-22.77
668.377	-14.77
668.409	-7.77
668.441	-2.77
668.472	0.23
668.504	20.23
668.535	11.23
668.567	-1.77
668.599	-13.77
668.63	-12.77
668.662	-14.77
668.693	6.23
668.725	-6.77
668.756	-5.77
668.788	7.23
668.819	-2.77
668.851	-4.77
668.882	-11.77
668.914	-1.77
668.946	-6.77
668.977	-5.77
669.009	-15.77
669.04	-21.77
669.072	-6.77
669.103	-8.77
669.135	-15.77
669.166	8.23
669.198	-7.77
669.229	8.23
669.261	-7.77
669.292	8.23
669.324	1.23
669.355	-7.77
669.387	-16.77
669.418	-1.77
669.45	-18.77
669.481	-9.77
669.513	10.23
669.544	0.23
669.576	-2.77
669.607	9.23
669.639	-6.77
669.67	-21.77
669.701	1.23
669.733	-10.77
669.764	-9.77
669.796	-1.77
669.827	-9.77
669.859	-17.77
669.89	5.23
669.922	12.23
669.953	2.23
669.985	-6.77
670.016	0.23
670.047	-5.77
670.079	-1.77
670.11	-14.77
670.142	2.23
670.173	6.23
670.204	-1.77
670.236	-6.77
670.267	-14.77
670.299	-8.77
670.33	3.23
670.362	-2.77
670.393	-16.77
670.424	7.23
670.456	-16.77
670.487	0.23
670.518	-5.77
670.55	2.23
670.581	-1.77
670.613	-1.77
670.644	-7.77
670.675	-17.77
670.707	-11.77
670.738	3.23
670.769	-0.77
670.801	-7.77
670.832	-0.77
670.864	-13.77
670.895	6.23
670.926	2.23
670.958	-2.77
670.989	5.23
671.02	-15.77
671.052	-1.77
671.083	-11.77
671.114	-2.77
671.146	15.23
671.177	5.23
671.208	-2.77
671.24	-15.77
671.271	-8.77
671.302	-6.77
671.333	-12.77
671.365	2.23
671.396	-6.77
671.427	2.23
671.459	0.23
671.49	1.23
671.521	8.23
671.553	2.23
671.584	10.23
671.615	9.23
671.646	-8.77
671.678	-8.77
671.709	-13.77
671.74	-20.77
671.771	-11.77
671.803	-5.77
671.834	2.23
671.865	-7.77
671.896	23.23
671.928	9.23
671.959	-15.77
671.99	6.23
672.021	-5.77
672.053	-4.77
672.084	11.23
672.115	-3.77
672.146	-18.77
672.178	-19.77
672.209	-2.77
672.24	1.23
672.271	19.23
672.303	-4.77
672.334	-5.77
672.365	-3.77
672.396	-0.77
672.427	2.23
672.459	14.23
672.49	28.23
672.521	6.23
672.552	16.23
672.583	10.23
672.615	2.23
672.646	8.23
672.677	2.23
672.708	-11.77
672.739	2.23
672.77	-11.77
672.802	-12.77
672.833	-3.77
672.864	-8.77
672.895	0.23
672.926	-5.77
672.957	-5.77
672.989	-1.77
673.02	-8.77
673.051	-2.77
673.082	21.23
673.113	5.23
673.144	10.23
673.175	5.23
673.206	0.23
673.238	-8.77
673.269	-5.77
673.3	6.23
673.331	4.23
673.362	-0.77
673.393	6.23
673.424	-6.77
673.455	13.23
673.487	13.23
673.518	9.23
673.549	8.23
673.58	-3.77
673.611	-1.77
673.642	0.23
673.673	-21.77
673.704	-10.77
673.735	2.23
673.766	2.23
673.797	-2.77
673.828	-12.77
673.86	-13.77
673.891	-22.77
673.922	-9.77
673.953	-23.77
673.984	-4.77
674.015	1.23
674.046	-0.77
674.077	5.23
674.108	-1.77
674.139	-10.77
674.17	7.23
674.201	-0.77
674.232	0.23
674.263	-13.77
674.294	-6.77
674.325	-18.77
674.356	-2.77
674.387	-8.77
674.418	2.23
674.449	-4.77
674.48	-13.77
674.511	3.23
674.542	11.23
674.573	-9.77
674.604	-2.77
674.635	-5.77
674.666	0.23
674.697	1.23
674.728	-1.77
674.759	11.23
674.79	-7.77
674.821	-16.77
674.852	-4.77
674.883	-1.77
674.914	-11.77
674.945	-5.77
674.976	9.23
675.007	-2.77
675.038	-3.77
675.069	-27.77
675.1	-0.77
675.131	2.23
675.162	-6.77
675.193	-6.77
675.224	-12.77
675.254	4.23
675.285	5.23
675.316	5.23
675.347	5.23
675.378	-6.77
675.409	-12.77
675.44	5.23
675.471	5.23
675.502	-19.77
675.533	-12.77
675.564	-13.77
675.595	-0.77
675.625	28.23
675.656	7.23
675.687	4.23
675.718	-21.77
675.749	4.23
675.78	-1.77
675.811	0.23
675.842	5.23
675.873	-2.77
675.903	-15.77
675.934	-17.77
675.965	-13.77
675.996	-6.77
676.027	-11.77
676.058	-8.77
676.089	-11.77
676.119	9.23
676.15	-8.77
676.181	-4.77
676.212	2.23
676.243	-2.77
676.274	-5.77
676.304	20.23
676.335	-11.77
676.366	-3.77
676.397	-11.77
676.428	-4.77
676.459	-2.77
676.489	-0.77
676.52	10.23
676.551	3.23
676.582	-7.77
676.613	-1.77
676.643	-9.77
676.674	-8.77
676.705	0.23
676.736	1.23
676.767	27.23
676.797	2.23
676.828	1.23
676.859	-3.77
676.89	-6.77
676.92	-25.77
676.951	7.23
676.982	2.23
677.013	2.23
677.044	9.23
677.074	-3.77
677.105	-4.77
677.136	0.23
677.167	-0.77
677.197	-2.77
677.228	-10.77
677.259	-17.77
677.289	-4.77
677.32	-19.77
677.351	-11.77
677.382	-10.77
677.412	-8.77
677.443	7.23
677.474	2.23
677.505	-13.77
677.535	3.23
677.566	4.23
677.597	-14.77
677.627	1.23
677.658	-0.77
677.689	-3.77
677.72	-11.77
677.75	-11.77
677.781	-4.77
677.812	-3.77
677.842	-5.77
677.873	-2.77
677.904	-5.77
677.934	-20.77
677.965	-24.77
677.996	-13.77
678.026	-11.77
678.057	-7.77
678.088	-23.77
678.118	-14.77
678.149	-16.77
678.18	-5.77
678.21	-0.77
678.241	-3.77
678.272	-5.77
678.302	-3.77
678.333	11.23
678.363	1.23
678.394	-15.77
678.425	-5.77
678.455	-2.77
678.486	1.23
678.517	0.23
678.547	-2.77
678.578	-4.77
678.608	-11.77
678.639	-8.77
678.67	8.23
678.7	-2.77
678.731	-21.77
678.761	-12.77
678.792	3.23
678.823	-9.77
678.853	7.23
678.884	-26.77
678.914	6.23
678.945	-8.77
678.975	-8.77
679.006	-1.77
679.037	-17.77
679.067	19.23
679.098	-13.77
679.128	-22.77
679.159	-7.77
679.189	4.23
679.22	-19.77
679.25	-11.77
679.281	-4.77
679.312	-13.77
679.342	1.23
679.373	14.23
679.403	9.23
679.434	1.23
679.464	-11.77
679.495	-9.77
679.525	9.23
679.556	9.23
679.586	-4.77
679.617	4.23
679.647	-1.77
679.678	-5.77
679.708	-5.77
679.739	-7.77
679.769	-6.77
679.8	5.23
679.83	8.23
679.861	18.23
679.891	-17.77
679.922	-7.77
679.952	-3.77
679.983	-6.77
680.013	-0.77
680.044	-13.77
680.074	3.23
680.105	1.23
680.135	-0.77
680.165	18.23
680.196	9.23
680.226	3.23
680.257	11.23
680.287	8.23
680.318	-16.77
680.348	-6.77
680.379	5.23
680.409	3.23
680.439	2.23
680.47	-8.77
680.5	-9.77
680.531	-5.77
680.561	5.23
680.592	0.23
680.622	20.23
680.652	-2.77
680.683	3.23
680.713	-7.77
680.744	-5.77
680.774	-14.77
680.804	11.23
680.835	-8.77
680.865	-1.77
680.896	3.23
680.926	23.23
680.956	5.23
680.987	0.23
681.017	2.23
681.047	-6.77
681.078	-2.77
681.108	-7.77
681.139	-6.77
681.169	0.23
681.199	-10.77
681.23	14.23
681.26	-10.77
681.29	2.23
681.321	-13.77
681.351	22.23
681.381	-23.77
681.412	-4.77
681.442	-3.77
681.472	18.23
681.503	10.23
681.533	0.23
681.563	-11.77
681.594	-10.77
681.624	-2.77
681.654	-22.77
681.685	1.23
681.715	-1.77
681.745	-14.77
681.775	-2.77
681.806	-3.77
681.836	0.23
681.866	-11.77
681.897	0.23
681.927	-10.77
681.957	-19.77
681.987	-0.77
682.018	-13.77
682.048	1.23
682.078	3.23
682.109	14.23
682.139	15.23
682.169	-0.77
682.199	-1.77
682.23	7.23
682.26	10.23
682.29	-1.77
682.32	-17.77
682.351	13.23
682.381	-2.77
682.411	-0.77
682.441	-7.77
682.472	-12.77
682.502	4.23
682.532	-11.77
682.562	0.23
682.592	-3.77
682.623	5.23
682.653	5.23
682.683	-10.77
682.713	-1.77
682.743	5.23
682.774	-9.77
682.804	-5.77
682.834	15.23
682.864	-10.77
682.894	-3.77
682.925	5.23
682.955	-6.77
682.985	-26.77
683.015	12.23
683.045	23.23
683.076	-10.77
683.106	0.23
683.136	-9.77
683.166	-19.77
683.196	-11.77
683.226	-13.77
683.257	-3.77
683.287	-6.77
683.317	-12.77
683.347	-18.77
683.377	-1.77
683.407	7.23
683.437	-1.77
683.468	3.23
683.498	-9.77
683.528	-19.77
683.558	0.23
683.588	-4.77
683.618	-10.77
683.648	-3.77
683.678	-5.77
683.708	5.23
683.739	3.23
683.769	2.23
683.799	-5.77
683.829	8.23
683.859	5.23
683.889	13.23
683.919	-1.77
683.949	-4.77
683.979	-13.77
684.009	1.23
684.039	-8.77
684.07	-15.77
684.1	7.23
684.13	8.23
684.16	-10.77
684.19	-17.77
684.22	-4.77
684.25	6.23
684.28	-6.77
684.31	12.23
684.34	12.23
684.37	10.23
684.4	-3.77
684.43	17.23
684.46	16.23
684.49	5.23
684.52	17.23
684.55	19.23
684.58	-9.77
684.61	8.23
684.64	5.23
684.67	9.23
684.7	0.23
684.73	8.23
684.76	14.23
684.79	15.23
684.82	-7.77
684.85	-20.77
684.88	9.23
684.91	-8.77
684.94	-2.77
684.97	-5.77
685	-3.77
685.03	5.23
685.06	0.23
685.09	-3.77
685.12	12.23
685.15	-25.77
685.18	1.23
685.21	-6.77
685.24	10.23
685.27	7.23
685.3	6.23
685.33	13.23
685.36	-1.77
685.39	-13.77
685.42	-15.77
685.45	2.23
685.48	5.23
685.51	-5.77
685.54	-1.77
685.569	0.23
685.599	5.23
685.629	-2.77
685.659	0.23
685.689	-15.77
685.719	-9.77
685.749	-17.77
685.779	-0.77
685.809	13.23
685.839	10.23
685.869	-7.77
685.898	-0.77
685.928	-4.77
685.958	6.23
685.988	8.23
686.018	-15.77
686.048	-10.77
686.078	16.23
686.108	4.23
686.137	0.23
686.167	22.23
686.197	-11.77
686.227	-3.77
686.257	9.23
686.287	9.23
686.317	14.23
686.346	-2.77
686.376	-10.77
686.406	2.23
686.436	4.23
686.466	0.23
686.496	2.23
686.525	-1.77
686.555	-2.77
686.585	18.23
686.615	25.23
686.645	6.23
686.675	-7.77
686.704	-0.77
686.734	-3.77
686.764	-3.77
686.794	-6.77
686.824	-6.77
686.853	1.23
686.883	5.23
686.913	4.23
686.943	4.23
686.973	-13.77
687.002	0.23
687.032	-0.77
687.062	-7.77
687.092	11.23
687.121	3.23
687.151	4.23
687.181	-15.77
687.211	9.23
687.24	-10.77
687.27	-14.77
687.3	-15.77
687.33	0.23
687.359	-21.77
687.389	5.23
687.419	-3.77
687.449	8.23
687.478	7.23
687.508	-12.77
687.538	5.23
687.568	9.23
687.597	-5.77
687.627	10.23
687.657	9.23
687.686	-0.77
687.716	22.23
687.746	-5.77
687.776	-10.77
687.805	3.23
687.835	6.23
687.865	9.23
687.894	5.23
687.924	-8.77
687.954	-17.77
687.983	-6.77
688.013	10.23
688.043	15.23
688.072	-4.77
688.102	8.23
688.132	-6.77
688.161	6.23
688.191	-4.77
688.221	34.23
688.25	3.23
688.28	15.23
688.31	1.23
688.339	4.23
688.369	-6.77
688.399	-14.77
688.428	-10.77
688.458	6.23
688.488	-8.77
688.517	15.23
688.547	-11.77
688.576	32.23
688.606	8.23
688.636	-3.77
688.665	-3.77
688.695	0.23
688.725	4.23
688.754	20.23
688.784	4.23
688.813	8.23
688.843	5.23
688.873	8.23
688.902	-6.77
688.932	-6.77
688.961	-5.77
688.991	21.23
689.02	5.23
689.05	-8.77
689.08	-4.77
689.109	13.23
689.139	-6.77
689.168	5.23
689.198	16.23
689.227	-0.77
689.257	7.23
689.287	8.23
689.316	-2.77
689.346	-12.77
689.375	-3.77
689.405	0.23
689.434	-1.77
689.464	11.23
689.493	0.23
689.523	-3.77
689.552	-6.77
689.582	1.23
689.611	-2.77
689.641	5.23
689.67	1.23
689.7	9.23
689.73	20.23
689.759	10.23
689.789	21.23
689.818	-0.77
689.848	-6.77
689.877	18.23
689.906	-3.77
689.936	2.23
689.965	7.23
689.995	8.23
690.024	3.23
690.054	-4.77
690.083	0.23
690.113	-0.77
690.142	0.23
690.172	2.23
690.201	5.23
690.231	-9.77
690.26	-5.77
690.29	0.23
690.319	-3.77
690.348	2.23
690.378	3.23
690.407	0.23
690.437	4.23
690.466	1.23
690.496	4.23
690.525	1.23
690.555	0.23
690.584	-3.77
690.613	8.23
690.643	5.23
690.672	0.23
690.702	13.23
690.731	-3.77
690.76	-8.77
690.79	-4.77
690.819	-11.77
690.849	0.23
690.878	9.23
690.907	9.23
690.937	15.23
690.966	12.23
690.996	-10.77
691.025	12.23
691.054	2.23
691.084	6.23
691.113	-6.77
691.142	2.23
691.172	11.23
691.201	8.23
691.23	-8.77
691.26	-5.77
691.289	-4.77
691.319	-3.77
691.348	0.23
691.377	7.23
691.407	7.23
691.436	8.23
691.465	0.23
691.495	-2.77
691.524	-28.77
691.553	-12.77
691.583	-1.77
691.612	34.23
691.641	4.23
691.67	-6.77
691.7	-13.77
691.729	-26.77
691.758	-12.77
691.788	7.23
691.817	3.23
691.846	-14.77
691.876	5.23
691.905	5.23
691.934	-1.77
691.963	-0.77
691.993	0.23
692.022	-14.77
692.051	-24.77
692.081	2.23
692.11	29.23
692.139	-1.77
692.168	5.23
692.198	10.23
692.227	-4.77
692.256	13.23
692.285	-4.77
692.315	4.23
692.344	2.23
692.373	3.23
692.402	-5.77
692.432	-11.77
692.461	2.23
692.49	-3.77
692.519	-4.77
692.548	2.23
692.578	11.23
692.607	-7.77
692.636	-13.77
692.665	0.23
692.694	-17.77
692.724	1.23
692.753	16.23
692.782	5.23
692.811	0.23
692.84	-3.77
692.87	-10.77
692.899	-4.77
692.928	5.23
692.957	13.23
692.986	2.23
693.016	0.23
693.045	0.23
693.074	15.23
693.103	-6.77
693.132	-8.77
693.161	4.23
693.191	-5.77
693.22	-5.77
693.249	-14.77
693.278	-2.77
693.307	-4.77
693.336	6.23
693.365	-10.77
693.395	-7.77
693.424	10.23
693.453	21.23
693.482	-6.77
693.511	7.23
693.54	16.23
693.569	15.23
693.598	17.23
693.628	18.23
693.657	6.23
693.686	18.23
693.715	12.23
693.744	6.23
693.773	11.23
693.802	5.23
693.831	3.23
693.86	9.23
693.889	0.23
693.919	1.23
693.948	12.23
693.977	3.23
694.006	11.23
694.035	-0.77
694.064	0.23
694.093	-4.77
694.122	-7.77
694.151	-4.77
694.18	0.23
694.209	14.23
694.238	1.23
694.267	7.23
694.296	-5.77
694.325	12.23
694.354	20.23
694.383	-1.77
694.412	-15.77
694.441	-24.77
694.471	-6.77
694.5	-25.77
694.529	1.23
694.558	10.23
694.587	-0.77
694.616	-3.77
694.645	-3.77
694.674	9.23
694.703	16.23
694.732	0.23
694.761	1.23
694.79	-1.77
694.819	-22.77
694.848	0.23
694.877	22.23
694.906	28.23
694.935	2.23
694.963	13.23
694.992	1.23
695.021	0.23
695.05	2.23
695.079	4.23
695.108	3.23
695.137	21.23
695.166	13.23
695.195	-9.77
695.224	7.23
695.253	-4.77
695.282	6.23
695.311	11.23
695.34	0.23
695.369	9.23
695.398	10.23
695.427	20.23
695.456	7.23
695.485	9.23
695.513	10.23
695.542	8.23
695.571	10.23
695.6	26.23
695.629	8.23
695.658	12.23
695.687	-18.77
695.716	2.23
695.745	25.23
695.774	-6.77
695.802	-2.77
695.831	8.23
695.86	14.23
695.889	5.23
695.918	6.23
695.947	-3.77
695.976	1.23
696.005	-1.77
696.033	-6.77
696.062	10.23
696.091	-0.77
696.12	3.23
696.149	6.23
696.178	13.23
696.207	1.23
696.235	-24.77
696.264	-0.77
696.293	-3.77
696.322	-2.77
696.351	5.23
696.38	5.23
696.408	9.23
696.437	3.23
696.466	12.23
696.495	12.23
696.524	9.23
696.553	9.23
696.581	15.23
696.61	-6.77
696.639	-3.77
696.668	9.23
696.697	-3.77
696.725	6.23
696.754	8.23
696.783	13.23
696.812	-2.77
696.84	10.23
696.869	3.23
696.898	4.23
696.927	-6.77
696.956	21.23
696.984	-5.77
697.013	5.23
697.042	1.23
697.071	3.23
697.099	18.23
697.128	17.23
697.157	14.23
697.186	-5.77
697.214	-22.77
697.243	-11.77
697.272	2.23
697.301	-2.77
697.329	7.23
697.358	9.23
697.387	21.23
697.415	10.23
697.444	-3.77
697.473	3.23
697.502	-7.77
697.53	4.23
697.559	-8.77
697.588	9.23
697.616	1.23
697.645	-7.77
697.674	17.23
697.703	-3.77
697.731	4.23
697.76	16.23
697.789	9.23
697.817	6.23
697.846	11.23
697.875	7.23
697.903	14.23
697.932	4.23
697.961	7.23
697.989	4.23
698.018	11.23
698.047	9.23
698.075	9.23
698.104	3.23
698.133	10.23
698.161	-2.77
698.19	12.23
698.218	-6.77
698.247	14.23
698.276	-25.77
698.304	5.23
698.333	10.23
698.362	-2.77
698.39	-11.77
698.419	-4.77
698.447	-2.77
698.476	-3.77
698.505	3.23
698.533	-13.77
698.562	-1.77
698.591	-6.77
698.619	10.23
698.648	0.23
698.676	9.23
698.705	4.23
698.733	-14.77
698.762	5.23
698.791	-2.77
698.819	3.23
698.848	-13.77
698.876	11.23
698.905	6.23
698.933	-1.77
698.962	-5.77
698.991	4.23
699.019	12.23
699.048	-0.77
699.076	20.23
699.105	0.23
699.133	5.23
699.162	5.23
699.19	8.23
699.219	15.23
699.248	13.23
699.276	11.23
699.305	-3.77
699.333	10.23
699.362	11.23
699.39	13.23
699.419	-8.77
699.447	25.23
699.476	23.23
699.504	14.23
699.533	4.23
699.561	-18.77
699.59	-0.77
699.618	-11.77
699.647	-3.77
699.675	-5.77
699.704	-6.77
699.732	1.23
699.761	11.23
699.789	-2.77
699.818	3.23
699.846	2.23
699.874	-15.77
699.903	-5.77
699.931	-5.77
699.96	-8.77
699.988	-1.77
700.017	-2.77
700.045	-15.77
700.074	1.23
700.102	4.23
700.13	-3.77
700.159	-8.77
700.187	-2.77
700.216	-4.77
700.244	-17.77
700.273	-2.77
700.301	-10.77
700.329	1.23
700.358	6.23
700.386	5.23
700.415	-9.77
700.443	-7.77
700.472	0.23
700.5	-8.77
700.528	10.23
700.557	1.23
700.585	4.23
700.614	-1.77
700.642	9.23
700.67	9.23
700.699	25.23
700.727	-1.77
700.755	0.23
700.784	-7.77
700.812	-4.77
700.841	5.23
700.869	2.23
700.897	-7.77
700.926	-17.77
700.954	16.23
700.982	4.23
701.011	4.23
701.039	11.23
701.067	-1.77
701.096	15.23
701.124	-5.77
701.152	5.23
701.181	1.23
701.209	-9.77
701.237	-10.77
701.266	-7.77
701.294	-13.77
701.322	-2.77
701.351	9.23
701.379	2.23
701.407	5.23
701.435	-9.77
701.464	14.23
701.492	14.23
701.52	3.23
701.549	-6.77
701.577	-4.77
701.605	-7.77
701.634	-3.77
701.662	8.23
701.69	-8.77
701.718	-4.77
701.747	7.23
701.775	-2.77
701.803	4.23
701.831	17.23
701.86	1.23
701.888	2.23
701.916	0.23
701.944	-4.77
701.973	-6.77
702.001	-4.77
702.029	-14.77
702.057	-7.77
702.086	-21.77
702.114	-10.77
702.142	-13.77
702.17	5.23
702.199	-10.77
702.227	-5.77
702.255	10.23
702.283	-1.77
702.311	2.23
702.34	-4.77
702.368	-10.77
702.396	-7.77
702.424	-4.77
702.452	2.23
702.481	2.23
702.509	-10.77
702.537	0.23
702.565	2.23
702.593	-18.77
702.621	-4.77
702.65	11.23
702.678	-3.77
702.706	15.23
702.734	4.23
702.762	25.23
702.79	-1.77
702.819	2.23
702.847	-5.77
702.875	-0.77
702.903	6.23
702.931	-3.77
702.959	2.23
702.988	3.23
703.016	2.23
703.044	1.23
703.072	-24.77
703.1	-8.77
703.128	-8.77
703.156	-3.77
703.184	0.23
703.212	10.23
703.241	-12.77
703.269	-3.77
703.297	4.23
703.325	8.23
703.353	-3.77
703.381	-11.77
703.409	1.23
703.437	-10.77
703.465	-14.77
703.493	-5.77
703.522	13.23
703.55	-4.77
703.578	1.23
703.606	-25.77
703.634	-7.77
703.662	-7.77
703.69	-8.77
703.718	8.23
703.746	10.23
703.774	-22.77
703.802	7.23
703.83	-17.77
703.858	2.23
703.886	-3.77
703.914	-11.77
703.942	11.23
703.97	-3.77
703.998	-10.77
704.027	10.23
704.055	14.23
704.083	2.23
704.111	9.23
704.139	4.23
704.167	-27.77
704.195	-0.77
704.223	-7.77
704.251	-16.77
704.279	5.23
704.307	-2.77
704.335	-1.77
704.363	-3.77
704.391	1.23
704.419	-12.77
704.447	-0.77
704.475	-11.77
704.503	-8.77
704.531	6.23
704.558	7.23
704.586	-1.77
704.614	0.23
704.642	-4.77
704.67	-8.77
704.698	10.23
704.726	12.23
704.754	12.23
704.782	5.23
704.81	-0.77
704.838	19.23
704.866	20.23
704.894	-1.77
704.922	1.23
704.95	13.23
704.978	2.23
705.006	0.23
705.034	26.23
705.061	-13.77
705.089	-3.77
705.117	-5.77
705.145	-5.77
705.173	-18.77
705.201	-7.77
705.229	-4.77
705.257	-7.77
705.285	-12.77
705.313	2.23
705.34	6.23
705.368	-7.77
705.396	-2.77
705.424	-7.77
705.452	-3.77
705.48	11.23
705.508	-1.77
705.536	10.23
705.563	-20.77
705.591	-3.77
705.619	1.23
705.647	-22.77
705.675	-7.77
705.703	-4.77
705.731	-3.77
705.758	8.23
705.786	-4.77
705.814	7.23
705.842	3.23
705.87	19.23
705.898	4.23
705.925	2.23
705.953	11.23
705.981	-13.77
706.009	-0.77
706.037	3.23
706.065	-0.77
706.092	-12.77
706.12	-3.77
706.148	-8.77
706.176	1.23
706.204	1.23
706.231	8.23
706.259	-9.77
706.287	-13.77
706.315	-5.77
706.342	1.23
706.37	1.23
706.398	6.23
706.426	-8.77
706.454	-9.77
706.481	-3.77
706.509	12.23
706.537	-22.77
706.565	-13.77
706.592	4.23
706.62	-8.77
706.648	7.23
706.676	-11.77
706.703	-0.77
706.731	-2.77
706.759	-5.77
706.787	1.23
706.814	10.23
706.842	-1.77
706.87	-14.77
706.897	-12.77
706.925	-1.77
706.953	-2.77
706.981	14.23
707.008	2.23
707.036	-6.77
707.064	-8.77
707.091	-4.77
707.119	22.23
707.147	0.23
707.174	-8.77
707.202	0.23
707.23	-6.77
707.258	7.23
707.285	-3.77
707.313	-7.77
707.341	-9.77
707.368	-19.77
707.396	5.23
707.424	19.23
707.451	15.23
707.479	3.23
707.507	-4.77
707.534	3.23
707.562	-8.77
707.59	-15.77
707.617	-15.77
707.645	1.23
707.672	2.23
707.7	-6.77
707.728	5.23
707.755	22.23
707.783	-2.77
707.811	-0.77
707.838	-3.77
707.866	-0.77
707.893	-8.77
707.921	-17.77
707.949	-8.77
707.976	-4.77
708.004	3.23
708.031	-17.77
708.059	-19.77
708.087	6.23
708.114	-5.77
708.142	-11.77
708.169	-0.77
708.197	-8.77
708.225	-10.77
708.252	-7.77
708.28	1.23
708.307	-5.77
708.335	3.23
708.362	2.23
708.39	-10.77
708.418	-8.77
708.445	-4.77
708.473	-9.77
708.5	-1.77
708.528	16.23
708.555	0.23
708.583	-2.77
708.61	-1.77
708.638	-2.77
708.665	-3.77
708.693	-0.77
708.72	5.23
708.748	-19.77
708.776	7.23
708.803	11.23
708.831	20.23
708.858	0.23
708.886	1.23
708.913	-7.77
708.941	2.23
708.968	14.23
708.996	-10.77
709.023	19.23
709.051	-1.77
709.078	-12.77
709.105	11.23
709.133	11.23
709.16	6.23
709.188	1.23
709.215	6.23
709.243	4.23
709.27	-19.77
709.298	-8.77
709.325	-17.77
709.353	-6.77
709.38	3.23
709.408	0.23
709.435	1.23
709.462	1.23
709.49	-6.77
709.517	-5.77
709.545	-1.77
709.572	-3.77
709.6	-9.77
709.627	-1.77
709.655	-1.77
709.682	-3.77
709.709	-3.77
709.737	-5.77
709.764	-11.77
709.792	20.23
709.819	1.23
709.846	-1.77
709.874	-5.77
709.901	16.23
709.929	22.23
709.956	12.23
709.983	-0.77
710.011	-10.77
710.038	-9.77
710.066	13.23
710.093	18.23
710.12	3.23
710.148	-7.77
710.175	-13.77
710.202	2.23
710.23	0.23
710.257	-0.77
710.284	-0.77
710.312	-3.77
710.339	-7.77
710.366	6.23
710.394	-8.77
710.421	-12.77
710.448	-4.77
710.476	-9.77
710.503	-6.77
710.53	4.23
710.558	24.23
710.585	0.23
710.612	-8.77
710.64	2.23
710.667	5.23
710.694	-11.77
710.722	-4.77
710.749	4.23
710.776	-4.77
710.804	0.23
710.831	0.23
710.858	13.23
710.885	9.23
710.913	1.23
710.94	20.23
710.967	-11.77
710.995	-11.77
711.022	-10.77
711.049	-4.77
711.076	-4.77
711.104	-22.77
711.131	-4.77
711.158	-2.77
711.185	4.23
711.213	-5.77
711.24	-8.77
711.267	-12.77
711.294	0.23
711.322	8.23
711.349	-7.77
711.376	-12.77
711.403	-7.77
711.431	-3.77
711.458	-0.77
711.485	-20.77
711.512	-3.77
711.54	-14.77
711.567	3.23
711.594	-11.77
711.621	0.23
711.648	6.23
711.676	-6.77
711.703	1.23
711.73	-10.77
711.757	2.23
711.784	3.23
711.812	-15.77
711.839	3.23
711.866	-7.77
711.893	-5.77
711.92	-7.77
711.947	-3.77
711.975	-6.77
712.002	-0.77
712.029	6.23
712.056	1.23
712.083	5.23
712.11	-26.77
712.138	-25.77
712.165	-3.77
712.192	-6.77
712.219	-3.77
712.246	5.23
712.273	-21.77
712.3	-4.77
712.328	-5.77
712.355	-8.77
712.382	-6.77
712.409	8.23
712.436	-11.77
712.463	8.23
712.49	9.23
712.517	8.23
712.544	-14.77
712.572	-7.77
712.599	-2.77
712.626	-2.77
712.653	-4.77
712.68	1.23
712.707	8.23
712.734	3.23
712.761	-11.77
712.788	-2.77
712.815	3.23
712.842	0.23
712.87	10.23
712.897	-7.77
712.924	1.23
712.951	3.23
712.978	18.23
713.005	8.23
713.032	0.23
713.059	0.23
713.086	4.23
713.113	4.23
713.14	-11.77
713.167	-5.77
713.194	-0.77
713.221	-14.77
713.248	10.23
713.275	-2.77
713.302	-12.77
713.329	-11.77
713.356	12.23
713.383	8.23
713.41	1.23
713.437	-8.77
713.464	1.23
713.491	10.23
713.518	-7.77
713.545	-6.77
713.572	1.23
713.599	11.23
713.626	-0.77
713.653	-13.77
713.68	-15.77
713.707	-0.77
713.734	-2.77
713.761	-13.77
713.788	-2.77
713.815	11.23
713.842	-6.77
713.869	2.23
713.896	-19.77
713.923	-10.77
713.95	-8.77
713.977	-19.77
714.004	6.23
714.031	-5.77
714.058	-10.77
714.085	-6.77
714.112	-2.77
714.139	-7.77
714.165	-8.77
714.192	-7.77
714.219	-3.77
714.246	-9.77
714.273	-2.77
714.3	-1.77
714.327	-4.77
714.354	-11.77
714.381	-2.77
714.408	-4.77
714.435	-3.77
714.461	-3.77
714.488	6.23
714.515	4.23
714.542	-0.77
714.569	-3.77
714.596	-14.77
714.623	-4.77
714.65	6.23
714.677	-5.77
714.703	0.23
714.73	-5.77
714.757	-1.77
714.784	-2.77
714.811	-9.77
714.838	-2.77
714.865	-9.77
714.891	20.23
714.918	5.23
714.945	3.23
714.972	-3.77
714.999	6.23
715.026	-13.77
715.052	3.23
715.079	4.23
715.106	-2.77
715.133	1.23
715.16	-8.77
715.187	6.23
715.213	6.23
715.24	0.23
715.267	-2.77
715.294	3.23
715.321	0.23
715.347	-11.77
715.374	-5.77
715.401	0.23
715.428	1.23
715.455	-1.77
715.481	-5.77
715.508	7.23
715.535	3.23
715.562	4.23
715.588	-8.77
715.615	-6.77
715.642	-1.77
715.669	13.23
715.695	-8.77
715.722	1.23
715.749	8.23
715.776	16.23
715.802	8.23
715.829	3.23
715.856	1.23
715.883	2.23
715.909	-17.77
715.936	0.23
715.963	-6.77
715.99	-7.77
716.016	2.23
716.043	-1.77
716.07	-10.77
716.096	-6.77
716.123	2.23
716.15	-15.77
716.177	-9.77
716.203	-1.77
716.23	-3.77
716.257	6.23
716.283	8.23
716.31	2.23
716.337	3.23
716.363	-1.77
716.39	4.23
716.417	12.23
716.443	5.23
716.47	3.23
716.497	1.23
716.523	12.23
716.55	-1.77
716.577	10.23
716.603	-5.77
716.63	1.23
716.657	0.23
716.683	-8.77
716.71	-6.77
716.737	-3.77
716.763	5.23
716.79	-5.77
716.817	11.23
716.843	8.23
716.87	-6.77
716.897	-3.77
716.923	4.23
716.95	-5.77
716.976	-11.77
717.003	-14.77
717.03	-3.77
717.056	5.23
717.083	-4.77
717.109	-3.77
717.136	-1.77
717.163	-3.77
717.189	-5.77
717.216	-11.77
717.242	1.23
717.269	4.23
717.296	8.23
717.322	6.23
717.349	16.23
717.375	8.23
717.402	6.23
717.428	4.23
717.455	5.23
717.481	1.23
717.508	20.23
717.535	12.23
717.561	8.23
717.588	-4.77
717.614	-23.77
717.641	-14.77
717.667	-1.77
717.694	-5.77
717.72	-10.77
717.747	5.23
717.773	-7.77
717.8	-8.77
717.826	-9.77
717.853	-11.77
717.88	13.23
717.906	6.23
717.933	-5.77
717.959	-0.77
717.986	10.23
718.012	-1.77
718.039	-8.77
718.065	0.23
718.092	6.23
718.118	-12.77
718.144	0.23
718.171	20.23
718.197	15.23
718.224	-3.77
718.25	-4.77
718.277	3.23
718.303	5.23
718.33	-5.77
718.356	-14.77
718.383	-17.77
718.409	1.23
718.436	1.23
718.462	-4.77
718.489	-10.77
718.515	-2.77
718.541	9.23
718.568	13.23
718.594	5.23
718.621	22.23
718.647	4.23
718.674	0.23
718.7	0.23
718.726	-8.77
718.753	1.23
718.779	-5.77
718.806	-3.77
718.832	-10.77
718.858	-18.77
718.885	-19.77
718.911	-8.77
718.938	9.23
718.964	-10.77
718.99	4.23
719.017	-4.77
719.043	10.23
719.07	11.23
719.096	-19.77
719.122	8.23
719.149	1.23
719.175	-8.77
719.201	0.23
719.228	-9.77
719.254	3.23
719.281	-2.77
719.307	-6.77
719.333	-2.77
719.36	-2.77
719.386	0.23
719.412	23.23
719.439	-12.77
719.465	-5.77
719.491	-10.77
719.518	4.23
719.544	18.23
719.57	7.23
719.597	2.23
719.623	2.23
719.649	16.23
719.675	-1.77
719.702	-2.77
719.728	4.23
719.754	-4.77
719.781	4.23
719.807	-3.77
719.833	-3.77
719.86	3.23
719.886	-8.77
719.912	-1.77
719.938	-3.77
719.965	1.23
719.991	6.23
720.017	-4.77
720.044	-11.77
720.07	4.23
720.096	14.23
720.122	19.23
720.149	0.23
720.175	27.23
720.201	4.23
720.227	0.23
720.254	7.23
720.28	-7.77
720.306	-8.77
720.332	6.23
720.359	3.23
720.385	4.23
720.411	11.23
720.437	2.23
720.463	-6.77
720.49	3.23
720.516	-5.77
720.542	-15.77
720.568	15.23
720.595	4.23
720.621	-8.77
720.647	9.23
720.673	22.23
720.699	5.23
720.725	-2.77
720.752	-3.77
720.778	18.23
720.804	10.23
720.83	19.23
720.856	5.23
720.883	-0.77
720.909	-2.77
720.935	3.23
720.961	11.23
720.987	-8.77
721.013	12.23
721.04	11.23
721.066	4.23
721.092	-3.77
721.118	11.23
721.144	14.23
721.17	-0.77
721.196	3.23
721.223	-10.77
721.249	-14.77
721.275	14.23
721.301	-1.77
721.327	12.23
721.353	-6.77
721.379	-0.77
721.405	15.23
721.432	19.23
721.458	-3.77
721.484	-2.77
721.51	-14.77
721.536	-0.77
721.562	9.23
721.588	6.23
721.614	1.23
721.64	-6.77
721.666	-6.77
721.693	-12.77
721.719	-16.77
721.745	-15.77
721.771	-5.77
721.797	-5.77
721.823	0.23
721.849	17.23
721.875	8.23
721.901	8.23
721.927	-4.77
721.953	6.23
721.979	9.23
722.005	7.23
722.031	-1.77
722.057	-7.77
722.083	1.23
722.109	18.23
722.135	2.23
722.161	4.23
722.187	-4.77
722.214	-2.77
722.24	-3.77
722.266	-5.77
722.292	18.23
722.318	3.23
722.344	2.23
722.37	12.23
722.396	14.23
722.422	13.23
722.448	-3.77
722.474	-6.77
722.5	3.23
722.526	1.23
722.552	-3.77
722.578	0.23
722.603	9.23
722.629	3.23
722.655	-3.77
722.681	1.23
722.707	-2.77
722.733	2.23
722.759	-5.77
722.785	1.23
722.811	8.23
722.837	-8.77
722.863	-0.77
722.889	5.23
722.915	-21.77
722.941	-2.77
722.967	-12.77
722.993	10.23
723.019	3.23
723.045	9.23
723.071	17.23
723.097	-1.77
723.122	2.23
723.148	-7.77
723.174	-4.77
723.2	-3.77
723.226	10.23
723.252	5.23
723.278	-11.77
723.304	-5.77
723.33	-12.77
723.356	-10.77
723.381	-2.77
723.407	0.23
723.433	6.23
723.459	-4.77
723.485	-13.77
723.511	14.23
723.537	-1.77
723.563	-0.77
723.588	19.23
723.614	14.23
723.64	4.23
723.666	-6.77
723.692	3.23
723.718	5.23
723.744	-3.77
723.769	-15.77
723.795	-6.77
723.821	6.23
723.847	-5.77
723.873	-1.77
723.899	-8.77
723.924	-4.77
723.95	0.23
723.976	-4.77
724.002	2.23
724.028	4.23
724.053	-4.77
724.079	-8.77
724.105	1.23
724.131	3.23
724.157	0.23
724.182	9.23
724.208	-9.77
724.234	8.23
724.26	-7.77
724.286	10.23
724.311	-2.77
724.337	-15.77
724.363	-8.77
724.389	-4.77
724.415	-17.77
724.44	12.23
724.466	9.23
724.492	-1.77
724.518	0.23
724.543	-5.77
724.569	16.23
724.595	17.23
724.621	-11.77
724.646	-2.77
724.672	-6.77
724.698	-6.77
724.723	-13.77
724.749	-7.77
724.775	1.23
724.801	0.23
724.826	-8.77
724.852	-4.77
724.878	2.23
724.904	-11.77
724.929	-1.77
724.955	-11.77
724.981	-2.77
725.006	-8.77
725.032	-2.77
725.058	-5.77
725.083	-0.77
725.109	-25.77
725.135	-2.77
725.161	-3.77
725.186	1.23
725.212	0.23
725.238	3.23
725.263	-2.77
725.289	-14.77
725.315	-19.77
725.34	-12.77
725.366	6.23
725.392	-1.77
725.417	4.23
725.443	5.23
725.468	10.23
725.494	-6.77
725.52	-2.77
725.545	-10.77
725.571	-13.77
725.597	-2.77
725.622	12.23
725.648	1.23
725.674	13.23
725.699	9.23
725.725	-3.77
725.75	16.23
725.776	-8.77
725.802	0.23
725.827	-9.77
725.853	11.23
725.878	3.23
725.904	-2.77
725.93	0.23
725.955	-13.77
725.981	-12.77
726.006	0.23
726.032	4.23
726.057	-9.77
726.083	4.23
726.109	1.23
726.134	3.23
726.16	-1.77
726.185	-2.77
726.211	-7.77
726.236	18.23
726.262	6.23
726.288	10.23
726.313	17.23
726.339	19.23
726.364	4.23
726.39	2.23
726.415	-7.77
726.441	-3.77
726.466	0.23
726.492	0.23
726.517	-13.77
726.543	-1.77
726.568	-3.77
726.594	5.23
726.619	14.23
726.645	8.23
726.67	3.23
726.696	0.23
726.721	-4.77
726.747	-4.77
726.772	11.23
726.798	-7.77
726.823	0.23
726.849	-3.77
726.874	2.23
726.9	8.23
726.925	-3.77
726.951	-6.77
726.976	4.23
727.002	1.23
727.027	10.23
727.053	6.23
727.078	2.23
727.104	6.23
727.129	-13.77
727.155	-17.77
727.18	1.23
727.205	-5.77
727.231	-21.77
727.256	-4.77
727.282	4.23
727.307	10.23
727.333	-5.77
727.358	-10.77
727.383	-29.77
727.409	-7.77
727.434	-7.77
727.46	-6.77
727.485	-6.77
727.511	-3.77
727.536	-13.77
727.561	-8.77
727.587	5.23
727.612	-6.77
727.637	-30.77
727.663	-11.77
727.688	17.23
727.714	-4.77
727.739	-14.77
727.764	-6.77
727.79	1.23
727.815	-0.77
727.841	10.23
727.866	1.23
727.891	-5.77
727.917	-1.77
727.942	-3.77
727.967	-7.77
727.993	-22.77
728.018	-1.77
728.043	-0.77
728.069	19.23
728.094	10.23
728.119	1.23
728.145	4.23
728.17	4.23
728.195	21.23
728.221	9.23
728.246	-6.77
728.271	-15.77
728.297	9.23
728.322	7.23
728.347	4.23
728.373	4.23
728.398	-3.77
728.423	7.23
728.448	-5.77
728.474	15.23
728.499	6.23
728.524	-11.77
728.55	-10.77
728.575	-10.77
728.6	3.23
728.625	-21.77
728.651	-2.77
728.676	17.23
728.701	-10.77
728.727	1.23
728.752	2.23
728.777	-8.77
728.802	5.23
728.828	6.23
728.853	4.23
728.878	-2.77
728.903	-14.77
728.929	-15.77
728.954	-6.77
728.979	18.23
729.004	0.23
729.03	-5.77
729.055	2.23
729.08	-18.77
729.105	-7.77
729.13	14.23
729.156	4.23
729.181	5.23
729.206	-14.77
729.231	-2.77
729.256	-5.77
729.282	0.23
729.307	-15.77
729.332	-14.77
729.357	-5.77
729.382	13.23
729.408	-11.77
729.433	-3.77
729.458	3.23
729.483	3.23
729.508	19.23
729.533	8.23
729.559	13.23
729.584	1.23
729.609	11.23
729.634	5.23
729.659	-1.77
729.684	-2.77
729.71	7.23
729.735	13.23
729.76	-2.77
729.785	-9.77
729.81	-1.77
729.835	-13.77
729.86	-1.77
729.886	4.23
729.911	-9.77
729.936	-9.77
729.961	0.23
729.986	-12.77
730.011	3.23
730.036	6.23
730.061	8.23
730.086	-6.77
730.112	-1.77
730.137	8.23
730.162	-13.77
730.187	1.23
730.212	4.23
730.237	-9.77
730.262	-5.77
730.287	-6.77
730.312	12.23
730.337	-3.77
730.362	9.23
730.387	-0.77
730.413	-5.77
730.438	-7.77
730.463	-2.77
730.488	-11.77
730.513	7.23
730.538	-3.77
730.563	29.23
730.588	-5.77
730.613	5.23
730.638	-12.77
730.663	-3.77
730.688	4.23
730.713	1.23
730.738	7.23
730.763	1.23
730.788	-18.77
730.813	2.23
730.838	2.23
730.863	5.23
730.888	8.23
730.913	-17.77
730.938	-14.77
730.963	-5.77
730.988	3.23
731.013	20.23
731.038	-10.77
731.063	-10.77
731.088	-11.77
731.113	-5.77
731.138	-16.77
731.163	-3.77
731.188	4.23
731.213	1.23
731.238	9.23
731.263	13.23
731.288	-2.77
731.313	-7.77
731.338	-1.77
731.363	11.23
731.388	0.23
731.413	7.23
731.438	22.23
731.463	17.23
731.487	0.23
731.512	-12.77
731.537	-6.77
731.562	7.23
731.587	3.23
731.612	10.23
731.637	12.23
731.662	-3.77
731.687	-3.77
731.712	-8.77
731.737	4.23
731.762	-14.77
731.786	8.23
731.811	10.23
731.836	-1.77
731.861	3.23
731.886	-12.77
731.911	4.23
731.936	5.23
731.961	0.23
731.986	-2.77
732.01	-11.77
732.035	-7.77
732.06	17.23
732.085	-6.77
732.11	-3.77
732.135	-0.77
732.16	10.23
732.184	11.23
732.209	-2.77
732.234	-2.77
732.259	1.23
732.284	-5.77
732.309	-8.77
732.334	-6.77
732.358	-16.77
732.383	-5.77
732.408	12.23
732.433	4.23
732.458	-0.77
732.482	7.23
732.507	-2.77
732.532	4.23
732.557	1.23
732.582	0.23
732.607	-3.77
732.631	-28.77
732.656	-19.77
732.681	-10.77
732.706	-13.77
732.73	5.23
732.755	-2.77
732.78	0.23
732.805	4.23
732.83	-6.77
732.854	-8.77
732.879	15.23
732.904	-19.77
732.929	-4.77
732.953	-1.77
732.978	9.23
733.003	6.23
733.028	2.23
733.052	7.23
733.077	2.23
733.102	-9.77
733.127	-11.77
733.151	-3.77
733.176	9.23
733.201	-1.77
733.226	-10.77
733.25	2.23
733.275	-1.77
733.3	-1.77
733.324	1.23
733.349	6.23
733.374	24.23
733.399	-3.77
733.423	10.23
733.448	0.23
733.473	6.23
733.497	-4.77
733.522	-4.77
733.547	21.23
733.571	11.23
733.596	-4.77
733.621	-12.77
733.646	-11.77
733.67	1.23
733.695	-5.77
733.72	0.23
733.744	5.23
733.769	1.23
733.794	5.23
733.818	2.23
733.843	-7.77
733.867	-9.77
733.892	-7.77
733.917	0.23
733.941	14.23
733.966	-14.77
733.991	-1.77
734.015	23.23
734.04	19.23
734.065	12.23
734.089	5.23
734.114	-9.77
734.138	5.23
734.163	-1.77
734.188	8.23
734.212	19.23
734.237	21.23
734.261	-1.77
734.286	-0.77
734.311	-3.77
734.335	20.23
734.36	0.23
734.384	6.23
734.409	19.23
734.434	-0.77
734.458	23.23
734.483	-1.77
734.507	-11.77
734.532	1.23
734.556	4.23
734.581	6.23
734.606	0.23
734.63	-3.77
734.655	17.23
734.679	-8.77
734.704	-2.77
734.728	-4.77
734.753	-22.77
734.777	2.23
734.802	2.23
734.826	6.23
734.851	-1.77
734.876	3.23
734.9	-3.77
734.925	11.23
734.949	5.23
734.974	-5.77
734.998	-2.77
735.023	-9.77
735.047	-11.77
735.072	5.23
735.096	8.23
735.121	9.23
735.145	-0.77
735.17	2.23
735.194	9.23
735.219	-2.77
735.243	9.23
735.268	14.23
735.292	3.23
735.317	-2.77
735.341	-4.77
735.365	-7.77
735.39	21.23
735.414	4.23
735.439	-7.77
735.463	-6.77
735.488	0.23
735.512	-1.77
735.537	-2.77
735.561	2.23
735.586	8.23
735.61	0.23
735.634	-3.77
735.659	9.23
735.683	6.23
735.708	-13.77
735.732	-11.77
735.757	0.23
735.781	1.23
735.805	1.23
735.83	0.23
735.854	-11.77
735.879	-5.77
735.903	6.23
735.927	4.23
735.952	12.23
735.976	-1.77
736.001	0.23
736.025	2.23
736.049	-18.77
736.074	-23.77
736.098	-3.77
736.123	17.23
736.147	5.23
736.171	14.23
736.196	14.23
736.22	-5.77
736.244	-1.77
736.269	1.23
736.293	9.23
736.317	10.23
736.342	11.23
736.366	10.23
736.39	12.23
736.415	-1.77
736.439	6.23
736.463	14.23
736.488	18.23
736.512	-2.77
736.536	14.23
736.561	8.23
736.585	4.23
736.609	-10.77
736.634	-5.77
736.658	-6.77
736.682	-15.77
736.707	-8.77
736.731	-11.77
736.755	-9.77
736.78	25.23
736.804	5.23
736.828	4.23
736.852	3.23
736.877	-1.77
736.901	5.23
736.925	8.23
736.949	-2.77
736.974	-2.77
736.998	0.23
737.022	4.23
737.047	-11.77
737.071	-17.77
737.095	13.23
737.119	5.23
737.144	5.23
737.168	1.23
737.192	1.23
737.216	13.23
737.241	2.23
737.265	-3.77
737.289	9.23
737.313	-10.77
737.337	7.23
737.362	6.23
737.386	12.23
737.41	0.23
737.434	1.23
737.459	2.23
737.483	14.23
737.507	12.23
737.531	14.23
737.555	14.23
737.58	-2.77
737.604	10.23
737.628	-6.77
737.652	-5.77
737.676	-0.77
737.701	5.23
737.725	12.23
737.749	3.23
737.773	6.23
737.797	-6.77
737.821	0.23
737.846	1.23
737.87	29.23
737.894	-2.77
737.918	-10.77
737.942	-10.77
737.966	14.23
737.99	1.23
738.015	8.23
738.039	-2.77
738.063	-10.77
738.087	6.23
738.111	-4.77
738.135	7.23
738.159	10.23
738.184	5.23
738.208	-1.77
738.232	0.23
738.256	24.23
738.28	18.23
738.304	12.23
738.328	-3.77
738.352	1.23
738.376	4.23
738.4	4.23
738.425	-5.77
738.449	-4.77
738.473	14.23
738.497	5.23
738.521	2.23
738.545	5.23
738.569	8.23
738.593	21.23
738.617	13.23
738.641	-7.77
738.665	4.23
738.689	12.23
738.713	5.23
738.737	-1.77
738.762	8.23
738.786	2.23
738.81	-17.77
738.834	4.23
738.858	-10.77
738.882	3.23
738.906	-0.77
738.93	-10.77
738.954	-2.77
738.978	5.23
739.002	0.23
739.026	10.23
739.05	-2.77
739.074	4.23
739.098	20.23
739.122	22.23
739.146	0.23
739.17	5.23
739.194	6.23
739.218	-10.77
739.242	8.23
739.266	-5.77
739.29	18.23
739.314	-3.77
739.338	-2.77
739.362	2.23
739.386	4.23
739.41	-9.77
739.434	-9.77
739.458	5.23
739.482	12.23
739.506	11.23
739.53	-7.77
739.554	6.23
739.577	8.23
739.601	5.23
739.625	-4.77
739.649	4.23
739.673	-6.77
739.697	13.23
739.721	0.23
739.745	12.23
739.769	10.23
739.793	7.23
739.817	9.23
739.841	2.23
739.865	13.23
739.889	-2.77
739.912	4.23
739.936	-12.77
739.96	-14.77
739.984	2.23
740.008	-3.77
740.032	-13.77
740.056	2.23
740.08	-7.77
740.104	-12.77
740.127	12.23
740.151	15.23
740.175	6.23
740.199	-0.77
740.223	39.23
740.247	5.23
740.271	7.23
740.295	9.23
740.318	-4.77
740.342	6.23
740.366	10.23
740.39	14.23
740.414	3.23
740.438	10.23
740.461	5.23
740.485	0.23
740.509	1.23
740.533	11.23
740.557	-1.77
740.581	-8.77
740.604	-14.77
740.628	-23.77
740.652	0.23
740.676	-8.77
740.7	9.23
740.723	-1.77
740.747	-2.77
740.771	-10.77
740.795	2.23
740.819	-9.77
740.842	9.23
740.866	5.23
740.89	13.23
740.914	15.23
740.938	-10.77
740.961	5.23
740.985	-5.77
741.009	1.23
741.033	3.23
741.056	15.23
741.08	4.23
741.104	-0.77
741.128	-5.77
741.151	25.23
741.175	24.23
741.199	2.23
741.223	5.23
741.246	-4.77
741.27	12.23
741.294	5.23
741.318	6.23
741.341	-5.77
741.365	8.23
741.389	4.23
741.413	18.23
741.436	6.23
741.46	6.23
741.484	17.23
741.507	3.23
741.531	6.23
741.555	9.23
741.579	-0.77
741.602	6.23
741.626	6.23
741.65	-11.77
741.673	-6.77
741.697	6.23
741.721	12.23
741.744	-3.77
741.768	3.23
741.792	5.23
741.815	-10.77
741.839	9.23
741.863	14.23
741.886	-3.77
741.91	2.23
741.934	-1.77
741.957	-8.77
741.981	-0.77
742.005	-1.77
742.028	-2.77
742.052	-5.77
742.075	10.23
742.099	4.23
742.123	10.23
742.146	0.23
742.17	-21.77
742.194	-17.77
742.217	-10.77
742.241	-6.77
742.264	-15.77
742.288	20.23
742.312	0.23
742.335	-11.77
742.359	-6.77
742.382	20.23
742.406	11.23
742.43	-12.77
742.453	-11.77
742.477	-11.77
742.5	6.23
742.524	-0.77
742.548	-2.77
742.571	-7.77
742.595	0.23
742.618	-14.77
742.642	5.23
742.665	1.23
742.689	-1.77
742.712	6.23
742.736	-11.77
742.76	0.23
742.783	6.23
742.807	11.23
742.83	8.23
742.854	-14.77
742.877	-10.77
742.901	0.23
742.924	-1.77
742.948	7.23
742.971	2.23
742.995	0.23
743.018	-12.77
743.042	-11.77
743.065	6.23
743.089	-5.77
743.112	0.23
743.136	-3.77
743.159	1.23
743.183	2.23
743.206	-2.77
743.23	-7.77
743.253	0.23
743.277	11.23
743.3	1.23
743.324	7.23
743.347	-7.77
743.371	5.23
743.394	3.23
743.418	15.23
743.441	-1.77
743.465	-11.77
743.488	-3.77
743.512	-14.77
743.535	-1.77
743.558	-11.77
743.582	-2.77
743.605	-4.77
743.629	1.23
743.652	1.23
743.676	-6.77
743.699	10.23
743.723	7.23
743.746	13.23
743.769	-1.77
743.793	-15.77
743.816	-11.77
743.84	18.23
743.863	-6.77
743.886	-2.77
743.91	5.23
743.933	-1.77
743.957	11.23
743.98	9.23
744.003	-1.77
744.027	3.23
744.05	-0.77
744.074	-3.77
744.097	-0.77
744.12	0.23
744.144	-0.77
744.167	3.23
744.19	-3.77
744.214	-9.77
744.237	-6.77
744.26	11.23
744.284	2.23
744.307	-21.77
744.331	2.23
744.354	-31.77
744.377	-0.77
744.401	1.23
744.424	4.23
744.447	-12.77
744.471	-5.77
