Data from HighRes_H2D2_15_04_11_07_2024_HR4C61891__39__15-05-38-343.txt Node

Date: Thu Nov 07 15:05:38 EST 2024
User: crc00042
Spectrometer: HR4C6189
Trigger mode: 4
Integration Time (sec): 1.000000E-1
Scans to average: 1
Electric dark correction enabled: true
Nonlinearity correction enabled: false
Boxcar width: 0
XAxis mode: Wavelengths
Number of Pixels in Spectrum: 3648
>>>>>Begin Spectral Data<<<<<
639.567	-77.38
639.602	-77.38
639.636	-77.38
639.67	-63.38
639.704	-33.38
639.738	-13.38
639.773	-0.38
639.807	-17.38
639.841	-1.38
639.875	19.62
639.909	3.62
639.943	-18.38
639.978	-5.38
640.012	6.62
640.046	0.62
640.08	11.62
640.114	8.62
640.148	5.62
640.182	-3.38
640.217	-7.38
640.251	12.62
640.285	10.62
640.319	-1.38
640.353	7.62
640.387	4.62
640.421	7.62
640.455	-3.38
640.49	-10.38
640.524	-7.38
640.558	-9.38
640.592	1.62
640.626	8.62
640.66	11.62
640.694	-6.38
640.728	4.62
640.762	13.62
640.796	20.62
640.83	12.62
640.865	1.62
640.899	-0.38
640.933	2.62
640.967	3.62
641.001	10.62
641.035	3.62
641.069	-5.38
641.103	-7.38
641.137	-20.38
641.171	-23.38
641.205	-6.38
641.239	-1.38
641.273	23.62
641.307	-1.38
641.341	-5.38
641.375	-1.38
641.409	-0.38
641.443	1.62
641.477	8.62
641.511	3.62
641.545	6.62
641.579	-7.38
641.614	-9.38
641.648	3.62
641.682	-7.38
641.716	12.62
641.75	13.62
641.784	2.62
641.818	-11.38
641.852	-7.38
641.886	-5.38
641.919	21.62
641.953	-3.38
641.987	-8.38
642.021	4.62
642.055	2.62
642.089	-6.38
642.123	-24.38
642.157	0.62
642.191	-7.38
642.225	1.62
642.259	-2.38
642.293	-1.38
642.327	0.62
642.361	-0.38
642.395	19.62
642.429	16.62
642.463	2.62
642.497	11.62
642.531	1.62
642.565	-11.38
642.599	18.62
642.633	-10.38
642.666	-7.38
642.7	-3.38
642.734	6.62
642.768	-27.38
642.802	-3.38
642.836	3.62
642.87	-11.38
642.904	-5.38
642.938	11.62
642.972	-6.38
643.005	8.62
643.039	10.62
643.073	3.62
643.107	-0.38
643.141	-4.38
643.175	15.62
643.209	-9.38
643.243	-4.38
643.276	3.62
643.31	-7.38
643.344	-17.38
643.378	-9.38
643.412	4.62
643.446	12.62
643.48	-3.38
643.513	6.62
643.547	3.62
643.581	-7.38
643.615	7.62
643.649	-10.38
643.683	-0.38
643.716	4.62
643.75	-2.38
643.784	-2.38
643.818	5.62
643.852	-6.38
643.886	-11.38
643.919	-4.38
643.953	8.62
643.987	-2.38
644.021	26.62
644.055	0.62
644.088	-11.38
644.122	-15.38
644.156	15.62
644.19	17.62
644.224	2.62
644.257	-15.38
644.291	-5.38
644.325	-9.38
644.359	-4.38
644.392	31.62
644.426	10.62
644.46	-1.38
644.494	-7.38
644.527	-21.38
644.561	-15.38
644.595	-15.38
644.629	-13.38
644.662	1.62
644.696	17.62
644.73	-3.38
644.764	0.62
644.797	-10.38
644.831	12.62
644.865	9.62
644.899	-8.38
644.932	-2.38
644.966	2.62
645	7.62
645.033	1.62
645.067	-11.38
645.101	-2.38
645.135	6.62
645.168	-5.38
645.202	-18.38
645.236	-11.38
645.269	30.62
645.303	14.62
645.337	-8.38
645.37	-23.38
645.404	-8.38
645.438	3.62
645.471	-7.38
645.505	-5.38
645.539	-7.38
645.572	-12.38
645.606	-12.38
645.64	-5.38
645.673	-8.38
645.707	20.62
645.741	-1.38
645.774	-1.38
645.808	-0.38
645.842	-1.38
645.875	14.62
645.909	-1.38
645.943	-4.38
645.976	-4.38
646.01	2.62
646.043	-9.38
646.077	9.62
646.111	7.62
646.144	-5.38
646.178	2.62
646.212	-14.38
646.245	-8.38
646.279	10.62
646.312	5.62
646.346	9.62
646.38	-5.38
646.413	-15.38
646.447	-20.38
646.48	-11.38
646.514	11.62
646.547	-16.38
646.581	2.62
646.615	-19.38
646.648	-18.38
646.682	-2.38
646.715	3.62
646.749	5.62
646.782	-2.38
646.816	-0.38
646.85	-8.38
646.883	-15.38
646.917	15.62
646.95	13.62
646.984	8.62
647.017	-12.38
647.051	1.62
647.084	-11.38
647.118	-6.38
647.151	2.62
647.185	5.62
647.218	-13.38
647.252	4.62
647.285	-15.38
647.319	-9.38
647.353	15.62
647.386	15.62
647.42	-1.38
647.453	-0.38
647.487	5.62
647.52	-6.38
647.553	-4.38
647.587	-10.38
647.62	2.62
647.654	-0.38
647.687	-2.38
647.721	10.62
647.754	-0.38
647.788	13.62
647.821	-2.38
647.855	3.62
647.888	7.62
647.922	6.62
647.955	12.62
647.989	5.62
648.022	14.62
648.055	14.62
648.089	-4.38
648.122	16.62
648.156	-16.38
648.189	19.62
648.223	7.62
648.256	14.62
648.29	8.62
648.323	-1.38
648.356	15.62
648.39	-1.38
648.423	-0.38
648.457	-0.38
648.49	-8.38
648.523	8.62
648.557	6.62
648.59	-4.38
648.624	14.62
648.657	-2.38
648.69	10.62
648.724	-8.38
648.757	8.62
648.791	9.62
648.824	12.62
648.857	7.62
648.891	-3.38
648.924	-0.38
648.957	14.62
648.991	-19.38
649.024	17.62
649.057	4.62
649.091	9.62
649.124	7.62
649.158	10.62
649.191	20.62
649.224	-1.38
649.258	14.62
649.291	-9.38
649.324	9.62
649.358	6.62
649.391	13.62
649.424	6.62
649.458	-9.38
649.491	0.62
649.524	-12.38
649.557	-4.38
649.591	-9.38
649.624	7.62
649.657	-5.38
649.691	5.62
649.724	-18.38
649.757	-2.38
649.791	-12.38
649.824	14.62
649.857	14.62
649.89	-10.38
649.924	-4.38
649.957	1.62
649.99	-21.38
650.023	-2.38
650.057	9.62
650.09	-0.38
650.123	19.62
650.157	11.62
650.19	26.62
650.223	5.62
650.256	-10.38
650.29	7.62
650.323	11.62
650.356	19.62
650.389	2.62
650.423	-6.38
650.456	-1.38
650.489	-2.38
650.522	8.62
650.555	13.62
650.589	11.62
650.622	2.62
650.655	3.62
650.688	-4.38
650.721	-2.38
650.755	5.62
650.788	27.62
650.821	2.62
650.854	-6.38
650.887	0.62
650.921	-8.38
650.954	-8.38
650.987	5.62
651.02	2.62
651.053	-21.38
651.087	-0.38
651.12	7.62
651.153	9.62
651.186	22.62
651.219	10.62
651.252	11.62
651.286	-9.38
651.319	-6.38
651.352	-17.38
651.385	9.62
651.418	1.62
651.451	17.62
651.484	12.62
651.518	1.62
651.551	21.62
651.584	-8.38
651.617	-0.38
651.65	4.62
651.683	7.62
651.716	-7.38
651.749	-6.38
651.783	-8.38
651.816	-4.38
651.849	29.62
651.882	11.62
651.915	-1.38
651.948	-0.38
651.981	-13.38
652.014	3.62
652.047	-6.38
652.08	-11.38
652.114	-21.38
652.147	2.62
652.18	-3.38
652.213	34.62
652.246	-2.38
652.279	-5.38
652.312	7.62
652.345	-8.38
652.378	11.62
652.411	13.62
652.444	6.62
652.477	5.62
652.51	14.62
652.543	-18.38
652.576	-0.38
652.609	1.62
652.642	3.62
652.675	10.62
652.709	2.62
652.742	-5.38
652.775	9.62
652.808	10.62
652.841	-9.38
652.874	3.62
652.907	-1.38
652.94	-17.38
652.973	-20.38
653.006	-4.38
653.039	-17.38
653.072	-15.38
653.105	1.62
653.138	2.62
653.171	0.62
653.204	-0.38
653.237	11.62
653.27	-9.38
653.303	-7.38
653.336	0.62
653.368	-3.38
653.401	-2.38
653.434	-0.38
653.467	4.62
653.5	-8.38
653.533	-19.38
653.566	-3.38
653.599	-1.38
653.632	8.62
653.665	0.62
653.698	-3.38
653.731	-3.38
653.764	-0.38
653.797	1.62
653.83	23.62
653.863	3.62
653.896	10.62
653.929	9.62
653.961	7.62
653.994	2.62
654.027	-14.38
654.06	12.62
654.093	13.62
654.126	-16.38
654.159	-30.38
654.192	9.62
654.225	7.62
654.258	-1.38
654.29	-7.38
654.323	16.62
654.356	-2.38
654.389	14.62
654.422	8.62
654.455	-10.38
654.488	-1.38
654.521	-12.38
654.553	-18.38
654.586	2.62
654.619	-14.38
654.652	0.62
654.685	-4.38
654.718	4.62
654.751	21.62
654.783	-7.38
654.816	7.62
654.849	12.62
654.882	11.62
654.915	-15.38
654.948	8.62
654.98	-5.38
655.013	-4.38
655.046	-16.38
655.079	-11.38
655.112	2.62
655.144	-10.38
655.177	-1.38
655.21	11.62
655.243	34.62
655.276	6.62
655.308	-6.38
655.341	-13.38
655.374	5.62
655.407	-2.38
655.44	3.62
655.472	8.62
655.505	7.62
655.538	-13.38
655.571	-0.38
655.603	1.62
655.636	6.62
655.669	17.62
655.702	1.62
655.734	-10.38
655.767	-2.38
655.8	4.62
655.833	23.62
655.865	15.62
655.898	6.62
655.931	25.62
655.964	22.62
655.996	14.62
656.029	31.62
656.062	31.62
656.095	41.62
656.127	67.62
656.16	192.62
656.193	603.62
656.225	949.62
656.258	568.62
656.291	221.62
656.324	172.62
656.356	351.62
656.389	746.62
656.422	667.62
656.454	237.62
656.487	84.62
656.52	34.62
656.552	10.62
656.585	6.62
656.618	13.62
656.65	-0.38
656.683	9.62
656.716	25.62
656.748	5.62
656.781	-18.38
656.814	1.62
656.846	7.62
656.879	0.62
656.912	-18.38
656.944	-22.38
656.977	-19.38
657.01	4.62
657.042	2.62
657.075	10.62
657.108	10.62
657.14	8.62
657.173	20.62
657.205	26.62
657.238	1.62
657.271	8.62
657.303	-8.38
657.336	-14.38
657.369	-11.38
657.401	11.62
657.434	4.62
657.466	-4.38
657.499	9.62
657.532	8.62
657.564	8.62
657.597	2.62
657.629	-3.38
657.662	-5.38
657.694	14.62
657.727	-10.38
657.76	23.62
657.792	-6.38
657.825	-12.38
657.857	-5.38
657.89	-2.38
657.922	15.62
657.955	-4.38
657.987	-9.38
658.02	8.62
658.053	7.62
658.085	7.62
658.118	-4.38
658.15	10.62
658.183	11.62
658.215	-1.38
658.248	0.62
658.28	-5.38
658.313	-0.38
658.345	7.62
658.378	10.62
658.41	-6.38
658.443	0.62
658.475	11.62
658.508	7.62
658.54	2.62
658.573	-1.38
658.605	7.62
658.638	2.62
658.67	-4.38
658.703	-10.38
658.735	-14.38
658.768	2.62
658.8	3.62
658.833	9.62
658.865	25.62
658.898	0.62
658.93	-10.38
658.963	-9.38
658.995	7.62
659.028	-4.38
659.06	-7.38
659.092	-1.38
659.125	-3.38
659.157	3.62
659.19	-9.38
659.222	-4.38
659.255	-5.38
659.287	2.62
659.32	-9.38
659.352	-5.38
659.384	-1.38
659.417	4.62
659.449	5.62
659.482	-4.38
659.514	2.62
659.546	-3.38
659.579	1.62
659.611	-13.38
659.644	-8.38
659.676	-12.38
659.708	-16.38
659.741	-16.38
659.773	12.62
659.806	6.62
659.838	10.62
659.87	-21.38
659.903	-25.38
659.935	7.62
659.967	0.62
660	-12.38
660.032	-18.38
660.065	9.62
660.097	7.62
660.129	-1.38
660.162	-6.38
660.194	7.62
660.226	0.62
660.259	-0.38
660.291	-6.38
660.323	-6.38
660.356	-3.38
660.388	-11.38
660.42	-16.38
660.453	-2.38
660.485	0.62
660.517	20.62
660.55	8.62
660.582	11.62
660.614	5.62
660.647	-1.38
660.679	-20.38
660.711	3.62
660.743	-27.38
660.776	-7.38
660.808	-0.38
660.84	-7.38
660.873	-8.38
660.905	-0.38
660.937	-8.38
660.969	-7.38
661.002	-12.38
661.034	-5.38
661.066	-13.38
661.099	-4.38
661.131	11.62
661.163	0.62
661.195	-3.38
661.228	14.62
661.26	-12.38
661.292	-23.38
661.324	0.62
661.357	-0.38
661.389	7.62
661.421	-3.38
661.453	2.62
661.485	0.62
661.518	13.62
661.55	-20.38
661.582	-21.38
661.614	-3.38
661.647	6.62
661.679	4.62
661.711	2.62
661.743	-3.38
661.775	12.62
661.808	0.62
661.84	-18.38
661.872	-4.38
661.904	-1.38
661.936	-1.38
661.969	-8.38
662.001	-8.38
662.033	-5.38
662.065	-1.38
662.097	19.62
662.129	6.62
662.162	-24.38
662.194	0.62
662.226	3.62
662.258	15.62
662.29	6.62
662.322	-11.38
662.355	-0.38
662.387	23.62
662.419	21.62
662.451	6.62
662.483	4.62
662.515	10.62
662.547	-5.38
662.58	-11.38
662.612	-19.38
662.644	-30.38
662.676	3.62
662.708	10.62
662.74	11.62
662.772	-0.38
662.804	-5.38
662.836	4.62
662.869	-2.38
662.901	-12.38
662.933	-7.38
662.965	9.62
662.997	-9.38
663.029	-9.38
663.061	-3.38
663.093	3.62
663.125	-3.38
663.157	9.62
663.189	-5.38
663.221	-5.38
663.254	-7.38
663.286	7.62
663.318	13.62
663.35	0.62
663.382	-2.38
663.414	-4.38
663.446	1.62
663.478	5.62
663.51	16.62
663.542	-17.38
663.574	0.62
663.606	2.62
663.638	4.62
663.67	-10.38
663.702	-10.38
663.734	-14.38
663.766	5.62
663.798	-1.38
663.83	-5.38
663.862	7.62
663.894	5.62
663.926	-0.38
663.958	14.62
663.99	-1.38
664.022	-3.38
664.054	11.62
664.086	-2.38
664.118	-3.38
664.15	-13.38
664.182	2.62
664.214	-12.38
664.246	16.62
664.278	-2.38
664.31	3.62
664.342	-9.38
664.374	-5.38
664.406	-6.38
664.438	1.62
664.47	6.62
664.502	6.62
664.534	5.62
664.566	-5.38
664.598	7.62
664.63	-8.38
664.662	-1.38
664.693	-7.38
664.725	-1.38
664.757	-3.38
664.789	-7.38
664.821	-3.38
664.853	4.62
664.885	-0.38
664.917	-16.38
664.949	8.62
664.981	16.62
665.013	8.62
665.045	-20.38
665.076	-16.38
665.108	5.62
665.14	-1.38
665.172	7.62
665.204	6.62
665.236	-3.38
665.268	10.62
665.3	-16.38
665.331	-10.38
665.363	-7.38
665.395	-23.38
665.427	-2.38
665.459	4.62
665.491	2.62
665.523	3.62
665.555	-6.38
665.586	-4.38
665.618	-17.38
665.65	2.62
665.682	2.62
665.714	0.62
665.746	-28.38
665.777	-7.38
665.809	-12.38
665.841	-5.38
665.873	-1.38
665.905	-7.38
665.937	7.62
665.968	-1.38
666	-19.38
666.032	-8.38
666.064	-16.38
666.096	-12.38
666.127	6.62
666.159	9.62
666.191	13.62
666.223	-3.38
666.255	4.62
666.286	-1.38
666.318	3.62
666.35	7.62
666.382	-7.38
666.413	-5.38
666.445	-0.38
666.477	-15.38
666.509	7.62
666.54	5.62
666.572	-2.38
666.604	-6.38
666.636	2.62
666.667	-0.38
666.699	1.62
666.731	7.62
666.763	-21.38
666.794	-1.38
666.826	-9.38
666.858	-5.38
666.89	16.62
666.921	3.62
666.953	3.62
666.985	13.62
667.017	7.62
667.048	-10.38
667.08	-2.38
667.112	-3.38
667.143	7.62
667.175	5.62
667.207	3.62
667.238	4.62
667.27	13.62
667.302	6.62
667.334	0.62
667.365	17.62
667.397	-2.38
667.429	-12.38
667.46	6.62
667.492	-2.38
667.524	-2.38
667.555	-11.38
667.587	-3.38
667.619	7.62
667.65	-1.38
667.682	3.62
667.714	-3.38
667.745	10.62
667.777	-3.38
667.808	10.62
667.84	11.62
667.872	-3.38
667.903	25.62
667.935	-11.38
667.967	2.62
667.998	11.62
668.03	-6.38
668.061	1.62
668.093	2.62
668.125	6.62
668.156	-3.38
668.188	-10.38
668.22	-9.38
668.251	7.62
668.283	12.62
668.314	8.62
668.346	-11.38
668.377	-18.38
668.409	-0.38
668.441	20.62
668.472	14.62
668.504	1.62
668.535	9.62
668.567	15.62
668.599	7.62
668.63	0.62
668.662	-7.38
668.693	35.62
668.725	4.62
668.756	16.62
668.788	7.62
668.819	-4.38
668.851	17.62
668.882	2.62
668.914	0.62
668.946	-1.38
668.977	4.62
669.009	-16.38
669.04	-6.38
669.072	14.62
669.103	0.62
669.135	8.62
669.166	9.62
669.198	0.62
669.229	5.62
669.261	0.62
669.292	-0.38
669.324	10.62
669.355	18.62
669.387	-8.38
669.418	1.62
669.45	-10.38
669.481	12.62
669.513	20.62
669.544	-6.38
669.576	5.62
669.607	7.62
669.639	8.62
669.67	4.62
669.701	1.62
669.733	-14.38
669.764	1.62
669.796	1.62
669.827	-12.38
669.859	-6.38
669.89	9.62
669.922	13.62
669.953	-1.38
669.985	-2.38
670.016	-8.38
670.047	9.62
670.079	7.62
670.11	7.62
670.142	-0.38
670.173	2.62
670.204	-5.38
670.236	-7.38
670.267	-3.38
670.299	9.62
670.33	19.62
670.362	6.62
670.393	-26.38
670.424	4.62
670.456	-17.38
670.487	-18.38
670.518	-16.38
670.55	5.62
670.581	3.62
670.613	8.62
670.644	-5.38
670.675	0.62
670.707	3.62
670.738	12.62
670.769	-1.38
670.801	-13.38
670.832	9.62
670.864	3.62
670.895	18.62
670.926	-7.38
670.958	-7.38
670.989	-9.38
671.02	-9.38
671.052	3.62
671.083	5.62
671.114	-1.38
671.146	7.62
671.177	16.62
671.208	-2.38
671.24	-4.38
671.271	-3.38
671.302	-3.38
671.333	4.62
671.365	-21.38
671.396	3.62
671.427	1.62
671.459	-1.38
671.49	-11.38
671.521	-9.38
671.553	7.62
671.584	13.62
671.615	18.62
671.646	14.62
671.678	-5.38
671.709	-20.38
671.74	-19.38
671.771	0.62
671.803	7.62
671.834	5.62
671.865	1.62
671.896	19.62
671.928	0.62
671.959	11.62
671.99	4.62
672.021	8.62
672.053	4.62
672.084	14.62
672.115	10.62
672.146	3.62
672.178	-15.38
672.209	3.62
672.24	3.62
672.271	23.62
672.303	11.62
672.334	9.62
672.365	-5.38
672.396	10.62
672.427	2.62
672.459	3.62
672.49	8.62
672.521	-2.38
672.552	0.62
672.583	-1.38
672.615	-12.38
672.646	13.62
672.677	-4.38
672.708	-9.38
672.739	4.62
672.77	9.62
672.802	0.62
672.833	-1.38
672.864	-7.38
672.895	-9.38
672.926	-10.38
672.957	-12.38
672.989	-9.38
673.02	-10.38
673.051	-3.38
673.082	1.62
673.113	-1.38
673.144	6.62
673.175	1.62
673.206	-4.38
673.238	-10.38
673.269	-7.38
673.3	-10.38
673.331	11.62
673.362	1.62
673.393	3.62
673.424	-3.38
673.455	4.62
673.487	3.62
673.518	6.62
673.549	6.62
673.58	-5.38
673.611	-0.38
673.642	6.62
673.673	5.62
673.704	13.62
673.735	-2.38
673.766	-23.38
673.797	0.62
673.828	-1.38
673.86	-11.38
673.891	-2.38
673.922	-5.38
673.953	-2.38
673.984	-13.38
674.015	8.62
674.046	-9.38
674.077	-11.38
674.108	-11.38
674.139	-5.38
674.17	3.62
674.201	-4.38
674.232	-26.38
674.263	-0.38
674.294	-4.38
674.325	-5.38
674.356	4.62
674.387	5.62
674.418	-10.38
674.449	-17.38
674.48	-10.38
674.511	7.62
674.542	12.62
674.573	-21.38
674.604	9.62
674.635	-5.38
674.666	9.62
674.697	-9.38
674.728	-16.38
674.759	4.62
674.79	-21.38
674.821	-23.38
674.852	-9.38
674.883	-1.38
674.914	18.62
674.945	6.62
674.976	1.62
675.007	-4.38
675.038	-17.38
675.069	-27.38
675.1	-11.38
675.131	2.62
675.162	-5.38
675.193	-9.38
675.224	-9.38
675.254	14.62
675.285	1.62
675.316	10.62
675.347	-13.38
675.378	-16.38
675.409	5.62
675.44	5.62
675.471	-4.38
675.502	-5.38
675.533	-12.38
675.564	-8.38
675.595	-4.38
675.625	17.62
675.656	1.62
675.687	5.62
675.718	-5.38
675.749	1.62
675.78	17.62
675.811	-8.38
675.842	13.62
675.873	-15.38
675.903	-7.38
675.934	-2.38
675.965	-7.38
675.996	-5.38
676.027	-4.38
676.058	1.62
676.089	-15.38
676.119	0.62
676.15	-11.38
676.181	-15.38
676.212	4.62
676.243	9.62
676.274	-1.38
676.304	18.62
676.335	-11.38
676.366	-0.38
676.397	-3.38
676.428	15.62
676.459	12.62
676.489	20.62
676.52	3.62
676.551	-13.38
676.582	5.62
676.613	-8.38
676.643	-7.38
676.674	-4.38
676.705	3.62
676.736	1.62
676.767	22.62
676.797	12.62
676.828	15.62
676.859	6.62
676.89	2.62
676.92	6.62
676.951	7.62
676.982	-0.38
677.013	-6.38
677.044	6.62
677.074	0.62
677.105	-20.38
677.136	7.62
677.167	4.62
677.197	2.62
677.228	9.62
677.259	-8.38
677.289	1.62
677.32	-2.38
677.351	-11.38
677.382	-13.38
677.412	-9.38
677.443	-0.38
677.474	-8.38
677.505	-6.38
677.535	2.62
677.566	-27.38
677.597	-11.38
677.627	-6.38
677.658	2.62
677.689	7.62
677.72	0.62
677.75	-2.38
677.781	6.62
677.812	-5.38
677.842	12.62
677.873	2.62
677.904	-4.38
677.934	-9.38
677.965	-9.38
677.996	-20.38
678.026	-14.38
678.057	-1.38
678.088	-17.38
678.118	-11.38
678.149	-15.38
678.18	-15.38
678.21	-17.38
678.241	-4.38
678.272	-4.38
678.302	7.62
678.333	9.62
678.363	-5.38
678.394	0.62
678.425	-8.38
678.455	12.62
678.486	17.62
678.517	4.62
678.547	-9.38
678.578	-3.38
678.608	-15.38
678.639	10.62
678.67	0.62
678.7	-9.38
678.731	0.62
678.761	3.62
678.792	-8.38
678.823	12.62
678.853	1.62
678.884	-17.38
678.914	9.62
678.945	0.62
678.975	-1.38
679.006	13.62
679.037	-9.38
679.067	6.62
679.098	-1.38
679.128	-3.38
679.159	5.62
679.189	6.62
679.22	1.62
679.25	7.62
679.281	-3.38
679.312	-4.38
679.342	1.62
679.373	17.62
679.403	10.62
679.434	-8.38
679.464	-8.38
679.495	8.62
679.525	-6.38
679.556	-3.38
679.586	3.62
679.617	9.62
679.647	-7.38
679.678	2.62
679.708	1.62
679.739	2.62
679.769	-3.38
679.8	-7.38
679.83	-12.38
679.861	15.62
679.891	-0.38
679.922	-18.38
679.952	9.62
679.983	-5.38
680.013	-8.38
680.044	-6.38
680.074	9.62
680.105	2.62
680.135	2.62
680.165	4.62
680.196	11.62
680.226	-15.38
680.257	10.62
680.287	-4.38
680.318	0.62
680.348	-2.38
680.379	12.62
680.409	4.62
680.439	5.62
680.47	0.62
680.5	-2.38
680.531	-4.38
680.561	7.62
680.592	2.62
680.622	1.62
680.652	4.62
680.683	2.62
680.713	7.62
680.744	6.62
680.774	1.62
680.804	13.62
680.835	-1.38
680.865	-16.38
680.896	11.62
680.926	17.62
680.956	3.62
680.987	8.62
681.017	-10.38
681.047	21.62
681.078	-5.38
681.108	0.62
681.139	0.62
681.169	2.62
681.199	8.62
681.23	-1.38
681.26	-7.38
681.29	-3.38
681.321	-1.38
681.351	-5.38
681.381	-11.38
681.412	-0.38
681.442	9.62
681.472	7.62
681.503	0.62
681.533	6.62
681.563	-1.38
681.594	-11.38
681.624	5.62
681.654	-6.38
681.685	-8.38
681.715	-0.38
681.745	-4.38
681.775	-11.38
681.806	2.62
681.836	3.62
681.866	-19.38
681.897	-2.38
681.927	0.62
681.957	3.62
681.987	13.62
682.018	8.62
682.048	8.62
682.078	4.62
682.109	6.62
682.139	-2.38
682.169	6.62
682.199	2.62
682.23	-8.38
682.26	-2.38
682.29	-7.38
682.32	16.62
682.351	-3.38
682.381	-18.38
682.411	-5.38
682.441	1.62
682.472	-5.38
682.502	-9.38
682.532	1.62
682.562	3.62
682.592	-4.38
682.623	5.62
682.653	7.62
682.683	-1.38
682.713	5.62
682.743	-0.38
682.774	-1.38
682.804	-7.38
682.834	12.62
682.864	1.62
682.894	-4.38
682.925	-0.38
682.955	4.62
682.985	6.62
683.015	11.62
683.045	7.62
683.076	-20.38
683.106	4.62
683.136	3.62
683.166	-10.38
683.196	-19.38
683.226	-8.38
683.257	7.62
683.287	-7.38
683.317	-6.38
683.347	-19.38
683.377	-7.38
683.407	3.62
683.437	16.62
683.468	18.62
683.498	-8.38
683.528	0.62
683.558	11.62
683.588	2.62
683.618	-7.38
683.648	6.62
683.678	8.62
683.708	8.62
683.739	-9.38
683.769	9.62
683.799	-11.38
683.829	6.62
683.859	-2.38
683.889	15.62
683.919	-2.38
683.949	7.62
683.979	0.62
684.009	-3.38
684.039	12.62
684.07	-28.38
684.1	14.62
684.13	-0.38
684.16	-4.38
684.19	-7.38
684.22	6.62
684.25	1.62
684.28	-10.38
684.31	8.62
684.34	2.62
684.37	-3.38
684.4	-13.38
684.43	-5.38
684.46	-4.38
684.49	-0.38
684.52	17.62
684.55	15.62
684.58	6.62
684.61	13.62
684.64	14.62
684.67	2.62
684.7	-1.38
684.73	17.62
684.76	-5.38
684.79	13.62
684.82	-7.38
684.85	-9.38
684.88	1.62
684.91	0.62
684.94	4.62
684.97	-3.38
685	-15.38
685.03	-10.38
685.06	2.62
685.09	5.62
685.12	11.62
685.15	8.62
685.18	10.62
685.21	2.62
685.24	9.62
685.27	10.62
685.3	7.62
685.33	7.62
685.36	5.62
685.39	10.62
685.42	-5.38
685.45	-5.38
685.48	-3.38
685.51	-13.38
685.54	11.62
685.569	4.62
685.599	2.62
685.629	6.62
685.659	0.62
685.689	-11.38
685.719	2.62
685.749	0.62
685.779	9.62
685.809	11.62
685.839	0.62
685.869	-21.38
685.898	3.62
685.928	2.62
685.958	-5.38
685.988	4.62
686.018	13.62
686.048	7.62
686.078	25.62
686.108	11.62
686.137	7.62
686.167	1.62
686.197	-20.38
686.227	-10.38
686.257	20.62
686.287	27.62
686.317	13.62
686.346	-1.38
686.376	-5.38
686.406	-3.38
686.436	-3.38
686.466	-8.38
686.496	3.62
686.525	-0.38
686.555	-10.38
686.585	15.62
686.615	21.62
686.645	5.62
686.675	5.62
686.704	11.62
686.734	7.62
686.764	-3.38
686.794	0.62
686.824	-15.38
686.853	-0.38
686.883	-0.38
686.913	11.62
686.943	6.62
686.973	-3.38
687.002	2.62
687.032	-3.38
687.062	-7.38
687.092	14.62
687.121	-10.38
687.151	1.62
687.181	-17.38
687.211	16.62
687.24	3.62
687.27	2.62
687.3	4.62
687.33	-9.38
687.359	-20.38
687.389	20.62
687.419	8.62
687.449	6.62
687.478	13.62
687.508	1.62
687.538	21.62
687.568	7.62
687.597	-23.38
687.627	-4.38
687.657	15.62
687.686	2.62
687.716	20.62
687.746	-1.38
687.776	6.62
687.805	9.62
687.835	-5.38
687.865	14.62
687.894	13.62
687.924	-12.38
687.954	0.62
687.983	-9.38
688.013	15.62
688.043	9.62
688.072	-3.38
688.102	13.62
688.132	-10.38
688.161	-9.38
688.191	-2.38
688.221	11.62
688.25	3.62
688.28	-4.38
688.31	-10.38
688.339	-9.38
688.369	0.62
688.399	-4.38
688.428	-18.38
688.458	-10.38
688.488	-8.38
688.517	15.62
688.547	-4.38
688.576	24.62
688.606	5.62
688.636	-19.38
688.665	-4.38
688.695	11.62
688.725	10.62
688.754	-1.38
688.784	-4.38
688.813	7.62
688.843	8.62
688.873	-16.38
688.902	0.62
688.932	-6.38
688.961	-8.38
688.991	12.62
689.02	16.62
689.05	3.62
689.08	11.62
689.109	20.62
689.139	3.62
689.168	2.62
689.198	3.62
689.227	-5.38
689.257	11.62
689.287	10.62
689.316	1.62
689.346	0.62
689.375	-9.38
689.405	7.62
689.434	4.62
689.464	11.62
689.493	4.62
689.523	0.62
689.552	2.62
689.582	-2.38
689.611	-0.38
689.641	11.62
689.67	4.62
689.7	10.62
689.73	26.62
689.759	11.62
689.789	19.62
689.818	2.62
689.848	-0.38
689.877	4.62
689.906	1.62
689.936	-10.38
689.965	5.62
689.995	2.62
690.024	4.62
690.054	18.62
690.083	5.62
690.113	2.62
690.142	-5.38
690.172	-5.38
690.201	10.62
690.231	1.62
690.26	-1.38
690.29	14.62
690.319	24.62
690.348	0.62
690.378	4.62
690.407	14.62
690.437	2.62
690.466	7.62
690.496	6.62
690.525	10.62
690.555	-5.38
690.584	0.62
690.613	5.62
690.643	18.62
690.672	13.62
690.702	2.62
690.731	3.62
690.76	-3.38
690.79	-9.38
690.819	-10.38
690.849	0.62
690.878	-3.38
690.907	5.62
690.937	6.62
690.966	1.62
690.996	0.62
691.025	-7.38
691.054	6.62
691.084	6.62
691.113	-0.38
691.142	5.62
691.172	9.62
691.201	12.62
691.23	7.62
691.26	9.62
691.289	11.62
691.319	4.62
691.348	0.62
691.377	8.62
691.407	1.62
691.436	5.62
691.465	-7.38
691.495	-2.38
691.524	-14.38
691.553	-11.38
691.583	-1.38
691.612	7.62
691.641	11.62
691.67	16.62
691.7	19.62
691.729	0.62
691.758	14.62
691.788	13.62
691.817	-3.38
691.846	-7.38
691.876	-8.38
691.905	-4.38
691.934	-6.38
691.963	15.62
691.993	2.62
692.022	-9.38
692.051	-5.38
692.081	-4.38
692.11	20.62
692.139	16.62
692.168	22.62
692.198	13.62
692.227	-4.38
692.256	0.62
692.285	8.62
692.315	-8.38
692.344	-3.38
692.373	5.62
692.402	-13.38
692.432	-12.38
692.461	5.62
692.49	-1.38
692.519	6.62
692.548	11.62
692.578	17.62
692.607	5.62
692.636	-10.38
692.665	14.62
692.694	9.62
692.724	0.62
692.753	14.62
692.782	8.62
692.811	-13.38
692.84	-2.38
692.87	-3.38
692.899	21.62
692.928	8.62
692.957	2.62
692.986	19.62
693.016	2.62
693.045	19.62
693.074	2.62
693.103	-8.38
693.132	5.62
693.161	9.62
693.191	8.62
693.22	-11.38
693.249	-14.38
693.278	-5.38
693.307	15.62
693.336	-9.38
693.365	-18.38
693.395	-13.38
693.424	-5.38
693.453	21.62
693.482	22.62
693.511	3.62
693.54	14.62
693.569	-2.38
693.598	-8.38
693.628	3.62
693.657	15.62
693.686	18.62
693.715	13.62
693.744	15.62
693.773	8.62
693.802	20.62
693.831	-2.38
693.86	15.62
693.889	-9.38
693.919	1.62
693.948	-0.38
693.977	1.62
694.006	-6.38
694.035	7.62
694.064	-0.38
694.093	1.62
694.122	2.62
694.151	1.62
694.18	11.62
694.209	13.62
694.238	22.62
694.267	12.62
694.296	5.62
694.325	5.62
694.354	16.62
694.383	16.62
694.412	-2.38
694.441	-4.38
694.471	-8.38
694.5	5.62
694.529	16.62
694.558	29.62
694.587	11.62
694.616	5.62
694.645	-8.38
694.674	-8.38
694.703	1.62
694.732	5.62
694.761	16.62
694.79	3.62
694.819	-4.38
694.848	-4.38
694.877	14.62
694.906	14.62
694.935	2.62
694.963	13.62
694.992	-0.38
695.021	-6.38
695.05	9.62
695.079	20.62
695.108	2.62
695.137	32.62
695.166	17.62
695.195	-0.38
695.224	14.62
695.253	7.62
695.282	0.62
695.311	-10.38
695.34	4.62
695.369	11.62
695.398	13.62
695.427	15.62
695.456	1.62
695.485	4.62
695.513	12.62
695.542	13.62
695.571	12.62
695.6	28.62
695.629	12.62
695.658	15.62
695.687	8.62
695.716	5.62
695.745	24.62
695.774	-4.38
695.802	-8.38
695.831	7.62
695.86	14.62
695.889	8.62
695.918	-2.38
695.947	-0.38
695.976	1.62
696.005	11.62
696.033	5.62
696.062	18.62
696.091	8.62
696.12	9.62
696.149	18.62
696.178	-7.38
696.207	14.62
696.235	-13.38
696.264	13.62
696.293	6.62
696.322	6.62
696.351	16.62
696.38	-6.38
696.408	-10.38
696.437	5.62
696.466	7.62
696.495	13.62
696.524	27.62
696.553	10.62
696.581	-11.38
696.61	-9.38
696.639	2.62
696.668	-8.38
696.697	8.62
696.725	7.62
696.754	11.62
696.783	5.62
696.812	-4.38
696.84	2.62
696.869	11.62
696.898	-12.38
696.927	15.62
696.956	24.62
696.984	6.62
697.013	14.62
697.042	-0.38
697.071	10.62
697.099	35.62
697.128	-1.38
697.157	11.62
697.186	-2.38
697.214	2.62
697.243	-7.38
697.272	11.62
697.301	10.62
697.329	14.62
697.358	3.62
697.387	26.62
697.415	15.62
697.444	21.62
697.473	-0.38
697.502	9.62
697.53	5.62
697.559	-0.38
697.588	5.62
697.616	-5.38
697.645	1.62
697.674	20.62
697.703	-0.38
697.731	19.62
697.76	14.62
697.789	12.62
697.817	4.62
697.846	24.62
697.875	8.62
697.903	26.62
697.932	16.62
697.961	7.62
697.989	8.62
698.018	-1.38
698.047	-4.38
698.075	8.62
698.104	-18.38
698.133	2.62
698.161	-6.38
698.19	2.62
698.218	4.62
698.247	13.62
698.276	-1.38
698.304	4.62
698.333	7.62
698.362	3.62
698.39	-5.38
698.419	3.62
698.447	24.62
698.476	2.62
698.505	3.62
698.533	-13.38
698.562	1.62
698.591	-1.38
698.619	-3.38
698.648	3.62
698.676	12.62
698.705	7.62
698.733	-2.38
698.762	6.62
698.791	1.62
698.819	5.62
698.848	-5.38
698.876	11.62
698.905	27.62
698.933	7.62
698.962	13.62
698.991	10.62
699.019	11.62
699.048	2.62
699.076	4.62
699.105	-6.38
699.133	-0.38
699.162	11.62
699.19	24.62
699.219	19.62
699.248	12.62
699.276	0.62
699.305	-7.38
699.333	16.62
699.362	2.62
699.39	16.62
699.419	-14.38
699.447	11.62
699.476	3.62
699.504	6.62
699.533	18.62
699.561	-10.38
699.59	6.62
699.618	2.62
699.647	1.62
699.675	-5.38
699.704	0.62
699.732	3.62
699.761	0.62
699.789	-3.38
699.818	5.62
699.846	2.62
699.874	-5.38
699.903	6.62
699.931	-10.38
699.96	14.62
699.988	5.62
700.017	-2.38
700.045	2.62
700.074	-12.38
700.102	2.62
700.13	4.62
700.159	11.62
700.187	-2.38
700.216	-3.38
700.244	-12.38
700.273	-11.38
700.301	-1.38
700.329	1.62
700.358	3.62
700.386	-19.38
700.415	7.62
700.443	5.62
700.472	1.62
700.5	13.62
700.528	35.62
700.557	7.62
700.585	-0.38
700.614	-15.38
700.642	9.62
700.67	17.62
700.699	7.62
700.727	3.62
700.755	0.62
700.784	-4.38
700.812	-1.38
700.841	12.62
700.869	4.62
700.897	-7.38
700.926	-6.38
700.954	-15.38
700.982	1.62
701.011	-0.38
701.039	7.62
701.067	-3.38
701.096	8.62
701.124	-5.38
701.152	4.62
701.181	-8.38
701.209	-7.38
701.237	19.62
701.266	5.62
701.294	-11.38
701.322	16.62
701.351	16.62
701.379	16.62
701.407	-1.38
701.435	-7.38
701.464	22.62
701.492	37.62
701.52	15.62
701.549	-3.38
701.577	-4.38
701.605	3.62
701.634	2.62
701.662	10.62
701.69	-17.38
701.718	-12.38
701.747	1.62
701.775	-5.38
701.803	-6.38
701.831	2.62
701.86	5.62
701.888	0.62
701.916	4.62
701.944	-0.38
701.973	-10.38
702.001	-16.38
702.029	1.62
702.057	-11.38
702.086	-24.38
702.114	-18.38
702.142	-6.38
702.17	-8.38
702.199	0.62
702.227	-9.38
702.255	7.62
702.283	-0.38
702.311	27.62
702.34	6.62
702.368	-0.38
702.396	6.62
702.424	3.62
702.452	-7.38
702.481	5.62
702.509	-7.38
702.537	5.62
702.565	5.62
702.593	-19.38
702.621	-2.38
702.65	10.62
702.678	5.62
702.706	9.62
702.734	-3.38
702.762	-0.38
702.79	7.62
702.819	14.62
702.847	12.62
702.875	5.62
702.903	14.62
702.931	-2.38
702.959	2.62
702.988	6.62
703.016	-9.38
703.044	-13.38
703.072	-0.38
703.1	-11.38
703.128	4.62
703.156	10.62
703.184	-14.38
703.212	6.62
703.241	0.62
703.269	8.62
703.297	5.62
703.325	-6.38
703.353	-12.38
703.381	-0.38
703.409	-2.38
703.437	-8.38
703.465	10.62
703.493	-0.38
703.522	-7.38
703.55	-2.38
703.578	13.62
703.606	-16.38
703.634	-21.38
703.662	-9.38
703.69	-9.38
703.718	-1.38
703.746	3.62
703.774	3.62
703.802	15.62
703.83	2.62
703.858	-6.38
703.886	1.62
703.914	-8.38
703.942	8.62
703.97	-2.38
703.998	-4.38
704.027	7.62
704.055	2.62
704.083	6.62
704.111	0.62
704.139	-3.38
704.167	-5.38
704.195	14.62
704.223	-7.38
704.251	3.62
704.279	12.62
704.307	15.62
704.335	-18.38
704.363	14.62
704.391	-2.38
704.419	-8.38
704.447	-3.38
704.475	3.62
704.503	-5.38
704.531	16.62
704.558	4.62
704.586	-4.38
704.614	0.62
704.642	-4.38
704.67	-7.38
704.698	12.62
704.726	7.62
704.754	12.62
704.782	-3.38
704.81	-3.38
704.838	6.62
704.866	10.62
704.894	-12.38
704.922	-4.38
704.95	9.62
704.978	8.62
705.006	3.62
705.034	13.62
705.061	-5.38
705.089	-11.38
705.117	-9.38
705.145	-11.38
705.173	7.62
705.201	-1.38
705.229	-0.38
705.257	-7.38
705.285	1.62
705.313	8.62
705.34	-4.38
705.368	12.62
705.396	2.62
705.424	7.62
705.452	-18.38
705.48	-7.38
705.508	2.62
705.536	-0.38
705.563	-18.38
705.591	-8.38
705.619	4.62
705.647	-5.38
705.675	3.62
705.703	-8.38
705.731	-6.38
705.758	3.62
705.786	20.62
705.814	15.62
705.842	-10.38
705.87	5.62
705.898	-0.38
705.925	-9.38
705.953	2.62
705.981	0.62
706.009	4.62
706.037	2.62
706.065	8.62
706.092	-5.38
706.12	-5.38
706.148	-15.38
706.176	-16.38
706.204	1.62
706.231	-1.38
706.259	7.62
706.287	12.62
706.315	6.62
706.342	-3.38
706.37	3.62
706.398	6.62
706.426	9.62
706.454	4.62
706.481	7.62
706.509	12.62
706.537	2.62
706.565	-3.38
706.592	12.62
706.62	4.62
706.648	17.62
706.676	-0.38
706.703	12.62
706.731	2.62
706.759	0.62
706.787	-7.38
706.814	-14.38
706.842	-10.38
706.87	-4.38
706.897	5.62
706.925	-8.38
706.953	10.62
706.981	20.62
707.008	15.62
707.036	-11.38
707.064	-1.38
707.091	-5.38
707.119	13.62
707.147	1.62
707.174	-2.38
707.202	4.62
707.23	-12.38
707.258	-7.38
707.285	-12.38
707.313	-1.38
707.341	-9.38
707.368	-4.38
707.396	-9.38
707.424	20.62
707.451	-0.38
707.479	2.62
707.507	-13.38
707.534	-2.38
707.562	9.62
707.59	-2.38
707.617	-16.38
707.645	3.62
707.672	-7.38
707.7	-7.38
707.728	0.62
707.755	-4.38
707.783	11.62
707.811	0.62
707.838	-16.38
707.866	-4.38
707.893	4.62
707.921	-3.38
707.949	-0.38
707.976	-5.38
708.004	-4.38
708.031	-11.38
708.059	-12.38
708.087	1.62
708.114	-12.38
708.142	2.62
708.169	-0.38
708.197	-6.38
708.225	9.62
708.252	-9.38
708.28	10.62
708.307	-3.38
708.335	5.62
708.362	-4.38
708.39	-13.38
708.418	-3.38
708.445	-16.38
708.473	-10.38
708.5	5.62
708.528	13.62
708.555	-3.38
708.583	-7.38
708.61	0.62
708.638	-0.38
708.665	-16.38
708.693	-0.38
708.72	5.62
708.748	7.62
708.776	-2.38
708.803	7.62
708.831	-2.38
708.858	14.62
708.886	-0.38
708.913	-0.38
708.941	-4.38
708.968	5.62
708.996	1.62
709.023	25.62
709.051	-3.38
709.078	-0.38
709.105	0.62
709.133	-8.38
709.16	0.62
709.188	1.62
709.215	9.62
709.243	-2.38
709.27	-23.38
709.298	-5.38
709.325	-7.38
709.353	-4.38
709.38	-2.38
709.408	5.62
709.435	-4.38
709.462	-9.38
709.49	5.62
709.517	-5.38
709.545	-5.38
709.572	5.62
709.6	-5.38
709.627	4.62
709.655	1.62
709.682	7.62
709.709	-1.38
709.737	-4.38
709.764	-13.38
709.792	-1.38
709.819	-1.38
709.846	-7.38
709.874	5.62
709.901	11.62
709.929	4.62
709.956	4.62
709.983	-17.38
710.011	0.62
710.038	3.62
710.066	13.62
710.093	16.62
710.12	8.62
710.148	0.62
710.175	-6.38
710.202	-7.38
710.23	-4.38
710.257	1.62
710.284	5.62
710.312	1.62
710.339	-3.38
710.366	-1.38
710.394	-17.38
710.421	-9.38
710.448	-7.38
710.476	-14.38
710.503	-6.38
710.53	4.62
710.558	16.62
710.585	5.62
710.612	2.62
710.64	-5.38
710.667	11.62
710.694	-3.38
710.722	-1.38
710.749	-2.38
710.776	5.62
710.804	14.62
710.831	2.62
710.858	3.62
710.885	-14.38
710.913	-6.38
710.94	18.62
710.967	1.62
710.995	7.62
711.022	14.62
711.049	9.62
711.076	-1.38
711.104	-0.38
711.131	6.62
711.158	7.62
711.185	3.62
711.213	-9.38
711.24	-7.38
711.267	-1.38
711.294	-4.38
711.322	13.62
711.349	1.62
711.376	-7.38
711.403	11.62
711.431	-2.38
711.458	-10.38
711.485	-7.38
711.512	-0.38
711.54	9.62
711.567	3.62
711.594	-2.38
711.621	2.62
711.648	7.62
711.676	-1.38
711.703	8.62
711.73	-20.38
711.757	3.62
711.784	-1.38
711.812	16.62
711.839	-2.38
711.866	3.62
711.893	-11.38
711.92	11.62
711.947	4.62
711.975	14.62
712.002	-8.38
712.029	13.62
712.056	13.62
712.083	30.62
712.11	-8.38
712.138	-11.38
712.165	4.62
712.192	5.62
712.219	6.62
712.246	-11.38
712.273	1.62
712.3	-7.38
712.328	-6.38
712.355	-0.38
712.382	-3.38
712.409	28.62
712.436	-1.38
712.463	3.62
712.49	17.62
712.517	9.62
712.544	-1.38
712.572	2.62
712.599	-19.38
712.626	-1.38
712.653	-0.38
712.68	-20.38
712.707	1.62
712.734	4.62
712.761	-2.38
712.788	2.62
712.815	-4.38
712.842	7.62
712.87	12.62
712.897	-3.38
712.924	0.62
712.951	-13.38
712.978	15.62
713.005	23.62
713.032	15.62
713.059	-12.38
713.086	4.62
713.113	-12.38
713.14	-8.38
713.167	2.62
713.194	14.62
713.221	-8.38
713.248	11.62
713.275	-0.38
713.302	-1.38
713.329	3.62
713.356	11.62
713.383	2.62
713.41	12.62
713.437	2.62
713.464	-5.38
713.491	6.62
713.518	6.62
713.545	-4.38
713.572	-2.38
713.599	14.62
713.626	3.62
713.653	8.62
713.68	-1.38
713.707	-0.38
713.734	13.62
713.761	11.62
713.788	-12.38
713.815	-1.38
713.842	10.62
713.869	6.62
713.896	2.62
713.923	-4.38
713.95	6.62
713.977	-1.38
714.004	-6.38
714.031	10.62
714.058	-6.38
714.085	3.62
714.112	22.62
714.139	-1.38
714.165	-21.38
714.192	-7.38
714.219	-9.38
714.246	-3.38
714.273	-2.38
714.3	-10.38
714.327	-5.38
714.354	6.62
714.381	-18.38
714.408	-17.38
714.435	-26.38
714.461	-11.38
714.488	9.62
714.515	-6.38
714.542	-13.38
714.569	-6.38
714.596	-20.38
714.623	-5.38
714.65	-1.38
714.677	9.62
714.703	-4.38
714.73	7.62
714.757	7.62
714.784	3.62
714.811	-10.38
714.838	-2.38
714.865	-0.38
714.891	14.62
714.918	2.62
714.945	-9.38
714.972	-12.38
714.999	10.62
715.026	2.62
715.052	10.62
715.079	-4.38
715.106	9.62
715.133	5.62
715.16	-17.38
715.187	2.62
715.213	4.62
715.24	-11.38
715.267	7.62
715.294	11.62
715.321	9.62
715.347	1.62
715.374	-9.38
715.401	3.62
715.428	-3.38
715.455	5.62
715.481	3.62
715.508	16.62
715.535	2.62
715.562	4.62
715.588	0.62
715.615	12.62
715.642	7.62
715.669	6.62
715.695	-0.38
715.722	10.62
715.749	7.62
715.776	11.62
715.802	-2.38
715.829	3.62
715.856	-16.38
715.883	23.62
715.909	-6.38
715.936	1.62
715.963	-3.38
715.99	-7.38
716.016	1.62
716.043	3.62
716.07	-4.38
716.096	-10.38
716.123	7.62
716.15	4.62
716.177	8.62
716.203	10.62
716.23	13.62
716.257	15.62
716.283	3.62
716.31	-3.38
716.337	8.62
716.363	-3.38
716.39	-4.38
716.417	12.62
716.443	6.62
716.47	8.62
716.497	11.62
716.523	5.62
716.55	3.62
716.577	17.62
716.603	-6.38
716.63	10.62
716.657	6.62
716.683	-7.38
716.71	3.62
716.737	1.62
716.763	12.62
716.79	6.62
716.817	16.62
716.843	5.62
716.87	-1.38
716.897	-1.38
716.923	13.62
716.95	-7.38
716.976	0.62
717.003	-2.38
717.03	-0.38
717.056	-1.38
717.083	5.62
717.109	10.62
717.136	4.62
717.163	-9.38
717.189	-7.38
717.216	-2.38
717.242	-4.38
717.269	12.62
717.296	9.62
717.322	8.62
717.349	12.62
717.375	5.62
717.402	-1.38
717.428	-1.38
717.455	4.62
717.481	-6.38
717.508	3.62
717.535	5.62
717.561	6.62
717.588	-13.38
717.614	7.62
717.641	1.62
717.667	0.62
717.694	0.62
717.72	-3.38
717.747	8.62
717.773	-1.38
717.8	1.62
717.826	-6.38
717.853	2.62
717.88	11.62
717.906	9.62
717.933	18.62
717.959	7.62
717.986	13.62
718.012	0.62
718.039	13.62
718.065	24.62
718.092	3.62
718.118	-12.38
718.144	-21.38
718.171	9.62
718.197	14.62
718.224	-3.38
718.25	3.62
718.277	-7.38
718.303	7.62
718.33	7.62
718.356	-9.38
718.383	-18.38
718.409	3.62
718.436	-5.38
718.462	-0.38
718.489	7.62
718.515	29.62
718.541	15.62
718.568	-0.38
718.594	-1.38
718.621	13.62
718.647	4.62
718.674	11.62
718.7	24.62
718.726	-13.38
718.753	-2.38
718.779	7.62
718.806	-1.38
718.832	-7.38
718.858	2.62
718.885	2.62
718.911	10.62
718.938	11.62
718.964	-10.38
718.99	6.62
719.017	-5.38
719.043	6.62
719.07	10.62
719.096	6.62
719.122	-9.38
719.149	-17.38
719.175	0.62
719.201	-1.38
719.228	-2.38
719.254	-0.38
719.281	2.62
719.307	-4.38
719.333	0.62
719.36	16.62
719.386	2.62
719.412	-1.38
719.439	-6.38
719.465	5.62
719.491	-23.38
719.518	0.62
719.544	3.62
719.57	6.62
719.597	-11.38
719.623	-7.38
719.649	9.62
719.675	8.62
719.702	2.62
719.728	8.62
719.754	-13.38
719.781	-10.38
719.807	5.62
719.833	2.62
719.86	8.62
719.886	8.62
719.912	6.62
719.938	-15.38
719.965	-0.38
719.991	-2.38
720.017	7.62
720.044	-9.38
720.07	0.62
720.096	2.62
720.122	2.62
720.149	2.62
720.175	9.62
720.201	6.62
720.227	0.62
720.254	10.62
720.28	-2.38
720.306	-13.38
720.332	4.62
720.359	-1.38
720.385	-9.38
720.411	5.62
720.437	6.62
720.463	-8.38
720.49	28.62
720.516	-0.38
720.542	-9.38
720.568	-2.38
720.595	16.62
720.621	-2.38
720.647	5.62
720.673	3.62
720.699	8.62
720.725	5.62
720.752	14.62
720.778	0.62
720.804	0.62
720.83	14.62
720.856	-1.38
720.883	-6.38
720.909	2.62
720.935	-5.38
720.961	21.62
720.987	11.62
721.013	3.62
721.04	-7.38
721.066	2.62
721.092	-2.38
721.118	3.62
721.144	-1.38
721.17	21.62
721.196	3.62
721.223	0.62
721.249	-1.38
721.275	15.62
721.301	-4.38
721.327	9.62
721.353	-0.38
721.379	2.62
721.405	-3.38
721.432	23.62
721.458	-4.38
721.484	11.62
721.51	0.62
721.536	10.62
721.562	2.62
721.588	-6.38
721.614	7.62
721.64	0.62
721.666	1.62
721.693	-0.38
721.719	0.62
721.745	-4.38
721.771	-7.38
721.797	-2.38
721.823	13.62
721.849	15.62
721.875	-3.38
721.901	12.62
721.927	0.62
721.953	14.62
721.979	15.62
722.005	-2.38
722.031	1.62
722.057	7.62
722.083	10.62
722.109	13.62
722.135	6.62
722.161	22.62
722.187	3.62
722.214	-4.38
722.24	-7.38
722.266	-0.38
722.292	-2.38
722.318	2.62
722.344	6.62
722.37	15.62
722.396	21.62
722.422	-5.38
722.448	2.62
722.474	-4.38
722.5	10.62
722.526	8.62
722.552	3.62
722.578	-1.38
722.603	13.62
722.629	-0.38
722.655	19.62
722.681	-5.38
722.707	0.62
722.733	-7.38
722.759	-12.38
722.785	0.62
722.811	-0.38
722.837	5.62
722.863	15.62
722.889	11.62
722.915	-5.38
722.941	-5.38
722.967	5.62
722.993	3.62
723.019	10.62
723.045	14.62
723.071	5.62
723.097	12.62
723.122	-2.38
723.148	-1.38
723.174	8.62
723.2	5.62
723.226	0.62
723.252	-7.38
723.278	-13.38
723.304	-4.38
723.33	-3.38
723.356	2.62
723.381	-2.38
723.407	2.62
723.433	5.62
723.459	4.62
723.485	-1.38
723.511	2.62
723.537	9.62
723.563	-1.38
723.588	6.62
723.614	13.62
723.64	0.62
723.666	1.62
723.692	3.62
723.718	0.62
723.744	9.62
723.769	1.62
723.795	-9.38
723.821	1.62
723.847	-2.38
723.873	-2.38
723.899	13.62
723.924	-9.38
723.95	-0.38
723.976	-3.38
724.002	11.62
724.028	9.62
724.053	15.62
724.079	-3.38
724.105	7.62
724.131	-4.38
724.157	0.62
724.182	-15.38
724.208	10.62
724.234	16.62
724.26	-7.38
724.286	6.62
724.311	0.62
724.337	-8.38
724.363	-8.38
724.389	5.62
724.415	-13.38
724.44	19.62
724.466	2.62
724.492	-2.38
724.518	11.62
724.543	-21.38
724.569	-2.38
724.595	7.62
724.621	3.62
724.646	0.62
724.672	10.62
724.698	1.62
724.723	-3.38
724.749	11.62
724.775	8.62
724.801	7.62
724.826	-5.38
724.852	-2.38
724.878	-10.38
724.904	-5.38
724.929	3.62
724.955	-3.38
724.981	-1.38
725.006	9.62
725.032	-0.38
725.058	8.62
725.083	4.62
725.109	-4.38
725.135	-1.38
725.161	8.62
725.186	-17.38
725.212	5.62
725.238	2.62
725.263	21.62
725.289	-0.38
725.315	-16.38
725.34	3.62
725.366	6.62
725.392	-5.38
725.417	-3.38
725.443	13.62
725.468	7.62
725.494	14.62
725.52	4.62
725.545	-7.38
725.571	-6.38
725.597	-9.38
725.622	3.62
725.648	-2.38
725.674	8.62
725.699	6.62
725.725	-3.38
725.75	12.62
725.776	-4.38
725.802	-7.38
725.827	3.62
725.853	8.62
725.878	15.62
725.904	6.62
725.93	-5.38
725.955	-4.38
725.981	-5.38
726.006	-0.38
726.032	3.62
726.057	-10.38
726.083	-5.38
726.109	-2.38
726.134	9.62
726.16	-1.38
726.185	1.62
726.211	1.62
726.236	5.62
726.262	11.62
726.288	13.62
726.313	29.62
726.339	20.62
726.364	17.62
726.39	6.62
726.415	-3.38
726.441	-3.38
726.466	-16.38
726.492	8.62
726.517	3.62
726.543	-1.38
726.568	-13.38
726.594	-8.38
726.619	16.62
726.645	11.62
726.67	4.62
726.696	7.62
726.721	-5.38
726.747	-13.38
726.772	-2.38
726.798	6.62
726.823	5.62
726.849	-4.38
726.874	7.62
726.9	30.62
726.925	-1.38
726.951	12.62
726.976	13.62
727.002	-8.38
727.027	3.62
727.053	16.62
727.078	-8.38
727.104	-3.38
727.129	-19.38
727.155	4.62
727.18	12.62
727.205	0.62
727.231	-9.38
727.256	2.62
727.282	9.62
727.307	12.62
727.333	2.62
727.358	10.62
727.383	-18.38
727.409	-3.38
727.434	4.62
727.46	-0.38
727.485	-0.38
727.511	-1.38
727.536	-2.38
727.561	-9.38
727.587	-13.38
727.612	-11.38
727.637	-4.38
727.663	-12.38
727.688	12.62
727.714	-8.38
727.739	-5.38
727.764	-1.38
727.79	-4.38
727.815	-0.38
727.841	12.62
727.866	0.62
727.891	-0.38
727.917	-8.38
727.942	-2.38
727.967	-17.38
727.993	-4.38
728.018	3.62
728.043	12.62
728.069	20.62
728.094	19.62
728.119	-4.38
728.145	15.62
728.17	3.62
728.195	18.62
728.221	8.62
728.246	-1.38
728.271	-9.38
728.297	13.62
728.322	-0.38
728.347	12.62
728.373	20.62
728.398	9.62
728.423	-5.38
728.448	-1.38
728.474	-5.38
728.499	22.62
728.524	-11.38
728.55	-17.38
728.575	7.62
728.6	10.62
728.625	-16.38
728.651	0.62
728.676	4.62
728.701	3.62
728.727	-1.38
728.752	-10.38
728.777	-0.38
728.802	3.62
728.828	3.62
728.853	10.62
728.878	-9.38
728.903	-12.38
728.929	-3.38
728.954	10.62
728.979	13.62
729.004	-16.38
729.03	-15.38
729.055	4.62
729.08	-6.38
729.105	-4.38
729.13	36.62
729.156	6.62
729.181	0.62
729.206	-0.38
729.231	2.62
729.256	-4.38
729.282	4.62
729.307	-8.38
729.332	-15.38
729.357	-16.38
729.382	-1.38
729.408	-7.38
729.433	0.62
729.458	3.62
729.483	6.62
729.508	13.62
729.533	5.62
729.559	-1.38
729.584	-11.38
729.609	-0.38
729.634	16.62
729.659	3.62
729.684	5.62
729.71	27.62
729.735	-4.38
729.76	-0.38
729.785	2.62
729.81	0.62
729.835	-8.38
729.86	-15.38
729.886	-2.38
729.911	9.62
729.936	-4.38
729.961	18.62
729.986	-0.38
730.011	-7.38
730.036	0.62
730.061	-4.38
730.086	7.62
730.112	0.62
730.137	0.62
730.162	-1.38
730.187	-13.38
730.212	6.62
730.237	4.62
730.262	16.62
730.287	3.62
730.312	3.62
730.337	-8.38
730.362	16.62
730.387	-5.38
730.413	-13.38
730.438	-16.38
730.463	-1.38
730.488	0.62
730.513	-10.38
730.538	-4.38
730.563	9.62
730.588	6.62
730.613	9.62
730.638	16.62
730.663	0.62
730.688	14.62
730.713	14.62
730.738	6.62
730.763	9.62
730.788	-5.38
730.813	4.62
730.838	-11.38
730.863	-5.38
730.888	5.62
730.913	-0.38
730.938	-29.38
730.963	-6.38
730.988	6.62
731.013	18.62
731.038	-3.38
731.063	8.62
731.088	3.62
731.113	-2.38
731.138	13.62
731.163	11.62
731.188	-1.38
731.213	3.62
731.238	6.62
731.263	4.62
731.288	-0.38
731.313	8.62
731.338	7.62
731.363	20.62
731.388	-0.38
731.413	15.62
731.438	14.62
731.463	8.62
731.487	7.62
731.512	3.62
731.537	4.62
731.562	15.62
731.587	1.62
731.612	-4.38
731.637	-3.38
731.662	-7.38
731.687	3.62
731.712	-8.38
731.737	12.62
731.762	5.62
731.786	6.62
731.811	7.62
731.836	6.62
731.861	13.62
731.886	7.62
731.911	4.62
731.936	6.62
731.961	-13.38
731.986	4.62
732.01	-1.38
732.035	-11.38
732.06	18.62
732.085	9.62
732.11	-5.38
732.135	-5.38
732.16	-0.38
732.184	-3.38
732.209	1.62
732.234	6.62
732.259	-7.38
732.284	11.62
732.309	-3.38
732.334	4.62
732.358	-19.38
732.383	-17.38
732.408	1.62
732.433	2.62
732.458	1.62
732.482	-6.38
732.507	0.62
732.532	-10.38
732.557	11.62
732.582	10.62
732.607	-3.38
732.631	-6.38
732.656	-8.38
732.681	-7.38
732.706	-1.38
732.73	-2.38
732.755	-6.38
732.78	8.62
732.805	5.62
732.83	2.62
732.854	12.62
732.879	11.62
732.904	0.62
732.929	2.62
732.953	11.62
732.978	0.62
733.003	-1.38
733.028	-9.38
733.052	6.62
733.077	5.62
733.102	12.62
733.127	0.62
733.151	7.62
733.176	0.62
733.201	0.62
733.226	-3.38
733.25	-1.38
733.275	2.62
733.3	8.62
733.324	20.62
733.349	3.62
733.374	10.62
733.399	12.62
733.423	-3.38
733.448	3.62
733.473	-15.38
733.497	-11.38
733.522	-9.38
733.547	6.62
733.571	1.62
733.596	6.62
733.621	7.62
733.646	-10.38
733.67	2.62
733.695	-5.38
733.72	21.62
733.744	6.62
733.769	7.62
733.794	3.62
733.818	-4.38
733.843	0.62
733.867	-12.38
733.892	-28.38
733.917	-15.38
733.941	-0.38
733.966	3.62
733.991	-7.38
734.015	10.62
734.04	7.62
734.065	2.62
734.089	20.62
734.114	8.62
734.138	14.62
734.163	-5.38
734.188	8.62
734.212	22.62
734.237	5.62
734.261	2.62
734.286	7.62
734.311	-2.38
734.335	8.62
734.36	-0.38
734.384	2.62
734.409	8.62
734.434	-1.38
734.458	8.62
734.483	-2.38
734.507	2.62
734.532	7.62
734.556	-7.38
734.581	-3.38
734.606	10.62
734.63	-1.38
734.655	20.62
734.679	16.62
734.704	1.62
734.728	3.62
734.753	3.62
734.777	8.62
734.802	14.62
734.826	-4.38
734.851	-1.38
734.876	16.62
734.9	-1.38
734.925	-2.38
734.949	9.62
734.974	4.62
734.998	-6.38
735.023	-3.38
735.047	1.62
735.072	12.62
735.096	-9.38
735.121	10.62
735.145	10.62
735.17	5.62
735.194	14.62
735.219	15.62
735.243	21.62
735.268	9.62
735.292	16.62
735.317	6.62
735.341	11.62
735.365	-6.38
735.39	14.62
735.414	7.62
735.439	2.62
735.463	13.62
735.488	4.62
735.512	10.62
735.537	16.62
735.561	5.62
735.586	2.62
735.61	2.62
735.634	-23.38
735.659	2.62
735.683	2.62
735.708	-4.38
735.732	5.62
735.757	4.62
735.781	2.62
735.805	16.62
735.83	-1.38
735.854	0.62
735.879	6.62
735.903	5.62
735.927	4.62
735.952	10.62
735.976	12.62
736.001	10.62
736.025	11.62
736.049	-5.38
736.074	-2.38
736.098	-10.38
736.123	6.62
736.147	-1.38
736.171	-9.38
736.196	-0.38
736.22	-16.38
736.244	2.62
736.269	4.62
736.293	-13.38
736.317	8.62
736.342	3.62
736.366	18.62
736.39	15.62
736.415	3.62
736.439	4.62
736.463	6.62
736.488	7.62
736.512	-0.38
736.536	10.62
736.561	31.62
736.585	8.62
736.609	14.62
736.634	1.62
736.658	-6.38
736.682	-3.38
736.707	-32.38
736.731	-1.38
736.755	10.62
736.78	16.62
736.804	24.62
736.828	22.62
736.852	-6.38
736.877	17.62
736.901	15.62
736.925	3.62
736.949	-8.38
736.974	-9.38
736.998	-15.38
737.022	3.62
737.047	-7.38
737.071	-2.38
737.095	12.62
737.119	15.62
737.144	2.62
737.168	-2.38
737.192	-2.38
737.216	10.62
737.241	5.62
737.265	7.62
737.289	4.62
737.313	1.62
737.337	10.62
737.362	10.62
737.386	0.62
737.41	-10.38
737.434	-3.38
737.459	5.62
737.483	18.62
737.507	7.62
737.531	11.62
737.555	11.62
737.58	-0.38
737.604	13.62
737.628	-6.38
737.652	-8.38
737.676	-1.38
737.701	5.62
737.725	4.62
737.749	5.62
737.773	-0.38
737.797	1.62
737.821	-0.38
737.846	-3.38
737.87	34.62
737.894	7.62
737.918	3.62
737.942	-11.38
737.966	-1.38
737.99	-1.38
738.015	-8.38
738.039	-3.38
738.063	2.62
738.087	-1.38
738.111	8.62
738.135	9.62
738.159	-19.38
738.184	3.62
738.208	10.62
738.232	-0.38
738.256	5.62
738.28	6.62
738.304	-7.38
738.328	-12.38
738.352	-2.38
738.376	0.62
738.4	2.62
738.425	10.62
738.449	2.62
738.473	9.62
738.497	6.62
738.521	3.62
738.545	-10.38
738.569	9.62
738.593	29.62
738.617	11.62
738.641	11.62
738.665	-6.38
738.689	1.62
738.713	0.62
738.737	-1.38
738.762	7.62
738.786	-3.38
738.81	-4.38
738.834	2.62
738.858	-2.38
738.882	-0.38
738.906	-12.38
738.93	-1.38
738.954	5.62
738.978	7.62
739.002	5.62
739.026	14.62
739.05	5.62
739.074	-8.38
739.098	22.62
739.122	26.62
739.146	9.62
739.17	2.62
739.194	11.62
739.218	-0.38
739.242	-6.38
739.266	0.62
739.29	8.62
739.314	8.62
739.338	11.62
739.362	-0.38
739.386	-0.38
739.41	-13.38
739.434	-3.38
739.458	28.62
739.482	13.62
739.506	15.62
739.53	-0.38
739.554	22.62
739.577	-11.38
739.601	3.62
739.625	-7.38
739.649	6.62
739.673	6.62
739.697	10.62
739.721	-11.38
739.745	5.62
739.769	2.62
739.793	-0.38
739.817	23.62
739.841	4.62
739.865	1.62
739.889	-19.38
739.912	-8.38
739.936	-2.38
739.96	9.62
739.984	5.62
740.008	8.62
740.032	-13.38
740.056	-2.38
740.08	13.62
740.104	-13.38
740.127	-0.38
740.151	-3.38
740.175	-1.38
740.199	11.62
740.223	52.62
740.247	19.62
740.271	7.62
740.295	-1.38
740.318	-14.38
740.342	-13.38
740.366	6.62
740.39	5.62
740.414	-8.38
740.438	-2.38
740.461	11.62
740.485	1.62
740.509	-3.38
740.533	0.62
740.557	-5.38
740.581	-0.38
740.604	2.62
740.628	-6.38
740.652	3.62
740.676	2.62
740.7	19.62
740.723	-1.38
740.747	-1.38
740.771	-3.38
740.795	-23.38
740.819	5.62
740.842	12.62
740.866	14.62
740.89	13.62
740.914	10.62
740.938	-10.38
740.961	24.62
740.985	-4.38
741.009	-0.38
741.033	15.62
741.056	11.62
741.08	-9.38
741.104	3.62
741.128	-13.38
741.151	9.62
741.175	14.62
741.199	13.62
741.223	13.62
741.246	-0.38
741.27	6.62
741.294	4.62
741.318	-12.38
741.341	2.62
741.365	-10.38
741.389	-0.38
741.413	-7.38
741.436	6.62
741.46	20.62
741.484	19.62
741.507	-4.38
741.531	27.62
741.555	-3.38
741.579	-1.38
741.602	-9.38
741.626	4.62
741.65	4.62
741.673	3.62
741.697	5.62
741.721	-2.38
741.744	0.62
741.768	1.62
741.792	1.62
741.815	-5.38
741.839	6.62
741.863	9.62
741.886	10.62
741.91	8.62
741.934	-1.38
741.957	-14.38
741.981	6.62
742.005	11.62
742.028	-1.38
742.052	-3.38
742.075	4.62
742.099	15.62
742.123	-3.38
742.146	-6.38
742.17	-4.38
742.194	-5.38
742.217	0.62
742.241	-1.38
742.264	-18.38
742.288	8.62
742.312	8.62
742.335	-5.38
742.359	19.62
742.382	-0.38
742.406	4.62
742.43	-6.38
742.453	11.62
742.477	-2.38
742.5	2.62
742.524	-16.38
742.548	-3.38
742.571	3.62
742.595	-2.38
742.618	-6.38
742.642	-2.38
742.665	4.62
742.689	0.62
742.712	6.62
742.736	-0.38
742.76	-3.38
742.783	-20.38
742.807	-0.38
742.83	7.62
742.854	-0.38
742.877	-3.38
742.901	3.62
742.924	-10.38
742.948	5.62
742.971	-3.38
742.995	0.62
743.018	-4.38
743.042	-12.38
743.065	-13.38
743.089	-4.38
743.112	5.62
743.136	-0.38
743.159	-11.38
743.183	-15.38
743.206	-3.38
743.23	-6.38
743.253	16.62
743.277	10.62
743.3	-4.38
743.324	8.62
743.347	-7.38
743.371	4.62
743.394	2.62
743.418	13.62
743.441	2.62
743.465	-2.38
743.488	-0.38
743.512	-4.38
743.535	-21.38
743.558	-11.38
743.582	-1.38
743.605	-1.38
743.629	12.62
743.652	25.62
743.676	-0.38
743.699	6.62
743.723	-5.38
743.746	10.62
743.769	-8.38
743.793	14.62
743.816	-1.38
743.84	-0.38
743.863	8.62
743.886	8.62
743.91	16.62
743.933	9.62
743.957	6.62
743.98	0.62
744.003	12.62
744.027	20.62
744.05	11.62
744.074	5.62
744.097	-15.38
744.12	-1.38
744.144	-5.38
744.167	-1.38
744.19	3.62
744.214	4.62
744.237	-1.38
744.26	15.62
744.284	-2.38
744.307	-8.38
744.331	8.62
744.354	0.62
744.377	-5.38
744.401	-4.38
744.424	-11.38
744.447	-17.38
744.471	-12.38
