Data from HighRes_H2D2_15_04_11_07_2024_HR4C61891__7__15-05-35-143.txt Node

Date: Thu Nov 07 15:05:35 EST 2024
User: crc00042
Spectrometer: HR4C6189
Trigger mode: 4
Integration Time (sec): 1.000000E-1
Scans to average: 1
Electric dark correction enabled: true
Nonlinearity correction enabled: false
Boxcar width: 0
XAxis mode: Wavelengths
Number of Pixels in Spectrum: 3648
>>>>>Begin Spectral Data<<<<<
639.567	-10.15
639.602	-10.15
639.636	-10.15
639.67	-41.15
639.704	-2.15
639.738	-6.15
639.773	10.85
639.807	-2.15
639.841	0.85
639.875	12.85
639.909	-7.15
639.943	-19.15
639.978	0.85
640.012	5.85
640.046	13.85
640.08	-7.15
640.114	7.85
640.148	-11.15
640.182	-1.15
640.217	-19.15
640.251	4.85
640.285	19.85
640.319	-28.15
640.353	-2.15
640.387	-14.15
640.421	-2.15
640.455	-15.15
640.49	-4.15
640.524	-7.15
640.558	11.85
640.592	-9.15
640.626	-1.15
640.66	-8.15
640.694	-1.15
640.728	-4.15
640.762	4.85
640.796	4.85
640.83	12.85
640.865	7.85
640.899	-5.15
640.933	1.85
640.967	-0.15
641.001	4.85
641.035	-11.15
641.069	-14.15
641.103	-21.15
641.137	-15.15
641.171	-11.15
641.205	9.85
641.239	9.85
641.273	12.85
641.307	14.85
641.341	5.85
641.375	12.85
641.409	-22.15
641.443	-6.15
641.477	-3.15
641.511	-7.15
641.545	-1.15
641.579	-3.15
641.614	4.85
641.648	-4.15
641.682	-11.15
641.716	-6.15
641.75	16.85
641.784	-0.15
641.818	1.85
641.852	-0.15
641.886	-8.15
641.919	14.85
641.953	12.85
641.987	-27.15
642.021	-18.15
642.055	-13.15
642.089	-13.15
642.123	-8.15
642.157	0.85
642.191	4.85
642.225	9.85
642.259	-2.15
642.293	-2.15
642.327	-7.15
642.361	-13.15
642.395	5.85
642.429	12.85
642.463	1.85
642.497	13.85
642.531	-3.15
642.565	-21.15
642.599	3.85
642.633	1.85
642.666	12.85
642.7	10.85
642.734	11.85
642.768	1.85
642.802	-2.15
642.836	-4.15
642.87	-18.15
642.904	-0.15
642.938	5.85
642.972	3.85
643.005	8.85
643.039	5.85
643.073	-14.15
643.107	7.85
643.141	23.85
643.175	-15.15
643.209	-17.15
643.243	4.85
643.276	2.85
643.31	-5.15
643.344	-0.15
643.378	5.85
643.412	-1.15
643.446	0.85
643.48	-2.15
643.513	5.85
643.547	-10.15
643.581	-0.15
643.615	2.85
643.649	-9.15
643.683	7.85
643.716	10.85
643.75	-9.15
643.784	-20.15
643.818	-4.15
643.852	-9.15
643.886	-27.15
643.919	9.85
643.953	-14.15
643.987	-6.15
644.021	-0.15
644.055	15.85
644.088	-0.15
644.122	0.85
644.156	-3.15
644.19	-15.15
644.224	11.85
644.257	2.85
644.291	16.85
644.325	10.85
644.359	0.85
644.392	10.85
644.426	6.85
644.46	-4.15
644.494	-6.15
644.527	7.85
644.561	8.85
644.595	-1.15
644.629	-1.15
644.662	-12.15
644.696	20.85
644.73	-5.15
644.764	0.85
644.797	-9.15
644.831	6.85
644.865	9.85
644.899	9.85
644.932	20.85
644.966	-16.15
645	14.85
645.033	6.85
645.067	-23.15
645.101	-12.15
645.135	5.85
645.168	-4.15
645.202	-26.15
645.236	6.85
645.269	22.85
645.303	3.85
645.337	-22.15
645.37	-16.15
645.404	-3.15
645.438	0.85
645.471	-5.15
645.505	1.85
645.539	-9.15
645.572	-11.15
645.606	4.85
645.64	4.85
645.673	12.85
645.707	18.85
645.741	2.85
645.774	-8.15
645.808	6.85
645.842	1.85
645.875	-0.15
645.909	-3.15
645.943	-8.15
645.976	-6.15
646.01	5.85
646.043	16.85
646.077	6.85
646.111	12.85
646.144	0.85
646.178	14.85
646.212	-6.15
646.245	-6.15
646.279	-9.15
646.312	4.85
646.346	12.85
646.38	-15.15
646.413	-2.15
646.447	12.85
646.48	3.85
646.514	23.85
646.547	-6.15
646.581	-20.15
646.615	-8.15
646.648	2.85
646.682	-1.15
646.715	1.85
646.749	-6.15
646.782	-8.15
646.816	-15.15
646.85	13.85
646.883	-16.15
646.917	7.85
646.95	-2.15
646.984	-11.15
647.017	-11.15
647.051	7.85
647.084	2.85
647.118	-28.15
647.151	-11.15
647.185	0.85
647.218	-12.15
647.252	5.85
647.285	-11.15
647.319	-10.15
647.353	-17.15
647.386	7.85
647.42	-5.15
647.453	-6.15
647.487	0.85
647.52	6.85
647.553	0.85
647.587	5.85
647.62	-13.15
647.654	-9.15
647.687	4.85
647.721	6.85
647.754	8.85
647.788	9.85
647.821	5.85
647.855	2.85
647.888	4.85
647.922	13.85
647.955	0.85
647.989	15.85
648.022	1.85
648.055	6.85
648.089	-2.15
648.122	20.85
648.156	5.85
648.189	-4.15
648.223	-5.15
648.256	13.85
648.29	10.85
648.323	1.85
648.356	3.85
648.39	8.85
648.423	-2.15
648.457	6.85
648.49	11.85
648.523	8.85
648.557	-13.15
648.59	-18.15
648.624	2.85
648.657	-3.15
648.69	12.85
648.724	9.85
648.757	2.85
648.791	11.85
648.824	3.85
648.857	18.85
648.891	9.85
648.924	12.85
648.957	23.85
648.991	-1.15
649.024	14.85
649.057	-23.15
649.091	-21.15
649.124	4.85
649.158	12.85
649.191	26.85
649.224	-3.15
649.258	2.85
649.291	-2.15
649.324	-12.15
649.358	-21.15
649.391	-0.15
649.424	-4.15
649.458	8.85
649.491	6.85
649.524	-4.15
649.557	-9.15
649.591	-14.15
649.624	-2.15
649.657	-14.15
649.691	-2.15
649.724	-5.15
649.757	1.85
649.791	-8.15
649.824	21.85
649.857	1.85
649.89	3.85
649.924	-25.15
649.957	-19.15
649.99	-8.15
650.023	-3.15
650.057	-8.15
650.09	-1.15
650.123	-10.15
650.157	11.85
650.19	15.85
650.223	1.85
650.256	-14.15
650.29	3.85
650.323	-6.15
650.356	14.85
650.389	3.85
650.423	-4.15
650.456	-4.15
650.489	4.85
650.522	-3.15
650.555	6.85
650.589	14.85
650.622	8.85
650.655	3.85
650.688	9.85
650.721	-7.15
650.755	3.85
650.788	-1.15
650.821	7.85
650.854	-6.15
650.887	3.85
650.921	6.85
650.954	12.85
650.987	-10.15
651.02	-11.15
651.053	-17.15
651.087	-20.15
651.12	21.85
651.153	3.85
651.186	-6.15
651.219	-19.15
651.252	-2.15
651.286	2.85
651.319	-1.15
651.352	-10.15
651.385	-1.15
651.418	4.85
651.451	3.85
651.484	6.85
651.518	-2.15
651.551	15.85
651.584	-9.15
651.617	10.85
651.65	12.85
651.683	-12.15
651.716	-1.15
651.749	-14.15
651.783	15.85
651.816	-0.15
651.849	5.85
651.882	-1.15
651.915	-1.15
651.948	6.85
651.981	-6.15
652.014	-7.15
652.047	-11.15
652.08	-10.15
652.114	-19.15
652.147	-5.15
652.18	22.85
652.213	15.85
652.246	1.85
652.279	-11.15
652.312	11.85
652.345	5.85
652.378	10.85
652.411	17.85
652.444	6.85
652.477	6.85
652.51	-9.15
652.543	-29.15
652.576	0.85
652.609	-0.15
652.642	-5.15
652.675	-8.15
652.709	-8.15
652.742	3.85
652.775	-15.15
652.808	-8.15
652.841	8.85
652.874	-16.15
652.907	-8.15
652.94	1.85
652.973	-3.15
653.006	-10.15
653.039	-14.15
653.072	-6.15
653.105	-4.15
653.138	-24.15
653.171	-15.15
653.204	2.85
653.237	7.85
653.27	0.85
653.303	4.85
653.336	12.85
653.368	-1.15
653.401	-3.15
653.434	-0.15
653.467	-3.15
653.5	-22.15
653.533	-9.15
653.566	-4.15
653.599	-3.15
653.632	-11.15
653.665	12.85
653.698	1.85
653.731	-15.15
653.764	-2.15
653.797	-1.15
653.83	4.85
653.863	-1.15
653.896	-2.15
653.929	-12.15
653.961	-9.15
653.994	1.85
654.027	-5.15
654.06	-6.15
654.093	-13.15
654.126	-0.15
654.159	-24.15
654.192	10.85
654.225	9.85
654.258	-8.15
654.29	2.85
654.323	-9.15
654.356	-11.15
654.389	2.85
654.422	8.85
654.455	-13.15
654.488	-11.15
654.521	-6.15
654.553	-16.15
654.586	14.85
654.619	-6.15
654.652	4.85
654.685	5.85
654.718	7.85
654.751	15.85
654.783	-12.15
654.816	5.85
654.849	-0.15
654.882	-14.15
654.915	6.85
654.948	0.85
654.98	-1.15
655.013	-1.15
655.046	-11.15
655.079	-0.15
655.112	12.85
655.144	-31.15
655.177	-12.15
655.21	5.85
655.243	2.85
655.276	-2.15
655.308	-16.15
655.341	-23.15
655.374	-22.15
655.407	-9.15
655.44	-12.15
655.472	17.85
655.505	-8.15
655.538	-7.15
655.571	-0.15
655.603	-6.15
655.636	-8.15
655.669	-2.15
655.702	-8.15
655.734	-7.15
655.767	-5.15
655.8	-5.15
655.833	3.85
655.865	5.85
655.898	-0.15
655.931	-2.15
655.964	23.85
655.996	18.85
656.029	16.85
656.062	23.85
656.095	44.85
656.127	65.85
656.16	200.85
656.193	622.85
656.225	971.85
656.258	559.85
656.291	211.85
656.324	185.85
656.356	385.85
656.389	756.85
656.422	663.85
656.454	239.85
656.487	68.85
656.52	30.85
656.552	-0.15
656.585	4.85
656.618	12.85
656.65	2.85
656.683	1.85
656.716	5.85
656.748	0.85
656.781	-20.15
656.814	-0.15
656.846	-0.15
656.879	-6.15
656.912	-3.15
656.944	-19.15
656.977	-19.15
657.01	-20.15
657.042	16.85
657.075	12.85
657.108	-17.15
657.14	15.85
657.173	8.85
657.205	27.85
657.238	7.85
657.271	-4.15
657.303	-9.15
657.336	-0.15
657.369	-10.15
657.401	3.85
657.434	11.85
657.466	-13.15
657.499	7.85
657.532	6.85
657.564	7.85
657.597	2.85
657.629	3.85
657.662	-11.15
657.694	-20.15
657.727	-20.15
657.76	11.85
657.792	-13.15
657.825	-15.15
657.857	-11.15
657.89	-4.15
657.922	-4.15
657.955	-13.15
657.987	-1.15
658.02	-7.15
658.053	10.85
658.085	4.85
658.118	-3.15
658.15	21.85
658.183	21.85
658.215	-18.15
658.248	-4.15
658.28	-3.15
658.313	15.85
658.345	5.85
658.378	0.85
658.41	-24.15
658.443	18.85
658.475	6.85
658.508	-5.15
658.54	-3.15
658.573	-20.15
658.605	3.85
658.638	-9.15
658.67	-17.15
658.703	-13.15
658.735	-6.15
658.768	-21.15
658.8	-8.15
658.833	-7.15
658.865	-6.15
658.898	4.85
658.93	-9.15
658.963	-6.15
658.995	-9.15
659.028	-9.15
659.06	-21.15
659.092	-10.15
659.125	-9.15
659.157	17.85
659.19	2.85
659.222	1.85
659.255	7.85
659.287	4.85
659.32	-5.15
659.352	11.85
659.384	2.85
659.417	-13.15
659.449	0.85
659.482	-5.15
659.514	-18.15
659.546	-10.15
659.579	-9.15
659.611	-1.15
659.644	-5.15
659.676	-7.15
659.708	-9.15
659.741	-20.15
659.773	3.85
659.806	-9.15
659.838	-0.15
659.87	-2.15
659.903	-25.15
659.935	-15.15
659.967	-2.15
660	4.85
660.032	-25.15
660.065	3.85
660.097	-4.15
660.129	-2.15
660.162	-18.15
660.194	-4.15
660.226	7.85
660.259	2.85
660.291	-22.15
660.323	-1.15
660.356	5.85
660.388	-18.15
660.42	-7.15
660.453	14.85
660.485	4.85
660.517	1.85
660.55	-3.15
660.582	-20.15
660.614	-1.15
660.647	-4.15
660.679	-15.15
660.711	0.85
660.743	-20.15
660.776	-9.15
660.808	-11.15
660.84	4.85
660.873	5.85
660.905	-8.15
660.937	-10.15
660.969	-5.15
661.002	-5.15
661.034	8.85
661.066	-2.15
661.099	2.85
661.131	7.85
661.163	0.85
661.195	-3.15
661.228	5.85
661.26	-2.15
661.292	-3.15
661.324	-4.15
661.357	20.85
661.389	18.85
661.421	18.85
661.453	10.85
661.485	5.85
661.518	5.85
661.55	-15.15
661.582	-0.15
661.614	2.85
661.647	3.85
661.679	-10.15
661.711	3.85
661.743	-12.15
661.775	-15.15
661.808	3.85
661.84	-17.15
661.872	-10.15
661.904	-9.15
661.936	-5.15
661.969	-10.15
662.001	-19.15
662.033	-12.15
662.065	-13.15
662.097	28.85
662.129	22.85
662.162	-0.15
662.194	-1.15
662.226	9.85
662.258	-8.15
662.29	-11.15
662.322	-3.15
662.355	-5.15
662.387	10.85
662.419	18.85
662.451	10.85
662.483	8.85
662.515	-8.15
662.547	-8.15
662.58	-22.15
662.612	-10.15
662.644	-18.15
662.676	5.85
662.708	26.85
662.74	-1.15
662.772	-0.15
662.804	-20.15
662.836	11.85
662.869	-3.15
662.901	-6.15
662.933	-11.15
662.965	13.85
662.997	-2.15
663.029	-15.15
663.061	-15.15
663.093	-9.15
663.125	19.85
663.157	13.85
663.189	13.85
663.221	15.85
663.254	-14.15
663.286	3.85
663.318	-20.15
663.35	-6.15
663.382	-4.15
663.414	7.85
663.446	-5.15
663.478	-3.15
663.51	17.85
663.542	-12.15
663.574	2.85
663.606	10.85
663.638	-6.15
663.67	-21.15
663.702	-19.15
663.734	6.85
663.766	0.85
663.798	-0.15
663.83	8.85
663.862	4.85
663.894	7.85
663.926	-9.15
663.958	10.85
663.99	10.85
664.022	9.85
664.054	9.85
664.086	-10.15
664.118	-9.15
664.15	-32.15
664.182	0.85
664.214	-12.15
664.246	10.85
664.278	2.85
664.31	8.85
664.342	-5.15
664.374	-7.15
664.406	-8.15
664.438	-10.15
664.47	8.85
664.502	-13.15
664.534	-6.15
664.566	-19.15
664.598	-9.15
664.63	-11.15
664.662	-2.15
664.693	-24.15
664.725	-3.15
664.757	-7.15
664.789	-3.15
664.821	-16.15
664.853	16.85
664.885	-3.15
664.917	-0.15
664.949	8.85
664.981	10.85
665.013	-5.15
665.045	2.85
665.076	0.85
665.108	-2.15
665.14	4.85
665.172	-13.15
665.204	-0.15
665.236	3.85
665.268	3.85
665.3	-7.15
665.331	-17.15
665.363	-0.15
665.395	4.85
665.427	-2.15
665.459	-4.15
665.491	-2.15
665.523	1.85
665.555	2.85
665.586	-1.15
665.618	3.85
665.65	-9.15
665.682	6.85
665.714	-16.15
665.746	-10.15
665.777	7.85
665.809	5.85
665.841	-5.15
665.873	4.85
665.905	9.85
665.937	22.85
665.968	5.85
666	-4.15
666.032	-9.15
666.064	-16.15
666.096	0.85
666.127	19.85
666.159	10.85
666.191	4.85
666.223	2.85
666.255	3.85
666.286	8.85
666.318	-0.15
666.35	18.85
666.382	3.85
666.413	-13.15
666.445	-31.15
666.477	-23.15
666.509	-9.15
666.54	2.85
666.572	-8.15
666.604	11.85
666.636	7.85
666.667	11.85
666.699	11.85
666.731	-4.15
666.763	-8.15
666.794	0.85
666.826	0.85
666.858	-1.15
666.89	3.85
666.921	-6.15
666.953	7.85
666.985	12.85
667.017	15.85
667.048	1.85
667.08	-13.15
667.112	-29.15
667.143	-16.15
667.175	7.85
667.207	-2.15
667.238	-6.15
667.27	-3.15
667.302	0.85
667.334	-5.15
667.365	13.85
667.397	-0.15
667.429	-19.15
667.46	12.85
667.492	0.85
667.524	-5.15
667.555	-14.15
667.587	-0.15
667.619	-1.15
667.65	-22.15
667.682	0.85
667.714	-13.15
667.745	-16.15
667.777	2.85
667.808	-13.15
667.84	12.85
667.872	8.85
667.903	16.85
667.935	0.85
667.967	0.85
667.998	-10.15
668.03	-2.15
668.061	-10.15
668.093	3.85
668.125	-4.15
668.156	17.85
668.188	-6.15
668.22	7.85
668.251	-2.15
668.283	10.85
668.314	3.85
668.346	-4.15
668.377	-6.15
668.409	-11.15
668.441	-8.15
668.472	-4.15
668.504	4.85
668.535	1.85
668.567	-1.15
668.599	-7.15
668.63	-7.15
668.662	0.85
668.693	8.85
668.725	5.85
668.756	5.85
668.788	-12.15
668.819	14.85
668.851	7.85
668.882	-0.15
668.914	-12.15
668.946	0.85
668.977	-8.15
669.009	-2.15
669.04	-11.15
669.072	-6.15
669.103	-10.15
669.135	-15.15
669.166	-2.15
669.198	-2.15
669.229	0.85
669.261	4.85
669.292	3.85
669.324	5.85
669.355	6.85
669.387	-27.15
669.418	-2.15
669.45	-22.15
669.481	1.85
669.513	6.85
669.544	2.85
669.576	-7.15
669.607	-5.15
669.639	9.85
669.67	-9.15
669.701	-3.15
669.733	-8.15
669.764	3.85
669.796	-6.15
669.827	1.85
669.859	-12.15
669.89	-7.15
669.922	4.85
669.953	0.85
669.985	-0.15
670.016	7.85
670.047	4.85
670.079	-2.15
670.11	-15.15
670.142	-5.15
670.173	1.85
670.204	-6.15
670.236	-3.15
670.267	-15.15
670.299	6.85
670.33	-13.15
670.362	-7.15
670.393	-6.15
670.424	-0.15
670.456	-12.15
670.487	-7.15
670.518	2.85
670.55	4.85
670.581	-14.15
670.613	-6.15
670.644	-14.15
670.675	-19.15
670.707	-9.15
670.738	-4.15
670.769	-10.15
670.801	-17.15
670.832	3.85
670.864	-11.15
670.895	2.85
670.926	10.85
670.958	1.85
670.989	4.85
671.02	-5.15
671.052	-4.15
671.083	-9.15
671.114	-1.15
671.146	-2.15
671.177	-1.15
671.208	-3.15
671.24	-4.15
671.271	-15.15
671.302	14.85
671.333	-10.15
671.365	-21.15
671.396	-11.15
671.427	9.85
671.459	-0.15
671.49	3.85
671.521	2.85
671.553	0.85
671.584	-3.15
671.615	-19.15
671.646	9.85
671.678	8.85
671.709	-16.15
671.74	-20.15
671.771	-11.15
671.803	-13.15
671.834	-2.15
671.865	-11.15
671.896	-1.15
671.928	-10.15
671.959	-20.15
671.99	-9.15
672.021	-22.15
672.053	-15.15
672.084	-12.15
672.115	-13.15
672.146	-8.15
672.178	-23.15
672.209	-10.15
672.24	-5.15
672.271	17.85
672.303	12.85
672.334	-6.15
672.365	-11.15
672.396	5.85
672.427	-1.15
672.459	-7.15
672.49	16.85
672.521	14.85
672.552	0.85
672.583	-10.15
672.615	-12.15
672.646	-2.15
672.677	-24.15
672.708	-15.15
672.739	-1.15
672.77	5.85
672.802	5.85
672.833	-13.15
672.864	-6.15
672.895	-6.15
672.926	-17.15
672.957	-9.15
672.989	-2.15
673.02	16.85
673.051	-3.15
673.082	16.85
673.113	2.85
673.144	-10.15
673.175	4.85
673.206	0.85
673.238	-18.15
673.269	-11.15
673.3	-15.15
673.331	-2.15
673.362	12.85
673.393	7.85
673.424	4.85
673.455	14.85
673.487	-4.15
673.518	-18.15
673.549	-7.15
673.58	-4.15
673.611	12.85
673.642	-11.15
673.673	-28.15
673.704	-5.15
673.735	-7.15
673.766	3.85
673.797	-10.15
673.828	-9.15
673.86	-25.15
673.891	-23.15
673.922	-23.15
673.953	-7.15
673.984	-4.15
674.015	-2.15
674.046	-11.15
674.077	-23.15
674.108	-22.15
674.139	-13.15
674.17	-11.15
674.201	-0.15
674.232	-8.15
674.263	-4.15
674.294	-0.15
674.325	-23.15
674.356	-4.15
674.387	3.85
674.418	-4.15
674.449	-13.15
674.48	-5.15
674.511	-5.15
674.542	1.85
674.573	-9.15
674.604	10.85
674.635	8.85
674.666	18.85
674.697	-8.15
674.728	4.85
674.759	-5.15
674.79	-15.15
674.821	-4.15
674.852	-16.15
674.883	-12.15
674.914	18.85
674.945	3.85
674.976	-5.15
675.007	3.85
675.038	-9.15
675.069	-0.15
675.1	-19.15
675.131	-5.15
675.162	-9.15
675.193	-12.15
675.224	-11.15
675.254	-9.15
675.285	17.85
675.316	19.85
675.347	-13.15
675.378	-14.15
675.409	-12.15
675.44	14.85
675.471	0.85
675.502	-2.15
675.533	-18.15
675.564	-13.15
675.595	-1.15
675.625	3.85
675.656	16.85
675.687	12.85
675.718	-10.15
675.749	11.85
675.78	23.85
675.811	2.85
675.842	-10.15
675.873	-14.15
675.903	-15.15
675.934	-2.15
675.965	9.85
675.996	-19.15
676.027	-2.15
676.058	-12.15
676.089	-16.15
676.119	-1.15
676.15	-0.15
676.181	-6.15
676.212	-9.15
676.243	-10.15
676.274	-21.15
676.304	-2.15
676.335	-20.15
676.366	0.85
676.397	2.85
676.428	-1.15
676.459	-5.15
676.489	6.85
676.52	5.85
676.551	0.85
676.582	-7.15
676.613	-7.15
676.643	-6.15
676.674	-2.15
676.705	-6.15
676.736	-5.15
676.767	11.85
676.797	-0.15
676.828	-17.15
676.859	-9.15
676.89	-6.15
676.92	1.85
676.951	-9.15
676.982	6.85
677.013	3.85
677.044	12.85
677.074	0.85
677.105	-21.15
677.136	-10.15
677.167	-8.15
677.197	-0.15
677.228	1.85
677.259	-16.15
677.289	-9.15
677.32	-18.15
677.351	-19.15
677.382	1.85
677.412	-5.15
677.443	4.85
677.474	11.85
677.505	-23.15
677.535	-1.15
677.566	-9.15
677.597	-8.15
677.627	-10.15
677.658	-10.15
677.689	8.85
677.72	-1.15
677.75	2.85
677.781	-13.15
677.812	0.85
677.842	1.85
677.873	16.85
677.904	-2.15
677.934	1.85
677.965	-5.15
677.996	-21.15
678.026	-2.15
678.057	1.85
678.088	-9.15
678.118	3.85
678.149	-19.15
678.18	-6.15
678.21	-3.15
678.241	-2.15
678.272	1.85
678.302	-2.15
678.333	2.85
678.363	-8.15
678.394	-9.15
678.425	-2.15
678.455	-4.15
678.486	-7.15
678.517	-13.15
678.547	1.85
678.578	-10.15
678.608	-24.15
678.639	-5.15
678.67	-4.15
678.7	-9.15
678.731	-6.15
678.761	-2.15
678.792	-2.15
678.823	-8.15
678.853	-2.15
678.884	4.85
678.914	-3.15
678.945	4.85
678.975	-4.15
679.006	-7.15
679.037	-26.15
679.067	13.85
679.098	3.85
679.128	-19.15
679.159	-8.15
679.189	14.85
679.22	-36.15
679.25	-16.15
679.281	-14.15
679.312	-20.15
679.342	-6.15
679.373	23.85
679.403	-6.15
679.434	-4.15
679.464	-17.15
679.495	0.85
679.525	-10.15
679.556	-10.15
679.586	-6.15
679.617	3.85
679.647	3.85
679.678	-10.15
679.708	-0.15
679.739	-5.15
679.769	-0.15
679.8	3.85
679.83	12.85
679.861	8.85
679.891	-18.15
679.922	-27.15
679.952	4.85
679.983	5.85
680.013	-6.15
680.044	-10.15
680.074	11.85
680.105	1.85
680.135	-8.15
680.165	10.85
680.196	8.85
680.226	5.85
680.257	10.85
680.287	-8.15
680.318	-10.15
680.348	-8.15
680.379	3.85
680.409	-2.15
680.439	-10.15
680.47	-0.15
680.5	-15.15
680.531	-11.15
680.561	-4.15
680.592	-7.15
680.622	4.85
680.652	5.85
680.683	16.85
680.713	-8.15
680.744	-1.15
680.774	3.85
680.804	6.85
680.835	-7.15
680.865	-14.15
680.896	11.85
680.926	-3.15
680.956	-8.15
680.987	-2.15
681.017	-12.15
681.047	4.85
681.078	1.85
681.108	7.85
681.139	-4.15
681.169	6.85
681.199	-27.15
681.23	13.85
681.26	-5.15
681.29	-0.15
681.321	-4.15
681.351	-16.15
681.381	-16.15
681.412	-4.15
681.442	1.85
681.472	3.85
681.503	2.85
681.533	-7.15
681.563	-12.15
681.594	-14.15
681.624	4.85
681.654	-27.15
681.685	-2.15
681.715	0.85
681.745	-6.15
681.775	-3.15
681.806	5.85
681.836	8.85
681.866	-17.15
681.897	-7.15
681.927	-7.15
681.957	-16.15
681.987	2.85
682.018	-6.15
682.048	10.85
682.078	-8.15
682.109	7.85
682.139	2.85
682.169	-14.15
682.199	-11.15
682.23	-7.15
682.26	1.85
682.29	-12.15
682.32	-18.15
682.351	-7.15
682.381	-5.15
682.411	13.85
682.441	-4.15
682.472	-9.15
682.502	-18.15
682.532	-12.15
682.562	-0.15
682.592	3.85
682.623	3.85
682.653	-4.15
682.683	-12.15
682.713	1.85
682.743	-16.15
682.774	-8.15
682.804	-10.15
682.834	16.85
682.864	7.85
682.894	-7.15
682.925	-6.15
682.955	-8.15
682.985	-12.15
683.015	-3.15
683.045	2.85
683.076	-15.15
683.106	-4.15
683.136	-15.15
683.166	-10.15
683.196	-10.15
683.226	-2.15
683.257	-6.15
683.287	-5.15
683.317	0.85
683.347	-6.15
683.377	-3.15
683.407	7.85
683.437	5.85
683.468	10.85
683.498	2.85
683.528	-7.15
683.558	4.85
683.588	-25.15
683.618	-18.15
683.648	-3.15
683.678	-7.15
683.708	2.85
683.739	-1.15
683.769	-10.15
683.799	-11.15
683.829	-5.15
683.859	2.85
683.889	-5.15
683.919	-23.15
683.949	-17.15
683.979	-7.15
684.009	-3.15
684.039	2.85
684.07	-9.15
684.1	1.85
684.13	-5.15
684.16	5.85
684.19	-11.15
684.22	-19.15
684.25	1.85
684.28	-27.15
684.31	-0.15
684.34	-12.15
684.37	1.85
684.4	-13.15
684.43	-18.15
684.46	0.85
684.49	9.85
684.52	6.85
684.55	9.85
684.58	7.85
684.61	10.85
684.64	21.85
684.67	9.85
684.7	-10.15
684.73	4.85
684.76	-2.15
684.79	11.85
684.82	4.85
684.85	-4.15
684.88	11.85
684.91	12.85
684.94	1.85
684.97	-9.15
685	-12.15
685.03	-8.15
685.06	-10.15
685.09	2.85
685.12	15.85
685.15	-8.15
685.18	-5.15
685.21	-0.15
685.24	14.85
685.27	7.85
685.3	-13.15
685.33	-12.15
685.36	-23.15
685.39	-1.15
685.42	-11.15
685.45	-13.15
685.48	2.85
685.51	-6.15
685.54	11.85
685.569	-23.15
685.599	-2.15
685.629	1.85
685.659	-7.15
685.689	0.85
685.719	-15.15
685.749	2.85
685.779	3.85
685.809	0.85
685.839	2.85
685.869	-2.15
685.898	15.85
685.928	-10.15
685.958	-6.15
685.988	1.85
686.018	1.85
686.048	8.85
686.078	12.85
686.108	20.85
686.137	4.85
686.167	2.85
686.197	-6.15
686.227	-6.15
686.257	7.85
686.287	7.85
686.317	-13.15
686.346	-18.15
686.376	-17.15
686.406	-14.15
686.436	6.85
686.466	-6.15
686.496	-2.15
686.525	11.85
686.555	-12.15
686.585	13.85
686.615	32.85
686.645	14.85
686.675	14.85
686.704	7.85
686.734	11.85
686.764	-1.15
686.794	-6.15
686.824	7.85
686.853	7.85
686.883	5.85
686.913	8.85
686.943	-7.15
686.973	-15.15
687.002	-5.15
687.032	4.85
687.062	-0.15
687.092	10.85
687.121	-20.15
687.151	2.85
687.181	-3.15
687.211	18.85
687.24	5.85
687.27	-7.15
687.3	-4.15
687.33	-11.15
687.359	-6.15
687.389	-11.15
687.419	9.85
687.449	-5.15
687.478	13.85
687.508	-0.15
687.538	-15.15
687.568	2.85
687.597	-12.15
687.627	-0.15
687.657	-1.15
687.686	14.85
687.716	31.85
687.746	-20.15
687.776	-13.15
687.805	-3.15
687.835	-3.15
687.865	13.85
687.894	7.85
687.924	-14.15
687.954	-5.15
687.983	9.85
688.013	0.85
688.043	15.85
688.072	-3.15
688.102	16.85
688.132	8.85
688.161	-3.15
688.191	3.85
688.221	20.85
688.25	-6.15
688.28	10.85
688.31	-4.15
688.339	-8.15
688.369	-12.15
688.399	-4.15
688.428	-4.15
688.458	-1.15
688.488	-9.15
688.517	-6.15
688.547	-4.15
688.576	17.85
688.606	11.85
688.636	-5.15
688.665	-2.15
688.695	10.85
688.725	6.85
688.754	10.85
688.784	2.85
688.813	-3.15
688.843	-1.15
688.873	-11.15
688.902	-4.15
688.932	-15.15
688.961	-12.15
688.991	-5.15
689.02	-1.15
689.05	-15.15
689.08	12.85
689.109	11.85
689.139	0.85
689.168	-2.15
689.198	1.85
689.227	4.85
689.257	2.85
689.287	-9.15
689.316	-4.15
689.346	-21.15
689.375	-4.15
689.405	-2.15
689.434	-5.15
689.464	1.85
689.493	-10.15
689.523	-22.15
689.552	-24.15
689.582	12.85
689.611	-1.15
689.641	3.85
689.67	-1.15
689.7	-21.15
689.73	6.85
689.759	0.85
689.789	1.85
689.818	3.85
689.848	0.85
689.877	17.85
689.906	-2.15
689.936	-22.15
689.965	0.85
689.995	22.85
690.024	1.85
690.054	-0.15
690.083	-7.15
690.113	0.85
690.142	-10.15
690.172	-0.15
690.201	-5.15
690.231	-8.15
690.26	9.85
690.29	1.85
690.319	5.85
690.348	19.85
690.378	6.85
690.407	23.85
690.437	20.85
690.466	7.85
690.496	-12.15
690.525	1.85
690.555	-3.15
690.584	2.85
690.613	1.85
690.643	3.85
690.672	-2.15
690.702	12.85
690.731	12.85
690.76	9.85
690.79	-7.15
690.819	-11.15
690.849	-6.15
690.878	3.85
690.907	-7.15
690.937	17.85
690.966	2.85
690.996	-6.15
691.025	0.85
691.054	-10.15
691.084	-5.15
691.113	-12.15
691.142	-8.15
691.172	4.85
691.201	-2.15
691.23	-2.15
691.26	13.85
691.289	-0.15
691.319	-7.15
691.348	-10.15
691.377	8.85
691.407	0.85
691.436	-0.15
691.465	1.85
691.495	-17.15
691.524	-2.15
691.553	-2.15
691.583	-3.15
691.612	-0.15
691.641	14.85
691.67	-1.15
691.7	-7.15
691.729	-18.15
691.758	-8.15
691.788	5.85
691.817	1.85
691.846	-15.15
691.876	-3.15
691.905	-5.15
691.934	-21.15
691.963	18.85
691.993	3.85
692.022	-14.15
692.051	-15.15
692.081	3.85
692.11	20.85
692.139	15.85
692.168	6.85
692.198	5.85
692.227	7.85
692.256	2.85
692.285	-2.15
692.315	-5.15
692.344	7.85
692.373	-2.15
692.402	-13.15
692.432	-16.15
692.461	-1.15
692.49	1.85
692.519	6.85
692.548	12.85
692.578	8.85
692.607	-5.15
692.636	-10.15
692.665	1.85
692.694	-4.15
692.724	-12.15
692.753	13.85
692.782	16.85
692.811	-13.15
692.84	-6.15
692.87	-17.15
692.899	1.85
692.928	-8.15
692.957	-0.15
692.986	7.85
693.016	0.85
693.045	10.85
693.074	-1.15
693.103	-18.15
693.132	-3.15
693.161	8.85
693.191	0.85
693.22	-18.15
693.249	-4.15
693.278	-3.15
693.307	4.85
693.336	-23.15
693.365	-12.15
693.395	-8.15
693.424	7.85
693.453	11.85
693.482	4.85
693.511	8.85
693.54	-2.15
693.569	2.85
693.598	2.85
693.628	4.85
693.657	16.85
693.686	17.85
693.715	9.85
693.744	3.85
693.773	13.85
693.802	1.85
693.831	-5.15
693.86	14.85
693.889	-8.15
693.919	2.85
693.948	1.85
693.977	3.85
694.006	-6.15
694.035	-14.15
694.064	3.85
694.093	-9.15
694.122	1.85
694.151	1.85
694.18	11.85
694.209	21.85
694.238	-6.15
694.267	12.85
694.296	11.85
694.325	-8.15
694.354	0.85
694.383	9.85
694.412	-9.15
694.441	-10.15
694.471	-10.15
694.5	-13.15
694.529	2.85
694.558	18.85
694.587	10.85
694.616	-5.15
694.645	7.85
694.674	9.85
694.703	-2.15
694.732	-10.15
694.761	-0.15
694.79	7.85
694.819	4.85
694.848	3.85
694.877	23.85
694.906	20.85
694.935	0.85
694.963	7.85
694.992	-12.15
695.021	-4.15
695.05	17.85
695.079	-5.15
695.108	3.85
695.137	16.85
695.166	-4.15
695.195	0.85
695.224	11.85
695.253	15.85
695.282	-1.15
695.311	3.85
695.34	-1.15
695.369	-1.15
695.398	14.85
695.427	25.85
695.456	-8.15
695.485	0.85
695.513	-4.15
695.542	6.85
695.571	4.85
695.6	6.85
695.629	-0.15
695.658	4.85
695.687	-0.15
695.716	1.85
695.745	9.85
695.774	-11.15
695.802	-11.15
695.831	15.85
695.86	4.85
695.889	-3.15
695.918	-8.15
695.947	-17.15
695.976	-3.15
696.005	11.85
696.033	1.85
696.062	13.85
696.091	7.85
696.12	-9.15
696.149	6.85
696.178	13.85
696.207	0.85
696.235	-5.15
696.264	3.85
696.293	0.85
696.322	5.85
696.351	18.85
696.38	3.85
696.408	5.85
696.437	8.85
696.466	4.85
696.495	18.85
696.524	2.85
696.553	4.85
696.581	9.85
696.61	-18.15
696.639	-7.15
696.668	0.85
696.697	-11.15
696.725	-0.15
696.754	1.85
696.783	0.85
696.812	-9.15
696.84	1.85
696.869	9.85
696.898	-4.15
696.927	1.85
696.956	3.85
696.984	-7.15
697.013	6.85
697.042	12.85
697.071	-3.15
697.099	15.85
697.128	4.85
697.157	3.85
697.186	-10.15
697.214	-1.15
697.243	-0.15
697.272	9.85
697.301	12.85
697.329	7.85
697.358	2.85
697.387	4.85
697.415	-1.15
697.444	5.85
697.473	7.85
697.502	4.85
697.53	4.85
697.559	-2.15
697.588	-0.15
697.616	-20.15
697.645	-24.15
697.674	5.85
697.703	-7.15
697.731	8.85
697.76	10.85
697.789	-5.15
697.817	4.85
697.846	12.85
697.875	-13.15
697.903	10.85
697.932	9.85
697.961	-5.15
697.989	0.85
698.018	1.85
698.047	-7.15
698.075	-2.15
698.104	-23.15
698.133	-6.15
698.161	-15.15
698.19	-3.15
698.218	-13.15
698.247	5.85
698.276	2.85
698.304	-0.15
698.333	-11.15
698.362	10.85
698.39	-2.15
698.419	4.85
698.447	-18.15
698.476	-0.15
698.505	9.85
698.533	3.85
698.562	-5.15
698.591	-6.15
698.619	-3.15
698.648	1.85
698.676	9.85
698.705	-6.15
698.733	-30.15
698.762	4.85
698.791	-2.15
698.819	-2.15
698.848	-12.15
698.876	7.85
698.905	-2.15
698.933	4.85
698.962	6.85
698.991	2.85
699.019	19.85
699.048	6.85
699.076	-5.15
699.105	-9.15
699.133	-12.15
699.162	-0.15
699.19	19.85
699.219	-5.15
699.248	-16.15
699.276	-7.15
699.305	-7.15
699.333	5.85
699.362	4.85
699.39	8.85
699.419	-3.15
699.447	9.85
699.476	6.85
699.504	-13.15
699.533	2.85
699.561	-22.15
699.59	-9.15
699.618	-17.15
699.647	-6.15
699.675	1.85
699.704	6.85
699.732	12.85
699.761	-5.15
699.789	-0.15
699.818	13.85
699.846	-4.15
699.874	-11.15
699.903	-13.15
699.931	3.85
699.96	-0.15
699.988	1.85
700.017	-10.15
700.045	-0.15
700.074	-7.15
700.102	-8.15
700.13	-4.15
700.159	5.85
700.187	-0.15
700.216	-11.15
700.244	-12.15
700.273	-5.15
700.301	20.85
700.329	9.85
700.358	-2.15
700.386	-13.15
700.415	3.85
700.443	-3.15
700.472	-0.15
700.5	0.85
700.528	-2.15
700.557	-15.15
700.585	-11.15
700.614	0.85
700.642	17.85
700.67	15.85
700.699	16.85
700.727	3.85
700.755	8.85
700.784	-2.15
700.812	-9.15
700.841	2.85
700.869	-7.15
700.897	-14.15
700.926	3.85
700.954	15.85
700.982	16.85
701.011	0.85
701.039	6.85
701.067	-3.15
701.096	8.85
701.124	-10.15
701.152	-4.15
701.181	-7.15
701.209	-5.15
701.237	-5.15
701.266	-16.15
701.294	-11.15
701.322	-3.15
701.351	8.85
701.379	-4.15
701.407	-1.15
701.435	4.85
701.464	-0.15
701.492	-2.15
701.52	-5.15
701.549	-8.15
701.577	-26.15
701.605	3.85
701.634	2.85
701.662	-1.15
701.69	-0.15
701.718	-11.15
701.747	21.85
701.775	-7.15
701.803	-10.15
701.831	8.85
701.86	-3.15
701.888	-3.15
701.916	0.85
701.944	-8.15
701.973	-2.15
702.001	-21.15
702.029	-26.15
702.057	-16.15
702.086	-12.15
702.114	-2.15
702.142	-10.15
702.17	-7.15
702.199	7.85
702.227	6.85
702.255	-2.15
702.283	-0.15
702.311	-0.15
702.34	1.85
702.368	-10.15
702.396	-4.15
702.424	0.85
702.452	-6.15
702.481	3.85
702.509	-1.15
702.537	4.85
702.565	1.85
702.593	-17.15
702.621	-8.15
702.65	1.85
702.678	3.85
702.706	9.85
702.734	-3.15
702.762	8.85
702.79	-3.15
702.819	-12.15
702.847	-12.15
702.875	1.85
702.903	-1.15
702.931	-8.15
702.959	-4.15
702.988	-2.15
703.016	-11.15
703.044	-7.15
703.072	-6.15
703.1	0.85
703.128	3.85
703.156	9.85
703.184	0.85
703.212	4.85
703.241	8.85
703.269	-3.15
703.297	2.85
703.325	-9.15
703.353	-14.15
703.381	-19.15
703.409	-7.15
703.437	-21.15
703.465	-8.15
703.493	-6.15
703.522	-4.15
703.55	-4.15
703.578	-8.15
703.606	-7.15
703.634	-1.15
703.662	-19.15
703.69	-4.15
703.718	5.85
703.746	15.85
703.774	7.85
703.802	8.85
703.83	-4.15
703.858	-2.15
703.886	-13.15
703.914	-3.15
703.942	-4.15
703.97	-13.15
703.998	-6.15
704.027	4.85
704.055	-0.15
704.083	-16.15
704.111	-7.15
704.139	-0.15
704.167	5.85
704.195	4.85
704.223	-5.15
704.251	-0.15
704.279	3.85
704.307	-0.15
704.335	-18.15
704.363	-0.15
704.391	8.85
704.419	-2.15
704.447	-12.15
704.475	-6.15
704.503	-12.15
704.531	13.85
704.558	1.85
704.586	5.85
704.614	1.85
704.642	4.85
704.67	-15.15
704.698	-9.15
704.726	-0.15
704.754	1.85
704.782	-5.15
704.81	-10.15
704.838	16.85
704.866	11.85
704.894	-5.15
704.922	-7.15
704.95	3.85
704.978	4.85
705.006	-4.15
705.034	1.85
705.061	-8.15
705.089	-8.15
705.117	-12.15
705.145	-3.15
705.173	-10.15
705.201	0.85
705.229	15.85
705.257	-0.15
705.285	7.85
705.313	11.85
705.34	13.85
705.368	-7.15
705.396	-10.15
705.424	-8.15
705.452	-16.15
705.48	-8.15
705.508	-9.15
705.536	-6.15
705.563	-15.15
705.591	16.85
705.619	-5.15
705.647	-12.15
705.675	-0.15
705.703	2.85
705.731	15.85
705.758	6.85
705.786	-0.15
705.814	9.85
705.842	-2.15
705.87	3.85
705.898	11.85
705.925	-22.15
705.953	-3.15
705.981	-20.15
706.009	-4.15
706.037	13.85
706.065	-7.15
706.092	-19.15
706.12	-8.15
706.148	-15.15
706.176	-9.15
706.204	5.85
706.231	-1.15
706.259	-7.15
706.287	-19.15
706.315	-3.15
706.342	1.85
706.37	2.85
706.398	-0.15
706.426	-1.15
706.454	-3.15
706.481	-3.15
706.509	-11.15
706.537	-8.15
706.565	-8.15
706.592	7.85
706.62	5.85
706.648	3.85
706.676	-4.15
706.703	-3.15
706.731	-27.15
706.759	10.85
706.787	-3.15
706.814	-11.15
706.842	-15.15
706.87	-9.15
706.897	-13.15
706.925	-4.15
706.953	-2.15
706.981	9.85
707.008	4.85
707.036	3.85
707.064	-2.15
707.091	-4.15
707.119	23.85
707.147	-8.15
707.174	-1.15
707.202	3.85
707.23	-8.15
707.258	6.85
707.285	-16.15
707.313	-4.15
707.341	-14.15
707.368	-4.15
707.396	6.85
707.424	4.85
707.451	-12.15
707.479	5.85
707.507	-2.15
707.534	-11.15
707.562	6.85
707.59	-8.15
707.617	-16.15
707.645	-5.15
707.672	-4.15
707.7	1.85
707.728	-2.15
707.755	-2.15
707.783	-6.15
707.811	4.85
707.838	-11.15
707.866	1.85
707.893	9.85
707.921	-12.15
707.949	-2.15
707.976	-10.15
708.004	3.85
708.031	-6.15
708.059	2.85
708.087	-7.15
708.114	-10.15
708.142	-19.15
708.169	-12.15
708.197	-16.15
708.225	-2.15
708.252	-14.15
708.28	0.85
708.307	-4.15
708.335	-7.15
708.362	-0.15
708.39	-8.15
708.418	-12.15
708.445	-7.15
708.473	-17.15
708.5	-12.15
708.528	1.85
708.555	-4.15
708.583	-6.15
708.61	-8.15
708.638	-6.15
708.665	0.85
708.693	-3.15
708.72	-9.15
708.748	-3.15
708.776	-3.15
708.803	7.85
708.831	3.85
708.858	12.85
708.886	-1.15
708.913	-2.15
708.941	-6.15
708.968	10.85
708.996	-18.15
709.023	11.85
709.051	0.85
709.078	-15.15
709.105	7.85
709.133	0.85
709.16	-6.15
709.188	1.85
709.215	10.85
709.243	2.85
709.27	-12.15
709.298	-6.15
709.325	-5.15
709.353	-2.15
709.38	1.85
709.408	5.85
709.435	-3.15
709.462	-1.15
709.49	-7.15
709.517	-10.15
709.545	-23.15
709.572	-24.15
709.6	-12.15
709.627	9.85
709.655	-11.15
709.682	-6.15
709.709	-9.15
709.737	-0.15
709.764	-32.15
709.792	-0.15
709.819	9.85
709.846	-7.15
709.874	-1.15
709.901	3.85
709.929	17.85
709.956	1.85
709.983	-2.15
710.011	-6.15
710.038	-1.15
710.066	8.85
710.093	10.85
710.12	0.85
710.148	-19.15
710.175	-15.15
710.202	-7.15
710.23	3.85
710.257	-2.15
710.284	0.85
710.312	2.85
710.339	-13.15
710.366	-22.15
710.394	-8.15
710.421	9.85
710.448	-0.15
710.476	-13.15
710.503	4.85
710.53	13.85
710.558	17.85
710.585	8.85
710.612	-22.15
710.64	-5.15
710.667	-4.15
710.694	-2.15
710.722	-2.15
710.749	8.85
710.776	-1.15
710.804	13.85
710.831	0.85
710.858	0.85
710.885	-12.15
710.913	-6.15
710.94	23.85
710.967	2.85
710.995	-3.15
711.022	7.85
711.049	5.85
711.076	-2.15
711.104	-8.15
711.131	-23.15
711.158	-1.15
711.185	5.85
711.213	-8.15
711.24	-10.15
711.267	-18.15
711.294	-13.15
711.322	5.85
711.349	-14.15
711.376	6.85
711.403	5.85
711.431	-7.15
711.458	-8.15
711.485	-6.15
711.512	-6.15
711.54	-7.15
711.567	0.85
711.594	-23.15
711.621	-7.15
711.648	-2.15
711.676	7.85
711.703	-1.15
711.73	3.85
711.757	-3.15
711.784	1.85
711.812	6.85
711.839	6.85
711.866	4.85
711.893	-16.15
711.92	-12.15
711.947	-5.15
711.975	12.85
712.002	3.85
712.029	-2.15
712.056	-2.15
712.083	8.85
712.11	-9.15
712.138	-3.15
712.165	1.85
712.192	-0.15
712.219	-7.15
712.246	-12.15
712.273	-10.15
712.3	-14.15
712.328	-7.15
712.355	-3.15
712.382	-7.15
712.409	9.85
712.436	-5.15
712.463	-1.15
712.49	-2.15
712.517	-14.15
712.544	-23.15
712.572	2.85
712.599	-22.15
712.626	1.85
712.653	-8.15
712.68	-13.15
712.707	-4.15
712.734	-2.15
712.761	-2.15
712.788	7.85
712.815	-4.15
712.842	7.85
712.87	-5.15
712.897	-15.15
712.924	-16.15
712.951	-3.15
712.978	12.85
713.005	18.85
713.032	11.85
713.059	-13.15
713.086	-15.15
713.113	-14.15
713.14	-19.15
713.167	4.85
713.194	7.85
713.221	-3.15
713.248	3.85
713.275	3.85
713.302	-3.15
713.329	8.85
713.356	-4.15
713.383	-0.15
713.41	5.85
713.437	-4.15
713.464	-5.15
713.491	-2.15
713.518	-4.15
713.545	-13.15
713.572	-2.15
713.599	17.85
713.626	-2.15
713.653	-2.15
713.68	-4.15
713.707	1.85
713.734	-2.15
713.761	1.85
713.788	-12.15
713.815	-3.15
713.842	-8.15
713.869	6.85
713.896	-2.15
713.923	5.85
713.95	12.85
713.977	-0.15
714.004	-16.15
714.031	-7.15
714.058	-15.15
714.085	2.85
714.112	6.85
714.139	-2.15
714.165	-2.15
714.192	-5.15
714.219	5.85
714.246	8.85
714.273	-5.15
714.3	-6.15
714.327	12.85
714.354	8.85
714.381	-13.15
714.408	4.85
714.435	-9.15
714.461	-22.15
714.488	7.85
714.515	-25.15
714.542	-3.15
714.569	-6.15
714.596	-17.15
714.623	-8.15
714.65	-15.15
714.677	-6.15
714.703	1.85
714.73	-2.15
714.757	2.85
714.784	9.85
714.811	-7.15
714.838	1.85
714.865	4.85
714.891	-3.15
714.918	0.85
714.945	-9.15
714.972	9.85
714.999	-4.15
715.026	-14.15
715.052	12.85
715.079	-13.15
715.106	-18.15
715.133	-3.15
715.16	-6.15
715.187	11.85
715.213	4.85
715.24	-2.15
715.267	-7.15
715.294	-6.15
715.321	-5.15
715.347	-5.15
715.374	-11.15
715.401	-6.15
715.428	-2.15
715.455	-3.15
715.481	-9.15
715.508	-0.15
715.535	1.85
715.562	25.85
715.588	3.85
715.615	0.85
715.642	-5.15
715.669	-0.15
715.695	-8.15
715.722	-7.15
715.749	2.85
715.776	5.85
715.802	2.85
715.829	21.85
715.856	-1.15
715.883	16.85
715.909	-15.15
715.936	-8.15
715.963	0.85
715.99	-17.15
716.016	-7.15
716.043	-0.15
716.07	-15.15
716.096	-0.15
716.123	-8.15
716.15	1.85
716.177	-10.15
716.203	5.85
716.23	7.85
716.257	-1.15
716.283	4.85
716.31	12.85
716.337	-1.15
716.363	-2.15
716.39	-5.15
716.417	-7.15
716.443	-14.15
716.47	-3.15
716.497	5.85
716.523	2.85
716.55	-4.15
716.577	21.85
716.603	3.85
716.63	0.85
716.657	8.85
716.683	-19.15
716.71	-1.15
716.737	-8.15
716.763	1.85
716.79	-6.15
716.817	13.85
716.843	-1.15
716.87	-16.15
716.897	-13.15
716.923	11.85
716.95	4.85
716.976	-15.15
717.003	-5.15
717.03	5.85
717.056	-8.15
717.083	-3.15
717.109	5.85
717.136	-0.15
717.163	-4.15
717.189	-3.15
717.216	-15.15
717.242	-9.15
717.269	-6.15
717.296	3.85
717.322	12.85
717.349	10.85
717.375	10.85
717.402	6.85
717.428	-13.15
717.455	5.85
717.481	-11.15
717.508	16.85
717.535	-8.15
717.561	-4.15
717.588	-6.15
717.614	-10.15
717.641	0.85
717.667	-6.15
717.694	11.85
717.72	-8.15
717.747	-7.15
717.773	4.85
717.8	16.85
717.826	7.85
717.853	0.85
717.88	9.85
717.906	-0.15
717.933	9.85
717.959	2.85
717.986	1.85
718.012	-6.15
718.039	-7.15
718.065	9.85
718.092	-0.15
718.118	-15.15
718.144	-11.15
718.171	1.85
718.197	17.85
718.224	-0.15
718.25	-0.15
718.277	10.85
718.303	5.85
718.33	-14.15
718.356	-9.15
718.383	-7.15
718.409	-3.15
718.436	-4.15
718.462	-12.15
718.489	-2.15
718.515	8.85
718.541	5.85
718.568	2.85
718.594	9.85
718.621	11.85
718.647	-3.15
718.674	0.85
718.7	1.85
718.726	8.85
718.753	2.85
718.779	6.85
718.806	-13.15
718.832	-6.15
718.858	1.85
718.885	-2.15
718.911	5.85
718.938	9.85
718.964	-16.15
718.99	-3.15
719.017	-16.15
719.043	4.85
719.07	9.85
719.096	-12.15
719.122	9.85
719.149	4.85
719.175	-4.15
719.201	0.85
719.228	2.85
719.254	10.85
719.281	-5.15
719.307	-0.15
719.333	-5.15
719.36	-0.15
719.386	-3.15
719.412	-1.15
719.439	7.85
719.465	-6.15
719.491	-4.15
719.518	-0.15
719.544	-8.15
719.57	0.85
719.597	-5.15
719.623	-0.15
719.649	-2.15
719.675	7.85
719.702	4.85
719.728	13.85
719.754	1.85
719.781	7.85
719.807	-5.15
719.833	-14.15
719.86	-0.15
719.886	2.85
719.912	10.85
719.938	-19.15
719.965	-5.15
719.991	4.85
720.017	8.85
720.044	-8.15
720.07	-4.15
720.096	3.85
720.122	-7.15
720.149	-5.15
720.175	6.85
720.201	-2.15
720.227	-6.15
720.254	-4.15
720.28	4.85
720.306	-23.15
720.332	-4.15
720.359	2.85
720.385	8.85
720.411	3.85
720.437	-6.15
720.463	14.85
720.49	-1.15
720.516	-7.15
720.542	-22.15
720.568	-4.15
720.595	-1.15
720.621	-3.15
720.647	2.85
720.673	12.85
720.699	-3.15
720.725	-3.15
720.752	-4.15
720.778	21.85
720.804	8.85
720.83	1.85
720.856	-5.15
720.883	3.85
720.909	-6.15
720.935	1.85
720.961	12.85
720.987	-8.15
721.013	16.85
721.04	-21.15
721.066	-6.15
721.092	-5.15
721.118	1.85
721.144	5.85
721.17	-8.15
721.196	-4.15
721.223	-0.15
721.249	-6.15
721.275	8.85
721.301	-0.15
721.327	9.85
721.353	6.85
721.379	-3.15
721.405	15.85
721.432	16.85
721.458	-0.15
721.484	-2.15
721.51	-12.15
721.536	-2.15
721.562	7.85
721.588	1.85
721.614	-3.15
721.64	-8.15
721.666	-7.15
721.693	-5.15
721.719	-10.15
721.745	-5.15
721.771	-11.15
721.797	-3.15
721.823	9.85
721.849	4.85
721.875	10.85
721.901	10.85
721.927	10.85
721.953	3.85
721.979	11.85
722.005	2.85
722.031	0.85
722.057	-8.15
722.083	4.85
722.109	-9.15
722.135	-7.15
722.161	3.85
722.187	1.85
722.214	-5.15
722.24	-31.15
722.266	-12.15
722.292	-3.15
722.318	7.85
722.344	5.85
722.37	0.85
722.396	11.85
722.422	1.85
722.448	-8.15
722.474	-20.15
722.5	7.85
722.526	1.85
722.552	-5.15
722.578	-13.15
722.603	5.85
722.629	4.85
722.655	-10.15
722.681	-5.15
722.707	-10.15
722.733	-7.15
722.759	-3.15
722.785	0.85
722.811	3.85
722.837	8.85
722.863	0.85
722.889	-3.15
722.915	-2.15
722.941	-10.15
722.967	-2.15
722.993	1.85
723.019	-16.15
723.045	-14.15
723.071	6.85
723.097	-5.15
723.122	-3.15
723.148	-12.15
723.174	-0.15
723.2	-2.15
723.226	9.85
723.252	12.85
723.278	-0.15
723.304	-5.15
723.33	6.85
723.356	-23.15
723.381	-16.15
723.407	-20.15
723.433	0.85
723.459	1.85
723.485	-11.15
723.511	13.85
723.537	0.85
723.563	-6.15
723.588	-4.15
723.614	0.85
723.64	-10.15
723.666	-0.15
723.692	0.85
723.718	8.85
723.744	5.85
723.769	12.85
723.795	2.85
723.821	0.85
723.847	-11.15
723.873	-5.15
723.899	-0.15
723.924	-5.15
723.95	-14.15
723.976	-4.15
724.002	-1.15
724.028	-5.15
724.053	-3.15
724.079	0.85
724.105	3.85
724.131	-8.15
724.157	-7.15
724.182	7.85
724.208	1.85
724.234	7.85
724.26	-16.15
724.286	16.85
724.311	-5.15
724.337	-1.15
724.363	-6.15
724.389	-10.15
724.415	9.85
724.44	22.85
724.466	-3.15
724.492	-18.15
724.518	-0.15
724.543	0.85
724.569	0.85
724.595	4.85
724.621	-8.15
724.646	-1.15
724.672	-3.15
724.698	-10.15
724.723	-12.15
724.749	-1.15
724.775	2.85
724.801	2.85
724.826	-11.15
724.852	-4.15
724.878	0.85
724.904	-19.15
724.929	-10.15
724.955	-16.15
724.981	-7.15
725.006	-2.15
725.032	-1.15
725.058	4.85
725.083	-12.15
725.109	-10.15
725.135	-5.15
725.161	0.85
725.186	-0.15
725.212	-3.15
725.238	0.85
725.263	-13.15
725.289	-9.15
725.315	-6.15
725.34	4.85
725.366	3.85
725.392	-12.15
725.417	2.85
725.443	-2.15
725.468	-4.15
725.494	5.85
725.52	8.85
725.545	10.85
725.571	-0.15
725.597	-19.15
725.622	-8.15
725.648	3.85
725.674	4.85
725.699	-10.15
725.725	-10.15
725.75	24.85
725.776	7.85
725.802	9.85
725.827	10.85
725.853	1.85
725.878	-5.15
725.904	-6.15
725.93	2.85
725.955	-4.15
725.981	-19.15
726.006	-7.15
726.032	7.85
726.057	-11.15
726.083	1.85
726.109	-0.15
726.134	-2.15
726.16	-4.15
726.185	-6.15
726.211	-9.15
726.236	0.85
726.262	4.85
726.288	5.85
726.313	-5.15
726.339	-2.15
726.364	-6.15
726.39	6.85
726.415	-4.15
726.441	5.85
726.466	-4.15
726.492	-3.15
726.517	1.85
726.543	2.85
726.568	6.85
726.594	-2.15
726.619	15.85
726.645	11.85
726.67	-1.15
726.696	-4.15
726.721	-20.15
726.747	-12.15
726.772	9.85
726.798	6.85
726.823	1.85
726.849	-16.15
726.874	4.85
726.9	8.85
726.925	-1.15
726.951	1.85
726.976	23.85
727.002	-3.15
727.027	8.85
727.053	1.85
727.078	-3.15
727.104	3.85
727.129	-20.15
727.155	-7.15
727.18	-11.15
727.205	-4.15
727.231	-10.15
727.256	-3.15
727.282	-6.15
727.307	-5.15
727.333	-3.15
727.358	1.85
727.383	-4.15
727.409	-3.15
727.434	5.85
727.46	0.85
727.485	-7.15
727.511	-1.15
727.536	-2.15
727.561	-4.15
727.587	-7.15
727.612	-2.15
727.637	-9.15
727.663	-20.15
727.688	12.85
727.714	-7.15
727.739	-16.15
727.764	0.85
727.79	4.85
727.815	3.85
727.841	7.85
727.866	1.85
727.891	-5.15
727.917	-3.15
727.942	-26.15
727.967	-15.15
727.993	-19.15
728.018	-11.15
728.043	0.85
728.069	6.85
728.094	-5.15
728.119	-12.15
728.145	5.85
728.17	7.85
728.195	3.85
728.221	13.85
728.246	-18.15
728.271	-15.15
728.297	-2.15
728.322	2.85
728.347	5.85
728.373	7.85
728.398	-3.15
728.423	-9.15
728.448	3.85
728.474	4.85
728.499	1.85
728.524	-3.15
728.55	-11.15
728.575	-5.15
728.6	-0.15
728.625	-13.15
728.651	-2.15
728.676	0.85
728.701	-4.15
728.727	-3.15
728.752	-2.15
728.777	-4.15
728.802	2.85
728.828	6.85
728.853	-2.15
728.878	-15.15
728.903	-4.15
728.929	4.85
728.954	-8.15
728.979	13.85
729.004	2.85
729.03	-10.15
729.055	-3.15
729.08	-26.15
729.105	-6.15
729.13	0.85
729.156	-3.15
729.181	-6.15
729.206	-7.15
729.231	3.85
729.256	5.85
729.282	5.85
729.307	-6.15
729.332	-11.15
729.357	-21.15
729.382	-0.15
729.408	2.85
729.433	-20.15
729.458	-7.15
729.483	-3.15
729.508	12.85
729.533	-13.15
729.559	0.85
729.584	-15.15
729.609	12.85
729.634	7.85
729.659	-13.15
729.684	-4.15
729.71	17.85
729.735	-0.15
729.76	-19.15
729.785	-8.15
729.81	10.85
729.835	-14.15
729.86	-21.15
729.886	18.85
729.911	-19.15
729.936	2.85
729.961	11.85
729.986	-2.15
730.011	6.85
730.036	0.85
730.061	-4.15
730.086	-7.15
730.112	-2.15
730.137	16.85
730.162	11.85
730.187	-16.15
730.212	2.85
730.237	-13.15
730.262	-0.15
730.287	-0.15
730.312	17.85
730.337	-2.15
730.362	13.85
730.387	9.85
730.413	-10.15
730.438	-7.15
730.463	-9.15
730.488	-7.15
730.513	0.85
730.538	-6.15
730.563	3.85
730.588	3.85
730.613	3.85
730.638	-2.15
730.663	1.85
730.688	6.85
730.713	0.85
730.738	7.85
730.763	-12.15
730.788	-29.15
730.813	-0.15
730.838	-4.15
730.863	9.85
730.888	1.85
730.913	-7.15
730.938	-4.15
730.963	4.85
730.988	15.85
731.013	5.85
731.038	-5.15
731.063	-3.15
731.088	11.85
731.113	-5.15
731.138	-17.15
731.163	-10.15
731.188	-19.15
731.213	8.85
731.238	10.85
731.263	-8.15
731.288	-6.15
731.313	4.85
731.338	-7.15
731.363	12.85
731.388	-13.15
731.413	-5.15
731.438	-3.15
731.463	7.85
731.487	1.85
731.512	-20.15
731.537	-13.15
731.562	-1.15
731.587	-2.15
731.612	-21.15
731.637	-12.15
731.662	-7.15
731.687	-4.15
731.712	-8.15
731.737	-6.15
731.762	-4.15
731.786	16.85
731.811	19.85
731.836	10.85
731.861	-0.15
731.886	-8.15
731.911	-7.15
731.936	9.85
731.961	-0.15
731.986	-15.15
732.01	-5.15
732.035	2.85
732.06	3.85
732.085	-2.15
732.11	-6.15
732.135	-2.15
732.16	8.85
732.184	10.85
732.209	-0.15
732.234	4.85
732.259	-8.15
732.284	0.85
732.309	-12.15
732.334	-8.15
732.358	-18.15
732.383	-12.15
732.408	-7.15
732.433	0.85
732.458	-23.15
732.482	-12.15
732.507	-5.15
732.532	-3.15
732.557	14.85
732.582	0.85
732.607	-7.15
732.631	0.85
732.656	0.85
732.681	-1.15
732.706	-6.15
732.73	-2.15
732.755	-3.15
732.78	-6.15
732.805	4.85
732.83	-0.15
732.854	-0.15
732.879	1.85
732.904	-11.15
732.929	-8.15
732.953	1.85
732.978	2.85
733.003	-6.15
733.028	-11.15
733.052	13.85
733.077	13.85
733.102	-0.15
733.127	-7.15
733.151	-7.15
733.176	-3.15
733.201	-15.15
733.226	3.85
733.25	5.85
733.275	-2.15
733.3	-16.15
733.324	7.85
733.349	-3.15
733.374	11.85
733.399	-13.15
733.423	-20.15
733.448	-3.15
733.473	-9.15
733.497	-7.15
733.522	-7.15
733.547	-15.15
733.571	23.85
733.596	4.85
733.621	-3.15
733.646	2.85
733.67	3.85
733.695	9.85
733.72	1.85
733.744	3.85
733.769	-5.15
733.794	5.85
733.818	3.85
733.843	-5.15
733.867	-7.15
733.892	-0.15
733.917	-0.15
733.941	1.85
733.966	-11.15
733.991	-3.15
734.015	3.85
734.04	0.85
734.065	6.85
734.089	3.85
734.114	-3.15
734.138	7.85
734.163	-4.15
734.188	-19.15
734.212	5.85
734.237	0.85
734.261	-1.15
734.286	1.85
734.311	6.85
734.335	-21.15
734.36	-13.15
734.384	-0.15
734.409	17.85
734.434	-13.15
734.458	7.85
734.483	18.85
734.507	-2.15
734.532	-18.15
734.556	-7.15
734.581	14.85
734.606	-11.15
734.63	-7.15
734.655	1.85
734.679	-4.15
734.704	-5.15
734.728	-18.15
734.753	-3.15
734.777	5.85
734.802	-15.15
734.826	1.85
734.851	-1.15
734.876	15.85
734.9	4.85
734.925	0.85
734.949	6.85
734.974	-6.15
734.998	-13.15
735.023	-16.15
735.047	-11.15
735.072	4.85
735.096	3.85
735.121	0.85
735.145	-7.15
735.17	-8.15
735.194	10.85
735.219	5.85
735.243	4.85
735.268	-0.15
735.292	-4.15
735.317	10.85
735.341	5.85
735.365	-18.15
735.39	1.85
735.414	3.85
735.439	5.85
735.463	12.85
735.488	5.85
735.512	-5.15
735.537	4.85
735.561	-6.15
735.586	-0.15
735.61	1.85
735.634	-1.15
735.659	-16.15
735.683	19.85
735.708	-6.15
735.732	-0.15
735.757	-15.15
735.781	-4.15
735.805	7.85
735.83	-9.15
735.854	8.85
735.879	-6.15
735.903	-7.15
735.927	1.85
735.952	-2.15
735.976	-9.15
736.001	-16.15
736.025	-6.15
736.049	-3.15
736.074	7.85
736.098	10.85
736.123	0.85
736.147	-4.15
736.171	-6.15
736.196	-0.15
736.22	-12.15
736.244	9.85
736.269	0.85
736.293	-3.15
736.317	-3.15
736.342	-0.15
736.366	10.85
736.39	8.85
736.415	0.85
736.439	5.85
736.463	5.85
736.488	-2.15
736.512	-9.15
736.536	-3.15
736.561	8.85
736.585	-3.15
736.609	0.85
736.634	-2.15
736.658	-3.15
736.682	-16.15
736.707	-10.15
736.731	-3.15
736.755	-5.15
736.78	-0.15
736.804	20.85
736.828	-7.15
736.852	5.85
736.877	-3.15
736.901	-4.15
736.925	-0.15
736.949	-0.15
736.974	-0.15
736.998	-9.15
737.022	6.85
737.047	-10.15
737.071	-5.15
737.095	7.85
737.119	11.85
737.144	7.85
737.168	-1.15
737.192	3.85
737.216	3.85
737.241	-3.15
737.265	-2.15
737.289	-12.15
737.313	-0.15
737.337	11.85
737.362	-0.15
737.386	-0.15
737.41	-7.15
737.434	-0.15
737.459	7.85
737.483	19.85
737.507	7.85
737.531	1.85
737.555	-9.15
737.58	3.85
737.604	-1.15
737.628	-16.15
737.652	-4.15
737.676	-13.15
737.701	1.85
737.725	-5.15
737.749	7.85
737.773	4.85
737.797	-13.15
737.821	0.85
737.846	-4.15
737.87	21.85
737.894	0.85
737.918	9.85
737.942	-10.15
737.966	-1.15
737.99	17.85
738.015	-2.15
738.039	-7.15
738.063	-8.15
738.087	-3.15
738.111	-2.15
738.135	20.85
738.159	-7.15
738.184	1.85
738.208	0.85
738.232	-1.15
738.256	20.85
738.28	-8.15
738.304	9.85
738.328	-6.15
738.352	-2.15
738.376	-2.15
738.4	7.85
738.425	9.85
738.449	-9.15
738.473	3.85
738.497	0.85
738.521	-2.15
738.545	-2.15
738.569	16.85
738.593	20.85
738.617	-2.15
738.641	-16.15
738.665	-11.15
738.689	-8.15
738.713	-0.15
738.737	7.85
738.762	16.85
738.786	13.85
738.81	-25.15
738.834	-6.15
738.858	-21.15
738.882	-10.15
738.906	-0.15
738.93	-1.15
738.954	-6.15
738.978	4.85
739.002	5.85
739.026	0.85
739.05	0.85
739.074	6.85
739.098	18.85
739.122	5.85
739.146	-0.15
739.17	9.85
739.194	8.85
739.218	3.85
739.242	-0.15
739.266	-4.15
739.29	-7.15
739.314	-4.15
739.338	-2.15
739.362	17.85
739.386	7.85
739.41	-5.15
739.434	-26.15
739.458	17.85
739.482	-5.15
739.506	0.85
739.53	-5.15
739.554	-11.15
739.577	-14.15
739.601	4.85
739.625	-11.15
739.649	-8.15
739.673	4.85
739.697	7.85
739.721	-11.15
739.745	13.85
739.769	10.85
739.793	6.85
739.817	2.85
739.841	-12.15
739.865	-3.15
739.889	-4.15
739.912	1.85
739.936	-21.15
739.96	-8.15
739.984	1.85
740.008	0.85
740.032	-0.15
740.056	-4.15
740.08	1.85
740.104	-9.15
740.127	-9.15
740.151	5.85
740.175	6.85
740.199	13.85
740.223	44.85
740.247	15.85
740.271	-9.15
740.295	-11.15
740.318	-11.15
740.342	-5.15
740.366	25.85
740.39	7.85
740.414	13.85
740.438	-0.15
740.461	13.85
740.485	8.85
740.509	-13.15
740.533	3.85
740.557	-7.15
740.581	-0.15
740.604	-6.15
740.628	17.85
740.652	13.85
740.676	0.85
740.7	21.85
740.723	-0.15
740.747	-8.15
740.771	-4.15
740.795	-9.15
740.819	11.85
740.842	-13.15
740.866	-8.15
740.89	-0.15
740.914	-10.15
740.938	-11.15
740.961	13.85
740.985	0.85
741.009	-6.15
741.033	5.85
741.056	16.85
741.08	-3.15
741.104	-3.15
741.128	0.85
741.151	-5.15
741.175	-8.15
741.199	4.85
741.223	21.85
741.246	-6.15
741.27	12.85
741.294	6.85
741.318	-16.15
741.341	8.85
741.365	4.85
741.389	5.85
741.413	9.85
741.436	-1.15
741.46	-9.15
741.484	0.85
741.507	-0.15
741.531	11.85
741.555	-7.15
741.579	7.85
741.602	6.85
741.626	11.85
741.65	-9.15
741.673	-0.15
741.697	4.85
741.721	7.85
741.744	-16.15
741.768	-23.15
741.792	-21.15
741.815	-15.15
741.839	8.85
741.863	8.85
741.886	-1.15
741.91	5.85
741.934	-4.15
741.957	-1.15
741.981	0.85
742.005	1.85
742.028	-6.15
742.052	-5.15
742.075	0.85
742.099	10.85
742.123	-7.15
742.146	-3.15
742.17	-1.15
742.194	-3.15
742.217	-11.15
742.241	-7.15
742.264	-5.15
742.288	5.85
742.312	1.85
742.335	-0.15
742.359	9.85
742.382	3.85
742.406	10.85
742.43	-11.15
742.453	0.85
742.477	-11.15
742.5	-4.15
742.524	4.85
742.548	-6.15
742.571	-14.15
742.595	-0.15
742.618	-7.15
742.642	-5.15
742.665	7.85
742.689	-8.15
742.712	-2.15
742.736	-4.15
742.76	-4.15
742.783	-6.15
742.807	-1.15
742.83	4.85
742.854	0.85
742.877	-1.15
742.901	3.85
742.924	-8.15
742.948	-7.15
742.971	4.85
742.995	11.85
743.018	9.85
743.042	-7.15
743.065	-4.15
743.089	-7.15
743.112	14.85
743.136	-7.15
743.159	-3.15
743.183	-7.15
743.206	6.85
743.23	0.85
743.253	5.85
743.277	0.85
743.3	-6.15
743.324	-3.15
743.347	-23.15
743.371	17.85
743.394	16.85
743.418	2.85
743.441	-1.15
743.465	2.85
743.488	4.85
743.512	-9.15
743.535	-3.15
743.558	7.85
743.582	-1.15
743.605	0.85
743.629	11.85
743.652	10.85
743.676	1.85
743.699	5.85
743.723	3.85
743.746	14.85
743.769	-4.15
743.793	-3.15
743.816	-9.15
743.84	2.85
743.863	3.85
743.886	2.85
743.91	12.85
743.933	5.85
743.957	-1.15
743.98	-5.15
744.003	7.85
744.027	-9.15
744.05	-7.15
744.074	0.85
744.097	-6.15
744.12	-13.15
744.144	-0.15
744.167	-2.15
744.19	-4.15
744.214	-11.15
744.237	-10.15
744.26	16.85
744.284	-6.15
744.307	-22.15
744.331	-4.15
744.354	-15.15
744.377	-7.15
744.401	4.85
744.424	-12.15
744.447	-16.15
744.471	-5.15
