Data from HighRes_H2D2_15_04_11_07_2024_HR4C61891__15__15-05-35-943.txt Node

Date: Thu Nov 07 15:05:35 EST 2024
User: crc00042
Spectrometer: HR4C6189
Trigger mode: 4
Integration Time (sec): 1.000000E-1
Scans to average: 1
Electric dark correction enabled: true
Nonlinearity correction enabled: false
Boxcar width: 0
XAxis mode: Wavelengths
Number of Pixels in Spectrum: 3648
>>>>>Begin Spectral Data<<<<<
639.567	-79
639.602	-79
639.636	-79
639.67	-53
639.704	-16
639.738	6
639.773	9
639.807	-11
639.841	-7
639.875	8
639.909	7
639.943	-13
639.978	-12
640.012	6
640.046	12
640.08	3
640.114	-1
640.148	-7
640.182	0
640.217	5
640.251	9
640.285	2
640.319	-12
640.353	-18
640.387	-9
640.421	8
640.455	-10
640.49	-4
640.524	-13
640.558	3
640.592	-17
640.626	4
640.66	22
640.694	-6
640.728	6
640.762	15
640.796	8
640.83	11
640.865	-15
640.899	-17
640.933	-2
640.967	-14
641.001	6
641.035	-5
641.069	-8
641.103	-6
641.137	-19
641.171	-14
641.205	-1
641.239	-2
641.273	8
641.307	5
641.341	0
641.375	-5
641.409	-3
641.443	7
641.477	-2
641.511	6
641.545	-4
641.579	-15
641.614	-1
641.648	0
641.682	6
641.716	0
641.75	6
641.784	-7
641.818	-6
641.852	-9
641.886	3
641.919	11
641.953	-5
641.987	-18
642.021	10
642.055	2
642.089	-3
642.123	-25
642.157	-3
642.191	-6
642.225	-3
642.259	-5
642.293	5
642.327	-2
642.361	-7
642.395	12
642.429	6
642.463	6
642.497	21
642.531	-1
642.565	-8
642.599	2
642.633	-3
642.666	15
642.7	6
642.734	7
642.768	-12
642.802	4
642.836	9
642.87	-5
642.904	9
642.938	-6
642.972	-10
643.005	2
643.039	20
643.073	2
643.107	20
643.141	0
643.175	7
643.209	-4
643.243	-5
643.276	3
643.31	-10
643.344	-29
643.378	1
643.412	10
643.446	-3
643.48	-8
643.513	0
643.547	-6
643.581	-5
643.615	3
643.649	8
643.683	1
643.716	-13
643.75	-1
643.784	-26
643.818	13
643.852	-15
643.886	4
643.919	-9
643.953	9
643.987	4
644.021	5
644.055	0
644.088	-14
644.122	-11
644.156	-4
644.19	-6
644.224	-11
644.257	2
644.291	-12
644.325	-20
644.359	-14
644.392	11
644.426	13
644.46	4
644.494	-7
644.527	-7
644.561	4
644.595	-10
644.629	-14
644.662	10
644.696	8
644.73	2
644.764	-1
644.797	-2
644.831	8
644.865	2
644.899	2
644.932	14
644.966	-2
645	-8
645.033	11
645.067	3
645.101	-4
645.135	-13
645.168	-8
645.202	0
645.236	1
645.269	-1
645.303	-1
645.337	0
645.37	-21
645.404	9
645.438	-2
645.471	-17
645.505	18
645.539	7
645.572	-7
645.606	-18
645.64	-10
645.673	0
645.707	13
645.741	-5
645.774	-18
645.808	6
645.842	5
645.875	15
645.909	9
645.943	-12
645.976	-10
646.01	15
646.043	-5
646.077	-10
646.111	9
646.144	13
646.178	12
646.212	-2
646.245	-1
646.279	6
646.312	3
646.346	-10
646.38	-17
646.413	4
646.447	-4
646.48	-8
646.514	16
646.547	-7
646.581	-4
646.615	1
646.648	-19
646.682	-3
646.715	-23
646.749	1
646.782	1
646.816	-20
646.85	-2
646.883	-13
646.917	-3
646.95	6
646.984	13
647.017	-5
647.051	-1
647.084	7
647.118	-17
647.151	-10
647.185	-2
647.218	3
647.252	4
647.285	-14
647.319	-19
647.353	2
647.386	19
647.42	12
647.453	-2
647.487	8
647.52	-7
647.553	2
647.587	-20
647.62	-16
647.654	13
647.687	10
647.721	-10
647.754	-1
647.788	-1
647.821	-15
647.855	8
647.888	19
647.922	13
647.955	6
647.989	-1
648.022	-10
648.055	-1
648.089	4
648.122	19
648.156	-14
648.189	-7
648.223	7
648.256	3
648.29	9
648.323	-2
648.356	2
648.39	10
648.423	-5
648.457	-1
648.49	3
648.523	5
648.557	0
648.59	-16
648.624	6
648.657	10
648.69	11
648.724	9
648.757	-1
648.791	-6
648.824	-8
648.857	22
648.891	-12
648.924	5
648.957	16
648.991	-6
649.024	11
649.057	1
649.091	8
649.124	2
649.158	-6
649.191	3
649.224	1
649.258	1
649.291	5
649.324	3
649.358	0
649.391	4
649.424	8
649.458	9
649.491	3
649.524	-3
649.557	-3
649.591	-14
649.624	12
649.657	-7
649.691	-7
649.724	-2
649.757	4
649.791	-12
649.824	15
649.857	2
649.89	3
649.924	-13
649.957	-14
649.99	-11
650.023	-6
650.057	-9
650.09	7
650.123	11
650.157	3
650.19	11
650.223	-2
650.256	-7
650.29	-2
650.323	-4
650.356	4
650.389	-16
650.423	-11
650.456	-2
650.489	2
650.522	20
650.555	21
650.589	10
650.622	8
650.655	16
650.688	8
650.721	-5
650.755	-9
650.788	7
650.821	4
650.854	-1
650.887	-19
650.921	-5
650.954	-14
650.987	-24
651.02	-9
651.053	-12
651.087	-12
651.12	10
651.153	-2
651.186	-1
651.219	-23
651.252	-2
651.286	2
651.319	-17
651.352	-10
651.385	-2
651.418	-1
651.451	10
651.484	2
651.518	-5
651.551	-5
651.584	-8
651.617	12
651.65	-1
651.683	4
651.716	2
651.749	-15
651.783	2
651.816	-2
651.849	7
651.882	9
651.915	-3
651.948	3
651.981	6
652.014	-20
652.047	-8
652.08	-6
652.114	-4
652.147	-27
652.18	4
652.213	17
652.246	8
652.279	-15
652.312	8
652.345	-6
652.378	-5
652.411	6
652.444	0
652.477	6
652.51	-6
652.543	-6
652.576	3
652.609	-9
652.642	3
652.675	21
652.709	2
652.742	7
652.775	11
652.808	-2
652.841	-22
652.874	-11
652.907	-5
652.94	-3
652.973	-11
653.006	-4
653.039	-15
653.072	-8
653.105	-19
653.138	-13
653.171	-11
653.204	2
653.237	8
653.27	-3
653.303	7
653.336	4
653.368	-7
653.401	1
653.434	-13
653.467	0
653.5	-5
653.533	-3
653.566	7
653.599	-10
653.632	-7
653.665	-1
653.698	-12
653.731	-24
653.764	11
653.797	3
653.83	9
653.863	-9
653.896	-3
653.929	-14
653.961	-8
653.994	-8
654.027	-17
654.06	-4
654.093	1
654.126	7
654.159	-4
654.192	1
654.225	-2
654.258	6
654.29	6
654.323	-16
654.356	-7
654.389	-3
654.422	0
654.455	2
654.488	-2
654.521	-3
654.553	-21
654.586	2
654.619	-4
654.652	10
654.685	0
654.718	4
654.751	-4
654.783	-5
654.816	18
654.849	13
654.882	-3
654.915	-11
654.948	1
654.98	-8
655.013	-8
655.046	-7
655.079	-18
655.112	-2
655.144	-13
655.177	2
655.21	1
655.243	2
655.276	11
655.308	-13
655.341	2
655.374	-3
655.407	-22
655.44	-1
655.472	-2
655.505	0
655.538	10
655.571	4
655.603	1
655.636	7
655.669	-3
655.702	1
655.734	3
655.767	0
655.8	-1
655.833	-2
655.865	14
655.898	-12
655.931	15
655.964	14
655.996	14
656.029	29
656.062	22
656.095	30
656.127	86
656.16	220
656.193	614
656.225	968
656.258	561
656.291	207
656.324	169
656.356	380
656.389	775
656.422	681
656.454	219
656.487	89
656.52	33
656.552	14
656.585	4
656.618	4
656.65	3
656.683	-2
656.716	0
656.748	7
656.781	-20
656.814	-7
656.846	-1
656.879	2
656.912	0
656.944	-15
656.977	-22
657.01	3
657.042	7
657.075	21
657.108	-3
657.14	10
657.173	10
657.205	5
657.238	-4
657.271	0
657.303	-7
657.336	-2
657.369	4
657.401	-7
657.434	15
657.466	8
657.499	-3
657.532	-6
657.564	-8
657.597	-6
657.629	4
657.662	-9
657.694	0
657.727	-19
657.76	24
657.792	-10
657.825	-19
657.857	14
657.89	1
657.922	-6
657.955	-10
657.987	6
658.02	4
658.053	-1
658.085	-2
658.118	-5
658.15	26
658.183	13
658.215	-3
658.248	-4
658.28	-21
658.313	0
658.345	7
658.378	9
658.41	15
658.443	11
658.475	-11
658.508	3
658.54	-11
658.573	-9
658.605	-7
658.638	-6
658.67	7
658.703	-3
658.735	-6
658.768	-8
658.8	-2
658.833	30
658.865	-5
658.898	6
658.93	-12
658.963	0
658.995	-14
659.028	-11
659.06	-5
659.092	-17
659.125	-8
659.157	17
659.19	-6
659.222	2
659.255	-5
659.287	0
659.32	-13
659.352	3
659.384	-10
659.417	-24
659.449	7
659.482	4
659.514	-3
659.546	9
659.579	-5
659.611	4
659.644	-13
659.676	-14
659.708	-17
659.741	-14
659.773	-12
659.806	-16
659.838	-1
659.87	-22
659.903	-17
659.935	11
659.967	9
660	-5
660.032	-27
660.065	-5
660.097	-7
660.129	-7
660.162	-12
660.194	9
660.226	6
660.259	9
660.291	1
660.323	-14
660.356	-2
660.388	-7
660.42	5
660.453	5
660.485	7
660.517	5
660.55	5
660.582	-3
660.614	-4
660.647	5
660.679	-24
660.711	6
660.743	-9
660.776	6
660.808	-14
660.84	-14
660.873	-7
660.905	1
660.937	3
660.969	-2
661.002	3
661.034	14
661.066	9
661.099	14
661.131	17
661.163	0
661.195	7
661.228	9
661.26	3
661.292	-7
661.324	-3
661.357	-1
661.389	-16
661.421	0
661.453	1
661.485	6
661.518	5
661.55	-26
661.582	-10
661.614	-6
661.647	-1
661.679	-1
661.711	-4
661.743	-3
661.775	-4
661.808	5
661.84	-16
661.872	-10
661.904	-7
661.936	-10
661.969	-8
662.001	-14
662.033	14
662.065	-7
662.097	17
662.129	16
662.162	-4
662.194	5
662.226	-19
662.258	-5
662.29	-6
662.322	-12
662.355	-10
662.387	26
662.419	10
662.451	0
662.483	9
662.515	4
662.547	-10
662.58	-10
662.612	-8
662.644	-19
662.676	-10
662.708	2
662.74	-12
662.772	1
662.804	9
662.836	2
662.869	-13
662.901	12
662.933	5
662.965	8
662.997	20
663.029	3
663.061	-17
663.093	-14
663.125	-5
663.157	-3
663.189	-10
663.221	-14
663.254	3
663.286	9
663.318	7
663.35	1
663.382	-3
663.414	3
663.446	14
663.478	-19
663.51	20
663.542	-15
663.574	-1
663.606	3
663.638	8
663.67	-14
663.702	-5
663.734	-7
663.766	1
663.798	-11
663.83	4
663.862	13
663.894	6
663.926	-9
663.958	12
663.99	-8
664.022	-7
664.054	9
664.086	5
664.118	-1
664.15	-22
664.182	-10
664.214	8
664.246	14
664.278	7
664.31	4
664.342	-3
664.374	4
664.406	13
664.438	5
664.47	7
664.502	-14
664.534	0
664.566	-13
664.598	-8
664.63	-12
664.662	-10
664.693	3
664.725	-4
664.757	1
664.789	-13
664.821	7
664.853	26
664.885	11
664.917	-4
664.949	-12
664.981	5
665.013	-3
665.045	-12
665.076	10
665.108	6
665.14	-13
665.172	-14
665.204	-11
665.236	-1
665.268	14
665.3	-11
665.331	-6
665.363	2
665.395	-25
665.427	-12
665.459	5
665.491	-4
665.523	7
665.555	-1
665.586	6
665.618	-6
665.65	-24
665.682	-13
665.714	-8
665.746	-10
665.777	0
665.809	10
665.841	12
665.873	-9
665.905	-1
665.937	11
665.968	-1
666	13
666.032	-6
666.064	2
666.096	-2
666.127	4
666.159	6
666.191	-3
666.223	0
666.255	-2
666.286	-9
666.318	-3
666.35	18
666.382	13
666.413	4
666.445	-1
666.477	-10
666.509	-10
666.54	-3
666.572	-1
666.604	-3
666.636	-5
666.667	10
666.699	3
666.731	-17
666.763	-6
666.794	-6
666.826	8
666.858	-19
666.89	-3
666.921	-8
666.953	-5
666.985	0
667.017	-3
667.048	-8
667.08	-5
667.112	-13
667.143	-5
667.175	-9
667.207	-4
667.238	14
667.27	3
667.302	-22
667.334	-8
667.365	6
667.397	-8
667.429	-13
667.46	20
667.492	11
667.524	-3
667.555	3
667.587	6
667.619	8
667.65	-5
667.682	-2
667.714	13
667.745	1
667.777	-6
667.808	16
667.84	13
667.872	-11
667.903	23
667.935	-7
667.967	-10
667.998	2
668.03	-11
668.061	5
668.093	-8
668.125	6
668.156	-9
668.188	-26
668.22	-14
668.251	6
668.283	14
668.314	12
668.346	-1
668.377	7
668.409	-1
668.441	20
668.472	17
668.504	-6
668.535	-12
668.567	4
668.599	-7
668.63	-1
668.662	-6
668.693	22
668.725	11
668.756	9
668.788	-9
668.819	-13
668.851	6
668.882	-4
668.914	-1
668.946	-12
668.977	-4
669.009	-21
669.04	-13
669.072	-5
669.103	4
669.135	14
669.166	3
669.198	-22
669.229	2
669.261	-12
669.292	-19
669.324	-6
669.355	-3
669.387	-8
669.418	4
669.45	-13
669.481	3
669.513	16
669.544	-3
669.576	-14
669.607	20
669.639	1
669.67	-10
669.701	-6
669.733	-26
669.764	4
669.796	-10
669.827	-7
669.859	1
669.89	10
669.922	4
669.953	6
669.985	8
670.016	-7
670.047	0
670.079	-10
670.11	1
670.142	-14
670.173	-4
670.204	3
670.236	-2
670.267	-12
670.299	4
670.33	11
670.362	3
670.393	-20
670.424	-12
670.456	-23
670.487	-2
670.518	3
670.55	-6
670.581	-5
670.613	8
670.644	-8
670.675	-16
670.707	-30
670.738	5
670.769	-3
670.801	-12
670.832	7
670.864	-9
670.895	1
670.926	11
670.958	4
670.989	2
671.02	-18
671.052	-4
671.083	-6
671.114	15
671.146	4
671.177	10
671.208	5
671.24	-20
671.271	2
671.302	10
671.333	-1
671.365	-5
671.396	-2
671.427	17
671.459	-2
671.49	6
671.521	1
671.553	-12
671.584	5
671.615	-19
671.646	-1
671.678	-6
671.709	2
671.74	-8
671.771	-20
671.803	-17
671.834	-18
671.865	4
671.896	9
671.928	-3
671.959	-7
671.99	-5
672.021	-24
672.053	-12
672.084	12
672.115	11
672.146	-5
672.178	-22
672.209	-18
672.24	-16
672.271	22
672.303	11
672.334	-2
672.365	-4
672.396	2
672.427	-3
672.459	8
672.49	34
672.521	8
672.552	-12
672.583	7
672.615	0
672.646	15
672.677	-16
672.708	6
672.739	-11
672.77	-2
672.802	-9
672.833	-1
672.864	-2
672.895	-6
672.926	4
672.957	-4
672.989	2
673.02	2
673.051	0
673.082	4
673.113	-8
673.144	14
673.175	8
673.206	1
673.238	-16
673.269	-20
673.3	-9
673.331	15
673.362	-6
673.393	6
673.424	10
673.455	12
673.487	9
673.518	15
673.549	10
673.58	13
673.611	5
673.642	1
673.673	-14
673.704	-1
673.735	6
673.766	-15
673.797	-17
673.828	-13
673.86	-17
673.891	-6
673.922	-1
673.953	-12
673.984	3
674.015	3
674.046	6
674.077	-9
674.108	-2
674.139	-11
674.17	-2
674.201	-23
674.232	-5
674.263	-11
674.294	-14
674.325	-4
674.356	-2
674.387	5
674.418	2
674.449	-16
674.48	-7
674.511	-6
674.542	2
674.573	-17
674.604	16
674.635	-3
674.666	-4
674.697	4
674.728	-4
674.759	-8
674.79	-9
674.821	-13
674.852	-8
674.883	-5
674.914	-17
674.945	-2
674.976	1
675.007	-5
675.038	-13
675.069	-19
675.1	-20
675.131	4
675.162	-4
675.193	-13
675.224	-3
675.254	10
675.285	0
675.316	-9
675.347	-6
675.378	-11
675.409	-11
675.44	0
675.471	-6
675.502	-3
675.533	7
675.564	9
675.595	1
675.625	12
675.656	-2
675.687	-1
675.718	-6
675.749	9
675.78	-1
675.811	-3
675.842	8
675.873	18
675.903	-2
675.934	-6
675.965	-30
675.996	-10
676.027	-7
676.058	1
676.089	1
676.119	15
676.15	5
676.181	9
676.212	-17
676.243	12
676.274	1
676.304	4
676.335	0
676.366	3
676.397	8
676.428	13
676.459	10
676.489	6
676.52	11
676.551	-3
676.582	1
676.613	13
676.643	-12
676.674	14
676.705	5
676.736	-1
676.767	7
676.797	9
676.828	12
676.859	2
676.89	-7
676.92	17
676.951	7
676.982	-2
677.013	0
677.044	16
677.074	5
677.105	-11
677.136	4
677.167	4
677.197	11
677.228	18
677.259	18
677.289	7
677.32	-14
677.351	-14
677.382	-7
677.412	4
677.443	6
677.474	-13
677.505	-1
677.535	1
677.566	3
677.597	-16
677.627	-21
677.658	6
677.689	5
677.72	0
677.75	7
677.781	10
677.812	19
677.842	20
677.873	7
677.904	3
677.934	10
677.965	-5
677.996	-15
678.026	-2
678.057	12
678.088	-4
678.118	8
678.149	-5
678.18	-10
678.21	6
678.241	6
678.272	-5
678.302	2
678.333	-9
678.363	9
678.394	2
678.425	-3
678.455	-9
678.486	3
678.517	-6
678.547	-6
678.578	10
678.608	-10
678.639	2
678.67	0
678.7	0
678.731	-13
678.761	-3
678.792	6
678.823	6
678.853	3
678.884	6
678.914	18
678.945	-8
678.975	-3
679.006	-6
679.037	-19
679.067	12
679.098	-2
679.128	-7
679.159	-6
679.189	11
679.22	-7
679.25	10
679.281	2
679.312	10
679.342	4
679.373	21
679.403	21
679.434	2
679.464	-13
679.495	9
679.525	-1
679.556	2
679.586	16
679.617	20
679.647	11
679.678	1
679.708	-10
679.739	-11
679.769	-8
679.8	-17
679.83	-16
679.861	-1
679.891	-18
679.922	-12
679.952	-10
679.983	14
680.013	4
680.044	-2
680.074	-5
680.105	20
680.135	13
680.165	10
680.196	6
680.226	-8
680.257	6
680.287	-2
680.318	-8
680.348	1
680.379	7
680.409	7
680.439	4
680.47	-6
680.5	-2
680.531	-6
680.561	1
680.592	-9
680.622	1
680.652	9
680.683	15
680.713	1
680.744	-6
680.774	-13
680.804	26
680.835	-3
680.865	-21
680.896	19
680.926	1
680.956	-4
680.987	1
681.017	-5
681.047	1
681.078	-10
681.108	-8
681.139	-3
681.169	8
681.199	-7
681.23	13
681.26	-3
681.29	4
681.321	-10
681.351	-6
681.381	0
681.412	2
681.442	4
681.472	11
681.503	6
681.533	-8
681.563	3
681.594	-11
681.624	6
681.654	-9
681.685	-15
681.715	11
681.745	10
681.775	-6
681.806	-10
681.836	1
681.866	-23
681.897	3
681.927	-20
681.957	-6
681.987	-2
682.018	-5
682.048	2
682.078	2
682.109	12
682.139	0
682.169	-3
682.199	-10
682.23	-11
682.26	-12
682.29	6
682.32	-5
682.351	1
682.381	-2
682.411	-6
682.441	-18
682.472	-6
682.502	9
682.532	-6
682.562	1
682.592	5
682.623	-9
682.653	-2
682.683	-3
682.713	15
682.743	-5
682.774	-17
682.804	13
682.834	3
682.864	-19
682.894	-18
682.925	-6
682.955	3
682.985	-3
683.015	3
683.045	12
683.076	-7
683.106	-8
683.136	-22
683.166	-1
683.196	-6
683.226	-17
683.257	-7
683.287	-14
683.317	-4
683.347	-9
683.377	-6
683.407	7
683.437	-2
683.468	-8
683.498	2
683.528	12
683.558	14
683.588	9
683.618	4
683.648	-12
683.678	-10
683.708	2
683.739	5
683.769	-4
683.799	12
683.829	-11
683.859	-3
683.889	13
683.919	-8
683.949	-6
683.979	-8
684.009	-2
684.039	-5
684.07	-12
684.1	9
684.13	3
684.16	0
684.19	13
684.22	1
684.25	6
684.28	-4
684.31	3
684.34	10
684.37	9
684.4	-6
684.43	-1
684.46	-6
684.49	-7
684.52	13
684.55	12
684.58	12
684.61	4
684.64	14
684.67	-4
684.7	-15
684.73	3
684.76	-9
684.79	19
684.82	17
684.85	-10
684.88	-1
684.91	7
684.94	11
684.97	-8
685	-9
685.03	-2
685.06	0
685.09	4
685.12	9
685.15	-18
685.18	17
685.21	-2
685.24	9
685.27	14
685.3	-5
685.33	12
685.36	-18
685.39	-2
685.42	-9
685.45	-7
685.48	-2
685.51	3
685.54	11
685.569	8
685.599	14
685.629	-1
685.659	2
685.689	2
685.719	-10
685.749	1
685.779	1
685.809	2
685.839	16
685.869	1
685.898	25
685.928	4
685.958	-11
685.988	7
686.018	-22
686.048	2
686.078	-1
686.108	7
686.137	4
686.167	6
686.197	-15
686.227	-2
686.257	15
686.287	5
686.317	0
686.346	-3
686.376	-25
686.406	-6
686.436	10
686.466	3
686.496	-2
686.525	9
686.555	8
686.585	30
686.615	36
686.645	-1
686.675	-3
686.704	8
686.734	0
686.764	-9
686.794	12
686.824	-5
686.853	8
686.883	0
686.913	18
686.943	0
686.973	5
687.002	2
687.032	10
687.062	17
687.092	5
687.121	2
687.151	-4
687.181	-2
687.211	9
687.24	7
687.27	-2
687.3	-8
687.33	2
687.359	-10
687.389	2
687.419	4
687.449	-7
687.478	-9
687.508	7
687.538	2
687.568	1
687.597	-6
687.627	10
687.657	-2
687.686	16
687.716	15
687.746	-3
687.776	-4
687.805	8
687.835	6
687.865	13
687.894	13
687.924	6
687.954	-3
687.983	3
688.013	-12
688.043	-8
688.072	4
688.102	4
688.132	-11
688.161	-10
688.191	-3
688.221	10
688.25	4
688.28	1
688.31	4
688.339	-15
688.369	-14
688.399	-15
688.428	-18
688.458	4
688.488	-8
688.517	8
688.547	2
688.576	28
688.606	3
688.636	-5
688.665	0
688.695	22
688.725	16
688.754	11
688.784	16
688.813	12
688.843	6
688.873	11
688.902	-6
688.932	3
688.961	7
688.991	13
689.02	7
689.05	-6
689.08	12
689.109	16
689.139	-2
689.168	-2
689.198	10
689.227	5
689.257	9
689.287	-1
689.316	11
689.346	-9
689.375	-3
689.405	6
689.434	8
689.464	-1
689.493	6
689.523	-17
689.552	-14
689.582	-4
689.611	-4
689.641	14
689.67	-4
689.7	5
689.73	18
689.759	8
689.789	27
689.818	-15
689.848	-16
689.877	16
689.906	-2
689.936	-8
689.965	20
689.995	12
690.024	5
690.054	-10
690.083	-4
690.113	0
690.142	6
690.172	-13
690.201	-6
690.231	6
690.26	-1
690.29	12
690.319	7
690.348	5
690.378	3
690.407	13
690.437	5
690.466	-15
690.496	-19
690.525	8
690.555	2
690.584	-2
690.613	5
690.643	7
690.672	7
690.702	5
690.731	4
690.76	7
690.79	4
690.819	-3
690.849	1
690.878	13
690.907	0
690.937	6
690.966	1
690.996	-2
691.025	-3
691.054	-10
691.084	4
691.113	1
691.142	15
691.172	11
691.201	-2
691.23	-1
691.26	16
691.289	3
691.319	-15
691.348	3
691.377	26
691.407	3
691.436	-1
691.465	-3
691.495	-10
691.524	-19
691.553	-28
691.583	-6
691.612	2
691.641	-2
691.67	-1
691.7	-9
691.729	-22
691.758	0
691.788	0
691.817	-6
691.846	-7
691.876	-4
691.905	4
691.934	-11
691.963	11
691.993	3
692.022	3
692.051	-18
692.081	6
692.11	26
692.139	3
692.168	-1
692.198	-1
692.227	21
692.256	3
692.285	-7
692.315	4
692.344	-3
692.373	-1
692.402	-6
692.432	-5
692.461	-7
692.49	7
692.519	4
692.548	-11
692.578	5
692.607	-4
692.636	-9
692.665	8
692.694	-20
692.724	1
692.753	2
692.782	16
692.811	-9
692.84	-13
692.87	-11
692.899	-3
692.928	-11
692.957	3
692.986	24
693.016	5
693.045	-4
693.074	-2
693.103	-6
693.132	-3
693.161	-2
693.191	-7
693.22	-22
693.249	-4
693.278	5
693.307	6
693.336	-18
693.365	-4
693.395	4
693.424	-6
693.453	12
693.482	-2
693.511	-3
693.54	14
693.569	4
693.598	3
693.628	10
693.657	5
693.686	1
693.715	11
693.744	4
693.773	14
693.802	5
693.831	-9
693.86	12
693.889	-19
693.919	4
693.948	18
693.977	-7
694.006	-5
694.035	-11
694.064	2
694.093	1
694.122	9
694.151	-10
694.18	12
694.209	11
694.238	10
694.267	19
694.296	7
694.325	-3
694.354	12
694.383	9
694.412	6
694.441	-2
694.471	-1
694.5	-20
694.529	1
694.558	26
694.587	-2
694.616	-6
694.645	10
694.674	3
694.703	0
694.732	-18
694.761	-2
694.79	12
694.819	-10
694.848	-6
694.877	15
694.906	39
694.935	0
694.963	3
694.992	-15
695.021	2
695.05	5
695.079	-7
695.108	-8
695.137	19
695.166	8
695.195	-14
695.224	20
695.253	-9
695.282	11
695.311	7
695.34	-2
695.369	20
695.398	12
695.427	5
695.456	1
695.485	1
695.513	9
695.542	-3
695.571	-7
695.6	14
695.629	21
695.658	2
695.687	7
695.716	0
695.745	22
695.774	-10
695.802	-10
695.831	-2
695.86	3
695.889	4
695.918	-2
695.947	-18
695.976	-10
696.005	-14
696.033	9
696.062	4
696.091	1
696.12	-1
696.149	17
696.178	-1
696.207	-9
696.235	-15
696.264	1
696.293	-5
696.322	-3
696.351	1
696.38	6
696.408	2
696.437	3
696.466	7
696.495	18
696.524	10
696.553	5
696.581	10
696.61	-15
696.639	-8
696.668	7
696.697	2
696.725	20
696.754	-2
696.783	-16
696.812	-9
696.84	-7
696.869	-5
696.898	-12
696.927	1
696.956	5
696.984	-7
697.013	-9
697.042	14
697.071	3
697.099	-4
697.128	3
697.157	1
697.186	-6
697.214	2
697.243	12
697.272	3
697.301	7
697.329	7
697.358	-2
697.387	8
697.415	18
697.444	10
697.473	12
697.502	5
697.53	3
697.559	6
697.588	9
697.616	6
697.645	-13
697.674	20
697.703	-1
697.731	6
697.76	-3
697.789	2
697.817	-10
697.846	8
697.875	8
697.903	5
697.932	-8
697.961	-15
697.989	12
698.018	1
698.047	1
698.075	-10
698.104	-6
698.133	15
698.161	-10
698.19	-7
698.218	-10
698.247	0
698.276	1
698.304	-3
698.333	5
698.362	3
698.39	6
698.419	4
698.447	-3
698.476	1
698.505	2
698.533	6
698.562	9
698.591	-14
698.619	-14
698.648	-2
698.676	10
698.705	1
698.733	-12
698.762	6
698.791	3
698.819	-10
698.848	-3
698.876	-1
698.905	3
698.933	16
698.962	15
698.991	-6
699.019	9
699.048	-7
699.076	5
699.105	4
699.133	2
699.162	5
699.19	16
699.219	0
699.248	-8
699.276	7
699.305	-5
699.333	3
699.362	-11
699.39	13
699.419	-6
699.447	7
699.476	3
699.504	-1
699.533	14
699.561	-3
699.59	9
699.618	1
699.647	-3
699.675	-14
699.704	8
699.732	-1
699.761	8
699.789	7
699.818	8
699.846	-10
699.874	-1
699.903	2
699.931	1
699.96	0
699.988	7
700.017	-4
700.045	-4
700.074	-6
700.102	-2
700.13	-1
700.159	-12
700.187	1
700.216	-22
700.244	-18
700.273	-1
700.301	6
700.329	-1
700.358	3
700.386	2
700.415	1
700.443	35
700.472	12
700.5	-7
700.528	-2
700.557	6
700.585	-11
700.614	-3
700.642	31
700.67	18
700.699	-1
700.727	1
700.755	-3
700.784	-2
700.812	-1
700.841	3
700.869	-9
700.897	-25
700.926	-9
700.954	13
700.982	-9
701.011	0
701.039	11
701.067	3
701.096	11
701.124	-11
701.152	1
701.181	3
701.209	-9
701.237	-24
701.266	-24
701.294	7
701.322	-6
701.351	3
701.379	-3
701.407	-5
701.435	6
701.464	6
701.492	15
701.52	0
701.549	8
701.577	-8
701.605	3
701.634	17
701.662	13
701.69	6
701.718	-7
701.747	6
701.775	-5
701.803	-3
701.831	-5
701.86	-5
701.888	2
701.916	-8
701.944	-12
701.973	-2
702.001	3
702.029	10
702.057	-13
702.086	-14
702.114	-12
702.142	-7
702.17	6
702.199	-5
702.227	-12
702.255	-7
702.283	-14
702.311	8
702.34	3
702.368	-6
702.396	-4
702.424	-7
702.452	3
702.481	18
702.509	0
702.537	-11
702.565	-15
702.593	-18
702.621	2
702.65	5
702.678	0
702.706	12
702.734	8
702.762	9
702.79	8
702.819	21
702.847	-1
702.875	14
702.903	14
702.931	-3
702.959	-3
702.988	11
703.016	-6
703.044	-9
703.072	-5
703.1	-3
703.128	0
703.156	4
703.184	1
703.212	9
703.241	-1
703.269	-6
703.297	-2
703.325	4
703.353	-2
703.381	-14
703.409	-6
703.437	-9
703.465	2
703.493	-12
703.522	9
703.55	17
703.578	-3
703.606	-13
703.634	-9
703.662	0
703.69	9
703.718	8
703.746	7
703.774	-4
703.802	8
703.83	7
703.858	1
703.886	-8
703.914	10
703.942	16
703.97	-14
703.998	-4
704.027	8
704.055	4
704.083	-2
704.111	1
704.139	11
704.167	-3
704.195	-15
704.223	-5
704.251	-3
704.279	-13
704.307	4
704.335	-8
704.363	9
704.391	4
704.419	-3
704.447	-8
704.475	-19
704.503	-3
704.531	4
704.558	2
704.586	11
704.614	-2
704.642	-5
704.67	-22
704.698	-10
704.726	2
704.754	-14
704.782	-15
704.81	-4
704.838	10
704.866	1
704.894	-10
704.922	-7
704.95	-2
704.978	15
705.006	2
705.034	8
705.061	-5
705.089	-22
705.117	-13
705.145	4
705.173	15
705.201	6
705.229	5
705.257	-1
705.285	-6
705.313	-3
705.34	6
705.368	-7
705.396	-3
705.424	7
705.452	2
705.48	-5
705.508	-3
705.536	-5
705.563	-7
705.591	7
705.619	1
705.647	4
705.675	17
705.703	19
705.731	-6
705.758	10
705.786	1
705.814	18
705.842	7
705.87	10
705.898	4
705.925	-10
705.953	7
705.981	3
706.009	-3
706.037	-4
706.065	1
706.092	-5
706.12	9
706.148	5
706.176	1
706.204	11
706.231	2
706.259	-14
706.287	7
706.315	16
706.342	-5
706.37	-6
706.398	-4
706.426	-3
706.454	5
706.481	7
706.509	4
706.537	-2
706.565	-17
706.592	6
706.62	1
706.648	10
706.676	-4
706.703	-5
706.731	-11
706.759	5
706.787	8
706.814	13
706.842	-9
706.87	-2
706.897	-12
706.925	-17
706.953	8
706.981	21
707.008	7
707.036	-18
707.064	-10
707.091	-19
707.119	1
707.147	-6
707.174	10
707.202	5
707.23	-9
707.258	5
707.285	-2
707.313	10
707.341	-9
707.368	-18
707.396	8
707.424	14
707.451	-4
707.479	-1
707.507	-6
707.534	-1
707.562	7
707.59	-6
707.617	-7
707.645	2
707.672	5
707.7	-14
707.728	12
707.755	-1
707.783	-1
707.811	16
707.838	10
707.866	2
707.893	-1
707.921	1
707.949	-7
707.976	9
708.004	9
708.031	-1
708.059	-11
708.087	-6
708.114	-7
708.142	-2
708.169	7
708.197	5
708.225	-18
708.252	-12
708.28	14
708.307	-5
708.335	8
708.362	4
708.39	-21
708.418	-2
708.445	-10
708.473	-3
708.5	-16
708.528	2
708.555	-5
708.583	-10
708.61	0
708.638	2
708.665	-7
708.693	-4
708.72	-8
708.748	-8
708.776	-12
708.803	19
708.831	-2
708.858	13
708.886	2
708.913	10
708.941	0
708.968	12
708.996	7
709.023	20
709.051	4
709.078	-3
709.105	-10
709.133	-9
709.16	-6
709.188	18
709.215	10
709.243	2
709.27	-10
709.298	13
709.325	-9
709.353	-8
709.38	16
709.408	7
709.435	1
709.462	10
709.49	5
709.517	-4
709.545	-6
709.572	-14
709.6	-3
709.627	13
709.655	6
709.682	5
709.709	-4
709.737	2
709.764	5
709.792	8
709.819	11
709.846	-11
709.874	-2
709.901	8
709.929	4
709.956	12
709.983	2
710.011	-1
710.038	-4
710.066	13
710.093	13
710.12	-9
710.148	-15
710.175	-8
710.202	-18
710.23	3
710.257	-11
710.284	-4
710.312	-11
710.339	-15
710.366	-2
710.394	0
710.421	4
710.448	-1
710.476	-23
710.503	-2
710.53	7
710.558	14
710.585	6
710.612	-3
710.64	2
710.667	2
710.694	-19
710.722	-10
710.749	1
710.776	1
710.804	15
710.831	-10
710.858	-1
710.885	-5
710.913	-14
710.94	14
710.967	1
710.995	-3
711.022	-5
711.049	1
711.076	-10
711.104	-3
711.131	-14
711.158	-3
711.185	15
711.213	3
711.24	-17
711.267	-6
711.294	-2
711.322	18
711.349	-3
711.376	-13
711.403	0
711.431	6
711.458	-11
711.485	-7
711.512	20
711.54	-8
711.567	5
711.594	-8
711.621	-5
711.648	-13
711.676	8
711.703	-1
711.73	-12
711.757	1
711.784	2
711.812	-7
711.839	-14
711.866	-2
711.893	-2
711.92	-1
711.947	5
711.975	23
712.002	7
712.029	13
712.056	-4
712.083	3
712.11	-18
712.138	4
712.165	-3
712.192	5
712.219	-22
712.246	-17
712.273	5
712.3	-6
712.328	-3
712.355	-6
712.382	-2
712.409	21
712.436	-8
712.463	-4
712.49	5
712.517	11
712.544	-9
712.572	-8
712.599	-8
712.626	-1
712.653	-3
712.68	-6
712.707	-7
712.734	13
712.761	-4
712.788	-5
712.815	-1
712.842	6
712.87	5
712.897	-22
712.924	-17
712.951	-2
712.978	9
713.005	29
713.032	34
713.059	-7
713.086	-6
713.113	-7
713.14	-12
713.167	-1
713.194	-1
713.221	11
713.248	7
713.275	-10
713.302	2
713.329	15
713.356	-2
713.383	3
713.41	7
713.437	6
713.464	6
713.491	-1
713.518	1
713.545	1
713.572	-13
713.599	11
713.626	7
713.653	1
713.68	-7
713.707	7
713.734	0
713.761	6
713.788	-5
713.815	26
713.842	6
713.869	-9
713.896	0
713.923	8
713.95	-13
713.977	-2
714.004	-8
714.031	-6
714.058	-7
714.085	2
714.112	11
714.139	-9
714.165	-13
714.192	-16
714.219	4
714.246	3
714.273	1
714.3	-6
714.327	-5
714.354	9
714.381	0
714.408	5
714.435	-4
714.461	2
714.488	3
714.515	0
714.542	-8
714.569	-13
714.596	-7
714.623	-3
714.65	-2
714.677	-9
714.703	-2
714.73	1
714.757	2
714.784	9
714.811	-4
714.838	1
714.865	-1
714.891	8
714.918	2
714.945	-9
714.972	-3
714.999	19
715.026	-12
715.052	15
715.079	-9
715.106	7
715.133	-3
715.16	-6
715.187	-8
715.213	9
715.24	-21
715.267	-7
715.294	3
715.321	-15
715.347	-13
715.374	-20
715.401	-19
715.428	-13
715.455	-6
715.481	3
715.508	11
715.535	-2
715.562	28
715.588	2
715.615	-8
715.642	-7
715.669	7
715.695	-17
715.722	-7
715.749	4
715.776	13
715.802	-5
715.829	-12
715.856	-17
715.883	10
715.909	4
715.936	-13
715.963	0
715.99	-10
716.016	3
716.043	-17
716.07	-3
716.096	-9
716.123	1
716.15	-3
716.177	-5
716.203	2
716.23	4
716.257	-1
716.283	3
716.31	24
716.337	-8
716.363	-13
716.39	3
716.417	1
716.443	-10
716.47	7
716.497	2
716.523	-7
716.55	-7
716.577	4
716.603	1
716.63	5
716.657	27
716.683	-4
716.71	-9
716.737	3
716.763	5
716.79	10
716.817	-1
716.843	2
716.87	3
716.897	9
716.923	11
716.95	-4
716.976	-5
717.003	-1
717.03	-4
717.056	4
717.083	6
717.109	5
717.136	-5
717.163	1
717.189	4
717.216	-20
717.242	-6
717.269	-1
717.296	3
717.322	-1
717.349	-3
717.375	4
717.402	-5
717.428	-4
717.455	3
717.481	17
717.508	14
717.535	10
717.561	6
717.588	-9
717.614	-4
717.641	1
717.667	-2
717.694	-6
717.72	-13
717.747	1
717.773	-6
717.8	6
717.826	7
717.853	4
717.88	3
717.906	13
717.933	14
717.959	8
717.986	5
718.012	5
718.039	6
718.065	10
718.092	-2
718.118	-26
718.144	-15
718.171	13
718.197	7
718.224	-3
718.25	2
718.277	5
718.303	-9
718.33	-13
718.356	-10
718.383	-4
718.409	5
718.436	10
718.462	-1
718.489	4
718.515	14
718.541	-3
718.568	15
718.594	21
718.621	2
718.647	7
718.674	7
718.7	10
718.726	-3
718.753	-3
718.779	10
718.806	-7
718.832	-2
718.858	7
718.885	-6
718.911	0
718.938	1
718.964	-10
718.99	11
719.017	25
719.043	6
719.07	17
719.096	-23
719.122	-1
719.149	0
719.175	4
719.201	-2
719.228	-5
719.254	-1
719.281	-9
719.307	-1
719.333	1
719.36	6
719.386	3
719.412	0
719.439	8
719.465	1
719.491	2
719.518	-5
719.544	-7
719.57	1
719.597	-3
719.623	-7
719.649	7
719.675	-1
719.702	-6
719.728	16
719.754	-4
719.781	5
719.807	-3
719.833	0
719.86	-5
719.886	3
719.912	1
719.938	-13
719.965	-14
719.991	12
720.017	2
720.044	-18
720.07	7
720.096	-4
720.122	7
720.149	16
720.175	18
720.201	6
720.227	-13
720.254	-5
720.28	-9
720.306	-4
720.332	8
720.359	-4
720.385	3
720.411	-12
720.437	18
720.463	2
720.49	2
720.516	1
720.542	-12
720.568	-8
720.595	3
720.621	-12
720.647	-4
720.673	13
720.699	-1
720.725	-3
720.752	-2
720.778	5
720.804	1
720.83	13
720.856	-12
720.883	-25
720.909	-3
720.935	13
720.961	23
720.987	21
721.013	13
721.04	1
721.066	-3
721.092	11
721.118	13
721.144	5
721.17	10
721.196	0
721.223	-5
721.249	-5
721.275	14
721.301	-2
721.327	-11
721.353	8
721.379	-3
721.405	11
721.432	18
721.458	5
721.484	8
721.51	-8
721.536	3
721.562	8
721.588	3
721.614	-10
721.64	-3
721.666	-9
721.693	-7
721.719	1
721.745	-9
721.771	-10
721.797	-7
721.823	25
721.849	14
721.875	14
721.901	14
721.927	1
721.953	0
721.979	2
722.005	15
722.031	2
722.057	-3
722.083	-2
722.109	-5
722.135	-6
722.161	-2
722.187	2
722.214	1
722.24	-1
722.266	-6
722.292	12
722.318	16
722.344	10
722.37	-8
722.396	14
722.422	-8
722.448	4
722.474	-5
722.5	7
722.526	11
722.552	-2
722.578	1
722.603	21
722.629	-2
722.655	-4
722.681	-17
722.707	-5
722.733	-1
722.759	-10
722.785	-2
722.811	7
722.837	6
722.863	18
722.889	5
722.915	-2
722.941	-9
722.967	-7
722.993	3
723.019	9
723.045	-12
723.071	6
723.097	8
723.122	4
723.148	-21
723.174	2
723.2	2
723.226	-5
723.252	0
723.278	-12
723.304	-4
723.33	-1
723.356	10
723.381	-13
723.407	-6
723.433	4
723.459	-11
723.485	4
723.511	9
723.537	-9
723.563	7
723.588	0
723.614	-2
723.64	-6
723.666	-1
723.692	8
723.718	-6
723.744	-7
723.769	-5
723.795	3
723.821	-3
723.847	-12
723.873	-4
723.899	-7
723.924	5
723.95	15
723.976	-2
724.002	-13
724.028	-5
724.053	-8
724.079	1
724.105	-3
724.131	4
724.157	7
724.182	-4
724.208	-4
724.234	0
724.26	0
724.286	2
724.311	-3
724.337	-15
724.363	-11
724.389	3
724.415	1
724.44	12
724.466	12
724.492	6
724.518	-9
724.543	-5
724.569	-1
724.595	-1
724.621	-2
724.646	5
724.672	-19
724.698	0
724.723	2
724.749	6
724.775	5
724.801	2
724.826	-19
724.852	-10
724.878	-3
724.904	-18
724.929	-10
724.955	-13
724.981	-8
725.006	-12
725.032	-11
725.058	10
725.083	1
725.109	7
725.135	-10
725.161	4
725.186	-13
725.212	-2
725.238	-9
725.263	4
725.289	-19
725.315	-2
725.34	1
725.366	26
725.392	6
725.417	21
725.443	-4
725.468	10
725.494	2
725.52	6
725.545	-3
725.571	-13
725.597	-13
725.622	-9
725.648	-3
725.674	12
725.699	-4
725.725	-3
725.75	17
725.776	-5
725.802	-1
725.827	1
725.853	-3
725.878	13
725.904	5
725.93	7
725.955	5
725.981	0
726.006	4
726.032	16
726.057	2
726.083	9
726.109	23
726.134	6
726.16	-10
726.185	-3
726.211	0
726.236	-9
726.262	5
726.288	3
726.313	16
726.339	-5
726.364	8
726.39	16
726.415	5
726.441	-4
726.466	-16
726.492	-4
726.517	-3
726.543	1
726.568	-2
726.594	0
726.619	6
726.645	11
726.67	1
726.696	5
726.721	6
726.747	-19
726.772	3
726.798	-5
726.823	5
726.849	-1
726.874	7
726.9	15
726.925	-2
726.951	-8
726.976	17
727.002	-7
727.027	-4
727.053	7
727.078	-11
727.104	11
727.129	-12
727.155	4
727.18	10
727.205	-3
727.231	2
727.256	1
727.282	5
727.307	2
727.333	2
727.358	8
727.383	-11
727.409	-11
727.434	16
727.46	12
727.485	2
727.511	9
727.536	-10
727.561	-17
727.587	-8
727.612	3
727.637	4
727.663	-6
727.688	19
727.714	8
727.739	-2
727.764	7
727.79	-4
727.815	-8
727.841	3
727.866	5
727.891	13
727.917	-6
727.942	-8
727.967	-6
727.993	-31
728.018	-12
728.043	6
728.069	19
728.094	13
728.119	5
728.145	17
728.17	2
728.195	1
728.221	1
728.246	-10
728.271	-6
728.297	3
728.322	11
728.347	1
728.373	4
728.398	2
728.423	-3
728.448	-14
728.474	-3
728.499	11
728.524	-5
728.55	-20
728.575	3
728.6	4
728.625	-5
728.651	-3
728.676	4
728.701	-11
728.727	-10
728.752	-11
728.777	-3
728.802	18
728.828	2
728.853	3
728.878	-5
728.903	-3
728.929	2
728.954	1
728.979	5
729.004	4
729.03	2
729.055	17
729.08	-10
729.105	-15
729.13	-3
729.156	10
729.181	3
729.206	-11
729.231	-5
729.256	-3
729.282	2
729.307	-8
729.332	-13
729.357	-14
729.382	-1
729.408	5
729.433	9
729.458	9
729.483	2
729.508	13
729.533	-5
729.559	10
729.584	-11
729.609	8
729.634	12
729.659	-5
729.684	6
729.71	30
729.735	-19
729.76	-8
729.785	-1
729.81	10
729.835	-14
729.86	-7
729.886	3
729.911	-5
729.936	3
729.961	1
729.986	-11
730.011	-5
730.036	3
730.061	-3
730.086	2
730.112	15
730.137	6
730.162	2
730.187	-19
730.212	10
730.237	4
730.262	6
730.287	-3
730.312	8
730.337	3
730.362	22
730.387	3
730.413	-4
730.438	-2
730.463	3
730.488	1
730.513	11
730.538	-2
730.563	5
730.588	2
730.613	-4
730.638	-9
730.663	3
730.688	5
730.713	9
730.738	18
730.763	12
730.788	-4
730.813	11
730.838	17
730.863	2
730.888	-6
730.913	-14
730.938	-7
730.963	5
730.988	-6
731.013	2
731.038	-17
731.063	-5
731.088	6
731.113	-10
731.138	-6
731.163	-2
731.188	5
731.213	10
731.238	7
731.263	3
731.288	1
731.313	6
731.338	-2
731.363	2
731.388	14
731.413	7
731.438	27
731.463	-1
731.487	5
731.512	3
731.537	5
731.562	-2
731.587	10
731.612	-2
731.637	-1
731.662	-2
731.687	-12
731.712	-25
731.737	1
731.762	1
731.786	7
731.811	-4
731.836	-5
731.861	-2
731.886	-11
731.911	3
731.936	11
731.961	-3
731.986	-14
732.01	6
732.035	10
732.06	13
732.085	0
732.11	3
732.135	6
732.16	-2
732.184	3
732.209	9
732.234	18
732.259	-5
732.284	13
732.309	-3
732.334	-3
732.358	-17
732.383	-19
732.408	9
732.433	-2
732.458	8
732.482	-3
732.507	-10
732.532	-18
732.557	20
732.582	5
732.607	2
732.631	-21
732.656	-15
732.681	-5
732.706	3
732.73	-7
732.755	0
732.78	4
732.805	0
732.83	-3
732.854	1
732.879	18
732.904	11
732.929	-12
732.953	1
732.978	4
733.003	-2
733.028	-4
733.052	5
733.077	1
733.102	-1
733.127	1
733.151	-2
733.176	8
733.201	-3
733.226	-6
733.25	9
733.275	4
733.3	-10
733.324	1
733.349	-15
733.374	21
733.399	-7
733.423	1
733.448	-3
733.473	0
733.497	1
733.522	4
733.547	21
733.571	9
733.596	2
733.621	-4
733.646	9
733.67	-2
733.695	-22
733.72	-8
733.744	-6
733.769	-9
733.794	4
733.818	-6
733.843	4
733.867	-11
733.892	-5
733.917	3
733.941	1
733.966	-10
733.991	-4
734.015	-8
734.04	-6
734.065	17
734.089	5
734.114	-8
734.138	14
734.163	-4
734.188	10
734.212	18
734.237	-5
734.261	6
734.286	3
734.311	-6
734.335	5
734.36	-10
734.384	11
734.409	14
734.434	-13
734.458	5
734.483	-8
734.507	-14
734.532	-3
734.556	-5
734.581	-12
734.606	1
734.63	-12
734.655	-4
734.679	-7
734.704	7
734.728	-7
734.753	0
734.777	-6
734.802	7
734.826	-2
734.851	7
734.876	11
734.9	19
734.925	13
734.949	3
734.974	5
734.998	-6
735.023	-1
735.047	-19
735.072	20
735.096	2
735.121	7
735.145	-2
735.17	-10
735.194	-2
735.219	-6
735.243	5
735.268	-9
735.292	-7
735.317	-8
735.341	3
735.365	-14
735.39	3
735.414	-12
735.439	2
735.463	-4
735.488	16
735.512	2
735.537	5
735.561	-10
735.586	1
735.61	3
735.634	6
735.659	7
735.683	7
735.708	-16
735.732	-10
735.757	-2
735.781	-5
735.805	10
735.83	-10
735.854	-2
735.879	-8
735.903	-1
735.927	-3
735.952	3
735.976	-4
736.001	0
736.025	10
736.049	0
736.074	3
736.098	-7
736.123	4
736.147	-5
736.171	-7
736.196	-1
736.22	-16
736.244	-2
736.269	3
736.293	-14
736.317	2
736.342	10
736.366	16
736.39	10
736.415	9
736.439	-9
736.463	-3
736.488	4
736.512	-4
736.536	6
736.561	23
736.585	-9
736.609	4
736.634	-14
736.658	-11
736.682	-19
736.707	-5
736.731	-10
736.755	-2
736.78	5
736.804	1
736.828	3
736.852	-11
736.877	-3
736.901	8
736.925	-6
736.949	-1
736.974	-12
736.998	-2
737.022	8
737.047	-19
737.071	-8
737.095	20
737.119	13
737.144	2
737.168	4
737.192	-3
737.216	2
737.241	-3
737.265	-7
737.289	-9
737.313	3
737.337	-6
737.362	7
737.386	15
737.41	5
737.434	13
737.459	5
737.483	-3
737.507	14
737.531	3
737.555	19
737.58	23
737.604	0
737.628	-5
737.652	-3
737.676	-8
737.701	2
737.725	7
737.749	11
737.773	-3
737.797	1
737.821	3
737.846	-13
737.87	13
737.894	-18
737.918	-7
737.942	2
737.966	28
737.99	15
738.015	-5
738.039	3
738.063	-15
738.087	13
738.111	-6
738.135	4
738.159	-8
738.184	-6
738.208	-4
738.232	20
738.256	11
738.28	11
738.304	8
738.328	-15
738.352	1
738.376	-8
738.4	-11
738.425	-9
738.449	-19
738.473	15
738.497	-8
738.521	-1
738.545	12
738.569	12
738.593	23
738.617	6
738.641	-5
738.665	-1
738.689	7
738.713	-2
738.737	5
738.762	25
738.786	1
738.81	-2
738.834	-2
738.858	-14
738.882	8
738.906	-3
738.93	0
738.954	-7
738.978	1
739.002	-10
739.026	5
739.05	15
739.074	-5
739.098	23
739.122	25
739.146	13
739.17	18
739.194	5
739.218	-3
739.242	5
739.266	3
739.29	18
739.314	-11
739.338	-12
739.362	-19
739.386	13
739.41	2
739.434	-5
739.458	1
739.482	2
739.506	16
739.53	-7
739.554	6
739.577	-11
739.601	1
739.625	-9
739.649	-8
739.673	-11
739.697	9
739.721	1
739.745	0
739.769	4
739.793	6
739.817	13
739.841	-4
739.865	-1
739.889	-18
739.912	1
739.936	-17
739.96	-1
739.984	-8
740.008	-18
740.032	-22
740.056	-7
740.08	-5
740.104	-7
740.127	7
740.151	-1
740.175	17
740.199	2
740.223	30
740.247	2
740.271	12
740.295	-7
740.318	-17
740.342	8
740.366	-1
740.39	-1
740.414	-3
740.438	-5
740.461	13
740.485	8
740.509	-4
740.533	5
740.557	-5
740.581	5
740.604	-15
740.628	1
740.652	-1
740.676	-4
740.7	1
740.723	4
740.747	-10
740.771	-11
740.795	3
740.819	10
740.842	-10
740.866	21
740.89	17
740.914	1
740.938	-11
740.961	10
740.985	3
741.009	-13
741.033	14
741.056	6
741.08	-1
741.104	-15
741.128	6
741.151	1
741.175	-18
741.199	2
741.223	2
741.246	-3
741.27	1
741.294	1
741.318	-19
741.341	-18
741.365	5
741.389	0
741.413	-1
741.436	5
741.46	1
741.484	-2
741.507	2
741.531	21
741.555	2
741.579	-3
741.602	5
741.626	7
741.65	3
741.673	2
741.697	9
741.721	0
741.744	-17
741.768	-4
741.792	12
741.815	-9
741.839	6
741.863	13
741.886	12
741.91	6
741.934	5
741.957	-13
741.981	9
742.005	-9
742.028	-7
742.052	-9
742.075	7
742.099	4
742.123	-7
742.146	1
742.17	-9
742.194	-26
742.217	-8
742.241	-5
742.264	-14
742.288	15
742.312	-4
742.335	4
742.359	9
742.382	20
742.406	16
742.43	-5
742.453	-3
742.477	-14
742.5	-4
742.524	2
742.548	-3
742.571	-11
742.595	-3
742.618	-17
742.642	-2
742.665	6
742.689	-6
742.712	4
742.736	-9
742.76	-10
742.783	-7
742.807	-5
742.83	12
742.854	-19
742.877	-4
742.901	5
742.924	-10
742.948	-7
742.971	2
742.995	-7
743.018	-15
743.042	-7
743.065	1
743.089	-2
743.112	1
743.136	-2
743.159	-2
743.183	-22
743.206	5
743.23	-6
743.253	13
743.277	4
743.3	-5
743.324	-6
743.347	-7
743.371	17
743.394	4
743.418	14
743.441	8
743.465	-5
743.488	-11
743.512	-15
743.535	5
743.558	-1
743.582	-10
743.605	1
743.629	2
743.652	7
743.676	-8
743.699	13
743.723	8
743.746	11
743.769	4
743.793	12
743.816	-4
743.84	6
743.863	-2
743.886	6
743.91	1
743.933	12
743.957	4
743.98	3
744.003	4
744.027	16
744.05	6
744.074	4
744.097	-12
744.12	3
744.144	-3
744.167	11
744.19	-2
744.214	4
744.237	-11
744.26	13
744.284	1
744.307	1
744.331	-1
744.354	-12
744.377	-14
744.401	5
744.424	-2
744.447	-3
744.471	-18
