Data from HighRes_H2D2_15_04_11_07_2024_HR4C61891__77__15-05-42-142.txt Node

Date: Thu Nov 07 15:05:42 EST 2024
User: crc00042
Spectrometer: HR4C6189
Trigger mode: 4
Integration Time (sec): 1.000000E-1
Scans to average: 1
Electric dark correction enabled: true
Nonlinearity correction enabled: false
Boxcar width: 0
XAxis mode: Wavelengths
Number of Pixels in Spectrum: 3648
>>>>>Begin Spectral Data<<<<<
639.567	-37.77
639.602	-37.77
639.636	-37.77
639.67	-37.77
639.704	-18.77
639.738	4.23
639.773	5.23
639.807	-11.77
639.841	-8.77
639.875	9.23
639.909	7.23
639.943	-7.77
639.978	6.23
640.012	11.23
640.046	3.23
640.08	-2.77
640.114	-0.77
640.148	-14.77
640.182	-0.77
640.217	-6.77
640.251	-7.77
640.285	-5.77
640.319	-8.77
640.353	5.23
640.387	16.23
640.421	6.23
640.455	-27.77
640.49	-9.77
640.524	0.23
640.558	0.23
640.592	7.23
640.626	5.23
640.66	-0.77
640.694	-5.77
640.728	2.23
640.762	3.23
640.796	20.23
640.83	21.23
640.865	-20.77
640.899	-14.77
640.933	-5.77
640.967	-5.77
641.001	8.23
641.035	1.23
641.069	4.23
641.103	-11.77
641.137	-11.77
641.171	-20.77
641.205	-5.77
641.239	4.23
641.273	5.23
641.307	7.23
641.341	-5.77
641.375	-6.77
641.409	-22.77
641.443	-3.77
641.477	-6.77
641.511	7.23
641.545	-2.77
641.579	-8.77
641.614	-6.77
641.648	-0.77
641.682	-2.77
641.716	12.23
641.75	14.23
641.784	0.23
641.818	1.23
641.852	10.23
641.886	-7.77
641.919	22.23
641.953	6.23
641.987	-18.77
642.021	-0.77
642.055	-5.77
642.089	-3.77
642.123	-6.77
642.157	-9.77
642.191	-20.77
642.225	-3.77
642.259	-8.77
642.293	2.23
642.327	-16.77
642.361	-9.77
642.395	9.23
642.429	9.23
642.463	3.23
642.497	17.23
642.531	-7.77
642.565	-16.77
642.599	6.23
642.633	-1.77
642.666	-1.77
642.7	11.23
642.734	4.23
642.768	-10.77
642.802	2.23
642.836	4.23
642.87	-6.77
642.904	1.23
642.938	13.23
642.972	1.23
643.005	5.23
643.039	14.23
643.073	9.23
643.107	8.23
643.141	-9.77
643.175	6.23
643.209	-20.77
643.243	-5.77
643.276	-11.77
643.31	-23.77
643.344	-19.77
643.378	-24.77
643.412	12.23
643.446	8.23
643.48	-14.77
643.513	14.23
643.547	7.23
643.581	-2.77
643.615	-0.77
643.649	-2.77
643.683	14.23
643.716	-4.77
643.75	5.23
643.784	-19.77
643.818	13.23
643.852	4.23
643.886	13.23
643.919	7.23
643.953	-16.77
643.987	-17.77
644.021	-5.77
644.055	10.23
644.088	-20.77
644.122	1.23
644.156	-3.77
644.19	4.23
644.224	0.23
644.257	5.23
644.291	10.23
644.325	4.23
644.359	-30.77
644.392	7.23
644.426	-1.77
644.46	2.23
644.494	2.23
644.527	-8.77
644.561	6.23
644.595	8.23
644.629	9.23
644.662	-0.77
644.696	15.23
644.73	-2.77
644.764	-11.77
644.797	-8.77
644.831	10.23
644.865	10.23
644.899	-3.77
644.932	32.23
644.966	2.23
645	8.23
645.033	4.23
645.067	-0.77
645.101	9.23
645.135	4.23
645.168	3.23
645.202	-9.77
645.236	2.23
645.269	-3.77
645.303	-17.77
645.337	-17.77
645.37	-5.77
645.404	-5.77
645.438	-9.77
645.471	-5.77
645.505	10.23
645.539	6.23
645.572	-10.77
645.606	2.23
645.64	7.23
645.673	-1.77
645.707	11.23
645.741	-8.77
645.774	-6.77
645.808	5.23
645.842	-17.77
645.875	-17.77
645.909	-4.77
645.943	-1.77
645.976	1.23
646.01	6.23
646.043	-7.77
646.077	18.23
646.111	1.23
646.144	11.23
646.178	9.23
646.212	-17.77
646.245	6.23
646.279	-2.77
646.312	7.23
646.346	1.23
646.38	11.23
646.413	8.23
646.447	-13.77
646.48	-9.77
646.514	8.23
646.547	-12.77
646.581	0.23
646.615	-1.77
646.648	-16.77
646.682	10.23
646.715	2.23
646.749	5.23
646.782	0.23
646.816	-4.77
646.85	5.23
646.883	-10.77
646.917	-5.77
646.95	-2.77
646.984	-6.77
647.017	1.23
647.051	2.23
647.084	2.23
647.118	-3.77
647.151	0.23
647.185	12.23
647.218	-9.77
647.252	6.23
647.285	-30.77
647.319	-18.77
647.353	3.23
647.386	12.23
647.42	7.23
647.453	4.23
647.487	3.23
647.52	16.23
647.553	7.23
647.587	10.23
647.62	-9.77
647.654	-1.77
647.687	-3.77
647.721	-0.77
647.754	5.23
647.788	4.23
647.821	4.23
647.855	15.23
647.888	-11.77
647.922	1.23
647.955	19.23
647.989	7.23
648.022	-0.77
648.055	6.23
648.089	-0.77
648.122	10.23
648.156	-7.77
648.189	4.23
648.223	1.23
648.256	15.23
648.29	14.23
648.323	8.23
648.356	6.23
648.39	1.23
648.423	-1.77
648.457	-9.77
648.49	2.23
648.523	11.23
648.557	4.23
648.59	-5.77
648.624	-0.77
648.657	9.23
648.69	22.23
648.724	13.23
648.757	28.23
648.791	13.23
648.824	-3.77
648.857	4.23
648.891	-5.77
648.924	-3.77
648.957	9.23
648.991	-3.77
649.024	12.23
649.057	-1.77
649.091	-0.77
649.124	2.23
649.158	5.23
649.191	15.23
649.224	0.23
649.258	-0.77
649.291	-4.77
649.324	-2.77
649.358	-5.77
649.391	8.23
649.424	3.23
649.458	0.23
649.491	6.23
649.524	5.23
649.557	2.23
649.591	-0.77
649.624	11.23
649.657	-3.77
649.691	15.23
649.724	9.23
649.757	0.23
649.791	7.23
649.824	16.23
649.857	7.23
649.89	-3.77
649.924	-20.77
649.957	2.23
649.99	-23.77
650.023	0.23
650.057	-8.77
650.09	6.23
650.123	-5.77
650.157	12.23
650.19	10.23
650.223	-1.77
650.256	-1.77
650.29	-15.77
650.323	-9.77
650.356	2.23
650.389	1.23
650.423	-10.77
650.456	17.23
650.489	12.23
650.522	12.23
650.555	9.23
650.589	7.23
650.622	-10.77
650.655	9.23
650.688	11.23
650.721	-4.77
650.755	7.23
650.788	15.23
650.821	3.23
650.854	-4.77
650.887	-2.77
650.921	3.23
650.954	0.23
650.987	-11.77
651.02	-2.77
651.053	-1.77
651.087	-0.77
651.12	29.23
651.153	3.23
651.186	1.23
651.219	2.23
651.252	9.23
651.286	17.23
651.319	-0.77
651.352	-7.77
651.385	2.23
651.418	9.23
651.451	11.23
651.484	-1.77
651.518	-18.77
651.551	5.23
651.584	-10.77
651.617	29.23
651.65	-4.77
651.683	12.23
651.716	-7.77
651.749	6.23
651.783	4.23
651.816	7.23
651.849	7.23
651.882	10.23
651.915	2.23
651.948	-3.77
651.981	-14.77
652.014	-19.77
652.047	-2.77
652.08	-16.77
652.114	-16.77
652.147	-15.77
652.18	7.23
652.213	21.23
652.246	-3.77
652.279	-9.77
652.312	7.23
652.345	2.23
652.378	19.23
652.411	0.23
652.444	-6.77
652.477	-11.77
652.51	-10.77
652.543	-1.77
652.576	2.23
652.609	-2.77
652.642	7.23
652.675	21.23
652.709	3.23
652.742	2.23
652.775	-3.77
652.808	-8.77
652.841	-3.77
652.874	6.23
652.907	-3.77
652.94	2.23
652.973	-11.77
653.006	-8.77
653.039	-9.77
653.072	-0.77
653.105	1.23
653.138	-11.77
653.171	-17.77
653.204	-2.77
653.237	-5.77
653.27	-6.77
653.303	0.23
653.336	6.23
653.368	0.23
653.401	-1.77
653.434	11.23
653.467	-2.77
653.5	-22.77
653.533	-20.77
653.566	10.23
653.599	5.23
653.632	-7.77
653.665	7.23
653.698	-13.77
653.731	-4.77
653.764	6.23
653.797	-1.77
653.83	10.23
653.863	6.23
653.896	8.23
653.929	7.23
653.961	11.23
653.994	8.23
654.027	-19.77
654.06	8.23
654.093	-0.77
654.126	2.23
654.159	-12.77
654.192	11.23
654.225	-1.77
654.258	5.23
654.29	1.23
654.323	2.23
654.356	2.23
654.389	1.23
654.422	6.23
654.455	3.23
654.488	6.23
654.521	-14.77
654.553	-14.77
654.586	4.23
654.619	13.23
654.652	15.23
654.685	0.23
654.718	11.23
654.751	9.23
654.783	6.23
654.816	19.23
654.849	0.23
654.882	-21.77
654.915	-18.77
654.948	-9.77
654.98	-11.77
655.013	-2.77
655.046	9.23
655.079	-13.77
655.112	-11.77
655.144	-4.77
655.177	5.23
655.21	14.23
655.243	13.23
655.276	8.23
655.308	-16.77
655.341	1.23
655.374	0.23
655.407	-0.77
655.44	-11.77
655.472	20.23
655.505	5.23
655.538	-17.77
655.571	8.23
655.603	5.23
655.636	-8.77
655.669	11.23
655.702	1.23
655.734	-11.77
655.767	-6.77
655.8	1.23
655.833	5.23
655.865	13.23
655.898	5.23
655.931	4.23
655.964	9.23
655.996	-0.77
656.029	25.23
656.062	28.23
656.095	32.23
656.127	77.23
656.16	198.23
656.193	622.23
656.225	977.23
656.258	558.23
656.291	207.23
656.324	180.23
656.356	342.23
656.389	769.23
656.422	678.23
656.454	229.23
656.487	85.23
656.52	24.23
656.552	24.23
656.585	12.23
656.618	31.23
656.65	5.23
656.683	-5.77
656.716	5.23
656.748	6.23
656.781	-6.77
656.814	-11.77
656.846	9.23
656.879	-10.77
656.912	-10.77
656.944	-14.77
656.977	-0.77
657.01	-0.77
657.042	2.23
657.075	17.23
657.108	7.23
657.14	2.23
657.173	13.23
657.205	26.23
657.238	4.23
657.271	1.23
657.303	-17.77
657.336	1.23
657.369	-0.77
657.401	18.23
657.434	10.23
657.466	-2.77
657.499	-16.77
657.532	-3.77
657.564	9.23
657.597	-4.77
657.629	4.23
657.662	0.23
657.694	-0.77
657.727	-16.77
657.76	11.23
657.792	-4.77
657.825	-5.77
657.857	-9.77
657.89	-11.77
657.922	13.23
657.955	2.23
657.987	4.23
658.02	-5.77
658.053	13.23
658.085	5.23
658.118	15.23
658.15	3.23
658.183	3.23
658.215	0.23
658.248	-0.77
658.28	-2.77
658.313	24.23
658.345	1.23
658.378	-13.77
658.41	-5.77
658.443	11.23
658.475	1.23
658.508	0.23
658.54	-9.77
658.573	-9.77
658.605	9.23
658.638	-3.77
658.67	2.23
658.703	9.23
658.735	1.23
658.768	-20.77
658.8	-2.77
658.833	6.23
658.865	-7.77
658.898	2.23
658.93	-10.77
658.963	0.23
658.995	0.23
659.028	-3.77
659.06	8.23
659.092	-10.77
659.125	-17.77
659.157	-3.77
659.19	0.23
659.222	-6.77
659.255	1.23
659.287	-6.77
659.32	-15.77
659.352	-12.77
659.384	-3.77
659.417	-3.77
659.449	6.23
659.482	-0.77
659.514	3.23
659.546	-10.77
659.579	-13.77
659.611	6.23
659.644	-2.77
659.676	-8.77
659.708	-20.77
659.741	-10.77
659.773	0.23
659.806	0.23
659.838	-2.77
659.87	-4.77
659.903	9.23
659.935	5.23
659.967	7.23
660	-9.77
660.032	-34.77
660.065	8.23
660.097	2.23
660.129	-8.77
660.162	1.23
660.194	5.23
660.226	9.23
660.259	12.23
660.291	-17.77
660.323	-11.77
660.356	-11.77
660.388	-3.77
660.42	-12.77
660.453	12.23
660.485	13.23
660.517	20.23
660.55	21.23
660.582	2.23
660.614	7.23
660.647	-11.77
660.679	-12.77
660.711	6.23
660.743	-15.77
660.776	-13.77
660.808	-15.77
660.84	-15.77
660.873	-15.77
660.905	-2.77
660.937	-1.77
660.969	3.23
661.002	-6.77
661.034	8.23
661.066	-11.77
661.099	2.23
661.131	5.23
661.163	-1.77
661.195	6.23
661.228	28.23
661.26	4.23
661.292	3.23
661.324	3.23
661.357	16.23
661.389	3.23
661.421	5.23
661.453	-6.77
661.485	-9.77
661.518	8.23
661.55	-14.77
661.582	-8.77
661.614	-3.77
661.647	5.23
661.679	3.23
661.711	4.23
661.743	-1.77
661.775	6.23
661.808	6.23
661.84	-10.77
661.872	-12.77
661.904	2.23
661.936	-0.77
661.969	-5.77
662.001	-6.77
662.033	6.23
662.065	-4.77
662.097	14.23
662.129	2.23
662.162	-9.77
662.194	2.23
662.226	6.23
662.258	4.23
662.29	-12.77
662.322	-14.77
662.355	-13.77
662.387	3.23
662.419	-8.77
662.451	2.23
662.483	9.23
662.515	-8.77
662.547	2.23
662.58	-0.77
662.612	-2.77
662.644	-8.77
662.676	-0.77
662.708	14.23
662.74	-2.77
662.772	-9.77
662.804	-4.77
662.836	5.23
662.869	-17.77
662.901	19.23
662.933	-7.77
662.965	16.23
662.997	8.23
663.029	-11.77
663.061	-17.77
663.093	-5.77
663.125	2.23
663.157	3.23
663.189	3.23
663.221	15.23
663.254	-7.77
663.286	-6.77
663.318	4.23
663.35	-18.77
663.382	-4.77
663.414	13.23
663.446	8.23
663.478	-17.77
663.51	31.23
663.542	-4.77
663.574	-1.77
663.606	7.23
663.638	-12.77
663.67	-7.77
663.702	-12.77
663.734	9.23
663.766	8.23
663.798	-6.77
663.83	3.23
663.862	-0.77
663.894	9.23
663.926	1.23
663.958	-4.77
663.99	-13.77
664.022	-0.77
664.054	7.23
664.086	-9.77
664.118	-17.77
664.15	-13.77
664.182	16.23
664.214	-5.77
664.246	16.23
664.278	-7.77
664.31	17.23
664.342	21.23
664.374	-9.77
664.406	-13.77
664.438	-9.77
664.47	10.23
664.502	-6.77
664.534	2.23
664.566	-0.77
664.598	1.23
664.63	-6.77
664.662	6.23
664.693	6.23
664.725	-13.77
664.757	7.23
664.789	-15.77
664.821	10.23
664.853	13.23
664.885	-1.77
664.917	6.23
664.949	14.23
664.981	8.23
665.013	-7.77
665.045	-19.77
665.076	-12.77
665.108	-5.77
665.14	-11.77
665.172	-10.77
665.204	-3.77
665.236	6.23
665.268	18.23
665.3	-10.77
665.331	-14.77
665.363	2.23
665.395	-15.77
665.427	-13.77
665.459	-1.77
665.491	-17.77
665.523	-1.77
665.555	-3.77
665.586	-3.77
665.618	0.23
665.65	-22.77
665.682	13.23
665.714	-4.77
665.746	-12.77
665.777	-5.77
665.809	-9.77
665.841	10.23
665.873	-5.77
665.905	9.23
665.937	0.23
665.968	2.23
666	-4.77
666.032	10.23
666.064	-9.77
666.096	-5.77
666.127	-3.77
666.159	2.23
666.191	11.23
666.223	-2.77
666.255	-3.77
666.286	-1.77
666.318	-17.77
666.35	12.23
666.382	10.23
666.413	7.23
666.445	-9.77
666.477	-38.77
666.509	-4.77
666.54	-0.77
666.572	-1.77
666.604	-3.77
666.636	-8.77
666.667	2.23
666.699	0.23
666.731	3.23
666.763	-5.77
666.794	11.23
666.826	7.23
666.858	-17.77
666.89	4.23
666.921	-5.77
666.953	-8.77
666.985	5.23
667.017	21.23
667.048	13.23
667.08	6.23
667.112	-3.77
667.143	-3.77
667.175	-3.77
667.207	2.23
667.238	13.23
667.27	-9.77
667.302	-11.77
667.334	0.23
667.365	19.23
667.397	6.23
667.429	-8.77
667.46	23.23
667.492	8.23
667.524	-18.77
667.555	-5.77
667.587	8.23
667.619	-13.77
667.65	-14.77
667.682	2.23
667.714	-4.77
667.745	-2.77
667.777	-11.77
667.808	9.23
667.84	14.23
667.872	5.23
667.903	14.23
667.935	4.23
667.967	2.23
667.998	1.23
668.03	-11.77
668.061	-8.77
668.093	-5.77
668.125	6.23
668.156	12.23
668.188	6.23
668.22	2.23
668.251	22.23
668.283	6.23
668.314	20.23
668.346	-9.77
668.377	3.23
668.409	-11.77
668.441	7.23
668.472	-4.77
668.504	16.23
668.535	7.23
668.567	3.23
668.599	0.23
668.63	-13.77
668.662	-10.77
668.693	11.23
668.725	10.23
668.756	8.23
668.788	-3.77
668.819	21.23
668.851	6.23
668.882	0.23
668.914	-2.77
668.946	-2.77
668.977	-12.77
669.009	1.23
669.04	-16.77
669.072	14.23
669.103	-4.77
669.135	-16.77
669.166	2.23
669.198	-6.77
669.229	3.23
669.261	10.23
669.292	-12.77
669.324	4.23
669.355	5.23
669.387	3.23
669.418	12.23
669.45	-23.77
669.481	2.23
669.513	11.23
669.544	17.23
669.576	-12.77
669.607	15.23
669.639	12.23
669.67	-11.77
669.701	16.23
669.733	-16.77
669.764	5.23
669.796	-0.77
669.827	-3.77
669.859	-0.77
669.89	7.23
669.922	7.23
669.953	9.23
669.985	0.23
670.016	8.23
670.047	19.23
670.079	3.23
670.11	-2.77
670.142	4.23
670.173	-4.77
670.204	3.23
670.236	9.23
670.267	3.23
670.299	3.23
670.33	-6.77
670.362	7.23
670.393	-12.77
670.424	-4.77
670.456	-9.77
670.487	3.23
670.518	10.23
670.55	9.23
670.581	-3.77
670.613	7.23
670.644	-15.77
670.675	-4.77
670.707	0.23
670.738	-1.77
670.769	-18.77
670.801	-10.77
670.832	20.23
670.864	-12.77
670.895	-6.77
670.926	-3.77
670.958	-19.77
670.989	-19.77
671.02	-7.77
671.052	-0.77
671.083	-4.77
671.114	-8.77
671.146	9.23
671.177	0.23
671.208	-7.77
671.24	-7.77
671.271	5.23
671.302	-2.77
671.333	5.23
671.365	12.23
671.396	5.23
671.427	-2.77
671.459	-5.77
671.49	0.23
671.521	-12.77
671.553	7.23
671.584	-2.77
671.615	-9.77
671.646	-0.77
671.678	-7.77
671.709	-3.77
671.74	-13.77
671.771	-11.77
671.803	-6.77
671.834	12.23
671.865	10.23
671.896	3.23
671.928	16.23
671.959	4.23
671.99	-14.77
672.021	-3.77
672.053	-19.77
672.084	7.23
672.115	6.23
672.146	-10.77
672.178	-20.77
672.209	-6.77
672.24	-5.77
672.271	-3.77
672.303	8.23
672.334	5.23
672.365	-3.77
672.396	-8.77
672.427	5.23
672.459	6.23
672.49	20.23
672.521	2.23
672.552	6.23
672.583	-1.77
672.615	-6.77
672.646	4.23
672.677	-5.77
672.708	-1.77
672.739	-10.77
672.77	5.23
672.802	6.23
672.833	1.23
672.864	-6.77
672.895	-6.77
672.926	9.23
672.957	-3.77
672.989	-12.77
673.02	-3.77
673.051	-3.77
673.082	5.23
673.113	-1.77
673.144	-1.77
673.175	-10.77
673.206	-4.77
673.238	5.23
673.269	-13.77
673.3	-6.77
673.331	2.23
673.362	9.23
673.393	1.23
673.424	10.23
673.455	25.23
673.487	2.23
673.518	6.23
673.549	-3.77
673.58	2.23
673.611	12.23
673.642	11.23
673.673	-10.77
673.704	5.23
673.735	5.23
673.766	-20.77
673.797	-6.77
673.828	1.23
673.86	-19.77
673.891	-8.77
673.922	-13.77
673.953	-6.77
673.984	-1.77
674.015	-2.77
674.046	1.23
674.077	-0.77
674.108	1.23
674.139	-6.77
674.17	-3.77
674.201	-6.77
674.232	-13.77
674.263	1.23
674.294	-0.77
674.325	-10.77
674.356	10.23
674.387	21.23
674.418	7.23
674.449	-0.77
674.48	-15.77
674.511	-5.77
674.542	0.23
674.573	-13.77
674.604	5.23
674.635	1.23
674.666	11.23
674.697	4.23
674.728	-6.77
674.759	-9.77
674.79	-3.77
674.821	-9.77
674.852	-2.77
674.883	-9.77
674.914	-4.77
674.945	-6.77
674.976	1.23
675.007	0.23
675.038	-7.77
675.069	-13.77
675.1	7.23
675.131	5.23
675.162	-4.77
675.193	-5.77
675.224	-12.77
675.254	-9.77
675.285	4.23
675.316	2.23
675.347	-3.77
675.378	-8.77
675.409	-5.77
675.44	5.23
675.471	-6.77
675.502	-2.77
675.533	3.23
675.564	22.23
675.595	-5.77
675.625	24.23
675.656	0.23
675.687	9.23
675.718	-11.77
675.749	9.23
675.78	-0.77
675.811	-2.77
675.842	3.23
675.873	-5.77
675.903	4.23
675.934	-9.77
675.965	-5.77
675.996	10.23
676.027	21.23
676.058	1.23
676.089	-21.77
676.119	5.23
676.15	-4.77
676.181	-11.77
676.212	-8.77
676.243	0.23
676.274	-6.77
676.304	28.23
676.335	0.23
676.366	-6.77
676.397	-8.77
676.428	-3.77
676.459	-2.77
676.489	4.23
676.52	16.23
676.551	-3.77
676.582	-4.77
676.613	2.23
676.643	-2.77
676.674	2.23
676.705	11.23
676.736	8.23
676.767	16.23
676.797	19.23
676.828	-2.77
676.859	-7.77
676.89	4.23
676.92	2.23
676.951	17.23
676.982	7.23
677.013	-0.77
677.044	15.23
677.074	7.23
677.105	-7.77
677.136	-1.77
677.167	-0.77
677.197	12.23
677.228	-2.77
677.259	-2.77
677.289	9.23
677.32	-19.77
677.351	-9.77
677.382	-7.77
677.412	-17.77
677.443	3.23
677.474	-1.77
677.505	-5.77
677.535	1.23
677.566	-5.77
677.597	-4.77
677.627	-16.77
677.658	-7.77
677.689	-3.77
677.72	7.23
677.75	-13.77
677.781	-7.77
677.812	-4.77
677.842	6.23
677.873	0.23
677.904	-5.77
677.934	-0.77
677.965	1.23
677.996	-1.77
678.026	-0.77
678.057	-0.77
678.088	-1.77
678.118	-1.77
678.149	-2.77
678.18	-10.77
678.21	-4.77
678.241	-2.77
678.272	-6.77
678.302	2.23
678.333	12.23
678.363	7.23
678.394	10.23
678.425	-9.77
678.455	9.23
678.486	5.23
678.517	-3.77
678.547	3.23
678.578	-5.77
678.608	-19.77
678.639	0.23
678.67	-9.77
678.7	-14.77
678.731	-16.77
678.761	-10.77
678.792	-2.77
678.823	1.23
678.853	2.23
678.884	-11.77
678.914	10.23
678.945	-2.77
678.975	-7.77
679.006	5.23
679.037	3.23
679.067	19.23
679.098	1.23
679.128	-13.77
679.159	0.23
679.189	15.23
679.22	-0.77
679.25	5.23
679.281	-3.77
679.312	-1.77
679.342	-3.77
679.373	20.23
679.403	-5.77
679.434	3.23
679.464	3.23
679.495	-9.77
679.525	-9.77
679.556	2.23
679.586	7.23
679.617	2.23
679.647	-2.77
679.678	-7.77
679.708	-11.77
679.739	-15.77
679.769	-0.77
679.8	9.23
679.83	3.23
679.861	5.23
679.891	-7.77
679.922	-11.77
679.952	3.23
679.983	3.23
680.013	-12.77
680.044	-20.77
680.074	12.23
680.105	13.23
680.135	-4.77
680.165	14.23
680.196	8.23
680.226	3.23
680.257	5.23
680.287	6.23
680.318	4.23
680.348	-7.77
680.379	12.23
680.409	2.23
680.439	8.23
680.47	1.23
680.5	6.23
680.531	-5.77
680.561	-10.77
680.592	-0.77
680.622	15.23
680.652	-20.77
680.683	15.23
680.713	-17.77
680.744	3.23
680.774	-8.77
680.804	-5.77
680.835	6.23
680.865	-14.77
680.896	6.23
680.926	33.23
680.956	7.23
680.987	3.23
681.017	-7.77
681.047	-4.77
681.078	-3.77
681.108	3.23
681.139	1.23
681.169	-4.77
681.199	6.23
681.23	15.23
681.26	10.23
681.29	5.23
681.321	-13.77
681.351	10.23
681.381	-2.77
681.412	16.23
681.442	-3.77
681.472	-8.77
681.503	-3.77
681.533	10.23
681.563	9.23
681.594	-12.77
681.624	7.23
681.654	-3.77
681.685	8.23
681.715	-8.77
681.745	-4.77
681.775	-13.77
681.806	-5.77
681.836	5.23
681.866	-2.77
681.897	-1.77
681.927	-7.77
681.957	-13.77
681.987	-3.77
682.018	-0.77
682.048	-3.77
682.078	10.23
682.109	10.23
682.139	-1.77
682.169	10.23
682.199	-0.77
682.23	-1.77
682.26	4.23
682.29	-13.77
682.32	2.23
682.351	-9.77
682.381	-11.77
682.411	-12.77
682.441	-4.77
682.472	1.23
682.502	-3.77
682.532	-12.77
682.562	-4.77
682.592	-3.77
682.623	4.23
682.653	3.23
682.683	1.23
682.713	-8.77
682.743	-0.77
682.774	0.23
682.804	-3.77
682.834	11.23
682.864	-4.77
682.894	-7.77
682.925	4.23
682.955	-5.77
682.985	-4.77
683.015	1.23
683.045	5.23
683.076	-5.77
683.106	2.23
683.136	8.23
683.166	9.23
683.196	-3.77
683.226	-1.77
683.257	-4.77
683.287	-0.77
683.317	-8.77
683.347	1.23
683.377	-4.77
683.407	-2.77
683.437	-13.77
683.468	9.23
683.498	2.23
683.528	-11.77
683.558	-10.77
683.588	-5.77
683.618	-12.77
683.648	-4.77
683.678	-12.77
683.708	5.23
683.739	-7.77
683.769	2.23
683.799	-1.77
683.829	6.23
683.859	5.23
683.889	2.23
683.919	4.23
683.949	3.23
683.979	-8.77
684.009	-10.77
684.039	-5.77
684.07	-1.77
684.1	21.23
684.13	7.23
684.16	-1.77
684.19	-14.77
684.22	-3.77
684.25	8.23
684.28	-8.77
684.31	8.23
684.34	2.23
684.37	-1.77
684.4	-31.77
684.43	-13.77
684.46	-10.77
684.49	3.23
684.52	2.23
684.55	3.23
684.58	-7.77
684.61	10.23
684.64	10.23
684.67	18.23
684.7	-3.77
684.73	8.23
684.76	7.23
684.79	10.23
684.82	-7.77
684.85	-13.77
684.88	7.23
684.91	2.23
684.94	2.23
684.97	-15.77
685	6.23
685.03	-18.77
685.06	-7.77
685.09	-5.77
685.12	16.23
685.15	-10.77
685.18	-7.77
685.21	-3.77
685.24	16.23
685.27	24.23
685.3	-1.77
685.33	8.23
685.36	4.23
685.39	3.23
685.42	-4.77
685.45	5.23
685.48	-3.77
685.51	3.23
685.54	-5.77
685.569	12.23
685.599	-15.77
685.629	5.23
685.659	-20.77
685.689	-1.77
685.719	-4.77
685.749	2.23
685.779	3.23
685.809	4.23
685.839	0.23
685.869	-0.77
685.898	-8.77
685.928	5.23
685.958	7.23
685.988	1.23
686.018	3.23
686.048	17.23
686.078	8.23
686.108	6.23
686.137	14.23
686.167	5.23
686.197	-10.77
686.227	-4.77
686.257	16.23
686.287	20.23
686.317	4.23
686.346	5.23
686.376	-5.77
686.406	1.23
686.436	13.23
686.466	4.23
686.496	-3.77
686.525	1.23
686.555	-5.77
686.585	18.23
686.615	20.23
686.645	5.23
686.675	-2.77
686.704	16.23
686.734	2.23
686.764	4.23
686.794	-4.77
686.824	-8.77
686.853	2.23
686.883	14.23
686.913	17.23
686.943	3.23
686.973	-13.77
687.002	6.23
687.032	5.23
687.062	-10.77
687.092	16.23
687.121	-14.77
687.151	-2.77
687.181	-8.77
687.211	1.23
687.24	-2.77
687.27	-11.77
687.3	-7.77
687.33	9.23
687.359	-7.77
687.389	-1.77
687.419	-0.77
687.449	6.23
687.478	13.23
687.508	7.23
687.538	-1.77
687.568	7.23
687.597	-24.77
687.627	11.23
687.657	-2.77
687.686	4.23
687.716	14.23
687.746	-3.77
687.776	-11.77
687.805	-4.77
687.835	-14.77
687.865	20.23
687.894	14.23
687.924	12.23
687.954	4.23
687.983	-6.77
688.013	9.23
688.043	12.23
688.072	2.23
688.102	3.23
688.132	-10.77
688.161	0.23
688.191	-9.77
688.221	11.23
688.25	2.23
688.28	7.23
688.31	1.23
688.339	4.23
688.369	-9.77
688.399	-10.77
688.428	-4.77
688.458	-13.77
688.488	-13.77
688.517	5.23
688.547	-0.77
688.576	27.23
688.606	29.23
688.636	0.23
688.665	-6.77
688.695	-1.77
688.725	9.23
688.754	12.23
688.784	-2.77
688.813	13.23
688.843	10.23
688.873	2.23
688.902	-1.77
688.932	-7.77
688.961	-6.77
688.991	3.23
689.02	7.23
689.05	-5.77
689.08	-7.77
689.109	-4.77
689.139	-10.77
689.168	-0.77
689.198	7.23
689.227	-1.77
689.257	1.23
689.287	3.23
689.316	-2.77
689.346	3.23
689.375	-7.77
689.405	-4.77
689.434	-0.77
689.464	-3.77
689.493	7.23
689.523	-9.77
689.552	4.23
689.582	8.23
689.611	2.23
689.641	28.23
689.67	2.23
689.7	3.23
689.73	-0.77
689.759	3.23
689.789	12.23
689.818	14.23
689.848	1.23
689.877	21.23
689.906	-6.77
689.936	-4.77
689.965	17.23
689.995	4.23
690.024	12.23
690.054	-0.77
690.083	4.23
690.113	-3.77
690.142	7.23
690.172	4.23
690.201	-8.77
690.231	-0.77
690.26	10.23
690.29	-2.77
690.319	-3.77
690.348	2.23
690.378	14.23
690.407	7.23
690.437	13.23
690.466	4.23
690.496	-4.77
690.525	3.23
690.555	1.23
690.584	1.23
690.613	13.23
690.643	23.23
690.672	9.23
690.702	-4.77
690.731	-5.77
690.76	12.23
690.79	-8.77
690.819	-0.77
690.849	-4.77
690.878	-7.77
690.907	-8.77
690.937	15.23
690.966	5.23
690.996	-7.77
691.025	7.23
691.054	4.23
691.084	6.23
691.113	-9.77
691.142	-8.77
691.172	14.23
691.201	18.23
691.23	-0.77
691.26	9.23
691.289	0.23
691.319	-9.77
691.348	-11.77
691.377	13.23
691.407	-5.77
691.436	1.23
691.465	-3.77
691.495	-6.77
691.524	-17.77
691.553	-2.77
691.583	-3.77
691.612	18.23
691.641	-4.77
691.67	-10.77
691.7	-1.77
691.729	-5.77
691.758	2.23
691.788	6.23
691.817	-3.77
691.846	-0.77
691.876	-7.77
691.905	4.23
691.934	-5.77
691.963	20.23
691.993	3.23
692.022	2.23
692.051	-7.77
692.081	5.23
692.11	15.23
692.139	-1.77
692.168	-0.77
692.198	3.23
692.227	13.23
692.256	14.23
692.285	9.23
692.315	-4.77
692.344	10.23
692.373	-1.77
692.402	-10.77
692.432	-11.77
692.461	-4.77
692.49	0.23
692.519	6.23
692.548	13.23
692.578	5.23
692.607	-5.77
692.636	-14.77
692.665	10.23
692.694	6.23
692.724	0.23
692.753	6.23
692.782	3.23
692.811	-16.77
692.84	-8.77
692.87	5.23
692.899	-6.77
692.928	-4.77
692.957	9.23
692.986	26.23
693.016	15.23
693.045	7.23
693.074	2.23
693.103	-6.77
693.132	5.23
693.161	10.23
693.191	-11.77
693.22	-12.77
693.249	-10.77
693.278	-1.77
693.307	2.23
693.336	-7.77
693.365	-12.77
693.395	3.23
693.424	-4.77
693.453	13.23
693.482	4.23
693.511	15.23
693.54	13.23
693.569	6.23
693.598	-11.77
693.628	12.23
693.657	8.23
693.686	2.23
693.715	24.23
693.744	14.23
693.773	8.23
693.802	10.23
693.831	-13.77
693.86	7.23
693.889	-3.77
693.919	17.23
693.948	15.23
693.977	20.23
694.006	-2.77
694.035	-19.77
694.064	-7.77
694.093	-3.77
694.122	-2.77
694.151	2.23
694.18	6.23
694.209	35.23
694.238	-1.77
694.267	20.23
694.296	18.23
694.325	-6.77
694.354	15.23
694.383	-3.77
694.412	6.23
694.441	2.23
694.471	-1.77
694.5	-4.77
694.529	2.23
694.558	22.23
694.587	16.23
694.616	-6.77
694.645	-2.77
694.674	13.23
694.703	10.23
694.732	-0.77
694.761	3.23
694.79	16.23
694.819	-0.77
694.848	14.23
694.877	13.23
694.906	19.23
694.935	11.23
694.963	19.23
694.992	19.23
695.021	11.23
695.05	6.23
695.079	14.23
695.108	3.23
695.137	16.23
695.166	13.23
695.195	-5.77
695.224	3.23
695.253	6.23
695.282	-6.77
695.311	10.23
695.34	7.23
695.369	6.23
695.398	5.23
695.427	16.23
695.456	3.23
695.485	11.23
695.513	5.23
695.542	-6.77
695.571	11.23
695.6	26.23
695.629	9.23
695.658	11.23
695.687	-5.77
695.716	-3.77
695.745	15.23
695.774	3.23
695.802	1.23
695.831	11.23
695.86	17.23
695.889	3.23
695.918	1.23
695.947	-14.77
695.976	-5.77
696.005	1.23
696.033	3.23
696.062	7.23
696.091	-6.77
696.12	6.23
696.149	13.23
696.178	-0.77
696.207	19.23
696.235	-4.77
696.264	-1.77
696.293	2.23
696.322	5.23
696.351	10.23
696.38	-5.77
696.408	9.23
696.437	-6.77
696.466	4.23
696.495	5.23
696.524	-1.77
696.553	6.23
696.581	4.23
696.61	-1.77
696.639	-3.77
696.668	13.23
696.697	-10.77
696.725	21.23
696.754	-0.77
696.783	5.23
696.812	-2.77
696.84	3.23
696.869	7.23
696.898	-5.77
696.927	5.23
696.956	19.23
696.984	-9.77
697.013	-9.77
697.042	5.23
697.071	1.23
697.099	6.23
697.128	-2.77
697.157	6.23
697.186	4.23
697.214	-1.77
697.243	5.23
697.272	6.23
697.301	11.23
697.329	10.23
697.358	-1.77
697.387	15.23
697.415	8.23
697.444	-10.77
697.473	-10.77
697.502	-5.77
697.53	12.23
697.559	-4.77
697.588	14.23
697.616	-2.77
697.645	4.23
697.674	11.23
697.703	13.23
697.731	8.23
697.76	19.23
697.789	-7.77
697.817	2.23
697.846	12.23
697.875	6.23
697.903	15.23
697.932	8.23
697.961	2.23
697.989	3.23
698.018	9.23
698.047	-2.77
698.075	8.23
698.104	4.23
698.133	10.23
698.161	-3.77
698.19	-13.77
698.218	9.23
698.247	10.23
698.276	2.23
698.304	-3.77
698.333	1.23
698.362	-6.77
698.39	-7.77
698.419	10.23
698.447	1.23
698.476	-12.77
698.505	11.23
698.533	6.23
698.562	5.23
698.591	-5.77
698.619	3.23
698.648	-4.77
698.676	13.23
698.705	2.23
698.733	2.23
698.762	12.23
698.791	5.23
698.819	10.23
698.848	7.23
698.876	6.23
698.905	-1.77
698.933	11.23
698.962	8.23
698.991	1.23
699.019	21.23
699.048	-3.77
699.076	0.23
699.105	-8.77
699.133	-1.77
699.162	-4.77
699.19	9.23
699.219	6.23
699.248	6.23
699.276	1.23
699.305	1.23
699.333	1.23
699.362	-6.77
699.39	11.23
699.419	-7.77
699.447	8.23
699.476	5.23
699.504	7.23
699.533	0.23
699.561	10.23
699.59	4.23
699.618	5.23
699.647	3.23
699.675	3.23
699.704	18.23
699.732	-1.77
699.761	13.23
699.789	-6.77
699.818	12.23
699.846	-1.77
699.874	7.23
699.903	7.23
699.931	-1.77
699.96	11.23
699.988	10.23
700.017	6.23
700.045	10.23
700.074	-6.77
700.102	-1.77
700.13	10.23
700.159	7.23
700.187	19.23
700.216	13.23
700.244	-6.77
700.273	-10.77
700.301	-1.77
700.329	13.23
700.358	29.23
700.386	19.23
700.415	16.23
700.443	-1.77
700.472	-0.77
700.5	-2.77
700.528	9.23
700.557	6.23
700.585	-5.77
700.614	-8.77
700.642	14.23
700.67	29.23
700.699	17.23
700.727	7.23
700.755	-1.77
700.784	-6.77
700.812	-3.77
700.841	10.23
700.869	-1.77
700.897	-29.77
700.926	-3.77
700.954	-3.77
700.982	3.23
701.011	-2.77
701.039	-3.77
701.067	2.23
701.096	4.23
701.124	-6.77
701.152	17.23
701.181	4.23
701.209	-3.77
701.237	9.23
701.266	-3.77
701.294	-11.77
701.322	9.23
701.351	22.23
701.379	9.23
701.407	0.23
701.435	5.23
701.464	11.23
701.492	25.23
701.52	5.23
701.549	-0.77
701.577	-19.77
701.605	-6.77
701.634	-19.77
701.662	8.23
701.69	-9.77
701.718	-11.77
701.747	2.23
701.775	1.23
701.803	-16.77
701.831	9.23
701.86	8.23
701.888	18.23
701.916	-7.77
701.944	-4.77
701.973	-2.77
702.001	3.23
702.029	-6.77
702.057	-3.77
702.086	5.23
702.114	-20.77
702.142	0.23
702.17	0.23
702.199	17.23
702.227	16.23
702.255	-0.77
702.283	0.23
702.311	7.23
702.34	-3.77
702.368	-3.77
702.396	3.23
702.424	4.23
702.452	8.23
702.481	8.23
702.509	4.23
702.537	3.23
702.565	6.23
702.593	-16.77
702.621	8.23
702.65	11.23
702.678	-2.77
702.706	14.23
702.734	-8.77
702.762	1.23
702.79	-13.77
702.819	4.23
702.847	12.23
702.875	26.23
702.903	8.23
702.931	2.23
702.959	11.23
702.988	-2.77
703.016	-16.77
703.044	-6.77
703.072	-4.77
703.1	-0.77
703.128	-1.77
703.156	6.23
703.184	-14.77
703.212	13.23
703.241	11.23
703.269	5.23
703.297	2.23
703.325	-14.77
703.353	-4.77
703.381	-14.77
703.409	-2.77
703.437	-12.77
703.465	2.23
703.493	-13.77
703.522	3.23
703.55	1.23
703.578	9.23
703.606	-12.77
703.634	-11.77
703.662	-3.77
703.69	-2.77
703.718	-1.77
703.746	13.23
703.774	0.23
703.802	22.23
703.83	3.23
703.858	12.23
703.886	3.23
703.914	-5.77
703.942	14.23
703.97	-3.77
703.998	-0.77
704.027	5.23
704.055	17.23
704.083	-4.77
704.111	-9.77
704.139	1.23
704.167	-0.77
704.195	2.23
704.223	-7.77
704.251	-6.77
704.279	9.23
704.307	11.23
704.335	-22.77
704.363	-11.77
704.391	-4.77
704.419	16.23
704.447	11.23
704.475	-0.77
704.503	-2.77
704.531	12.23
704.558	12.23
704.586	2.23
704.614	8.23
704.642	-0.77
704.67	-6.77
704.698	-0.77
704.726	-1.77
704.754	7.23
704.782	9.23
704.81	-0.77
704.838	14.23
704.866	1.23
704.894	-1.77
704.922	-0.77
704.95	-0.77
704.978	8.23
705.006	2.23
705.034	24.23
705.061	-11.77
705.089	-17.77
705.117	-10.77
705.145	-6.77
705.173	-10.77
705.201	-1.77
705.229	22.23
705.257	-4.77
705.285	8.23
705.313	-3.77
705.34	-9.77
705.368	-18.77
705.396	6.23
705.424	-3.77
705.452	-3.77
705.48	-3.77
705.508	0.23
705.536	-0.77
705.563	-0.77
705.591	4.23
705.619	11.23
705.647	-10.77
705.675	2.23
705.703	17.23
705.731	1.23
705.758	21.23
705.786	-1.77
705.814	30.23
705.842	19.23
705.87	20.23
705.898	13.23
705.925	6.23
705.953	18.23
705.981	-6.77
706.009	-11.77
706.037	-8.77
706.065	-17.77
706.092	-13.77
706.12	6.23
706.148	1.23
706.176	-11.77
706.204	18.23
706.231	-3.77
706.259	2.23
706.287	7.23
706.315	14.23
706.342	3.23
706.37	9.23
706.398	10.23
706.426	-2.77
706.454	-7.77
706.481	5.23
706.509	-5.77
706.537	4.23
706.565	-11.77
706.592	22.23
706.62	-12.77
706.648	12.23
706.676	-17.77
706.703	8.23
706.731	-5.77
706.759	-12.77
706.787	-1.77
706.814	2.23
706.842	-3.77
706.87	2.23
706.897	5.23
706.925	-5.77
706.953	15.23
706.981	19.23
707.008	-5.77
707.036	2.23
707.064	-2.77
707.091	-13.77
707.119	3.23
707.147	3.23
707.174	1.23
707.202	-2.77
707.23	9.23
707.258	4.23
707.285	-24.77
707.313	-7.77
707.341	-5.77
707.368	-0.77
707.396	7.23
707.424	23.23
707.451	3.23
707.479	6.23
707.507	13.23
707.534	16.23
707.562	10.23
707.59	-0.77
707.617	-13.77
707.645	-5.77
707.672	0.23
707.7	4.23
707.728	26.23
707.755	-4.77
707.783	-0.77
707.811	-0.77
707.838	-3.77
707.866	5.23
707.893	4.23
707.921	-2.77
707.949	2.23
707.976	8.23
708.004	13.23
708.031	2.23
708.059	-1.77
708.087	-14.77
708.114	-23.77
708.142	-5.77
708.169	-6.77
708.197	-8.77
708.225	-1.77
708.252	-7.77
708.28	1.23
708.307	3.23
708.335	-7.77
708.362	-7.77
708.39	6.23
708.418	1.23
708.445	-3.77
708.473	-4.77
708.5	-6.77
708.528	5.23
708.555	2.23
708.583	6.23
708.61	-5.77
708.638	-0.77
708.665	-14.77
708.693	3.23
708.72	-1.77
708.748	-2.77
708.776	-4.77
708.803	14.23
708.831	5.23
708.858	23.23
708.886	21.23
708.913	8.23
708.941	5.23
708.968	26.23
708.996	-4.77
709.023	19.23
709.051	-3.77
709.078	-17.77
709.105	5.23
709.133	1.23
709.16	-8.77
709.188	21.23
709.215	6.23
709.243	-7.77
709.27	-4.77
709.298	-9.77
709.325	11.23
709.353	8.23
709.38	-8.77
709.408	14.23
709.435	10.23
709.462	-4.77
709.49	13.23
709.517	3.23
709.545	-2.77
709.572	7.23
709.6	-2.77
709.627	0.23
709.655	-6.77
709.682	2.23
709.709	5.23
709.737	-1.77
709.764	-13.77
709.792	1.23
709.819	-0.77
709.846	5.23
709.874	6.23
709.901	-13.77
709.929	28.23
709.956	15.23
709.983	5.23
710.011	-14.77
710.038	-3.77
710.066	19.23
710.093	12.23
710.12	-8.77
710.148	-10.77
710.175	-2.77
710.202	-11.77
710.23	-5.77
710.257	-2.77
710.284	-4.77
710.312	-0.77
710.339	2.23
710.366	14.23
710.394	-4.77
710.421	10.23
710.448	8.23
710.476	-13.77
710.503	5.23
710.53	8.23
710.558	13.23
710.585	15.23
710.612	16.23
710.64	12.23
710.667	-13.77
710.694	-2.77
710.722	3.23
710.749	-8.77
710.776	-0.77
710.804	19.23
710.831	9.23
710.858	11.23
710.885	-6.77
710.913	-9.77
710.94	18.23
710.967	-1.77
710.995	-16.77
711.022	-6.77
711.049	-5.77
711.076	-3.77
711.104	-6.77
711.131	-13.77
711.158	6.23
711.185	21.23
711.213	-13.77
711.24	-10.77
711.267	1.23
711.294	2.23
711.322	21.23
711.349	-1.77
711.376	-3.77
711.403	-1.77
711.431	-3.77
711.458	4.23
711.485	9.23
711.512	-1.77
711.54	-2.77
711.567	-15.77
711.594	-2.77
711.621	-8.77
711.648	3.23
711.676	-12.77
711.703	1.23
711.73	-18.77
711.757	4.23
711.784	-10.77
711.812	-4.77
711.839	4.23
711.866	-12.77
711.893	-5.77
711.92	2.23
711.947	1.23
711.975	-8.77
712.002	-12.77
712.029	3.23
712.056	2.23
712.083	7.23
712.11	-5.77
712.138	-4.77
712.165	-3.77
712.192	11.23
712.219	-8.77
712.246	-12.77
712.273	3.23
712.3	-8.77
712.328	-1.77
712.355	-14.77
712.382	0.23
712.409	19.23
712.436	-9.77
712.463	9.23
712.49	9.23
712.517	-0.77
712.544	-5.77
712.572	-8.77
712.599	-18.77
712.626	-2.77
712.653	-9.77
712.68	-0.77
712.707	9.23
712.734	7.23
712.761	0.23
712.788	-5.77
712.815	-3.77
712.842	17.23
712.87	-1.77
712.897	-9.77
712.924	-13.77
712.951	-5.77
712.978	13.23
713.005	18.23
713.032	14.23
713.059	-10.77
713.086	-1.77
713.113	-11.77
713.14	-6.77
713.167	-5.77
713.194	10.23
713.221	-3.77
713.248	-2.77
713.275	-8.77
713.302	8.23
713.329	-1.77
713.356	1.23
713.383	3.23
713.41	9.23
713.437	-0.77
713.464	3.23
713.491	8.23
713.518	4.23
713.545	0.23
713.572	-4.77
713.599	18.23
713.626	7.23
713.653	-4.77
713.68	-7.77
713.707	8.23
713.734	13.23
713.761	-6.77
713.788	2.23
713.815	12.23
713.842	-9.77
713.869	-14.77
713.896	-11.77
713.923	2.23
713.95	4.23
713.977	11.23
714.004	-14.77
714.031	-12.77
714.058	1.23
714.085	12.23
714.112	6.23
714.139	1.23
714.165	-14.77
714.192	3.23
714.219	-0.77
714.246	11.23
714.273	-2.77
714.3	-5.77
714.327	11.23
714.354	13.23
714.381	-4.77
714.408	-0.77
714.435	-26.77
714.461	-9.77
714.488	13.23
714.515	-5.77
714.542	-1.77
714.569	-12.77
714.596	-19.77
714.623	3.23
714.65	-16.77
714.677	9.23
714.703	-4.77
714.73	7.23
714.757	-3.77
714.784	2.23
714.811	-5.77
714.838	3.23
714.865	-12.77
714.891	2.23
714.918	-7.77
714.945	-8.77
714.972	-6.77
714.999	13.23
715.026	-1.77
715.052	4.23
715.079	-0.77
715.106	5.23
715.133	-3.77
715.16	-7.77
715.187	2.23
715.213	13.23
715.24	-8.77
715.267	1.23
715.294	-1.77
715.321	8.23
715.347	-4.77
715.374	-0.77
715.401	-1.77
715.428	0.23
715.455	1.23
715.481	-22.77
715.508	-0.77
715.535	-12.77
715.562	6.23
715.588	5.23
715.615	-2.77
715.642	2.23
715.669	17.23
715.695	-19.77
715.722	-9.77
715.749	5.23
715.776	16.23
715.802	2.23
715.829	16.23
715.856	-12.77
715.883	-7.77
715.909	-21.77
715.936	-12.77
715.963	-0.77
715.99	-9.77
716.016	-1.77
716.043	2.23
716.07	0.23
716.096	-4.77
716.123	3.23
716.15	13.23
716.177	14.23
716.203	12.23
716.23	5.23
716.257	-9.77
716.283	3.23
716.31	-1.77
716.337	0.23
716.363	-20.77
716.39	-5.77
716.417	29.23
716.443	0.23
716.47	6.23
716.497	7.23
716.523	15.23
716.55	14.23
716.577	21.23
716.603	-5.77
716.63	1.23
716.657	21.23
716.683	-3.77
716.71	-4.77
716.737	-2.77
716.763	17.23
716.79	1.23
716.817	17.23
716.843	-5.77
716.87	-2.77
716.897	-2.77
716.923	2.23
716.95	-9.77
716.976	-0.77
717.003	-8.77
717.03	1.23
717.056	6.23
717.083	-1.77
717.109	-1.77
717.136	7.23
717.163	-4.77
717.189	-7.77
717.216	-3.77
717.242	-3.77
717.269	14.23
717.296	5.23
717.322	3.23
717.349	2.23
717.375	11.23
717.402	1.23
717.428	4.23
717.455	-8.77
717.481	-4.77
717.508	14.23
717.535	6.23
717.561	-2.77
717.588	-11.77
717.614	-8.77
717.641	-0.77
717.667	19.23
717.694	10.23
717.72	2.23
717.747	-1.77
717.773	-7.77
717.8	5.23
717.826	-0.77
717.853	0.23
717.88	11.23
717.906	10.23
717.933	10.23
717.959	-0.77
717.986	10.23
718.012	-10.77
718.039	10.23
718.065	10.23
718.092	9.23
718.118	6.23
718.144	-5.77
718.171	4.23
718.197	14.23
718.224	-2.77
718.25	5.23
718.277	16.23
718.303	4.23
718.33	4.23
718.356	-11.77
718.383	-20.77
718.409	-3.77
718.436	-11.77
718.462	-2.77
718.489	4.23
718.515	11.23
718.541	19.23
718.568	-0.77
718.594	-1.77
718.621	-0.77
718.647	-10.77
718.674	12.23
718.7	1.23
718.726	-11.77
718.753	1.23
718.779	7.23
718.806	9.23
718.832	-5.77
718.858	3.23
718.885	-2.77
718.911	13.23
718.938	9.23
718.964	-15.77
718.99	3.23
719.017	1.23
719.043	2.23
719.07	15.23
719.096	-10.77
719.122	-2.77
719.149	-2.77
719.175	6.23
719.201	10.23
719.228	-6.77
719.254	9.23
719.281	1.23
719.307	9.23
719.333	1.23
719.36	11.23
719.386	4.23
719.412	6.23
719.439	-17.77
719.465	-0.77
719.491	-9.77
719.518	2.23
719.544	1.23
719.57	19.23
719.597	11.23
719.623	-9.77
719.649	4.23
719.675	9.23
719.702	13.23
719.728	22.23
719.754	-7.77
719.781	-8.77
719.807	-9.77
719.833	-1.77
719.86	-7.77
719.886	-3.77
719.912	5.23
719.938	-9.77
719.965	7.23
719.991	15.23
720.017	-14.77
720.044	-1.77
720.07	7.23
720.096	19.23
720.122	6.23
720.149	8.23
720.175	26.23
720.201	-0.77
720.227	-5.77
720.254	6.23
720.28	3.23
720.306	-7.77
720.332	1.23
720.359	11.23
720.385	-1.77
720.411	12.23
720.437	-1.77
720.463	5.23
720.49	13.23
720.516	-1.77
720.542	1.23
720.568	2.23
720.595	1.23
720.621	5.23
720.647	11.23
720.673	16.23
720.699	-12.77
720.725	1.23
720.752	3.23
720.778	2.23
720.804	1.23
720.83	2.23
720.856	2.23
720.883	-12.77
720.909	10.23
720.935	14.23
720.961	19.23
720.987	-13.77
721.013	9.23
721.04	1.23
721.066	6.23
721.092	4.23
721.118	13.23
721.144	5.23
721.17	1.23
721.196	2.23
721.223	4.23
721.249	3.23
721.275	30.23
721.301	0.23
721.327	15.23
721.353	10.23
721.379	-0.77
721.405	7.23
721.432	1.23
721.458	-2.77
721.484	-2.77
721.51	-8.77
721.536	13.23
721.562	11.23
721.588	13.23
721.614	1.23
721.64	-1.77
721.666	-0.77
721.693	-8.77
721.719	-3.77
721.745	-4.77
721.771	-3.77
721.797	4.23
721.823	-1.77
721.849	5.23
721.875	-5.77
721.901	2.23
721.927	12.23
721.953	-7.77
721.979	2.23
722.005	7.23
722.031	-4.77
722.057	-3.77
722.083	13.23
722.109	-2.77
722.135	2.23
722.161	19.23
722.187	-10.77
722.214	-8.77
722.24	-6.77
722.266	-6.77
722.292	8.23
722.318	22.23
722.344	5.23
722.37	9.23
722.396	2.23
722.422	2.23
722.448	7.23
722.474	-10.77
722.5	15.23
722.526	-1.77
722.552	5.23
722.578	2.23
722.603	7.23
722.629	-18.77
722.655	-5.77
722.681	-6.77
722.707	15.23
722.733	-0.77
722.759	-3.77
722.785	5.23
722.811	0.23
722.837	3.23
722.863	12.23
722.889	14.23
722.915	3.23
722.941	-0.77
722.967	1.23
722.993	13.23
723.019	-0.77
723.045	5.23
723.071	19.23
723.097	1.23
723.122	0.23
723.148	-3.77
723.174	-2.77
723.2	13.23
723.226	-17.77
723.252	3.23
723.278	2.23
723.304	-6.77
723.33	4.23
723.356	-7.77
723.381	-5.77
723.407	-24.77
723.433	7.23
723.459	-3.77
723.485	11.23
723.511	11.23
723.537	-13.77
723.563	-11.77
723.588	1.23
723.614	6.23
723.64	1.23
723.666	-13.77
723.692	-0.77
723.718	-1.77
723.744	-0.77
723.769	4.23
723.795	5.23
723.821	12.23
723.847	-10.77
723.873	15.23
723.899	12.23
723.924	-0.77
723.95	-11.77
723.976	-11.77
724.002	4.23
724.028	4.23
724.053	-6.77
724.079	5.23
724.105	15.23
724.131	3.23
724.157	7.23
724.182	10.23
724.208	3.23
724.234	11.23
724.26	-0.77
724.286	0.23
724.311	-0.77
724.337	-10.77
724.363	-7.77
724.389	6.23
724.415	-2.77
724.44	24.23
724.466	4.23
724.492	-2.77
724.518	6.23
724.543	6.23
724.569	16.23
724.595	3.23
724.621	5.23
724.646	-4.77
724.672	-1.77
724.698	-0.77
724.723	2.23
724.749	6.23
724.775	16.23
724.801	20.23
724.826	-1.77
724.852	1.23
724.878	-0.77
724.904	-18.77
724.929	7.23
724.955	-12.77
724.981	-11.77
725.006	-3.77
725.032	-6.77
725.058	8.23
725.083	-5.77
725.109	-0.77
725.135	-6.77
725.161	15.23
725.186	-3.77
725.212	-1.77
725.238	10.23
725.263	11.23
725.289	-10.77
725.315	-3.77
725.34	-1.77
725.366	1.23
725.392	11.23
725.417	-0.77
725.443	9.23
725.468	10.23
725.494	7.23
725.52	-1.77
725.545	-14.77
725.571	-2.77
725.597	16.23
725.622	10.23
725.648	-3.77
725.674	3.23
725.699	3.23
725.725	-5.77
725.75	24.23
725.776	-1.77
725.802	6.23
725.827	11.23
725.853	2.23
725.878	-5.77
725.904	1.23
725.93	-3.77
725.955	-9.77
725.981	-9.77
726.006	-5.77
726.032	0.23
726.057	4.23
726.083	0.23
726.109	-7.77
726.134	-6.77
726.16	7.23
726.185	3.23
726.211	-1.77
726.236	2.23
726.262	6.23
726.288	7.23
726.313	6.23
726.339	3.23
726.364	1.23
726.39	16.23
726.415	6.23
726.441	3.23
726.466	5.23
726.492	5.23
726.517	14.23
726.543	6.23
726.568	-13.77
726.594	14.23
726.619	-4.77
726.645	8.23
726.67	0.23
726.696	7.23
726.721	-6.77
726.747	-3.77
726.772	10.23
726.798	1.23
726.823	3.23
726.849	3.23
726.874	-1.77
726.9	-2.77
726.925	7.23
726.951	-1.77
726.976	8.23
727.002	-10.77
727.027	-3.77
727.053	12.23
727.078	6.23
727.104	16.23
727.129	2.23
727.155	-2.77
727.18	-3.77
727.205	2.23
727.231	5.23
727.256	6.23
727.282	-5.77
727.307	7.23
727.333	-9.77
727.358	-14.77
727.383	-14.77
727.409	-10.77
727.434	2.23
727.46	-4.77
727.485	4.23
727.511	-1.77
727.536	-19.77
727.561	-7.77
727.587	-4.77
727.612	9.23
727.637	-5.77
727.663	-2.77
727.688	14.23
727.714	0.23
727.739	1.23
727.764	6.23
727.79	14.23
727.815	2.23
727.841	8.23
727.866	-14.77
727.891	-6.77
727.917	-4.77
727.942	-17.77
727.967	0.23
727.993	-9.77
728.018	7.23
728.043	6.23
728.069	8.23
728.094	2.23
728.119	-0.77
728.145	12.23
728.17	1.23
728.195	5.23
728.221	6.23
728.246	-21.77
728.271	-18.77
728.297	-1.77
728.322	-3.77
728.347	-7.77
728.373	-0.77
728.398	7.23
728.423	-3.77
728.448	0.23
728.474	12.23
728.499	1.23
728.524	-13.77
728.55	-17.77
728.575	-11.77
728.6	14.23
728.625	-0.77
728.651	6.23
728.676	9.23
728.701	-5.77
728.727	2.23
728.752	-8.77
728.777	-0.77
728.802	13.23
728.828	0.23
728.853	-2.77
728.878	-1.77
728.903	-13.77
728.929	-14.77
728.954	-12.77
728.979	20.23
729.004	-1.77
729.03	5.23
729.055	8.23
729.08	-1.77
729.105	-13.77
729.13	13.23
729.156	11.23
729.181	5.23
729.206	-12.77
729.231	-3.77
729.256	17.23
729.282	10.23
729.307	-11.77
729.332	-3.77
729.357	-5.77
729.382	5.23
729.408	5.23
729.433	-0.77
729.458	3.23
729.483	2.23
729.508	3.23
729.533	6.23
729.559	1.23
729.584	-4.77
729.609	6.23
729.634	12.23
729.659	2.23
729.684	4.23
729.71	14.23
729.735	-3.77
729.76	2.23
729.785	-4.77
729.81	12.23
729.835	-1.77
729.86	3.23
729.886	2.23
729.911	9.23
729.936	7.23
729.961	5.23
729.986	-10.77
730.011	11.23
730.036	-3.77
730.061	-12.77
730.086	8.23
730.112	8.23
730.137	8.23
730.162	-13.77
730.187	-16.77
730.212	-7.77
730.237	-8.77
730.262	1.23
730.287	-3.77
730.312	11.23
730.337	10.23
730.362	4.23
730.387	2.23
730.413	-6.77
730.438	-1.77
730.463	3.23
730.488	-8.77
730.513	-6.77
730.538	-5.77
730.563	10.23
730.588	12.23
730.613	8.23
730.638	19.23
730.663	9.23
730.688	13.23
730.713	-1.77
730.738	5.23
730.763	9.23
730.788	-4.77
730.813	-3.77
730.838	-4.77
730.863	2.23
730.888	-8.77
730.913	-10.77
730.938	-2.77
730.963	-10.77
730.988	-1.77
731.013	2.23
731.038	1.23
731.063	3.23
731.088	16.23
731.113	5.23
731.138	-1.77
731.163	6.23
731.188	13.23
731.213	5.23
731.238	21.23
731.263	4.23
731.288	10.23
731.313	9.23
731.338	6.23
731.363	-2.77
731.388	13.23
731.413	19.23
731.438	16.23
731.463	-0.77
731.487	14.23
731.512	2.23
731.537	-1.77
731.562	-5.77
731.587	5.23
731.612	-0.77
731.637	3.23
731.662	-14.77
731.687	-5.77
731.712	-9.77
731.737	-4.77
731.762	5.23
731.786	9.23
731.811	-4.77
731.836	2.23
731.861	10.23
731.886	-3.77
731.911	7.23
731.936	-6.77
731.961	-1.77
731.986	-14.77
732.01	2.23
732.035	-2.77
732.06	13.23
732.085	-1.77
732.11	-3.77
732.135	-9.77
732.16	-2.77
732.184	3.23
732.209	14.23
732.234	18.23
732.259	-1.77
732.284	25.23
732.309	-3.77
732.334	-3.77
732.358	-28.77
732.383	-25.77
732.408	-11.77
732.433	-5.77
732.458	-1.77
732.482	2.23
732.507	-7.77
732.532	-5.77
732.557	8.23
732.582	8.23
732.607	0.23
732.631	-17.77
732.656	-4.77
732.681	-2.77
732.706	-1.77
732.73	-3.77
732.755	1.23
732.78	1.23
732.805	-3.77
732.83	1.23
732.854	1.23
732.879	13.23
732.904	3.23
732.929	-2.77
732.953	13.23
732.978	-2.77
733.003	-0.77
733.028	-1.77
733.052	-0.77
733.077	17.23
733.102	19.23
733.127	-24.77
733.151	-3.77
733.176	2.23
733.201	-6.77
733.226	8.23
733.25	1.23
733.275	7.23
733.3	-2.77
733.324	20.23
733.349	5.23
733.374	4.23
733.399	1.23
733.423	-7.77
733.448	-4.77
733.473	6.23
733.497	2.23
733.522	4.23
733.547	11.23
733.571	21.23
733.596	10.23
733.621	14.23
733.646	12.23
733.67	18.23
733.695	-12.77
733.72	5.23
733.744	9.23
733.769	1.23
733.794	9.23
733.818	-10.77
733.843	1.23
733.867	4.23
733.892	-8.77
733.917	-2.77
733.941	-1.77
733.966	-18.77
733.991	-8.77
734.015	13.23
734.04	-5.77
734.065	10.23
734.089	15.23
734.114	-4.77
734.138	-4.77
734.163	-13.77
734.188	1.23
734.212	14.23
734.237	16.23
734.261	9.23
734.286	3.23
734.311	5.23
734.335	-0.77
734.36	1.23
734.384	-2.77
734.409	12.23
734.434	-1.77
734.458	4.23
734.483	16.23
734.507	-4.77
734.532	-10.77
734.556	0.23
734.581	1.23
734.606	12.23
734.63	2.23
734.655	9.23
734.679	-3.77
734.704	8.23
734.728	5.23
734.753	-10.77
734.777	1.23
734.802	2.23
734.826	14.23
734.851	-1.77
734.876	12.23
734.9	11.23
734.925	20.23
734.949	-1.77
734.974	-2.77
734.998	13.23
735.023	-17.77
735.047	-18.77
735.072	11.23
735.096	-0.77
735.121	-4.77
735.145	1.23
735.17	2.23
735.194	6.23
735.219	13.23
735.243	3.23
735.268	10.23
735.292	9.23
735.317	-1.77
735.341	5.23
735.365	-2.77
735.39	11.23
735.414	-8.77
735.439	1.23
735.463	-1.77
735.488	2.23
735.512	-1.77
735.537	7.23
735.561	-2.77
735.586	-7.77
735.61	5.23
735.634	-1.77
735.659	7.23
735.683	10.23
735.708	1.23
735.732	5.23
735.757	-7.77
735.781	7.23
735.805	-0.77
735.83	-7.77
735.854	-1.77
735.879	13.23
735.903	17.23
735.927	4.23
735.952	13.23
735.976	-6.77
736.001	-15.77
736.025	-8.77
736.049	-13.77
736.074	-4.77
736.098	-2.77
736.123	11.23
736.147	-11.77
736.171	11.23
736.196	14.23
736.22	5.23
736.244	15.23
736.269	1.23
736.293	-2.77
736.317	5.23
736.342	4.23
736.366	9.23
736.39	10.23
736.415	10.23
736.439	19.23
736.463	5.23
736.488	-1.77
736.512	7.23
736.536	-0.77
736.561	3.23
736.585	-1.77
736.609	-2.77
736.634	-4.77
736.658	1.23
736.682	-17.77
736.707	-7.77
736.731	5.23
736.755	-3.77
736.78	20.23
736.804	10.23
736.828	5.23
736.852	5.23
736.877	4.23
736.901	11.23
736.925	1.23
736.949	9.23
736.974	-0.77
736.998	6.23
737.022	10.23
737.047	-10.77
737.071	2.23
737.095	-2.77
737.119	19.23
737.144	11.23
737.168	-1.77
737.192	-7.77
737.216	3.23
737.241	-2.77
737.265	-6.77
737.289	6.23
737.313	-1.77
737.337	10.23
737.362	4.23
737.386	-2.77
737.41	-1.77
737.434	-2.77
737.459	-1.77
737.483	15.23
737.507	22.23
737.531	-1.77
737.555	13.23
737.58	12.23
737.604	17.23
737.628	7.23
737.652	-2.77
737.676	-5.77
737.701	-3.77
737.725	-1.77
737.749	4.23
737.773	-9.77
737.797	-3.77
737.821	10.23
737.846	-8.77
737.87	33.23
737.894	11.23
737.918	-2.77
737.942	0.23
737.966	13.23
737.99	-0.77
738.015	-0.77
738.039	0.23
738.063	-2.77
738.087	9.23
738.111	10.23
738.135	24.23
738.159	-1.77
738.184	-8.77
738.208	9.23
738.232	-4.77
738.256	20.23
738.28	11.23
738.304	2.23
738.328	-7.77
738.352	12.23
738.376	-6.77
738.4	-6.77
738.425	2.23
738.449	-2.77
738.473	22.23
738.497	-5.77
738.521	5.23
738.545	2.23
738.569	22.23
738.593	27.23
738.617	4.23
738.641	-2.77
738.665	-6.77
738.689	6.23
738.713	0.23
738.737	6.23
738.762	17.23
738.786	-0.77
738.81	-2.77
738.834	4.23
738.858	-3.77
738.882	4.23
738.906	-10.77
738.93	8.23
738.954	7.23
738.978	9.23
739.002	11.23
739.026	10.23
739.05	4.23
739.074	-16.77
739.098	26.23
739.122	22.23
739.146	3.23
739.17	16.23
739.194	11.23
739.218	-15.77
739.242	7.23
739.266	-4.77
739.29	3.23
739.314	19.23
739.338	13.23
739.362	-7.77
739.386	2.23
739.41	-0.77
739.434	-7.77
739.458	12.23
739.482	2.23
739.506	12.23
739.53	-6.77
739.554	13.23
739.577	-2.77
739.601	5.23
739.625	-12.77
739.649	9.23
739.673	-1.77
739.697	18.23
739.721	-17.77
739.745	-4.77
739.769	7.23
739.793	-0.77
739.817	10.23
739.841	-7.77
739.865	7.23
739.889	-13.77
739.912	21.23
739.936	2.23
739.96	12.23
739.984	-4.77
740.008	3.23
740.032	-13.77
740.056	-0.77
740.08	9.23
740.104	-2.77
740.127	7.23
740.151	7.23
740.175	18.23
740.199	13.23
740.223	46.23
740.247	21.23
740.271	-0.77
740.295	-5.77
740.318	-0.77
740.342	-7.77
740.366	12.23
740.39	7.23
740.414	1.23
740.438	3.23
740.461	17.23
740.485	15.23
740.509	-8.77
740.533	4.23
740.557	6.23
740.581	1.23
740.604	-8.77
740.628	-3.77
740.652	7.23
740.676	7.23
740.7	-2.77
740.723	-6.77
740.747	-5.77
740.771	11.23
740.795	-1.77
740.819	5.23
740.842	1.23
740.866	15.23
740.89	13.23
740.914	14.23
740.938	-6.77
740.961	1.23
740.985	3.23
741.009	-2.77
741.033	1.23
741.056	7.23
741.08	-10.77
741.104	2.23
741.128	5.23
741.151	6.23
741.175	8.23
741.199	5.23
741.223	11.23
741.246	5.23
741.27	0.23
741.294	4.23
741.318	1.23
741.341	11.23
741.365	13.23
741.389	-12.77
741.413	1.23
741.436	0.23
741.46	-0.77
741.484	14.23
741.507	-6.77
741.531	23.23
741.555	9.23
741.579	-5.77
741.602	-3.77
741.626	6.23
741.65	-9.77
741.673	-4.77
741.697	-1.77
741.721	7.23
741.744	-8.77
741.768	-1.77
741.792	-5.77
741.815	-12.77
741.839	15.23
741.863	23.23
741.886	8.23
741.91	3.23
741.934	6.23
741.957	-7.77
741.981	-2.77
742.005	-1.77
742.028	-5.77
742.052	-5.77
742.075	8.23
742.099	5.23
742.123	5.23
742.146	7.23
742.17	2.23
742.194	-0.77
742.217	-13.77
742.241	12.23
742.264	4.23
742.288	18.23
742.312	4.23
742.335	10.23
742.359	-0.77
742.382	18.23
742.406	21.23
742.43	-20.77
742.453	0.23
742.477	-9.77
742.5	-8.77
742.524	-0.77
742.548	-5.77
742.571	1.23
742.595	-2.77
742.618	-19.77
742.642	-6.77
742.665	-0.77
742.689	-1.77
742.712	14.23
742.736	6.23
742.76	-0.77
742.783	7.23
742.807	1.23
742.83	1.23
742.854	-3.77
742.877	-9.77
742.901	-3.77
742.924	-10.77
742.948	11.23
742.971	6.23
742.995	-6.77
743.018	1.23
743.042	-5.77
743.065	-7.77
743.089	-2.77
743.112	3.23
743.136	-0.77
743.159	2.23
743.183	-20.77
743.206	3.23
743.23	-5.77
743.253	-11.77
743.277	14.23
743.3	-2.77
743.324	1.23
743.347	4.23
743.371	26.23
743.394	9.23
743.418	22.23
743.441	3.23
743.465	-11.77
743.488	6.23
743.512	3.23
743.535	14.23
743.558	0.23
743.582	-0.77
743.605	12.23
743.629	29.23
743.652	10.23
743.676	2.23
743.699	6.23
743.723	6.23
743.746	1.23
743.769	10.23
743.793	17.23
743.816	-1.77
743.84	13.23
743.863	8.23
743.886	1.23
743.91	24.23
743.933	10.23
743.957	16.23
743.98	-1.77
744.003	15.23
744.027	3.23
744.05	-14.77
744.074	-0.77
744.097	-27.77
744.12	-10.77
744.144	-13.77
744.167	11.23
744.19	11.23
744.214	1.23
744.237	-13.77
744.26	5.23
744.284	-6.77
744.307	-10.77
744.331	5.23
744.354	-8.77
744.377	-1.77
744.401	5.23
744.424	-4.77
744.447	-8.77
744.471	-11.77
