Data from HighRes_H2D2_15_04_11_07_2024_HR4C61891__30__15-05-37-443.txt Node

Date: Thu Nov 07 15:05:37 EST 2024
User: crc00042
Spectrometer: HR4C6189
Trigger mode: 4
Integration Time (sec): 1.000000E-1
Scans to average: 1
Electric dark correction enabled: true
Nonlinearity correction enabled: false
Boxcar width: 0
XAxis mode: Wavelengths
Number of Pixels in Spectrum: 3648
>>>>>Begin Spectral Data<<<<<
639.567	-60.15
639.602	-60.15
639.636	-60.15
639.67	-52.15
639.704	-34.15
639.738	-23.15
639.773	8.85
639.807	-29.15
639.841	2.85
639.875	17.85
639.909	-3.15
639.943	5.85
639.978	-4.15
640.012	-12.15
640.046	11.85
640.08	9.85
640.114	5.85
640.148	8.85
640.182	-13.15
640.217	-5.15
640.251	20.85
640.285	8.85
640.319	-7.15
640.353	-15.15
640.387	-8.15
640.421	-3.15
640.455	-6.15
640.49	-8.15
640.524	-6.15
640.558	-0.15
640.592	4.85
640.626	-6.15
640.66	3.85
640.694	-1.15
640.728	20.85
640.762	21.85
640.796	10.85
640.83	13.85
640.865	-11.15
640.899	2.85
640.933	15.85
640.967	-5.15
641.001	-5.15
641.035	0.85
641.069	-2.15
641.103	-6.15
641.137	-11.15
641.171	-24.15
641.205	-0.15
641.239	-6.15
641.273	10.85
641.307	-0.15
641.341	6.85
641.375	-3.15
641.409	-15.15
641.443	-12.15
641.477	1.85
641.511	-0.15
641.545	-7.15
641.579	0.85
641.614	3.85
641.648	9.85
641.682	-9.15
641.716	-9.15
641.75	14.85
641.784	-1.15
641.818	-3.15
641.852	-2.15
641.886	-17.15
641.919	17.85
641.953	-6.15
641.987	-10.15
642.021	5.85
642.055	6.85
642.089	-4.15
642.123	-8.15
642.157	-15.15
642.191	-2.15
642.225	-2.15
642.259	-10.15
642.293	0.85
642.327	-7.15
642.361	5.85
642.395	5.85
642.429	8.85
642.463	11.85
642.497	18.85
642.531	-0.15
642.565	-7.15
642.599	4.85
642.633	0.85
642.666	5.85
642.7	11.85
642.734	0.85
642.768	1.85
642.802	-12.15
642.836	0.85
642.87	1.85
642.904	3.85
642.938	-4.15
642.972	-4.15
643.005	-3.15
643.039	12.85
643.073	-4.15
643.107	3.85
643.141	8.85
643.175	19.85
643.209	2.85
643.243	15.85
643.276	10.85
643.31	6.85
643.344	-2.15
643.378	-12.15
643.412	5.85
643.446	11.85
643.48	-20.15
643.513	0.85
643.547	1.85
643.581	-1.15
643.615	17.85
643.649	-7.15
643.683	9.85
643.716	-7.15
643.75	1.85
643.784	-7.15
643.818	12.85
643.852	-0.15
643.886	-8.15
643.919	-10.15
643.953	-4.15
643.987	-11.15
644.021	1.85
644.055	-5.15
644.088	16.85
644.122	-7.15
644.156	-4.15
644.19	-4.15
644.224	0.85
644.257	-0.15
644.291	7.85
644.325	11.85
644.359	-0.15
644.392	12.85
644.426	13.85
644.46	-11.15
644.494	-13.15
644.527	-15.15
644.561	1.85
644.595	-8.15
644.629	-9.15
644.662	3.85
644.696	15.85
644.73	1.85
644.764	-1.15
644.797	-9.15
644.831	1.85
644.865	-7.15
644.899	-7.15
644.932	9.85
644.966	3.85
645	4.85
645.033	-4.15
645.067	-11.15
645.101	3.85
645.135	2.85
645.168	-1.15
645.202	-2.15
645.236	-12.15
645.269	8.85
645.303	-6.15
645.337	-10.15
645.37	-18.15
645.404	7.85
645.438	10.85
645.471	-6.15
645.505	1.85
645.539	-13.15
645.572	-16.15
645.606	-2.15
645.64	7.85
645.673	11.85
645.707	23.85
645.741	-4.15
645.774	-10.15
645.808	10.85
645.842	-4.15
645.875	5.85
645.909	-6.15
645.943	-1.15
645.976	-4.15
646.01	11.85
646.043	15.85
646.077	8.85
646.111	8.85
646.144	20.85
646.178	-4.15
646.212	-34.15
646.245	2.85
646.279	5.85
646.312	4.85
646.346	9.85
646.38	-8.15
646.413	4.85
646.447	-17.15
646.48	-7.15
646.514	5.85
646.547	0.85
646.581	0.85
646.615	4.85
646.648	-4.15
646.682	-11.15
646.715	5.85
646.749	16.85
646.782	-0.15
646.816	-6.15
646.85	9.85
646.883	-8.15
646.917	12.85
646.95	-1.15
646.984	2.85
647.017	-0.15
647.051	-6.15
647.084	-16.15
647.118	5.85
647.151	-2.15
647.185	0.85
647.218	-2.15
647.252	21.85
647.285	-4.15
647.319	-16.15
647.353	9.85
647.386	25.85
647.42	9.85
647.453	8.85
647.487	-7.15
647.52	1.85
647.553	2.85
647.587	-7.15
647.62	0.85
647.654	20.85
647.687	-0.15
647.721	0.85
647.754	-7.15
647.788	-3.15
647.821	-31.15
647.855	10.85
647.888	16.85
647.922	11.85
647.955	19.85
647.989	-3.15
648.022	-17.15
648.055	3.85
648.089	-8.15
648.122	26.85
648.156	4.85
648.189	-5.15
648.223	5.85
648.256	9.85
648.29	7.85
648.323	-5.15
648.356	-4.15
648.39	-1.15
648.423	8.85
648.457	-1.15
648.49	7.85
648.523	-16.15
648.557	13.85
648.59	-9.15
648.624	-1.15
648.657	0.85
648.69	8.85
648.724	-0.15
648.757	7.85
648.791	-0.15
648.824	-1.15
648.857	-2.15
648.891	-12.15
648.924	10.85
648.957	11.85
648.991	8.85
649.024	11.85
649.057	-1.15
649.091	-2.15
649.124	11.85
649.158	8.85
649.191	7.85
649.224	0.85
649.258	-8.15
649.291	-1.15
649.324	-10.15
649.358	6.85
649.391	5.85
649.424	0.85
649.458	-8.15
649.491	8.85
649.524	-6.15
649.557	0.85
649.591	-8.15
649.624	15.85
649.657	-13.15
649.691	9.85
649.724	11.85
649.757	13.85
649.791	13.85
649.824	15.85
649.857	18.85
649.89	1.85
649.924	8.85
649.957	5.85
649.99	-3.15
650.023	-13.15
650.057	-10.15
650.09	5.85
650.123	4.85
650.157	15.85
650.19	28.85
650.223	-7.15
650.256	-19.15
650.29	-2.15
650.323	-2.15
650.356	7.85
650.389	4.85
650.423	5.85
650.456	-0.15
650.489	-6.15
650.522	4.85
650.555	13.85
650.589	9.85
650.622	7.85
650.655	24.85
650.688	-8.15
650.721	0.85
650.755	7.85
650.788	6.85
650.821	0.85
650.854	11.85
650.887	-5.15
650.921	-0.15
650.954	-21.15
650.987	8.85
651.02	-5.15
651.053	-0.15
651.087	-17.15
651.12	26.85
651.153	19.85
651.186	-3.15
651.219	-9.15
651.252	16.85
651.286	5.85
651.319	-3.15
651.352	-10.15
651.385	0.85
651.418	11.85
651.451	11.85
651.484	-12.15
651.518	-17.15
651.551	19.85
651.584	-1.15
651.617	4.85
651.65	3.85
651.683	29.85
651.716	6.85
651.749	-11.15
651.783	-0.15
651.816	5.85
651.849	19.85
651.882	-7.15
651.915	-18.15
651.948	4.85
651.981	9.85
652.014	-1.15
652.047	-10.15
652.08	-12.15
652.114	3.85
652.147	0.85
652.18	6.85
652.213	17.85
652.246	5.85
652.279	-4.15
652.312	23.85
652.345	3.85
652.378	-2.15
652.411	11.85
652.444	2.85
652.477	-7.15
652.51	8.85
652.543	-4.15
652.576	1.85
652.609	3.85
652.642	-2.15
652.675	9.85
652.709	-9.15
652.742	7.85
652.775	-1.15
652.808	22.85
652.841	-7.15
652.874	8.85
652.907	3.85
652.94	-5.15
652.973	-3.15
653.006	-12.15
653.039	-3.15
653.072	-1.15
653.105	-5.15
653.138	-19.15
653.171	8.85
653.204	-4.15
653.237	-1.15
653.27	-9.15
653.303	-3.15
653.336	0.85
653.368	1.85
653.401	14.85
653.434	-0.15
653.467	-4.15
653.5	-27.15
653.533	-4.15
653.566	6.85
653.599	6.85
653.632	-2.15
653.665	-3.15
653.698	-4.15
653.731	-16.15
653.764	1.85
653.797	11.85
653.83	2.85
653.863	-4.15
653.896	-15.15
653.929	-2.15
653.961	-3.15
653.994	-9.15
654.027	-11.15
654.06	-1.15
654.093	8.85
654.126	14.85
654.159	-9.15
654.192	3.85
654.225	-1.15
654.258	-8.15
654.29	0.85
654.323	-9.15
654.356	-4.15
654.389	6.85
654.422	8.85
654.455	2.85
654.488	15.85
654.521	-8.15
654.553	-9.15
654.586	18.85
654.619	-1.15
654.652	1.85
654.685	5.85
654.718	9.85
654.751	-8.15
654.783	-12.15
654.816	16.85
654.849	-11.15
654.882	-4.15
654.915	-21.15
654.948	-12.15
654.98	-3.15
655.013	-11.15
655.046	8.85
655.079	11.85
655.112	4.85
655.144	-31.15
655.177	-1.15
655.21	23.85
655.243	-3.15
655.276	15.85
655.308	10.85
655.341	-8.15
655.374	22.85
655.407	-4.15
655.44	-1.15
655.472	16.85
655.505	14.85
655.538	-10.15
655.571	14.85
655.603	-13.15
655.636	7.85
655.669	13.85
655.702	16.85
655.734	-17.15
655.767	-5.15
655.8	6.85
655.833	-3.15
655.865	9.85
655.898	12.85
655.931	7.85
655.964	12.85
655.996	25.85
656.029	34.85
656.062	24.85
656.095	56.85
656.127	84.85
656.16	210.85
656.193	611.85
656.225	979.85
656.258	567.85
656.291	198.85
656.324	158.85
656.356	379.85
656.389	778.85
656.422	686.85
656.454	240.85
656.487	70.85
656.52	31.85
656.552	8.85
656.585	5.85
656.618	11.85
656.65	25.85
656.683	6.85
656.716	2.85
656.748	3.85
656.781	-8.15
656.814	-20.15
656.846	11.85
656.879	1.85
656.912	0.85
656.944	-9.15
656.977	-12.15
657.01	-1.15
657.042	4.85
657.075	8.85
657.108	-23.15
657.14	11.85
657.173	18.85
657.205	28.85
657.238	16.85
657.271	-5.15
657.303	-20.15
657.336	-6.15
657.369	20.85
657.401	7.85
657.434	-17.15
657.466	-3.15
657.499	-9.15
657.532	-17.15
657.564	-7.15
657.597	-1.15
657.629	2.85
657.662	12.85
657.694	-3.15
657.727	-12.15
657.76	18.85
657.792	-6.15
657.825	-18.15
657.857	-3.15
657.89	14.85
657.922	10.85
657.955	-1.15
657.987	-12.15
658.02	3.85
658.053	19.85
658.085	-3.15
658.118	-0.15
658.15	5.85
658.183	25.85
658.215	-4.15
658.248	-4.15
658.28	-8.15
658.313	21.85
658.345	-4.15
658.378	8.85
658.41	-8.15
658.443	9.85
658.475	6.85
658.508	-7.15
658.54	-24.15
658.573	-13.15
658.605	-3.15
658.638	1.85
658.67	-4.15
658.703	-21.15
658.735	-13.15
658.768	-6.15
658.8	-15.15
658.833	7.85
658.865	3.85
658.898	-13.15
658.93	-16.15
658.963	-7.15
658.995	-18.15
659.028	-10.15
659.06	7.85
659.092	4.85
659.125	-23.15
659.157	-12.15
659.19	-4.15
659.222	-3.15
659.255	-11.15
659.287	-2.15
659.32	-16.15
659.352	0.85
659.384	9.85
659.417	-1.15
659.449	6.85
659.482	13.85
659.514	-15.15
659.546	-7.15
659.579	-16.15
659.611	2.85
659.644	-8.15
659.676	-17.15
659.708	-22.15
659.741	-1.15
659.773	1.85
659.806	8.85
659.838	4.85
659.87	4.85
659.903	1.85
659.935	1.85
659.967	-2.15
660	-1.15
660.032	-28.15
660.065	7.85
660.097	-0.15
660.129	2.85
660.162	-20.15
660.194	3.85
660.226	-0.15
660.259	2.85
660.291	-4.15
660.323	3.85
660.356	-0.15
660.388	-8.15
660.42	0.85
660.453	-1.15
660.485	-0.15
660.517	11.85
660.55	0.85
660.582	-9.15
660.614	-0.15
660.647	4.85
660.679	-7.15
660.711	15.85
660.743	6.85
660.776	-7.15
660.808	-2.15
660.84	-17.15
660.873	9.85
660.905	-17.15
660.937	-11.15
660.969	16.85
661.002	10.85
661.034	10.85
661.066	-6.15
661.099	7.85
661.131	19.85
661.163	-7.15
661.195	-19.15
661.228	9.85
661.26	-1.15
661.292	3.85
661.324	8.85
661.357	4.85
661.389	-5.15
661.421	3.85
661.453	-5.15
661.485	1.85
661.518	-6.15
661.55	-10.15
661.582	-9.15
661.614	-4.15
661.647	15.85
661.679	6.85
661.711	-1.15
661.743	-11.15
661.775	-8.15
661.808	15.85
661.84	-5.15
661.872	8.85
661.904	11.85
661.936	-1.15
661.969	8.85
662.001	-0.15
662.033	8.85
662.065	-8.15
662.097	3.85
662.129	2.85
662.162	-0.15
662.194	-0.15
662.226	2.85
662.258	16.85
662.29	-10.15
662.322	-14.15
662.355	-7.15
662.387	6.85
662.419	5.85
662.451	1.85
662.483	2.85
662.515	-8.15
662.547	1.85
662.58	-9.15
662.612	-19.15
662.644	-3.15
662.676	2.85
662.708	19.85
662.74	-12.15
662.772	4.85
662.804	-8.15
662.836	4.85
662.869	6.85
662.901	7.85
662.933	-3.15
662.965	21.85
662.997	10.85
663.029	-12.15
663.061	-16.15
663.093	3.85
663.125	6.85
663.157	8.85
663.189	-1.15
663.221	8.85
663.254	4.85
663.286	11.85
663.318	8.85
663.35	1.85
663.382	-11.15
663.414	8.85
663.446	0.85
663.478	-15.15
663.51	24.85
663.542	7.85
663.574	7.85
663.606	1.85
663.638	-10.15
663.67	-9.15
663.702	3.85
663.734	3.85
663.766	5.85
663.798	-7.15
663.83	-2.15
663.862	10.85
663.894	-5.15
663.926	-2.15
663.958	5.85
663.99	3.85
664.022	-18.15
664.054	-1.15
664.086	-21.15
664.118	-17.15
664.15	-23.15
664.182	-6.15
664.214	-11.15
664.246	2.85
664.278	5.85
664.31	17.85
664.342	4.85
664.374	1.85
664.406	-2.15
664.438	3.85
664.47	12.85
664.502	-6.15
664.534	-2.15
664.566	-8.15
664.598	15.85
664.63	-5.15
664.662	6.85
664.693	-8.15
664.725	2.85
664.757	4.85
664.789	-19.15
664.821	8.85
664.853	16.85
664.885	9.85
664.917	6.85
664.949	17.85
664.981	25.85
665.013	5.85
665.045	-15.15
665.076	0.85
665.108	-0.15
665.14	5.85
665.172	4.85
665.204	-14.15
665.236	0.85
665.268	4.85
665.3	-16.15
665.331	-7.15
665.363	-0.15
665.395	-7.15
665.427	-19.15
665.459	5.85
665.491	-12.15
665.523	6.85
665.555	-5.15
665.586	-5.15
665.618	8.85
665.65	-12.15
665.682	10.85
665.714	14.85
665.746	-7.15
665.777	1.85
665.809	-22.15
665.841	4.85
665.873	5.85
665.905	-3.15
665.937	5.85
665.968	7.85
666	12.85
666.032	6.85
666.064	-20.15
666.096	-16.15
666.127	-3.15
666.159	9.85
666.191	20.85
666.223	7.85
666.255	-7.15
666.286	-3.15
666.318	-4.15
666.35	13.85
666.382	9.85
666.413	-3.15
666.445	-0.15
666.477	-8.15
666.509	2.85
666.54	0.85
666.572	0.85
666.604	8.85
666.636	-3.15
666.667	11.85
666.699	9.85
666.731	8.85
666.763	-14.15
666.794	-1.15
666.826	13.85
666.858	6.85
666.89	6.85
666.921	3.85
666.953	5.85
666.985	22.85
667.017	0.85
667.048	2.85
667.08	5.85
667.112	-13.15
667.143	-5.15
667.175	-6.15
667.207	-0.15
667.238	2.85
667.27	8.85
667.302	-9.15
667.334	-17.15
667.365	8.85
667.397	-6.15
667.429	-14.15
667.46	0.85
667.492	-5.15
667.524	-20.15
667.555	-17.15
667.587	-7.15
667.619	-10.15
667.65	-5.15
667.682	5.85
667.714	3.85
667.745	-4.15
667.777	-1.15
667.808	11.85
667.84	22.85
667.872	9.85
667.903	18.85
667.935	-8.15
667.967	-12.15
667.998	-0.15
668.03	-7.15
668.061	11.85
668.093	-10.15
668.125	16.85
668.156	16.85
668.188	5.85
668.22	-12.15
668.251	5.85
668.283	9.85
668.314	6.85
668.346	-13.15
668.377	-0.15
668.409	2.85
668.441	1.85
668.472	-5.15
668.504	2.85
668.535	17.85
668.567	0.85
668.599	8.85
668.63	-9.15
668.662	-11.15
668.693	0.85
668.725	-2.15
668.756	2.85
668.788	7.85
668.819	-4.15
668.851	15.85
668.882	12.85
668.914	-0.15
668.946	5.85
668.977	-10.15
669.009	-19.15
669.04	-8.15
669.072	11.85
669.103	17.85
669.135	3.85
669.166	13.85
669.198	16.85
669.229	1.85
669.261	5.85
669.292	-10.15
669.324	2.85
669.355	11.85
669.387	-1.15
669.418	4.85
669.45	0.85
669.481	17.85
669.513	15.85
669.544	0.85
669.576	3.85
669.607	13.85
669.639	-1.15
669.67	-3.15
669.701	2.85
669.733	1.85
669.764	8.85
669.796	-7.15
669.827	-7.15
669.859	12.85
669.89	4.85
669.922	18.85
669.953	12.85
669.985	4.85
670.016	15.85
670.047	7.85
670.079	5.85
670.11	7.85
670.142	3.85
670.173	2.85
670.204	-1.15
670.236	10.85
670.267	3.85
670.299	-7.15
670.33	1.85
670.362	11.85
670.393	-19.15
670.424	13.85
670.456	-5.15
670.487	-3.15
670.518	-0.15
670.55	-10.15
670.581	10.85
670.613	7.85
670.644	-6.15
670.675	-1.15
670.707	-6.15
670.738	-1.15
670.769	-8.15
670.801	-7.15
670.832	-6.15
670.864	-0.15
670.895	15.85
670.926	16.85
670.958	6.85
670.989	4.85
671.02	-8.15
671.052	-0.15
671.083	-5.15
671.114	-12.15
671.146	-16.15
671.177	12.85
671.208	-7.15
671.24	-19.15
671.271	-5.15
671.302	-5.15
671.333	-22.15
671.365	0.85
671.396	-8.15
671.427	12.85
671.459	8.85
671.49	17.85
671.521	-4.15
671.553	0.85
671.584	9.85
671.615	-20.15
671.646	-6.15
671.678	-7.15
671.709	-14.15
671.74	-13.15
671.771	2.85
671.803	0.85
671.834	1.85
671.865	5.85
671.896	-2.15
671.928	-2.15
671.959	-10.15
671.99	-15.15
672.021	-8.15
672.053	5.85
672.084	0.85
672.115	12.85
672.146	5.85
672.178	-9.15
672.209	-3.15
672.24	-7.15
672.271	17.85
672.303	8.85
672.334	-9.15
672.365	-15.15
672.396	9.85
672.427	-1.15
672.459	3.85
672.49	20.85
672.521	7.85
672.552	-1.15
672.583	1.85
672.615	-4.15
672.646	10.85
672.677	-3.15
672.708	-2.15
672.739	-7.15
672.77	10.85
672.802	-0.15
672.833	-1.15
672.864	-15.15
672.895	11.85
672.926	0.85
672.957	-8.15
672.989	-1.15
673.02	6.85
673.051	-14.15
673.082	15.85
673.113	9.85
673.144	6.85
673.175	17.85
673.206	-4.15
673.238	-16.15
673.269	-2.15
673.3	-2.15
673.331	16.85
673.362	-7.15
673.393	-7.15
673.424	3.85
673.455	15.85
673.487	-3.15
673.518	-1.15
673.549	-13.15
673.58	9.85
673.611	18.85
673.642	4.85
673.673	-23.15
673.704	3.85
673.735	8.85
673.766	-2.15
673.797	3.85
673.828	11.85
673.86	-6.15
673.891	-21.15
673.922	-9.15
673.953	-24.15
673.984	-0.15
674.015	-0.15
674.046	-7.15
674.077	-2.15
674.108	-13.15
674.139	1.85
674.17	4.85
674.201	-10.15
674.232	-8.15
674.263	-8.15
674.294	-10.15
674.325	-15.15
674.356	9.85
674.387	6.85
674.418	15.85
674.449	6.85
674.48	-6.15
674.511	-0.15
674.542	3.85
674.573	-8.15
674.604	8.85
674.635	0.85
674.666	16.85
674.697	-7.15
674.728	-8.15
674.759	-2.15
674.79	-20.15
674.821	-14.15
674.852	-0.15
674.883	-6.15
674.914	-2.15
674.945	-1.15
674.976	22.85
675.007	-6.15
675.038	-11.15
675.069	7.85
675.1	-5.15
675.131	-1.15
675.162	-10.15
675.193	-10.15
675.224	-5.15
675.254	6.85
675.285	8.85
675.316	20.85
675.347	12.85
675.378	-20.15
675.409	-13.15
675.44	-3.15
675.471	2.85
675.502	-9.15
675.533	-12.15
675.564	-11.15
675.595	-15.15
675.625	19.85
675.656	15.85
675.687	5.85
675.718	-2.15
675.749	14.85
675.78	-5.15
675.811	9.85
675.842	-5.15
675.873	0.85
675.903	-3.15
675.934	11.85
675.965	-2.15
675.996	-1.15
676.027	4.85
676.058	3.85
676.089	-20.15
676.119	7.85
676.15	13.85
676.181	-14.15
676.212	-0.15
676.243	-0.15
676.274	-2.15
676.304	14.85
676.335	-6.15
676.366	-15.15
676.397	1.85
676.428	0.85
676.459	-9.15
676.489	14.85
676.52	8.85
676.551	-10.15
676.582	-16.15
676.613	-1.15
676.643	0.85
676.674	10.85
676.705	7.85
676.736	-0.15
676.767	20.85
676.797	13.85
676.828	6.85
676.859	-0.15
676.89	-3.15
676.92	-4.15
676.951	5.85
676.982	18.85
677.013	-7.15
677.044	25.85
677.074	-5.15
677.105	-5.15
677.136	1.85
677.167	-16.15
677.197	-0.15
677.228	4.85
677.259	-2.15
677.289	-3.15
677.32	-27.15
677.351	-0.15
677.382	11.85
677.412	8.85
677.443	7.85
677.474	1.85
677.505	-11.15
677.535	0.85
677.566	-1.15
677.597	-21.15
677.627	-13.15
677.658	-6.15
677.689	6.85
677.72	3.85
677.75	4.85
677.781	0.85
677.812	11.85
677.842	-12.15
677.873	-2.15
677.904	7.85
677.934	12.85
677.965	-23.15
677.996	-20.15
678.026	-6.15
678.057	3.85
678.088	-13.15
678.118	-13.15
678.149	-9.15
678.18	-8.15
678.21	5.85
678.241	-5.15
678.272	-0.15
678.302	-12.15
678.333	-8.15
678.363	6.85
678.394	11.85
678.425	-12.15
678.455	6.85
678.486	15.85
678.517	-2.15
678.547	1.85
678.578	4.85
678.608	-13.15
678.639	1.85
678.67	5.85
678.7	-1.15
678.731	-6.15
678.761	6.85
678.792	-3.15
678.823	6.85
678.853	-9.15
678.884	-7.15
678.914	8.85
678.945	2.85
678.975	-7.15
679.006	3.85
679.037	0.85
679.067	30.85
679.098	4.85
679.128	-4.15
679.159	-5.15
679.189	-0.15
679.22	-7.15
679.25	-10.15
679.281	-0.15
679.312	-2.15
679.342	-9.15
679.373	33.85
679.403	4.85
679.434	12.85
679.464	-6.15
679.495	-3.15
679.525	-8.15
679.556	-2.15
679.586	6.85
679.617	-1.15
679.647	7.85
679.678	-6.15
679.708	-5.15
679.739	-5.15
679.769	7.85
679.8	-1.15
679.83	-2.15
679.861	8.85
679.891	-0.15
679.922	-25.15
679.952	-18.15
679.983	-3.15
680.013	6.85
680.044	-8.15
680.074	3.85
680.105	6.85
680.135	9.85
680.165	0.85
680.196	2.85
680.226	-12.15
680.257	11.85
680.287	0.85
680.318	-7.15
680.348	-17.15
680.379	-5.15
680.409	-7.15
680.439	-7.15
680.47	4.85
680.5	0.85
680.531	-15.15
680.561	8.85
680.592	9.85
680.622	22.85
680.652	7.85
680.683	8.85
680.713	-5.15
680.744	-12.15
680.774	-10.15
680.804	16.85
680.835	-9.15
680.865	-16.15
680.896	-1.15
680.926	10.85
680.956	-7.15
680.987	13.85
681.017	2.85
681.047	6.85
681.078	-7.15
681.108	3.85
681.139	8.85
681.169	8.85
681.199	-12.15
681.23	3.85
681.26	-9.15
681.29	4.85
681.321	-13.15
681.351	-3.15
681.381	-21.15
681.412	1.85
681.442	6.85
681.472	18.85
681.503	9.85
681.533	-8.15
681.563	-0.15
681.594	-3.15
681.624	-1.15
681.654	-6.15
681.685	-8.15
681.715	-1.15
681.745	13.85
681.775	3.85
681.806	12.85
681.836	-6.15
681.866	-0.15
681.897	2.85
681.927	-15.15
681.957	-16.15
681.987	20.85
682.018	1.85
682.048	-2.15
682.078	6.85
682.109	29.85
682.139	7.85
682.169	-5.15
682.199	-9.15
682.23	-4.15
682.26	-5.15
682.29	-13.15
682.32	-6.15
682.351	3.85
682.381	-0.15
682.411	5.85
682.441	0.85
682.472	-18.15
682.502	-0.15
682.532	-7.15
682.562	7.85
682.592	-11.15
682.623	7.85
682.653	1.85
682.683	-6.15
682.713	11.85
682.743	16.85
682.774	-4.15
682.804	-9.15
682.834	13.85
682.864	3.85
682.894	2.85
682.925	-5.15
682.955	-9.15
682.985	-11.15
683.015	-4.15
683.045	-2.15
683.076	-12.15
683.106	3.85
683.136	-0.15
683.166	-6.15
683.196	-3.15
683.226	-2.15
683.257	4.85
683.287	-8.15
683.317	-12.15
683.347	-1.15
683.377	-2.15
683.407	1.85
683.437	6.85
683.468	16.85
683.498	-12.15
683.528	-3.15
683.558	10.85
683.588	-0.15
683.618	-9.15
683.648	-0.15
683.678	10.85
683.708	11.85
683.739	-4.15
683.769	-12.15
683.799	-13.15
683.829	-9.15
683.859	11.85
683.889	15.85
683.919	0.85
683.949	-5.15
683.979	-11.15
684.009	-6.15
684.039	-15.15
684.07	1.85
684.1	-2.15
684.13	3.85
684.16	4.85
684.19	-16.15
684.22	-16.15
684.25	-0.15
684.28	-9.15
684.31	7.85
684.34	8.85
684.37	-2.15
684.4	9.85
684.43	7.85
684.46	8.85
684.49	11.85
684.52	6.85
684.55	7.85
684.58	7.85
684.61	-0.15
684.64	-0.15
684.67	4.85
684.7	-3.15
684.73	-2.15
684.76	6.85
684.79	9.85
684.82	15.85
684.85	-4.15
684.88	10.85
684.91	3.85
684.94	-4.15
684.97	-9.15
685	-9.15
685.03	-16.15
685.06	-12.15
685.09	-1.15
685.12	10.85
685.15	-16.15
685.18	10.85
685.21	0.85
685.24	17.85
685.27	8.85
685.3	3.85
685.33	-1.15
685.36	12.85
685.39	-0.15
685.42	-2.15
685.45	8.85
685.48	-0.15
685.51	-7.15
685.54	12.85
685.569	15.85
685.599	3.85
685.629	0.85
685.659	-0.15
685.689	14.85
685.719	5.85
685.749	-3.15
685.779	6.85
685.809	17.85
685.839	11.85
685.869	-6.15
685.898	8.85
685.928	-2.15
685.958	8.85
685.988	3.85
686.018	7.85
686.048	1.85
686.078	5.85
686.108	2.85
686.137	0.85
686.167	13.85
686.197	-2.15
686.227	-6.15
686.257	24.85
686.287	16.85
686.317	-9.15
686.346	3.85
686.376	-1.15
686.406	-7.15
686.436	9.85
686.466	11.85
686.496	14.85
686.525	7.85
686.555	-1.15
686.585	5.85
686.615	7.85
686.645	6.85
686.675	2.85
686.704	2.85
686.734	0.85
686.764	-31.15
686.794	7.85
686.824	-9.15
686.853	11.85
686.883	15.85
686.913	11.85
686.943	5.85
686.973	3.85
687.002	-0.15
687.032	8.85
687.062	8.85
687.092	13.85
687.121	-15.15
687.151	4.85
687.181	-7.15
687.211	9.85
687.24	3.85
687.27	4.85
687.3	4.85
687.33	8.85
687.359	-5.15
687.389	2.85
687.419	1.85
687.449	-9.15
687.478	18.85
687.508	4.85
687.538	8.85
687.568	-6.15
687.597	-7.15
687.627	8.85
687.657	5.85
687.686	17.85
687.716	28.85
687.746	-9.15
687.776	-13.15
687.805	21.85
687.835	19.85
687.865	12.85
687.894	-0.15
687.924	-0.15
687.954	3.85
687.983	-5.15
688.013	13.85
688.043	3.85
688.072	1.85
688.102	1.85
688.132	-32.15
688.161	-9.15
688.191	2.85
688.221	12.85
688.25	-5.15
688.28	0.85
688.31	2.85
688.339	-18.15
688.369	-17.15
688.399	-14.15
688.428	2.85
688.458	2.85
688.488	-7.15
688.517	13.85
688.547	-6.15
688.576	35.85
688.606	26.85
688.636	-18.15
688.665	8.85
688.695	-0.15
688.725	-11.15
688.754	9.85
688.784	10.85
688.813	8.85
688.843	-2.15
688.873	-11.15
688.902	-6.15
688.932	12.85
688.961	0.85
688.991	7.85
689.02	2.85
689.05	-2.15
689.08	17.85
689.109	13.85
689.139	-29.15
689.168	3.85
689.198	-5.15
689.227	-5.15
689.257	7.85
689.287	5.85
689.316	1.85
689.346	-6.15
689.375	-9.15
689.405	2.85
689.434	-1.15
689.464	7.85
689.493	-1.15
689.523	-6.15
689.552	-13.15
689.582	1.85
689.611	-4.15
689.641	10.85
689.67	9.85
689.7	15.85
689.73	21.85
689.759	4.85
689.789	26.85
689.818	1.85
689.848	17.85
689.877	1.85
689.906	-5.15
689.936	-9.15
689.965	3.85
689.995	10.85
690.024	2.85
690.054	-4.15
690.083	8.85
690.113	3.85
690.142	-5.15
690.172	10.85
690.201	2.85
690.231	10.85
690.26	8.85
690.29	4.85
690.319	2.85
690.348	-5.15
690.378	-3.15
690.407	3.85
690.437	1.85
690.466	8.85
690.496	4.85
690.525	6.85
690.555	2.85
690.584	-6.15
690.613	-4.15
690.643	1.85
690.672	20.85
690.702	18.85
690.731	0.85
690.76	5.85
690.79	-3.15
690.819	0.85
690.849	2.85
690.878	-10.15
690.907	6.85
690.937	27.85
690.966	26.85
690.996	4.85
691.025	0.85
691.054	2.85
691.084	10.85
691.113	7.85
691.142	-4.15
691.172	-4.15
691.201	5.85
691.23	6.85
691.26	14.85
691.289	16.85
691.319	-7.15
691.348	12.85
691.377	14.85
691.407	-0.15
691.436	7.85
691.465	-9.15
691.495	-7.15
691.524	-12.15
691.553	-20.15
691.583	-9.15
691.612	25.85
691.641	15.85
691.67	-6.15
691.7	15.85
691.729	-3.15
691.758	10.85
691.788	7.85
691.817	1.85
691.846	-0.15
691.876	10.85
691.905	3.85
691.934	2.85
691.963	17.85
691.993	-1.15
692.022	-7.15
692.051	-10.15
692.081	16.85
692.11	23.85
692.139	15.85
692.168	13.85
692.198	10.85
692.227	7.85
692.256	9.85
692.285	7.85
692.315	-4.15
692.344	1.85
692.373	7.85
692.402	-22.15
692.432	-4.15
692.461	3.85
692.49	1.85
692.519	-2.15
692.548	3.85
692.578	-3.15
692.607	-5.15
692.636	-10.15
692.665	-3.15
692.694	2.85
692.724	-0.15
692.753	13.85
692.782	18.85
692.811	-2.15
692.84	-14.15
692.87	10.85
692.899	1.85
692.928	5.85
692.957	15.85
692.986	4.85
693.016	-0.15
693.045	16.85
693.074	0.85
693.103	-0.15
693.132	9.85
693.161	10.85
693.191	4.85
693.22	4.85
693.249	11.85
693.278	-11.15
693.307	4.85
693.336	-12.15
693.365	-8.15
693.395	9.85
693.424	-6.15
693.453	11.85
693.482	0.85
693.511	4.85
693.54	17.85
693.569	20.85
693.598	11.85
693.628	12.85
693.657	23.85
693.686	15.85
693.715	0.85
693.744	19.85
693.773	17.85
693.802	1.85
693.831	-10.15
693.86	3.85
693.889	-3.15
693.919	4.85
693.948	-3.15
693.977	3.85
694.006	3.85
694.035	11.85
694.064	-2.15
694.093	12.85
694.122	-0.15
694.151	-7.15
694.18	2.85
694.209	13.85
694.238	7.85
694.267	18.85
694.296	-0.15
694.325	0.85
694.354	9.85
694.383	14.85
694.412	-2.15
694.441	3.85
694.471	0.85
694.5	-10.15
694.529	11.85
694.558	15.85
694.587	11.85
694.616	8.85
694.645	10.85
694.674	25.85
694.703	10.85
694.732	-3.15
694.761	1.85
694.79	19.85
694.819	-12.15
694.848	4.85
694.877	13.85
694.906	15.85
694.935	-0.15
694.963	15.85
694.992	1.85
695.021	0.85
695.05	-5.15
695.079	-4.15
695.108	0.85
695.137	15.85
695.166	5.85
695.195	3.85
695.224	13.85
695.253	8.85
695.282	13.85
695.311	19.85
695.34	10.85
695.369	15.85
695.398	10.85
695.427	18.85
695.456	13.85
695.485	7.85
695.513	-0.15
695.542	4.85
695.571	4.85
695.6	10.85
695.629	7.85
695.658	13.85
695.687	10.85
695.716	-5.15
695.745	16.85
695.774	-1.15
695.802	-0.15
695.831	4.85
695.86	4.85
695.889	-2.15
695.918	9.85
695.947	4.85
695.976	-1.15
696.005	-0.15
696.033	16.85
696.062	17.85
696.091	-8.15
696.12	-0.15
696.149	16.85
696.178	-6.15
696.207	2.85
696.235	-0.15
696.264	3.85
696.293	14.85
696.322	5.85
696.351	0.85
696.38	5.85
696.408	5.85
696.437	-11.15
696.466	14.85
696.495	22.85
696.524	10.85
696.553	8.85
696.581	8.85
696.61	-0.15
696.639	14.85
696.668	2.85
696.697	11.85
696.725	-3.15
696.754	-2.15
696.783	-5.15
696.812	0.85
696.84	29.85
696.869	-1.15
696.898	7.85
696.927	8.85
696.956	16.85
696.984	0.85
697.013	11.85
697.042	2.85
697.071	11.85
697.099	11.85
697.128	14.85
697.157	13.85
697.186	10.85
697.214	4.85
697.243	-0.15
697.272	8.85
697.301	11.85
697.329	7.85
697.358	4.85
697.387	28.85
697.415	9.85
697.444	3.85
697.473	9.85
697.502	-8.15
697.53	5.85
697.559	5.85
697.588	12.85
697.616	7.85
697.645	6.85
697.674	22.85
697.703	0.85
697.731	15.85
697.76	-3.15
697.789	-5.15
697.817	13.85
697.846	5.85
697.875	0.85
697.903	19.85
697.932	12.85
697.961	1.85
697.989	22.85
698.018	27.85
698.047	8.85
698.075	13.85
698.104	-4.15
698.133	4.85
698.161	-0.15
698.19	15.85
698.218	2.85
698.247	-0.15
698.276	4.85
698.304	23.85
698.333	-0.15
698.362	2.85
698.39	10.85
698.419	6.85
698.447	7.85
698.476	0.85
698.505	2.85
698.533	0.85
698.562	5.85
698.591	-7.15
698.619	-1.15
698.648	8.85
698.676	7.85
698.705	1.85
698.733	-6.15
698.762	8.85
698.791	3.85
698.819	-1.15
698.848	3.85
698.876	24.85
698.905	24.85
698.933	-2.15
698.962	8.85
698.991	-3.15
699.019	27.85
699.048	13.85
699.076	-2.15
699.105	-16.15
699.133	-6.15
699.162	11.85
699.19	24.85
699.219	10.85
699.248	1.85
699.276	6.85
699.305	-8.15
699.333	4.85
699.362	-0.15
699.39	7.85
699.419	-4.15
699.447	1.85
699.476	2.85
699.504	-10.15
699.533	8.85
699.561	8.85
699.59	13.85
699.618	7.85
699.647	4.85
699.675	3.85
699.704	18.85
699.732	19.85
699.761	3.85
699.789	6.85
699.818	1.85
699.846	3.85
699.874	10.85
699.903	7.85
699.931	-5.15
699.96	8.85
699.988	8.85
700.017	0.85
700.045	-5.15
700.074	-4.15
700.102	9.85
700.13	-7.15
700.159	7.85
700.187	8.85
700.216	6.85
700.244	-5.15
700.273	8.85
700.301	3.85
700.329	6.85
700.358	7.85
700.386	11.85
700.415	7.85
700.443	3.85
700.472	-0.15
700.5	2.85
700.528	11.85
700.557	2.85
700.585	1.85
700.614	-5.15
700.642	16.85
700.67	10.85
700.699	25.85
700.727	11.85
700.755	11.85
700.784	6.85
700.812	0.85
700.841	9.85
700.869	10.85
700.897	-2.15
700.926	3.85
700.954	14.85
700.982	15.85
701.011	2.85
701.039	9.85
701.067	3.85
701.096	15.85
701.124	3.85
701.152	0.85
701.181	-17.15
701.209	-16.15
701.237	5.85
701.266	-12.15
701.294	0.85
701.322	3.85
701.351	7.85
701.379	-4.15
701.407	0.85
701.435	-20.15
701.464	0.85
701.492	20.85
701.52	-10.15
701.549	-9.15
701.577	-14.15
701.605	-5.15
701.634	12.85
701.662	19.85
701.69	-3.15
701.718	-8.15
701.747	16.85
701.775	-2.15
701.803	-6.15
701.831	19.85
701.86	-6.15
701.888	5.85
701.916	15.85
701.944	6.85
701.973	-5.15
702.001	-11.15
702.029	-3.15
702.057	0.85
702.086	-2.15
702.114	-7.15
702.142	-10.15
702.17	-1.15
702.199	3.85
702.227	-2.15
702.255	-6.15
702.283	-0.15
702.311	0.85
702.34	9.85
702.368	3.85
702.396	13.85
702.424	-0.15
702.452	1.85
702.481	-8.15
702.509	-7.15
702.537	9.85
702.565	-6.15
702.593	-19.15
702.621	2.85
702.65	0.85
702.678	7.85
702.706	17.85
702.734	-4.15
702.762	5.85
702.79	21.85
702.819	9.85
702.847	9.85
702.875	16.85
702.903	16.85
702.931	-5.15
702.959	7.85
702.988	4.85
703.016	-5.15
703.044	-0.15
703.072	10.85
703.1	4.85
703.128	-1.15
703.156	16.85
703.184	-3.15
703.212	8.85
703.241	14.85
703.269	11.85
703.297	7.85
703.325	-4.15
703.353	-9.15
703.381	-3.15
703.409	12.85
703.437	-7.15
703.465	-2.15
703.493	2.85
703.522	10.85
703.55	6.85
703.578	-1.15
703.606	-6.15
703.634	-1.15
703.662	-8.15
703.69	-0.15
703.718	6.85
703.746	15.85
703.774	-5.15
703.802	6.85
703.83	-8.15
703.858	-5.15
703.886	-8.15
703.914	-3.15
703.942	5.85
703.97	-15.15
703.998	7.85
704.027	4.85
704.055	5.85
704.083	18.85
704.111	-0.15
704.139	-3.15
704.167	1.85
704.195	-0.15
704.223	-9.15
704.251	13.85
704.279	5.85
704.307	7.85
704.335	-16.15
704.363	3.85
704.391	-1.15
704.419	-11.15
704.447	-4.15
704.475	-0.15
704.503	-2.15
704.531	14.85
704.558	14.85
704.586	14.85
704.614	5.85
704.642	11.85
704.67	-0.15
704.698	-4.15
704.726	3.85
704.754	-1.15
704.782	-4.15
704.81	-2.15
704.838	7.85
704.866	5.85
704.894	-9.15
704.922	-10.15
704.95	2.85
704.978	2.85
705.006	3.85
705.034	23.85
705.061	-4.15
705.089	0.85
705.117	-17.15
705.145	4.85
705.173	-18.15
705.201	16.85
705.229	20.85
705.257	7.85
705.285	10.85
705.313	3.85
705.34	-11.15
705.368	-2.15
705.396	16.85
705.424	-6.15
705.452	-16.15
705.48	3.85
705.508	-0.15
705.536	8.85
705.563	3.85
705.591	-3.15
705.619	-2.15
705.647	-3.15
705.675	4.85
705.703	-5.15
705.731	-4.15
705.758	8.85
705.786	1.85
705.814	14.85
705.842	12.85
705.87	10.85
705.898	15.85
705.925	-0.15
705.953	-8.15
705.981	-13.15
706.009	-13.15
706.037	12.85
706.065	-5.15
706.092	-15.15
706.12	-13.15
706.148	-4.15
706.176	-1.15
706.204	11.85
706.231	12.85
706.259	-10.15
706.287	-9.15
706.315	-4.15
706.342	-10.15
706.37	14.85
706.398	0.85
706.426	-0.15
706.454	0.85
706.481	11.85
706.509	7.85
706.537	-15.15
706.565	-15.15
706.592	13.85
706.62	0.85
706.648	5.85
706.676	-15.15
706.703	6.85
706.731	-0.15
706.759	-4.15
706.787	-2.15
706.814	-2.15
706.842	-6.15
706.87	-3.15
706.897	4.85
706.925	-15.15
706.953	5.85
706.981	0.85
707.008	6.85
707.036	-7.15
707.064	-11.15
707.091	-10.15
707.119	4.85
707.147	-13.15
707.174	-12.15
707.202	15.85
707.23	8.85
707.258	-5.15
707.285	-13.15
707.313	-4.15
707.341	-6.15
707.368	3.85
707.396	-0.15
707.424	4.85
707.451	4.85
707.479	-11.15
707.507	-4.15
707.534	-19.15
707.562	-3.15
707.59	-3.15
707.617	-6.15
707.645	0.85
707.672	7.85
707.7	2.85
707.728	7.85
707.755	-0.15
707.783	2.85
707.811	6.85
707.838	3.85
707.866	-0.15
707.893	-18.15
707.921	-12.15
707.949	-4.15
707.976	6.85
708.004	0.85
708.031	0.85
708.059	-16.15
708.087	-0.15
708.114	-1.15
708.142	10.85
708.169	-1.15
708.197	-23.15
708.225	-3.15
708.252	-12.15
708.28	0.85
708.307	3.85
708.335	4.85
708.362	-10.15
708.39	-14.15
708.418	-2.15
708.445	-6.15
708.473	6.85
708.5	-9.15
708.528	-2.15
708.555	-3.15
708.583	-15.15
708.61	-13.15
708.638	13.85
708.665	-24.15
708.693	9.85
708.72	-6.15
708.748	4.85
708.776	-13.15
708.803	14.85
708.831	-14.15
708.858	4.85
708.886	-1.15
708.913	12.85
708.941	-4.15
708.968	9.85
708.996	2.85
709.023	32.85
709.051	-13.15
709.078	-9.15
709.105	-6.15
709.133	-3.15
709.16	-5.15
709.188	8.85
709.215	10.85
709.243	11.85
709.27	-3.15
709.298	-4.15
709.325	-11.15
709.353	-2.15
709.38	1.85
709.408	9.85
709.435	3.85
709.462	6.85
709.49	-3.15
709.517	1.85
709.545	-1.15
709.572	0.85
709.6	6.85
709.627	0.85
709.655	-17.15
709.682	-22.15
709.709	-6.15
709.737	-2.15
709.764	-13.15
709.792	14.85
709.819	13.85
709.846	-7.15
709.874	-11.15
709.901	-0.15
709.929	11.85
709.956	-22.15
709.983	-12.15
710.011	-12.15
710.038	-9.15
710.066	-4.15
710.093	3.85
710.12	1.85
710.148	-20.15
710.175	-12.15
710.202	3.85
710.23	4.85
710.257	-4.15
710.284	7.85
710.312	0.85
710.339	7.85
710.366	3.85
710.394	-17.15
710.421	0.85
710.448	3.85
710.476	-0.15
710.503	-0.15
710.53	11.85
710.558	13.85
710.585	14.85
710.612	-0.15
710.64	2.85
710.667	-2.15
710.694	-3.15
710.722	4.85
710.749	0.85
710.776	4.85
710.804	-1.15
710.831	-2.15
710.858	6.85
710.885	-1.15
710.913	-3.15
710.94	10.85
710.967	-9.15
710.995	7.85
711.022	-2.15
711.049	7.85
711.076	-3.15
711.104	-11.15
711.131	-20.15
711.158	-0.15
711.185	20.85
711.213	-18.15
711.24	-23.15
711.267	-7.15
711.294	-1.15
711.322	7.85
711.349	-1.15
711.376	-6.15
711.403	-10.15
711.431	-2.15
711.458	-6.15
711.485	-9.15
711.512	5.85
711.54	9.85
711.567	-1.15
711.594	-16.15
711.621	3.85
711.648	3.85
711.676	3.85
711.703	12.85
711.73	-11.15
711.757	10.85
711.784	0.85
711.812	3.85
711.839	-9.15
711.866	-9.15
711.893	-5.15
711.92	-3.15
711.947	4.85
711.975	13.85
712.002	6.85
712.029	10.85
712.056	-3.15
712.083	11.85
712.11	-6.15
712.138	-3.15
712.165	2.85
712.192	0.85
712.219	-1.15
712.246	2.85
712.273	1.85
712.3	-4.15
712.328	-0.15
712.355	4.85
712.382	4.85
712.409	13.85
712.436	0.85
712.463	15.85
712.49	4.85
712.517	5.85
712.544	-15.15
712.572	9.85
712.599	-0.15
712.626	0.85
712.653	3.85
712.68	-8.15
712.707	9.85
712.734	10.85
712.761	-20.15
712.788	0.85
712.815	-1.15
712.842	3.85
712.87	-2.15
712.897	-9.15
712.924	-5.15
712.951	18.85
712.978	7.85
713.005	23.85
713.032	7.85
713.059	-10.15
713.086	-10.15
713.113	-7.15
713.14	-7.15
713.167	5.85
713.194	16.85
713.221	-3.15
713.248	-0.15
713.275	-9.15
713.302	-5.15
713.329	-2.15
713.356	2.85
713.383	-8.15
713.41	9.85
713.437	-5.15
713.464	1.85
713.491	20.85
713.518	6.85
713.545	-4.15
713.572	2.85
713.599	4.85
713.626	0.85
713.653	9.85
713.68	-0.15
713.707	9.85
713.734	1.85
713.761	9.85
713.788	2.85
713.815	6.85
713.842	10.85
713.869	-4.15
713.896	8.85
713.923	15.85
713.95	-4.15
713.977	-9.15
714.004	-16.15
714.031	-7.15
714.058	-6.15
714.085	-2.15
714.112	15.85
714.139	-1.15
714.165	0.85
714.192	-9.15
714.219	3.85
714.246	3.85
714.273	4.85
714.3	-6.15
714.327	4.85
714.354	11.85
714.381	7.85
714.408	-11.15
714.435	-6.15
714.461	-0.15
714.488	24.85
714.515	-0.15
714.542	-6.15
714.569	0.85
714.596	-9.15
714.623	-4.15
714.65	-16.15
714.677	-6.15
714.703	2.85
714.73	19.85
714.757	4.85
714.784	10.85
714.811	-2.15
714.838	8.85
714.865	-4.15
714.891	0.85
714.918	7.85
714.945	-16.15
714.972	9.85
714.999	8.85
715.026	2.85
715.052	20.85
715.079	0.85
715.106	5.85
715.133	-5.15
715.16	-11.15
715.187	10.85
715.213	2.85
715.24	-22.15
715.267	-10.15
715.294	-9.15
715.321	-10.15
715.347	-15.15
715.374	-20.15
715.401	-14.15
715.428	1.85
715.455	-1.15
715.481	-8.15
715.508	9.85
715.535	0.85
715.562	13.85
715.588	18.85
715.615	14.85
715.642	-0.15
715.669	25.85
715.695	13.85
715.722	2.85
715.749	6.85
715.776	14.85
715.802	4.85
715.829	-3.15
715.856	-13.15
715.883	10.85
715.909	-13.15
715.936	-0.15
715.963	-1.15
715.99	-1.15
716.016	14.85
716.043	4.85
716.07	-9.15
716.096	-13.15
716.123	4.85
716.15	-3.15
716.177	2.85
716.203	4.85
716.23	2.85
716.257	0.85
716.283	1.85
716.31	7.85
716.337	3.85
716.363	-12.15
716.39	9.85
716.417	13.85
716.443	0.85
716.47	7.85
716.497	14.85
716.523	8.85
716.55	2.85
716.577	10.85
716.603	-13.15
716.63	-4.15
716.657	8.85
716.683	-0.15
716.71	-3.15
716.737	2.85
716.763	3.85
716.79	12.85
716.817	17.85
716.843	9.85
716.87	-16.15
716.897	-6.15
716.923	14.85
716.95	-3.15
716.976	-6.15
717.003	0.85
717.03	11.85
717.056	7.85
717.083	14.85
717.109	-1.15
717.136	15.85
717.163	-0.15
717.189	12.85
717.216	-3.15
717.242	-9.15
717.269	-9.15
717.296	7.85
717.322	24.85
717.349	23.85
717.375	2.85
717.402	-1.15
717.428	7.85
717.455	7.85
717.481	10.85
717.508	-0.15
717.535	-3.15
717.561	-7.15
717.588	-8.15
717.614	0.85
717.641	-2.15
717.667	6.85
717.694	-1.15
717.72	-0.15
717.747	5.85
717.773	0.85
717.8	17.85
717.826	7.85
717.853	7.85
717.88	10.85
717.906	8.85
717.933	24.85
717.959	15.85
717.986	2.85
718.012	10.85
718.039	16.85
718.065	20.85
718.092	3.85
718.118	-4.15
718.144	-11.15
718.171	9.85
718.197	12.85
718.224	6.85
718.25	6.85
718.277	6.85
718.303	4.85
718.33	-3.15
718.356	-9.15
718.383	-22.15
718.409	-7.15
718.436	0.85
718.462	9.85
718.489	3.85
718.515	9.85
718.541	20.85
718.568	19.85
718.594	5.85
718.621	8.85
718.647	7.85
718.674	10.85
718.7	-0.15
718.726	7.85
718.753	5.85
718.779	5.85
718.806	1.85
718.832	-9.15
718.858	8.85
718.885	-0.15
718.911	7.85
718.938	17.85
718.964	4.85
718.99	-2.15
719.017	-1.15
719.043	12.85
719.07	10.85
719.096	-10.15
719.122	6.85
719.149	-0.15
719.175	-0.15
719.201	9.85
719.228	-0.15
719.254	5.85
719.281	2.85
719.307	-6.15
719.333	0.85
719.36	-0.15
719.386	-3.15
719.412	8.85
719.439	-11.15
719.465	-0.15
719.491	-3.15
719.518	3.85
719.544	2.85
719.57	19.85
719.597	11.85
719.623	9.85
719.649	9.85
719.675	3.85
719.702	-9.15
719.728	2.85
719.754	-3.15
719.781	-13.15
719.807	-5.15
719.833	0.85
719.86	11.85
719.886	-2.15
719.912	1.85
719.938	-13.15
719.965	7.85
719.991	12.85
720.017	13.85
720.044	1.85
720.07	1.85
720.096	12.85
720.122	3.85
720.149	20.85
720.175	38.85
720.201	-3.15
720.227	-7.15
720.254	-3.15
720.28	8.85
720.306	-9.15
720.332	-4.15
720.359	-3.15
720.385	11.85
720.411	0.85
720.437	10.85
720.463	5.85
720.49	19.85
720.516	6.85
720.542	-8.15
720.568	19.85
720.595	27.85
720.621	2.85
720.647	5.85
720.673	-0.15
720.699	13.85
720.725	12.85
720.752	21.85
720.778	13.85
720.804	2.85
720.83	6.85
720.856	-8.15
720.883	-5.15
720.909	7.85
720.935	-5.15
720.961	10.85
720.987	-3.15
721.013	6.85
721.04	-7.15
721.066	2.85
721.092	-3.15
721.118	7.85
721.144	3.85
721.17	0.85
721.196	0.85
721.223	7.85
721.249	-3.15
721.275	34.85
721.301	1.85
721.327	13.85
721.353	8.85
721.379	1.85
721.405	16.85
721.432	23.85
721.458	-2.15
721.484	3.85
721.51	-12.15
721.536	11.85
721.562	4.85
721.588	-8.15
721.614	-25.15
721.64	-2.15
721.666	-0.15
721.693	10.85
721.719	-5.15
721.745	-0.15
721.771	-16.15
721.797	-3.15
721.823	12.85
721.849	18.85
721.875	21.85
721.901	13.85
721.927	-2.15
721.953	-11.15
721.979	-2.15
722.005	1.85
722.031	-10.15
722.057	18.85
722.083	-7.15
722.109	-4.15
722.135	-4.15
722.161	9.85
722.187	0.85
722.214	-0.15
722.24	-16.15
722.266	-6.15
722.292	-2.15
722.318	2.85
722.344	2.85
722.37	23.85
722.396	12.85
722.422	4.85
722.448	-4.15
722.474	1.85
722.5	-6.15
722.526	-4.15
722.552	4.85
722.578	6.85
722.603	-5.15
722.629	6.85
722.655	5.85
722.681	7.85
722.707	-2.15
722.733	-1.15
722.759	-1.15
722.785	-7.15
722.811	1.85
722.837	3.85
722.863	1.85
722.889	0.85
722.915	-1.15
722.941	5.85
722.967	10.85
722.993	16.85
723.019	10.85
723.045	18.85
723.071	6.85
723.097	-0.15
723.122	-16.15
723.148	-3.15
723.174	-3.15
723.2	3.85
723.226	13.85
723.252	-3.15
723.278	-3.15
723.304	-16.15
723.33	-2.15
723.356	-7.15
723.381	-10.15
723.407	-18.15
723.433	9.85
723.459	-8.15
723.485	-4.15
723.511	7.85
723.537	3.85
723.563	0.85
723.588	2.85
723.614	-0.15
723.64	5.85
723.666	-2.15
723.692	8.85
723.718	-3.15
723.744	-4.15
723.769	-11.15
723.795	-10.15
723.821	15.85
723.847	4.85
723.873	-2.15
723.899	7.85
723.924	12.85
723.95	1.85
723.976	-10.15
724.002	-3.15
724.028	8.85
724.053	-6.15
724.079	-19.15
724.105	17.85
724.131	-3.15
724.157	4.85
724.182	9.85
724.208	10.85
724.234	3.85
724.26	-1.15
724.286	9.85
724.311	-8.15
724.337	1.85
724.363	-4.15
724.389	-4.15
724.415	-9.15
724.44	27.85
724.466	11.85
724.492	0.85
724.518	6.85
724.543	1.85
724.569	-2.15
724.595	16.85
724.621	3.85
724.646	5.85
724.672	-8.15
724.698	-5.15
724.723	3.85
724.749	-7.15
724.775	-0.15
724.801	0.85
724.826	-4.15
724.852	-3.15
724.878	-4.15
724.904	-10.15
724.929	-4.15
724.955	-20.15
724.981	-1.15
725.006	-6.15
725.032	6.85
725.058	1.85
725.083	-5.15
725.109	-1.15
725.135	-10.15
725.161	0.85
725.186	-4.15
725.212	3.85
725.238	14.85
725.263	3.85
725.289	0.85
725.315	-18.15
725.34	3.85
725.366	18.85
725.392	3.85
725.417	12.85
725.443	6.85
725.468	8.85
725.494	4.85
725.52	-0.15
725.545	-4.15
725.571	-4.15
725.597	-11.15
725.622	-9.15
725.648	3.85
725.674	18.85
725.699	3.85
725.725	-12.15
725.75	11.85
725.776	6.85
725.802	-3.15
725.827	-3.15
725.853	-4.15
725.878	-8.15
725.904	-5.15
725.93	0.85
725.955	-16.15
725.981	0.85
726.006	3.85
726.032	14.85
726.057	2.85
726.083	3.85
726.109	7.85
726.134	-4.15
726.16	-8.15
726.185	8.85
726.211	-0.15
726.236	10.85
726.262	8.85
726.288	8.85
726.313	-3.15
726.339	14.85
726.364	13.85
726.39	17.85
726.415	3.85
726.441	-0.15
726.466	-1.15
726.492	0.85
726.517	10.85
726.543	-9.15
726.568	-7.15
726.594	0.85
726.619	14.85
726.645	0.85
726.67	6.85
726.696	19.85
726.721	9.85
726.747	-6.15
726.772	8.85
726.798	-0.15
726.823	4.85
726.849	-3.15
726.874	2.85
726.9	22.85
726.925	5.85
726.951	-3.15
726.976	4.85
727.002	7.85
727.027	13.85
727.053	27.85
727.078	3.85
727.104	6.85
727.129	-10.15
727.155	-8.15
727.18	6.85
727.205	-0.15
727.231	-0.15
727.256	-2.15
727.282	5.85
727.307	19.85
727.333	7.85
727.358	-2.15
727.383	-16.15
727.409	-12.15
727.434	-3.15
727.46	-3.15
727.485	17.85
727.511	-3.15
727.536	-21.15
727.561	17.85
727.587	10.85
727.612	-1.15
727.637	-4.15
727.663	-9.15
727.688	23.85
727.714	-22.15
727.739	-8.15
727.764	2.85
727.79	-3.15
727.815	7.85
727.841	11.85
727.866	17.85
727.891	8.85
727.917	0.85
727.942	-12.15
727.967	5.85
727.993	-4.15
728.018	-3.15
728.043	-1.15
728.069	8.85
728.094	11.85
728.119	2.85
728.145	8.85
728.17	4.85
728.195	8.85
728.221	8.85
728.246	-12.15
728.271	-18.15
728.297	1.85
728.322	1.85
728.347	-5.15
728.373	-13.15
728.398	-6.15
728.423	-21.15
728.448	-7.15
728.474	6.85
728.499	9.85
728.524	-1.15
728.55	-6.15
728.575	-6.15
728.6	8.85
728.625	7.85
728.651	16.85
728.676	-0.15
728.701	3.85
728.727	2.85
728.752	-9.15
728.777	18.85
728.802	7.85
728.828	9.85
728.853	-5.15
728.878	3.85
728.903	-8.15
728.929	-3.15
728.954	-13.15
728.979	16.85
729.004	-2.15
729.03	-2.15
729.055	23.85
729.08	-9.15
729.105	-4.15
729.13	7.85
729.156	9.85
729.181	-7.15
729.206	-28.15
729.231	-1.15
729.256	7.85
729.282	9.85
729.307	2.85
729.332	-3.15
729.357	-12.15
729.382	-0.15
729.408	-1.15
729.433	3.85
729.458	-6.15
729.483	6.85
729.508	20.85
729.533	0.85
729.559	2.85
729.584	-13.15
729.609	5.85
729.634	2.85
729.659	-7.15
729.684	-9.15
729.71	19.85
729.735	-3.15
729.76	-10.15
729.785	-18.15
729.81	0.85
729.835	-11.15
729.86	-13.15
729.886	10.85
729.911	5.85
729.936	-13.15
729.961	5.85
729.986	-5.15
730.011	4.85
730.036	-4.15
730.061	8.85
730.086	3.85
730.112	0.85
730.137	13.85
730.162	-5.15
730.187	-5.15
730.212	3.85
730.237	-12.15
730.262	-13.15
730.287	-2.15
730.312	18.85
730.337	-0.15
730.362	-0.15
730.387	-0.15
730.413	-15.15
730.438	-7.15
730.463	3.85
730.488	-19.15
730.513	4.85
730.538	-1.15
730.563	4.85
730.588	4.85
730.613	2.85
730.638	-1.15
730.663	10.85
730.688	24.85
730.713	4.85
730.738	-7.15
730.763	-4.15
730.788	-13.15
730.813	6.85
730.838	-1.15
730.863	0.85
730.888	-16.15
730.913	-13.15
730.938	-10.15
730.963	-1.15
730.988	16.85
731.013	6.85
731.038	4.85
731.063	3.85
731.088	18.85
731.113	-8.15
731.138	-12.15
731.163	0.85
731.188	-7.15
731.213	-10.15
731.238	2.85
731.263	-15.15
731.288	-10.15
731.313	-4.15
731.338	-1.15
731.363	-9.15
731.388	3.85
731.413	2.85
731.438	-5.15
731.463	-0.15
731.487	-16.15
731.512	-6.15
731.537	-10.15
731.562	-5.15
731.587	2.85
731.612	-4.15
731.637	-8.15
731.662	-1.15
731.687	-22.15
731.712	-16.15
731.737	0.85
731.762	7.85
731.786	18.85
731.811	6.85
731.836	2.85
731.861	2.85
731.886	-1.15
731.911	12.85
731.936	12.85
731.961	-4.15
731.986	-16.15
732.01	-1.15
732.035	-1.15
732.06	15.85
732.085	-0.15
732.11	0.85
732.135	-26.15
732.16	13.85
732.184	10.85
732.209	3.85
732.234	2.85
732.259	7.85
732.284	27.85
732.309	4.85
732.334	-5.15
732.358	-13.15
732.383	-15.15
732.408	-4.15
732.433	-1.15
732.458	-3.15
732.482	-9.15
732.507	-9.15
732.532	-18.15
732.557	5.85
732.582	3.85
732.607	-0.15
732.631	-17.15
732.656	-20.15
732.681	-10.15
732.706	8.85
732.73	-0.15
732.755	-16.15
732.78	0.85
732.805	0.85
732.83	-5.15
732.854	3.85
732.879	11.85
732.904	-5.15
732.929	6.85
732.953	7.85
732.978	14.85
733.003	-12.15
733.028	-19.15
733.052	10.85
733.077	0.85
733.102	4.85
733.127	3.85
733.151	-8.15
733.176	-10.15
733.201	-17.15
733.226	-8.15
733.25	2.85
733.275	2.85
733.3	0.85
733.324	16.85
733.349	-19.15
733.374	-1.15
733.399	-8.15
733.423	-4.15
733.448	-12.15
733.473	3.85
733.497	-9.15
733.522	-2.15
733.547	12.85
733.571	30.85
733.596	2.85
733.621	-10.15
733.646	-8.15
733.67	8.85
733.695	-0.15
733.72	6.85
733.744	19.85
733.769	12.85
733.794	6.85
733.818	-0.15
733.843	-5.15
733.867	-9.15
733.892	-7.15
733.917	-7.15
733.941	7.85
733.966	3.85
733.991	-1.15
734.015	15.85
734.04	1.85
734.065	16.85
734.089	15.85
734.114	-6.15
734.138	1.85
734.163	-9.15
734.188	-2.15
734.212	4.85
734.237	24.85
734.261	6.85
734.286	1.85
734.311	-1.15
734.335	-1.15
734.36	-3.15
734.384	5.85
734.409	7.85
734.434	-2.15
734.458	10.85
734.483	-1.15
734.507	-2.15
734.532	2.85
734.556	-6.15
734.581	-12.15
734.606	-6.15
734.63	-12.15
734.655	-3.15
734.679	1.85
734.704	-0.15
734.728	-5.15
734.753	14.85
734.777	8.85
734.802	-1.15
734.826	1.85
734.851	15.85
734.876	11.85
734.9	0.85
734.925	15.85
734.949	22.85
734.974	1.85
734.998	0.85
735.023	-3.15
735.047	-18.15
735.072	22.85
735.096	8.85
735.121	-1.15
735.145	17.85
735.17	1.85
735.194	12.85
735.219	3.85
735.243	-2.15
735.268	4.85
735.292	15.85
735.317	-2.15
735.341	8.85
735.365	-1.15
735.39	7.85
735.414	1.85
735.439	9.85
735.463	9.85
735.488	13.85
735.512	-1.15
735.537	10.85
735.561	17.85
735.586	-9.15
735.61	-5.15
735.634	-7.15
735.659	7.85
735.683	12.85
735.708	-3.15
735.732	-5.15
735.757	-9.15
735.781	0.85
735.805	4.85
735.83	-5.15
735.854	4.85
735.879	2.85
735.903	13.85
735.927	14.85
735.952	7.85
735.976	4.85
736.001	4.85
736.025	-3.15
736.049	-0.15
736.074	5.85
736.098	-4.15
736.123	7.85
736.147	-5.15
736.171	1.85
736.196	-6.15
736.22	-13.15
736.244	3.85
736.269	-5.15
736.293	-2.15
736.317	2.85
736.342	5.85
736.366	13.85
736.39	13.85
736.415	-1.15
736.439	-1.15
736.463	13.85
736.488	10.85
736.512	0.85
736.536	4.85
736.561	17.85
736.585	-6.15
736.609	14.85
736.634	-17.15
736.658	3.85
736.682	-8.15
736.707	-12.15
736.731	8.85
736.755	-7.15
736.78	7.85
736.804	12.85
736.828	6.85
736.852	2.85
736.877	8.85
736.901	4.85
736.925	10.85
736.949	5.85
736.974	-1.15
736.998	-4.15
737.022	-4.15
737.047	-0.15
737.071	0.85
737.095	28.85
737.119	10.85
737.144	1.85
737.168	-20.15
737.192	-5.15
737.216	7.85
737.241	-2.15
737.265	8.85
737.289	4.85
737.313	3.85
737.337	-0.15
737.362	4.85
737.386	4.85
737.41	-0.15
737.434	19.85
737.459	2.85
737.483	-4.15
737.507	12.85
737.531	21.85
737.555	7.85
737.58	6.85
737.604	0.85
737.628	-13.15
737.652	-5.15
737.676	-4.15
737.701	-0.15
737.725	-6.15
737.749	5.85
737.773	14.85
737.797	-0.15
737.821	4.85
737.846	0.85
737.87	10.85
737.894	0.85
737.918	-4.15
737.942	8.85
737.966	2.85
737.99	6.85
738.015	-0.15
738.039	-5.15
738.063	0.85
738.087	3.85
738.111	-5.15
738.135	10.85
738.159	-0.15
738.184	-1.15
738.208	2.85
738.232	-1.15
738.256	-5.15
738.28	5.85
738.304	32.85
738.328	-0.15
738.352	12.85
738.376	-0.15
738.4	13.85
738.425	10.85
738.449	-6.15
738.473	-2.15
738.497	-13.15
738.521	0.85
738.545	16.85
738.569	17.85
738.593	17.85
738.617	13.85
738.641	7.85
738.665	1.85
738.689	-3.15
738.713	-8.15
738.737	17.85
738.762	5.85
738.786	12.85
738.81	-11.15
738.834	-2.15
738.858	6.85
738.882	-0.15
738.906	-12.15
738.93	2.85
738.954	3.85
738.978	3.85
739.002	1.85
739.026	-1.15
739.05	5.85
739.074	-1.15
739.098	36.85
739.122	18.85
739.146	8.85
739.17	11.85
739.194	10.85
739.218	-3.15
739.242	14.85
739.266	3.85
739.29	15.85
739.314	13.85
739.338	18.85
739.362	11.85
739.386	17.85
739.41	3.85
739.434	1.85
739.458	13.85
739.482	5.85
739.506	13.85
739.53	-3.15
739.554	12.85
739.577	-2.15
739.601	-3.15
739.625	-6.15
739.649	12.85
739.673	-1.15
739.697	0.85
739.721	1.85
739.745	7.85
739.769	15.85
739.793	15.85
739.817	22.85
739.841	0.85
739.865	-2.15
739.889	-0.15
739.912	9.85
739.936	-8.15
739.96	-3.15
739.984	7.85
740.008	3.85
740.032	-9.15
740.056	-11.15
740.08	8.85
740.104	-5.15
740.127	12.85
740.151	-7.15
740.175	12.85
740.199	3.85
740.223	22.85
740.247	2.85
740.271	13.85
740.295	-5.15
740.318	-13.15
740.342	2.85
740.366	14.85
740.39	9.85
740.414	-2.15
740.438	3.85
740.461	17.85
740.485	7.85
740.509	-6.15
740.533	4.85
740.557	0.85
740.581	-6.15
740.604	-15.15
740.628	-1.15
740.652	14.85
740.676	5.85
740.7	4.85
740.723	4.85
740.747	8.85
740.771	-6.15
740.795	-3.15
740.819	6.85
740.842	1.85
740.866	13.85
740.89	10.85
740.914	3.85
740.938	-9.15
740.961	27.85
740.985	9.85
741.009	6.85
741.033	21.85
741.056	7.85
741.08	13.85
741.104	-4.15
741.128	-1.15
741.151	13.85
741.175	5.85
741.199	4.85
741.223	16.85
741.246	7.85
741.27	12.85
741.294	-8.15
741.318	-4.15
741.341	-1.15
741.365	-3.15
741.389	12.85
741.413	1.85
741.436	13.85
741.46	7.85
741.484	21.85
741.507	9.85
741.531	19.85
741.555	15.85
741.579	6.85
741.602	-4.15
741.626	4.85
741.65	-1.15
741.673	-0.15
741.697	9.85
741.721	7.85
741.744	-4.15
741.768	-9.15
741.792	4.85
741.815	6.85
741.839	13.85
741.863	9.85
741.886	25.85
741.91	16.85
741.934	22.85
741.957	0.85
741.981	2.85
742.005	-8.15
742.028	-3.15
742.052	-4.15
742.075	4.85
742.099	-4.15
742.123	-9.15
742.146	0.85
742.17	3.85
742.194	2.85
742.217	-3.15
742.241	-0.15
742.264	9.85
742.288	10.85
742.312	5.85
742.335	-0.15
742.359	3.85
742.382	11.85
742.406	2.85
742.43	-5.15
742.453	-6.15
742.477	-5.15
742.5	-4.15
742.524	-3.15
742.548	6.85
742.571	3.85
742.595	-13.15
742.618	1.85
742.642	-9.15
742.665	7.85
742.689	4.85
742.712	15.85
742.736	1.85
742.76	-2.15
742.783	1.85
742.807	6.85
742.83	4.85
742.854	-0.15
742.877	3.85
742.901	0.85
742.924	-1.15
742.948	-7.15
742.971	13.85
742.995	1.85
743.018	-8.15
743.042	-5.15
743.065	-3.15
743.089	-8.15
743.112	3.85
743.136	7.85
743.159	4.85
743.183	0.85
743.206	10.85
743.23	-5.15
743.253	12.85
743.277	0.85
743.3	14.85
743.324	-1.15
743.347	2.85
743.371	0.85
743.394	6.85
743.418	18.85
743.441	8.85
743.465	2.85
743.488	-0.15
743.512	-9.15
743.535	-5.15
743.558	-1.15
743.582	-9.15
743.605	0.85
743.629	2.85
743.652	2.85
743.676	18.85
743.699	9.85
743.723	9.85
743.746	7.85
743.769	4.85
743.793	8.85
743.816	-8.15
743.84	6.85
743.863	2.85
743.886	1.85
743.91	9.85
743.933	5.85
743.957	3.85
743.98	-9.15
744.003	3.85
744.027	16.85
744.05	-5.15
744.074	0.85
744.097	-7.15
744.12	-10.15
744.144	-7.15
744.167	4.85
744.19	14.85
744.214	0.85
744.237	0.85
744.26	33.85
744.284	7.85
744.307	-4.15
744.331	-5.15
744.354	-12.15
744.377	0.85
744.401	2.85
744.424	7.85
744.447	-11.15
744.471	-8.15
