Data from HighRes_H2D2_15_04_11_07_2024_HR4C61891__97__15-05-44-142.txt Node

Date: Thu Nov 07 15:05:44 EST 2024
User: crc00042
Spectrometer: HR4C6189
Trigger mode: 4
Integration Time (sec): 1.000000E-1
Scans to average: 1
Electric dark correction enabled: true
Nonlinearity correction enabled: false
Boxcar width: 0
XAxis mode: Wavelengths
Number of Pixels in Spectrum: 3648
>>>>>Begin Spectral Data<<<<<
639.567	-62
639.602	-62
639.636	-62
639.67	-44
639.704	-12
639.738	14
639.773	9
639.807	-17
639.841	15
639.875	7
639.909	12
639.943	-10
639.978	-29
640.012	11
640.046	21
640.08	-2
640.114	-1
640.148	-30
640.182	-4
640.217	12
640.251	30
640.285	4
640.319	-19
640.353	7
640.387	12
640.421	-7
640.455	5
640.49	0
640.524	-1
640.558	10
640.592	9
640.626	14
640.66	14
640.694	-3
640.728	10
640.762	18
640.796	20
640.83	20
640.865	9
640.899	11
640.933	6
640.967	-4
641.001	13
641.035	19
641.069	17
641.103	-4
641.137	-5
641.171	-21
641.205	-3
641.239	9
641.273	20
641.307	15
641.341	14
641.375	2
641.409	-5
641.443	13
641.477	13
641.511	13
641.545	5
641.579	4
641.614	-1
641.648	25
641.682	-6
641.716	3
641.75	20
641.784	-4
641.818	8
641.852	4
641.886	3
641.919	31
641.953	14
641.987	-13
642.021	5
642.055	3
642.089	2
642.123	2
642.157	5
642.191	-5
642.225	35
642.259	8
642.293	20
642.327	10
642.361	4
642.395	5
642.429	-3
642.463	11
642.497	19
642.531	10
642.565	6
642.599	6
642.633	9
642.666	11
642.7	10
642.734	20
642.768	-2
642.802	11
642.836	7
642.87	8
642.904	-1
642.938	-2
642.972	12
643.005	6
643.039	16
643.073	-8
643.107	17
643.141	16
643.175	13
643.209	19
643.243	3
643.276	11
643.31	-8
643.344	-8
643.378	5
643.412	17
643.446	8
643.48	11
643.513	1
643.547	-4
643.581	-9
643.615	20
643.649	17
643.683	20
643.716	6
643.75	12
643.784	1
643.818	10
643.852	2
643.886	13
643.919	10
643.953	2
643.987	5
644.021	18
644.055	15
644.088	-4
644.122	6
644.156	0
644.19	7
644.224	8
644.257	6
644.291	16
644.325	9
644.359	12
644.392	20
644.426	17
644.46	2
644.494	11
644.527	1
644.561	12
644.595	5
644.629	17
644.662	-6
644.696	6
644.73	12
644.764	10
644.797	8
644.831	22
644.865	7
644.899	20
644.932	31
644.966	8
645	-1
645.033	21
645.067	9
645.101	18
645.135	4
645.168	1
645.202	-15
645.236	-1
645.269	6
645.303	8
645.337	-2
645.37	-9
645.404	5
645.438	9
645.471	10
645.505	6
645.539	5
645.572	-3
645.606	-3
645.64	1
645.673	4
645.707	12
645.741	14
645.774	7
645.808	7
645.842	4
645.875	2
645.909	-1
645.943	-3
645.976	-3
646.01	16
646.043	14
646.077	12
646.111	25
646.144	4
646.178	15
646.212	-3
646.245	4
646.279	-6
646.312	22
646.346	23
646.38	-6
646.413	2
646.447	16
646.48	3
646.514	16
646.547	7
646.581	0
646.615	18
646.648	-6
646.682	3
646.715	9
646.749	18
646.782	3
646.816	17
646.85	12
646.883	12
646.917	2
646.95	10
646.984	3
647.017	5
647.051	16
647.084	13
647.118	3
647.151	11
647.185	13
647.218	-2
647.252	24
647.285	-13
647.319	0
647.353	5
647.386	16
647.42	10
647.453	13
647.487	13
647.52	4
647.553	17
647.587	8
647.62	9
647.654	4
647.687	9
647.721	9
647.754	11
647.788	12
647.821	-13
647.855	4
647.888	-5
647.922	17
647.955	21
647.989	5
648.022	-2
648.055	17
648.089	0
648.122	25
648.156	6
648.189	-4
648.223	17
648.256	23
648.29	20
648.323	13
648.356	19
648.39	13
648.423	5
648.457	0
648.49	16
648.523	15
648.557	-2
648.59	11
648.624	17
648.657	4
648.69	18
648.724	14
648.757	26
648.791	5
648.824	-1
648.857	25
648.891	13
648.924	6
648.957	16
648.991	8
649.024	21
649.057	-7
649.091	9
649.124	10
649.158	-3
649.191	22
649.224	11
649.258	15
649.291	7
649.324	4
649.358	13
649.391	13
649.424	10
649.458	19
649.491	3
649.524	-8
649.557	-7
649.591	-14
649.624	7
649.657	-11
649.691	0
649.724	8
649.757	4
649.791	-1
649.824	27
649.857	19
649.89	-2
649.924	-12
649.957	-16
649.99	-15
650.023	5
650.057	8
650.09	5
650.123	11
650.157	18
650.19	12
650.223	4
650.256	6
650.29	9
650.323	7
650.356	13
650.389	9
650.423	1
650.456	0
650.489	3
650.522	1
650.555	19
650.589	16
650.622	24
650.655	21
650.688	0
650.721	6
650.755	3
650.788	13
650.821	3
650.854	20
650.887	-3
650.921	-14
650.954	0
650.987	14
651.02	-3
651.053	-6
651.087	-13
651.12	30
651.153	19
651.186	-10
651.219	1
651.252	10
651.286	13
651.319	-10
651.352	12
651.385	8
651.418	9
651.451	13
651.484	0
651.518	-5
651.551	34
651.584	1
651.617	27
651.65	11
651.683	2
651.716	-2
651.749	-4
651.783	1
651.816	5
651.849	13
651.882	-7
651.915	-1
651.948	5
651.981	-13
652.014	-8
652.047	13
652.08	0
652.114	0
652.147	20
652.18	26
652.213	29
652.246	6
652.279	2
652.312	13
652.345	-1
652.378	11
652.411	14
652.444	3
652.477	0
652.51	1
652.543	2
652.576	12
652.609	10
652.642	22
652.675	14
652.709	-4
652.742	10
652.775	-4
652.808	5
652.841	0
652.874	-1
652.907	0
652.94	0
652.973	-2
653.006	0
653.039	5
653.072	8
653.105	6
653.138	9
653.171	3
653.204	0
653.237	0
653.27	-15
653.303	13
653.336	2
653.368	15
653.401	22
653.434	-13
653.467	17
653.5	-13
653.533	-5
653.566	-4
653.599	6
653.632	5
653.665	4
653.698	-6
653.731	-4
653.764	1
653.797	11
653.83	20
653.863	17
653.896	14
653.929	-2
653.961	14
653.994	-4
654.027	-6
654.06	15
654.093	10
654.126	14
654.159	2
654.192	11
654.225	-11
654.258	0
654.29	5
654.323	14
654.356	-3
654.389	16
654.422	-4
654.455	-1
654.488	7
654.521	0
654.553	-10
654.586	12
654.619	1
654.652	-5
654.685	-2
654.718	13
654.751	16
654.783	1
654.816	17
654.849	16
654.882	4
654.915	-16
654.948	-14
654.98	-2
655.013	-8
655.046	-10
655.079	18
655.112	29
655.144	5
655.177	14
655.21	18
655.243	24
655.276	12
655.308	7
655.341	-3
655.374	-5
655.407	-7
655.44	19
655.472	8
655.505	2
655.538	17
655.571	15
655.603	2
655.636	21
655.669	14
655.702	17
655.734	-9
655.767	-2
655.8	17
655.833	13
655.865	11
655.898	18
655.931	12
655.964	24
655.996	31
656.029	45
656.062	43
656.095	46
656.127	93
656.16	209
656.193	649
656.225	970
656.258	548
656.291	237
656.324	157
656.356	377
656.389	772
656.422	673
656.454	242
656.487	83
656.52	42
656.552	14
656.585	22
656.618	21
656.65	22
656.683	11
656.716	6
656.748	23
656.781	-5
656.814	-4
656.846	12
656.879	8
656.912	14
656.944	-16
656.977	8
657.01	0
657.042	27
657.075	28
657.108	-6
657.14	0
657.173	17
657.205	28
657.238	29
657.271	9
657.303	4
657.336	-1
657.369	15
657.401	12
657.434	2
657.466	-5
657.499	-3
657.532	-13
657.564	14
657.597	8
657.629	11
657.662	9
657.694	10
657.727	4
657.76	10
657.792	9
657.825	1
657.857	-6
657.89	-1
657.922	25
657.955	3
657.987	10
658.02	16
658.053	29
658.085	12
658.118	11
658.15	16
658.183	24
658.215	5
658.248	0
658.28	9
658.313	28
658.345	5
658.378	-10
658.41	-5
658.443	24
658.475	13
658.508	9
658.54	14
658.573	-2
658.605	-2
658.638	-11
658.67	5
658.703	14
658.735	-11
658.768	20
658.8	1
658.833	13
658.865	-11
658.898	16
658.93	-1
658.963	11
658.995	9
659.028	11
659.06	2
659.092	14
659.125	12
659.157	-1
659.19	6
659.222	-2
659.255	6
659.287	12
659.32	6
659.352	8
659.384	12
659.417	-3
659.449	-5
659.482	10
659.514	-9
659.546	4
659.579	-9
659.611	21
659.644	12
659.676	0
659.708	-7
659.741	-9
659.773	-1
659.806	10
659.838	-1
659.87	0
659.903	4
659.935	8
659.967	12
660	11
660.032	-13
660.065	9
660.097	5
660.129	9
660.162	-1
660.194	4
660.226	15
660.259	25
660.291	14
660.323	15
660.356	5
660.388	3
660.42	-6
660.453	-5
660.485	18
660.517	12
660.55	20
660.582	6
660.614	17
660.647	1
660.679	11
660.711	20
660.743	11
660.776	0
660.808	-11
660.84	8
660.873	9
660.905	1
660.937	13
660.969	18
661.002	3
661.034	13
661.066	5
661.099	-3
661.131	15
661.163	12
661.195	14
661.228	25
661.26	-7
661.292	-12
661.324	9
661.357	17
661.389	19
661.421	18
661.453	16
661.485	6
661.518	-1
661.55	-5
661.582	-11
661.614	7
661.647	4
661.679	9
661.711	-4
661.743	-12
661.775	13
661.808	16
661.84	-5
661.872	11
661.904	11
661.936	15
661.969	-12
662.001	6
662.033	-2
662.065	-10
662.097	11
662.129	23
662.162	14
662.194	15
662.226	-1
662.258	14
662.29	17
662.322	-12
662.355	-7
662.387	23
662.419	12
662.451	17
662.483	8
662.515	4
662.547	3
662.58	-6
662.612	-2
662.644	-7
662.676	17
662.708	25
662.74	1
662.772	11
662.804	5
662.836	24
662.869	5
662.901	12
662.933	11
662.965	7
662.997	10
663.029	-15
663.061	5
663.093	6
663.125	35
663.157	9
663.189	-6
663.221	17
663.254	5
663.286	21
663.318	9
663.35	-3
663.382	13
663.414	14
663.446	13
663.478	4
663.51	36
663.542	5
663.574	11
663.606	10
663.638	-4
663.67	2
663.702	10
663.734	-2
663.766	6
663.798	1
663.83	13
663.862	6
663.894	15
663.926	11
663.958	16
663.99	29
664.022	11
664.054	9
664.086	17
664.118	-15
664.15	-29
664.182	3
664.214	-13
664.246	8
664.278	4
664.31	18
664.342	12
664.374	8
664.406	-12
664.438	3
664.47	0
664.502	-8
664.534	17
664.566	-8
664.598	14
664.63	-7
664.662	4
664.693	11
664.725	-15
664.757	4
664.789	1
664.821	9
664.853	11
664.885	19
664.917	2
664.949	6
664.981	28
665.013	13
665.045	-16
665.076	1
665.108	3
665.14	16
665.172	8
665.204	6
665.236	13
665.268	15
665.3	13
665.331	-5
665.363	8
665.395	-6
665.427	-2
665.459	14
665.491	5
665.523	7
665.555	21
665.586	6
665.618	0
665.65	-6
665.682	16
665.714	10
665.746	13
665.777	2
665.809	-12
665.841	-14
665.873	-8
665.905	3
665.937	26
665.968	4
666	3
666.032	12
666.064	-7
666.096	-1
666.127	21
666.159	17
666.191	21
666.223	7
666.255	16
666.286	3
666.318	14
666.35	17
666.382	11
666.413	1
666.445	-14
666.477	-21
666.509	0
666.54	1
666.572	2
666.604	10
666.636	13
666.667	-3
666.699	6
666.731	5
666.763	0
666.794	-3
666.826	13
666.858	-19
666.89	13
666.921	-13
666.953	-9
666.985	23
667.017	38
667.048	20
667.08	4
667.112	7
667.143	-4
667.175	8
667.207	-10
667.238	6
667.27	5
667.302	4
667.334	11
667.365	14
667.397	1
667.429	-13
667.46	17
667.492	8
667.524	-4
667.555	-16
667.587	-4
667.619	-6
667.65	2
667.682	0
667.714	-2
667.745	6
667.777	3
667.808	6
667.84	10
667.872	18
667.903	38
667.935	-5
667.967	18
667.998	11
668.03	0
668.061	20
668.093	22
668.125	21
668.156	11
668.188	7
668.22	5
668.251	23
668.283	1
668.314	0
668.346	3
668.377	32
668.409	-13
668.441	23
668.472	12
668.504	-1
668.535	8
668.567	1
668.599	15
668.63	-5
668.662	10
668.693	25
668.725	11
668.756	6
668.788	12
668.819	5
668.851	10
668.882	9
668.914	0
668.946	4
668.977	5
669.009	5
669.04	7
669.072	12
669.103	2
669.135	9
669.166	-4
669.198	21
669.229	15
669.261	14
669.292	-3
669.324	-2
669.355	3
669.387	-6
669.418	19
669.45	-16
669.481	19
669.513	7
669.544	24
669.576	12
669.607	23
669.639	19
669.67	0
669.701	7
669.733	-11
669.764	-6
669.796	8
669.827	6
669.859	3
669.89	21
669.922	6
669.953	11
669.985	13
670.016	4
670.047	-1
670.079	0
670.11	8
670.142	3
670.173	7
670.204	19
670.236	16
670.267	-3
670.299	-3
670.33	0
670.362	12
670.393	-1
670.424	13
670.456	6
670.487	-5
670.518	2
670.55	-2
670.581	-4
670.613	2
670.644	5
670.675	-7
670.707	-2
670.738	8
670.769	10
670.801	4
670.832	11
670.864	-4
670.895	5
670.926	4
670.958	6
670.989	-1
671.02	-5
671.052	2
671.083	0
671.114	0
671.146	15
671.177	-9
671.208	4
671.24	1
671.271	9
671.302	32
671.333	-1
671.365	-13
671.396	6
671.427	14
671.459	23
671.49	1
671.521	4
671.553	16
671.584	13
671.615	12
671.646	14
671.678	-2
671.709	-10
671.74	-17
671.771	-9
671.803	2
671.834	14
671.865	-2
671.896	3
671.928	0
671.959	-17
671.99	-6
672.021	14
672.053	2
672.084	19
672.115	6
672.146	3
672.178	-21
672.209	-10
672.24	13
672.271	27
672.303	-8
672.334	9
672.365	14
672.396	-2
672.427	3
672.459	10
672.49	19
672.521	8
672.552	15
672.583	10
672.615	-1
672.646	14
672.677	-7
672.708	11
672.739	14
672.77	14
672.802	1
672.833	7
672.864	4
672.895	-10
672.926	6
672.957	4
672.989	9
673.02	20
673.051	2
673.082	11
673.113	5
673.144	10
673.175	-1
673.206	3
673.238	-20
673.269	14
673.3	-5
673.331	6
673.362	1
673.393	11
673.424	14
673.455	24
673.487	10
673.518	30
673.549	6
673.58	3
673.611	21
673.642	3
673.673	5
673.704	5
673.735	-2
673.766	8
673.797	-17
673.828	0
673.86	-3
673.891	-16
673.922	-5
673.953	-8
673.984	5
674.015	12
674.046	9
674.077	7
674.108	1
674.139	4
674.17	5
674.201	12
674.232	-3
674.263	11
674.294	0
674.325	1
674.356	5
674.387	12
674.418	13
674.449	-11
674.48	0
674.511	-11
674.542	-3
674.573	-11
674.604	11
674.635	14
674.666	19
674.697	14
674.728	2
674.759	1
674.79	-13
674.821	-2
674.852	4
674.883	-9
674.914	-13
674.945	0
674.976	1
675.007	0
675.038	-3
675.069	-7
675.1	-7
675.131	5
675.162	0
675.193	-7
675.224	10
675.254	8
675.285	13
675.316	23
675.347	-2
675.378	-7
675.409	3
675.44	14
675.471	2
675.502	1
675.533	-11
675.564	-5
675.595	-1
675.625	25
675.656	18
675.687	12
675.718	-2
675.749	3
675.78	5
675.811	-7
675.842	-4
675.873	16
675.903	9
675.934	22
675.965	3
675.996	-2
676.027	13
676.058	0
676.089	-13
676.119	14
676.15	-3
676.181	9
676.212	12
676.243	4
676.274	0
676.304	15
676.335	-3
676.366	4
676.397	8
676.428	7
676.459	22
676.489	9
676.52	6
676.551	11
676.582	1
676.613	-1
676.643	9
676.674	13
676.705	10
676.736	3
676.767	8
676.797	25
676.828	13
676.859	-6
676.89	-7
676.92	5
676.951	20
676.982	14
677.013	6
677.044	30
677.074	10
677.105	-9
677.136	15
677.167	8
677.197	17
677.228	2
677.259	11
677.289	-7
677.32	-2
677.351	5
677.382	-6
677.412	9
677.443	15
677.474	5
677.505	0
677.535	0
677.566	10
677.597	-3
677.627	-15
677.658	2
677.689	-6
677.72	12
677.75	4
677.781	4
677.812	-1
677.842	15
677.873	4
677.904	2
677.934	-1
677.965	8
677.996	-8
678.026	-3
678.057	12
678.088	-24
678.118	0
678.149	-5
678.18	8
678.21	21
678.241	13
678.272	15
678.302	12
678.333	16
678.363	14
678.394	15
678.425	11
678.455	2
678.486	20
678.517	5
678.547	0
678.578	10
678.608	17
678.639	15
678.67	-6
678.7	-4
678.731	10
678.761	9
678.792	6
678.823	0
678.853	2
678.884	8
678.914	10
678.945	-3
678.975	-16
679.006	8
679.037	9
679.067	18
679.098	3
679.128	-6
679.159	10
679.189	15
679.22	2
679.25	13
679.281	-6
679.312	2
679.342	9
679.373	22
679.403	6
679.434	18
679.464	-5
679.495	0
679.525	13
679.556	6
679.586	15
679.617	9
679.647	11
679.678	-5
679.708	-3
679.739	5
679.769	-7
679.8	3
679.83	23
679.861	23
679.891	3
679.922	-19
679.952	-6
679.983	17
680.013	20
680.044	7
680.074	16
680.105	13
680.135	11
680.165	17
680.196	10
680.226	5
680.257	26
680.287	23
680.318	12
680.348	-6
680.379	8
680.409	25
680.439	-6
680.47	9
680.5	2
680.531	9
680.561	14
680.592	18
680.622	14
680.652	-6
680.683	22
680.713	8
680.744	11
680.774	9
680.804	20
680.835	-2
680.865	-7
680.896	25
680.926	19
680.956	14
680.987	9
681.017	-7
681.047	10
681.078	-2
681.108	-4
681.139	6
681.169	17
681.199	15
681.23	16
681.26	-5
681.29	25
681.321	13
681.351	1
681.381	-17
681.412	16
681.442	-2
681.472	19
681.503	4
681.533	10
681.563	2
681.594	6
681.624	13
681.654	-1
681.685	9
681.715	6
681.745	-8
681.775	2
681.806	-4
681.836	2
681.866	11
681.897	9
681.927	-4
681.957	-17
681.987	18
682.018	20
682.048	6
682.078	13
682.109	34
682.139	22
682.169	12
682.199	0
682.23	4
682.26	25
682.29	11
682.32	20
682.351	8
682.381	1
682.411	4
682.441	-11
682.472	-13
682.502	19
682.532	2
682.562	18
682.592	3
682.623	15
682.653	12
682.683	6
682.713	3
682.743	12
682.774	-2
682.804	11
682.834	16
682.864	-5
682.894	-1
682.925	15
682.955	22
682.985	4
683.015	3
683.045	18
683.076	-1
683.106	-10
683.136	13
683.166	16
683.196	11
683.226	5
683.257	13
683.287	1
683.317	-7
683.347	-11
683.377	-1
683.407	16
683.437	12
683.468	28
683.498	7
683.528	12
683.558	5
683.588	9
683.618	-7
683.648	-1
683.678	14
683.708	5
683.739	-2
683.769	16
683.799	4
683.829	1
683.859	12
683.889	13
683.919	-1
683.949	8
683.979	7
684.009	2
684.039	-2
684.07	-15
684.1	29
684.13	23
684.16	7
684.19	-2
684.22	4
684.25	18
684.28	-6
684.31	4
684.34	7
684.37	11
684.4	-2
684.43	17
684.46	-2
684.49	5
684.52	10
684.55	33
684.58	9
684.61	5
684.64	16
684.67	26
684.7	12
684.73	10
684.76	10
684.79	25
684.82	10
684.85	-3
684.88	16
684.91	0
684.94	17
684.97	3
685	17
685.03	-14
685.06	-4
685.09	3
685.12	22
685.15	-13
685.18	28
685.21	20
685.24	7
685.27	11
685.3	-12
685.33	0
685.36	15
685.39	13
685.42	11
685.45	4
685.48	1
685.51	2
685.54	23
685.569	30
685.599	6
685.629	11
685.659	11
685.689	-1
685.719	17
685.749	12
685.779	12
685.809	6
685.839	8
685.869	-9
685.898	8
685.928	5
685.958	11
685.988	16
686.018	12
686.048	10
686.078	13
686.108	14
686.137	10
686.167	13
686.197	-16
686.227	5
686.257	35
686.287	19
686.317	-10
686.346	4
686.376	12
686.406	1
686.436	11
686.466	-10
686.496	-4
686.525	1
686.555	3
686.585	15
686.615	20
686.645	17
686.675	15
686.704	8
686.734	14
686.764	0
686.794	7
686.824	0
686.853	20
686.883	8
686.913	7
686.943	-5
686.973	1
687.002	14
687.032	17
687.062	6
687.092	15
687.121	4
687.151	-7
687.181	23
687.211	12
687.24	14
687.27	6
687.3	5
687.33	14
687.359	-8
687.389	18
687.419	11
687.449	11
687.478	10
687.508	3
687.538	15
687.568	9
687.597	8
687.627	5
687.657	13
687.686	18
687.716	18
687.746	-2
687.776	1
687.805	14
687.835	3
687.865	28
687.894	13
687.924	9
687.954	6
687.983	27
688.013	18
688.043	11
688.072	-4
688.102	7
688.132	1
688.161	-10
688.191	2
688.221	11
688.25	-15
688.28	17
688.31	0
688.339	3
688.369	-3
688.399	11
688.428	1
688.458	12
688.488	-14
688.517	15
688.547	-7
688.576	21
688.606	12
688.636	-8
688.665	10
688.695	21
688.725	19
688.754	8
688.784	10
688.813	23
688.843	17
688.873	12
688.902	7
688.932	-4
688.961	9
688.991	14
689.02	16
689.05	2
689.08	28
689.109	26
689.139	0
689.168	-1
689.198	8
689.227	-3
689.257	17
689.287	13
689.316	8
689.346	-14
689.375	1
689.405	8
689.434	5
689.464	11
689.493	9
689.523	-7
689.552	-8
689.582	-5
689.611	2
689.641	16
689.67	11
689.7	6
689.73	19
689.759	12
689.789	27
689.818	10
689.848	2
689.877	23
689.906	3
689.936	-10
689.965	5
689.995	13
690.024	13
690.054	3
690.083	7
690.113	10
690.142	-3
690.172	-3
690.201	16
690.231	11
690.26	12
690.29	15
690.319	25
690.348	12
690.378	20
690.407	6
690.437	3
690.466	4
690.496	11
690.525	19
690.555	-4
690.584	19
690.613	-10
690.643	0
690.672	6
690.702	6
690.731	-5
690.76	14
690.79	-8
690.819	9
690.849	-3
690.878	1
690.907	-5
690.937	11
690.966	20
690.996	-3
691.025	11
691.054	17
691.084	3
691.113	3
691.142	14
691.172	19
691.201	17
691.23	13
691.26	22
691.289	3
691.319	0
691.348	8
691.377	17
691.407	1
691.436	12
691.465	20
691.495	13
691.524	8
691.553	9
691.583	4
691.612	16
691.641	1
691.67	-3
691.7	4
691.729	7
691.758	8
691.788	19
691.817	-14
691.846	12
691.876	13
691.905	-2
691.934	-1
691.963	17
691.993	12
692.022	17
692.051	7
692.081	12
692.11	17
692.139	24
692.168	5
692.198	14
692.227	19
692.256	1
692.285	-4
692.315	1
692.344	16
692.373	2
692.402	7
692.432	-1
692.461	-3
692.49	6
692.519	13
692.548	15
692.578	14
692.607	16
692.636	15
692.665	23
692.694	9
692.724	16
692.753	13
692.782	30
692.811	1
692.84	-7
692.87	5
692.899	14
692.928	5
692.957	6
692.986	19
693.016	8
693.045	17
693.074	7
693.103	11
693.132	1
693.161	14
693.191	-7
693.22	3
693.249	-8
693.278	11
693.307	39
693.336	-5
693.365	3
693.395	1
693.424	19
693.453	12
693.482	4
693.511	20
693.54	14
693.569	22
693.598	24
693.628	28
693.657	13
693.686	17
693.715	13
693.744	11
693.773	21
693.802	10
693.831	11
693.86	21
693.889	-1
693.919	0
693.948	1
693.977	13
694.006	7
694.035	10
694.064	6
694.093	21
694.122	4
694.151	-6
694.18	10
694.209	38
694.238	11
694.267	19
694.296	17
694.325	17
694.354	16
694.383	18
694.412	1
694.441	-3
694.471	7
694.5	6
694.529	-7
694.558	27
694.587	15
694.616	8
694.645	12
694.674	13
694.703	17
694.732	19
694.761	18
694.79	8
694.819	-8
694.848	3
694.877	26
694.906	35
694.935	8
694.963	20
694.992	21
695.021	25
695.05	24
695.079	10
695.108	2
695.137	23
695.166	19
695.195	-12
695.224	13
695.253	10
695.282	19
695.311	11
695.34	11
695.369	2
695.398	9
695.427	30
695.456	12
695.485	6
695.513	-2
695.542	6
695.571	0
695.6	29
695.629	-4
695.658	14
695.687	19
695.716	10
695.745	32
695.774	2
695.802	-5
695.831	24
695.86	19
695.889	24
695.918	34
695.947	4
695.976	-7
696.005	2
696.033	10
696.062	9
696.091	10
696.12	6
696.149	16
696.178	5
696.207	20
696.235	4
696.264	7
696.293	16
696.322	13
696.351	11
696.38	12
696.408	17
696.437	3
696.466	12
696.495	35
696.524	23
696.553	13
696.581	15
696.61	6
696.639	7
696.668	14
696.697	11
696.725	16
696.754	5
696.783	-7
696.812	-3
696.84	4
696.869	36
696.898	19
696.927	15
696.956	26
696.984	5
697.013	6
697.042	14
697.071	12
697.099	28
697.128	11
697.157	-1
697.186	-4
697.214	-3
697.243	9
697.272	16
697.301	21
697.329	13
697.358	8
697.387	16
697.415	22
697.444	3
697.473	12
697.502	4
697.53	8
697.559	-7
697.588	-12
697.616	4
697.645	5
697.674	36
697.703	18
697.731	15
697.76	24
697.789	5
697.817	9
697.846	22
697.875	-4
697.903	25
697.932	15
697.961	8
697.989	36
698.018	18
698.047	13
698.075	25
698.104	22
698.133	8
698.161	6
698.19	11
698.218	11
698.247	-9
698.276	-2
698.304	14
698.333	11
698.362	8
698.39	3
698.419	11
698.447	-1
698.476	14
698.505	29
698.533	9
698.562	13
698.591	10
698.619	12
698.648	10
698.676	8
698.705	-6
698.733	-6
698.762	11
698.791	4
698.819	9
698.848	15
698.876	22
698.905	0
698.933	6
698.962	16
698.991	14
699.019	21
699.048	13
699.076	10
699.105	3
699.133	5
699.162	6
699.19	8
699.219	8
699.248	-11
699.276	-3
699.305	-5
699.333	7
699.362	-10
699.39	19
699.419	-2
699.447	4
699.476	14
699.504	18
699.533	8
699.561	6
699.59	9
699.618	2
699.647	4
699.675	10
699.704	21
699.732	5
699.761	-7
699.789	1
699.818	14
699.846	5
699.874	1
699.903	6
699.931	19
699.96	11
699.988	17
700.017	-10
700.045	7
700.074	3
700.102	-10
700.13	-3
700.159	9
700.187	5
700.216	13
700.244	5
700.273	-2
700.301	4
700.329	11
700.358	7
700.386	9
700.415	17
700.443	-8
700.472	-7
700.5	-2
700.528	14
700.557	16
700.585	4
700.614	-2
700.642	10
700.67	17
700.699	11
700.727	11
700.755	31
700.784	20
700.812	1
700.841	7
700.869	-12
700.897	-17
700.926	9
700.954	23
700.982	18
701.011	-2
701.039	15
701.067	9
701.096	14
701.124	10
701.152	-1
701.181	9
701.209	1
701.237	11
701.266	-5
701.294	6
701.322	18
701.351	16
701.379	3
701.407	-14
701.435	7
701.464	29
701.492	27
701.52	2
701.549	-1
701.577	-2
701.605	-7
701.634	-2
701.662	17
701.69	1
701.718	1
701.747	7
701.775	13
701.803	4
701.831	26
701.86	0
701.888	5
701.916	6
701.944	7
701.973	7
702.001	3
702.029	0
702.057	-13
702.086	-5
702.114	0
702.142	11
702.17	-6
702.199	2
702.227	3
702.255	10
702.283	6
702.311	13
702.34	-4
702.368	-8
702.396	-4
702.424	-2
702.452	7
702.481	15
702.509	16
702.537	14
702.565	18
702.593	-15
702.621	2
702.65	18
702.678	12
702.706	15
702.734	4
702.762	0
702.79	-5
702.819	6
702.847	13
702.875	21
702.903	21
702.931	-4
702.959	-3
702.988	-6
703.016	-3
703.044	9
703.072	5
703.1	-2
703.128	-3
703.156	3
703.184	-4
703.212	4
703.241	6
703.269	-2
703.297	-6
703.325	15
703.353	-6
703.381	-8
703.409	6
703.437	1
703.465	3
703.493	13
703.522	15
703.55	4
703.578	14
703.606	10
703.634	10
703.662	-3
703.69	5
703.718	9
703.746	30
703.774	5
703.802	18
703.83	-8
703.858	5
703.886	0
703.914	5
703.942	26
703.97	-11
703.998	4
704.027	17
704.055	4
704.083	8
704.111	2
704.139	-4
704.167	10
704.195	13
704.223	11
704.251	4
704.279	18
704.307	14
704.335	-14
704.363	15
704.391	9
704.419	1
704.447	-2
704.475	15
704.503	0
704.531	15
704.558	16
704.586	14
704.614	3
704.642	4
704.67	-7
704.698	13
704.726	11
704.754	9
704.782	-1
704.81	6
704.838	28
704.866	6
704.894	-9
704.922	-4
704.95	13
704.978	2
705.006	14
705.034	16
705.061	4
705.089	8
705.117	2
705.145	14
705.173	4
705.201	-1
705.229	6
705.257	11
705.285	26
705.313	4
705.34	0
705.368	9
705.396	20
705.424	10
705.452	3
705.48	12
705.508	3
705.536	-2
705.563	14
705.591	4
705.619	8
705.647	0
705.675	7
705.703	11
705.731	16
705.758	25
705.786	13
705.814	25
705.842	11
705.87	12
705.898	27
705.925	11
705.953	4
705.981	-3
706.009	5
706.037	14
706.065	2
706.092	-4
706.12	6
706.148	3
706.176	18
706.204	6
706.231	0
706.259	-3
706.287	7
706.315	10
706.342	-12
706.37	20
706.398	8
706.426	-4
706.454	10
706.481	16
706.509	-19
706.537	3
706.565	3
706.592	8
706.62	-4
706.648	13
706.676	-5
706.703	13
706.731	8
706.759	0
706.787	5
706.814	14
706.842	10
706.87	6
706.897	18
706.925	17
706.953	2
706.981	1
707.008	-4
707.036	4
707.064	-1
707.091	-1
707.119	14
707.147	6
707.174	1
707.202	9
707.23	2
707.258	3
707.285	0
707.313	8
707.341	4
707.368	1
707.396	8
707.424	27
707.451	6
707.479	12
707.507	4
707.534	-2
707.562	8
707.59	-11
707.617	-1
707.645	8
707.672	4
707.7	-8
707.728	6
707.755	18
707.783	3
707.811	4
707.838	3
707.866	17
707.893	8
707.921	10
707.949	10
707.976	2
708.004	4
708.031	1
708.059	4
708.087	5
708.114	3
708.142	-6
708.169	-9
708.197	-4
708.225	9
708.252	9
708.28	12
708.307	-8
708.335	12
708.362	4
708.39	-12
708.418	-1
708.445	-19
708.473	-5
708.5	0
708.528	9
708.555	-3
708.583	6
708.61	8
708.638	6
708.665	-1
708.693	-1
708.72	-10
708.748	-3
708.776	-5
708.803	12
708.831	15
708.858	12
708.886	11
708.913	18
708.941	19
708.968	18
708.996	16
709.023	34
709.051	1
709.078	8
709.105	16
709.133	-4
709.16	2
709.188	15
709.215	3
709.243	7
709.27	-13
709.298	-8
709.325	-3
709.353	1
709.38	5
709.408	23
709.435	12
709.462	0
709.49	15
709.517	4
709.545	0
709.572	13
709.6	11
709.627	18
709.655	5
709.682	17
709.709	10
709.737	10
709.764	-2
709.792	9
709.819	28
709.846	6
709.874	8
709.901	11
709.929	9
709.956	-6
709.983	-10
710.011	-3
710.038	-4
710.066	0
710.093	15
710.12	5
710.148	-7
710.175	-18
710.202	7
710.23	19
710.257	2
710.284	4
710.312	9
710.339	7
710.366	16
710.394	8
710.421	21
710.448	10
710.476	-16
710.503	19
710.53	12
710.558	28
710.585	29
710.612	19
710.64	15
710.667	16
710.694	6
710.722	0
710.749	4
710.776	5
710.804	25
710.831	21
710.858	4
710.885	3
710.913	1
710.94	20
710.967	8
710.995	6
711.022	15
711.049	4
711.076	-11
711.104	9
711.131	-8
711.158	18
711.185	18
711.213	-5
711.24	13
711.267	1
711.294	4
711.322	10
711.349	-9
711.376	9
711.403	-5
711.431	-11
711.458	7
711.485	-6
711.512	9
711.54	8
711.567	22
711.594	-12
711.621	9
711.648	0
711.676	20
711.703	6
711.73	-6
711.757	5
711.784	-4
711.812	8
711.839	11
711.866	8
711.893	0
711.92	2
711.947	0
711.975	15
712.002	19
712.029	17
712.056	4
712.083	4
712.11	4
712.138	17
712.165	22
712.192	16
712.219	6
712.246	-5
712.273	9
712.3	5
712.328	5
712.355	14
712.382	0
712.409	32
712.436	3
712.463	21
712.49	28
712.517	17
712.544	8
712.572	2
712.599	-4
712.626	7
712.653	-5
712.68	6
712.707	6
712.734	13
712.761	-2
712.788	21
712.815	11
712.842	14
712.87	4
712.897	-5
712.924	1
712.951	4
712.978	11
713.005	21
713.032	16
713.059	5
713.086	16
713.113	4
713.14	-7
713.167	12
713.194	18
713.221	2
713.248	18
713.275	2
713.302	6
713.329	28
713.356	18
713.383	4
713.41	2
713.437	-2
713.464	4
713.491	23
713.518	16
713.545	-8
713.572	8
713.599	14
713.626	14
713.653	6
713.68	10
713.707	-12
713.734	17
713.761	2
713.788	14
713.815	20
713.842	17
713.869	7
713.896	4
713.923	17
713.95	7
713.977	2
714.004	9
714.031	-2
714.058	-1
714.085	6
714.112	12
714.139	3
714.165	9
714.192	2
714.219	0
714.246	18
714.273	14
714.3	10
714.327	6
714.354	29
714.381	5
714.408	9
714.435	10
714.461	5
714.488	1
714.515	-1
714.542	3
714.569	-14
714.596	-9
714.623	4
714.65	4
714.677	17
714.703	8
714.73	9
714.757	14
714.784	12
714.811	4
714.838	4
714.865	4
714.891	17
714.918	9
714.945	5
714.972	11
714.999	33
715.026	4
715.052	16
715.079	-7
715.106	4
715.133	8
715.16	-4
715.187	10
715.213	9
715.24	-15
715.267	4
715.294	5
715.321	-2
715.347	5
715.374	-18
715.401	-4
715.428	-5
715.455	0
715.481	-2
715.508	8
715.535	13
715.562	23
715.588	4
715.615	0
715.642	5
715.669	20
715.695	5
715.722	8
715.749	7
715.776	18
715.802	11
715.829	16
715.856	4
715.883	16
715.909	-1
715.936	3
715.963	8
715.99	-10
716.016	-1
716.043	9
716.07	12
716.096	4
716.123	4
716.15	4
716.177	9
716.203	12
716.23	16
716.257	4
716.283	35
716.31	1
716.337	8
716.363	6
716.39	14
716.417	20
716.443	14
716.47	33
716.497	27
716.523	22
716.55	11
716.577	16
716.603	11
716.63	12
716.657	14
716.683	3
716.71	11
716.737	14
716.763	13
716.79	13
716.817	27
716.843	14
716.87	4
716.897	9
716.923	21
716.95	8
716.976	1
717.003	13
717.03	18
717.056	16
717.083	0
717.109	10
717.136	22
717.163	7
717.189	10
717.216	5
717.242	5
717.269	8
717.296	5
717.322	4
717.349	2
717.375	18
717.402	7
717.428	21
717.455	22
717.481	2
717.508	3
717.535	6
717.561	12
717.588	6
717.614	13
717.641	9
717.667	-1
717.694	3
717.72	0
717.747	-12
717.773	-7
717.8	13
717.826	18
717.853	8
717.88	4
717.906	26
717.933	5
717.959	9
717.986	11
718.012	8
718.039	17
718.065	20
718.092	13
718.118	-4
718.144	6
718.171	14
718.197	28
718.224	16
718.25	0
718.277	-5
718.303	-11
718.33	-14
718.356	6
718.383	1
718.409	1
718.436	2
718.462	11
718.489	0
718.515	12
718.541	21
718.568	13
718.594	13
718.621	15
718.647	6
718.674	14
718.7	23
718.726	2
718.753	18
718.779	4
718.806	-2
718.832	1
718.858	-1
718.885	-9
718.911	13
718.938	17
718.964	2
718.99	10
719.017	-5
719.043	20
719.07	23
719.096	8
719.122	15
719.149	5
719.175	16
719.201	8
719.228	-3
719.254	0
719.281	-2
719.307	-6
719.333	-14
719.36	14
719.386	11
719.412	3
719.439	-4
719.465	1
719.491	-4
719.518	11
719.544	11
719.57	9
719.597	1
719.623	5
719.649	27
719.675	9
719.702	13
719.728	21
719.754	9
719.781	3
719.807	10
719.833	12
719.86	3
719.886	-8
719.912	8
719.938	5
719.965	23
719.991	11
720.017	10
720.044	3
720.07	9
720.096	16
720.122	12
720.149	21
720.175	31
720.201	10
720.227	-4
720.254	12
720.28	13
720.306	8
720.332	14
720.359	12
720.385	-2
720.411	23
720.437	14
720.463	-1
720.49	18
720.516	13
720.542	-3
720.568	10
720.595	14
720.621	6
720.647	9
720.673	9
720.699	-12
720.725	17
720.752	27
720.778	20
720.804	14
720.83	29
720.856	-7
720.883	1
720.909	5
720.935	14
720.961	17
720.987	5
721.013	13
721.04	2
721.066	12
721.092	7
721.118	20
721.144	7
721.17	-11
721.196	2
721.223	-4
721.249	7
721.275	28
721.301	10
721.327	17
721.353	10
721.379	5
721.405	9
721.432	17
721.458	9
721.484	6
721.51	-6
721.536	6
721.562	9
721.588	6
721.614	14
721.64	9
721.666	7
721.693	6
721.719	9
721.745	1
721.771	0
721.797	7
721.823	8
721.849	16
721.875	-8
721.901	14
721.927	5
721.953	-7
721.979	20
722.005	9
722.031	-4
722.057	8
722.083	15
722.109	24
722.135	8
722.161	14
722.187	-2
722.214	4
722.24	8
722.266	-2
722.292	8
722.318	19
722.344	10
722.37	2
722.396	15
722.422	5
722.448	18
722.474	1
722.5	4
722.526	13
722.552	-1
722.578	8
722.603	14
722.629	4
722.655	4
722.681	8
722.707	-1
722.733	5
722.759	-5
722.785	28
722.811	9
722.837	-2
722.863	2
722.889	11
722.915	13
722.941	0
722.967	9
722.993	16
723.019	16
723.045	23
723.071	3
723.097	-6
723.122	-2
723.148	2
723.174	4
723.2	10
723.226	6
723.252	7
723.278	5
723.304	1
723.33	9
723.356	-4
723.381	2
723.407	0
723.433	22
723.459	12
723.485	13
723.511	15
723.537	9
723.563	26
723.588	5
723.614	5
723.64	4
723.666	9
723.692	16
723.718	12
723.744	4
723.769	-4
723.795	-7
723.821	18
723.847	7
723.873	10
723.899	12
723.924	14
723.95	17
723.976	2
724.002	17
724.028	15
724.053	8
724.079	1
724.105	6
724.131	13
724.157	22
724.182	16
724.208	-4
724.234	-3
724.26	1
724.286	33
724.311	34
724.337	-2
724.363	-1
724.389	-1
724.415	-3
724.44	15
724.466	3
724.492	10
724.518	4
724.543	2
724.569	8
724.595	8
724.621	14
724.646	2
724.672	-5
724.698	-6
724.723	1
724.749	-6
724.775	12
724.801	13
724.826	11
724.852	5
724.878	2
724.904	-2
724.929	11
724.955	-11
724.981	-1
725.006	5
725.032	6
725.058	5
725.083	8
725.109	-7
725.135	9
725.161	9
725.186	16
725.212	0
725.238	17
725.263	18
725.289	-7
725.315	5
725.34	0
725.366	7
725.392	5
725.417	19
725.443	8
725.468	13
725.494	12
725.52	17
725.545	-3
725.571	6
725.597	-3
725.622	16
725.648	5
725.674	23
725.699	5
725.725	16
725.75	35
725.776	1
725.802	19
725.827	11
725.853	1
725.878	10
725.904	10
725.93	16
725.955	3
725.981	8
726.006	7
726.032	24
726.057	12
726.083	5
726.109	16
726.134	5
726.16	19
726.185	1
726.211	-14
726.236	-3
726.262	10
726.288	7
726.313	2
726.339	22
726.364	5
726.39	18
726.415	8
726.441	10
726.466	5
726.492	9
726.517	12
726.543	1
726.568	11
726.594	9
726.619	11
726.645	12
726.67	8
726.696	19
726.721	15
726.747	9
726.772	13
726.798	4
726.823	5
726.849	9
726.874	16
726.9	29
726.925	13
726.951	7
726.976	19
727.002	-1
727.027	2
727.053	8
727.078	2
727.104	21
727.129	-6
727.155	24
727.18	12
727.205	3
727.231	-1
727.256	-2
727.282	15
727.307	18
727.333	9
727.358	-3
727.383	-7
727.409	16
727.434	10
727.46	-4
727.485	3
727.511	20
727.536	-18
727.561	12
727.587	6
727.612	9
727.637	-1
727.663	1
727.688	9
727.714	4
727.739	-4
727.764	0
727.79	4
727.815	8
727.841	2
727.866	1
727.891	28
727.917	1
727.942	-4
727.967	8
727.993	-12
728.018	-3
728.043	12
728.069	26
728.094	30
728.119	8
728.145	30
728.17	10
728.195	9
728.221	6
728.246	18
728.271	-7
728.297	5
728.322	22
728.347	13
728.373	24
728.398	24
728.423	-1
728.448	5
728.474	10
728.499	5
728.524	3
728.55	0
728.575	4
728.6	7
728.625	9
728.651	10
728.676	16
728.701	2
728.727	6
728.752	2
728.777	15
728.802	24
728.828	8
728.853	1
728.878	-2
728.903	6
728.929	2
728.954	-4
728.979	12
729.004	4
729.03	2
729.055	14
729.08	5
729.105	7
729.13	5
729.156	25
729.181	12
729.206	-1
729.231	4
729.256	10
729.282	15
729.307	4
729.332	-8
729.357	5
729.382	5
729.408	6
729.433	-7
729.458	9
729.483	20
729.508	28
729.533	8
729.559	12
729.584	2
729.609	6
729.634	19
729.659	9
729.684	-16
729.71	17
729.735	21
729.76	7
729.785	6
729.81	9
729.835	9
729.86	14
729.886	21
729.911	5
729.936	3
729.961	3
729.986	-6
730.011	4
730.036	5
730.061	19
730.086	8
730.112	2
730.137	22
730.162	21
730.187	6
730.212	4
730.237	0
730.262	-2
730.287	-11
730.312	22
730.337	-6
730.362	26
730.387	20
730.413	-2
730.438	2
730.463	-8
730.488	-14
730.513	-4
730.538	1
730.563	19
730.588	7
730.613	19
730.638	8
730.663	-6
730.688	12
730.713	9
730.738	0
730.763	0
730.788	-2
730.813	9
730.838	-2
730.863	5
730.888	0
730.913	-15
730.938	-10
730.963	3
730.988	17
731.013	27
731.038	2
731.063	12
731.088	9
731.113	9
731.138	7
731.163	16
731.188	-14
731.213	11
731.238	30
731.263	9
731.288	10
731.313	8
731.338	9
731.363	-6
731.388	8
731.413	15
731.438	27
731.463	30
731.487	12
731.512	4
731.537	-4
731.562	8
731.587	8
731.612	7
731.637	9
731.662	28
731.687	4
731.712	-6
731.737	1
731.762	3
731.786	10
731.811	15
731.836	16
731.861	18
731.886	17
731.911	9
731.936	19
731.961	4
731.986	-2
732.01	12
732.035	6
732.06	4
732.085	8
732.11	5
732.135	-1
732.16	2
732.184	14
732.209	6
732.234	9
732.259	-1
732.284	19
732.309	10
732.334	3
732.358	-19
732.383	1
732.408	6
732.433	8
732.458	3
732.482	3
732.507	8
732.532	9
732.557	20
732.582	12
732.607	-5
732.631	-14
732.656	1
732.681	7
732.706	9
732.73	15
732.755	10
732.78	8
732.805	20
732.83	-4
732.854	-3
732.879	22
732.904	-4
732.929	7
732.953	6
732.978	4
733.003	-13
733.028	7
733.052	9
733.077	4
733.102	5
733.127	-2
733.151	1
733.176	8
733.201	-6
733.226	0
733.25	-6
733.275	5
733.3	3
733.324	9
733.349	2
733.374	6
733.399	0
733.423	9
733.448	16
733.473	16
733.497	13
733.522	5
733.547	23
733.571	20
733.596	0
733.621	16
733.646	9
733.67	18
733.695	6
733.72	15
733.744	13
733.769	23
733.794	18
733.818	1
733.843	2
733.867	-17
733.892	-1
733.917	2
733.941	-1
733.966	3
733.991	8
734.015	24
734.04	7
734.065	22
734.089	24
734.114	4
734.138	12
734.163	13
734.188	17
734.212	23
734.237	27
734.261	23
734.286	5
734.311	2
734.335	25
734.36	4
734.384	19
734.409	9
734.434	2
734.458	6
734.483	4
734.507	10
734.532	0
734.556	13
734.581	6
734.606	5
734.63	11
734.655	13
734.679	2
734.704	18
734.728	12
734.753	22
734.777	24
734.802	12
734.826	1
734.851	8
734.876	12
734.9	29
734.925	18
734.949	5
734.974	1
734.998	0
735.023	-6
735.047	-3
735.072	7
735.096	3
735.121	26
735.145	25
735.17	2
735.194	8
735.219	8
735.243	13
735.268	16
735.292	28
735.317	16
735.341	14
735.365	-17
735.39	18
735.414	5
735.439	9
735.463	22
735.488	32
735.512	7
735.537	10
735.561	-1
735.586	4
735.61	6
735.634	-4
735.659	0
735.683	28
735.708	-4
735.732	2
735.757	3
735.781	9
735.805	19
735.83	16
735.854	26
735.879	27
735.903	26
735.927	19
735.952	16
735.976	13
736.001	1
736.025	14
736.049	21
736.074	8
736.098	7
736.123	20
736.147	-8
736.171	4
736.196	9
736.22	-10
736.244	1
736.269	18
736.293	11
736.317	6
736.342	2
736.366	12
736.39	10
736.415	16
736.439	4
736.463	40
736.488	30
736.512	32
736.536	14
736.561	37
736.585	8
736.609	13
736.634	-2
736.658	5
736.682	-17
736.707	0
736.731	6
736.755	9
736.78	19
736.804	24
736.828	28
736.852	4
736.877	2
736.901	6
736.925	15
736.949	4
736.974	-7
736.998	-13
737.022	9
737.047	4
737.071	14
737.095	23
737.119	26
737.144	12
737.168	16
737.192	13
737.216	6
737.241	5
737.265	6
737.289	-8
737.313	21
737.337	28
737.362	-4
737.386	-3
737.41	-4
737.434	4
737.459	5
737.483	9
737.507	8
737.531	1
737.555	-3
737.58	16
737.604	15
737.628	1
737.652	5
737.676	1
737.701	17
737.725	14
737.749	4
737.773	1
737.797	8
737.821	3
737.846	3
737.87	26
737.894	0
737.918	0
737.942	-6
737.966	11
737.99	0
738.015	18
738.039	4
738.063	7
738.087	12
738.111	6
738.135	30
738.159	2
738.184	-7
738.208	-7
738.232	13
738.256	22
738.28	18
738.304	3
738.328	2
738.352	15
738.376	9
738.4	18
738.425	12
738.449	-2
738.473	6
738.497	17
738.521	10
738.545	-4
738.569	16
738.593	16
738.617	25
738.641	20
738.665	9
738.689	5
738.713	-2
738.737	21
738.762	16
738.786	20
738.81	-5
738.834	17
738.858	4
738.882	16
738.906	-10
738.93	7
738.954	13
738.978	18
739.002	7
739.026	25
739.05	12
739.074	11
739.098	25
739.122	22
739.146	16
739.17	27
739.194	12
739.218	8
739.242	-7
739.266	4
739.29	5
739.314	13
739.338	1
739.362	14
739.386	14
739.41	8
739.434	-6
739.458	33
739.482	20
739.506	16
739.53	21
739.554	12
739.577	4
739.601	26
739.625	8
739.649	13
739.673	-9
739.697	21
739.721	11
739.745	19
739.769	22
739.793	6
739.817	14
739.841	4
739.865	6
739.889	-8
739.912	25
739.936	6
739.96	1
739.984	31
740.008	16
740.032	8
740.056	-11
740.08	-7
740.104	5
740.127	21
740.151	16
740.175	13
740.199	14
740.223	56
740.247	19
740.271	19
740.295	14
740.318	-14
740.342	11
740.366	4
740.39	6
740.414	-6
740.438	8
740.461	23
740.485	14
740.509	2
740.533	24
740.557	-1
740.581	-5
740.604	-4
740.628	-6
740.652	5
740.676	-2
740.7	20
740.723	-2
740.747	5
740.771	-1
740.795	4
740.819	10
740.842	12
740.866	20
740.89	12
740.914	8
740.938	-3
740.961	18
740.985	20
741.009	5
741.033	6
741.056	-2
741.08	3
741.104	5
741.128	9
741.151	13
741.175	25
741.199	13
741.223	8
741.246	-4
741.27	5
741.294	13
741.318	-12
741.341	-8
741.365	3
741.389	0
741.413	21
741.436	23
741.46	6
741.484	8
741.507	8
741.531	17
741.555	15
741.579	10
741.602	0
741.626	8
741.65	3
741.673	10
741.697	8
741.721	10
741.744	-4
741.768	3
741.792	17
741.815	-2
741.839	22
741.863	26
741.886	20
741.91	17
741.934	14
741.957	-1
741.981	15
742.005	16
742.028	2
742.052	2
742.075	10
742.099	2
742.123	0
742.146	12
742.17	25
742.194	0
742.217	1
742.241	8
742.264	9
742.288	27
742.312	17
742.335	14
742.359	7
742.382	17
742.406	9
742.43	1
742.453	-1
742.477	6
742.5	21
742.524	1
742.548	-6
742.571	10
742.595	2
742.618	4
742.642	1
742.665	5
742.689	-4
742.712	4
742.736	5
742.76	10
742.783	-2
742.807	11
742.83	14
742.854	1
742.877	0
742.901	-2
742.924	2
742.948	8
742.971	2
742.995	8
743.018	-6
743.042	-13
743.065	1
743.089	4
743.112	11
743.136	8
743.159	9
743.183	-16
743.206	10
743.23	10
743.253	6
743.277	4
743.3	-1
743.324	9
743.347	9
743.371	6
743.394	28
743.418	20
743.441	13
743.465	-1
743.488	4
743.512	-4
743.535	17
743.558	12
743.582	2
743.605	3
743.629	2
743.652	20
743.676	-3
743.699	16
743.723	9
743.746	-8
743.769	17
743.793	20
743.816	-2
743.84	20
743.863	5
743.886	13
743.91	23
743.933	2
743.957	4
743.98	3
744.003	1
744.027	5
744.05	4
744.074	11
744.097	-8
744.12	3
744.144	0
744.167	15
744.19	9
744.214	0
744.237	-5
744.26	6
744.284	-8
744.307	-5
744.331	-5
744.354	6
744.377	5
744.401	18
744.424	-6
744.447	-5
744.471	-10
