Data from HighRes_H2D2_15_04_11_07_2024_HR4C61891__3__15-05-34-743.txt Node

Date: Thu Nov 07 15:05:34 EST 2024
User: crc00042
Spectrometer: HR4C6189
Trigger mode: 4
Integration Time (sec): 1.000000E-1
Scans to average: 1
Electric dark correction enabled: true
Nonlinearity correction enabled: false
Boxcar width: 0
XAxis mode: Wavelengths
Number of Pixels in Spectrum: 3648
>>>>>Begin Spectral Data<<<<<
639.567	-74.54
639.602	-74.54
639.636	-74.54
639.67	-35.54
639.704	-17.54
639.738	-5.54
639.773	7.46
639.807	-14.54
639.841	5.46
639.875	13.46
639.909	-9.54
639.943	-7.54
639.978	4.46
640.012	-0.54
640.046	2.46
640.08	-7.54
640.114	2.46
640.148	9.46
640.182	2.46
640.217	1.46
640.251	9.46
640.285	17.46
640.319	-11.54
640.353	8.46
640.387	1.46
640.421	-10.54
640.455	3.46
640.49	-8.54
640.524	-1.54
640.558	-0.54
640.592	-1.54
640.626	-0.54
640.66	-6.54
640.694	-13.54
640.728	11.46
640.762	-5.54
640.796	17.46
640.83	8.46
640.865	11.46
640.899	-1.54
640.933	-12.54
640.967	2.46
641.001	10.46
641.035	1.46
641.069	14.46
641.103	-20.54
641.137	6.46
641.171	-12.54
641.205	-16.54
641.239	2.46
641.273	11.46
641.307	11.46
641.341	10.46
641.375	9.46
641.409	-0.54
641.443	17.46
641.477	-4.54
641.511	19.46
641.545	11.46
641.579	3.46
641.614	5.46
641.648	11.46
641.682	-5.54
641.716	14.46
641.75	4.46
641.784	5.46
641.818	-0.54
641.852	-2.54
641.886	3.46
641.919	9.46
641.953	-19.54
641.987	-13.54
642.021	-6.54
642.055	13.46
642.089	-6.54
642.123	-6.54
642.157	-8.54
642.191	0.46
642.225	-0.54
642.259	0.46
642.293	7.46
642.327	2.46
642.361	-6.54
642.395	7.46
642.429	18.46
642.463	11.46
642.497	20.46
642.531	2.46
642.565	8.46
642.599	15.46
642.633	4.46
642.666	19.46
642.7	14.46
642.734	18.46
642.768	-9.54
642.802	0.46
642.836	3.46
642.87	7.46
642.904	3.46
642.938	12.46
642.972	9.46
643.005	-1.54
643.039	24.46
643.073	8.46
643.107	-10.54
643.141	12.46
643.175	15.46
643.209	3.46
643.243	2.46
643.276	1.46
643.31	-5.54
643.344	-6.54
643.378	-15.54
643.412	-8.54
643.446	6.46
643.48	-4.54
643.513	13.46
643.547	0.46
643.581	-6.54
643.615	8.46
643.649	5.46
643.683	3.46
643.716	-3.54
643.75	12.46
643.784	-2.54
643.818	14.46
643.852	-2.54
643.886	3.46
643.919	5.46
643.953	8.46
643.987	-4.54
644.021	2.46
644.055	3.46
644.088	6.46
644.122	-7.54
644.156	3.46
644.19	8.46
644.224	10.46
644.257	0.46
644.291	14.46
644.325	15.46
644.359	-0.54
644.392	26.46
644.426	8.46
644.46	12.46
644.494	11.46
644.527	5.46
644.561	0.46
644.595	2.46
644.629	-17.54
644.662	-7.54
644.696	11.46
644.73	-5.54
644.764	4.46
644.797	-3.54
644.831	-9.54
644.865	12.46
644.899	3.46
644.932	20.46
644.966	1.46
645	1.46
645.033	4.46
645.067	2.46
645.101	18.46
645.135	14.46
645.168	-13.54
645.202	3.46
645.236	-3.54
645.269	7.46
645.303	5.46
645.337	-22.54
645.37	-2.54
645.404	8.46
645.438	3.46
645.471	-6.54
645.505	10.46
645.539	-5.54
645.572	-11.54
645.606	-12.54
645.64	14.46
645.673	-7.54
645.707	15.46
645.741	8.46
645.774	-8.54
645.808	10.46
645.842	-12.54
645.875	6.46
645.909	5.46
645.943	-6.54
645.976	7.46
646.01	13.46
646.043	16.46
646.077	9.46
646.111	13.46
646.144	-0.54
646.178	12.46
646.212	-0.54
646.245	-4.54
646.279	0.46
646.312	20.46
646.346	6.46
646.38	-7.54
646.413	9.46
646.447	1.46
646.48	-0.54
646.514	9.46
646.547	7.46
646.581	8.46
646.615	-3.54
646.648	-11.54
646.682	-9.54
646.715	-10.54
646.749	12.46
646.782	-2.54
646.816	2.46
646.85	13.46
646.883	-12.54
646.917	-4.54
646.95	5.46
646.984	-2.54
647.017	-0.54
647.051	22.46
647.084	-1.54
647.118	-7.54
647.151	9.46
647.185	10.46
647.218	-4.54
647.252	-1.54
647.285	1.46
647.319	-10.54
647.353	4.46
647.386	10.46
647.42	-10.54
647.453	3.46
647.487	11.46
647.52	12.46
647.553	21.46
647.587	10.46
647.62	10.46
647.654	8.46
647.687	1.46
647.721	10.46
647.754	19.46
647.788	13.46
647.821	-2.54
647.855	10.46
647.888	16.46
647.922	-11.54
647.955	2.46
647.989	1.46
648.022	-4.54
648.055	10.46
648.089	0.46
648.122	14.46
648.156	5.46
648.189	-17.54
648.223	-8.54
648.256	8.46
648.29	7.46
648.323	-1.54
648.356	8.46
648.39	3.46
648.423	11.46
648.457	-12.54
648.49	10.46
648.523	12.46
648.557	8.46
648.59	7.46
648.624	8.46
648.657	4.46
648.69	12.46
648.724	22.46
648.757	30.46
648.791	7.46
648.824	-2.54
648.857	25.46
648.891	14.46
648.924	12.46
648.957	9.46
648.991	-6.54
649.024	25.46
649.057	7.46
649.091	-0.54
649.124	26.46
649.158	8.46
649.191	16.46
649.224	2.46
649.258	10.46
649.291	10.46
649.324	26.46
649.358	1.46
649.391	-10.54
649.424	3.46
649.458	-2.54
649.491	6.46
649.524	4.46
649.557	5.46
649.591	-5.54
649.624	14.46
649.657	-7.54
649.691	3.46
649.724	6.46
649.757	-11.54
649.791	-19.54
649.824	26.46
649.857	20.46
649.89	8.46
649.924	-1.54
649.957	-1.54
649.99	6.46
650.023	7.46
650.057	8.46
650.09	6.46
650.123	-1.54
650.157	11.46
650.19	22.46
650.223	-3.54
650.256	14.46
650.29	-6.54
650.323	2.46
650.356	13.46
650.389	-1.54
650.423	-6.54
650.456	13.46
650.489	15.46
650.522	9.46
650.555	5.46
650.589	12.46
650.622	9.46
650.655	17.46
650.688	10.46
650.721	-0.54
650.755	2.46
650.788	5.46
650.821	7.46
650.854	4.46
650.887	14.46
650.921	7.46
650.954	3.46
650.987	-3.54
651.02	-6.54
651.053	-28.54
651.087	-16.54
651.12	11.46
651.153	0.46
651.186	9.46
651.219	4.46
651.252	-14.54
651.286	11.46
651.319	-4.54
651.352	-1.54
651.385	5.46
651.418	-8.54
651.451	8.46
651.484	0.46
651.518	-1.54
651.551	9.46
651.584	6.46
651.617	23.46
651.65	23.46
651.683	2.46
651.716	12.46
651.749	-0.54
651.783	-7.54
651.816	15.46
651.849	23.46
651.882	14.46
651.915	1.46
651.948	9.46
651.981	11.46
652.014	-1.54
652.047	-24.54
652.08	-1.54
652.114	-1.54
652.147	1.46
652.18	15.46
652.213	5.46
652.246	4.46
652.279	-17.54
652.312	15.46
652.345	4.46
652.378	19.46
652.411	5.46
652.444	8.46
652.477	-2.54
652.51	4.46
652.543	-5.54
652.576	11.46
652.609	-1.54
652.642	8.46
652.675	4.46
652.709	0.46
652.742	0.46
652.775	1.46
652.808	14.46
652.841	6.46
652.874	8.46
652.907	20.46
652.94	-2.54
652.973	-20.54
653.006	-5.54
653.039	5.46
653.072	9.46
653.105	4.46
653.138	-13.54
653.171	5.46
653.204	7.46
653.237	9.46
653.27	0.46
653.303	-2.54
653.336	2.46
653.368	-0.54
653.401	0.46
653.434	8.46
653.467	15.46
653.5	-15.54
653.533	-14.54
653.566	-2.54
653.599	-3.54
653.632	9.46
653.665	0.46
653.698	-4.54
653.731	-3.54
653.764	31.46
653.797	0.46
653.83	4.46
653.863	12.46
653.896	11.46
653.929	-1.54
653.961	-0.54
653.994	2.46
654.027	-10.54
654.06	4.46
654.093	14.46
654.126	17.46
654.159	-14.54
654.192	21.46
654.225	12.46
654.258	2.46
654.29	15.46
654.323	13.46
654.356	-2.54
654.389	9.46
654.422	7.46
654.455	18.46
654.488	13.46
654.521	-0.54
654.553	8.46
654.586	16.46
654.619	11.46
654.652	10.46
654.685	10.46
654.718	15.46
654.751	15.46
654.783	-3.54
654.816	24.46
654.849	3.46
654.882	-13.54
654.915	-13.54
654.948	-6.54
654.98	7.46
655.013	10.46
655.046	0.46
655.079	-6.54
655.112	-10.54
655.144	-1.54
655.177	14.46
655.21	7.46
655.243	9.46
655.276	2.46
655.308	9.46
655.341	5.46
655.374	7.46
655.407	-0.54
655.44	-3.54
655.472	15.46
655.505	3.46
655.538	5.46
655.571	26.46
655.603	0.46
655.636	3.46
655.669	-3.54
655.702	3.46
655.734	-20.54
655.767	-9.54
655.8	-3.54
655.833	9.46
655.865	5.46
655.898	2.46
655.931	18.46
655.964	15.46
655.996	10.46
656.029	22.46
656.062	44.46
656.095	52.46
656.127	77.46
656.16	199.46
656.193	630.46
656.225	968.46
656.258	562.46
656.291	227.46
656.324	189.46
656.356	368.46
656.389	766.46
656.422	671.46
656.454	227.46
656.487	86.46
656.52	50.46
656.552	14.46
656.585	7.46
656.618	3.46
656.65	9.46
656.683	-5.54
656.716	8.46
656.748	6.46
656.781	13.46
656.814	12.46
656.846	19.46
656.879	-0.54
656.912	8.46
656.944	-9.54
656.977	-23.54
657.01	3.46
657.042	9.46
657.075	15.46
657.108	0.46
657.14	5.46
657.173	1.46
657.205	16.46
657.238	11.46
657.271	4.46
657.303	-5.54
657.336	7.46
657.369	7.46
657.401	5.46
657.434	-5.54
657.466	4.46
657.499	10.46
657.532	1.46
657.564	14.46
657.597	-0.54
657.629	-3.54
657.662	-1.54
657.694	-1.54
657.727	-14.54
657.76	12.46
657.792	8.46
657.825	-3.54
657.857	9.46
657.89	-4.54
657.922	15.46
657.955	-3.54
657.987	-3.54
658.02	10.46
658.053	24.46
658.085	15.46
658.118	12.46
658.15	18.46
658.183	21.46
658.215	7.46
658.248	-19.54
658.28	-9.54
658.313	13.46
658.345	11.46
658.378	15.46
658.41	4.46
658.443	11.46
658.475	-1.54
658.508	8.46
658.54	-2.54
658.573	-6.54
658.605	-8.54
658.638	-7.54
658.67	12.46
658.703	19.46
658.735	9.46
658.768	8.46
658.8	-7.54
658.833	18.46
658.865	8.46
658.898	-3.54
658.93	-9.54
658.963	9.46
658.995	5.46
659.028	-8.54
659.06	-2.54
659.092	-7.54
659.125	-2.54
659.157	9.46
659.19	-6.54
659.222	8.46
659.255	12.46
659.287	12.46
659.32	-3.54
659.352	10.46
659.384	10.46
659.417	12.46
659.449	14.46
659.482	6.46
659.514	-12.54
659.546	-4.54
659.579	-8.54
659.611	7.46
659.644	1.46
659.676	-17.54
659.708	-8.54
659.741	-12.54
659.773	1.46
659.806	-1.54
659.838	-5.54
659.87	1.46
659.903	-6.54
659.935	2.46
659.967	14.46
660	7.46
660.032	-20.54
660.065	14.46
660.097	9.46
660.129	0.46
660.162	-20.54
660.194	1.46
660.226	8.46
660.259	-0.54
660.291	-13.54
660.323	-7.54
660.356	-5.54
660.388	2.46
660.42	13.46
660.453	10.46
660.485	10.46
660.517	6.46
660.55	-5.54
660.582	6.46
660.614	17.46
660.647	-3.54
660.679	-13.54
660.711	7.46
660.743	-1.54
660.776	-7.54
660.808	-2.54
660.84	-3.54
660.873	-16.54
660.905	-2.54
660.937	2.46
660.969	0.46
661.002	-8.54
661.034	17.46
661.066	10.46
661.099	7.46
661.131	14.46
661.163	10.46
661.195	3.46
661.228	27.46
661.26	-13.54
661.292	4.46
661.324	12.46
661.357	7.46
661.389	12.46
661.421	4.46
661.453	-6.54
661.485	10.46
661.518	8.46
661.55	-13.54
661.582	-14.54
661.614	6.46
661.647	9.46
661.679	-5.54
661.711	10.46
661.743	-10.54
661.775	15.46
661.808	20.46
661.84	-9.54
661.872	-5.54
661.904	-3.54
661.936	4.46
661.969	-13.54
662.001	-19.54
662.033	10.46
662.065	-15.54
662.097	3.46
662.129	-12.54
662.162	-4.54
662.194	18.46
662.226	-14.54
662.258	10.46
662.29	3.46
662.322	-1.54
662.355	-0.54
662.387	25.46
662.419	11.46
662.451	9.46
662.483	20.46
662.515	18.46
662.547	5.46
662.58	-10.54
662.612	-24.54
662.644	-0.54
662.676	10.46
662.708	30.46
662.74	-6.54
662.772	-7.54
662.804	0.46
662.836	4.46
662.869	-15.54
662.901	15.46
662.933	2.46
662.965	11.46
662.997	8.46
663.029	-5.54
663.061	6.46
663.093	-1.54
663.125	9.46
663.157	9.46
663.189	4.46
663.221	12.46
663.254	-10.54
663.286	6.46
663.318	-11.54
663.35	-3.54
663.382	-12.54
663.414	1.46
663.446	8.46
663.478	4.46
663.51	10.46
663.542	-5.54
663.574	2.46
663.606	5.46
663.638	-24.54
663.67	-0.54
663.702	14.46
663.734	6.46
663.766	8.46
663.798	-1.54
663.83	-16.54
663.862	8.46
663.894	0.46
663.926	-11.54
663.958	4.46
663.99	8.46
664.022	11.46
664.054	6.46
664.086	1.46
664.118	-18.54
664.15	-8.54
664.182	5.46
664.214	4.46
664.246	2.46
664.278	2.46
664.31	3.46
664.342	22.46
664.374	10.46
664.406	9.46
664.438	9.46
664.47	2.46
664.502	-10.54
664.534	-17.54
664.566	-19.54
664.598	10.46
664.63	-8.54
664.662	-3.54
664.693	3.46
664.725	-2.54
664.757	1.46
664.789	-23.54
664.821	10.46
664.853	4.46
664.885	0.46
664.917	-11.54
664.949	19.46
664.981	9.46
665.013	8.46
665.045	-10.54
665.076	0.46
665.108	-3.54
665.14	-5.54
665.172	-1.54
665.204	-6.54
665.236	-10.54
665.268	3.46
665.3	-4.54
665.331	-17.54
665.363	10.46
665.395	-1.54
665.427	9.46
665.459	19.46
665.491	12.46
665.523	9.46
665.555	2.46
665.586	-4.54
665.618	-4.54
665.65	-7.54
665.682	9.46
665.714	15.46
665.746	1.46
665.777	-5.54
665.809	-6.54
665.841	-14.54
665.873	-8.54
665.905	1.46
665.937	8.46
665.968	12.46
666	9.46
666.032	14.46
666.064	-2.54
666.096	-5.54
666.127	-3.54
666.159	12.46
666.191	13.46
666.223	2.46
666.255	19.46
666.286	2.46
666.318	0.46
666.35	6.46
666.382	12.46
666.413	11.46
666.445	0.46
666.477	-2.54
666.509	-15.54
666.54	17.46
666.572	-11.54
666.604	9.46
666.636	1.46
666.667	14.46
666.699	8.46
666.731	5.46
666.763	-3.54
666.794	6.46
666.826	15.46
666.858	-15.54
666.89	19.46
666.921	6.46
666.953	4.46
666.985	8.46
667.017	32.46
667.048	0.46
667.08	1.46
667.112	-6.54
667.143	-18.54
667.175	-0.54
667.207	22.46
667.238	7.46
667.27	5.46
667.302	8.46
667.334	-10.54
667.365	17.46
667.397	-1.54
667.429	10.46
667.46	26.46
667.492	14.46
667.524	0.46
667.555	-6.54
667.587	-3.54
667.619	12.46
667.65	13.46
667.682	9.46
667.714	5.46
667.745	7.46
667.777	-2.54
667.808	-4.54
667.84	-0.54
667.872	11.46
667.903	22.46
667.935	0.46
667.967	9.46
667.998	-1.54
668.03	-10.54
668.061	-0.54
668.093	-3.54
668.125	5.46
668.156	-2.54
668.188	-9.54
668.22	-5.54
668.251	10.46
668.283	15.46
668.314	29.46
668.346	-6.54
668.377	0.46
668.409	-6.54
668.441	6.46
668.472	-6.54
668.504	11.46
668.535	6.46
668.567	19.46
668.599	0.46
668.63	-5.54
668.662	-1.54
668.693	4.46
668.725	2.46
668.756	-4.54
668.788	11.46
668.819	3.46
668.851	12.46
668.882	8.46
668.914	11.46
668.946	-6.54
668.977	-6.54
669.009	2.46
669.04	-1.54
669.072	7.46
669.103	7.46
669.135	-4.54
669.166	1.46
669.198	-7.54
669.229	1.46
669.261	-5.54
669.292	5.46
669.324	9.46
669.355	2.46
669.387	-6.54
669.418	18.46
669.45	13.46
669.481	-4.54
669.513	-1.54
669.544	7.46
669.576	-5.54
669.607	4.46
669.639	20.46
669.67	-8.54
669.701	-2.54
669.733	-9.54
669.764	10.46
669.796	-5.54
669.827	-15.54
669.859	-5.54
669.89	16.46
669.922	8.46
669.953	12.46
669.985	0.46
670.016	-3.54
670.047	2.46
670.079	-0.54
670.11	6.46
670.142	-18.54
670.173	7.46
670.204	-0.54
670.236	4.46
670.267	-5.54
670.299	9.46
670.33	8.46
670.362	6.46
670.393	12.46
670.424	6.46
670.456	-6.54
670.487	22.46
670.518	8.46
670.55	7.46
670.581	9.46
670.613	7.46
670.644	-5.54
670.675	3.46
670.707	-6.54
670.738	-4.54
670.769	-10.54
670.801	-18.54
670.832	-3.54
670.864	-2.54
670.895	-0.54
670.926	-7.54
670.958	0.46
670.989	3.46
671.02	1.46
671.052	7.46
671.083	6.46
671.114	-2.54
671.146	-4.54
671.177	2.46
671.208	2.46
671.24	-17.54
671.271	-11.54
671.302	17.46
671.333	-14.54
671.365	-5.54
671.396	3.46
671.427	26.46
671.459	24.46
671.49	9.46
671.521	5.46
671.553	-2.54
671.584	8.46
671.615	-3.54
671.646	6.46
671.678	7.46
671.709	3.46
671.74	-7.54
671.771	9.46
671.803	1.46
671.834	13.46
671.865	-2.54
671.896	9.46
671.928	5.46
671.959	-0.54
671.99	-11.54
672.021	-14.54
672.053	-5.54
672.084	10.46
672.115	12.46
672.146	-5.54
672.178	-13.54
672.209	-5.54
672.24	-17.54
672.271	18.46
672.303	6.46
672.334	-1.54
672.365	0.46
672.396	6.46
672.427	6.46
672.459	17.46
672.49	19.46
672.521	19.46
672.552	9.46
672.583	17.46
672.615	-2.54
672.646	5.46
672.677	8.46
672.708	2.46
672.739	-6.54
672.77	8.46
672.802	4.46
672.833	10.46
672.864	7.46
672.895	4.46
672.926	14.46
672.957	-4.54
672.989	-5.54
673.02	14.46
673.051	11.46
673.082	6.46
673.113	6.46
673.144	8.46
673.175	9.46
673.206	2.46
673.238	2.46
673.269	10.46
673.3	-9.54
673.331	-4.54
673.362	5.46
673.393	21.46
673.424	10.46
673.455	13.46
673.487	5.46
673.518	15.46
673.549	8.46
673.58	10.46
673.611	-6.54
673.642	1.46
673.673	0.46
673.704	2.46
673.735	0.46
673.766	-0.54
673.797	1.46
673.828	14.46
673.86	9.46
673.891	-7.54
673.922	-17.54
673.953	2.46
673.984	13.46
674.015	28.46
674.046	-4.54
674.077	0.46
674.108	-1.54
674.139	-3.54
674.17	-0.54
674.201	-6.54
674.232	-10.54
674.263	-2.54
674.294	8.46
674.325	-17.54
674.356	0.46
674.387	9.46
674.418	9.46
674.449	-13.54
674.48	-3.54
674.511	7.46
674.542	2.46
674.573	-13.54
674.604	14.46
674.635	-0.54
674.666	5.46
674.697	11.46
674.728	18.46
674.759	-0.54
674.79	-16.54
674.821	-13.54
674.852	-9.54
674.883	0.46
674.914	-2.54
674.945	-11.54
674.976	7.46
675.007	-13.54
675.038	-6.54
675.069	-10.54
675.1	-1.54
675.131	-7.54
675.162	4.46
675.193	0.46
675.224	-1.54
675.254	20.46
675.285	-3.54
675.316	-1.54
675.347	14.46
675.378	6.46
675.409	-1.54
675.44	11.46
675.471	5.46
675.502	-7.54
675.533	-0.54
675.564	-5.54
675.595	8.46
675.625	16.46
675.656	8.46
675.687	7.46
675.718	-21.54
675.749	4.46
675.78	0.46
675.811	14.46
675.842	12.46
675.873	-6.54
675.903	-13.54
675.934	12.46
675.965	2.46
675.996	-1.54
676.027	6.46
676.058	-5.54
676.089	-9.54
676.119	-9.54
676.15	-9.54
676.181	-3.54
676.212	-0.54
676.243	-8.54
676.274	2.46
676.304	24.46
676.335	-0.54
676.366	16.46
676.397	11.46
676.428	21.46
676.459	-0.54
676.489	12.46
676.52	24.46
676.551	-4.54
676.582	5.46
676.613	13.46
676.643	5.46
676.674	9.46
676.705	7.46
676.736	11.46
676.767	13.46
676.797	7.46
676.828	1.46
676.859	-7.54
676.89	-10.54
676.92	-1.54
676.951	9.46
676.982	10.46
677.013	2.46
677.044	3.46
677.074	13.46
677.105	-18.54
677.136	-2.54
677.167	3.46
677.197	5.46
677.228	0.46
677.259	-2.54
677.289	-2.54
677.32	-16.54
677.351	2.46
677.382	0.46
677.412	-1.54
677.443	14.46
677.474	-3.54
677.505	-4.54
677.535	-6.54
677.566	7.46
677.597	-25.54
677.627	-14.54
677.658	-0.54
677.689	-8.54
677.72	7.46
677.75	-4.54
677.781	13.46
677.812	7.46
677.842	28.46
677.873	-0.54
677.904	13.46
677.934	4.46
677.965	-1.54
677.996	10.46
678.026	-5.54
678.057	8.46
678.088	-8.54
678.118	-0.54
678.149	-12.54
678.18	-4.54
678.21	2.46
678.241	-4.54
678.272	9.46
678.302	19.46
678.333	11.46
678.363	25.46
678.394	5.46
678.425	-0.54
678.455	-5.54
678.486	7.46
678.517	-18.54
678.547	0.46
678.578	2.46
678.608	-7.54
678.639	0.46
678.67	9.46
678.7	-9.54
678.731	5.46
678.761	4.46
678.792	9.46
678.823	0.46
678.853	16.46
678.884	5.46
678.914	14.46
678.945	1.46
678.975	-17.54
679.006	17.46
679.037	7.46
679.067	29.46
679.098	4.46
679.128	-7.54
679.159	9.46
679.189	13.46
679.22	-10.54
679.25	6.46
679.281	4.46
679.312	18.46
679.342	8.46
679.373	42.46
679.403	12.46
679.434	13.46
679.464	9.46
679.495	7.46
679.525	2.46
679.556	-18.54
679.586	14.46
679.617	2.46
679.647	9.46
679.678	1.46
679.708	9.46
679.739	9.46
679.769	10.46
679.8	-7.54
679.83	16.46
679.861	5.46
679.891	3.46
679.922	-6.54
679.952	8.46
679.983	-7.54
680.013	0.46
680.044	-8.54
680.074	21.46
680.105	4.46
680.135	14.46
680.165	9.46
680.196	19.46
680.226	4.46
680.257	2.46
680.287	-4.54
680.318	4.46
680.348	1.46
680.379	5.46
680.409	9.46
680.439	-7.54
680.47	5.46
680.5	6.46
680.531	4.46
680.561	20.46
680.592	4.46
680.622	12.46
680.652	12.46
680.683	35.46
680.713	-17.54
680.744	2.46
680.774	-10.54
680.804	27.46
680.835	0.46
680.865	-8.54
680.896	10.46
680.926	6.46
680.956	-4.54
680.987	-6.54
681.017	-5.54
681.047	-1.54
681.078	-3.54
681.108	5.46
681.139	-18.54
681.169	-4.54
681.199	2.46
681.23	18.46
681.26	11.46
681.29	11.46
681.321	-4.54
681.351	7.46
681.381	6.46
681.412	3.46
681.442	19.46
681.472	25.46
681.503	12.46
681.533	0.46
681.563	-14.54
681.594	3.46
681.624	-0.54
681.654	-7.54
681.685	-1.54
681.715	9.46
681.745	-0.54
681.775	-5.54
681.806	-2.54
681.836	-3.54
681.866	-8.54
681.897	-2.54
681.927	3.46
681.957	-12.54
681.987	0.46
682.018	1.46
682.048	16.46
682.078	9.46
682.109	26.46
682.139	18.46
682.169	7.46
682.199	-3.54
682.23	-7.54
682.26	8.46
682.29	-9.54
682.32	-1.54
682.351	-0.54
682.381	6.46
682.411	1.46
682.441	-6.54
682.472	-5.54
682.502	18.46
682.532	14.46
682.562	10.46
682.592	-1.54
682.623	2.46
682.653	-7.54
682.683	-4.54
682.713	6.46
682.743	0.46
682.774	1.46
682.804	7.46
682.834	22.46
682.864	1.46
682.894	-2.54
682.925	-2.54
682.955	11.46
682.985	1.46
683.015	2.46
683.045	20.46
683.076	-3.54
683.106	-2.54
683.136	-19.54
683.166	-7.54
683.196	-10.54
683.226	1.46
683.257	-0.54
683.287	1.46
683.317	-13.54
683.347	-13.54
683.377	-0.54
683.407	-3.54
683.437	14.46
683.468	6.46
683.498	0.46
683.528	6.46
683.558	10.46
683.588	-2.54
683.618	-4.54
683.648	-8.54
683.678	5.46
683.708	12.46
683.739	2.46
683.769	-6.54
683.799	6.46
683.829	-10.54
683.859	9.46
683.889	15.46
683.919	10.46
683.949	6.46
683.979	4.46
684.009	19.46
684.039	-0.54
684.07	-16.54
684.1	11.46
684.13	7.46
684.16	-4.54
684.19	2.46
684.22	-4.54
684.25	-6.54
684.28	-5.54
684.31	12.46
684.34	6.46
684.37	0.46
684.4	-13.54
684.43	6.46
684.46	-6.54
684.49	-9.54
684.52	14.46
684.55	20.46
684.58	4.46
684.61	3.46
684.64	18.46
684.67	7.46
684.7	-6.54
684.73	5.46
684.76	-7.54
684.79	21.46
684.82	16.46
684.85	-1.54
684.88	11.46
684.91	13.46
684.94	18.46
684.97	-7.54
685	-5.54
685.03	-6.54
685.06	0.46
685.09	-6.54
685.12	18.46
685.15	0.46
685.18	13.46
685.21	-2.54
685.24	13.46
685.27	13.46
685.3	-3.54
685.33	13.46
685.36	-5.54
685.39	-5.54
685.42	3.46
685.45	-0.54
685.48	9.46
685.51	1.46
685.54	7.46
685.569	2.46
685.599	7.46
685.629	9.46
685.659	6.46
685.689	0.46
685.719	-9.54
685.749	13.46
685.779	-2.54
685.809	9.46
685.839	0.46
685.869	5.46
685.898	12.46
685.928	-9.54
685.958	0.46
685.988	5.46
686.018	-26.54
686.048	-0.54
686.078	8.46
686.108	26.46
686.137	16.46
686.167	15.46
686.197	-5.54
686.227	9.46
686.257	27.46
686.287	12.46
686.317	12.46
686.346	9.46
686.376	-9.54
686.406	1.46
686.436	17.46
686.466	0.46
686.496	9.46
686.525	-5.54
686.555	-1.54
686.585	11.46
686.615	11.46
686.645	-0.54
686.675	-10.54
686.704	-4.54
686.734	0.46
686.764	-8.54
686.794	7.46
686.824	3.46
686.853	9.46
686.883	24.46
686.913	6.46
686.943	2.46
686.973	-4.54
687.002	1.46
687.032	14.46
687.062	0.46
687.092	13.46
687.121	-1.54
687.151	-8.54
687.181	-14.54
687.211	18.46
687.24	-6.54
687.27	-5.54
687.3	-6.54
687.33	-1.54
687.359	1.46
687.389	16.46
687.419	12.46
687.449	9.46
687.478	9.46
687.508	7.46
687.538	7.46
687.568	9.46
687.597	2.46
687.627	19.46
687.657	-1.54
687.686	13.46
687.716	18.46
687.746	6.46
687.776	1.46
687.805	9.46
687.835	8.46
687.865	13.46
687.894	9.46
687.924	0.46
687.954	11.46
687.983	-14.54
688.013	5.46
688.043	18.46
688.072	16.46
688.102	7.46
688.132	-1.54
688.161	-4.54
688.191	-6.54
688.221	26.46
688.25	-13.54
688.28	8.46
688.31	17.46
688.339	-13.54
688.369	-8.54
688.399	-8.54
688.428	6.46
688.458	3.46
688.488	9.46
688.517	10.46
688.547	-5.54
688.576	22.46
688.606	28.46
688.636	3.46
688.665	10.46
688.695	-2.54
688.725	12.46
688.754	8.46
688.784	8.46
688.813	7.46
688.843	10.46
688.873	8.46
688.902	14.46
688.932	9.46
688.961	7.46
688.991	8.46
689.02	8.46
689.05	-2.54
689.08	11.46
689.109	6.46
689.139	-1.54
689.168	7.46
689.198	7.46
689.227	-9.54
689.257	-11.54
689.287	21.46
689.316	14.46
689.346	-15.54
689.375	3.46
689.405	18.46
689.434	5.46
689.464	9.46
689.493	5.46
689.523	-4.54
689.552	-5.54
689.582	6.46
689.611	10.46
689.641	-5.54
689.67	-11.54
689.7	1.46
689.73	21.46
689.759	8.46
689.789	18.46
689.818	14.46
689.848	-0.54
689.877	17.46
689.906	5.46
689.936	3.46
689.965	16.46
689.995	9.46
690.024	14.46
690.054	-0.54
690.083	-10.54
690.113	-9.54
690.142	-3.54
690.172	0.46
690.201	3.46
690.231	-5.54
690.26	18.46
690.29	19.46
690.319	8.46
690.348	-1.54
690.378	1.46
690.407	4.46
690.437	9.46
690.466	-2.54
690.496	9.46
690.525	11.46
690.555	-3.54
690.584	-1.54
690.613	-2.54
690.643	8.46
690.672	6.46
690.702	3.46
690.731	9.46
690.76	10.46
690.79	2.46
690.819	-0.54
690.849	5.46
690.878	8.46
690.907	10.46
690.937	7.46
690.966	5.46
690.996	13.46
691.025	-3.54
691.054	1.46
691.084	5.46
691.113	10.46
691.142	4.46
691.172	23.46
691.201	19.46
691.23	-3.54
691.26	2.46
691.289	-3.54
691.319	-14.54
691.348	-1.54
691.377	6.46
691.407	-5.54
691.436	2.46
691.465	11.46
691.495	4.46
691.524	-0.54
691.553	-0.54
691.583	-0.54
691.612	15.46
691.641	2.46
691.67	3.46
691.7	5.46
691.729	-25.54
691.758	-0.54
691.788	-5.54
691.817	4.46
691.846	-6.54
691.876	8.46
691.905	8.46
691.934	5.46
691.963	13.46
691.993	1.46
692.022	-1.54
692.051	-9.54
692.081	12.46
692.11	25.46
692.139	-4.54
692.168	11.46
692.198	13.46
692.227	13.46
692.256	8.46
692.285	3.46
692.315	8.46
692.344	16.46
692.373	5.46
692.402	-12.54
692.432	-16.54
692.461	-13.54
692.49	2.46
692.519	1.46
692.548	12.46
692.578	8.46
692.607	-7.54
692.636	4.46
692.665	0.46
692.694	5.46
692.724	0.46
692.753	35.46
692.782	12.46
692.811	-6.54
692.84	4.46
692.87	-0.54
692.899	-1.54
692.928	-0.54
692.957	16.46
692.986	4.46
693.016	-19.54
693.045	-2.54
693.074	6.46
693.103	16.46
693.132	18.46
693.161	4.46
693.191	0.46
693.22	0.46
693.249	1.46
693.278	-2.54
693.307	8.46
693.336	3.46
693.365	-0.54
693.395	6.46
693.424	-2.54
693.453	28.46
693.482	11.46
693.511	15.46
693.54	9.46
693.569	17.46
693.598	5.46
693.628	13.46
693.657	1.46
693.686	23.46
693.715	16.46
693.744	25.46
693.773	13.46
693.802	4.46
693.831	-2.54
693.86	27.46
693.889	11.46
693.919	16.46
693.948	6.46
693.977	5.46
694.006	4.46
694.035	0.46
694.064	-4.54
694.093	14.46
694.122	2.46
694.151	0.46
694.18	12.46
694.209	17.46
694.238	11.46
694.267	16.46
694.296	4.46
694.325	-0.54
694.354	8.46
694.383	10.46
694.412	3.46
694.441	6.46
694.471	1.46
694.5	-0.54
694.529	11.46
694.558	31.46
694.587	15.46
694.616	7.46
694.645	5.46
694.674	5.46
694.703	16.46
694.732	4.46
694.761	11.46
694.79	16.46
694.819	-0.54
694.848	2.46
694.877	20.46
694.906	14.46
694.935	11.46
694.963	15.46
694.992	-7.54
695.021	9.46
695.05	10.46
695.079	10.46
695.108	6.46
695.137	33.46
695.166	26.46
695.195	-12.54
695.224	-3.54
695.253	-17.54
695.282	-3.54
695.311	13.46
695.34	-5.54
695.369	8.46
695.398	23.46
695.427	25.46
695.456	11.46
695.485	-2.54
695.513	15.46
695.542	11.46
695.571	13.46
695.6	20.46
695.629	1.46
695.658	20.46
695.687	-0.54
695.716	8.46
695.745	20.46
695.774	5.46
695.802	10.46
695.831	16.46
695.86	3.46
695.889	11.46
695.918	10.46
695.947	-3.54
695.976	-2.54
696.005	11.46
696.033	10.46
696.062	18.46
696.091	6.46
696.12	11.46
696.149	24.46
696.178	17.46
696.207	12.46
696.235	6.46
696.264	9.46
696.293	7.46
696.322	2.46
696.351	24.46
696.38	-6.54
696.408	-3.54
696.437	8.46
696.466	17.46
696.495	19.46
696.524	13.46
696.553	10.46
696.581	11.46
696.61	5.46
696.639	-7.54
696.668	10.46
696.697	-9.54
696.725	11.46
696.754	4.46
696.783	-0.54
696.812	-5.54
696.84	5.46
696.869	3.46
696.898	-6.54
696.927	-5.54
696.956	21.46
696.984	4.46
697.013	4.46
697.042	-0.54
697.071	12.46
697.099	21.46
697.128	20.46
697.157	16.46
697.186	5.46
697.214	17.46
697.243	-6.54
697.272	9.46
697.301	1.46
697.329	-4.54
697.358	5.46
697.387	14.46
697.415	18.46
697.444	2.46
697.473	0.46
697.502	14.46
697.53	17.46
697.559	1.46
697.588	18.46
697.616	9.46
697.645	7.46
697.674	4.46
697.703	-8.54
697.731	6.46
697.76	-3.54
697.789	14.46
697.817	10.46
697.846	30.46
697.875	6.46
697.903	25.46
697.932	5.46
697.961	0.46
697.989	5.46
698.018	17.46
698.047	3.46
698.075	10.46
698.104	2.46
698.133	-1.54
698.161	7.46
698.19	5.46
698.218	-0.54
698.247	10.46
698.276	-7.54
698.304	6.46
698.333	11.46
698.362	7.46
698.39	8.46
698.419	7.46
698.447	2.46
698.476	13.46
698.505	19.46
698.533	10.46
698.562	23.46
698.591	2.46
698.619	-6.54
698.648	11.46
698.676	8.46
698.705	-4.54
698.733	-5.54
698.762	11.46
698.791	12.46
698.819	18.46
698.848	8.46
698.876	19.46
698.905	16.46
698.933	10.46
698.962	0.46
698.991	18.46
699.019	18.46
699.048	13.46
699.076	5.46
699.105	-13.54
699.133	-9.54
699.162	6.46
699.19	22.46
699.219	1.46
699.248	-1.54
699.276	-3.54
699.305	-3.54
699.333	5.46
699.362	6.46
699.39	11.46
699.419	-4.54
699.447	17.46
699.476	12.46
699.504	-3.54
699.533	2.46
699.561	-3.54
699.59	3.46
699.618	0.46
699.647	2.46
699.675	12.46
699.704	14.46
699.732	5.46
699.761	3.46
699.789	12.46
699.818	15.46
699.846	19.46
699.874	-1.54
699.903	0.46
699.931	-3.54
699.96	16.46
699.988	10.46
700.017	6.46
700.045	5.46
700.074	12.46
700.102	8.46
700.13	3.46
700.159	-0.54
700.187	9.46
700.216	0.46
700.244	-6.54
700.273	-12.54
700.301	-2.54
700.329	4.46
700.358	9.46
700.386	-6.54
700.415	3.46
700.443	5.46
700.472	1.46
700.5	6.46
700.528	19.46
700.557	16.46
700.585	1.46
700.614	-5.54
700.642	10.46
700.67	16.46
700.699	6.46
700.727	-6.54
700.755	-2.54
700.784	15.46
700.812	10.46
700.841	10.46
700.869	0.46
700.897	3.46
700.926	-9.54
700.954	13.46
700.982	7.46
701.011	-1.54
701.039	-4.54
701.067	10.46
701.096	6.46
701.124	15.46
701.152	22.46
701.181	10.46
701.209	-12.54
701.237	-0.54
701.266	-6.54
701.294	-6.54
701.322	5.46
701.351	18.46
701.379	1.46
701.407	-12.54
701.435	6.46
701.464	24.46
701.492	17.46
701.52	8.46
701.549	-6.54
701.577	2.46
701.605	0.46
701.634	-2.54
701.662	9.46
701.69	1.46
701.718	-4.54
701.747	9.46
701.775	5.46
701.803	-14.54
701.831	2.46
701.86	1.46
701.888	5.46
701.916	2.46
701.944	10.46
701.973	15.46
702.001	-17.54
702.029	-0.54
702.057	-2.54
702.086	-7.54
702.114	2.46
702.142	-5.54
702.17	-2.54
702.199	-4.54
702.227	5.46
702.255	4.46
702.283	6.46
702.311	5.46
702.34	12.46
702.368	6.46
702.396	6.46
702.424	8.46
702.452	-6.54
702.481	19.46
702.509	10.46
702.537	4.46
702.565	0.46
702.593	-14.54
702.621	0.46
702.65	5.46
702.678	11.46
702.706	11.46
702.734	-9.54
702.762	-9.54
702.79	-2.54
702.819	4.46
702.847	17.46
702.875	14.46
702.903	19.46
702.931	-2.54
702.959	0.46
702.988	-2.54
703.016	7.46
703.044	-6.54
703.072	-3.54
703.1	-3.54
703.128	-6.54
703.156	-11.54
703.184	-8.54
703.212	16.46
703.241	16.46
703.269	2.46
703.297	3.46
703.325	3.46
703.353	-7.54
703.381	-1.54
703.409	9.46
703.437	-4.54
703.465	-9.54
703.493	-0.54
703.522	-3.54
703.55	5.46
703.578	5.46
703.606	-14.54
703.634	1.46
703.662	9.46
703.69	7.46
703.718	8.46
703.746	8.46
703.774	0.46
703.802	18.46
703.83	7.46
703.858	3.46
703.886	-8.54
703.914	-21.54
703.942	8.46
703.97	-6.54
703.998	-4.54
704.027	2.46
704.055	2.46
704.083	13.46
704.111	-1.54
704.139	10.46
704.167	7.46
704.195	-7.54
704.223	-10.54
704.251	-1.54
704.279	11.46
704.307	7.46
704.335	-25.54
704.363	7.46
704.391	3.46
704.419	9.46
704.447	-8.54
704.475	-4.54
704.503	-2.54
704.531	20.46
704.558	5.46
704.586	-1.54
704.614	4.46
704.642	2.46
704.67	-22.54
704.698	2.46
704.726	18.46
704.754	-7.54
704.782	-5.54
704.81	6.46
704.838	18.46
704.866	13.46
704.894	-9.54
704.922	-0.54
704.95	1.46
704.978	16.46
705.006	-0.54
705.034	12.46
705.061	5.46
705.089	-9.54
705.117	-7.54
705.145	-15.54
705.173	3.46
705.201	0.46
705.229	3.46
705.257	13.46
705.285	10.46
705.313	17.46
705.34	17.46
705.368	-5.54
705.396	4.46
705.424	-5.54
705.452	5.46
705.48	13.46
705.508	-14.54
705.536	-12.54
705.563	-1.54
705.591	12.46
705.619	15.46
705.647	10.46
705.675	8.46
705.703	9.46
705.731	1.46
705.758	11.46
705.786	8.46
705.814	9.46
705.842	13.46
705.87	17.46
705.898	10.46
705.925	-0.54
705.953	7.46
705.981	3.46
706.009	0.46
706.037	5.46
706.065	0.46
706.092	-5.54
706.12	6.46
706.148	14.46
706.176	-10.54
706.204	17.46
706.231	-0.54
706.259	-9.54
706.287	-5.54
706.315	-2.54
706.342	1.46
706.37	19.46
706.398	10.46
706.426	13.46
706.454	11.46
706.481	17.46
706.509	4.46
706.537	8.46
706.565	-14.54
706.592	6.46
706.62	7.46
706.648	12.46
706.676	-9.54
706.703	5.46
706.731	-10.54
706.759	3.46
706.787	-1.54
706.814	-0.54
706.842	1.46
706.87	2.46
706.897	-9.54
706.925	3.46
706.953	20.46
706.981	9.46
707.008	10.46
707.036	10.46
707.064	-0.54
707.091	-17.54
707.119	12.46
707.147	-2.54
707.174	-15.54
707.202	14.46
707.23	-0.54
707.258	-9.54
707.285	-7.54
707.313	5.46
707.341	-4.54
707.368	-8.54
707.396	-6.54
707.424	9.46
707.451	13.46
707.479	1.46
707.507	6.46
707.534	3.46
707.562	-1.54
707.59	-6.54
707.617	4.46
707.645	-2.54
707.672	10.46
707.7	3.46
707.728	21.46
707.755	5.46
707.783	4.46
707.811	13.46
707.838	-5.54
707.866	-4.54
707.893	-2.54
707.921	-13.54
707.949	-9.54
707.976	6.46
708.004	-3.54
708.031	3.46
708.059	11.46
708.087	0.46
708.114	-2.54
708.142	-4.54
708.169	-3.54
708.197	-5.54
708.225	2.46
708.252	0.46
708.28	11.46
708.307	0.46
708.335	5.46
708.362	11.46
708.39	1.46
708.418	-7.54
708.445	-23.54
708.473	-10.54
708.5	-6.54
708.528	11.46
708.555	0.46
708.583	12.46
708.61	-0.54
708.638	10.46
708.665	2.46
708.693	2.46
708.72	-5.54
708.748	-11.54
708.776	-7.54
708.803	21.46
708.831	23.46
708.858	13.46
708.886	12.46
708.913	-1.54
708.941	-14.54
708.968	18.46
708.996	7.46
709.023	22.46
709.051	-8.54
709.078	0.46
709.105	5.46
709.133	7.46
709.16	0.46
709.188	24.46
709.215	8.46
709.243	1.46
709.27	-9.54
709.298	-0.54
709.325	-5.54
709.353	-5.54
709.38	5.46
709.408	19.46
709.435	13.46
709.462	-2.54
709.49	2.46
709.517	1.46
709.545	-4.54
709.572	-10.54
709.6	-10.54
709.627	10.46
709.655	7.46
709.682	-10.54
709.709	9.46
709.737	1.46
709.764	3.46
709.792	8.46
709.819	-6.54
709.846	-3.54
709.874	7.46
709.901	7.46
709.929	5.46
709.956	5.46
709.983	-5.54
710.011	0.46
710.038	0.46
710.066	14.46
710.093	1.46
710.12	-1.54
710.148	10.46
710.175	1.46
710.202	-8.54
710.23	10.46
710.257	2.46
710.284	-0.54
710.312	0.46
710.339	7.46
710.366	4.46
710.394	3.46
710.421	-2.54
710.448	14.46
710.476	-1.54
710.503	9.46
710.53	18.46
710.558	9.46
710.585	4.46
710.612	-7.54
710.64	-0.54
710.667	5.46
710.694	-2.54
710.722	1.46
710.749	13.46
710.776	4.46
710.804	19.46
710.831	-0.54
710.858	9.46
710.885	1.46
710.913	2.46
710.94	13.46
710.967	2.46
710.995	8.46
711.022	11.46
711.049	10.46
711.076	-17.54
711.104	-6.54
711.131	-7.54
711.158	18.46
711.185	12.46
711.213	-0.54
711.24	0.46
711.267	1.46
711.294	0.46
711.322	4.46
711.349	4.46
711.376	-2.54
711.403	-0.54
711.431	2.46
711.458	-2.54
711.485	1.46
711.512	10.46
711.54	5.46
711.567	14.46
711.594	8.46
711.621	1.46
711.648	7.46
711.676	14.46
711.703	-3.54
711.73	-19.54
711.757	3.46
711.784	-9.54
711.812	-17.54
711.839	4.46
711.866	14.46
711.893	2.46
711.92	4.46
711.947	0.46
711.975	22.46
712.002	1.46
712.029	13.46
712.056	6.46
712.083	23.46
712.11	-10.54
712.138	8.46
712.165	4.46
712.192	3.46
712.219	4.46
712.246	-9.54
712.273	-1.54
712.3	-17.54
712.328	24.46
712.355	0.46
712.382	-5.54
712.409	15.46
712.436	-0.54
712.463	13.46
712.49	21.46
712.517	14.46
712.544	2.46
712.572	12.46
712.599	-8.54
712.626	1.46
712.653	-6.54
712.68	-8.54
712.707	7.46
712.734	15.46
712.761	9.46
712.788	2.46
712.815	-0.54
712.842	10.46
712.87	-5.54
712.897	-2.54
712.924	-4.54
712.951	2.46
712.978	18.46
713.005	11.46
713.032	11.46
713.059	7.46
713.086	0.46
713.113	-0.54
713.14	-1.54
713.167	2.46
713.194	9.46
713.221	5.46
713.248	3.46
713.275	-2.54
713.302	-5.54
713.329	2.46
713.356	7.46
713.383	7.46
713.41	12.46
713.437	-0.54
713.464	-6.54
713.491	2.46
713.518	2.46
713.545	1.46
713.572	-0.54
713.599	16.46
713.626	1.46
713.653	15.46
713.68	-8.54
713.707	-0.54
713.734	6.46
713.761	3.46
713.788	0.46
713.815	-2.54
713.842	1.46
713.869	2.46
713.896	5.46
713.923	8.46
713.95	2.46
713.977	-0.54
714.004	-3.54
714.031	-16.54
714.058	2.46
714.085	-1.54
714.112	7.46
714.139	20.46
714.165	-1.54
714.192	-6.54
714.219	10.46
714.246	3.46
714.273	8.46
714.3	6.46
714.327	13.46
714.354	1.46
714.381	12.46
714.408	10.46
714.435	4.46
714.461	-1.54
714.488	19.46
714.515	-4.54
714.542	-19.54
714.569	-5.54
714.596	-9.54
714.623	-12.54
714.65	-9.54
714.677	5.46
714.703	5.46
714.73	1.46
714.757	2.46
714.784	15.46
714.811	2.46
714.838	13.46
714.865	-0.54
714.891	22.46
714.918	6.46
714.945	-3.54
714.972	1.46
714.999	-0.54
715.026	-15.54
715.052	15.46
715.079	-2.54
715.106	1.46
715.133	5.46
715.16	-8.54
715.187	7.46
715.213	6.46
715.24	-0.54
715.267	-1.54
715.294	3.46
715.321	7.46
715.347	-0.54
715.374	10.46
715.401	7.46
715.428	2.46
715.455	17.46
715.481	-9.54
715.508	-0.54
715.535	8.46
715.562	26.46
715.588	8.46
715.615	2.46
715.642	2.46
715.669	24.46
715.695	-0.54
715.722	0.46
715.749	0.46
715.776	9.46
715.802	5.46
715.829	24.46
715.856	-7.54
715.883	9.46
715.909	2.46
715.936	4.46
715.963	0.46
715.99	-5.54
716.016	-4.54
716.043	9.46
716.07	-0.54
716.096	-3.54
716.123	17.46
716.15	2.46
716.177	-1.54
716.203	3.46
716.23	23.46
716.257	5.46
716.283	14.46
716.31	7.46
716.337	9.46
716.363	-3.54
716.39	7.46
716.417	14.46
716.443	7.46
716.47	5.46
716.497	5.46
716.523	15.46
716.55	11.46
716.577	18.46
716.603	1.46
716.63	10.46
716.657	6.46
716.683	-4.54
716.71	2.46
716.737	-0.54
716.763	3.46
716.79	5.46
716.817	14.46
716.843	7.46
716.87	7.46
716.897	3.46
716.923	12.46
716.95	-2.54
716.976	-5.54
717.003	4.46
717.03	19.46
717.056	2.46
717.083	-0.54
717.109	16.46
717.136	9.46
717.163	-11.54
717.189	1.46
717.216	11.46
717.242	1.46
717.269	6.46
717.296	9.46
717.322	26.46
717.349	19.46
717.375	-8.54
717.402	9.46
717.428	8.46
717.455	13.46
717.481	-1.54
717.508	19.46
717.535	2.46
717.561	-0.54
717.588	7.46
717.614	1.46
717.641	-9.54
717.667	-2.54
717.694	-0.54
717.72	-1.54
717.747	-4.54
717.773	-21.54
717.8	-4.54
717.826	3.46
717.853	1.46
717.88	28.46
717.906	18.46
717.933	10.46
717.959	2.46
717.986	5.46
718.012	-14.54
718.039	-1.54
718.065	-0.54
718.092	1.46
718.118	1.46
718.144	-0.54
718.171	13.46
718.197	9.46
718.224	9.46
718.25	5.46
718.277	20.46
718.303	7.46
718.33	10.46
718.356	3.46
718.383	-12.54
718.409	6.46
718.436	-0.54
718.462	10.46
718.489	2.46
718.515	12.46
718.541	13.46
718.568	6.46
718.594	6.46
718.621	3.46
718.647	0.46
718.674	8.46
718.7	12.46
718.726	0.46
718.753	16.46
718.779	13.46
718.806	-1.54
718.832	2.46
718.858	7.46
718.885	-0.54
718.911	-2.54
718.938	8.46
718.964	-12.54
718.99	7.46
719.017	8.46
719.043	9.46
719.07	3.46
719.096	-10.54
719.122	7.46
719.149	-2.54
719.175	6.46
719.201	12.46
719.228	21.46
719.254	5.46
719.281	-10.54
719.307	10.46
719.333	1.46
719.36	6.46
719.386	0.46
719.412	4.46
719.439	1.46
719.465	8.46
719.491	-17.54
719.518	2.46
719.544	4.46
719.57	10.46
719.597	-7.54
719.623	2.46
719.649	4.46
719.675	9.46
719.702	9.46
719.728	24.46
719.754	-2.54
719.781	8.46
719.807	1.46
719.833	9.46
719.86	11.46
719.886	-6.54
719.912	12.46
719.938	11.46
719.965	21.46
719.991	18.46
720.017	2.46
720.044	-5.54
720.07	6.46
720.096	12.46
720.122	-0.54
720.149	19.46
720.175	20.46
720.201	34.46
720.227	7.46
720.254	12.46
720.28	7.46
720.306	8.46
720.332	2.46
720.359	13.46
720.385	1.46
720.411	14.46
720.437	10.46
720.463	5.46
720.49	6.46
720.516	-3.54
720.542	-1.54
720.568	8.46
720.595	14.46
720.621	17.46
720.647	-1.54
720.673	3.46
720.699	2.46
720.725	2.46
720.752	5.46
720.778	27.46
720.804	9.46
720.83	-4.54
720.856	-15.54
720.883	-7.54
720.909	-2.54
720.935	0.46
720.961	22.46
720.987	2.46
721.013	23.46
721.04	6.46
721.066	-8.54
721.092	-5.54
721.118	14.46
721.144	17.46
721.17	-0.54
721.196	-5.54
721.223	-6.54
721.249	2.46
721.275	6.46
721.301	1.46
721.327	18.46
721.353	13.46
721.379	5.46
721.405	5.46
721.432	0.46
721.458	-12.54
721.484	-2.54
721.51	-16.54
721.536	9.46
721.562	1.46
721.588	5.46
721.614	-2.54
721.64	0.46
721.666	-1.54
721.693	-0.54
721.719	2.46
721.745	-16.54
721.771	-16.54
721.797	0.46
721.823	6.46
721.849	23.46
721.875	5.46
721.901	-8.54
721.927	7.46
721.953	15.46
721.979	19.46
722.005	5.46
722.031	6.46
722.057	5.46
722.083	11.46
722.109	15.46
722.135	17.46
722.161	18.46
722.187	-2.54
722.214	3.46
722.24	6.46
722.266	-9.54
722.292	16.46
722.318	19.46
722.344	20.46
722.37	10.46
722.396	1.46
722.422	7.46
722.448	-1.54
722.474	-4.54
722.5	16.46
722.526	9.46
722.552	14.46
722.578	-2.54
722.603	-1.54
722.629	-18.54
722.655	7.46
722.681	7.46
722.707	2.46
722.733	5.46
722.759	-18.54
722.785	-1.54
722.811	-2.54
722.837	0.46
722.863	10.46
722.889	14.46
722.915	9.46
722.941	17.46
722.967	-3.54
722.993	17.46
723.019	5.46
723.045	9.46
723.071	-0.54
723.097	9.46
723.122	16.46
723.148	2.46
723.174	-3.54
723.2	12.46
723.226	8.46
723.252	13.46
723.278	-6.54
723.304	-6.54
723.33	10.46
723.356	1.46
723.381	-14.54
723.407	-5.54
723.433	-0.54
723.459	-8.54
723.485	-3.54
723.511	-13.54
723.537	-4.54
723.563	-0.54
723.588	9.46
723.614	1.46
723.64	-3.54
723.666	7.46
723.692	20.46
723.718	-1.54
723.744	5.46
723.769	-2.54
723.795	-2.54
723.821	9.46
723.847	-2.54
723.873	-1.54
723.899	-0.54
723.924	1.46
723.95	1.46
723.976	1.46
724.002	4.46
724.028	12.46
724.053	0.46
724.079	-0.54
724.105	-6.54
724.131	9.46
724.157	11.46
724.182	10.46
724.208	0.46
724.234	5.46
724.26	-8.54
724.286	15.46
724.311	3.46
724.337	-1.54
724.363	-1.54
724.389	-2.54
724.415	-1.54
724.44	17.46
724.466	11.46
724.492	5.46
724.518	-1.54
724.543	14.46
724.569	3.46
724.595	12.46
724.621	-0.54
724.646	8.46
724.672	0.46
724.698	3.46
724.723	-0.54
724.749	7.46
724.775	10.46
724.801	13.46
724.826	2.46
724.852	5.46
724.878	-1.54
724.904	-13.54
724.929	-3.54
724.955	-2.54
724.981	5.46
725.006	6.46
725.032	-5.54
725.058	10.46
725.083	-6.54
725.109	5.46
725.135	3.46
725.161	8.46
725.186	3.46
725.212	-7.54
725.238	14.46
725.263	0.46
725.289	5.46
725.315	-5.54
725.34	2.46
725.366	8.46
725.392	8.46
725.417	11.46
725.443	8.46
725.468	8.46
725.494	5.46
725.52	12.46
725.545	7.46
725.571	-16.54
725.597	-2.54
725.622	6.46
725.648	1.46
725.674	0.46
725.699	20.46
725.725	6.46
725.75	24.46
725.776	-8.54
725.802	-8.54
725.827	-3.54
725.853	-13.54
725.878	2.46
725.904	-1.54
725.93	11.46
725.955	-4.54
725.981	6.46
726.006	1.46
726.032	15.46
726.057	-6.54
726.083	-4.54
726.109	9.46
726.134	6.46
726.16	8.46
726.185	-0.54
726.211	-4.54
726.236	6.46
726.262	7.46
726.288	8.46
726.313	25.46
726.339	16.46
726.364	7.46
726.39	7.46
726.415	10.46
726.441	-9.54
726.466	-7.54
726.492	2.46
726.517	13.46
726.543	0.46
726.568	-4.54
726.594	-9.54
726.619	12.46
726.645	18.46
726.67	2.46
726.696	15.46
726.721	-0.54
726.747	-10.54
726.772	1.46
726.798	-13.54
726.823	12.46
726.849	-6.54
726.874	24.46
726.9	18.46
726.925	3.46
726.951	-1.54
726.976	-0.54
727.002	-0.54
727.027	22.46
727.053	12.46
727.078	16.46
727.104	23.46
727.129	5.46
727.155	7.46
727.18	1.46
727.205	0.46
727.231	-4.54
727.256	2.46
727.282	9.46
727.307	16.46
727.333	11.46
727.358	9.46
727.383	-3.54
727.409	-6.54
727.434	6.46
727.46	0.46
727.485	-0.54
727.511	-0.54
727.536	-16.54
727.561	1.46
727.587	-1.54
727.612	-0.54
727.637	-2.54
727.663	-5.54
727.688	13.46
727.714	-2.54
727.739	-0.54
727.764	-8.54
727.79	-7.54
727.815	9.46
727.841	20.46
727.866	11.46
727.891	11.46
727.917	-2.54
727.942	-0.54
727.967	1.46
727.993	-9.54
728.018	7.46
728.043	9.46
728.069	5.46
728.094	9.46
728.119	11.46
728.145	13.46
728.17	2.46
728.195	5.46
728.221	0.46
728.246	-6.54
728.271	-15.54
728.297	2.46
728.322	11.46
728.347	0.46
728.373	-0.54
728.398	8.46
728.423	2.46
728.448	6.46
728.474	-6.54
728.499	-0.54
728.524	-18.54
728.55	-9.54
728.575	4.46
728.6	9.46
728.625	7.46
728.651	5.46
728.676	-9.54
728.701	-10.54
728.727	-1.54
728.752	-10.54
728.777	0.46
728.802	1.46
728.828	23.46
728.853	3.46
728.878	0.46
728.903	0.46
728.929	4.46
728.954	-12.54
728.979	6.46
729.004	-6.54
729.03	18.46
729.055	16.46
729.08	-2.54
729.105	-0.54
729.13	-2.54
729.156	-5.54
729.181	6.46
729.206	0.46
729.231	-0.54
729.256	6.46
729.282	2.46
729.307	-10.54
729.332	-1.54
729.357	0.46
729.382	-0.54
729.408	20.46
729.433	10.46
729.458	5.46
729.483	7.46
729.508	22.46
729.533	12.46
729.559	8.46
729.584	2.46
729.609	1.46
729.634	2.46
729.659	-0.54
729.684	-17.54
729.71	17.46
729.735	-6.54
729.76	9.46
729.785	6.46
729.81	9.46
729.835	4.46
729.86	1.46
729.886	3.46
729.911	6.46
729.936	-5.54
729.961	-0.54
729.986	-24.54
730.011	-6.54
730.036	-8.54
730.061	2.46
730.086	1.46
730.112	5.46
730.137	29.46
730.162	16.46
730.187	-5.54
730.212	12.46
730.237	-2.54
730.262	-2.54
730.287	-5.54
730.312	10.46
730.337	3.46
730.362	16.46
730.387	6.46
730.413	-10.54
730.438	-8.54
730.463	-7.54
730.488	-13.54
730.513	2.46
730.538	2.46
730.563	19.46
730.588	8.46
730.613	9.46
730.638	-6.54
730.663	10.46
730.688	6.46
730.713	9.46
730.738	0.46
730.763	-4.54
730.788	4.46
730.813	8.46
730.838	-2.54
730.863	3.46
730.888	-2.54
730.913	-10.54
730.938	-1.54
730.963	2.46
730.988	-1.54
731.013	17.46
731.038	2.46
731.063	-5.54
731.088	14.46
731.113	-4.54
731.138	-6.54
731.163	6.46
731.188	-9.54
731.213	-0.54
731.238	0.46
731.263	-1.54
731.288	-2.54
731.313	13.46
731.338	3.46
731.363	6.46
731.388	8.46
731.413	-4.54
731.438	19.46
731.463	-0.54
731.487	18.46
731.512	3.46
731.537	-19.54
731.562	2.46
731.587	7.46
731.612	6.46
731.637	5.46
731.662	12.46
731.687	14.46
731.712	3.46
731.737	19.46
731.762	9.46
731.786	10.46
731.811	11.46
731.836	-15.54
731.861	-5.54
731.886	2.46
731.911	15.46
731.936	12.46
731.961	5.46
731.986	5.46
732.01	9.46
732.035	1.46
732.06	14.46
732.085	5.46
732.11	13.46
732.135	-9.54
732.16	17.46
732.184	6.46
732.209	17.46
732.234	5.46
732.259	0.46
732.284	20.46
732.309	7.46
732.334	-2.54
732.358	-9.54
732.383	-6.54
732.408	5.46
732.433	10.46
732.458	3.46
732.482	10.46
732.507	-1.54
732.532	-16.54
732.557	12.46
732.582	-0.54
732.607	1.46
732.631	-21.54
732.656	-10.54
732.681	6.46
732.706	6.46
732.73	-4.54
732.755	14.46
732.78	11.46
732.805	9.46
732.83	5.46
732.854	11.46
732.879	17.46
732.904	2.46
732.929	2.46
732.953	12.46
732.978	1.46
733.003	3.46
733.028	0.46
733.052	22.46
733.077	11.46
733.102	6.46
733.127	-7.54
733.151	-6.54
733.176	5.46
733.201	2.46
733.226	-5.54
733.25	5.46
733.275	-2.54
733.3	17.46
733.324	26.46
733.349	13.46
733.374	23.46
733.399	9.46
733.423	5.46
733.448	4.46
733.473	1.46
733.497	8.46
733.522	0.46
733.547	-0.54
733.571	11.46
733.596	7.46
733.621	5.46
733.646	-2.54
733.67	-0.54
733.695	-6.54
733.72	-4.54
733.744	-1.54
733.769	4.46
733.794	6.46
733.818	-3.54
733.843	10.46
733.867	-13.54
733.892	7.46
733.917	-5.54
733.941	5.46
733.966	-3.54
733.991	-8.54
734.015	19.46
734.04	19.46
734.065	24.46
734.089	10.46
734.114	-4.54
734.138	2.46
734.163	-1.54
734.188	6.46
734.212	21.46
734.237	5.46
734.261	7.46
734.286	-5.54
734.311	-8.54
734.335	-0.54
734.36	6.46
734.384	15.46
734.409	5.46
734.434	10.46
734.458	18.46
734.483	4.46
734.507	0.46
734.532	-1.54
734.556	24.46
734.581	2.46
734.606	4.46
734.63	-6.54
734.655	-0.54
734.679	-0.54
734.704	2.46
734.728	11.46
734.753	-6.54
734.777	-0.54
734.802	-4.54
734.826	6.46
734.851	-1.54
734.876	5.46
734.9	14.46
734.925	13.46
734.949	1.46
734.974	3.46
734.998	3.46
735.023	-6.54
735.047	-9.54
735.072	11.46
735.096	2.46
735.121	9.46
735.145	15.46
735.17	-14.54
735.194	7.46
735.219	6.46
735.243	15.46
735.268	6.46
735.292	2.46
735.317	4.46
735.341	14.46
735.365	-18.54
735.39	7.46
735.414	0.46
735.439	-6.54
735.463	8.46
735.488	18.46
735.512	10.46
735.537	14.46
735.561	-8.54
735.586	-1.54
735.61	7.46
735.634	-5.54
735.659	13.46
735.683	3.46
735.708	-12.54
735.732	5.46
735.757	-6.54
735.781	-4.54
735.805	9.46
735.83	-2.54
735.854	8.46
735.879	31.46
735.903	9.46
735.927	13.46
735.952	3.46
735.976	-0.54
736.001	9.46
736.025	10.46
736.049	-3.54
736.074	-13.54
736.098	2.46
736.123	0.46
736.147	-3.54
736.171	10.46
736.196	6.46
736.22	-4.54
736.244	1.46
736.269	1.46
736.293	-1.54
736.317	5.46
736.342	7.46
736.366	20.46
736.39	4.46
736.415	0.46
736.439	1.46
736.463	3.46
736.488	10.46
736.512	2.46
736.536	10.46
736.561	17.46
736.585	2.46
736.609	26.46
736.634	-3.54
736.658	-0.54
736.682	-13.54
736.707	-7.54
736.731	-2.54
736.755	2.46
736.78	16.46
736.804	2.46
736.828	6.46
736.852	14.46
736.877	-5.54
736.901	2.46
736.925	15.46
736.949	10.46
736.974	6.46
736.998	0.46
737.022	9.46
737.047	-4.54
737.071	-0.54
737.095	21.46
737.119	19.46
737.144	15.46
737.168	6.46
737.192	-9.54
737.216	0.46
737.241	1.46
737.265	6.46
737.289	3.46
737.313	2.46
737.337	11.46
737.362	1.46
737.386	-4.54
737.41	-0.54
737.434	-2.54
737.459	15.46
737.483	13.46
737.507	19.46
737.531	18.46
737.555	5.46
737.58	22.46
737.604	11.46
737.628	-1.54
737.652	-2.54
737.676	-4.54
737.701	11.46
737.725	3.46
737.749	26.46
737.773	8.46
737.797	-13.54
737.821	5.46
737.846	10.46
737.87	22.46
737.894	1.46
737.918	-3.54
737.942	5.46
737.966	24.46
737.99	17.46
738.015	14.46
738.039	12.46
738.063	6.46
738.087	11.46
738.111	19.46
738.135	9.46
738.159	-0.54
738.184	-2.54
738.208	-6.54
738.232	5.46
738.256	26.46
738.28	17.46
738.304	11.46
738.328	-2.54
738.352	20.46
738.376	6.46
738.4	9.46
738.425	7.46
738.449	-6.54
738.473	12.46
738.497	9.46
738.521	10.46
738.545	5.46
738.569	18.46
738.593	21.46
738.617	5.46
738.641	-4.54
738.665	14.46
738.689	13.46
738.713	13.46
738.737	25.46
738.762	17.46
738.786	19.46
738.81	-17.54
738.834	9.46
738.858	-4.54
738.882	13.46
738.906	-14.54
738.93	-0.54
738.954	2.46
738.978	1.46
739.002	-0.54
739.026	7.46
739.05	6.46
739.074	2.46
739.098	33.46
739.122	22.46
739.146	10.46
739.17	16.46
739.194	10.46
739.218	-1.54
739.242	13.46
739.266	2.46
739.29	13.46
739.314	-1.54
739.338	1.46
739.362	21.46
739.386	7.46
739.41	-1.54
739.434	0.46
739.458	20.46
739.482	14.46
739.506	10.46
739.53	-1.54
739.554	11.46
739.577	14.46
739.601	16.46
739.625	-9.54
739.649	-1.54
739.673	0.46
739.697	6.46
739.721	5.46
739.745	13.46
739.769	20.46
739.793	14.46
739.817	14.46
739.841	-4.54
739.865	-2.54
739.889	9.46
739.912	27.46
739.936	-1.54
739.96	2.46
739.984	9.46
740.008	10.46
740.032	11.46
740.056	-4.54
740.08	3.46
740.104	0.46
740.127	3.46
740.151	18.46
740.175	2.46
740.199	11.46
740.223	46.46
740.247	16.46
740.271	14.46
740.295	-8.54
740.318	-19.54
740.342	9.46
740.366	16.46
740.39	7.46
740.414	-1.54
740.438	-2.54
740.461	10.46
740.485	3.46
740.509	-13.54
740.533	5.46
740.557	13.46
740.581	5.46
740.604	-4.54
740.628	-7.54
740.652	6.46
740.676	1.46
740.7	16.46
740.723	14.46
740.747	-5.54
740.771	-3.54
740.795	0.46
740.819	17.46
740.842	7.46
740.866	19.46
740.89	11.46
740.914	8.46
740.938	-0.54
740.961	15.46
740.985	10.46
741.009	8.46
741.033	14.46
741.056	3.46
741.08	-2.54
741.104	-5.54
741.128	3.46
741.151	10.46
741.175	17.46
741.199	2.46
741.223	1.46
741.246	9.46
741.27	8.46
741.294	6.46
741.318	-2.54
741.341	7.46
741.365	5.46
741.389	9.46
741.413	0.46
741.436	28.46
741.46	17.46
741.484	16.46
741.507	0.46
741.531	33.46
741.555	11.46
741.579	3.46
741.602	9.46
741.626	2.46
741.65	2.46
741.673	7.46
741.697	18.46
741.721	28.46
741.744	-18.54
741.768	-12.54
741.792	5.46
741.815	1.46
741.839	5.46
741.863	18.46
741.886	12.46
741.91	14.46
741.934	2.46
741.957	-2.54
741.981	10.46
742.005	18.46
742.028	6.46
742.052	1.46
742.075	7.46
742.099	14.46
742.123	-1.54
742.146	11.46
742.17	1.46
742.194	-0.54
742.217	-6.54
742.241	6.46
742.264	-7.54
742.288	21.46
742.312	19.46
742.335	5.46
742.359	7.46
742.382	2.46
742.406	16.46
742.43	-12.54
742.453	6.46
742.477	-4.54
742.5	10.46
742.524	8.46
742.548	-13.54
742.571	0.46
742.595	-1.54
742.618	-9.54
742.642	-14.54
742.665	6.46
742.689	2.46
742.712	8.46
742.736	0.46
742.76	-0.54
742.783	-1.54
742.807	0.46
742.83	18.46
742.854	5.46
742.877	3.46
742.901	0.46
742.924	6.46
742.948	4.46
742.971	9.46
742.995	7.46
743.018	-20.54
743.042	1.46
743.065	9.46
743.089	-13.54
743.112	-0.54
743.136	-14.54
743.159	0.46
743.183	5.46
743.206	6.46
743.23	2.46
743.253	-2.54
743.277	1.46
743.3	1.46
743.324	-4.54
743.347	-22.54
743.371	12.46
743.394	13.46
743.418	8.46
743.441	15.46
743.465	8.46
743.488	-2.54
743.512	1.46
743.535	-7.54
743.558	-1.54
743.582	6.46
743.605	-4.54
743.629	4.46
743.652	8.46
743.676	-1.54
743.699	8.46
743.723	12.46
743.746	17.46
743.769	2.46
743.793	6.46
743.816	-6.54
743.84	2.46
743.863	-0.54
743.886	13.46
743.91	19.46
743.933	5.46
743.957	-0.54
743.98	-8.54
744.003	3.46
744.027	0.46
744.05	0.46
744.074	5.46
744.097	-4.54
744.12	6.46
744.144	0.46
744.167	-0.54
744.19	3.46
744.214	-6.54
744.237	-2.54
744.26	15.46
744.284	6.46
744.307	-1.54
744.331	5.46
744.354	-10.54
744.377	2.46
744.401	1.46
744.424	1.46
744.447	-9.54
744.471	7.46
