Data from HighRes_H2D2_15_04_11_07_2024_HR4C61891__2__15-05-34-643.txt Node

Date: Thu Nov 07 15:05:34 EST 2024
User: crc00042
Spectrometer: HR4C6189
Trigger mode: 4
Integration Time (sec): 1.000000E-1
Scans to average: 1
Electric dark correction enabled: true
Nonlinearity correction enabled: false
Boxcar width: 0
XAxis mode: Wavelengths
Number of Pixels in Spectrum: 3648
>>>>>Begin Spectral Data<<<<<
639.567	-79
639.602	-79
639.636	-79
639.67	-54
639.704	-14
639.738	6
639.773	13
639.807	-9
639.841	-7
639.875	10
639.909	-17
639.943	-8
639.978	-4
640.012	6
640.046	1
640.08	12
640.114	8
640.148	-11
640.182	-7
640.217	1
640.251	10
640.285	2
640.319	-26
640.353	-4
640.387	-8
640.421	-13
640.455	7
640.49	6
640.524	-9
640.558	4
640.592	-4
640.626	-12
640.66	-2
640.694	1
640.728	-1
640.762	14
640.796	10
640.83	6
640.865	-2
640.899	6
640.933	3
640.967	-3
641.001	1
641.035	-6
641.069	1
641.103	-17
641.137	-12
641.171	-10
641.205	6
641.239	-2
641.273	3
641.307	-3
641.341	-9
641.375	-8
641.409	-10
641.443	-9
641.477	-10
641.511	-1
641.545	-1
641.579	-20
641.614	10
641.648	24
641.682	-4
641.716	3
641.75	13
641.784	-8
641.818	12
641.852	11
641.886	3
641.919	18
641.953	-5
641.987	-26
642.021	-10
642.055	-7
642.089	-8
642.123	-25
642.157	3
642.191	-17
642.225	-5
642.259	3
642.293	2
642.327	0
642.361	4
642.395	6
642.429	5
642.463	7
642.497	-1
642.531	7
642.565	-6
642.599	16
642.633	-14
642.666	-14
642.7	-15
642.734	5
642.768	-10
642.802	-16
642.836	7
642.87	-7
642.904	-7
642.938	6
642.972	-12
643.005	-8
643.039	-4
643.073	-5
643.107	16
643.141	-8
643.175	-8
643.209	-7
643.243	-8
643.276	-12
643.31	-17
643.344	-13
643.378	-3
643.412	18
643.446	-9
643.48	-17
643.513	-7
643.547	-16
643.581	-24
643.615	-1
643.649	-7
643.683	5
643.716	-7
643.75	5
643.784	-8
643.818	13
643.852	-3
643.886	3
643.919	5
643.953	-8
643.987	10
644.021	5
644.055	4
644.088	2
644.122	-21
644.156	-20
644.19	-11
644.224	0
644.257	-3
644.291	12
644.325	5
644.359	-14
644.392	14
644.426	7
644.46	-20
644.494	9
644.527	-22
644.561	-10
644.595	-4
644.629	3
644.662	3
644.696	1
644.73	6
644.764	-2
644.797	-8
644.831	-12
644.865	8
644.899	5
644.932	8
644.966	-18
645	-3
645.033	13
645.067	-4
645.101	6
645.135	12
645.168	14
645.202	1
645.236	-7
645.269	-12
645.303	2
645.337	-9
645.37	-6
645.404	-8
645.438	-8
645.471	-2
645.505	9
645.539	-2
645.572	-17
645.606	-22
645.64	10
645.673	-4
645.707	10
645.741	-24
645.774	-28
645.808	-3
645.842	-4
645.875	8
645.909	-5
645.943	-4
645.976	-9
646.01	-2
646.043	8
646.077	17
646.111	-13
646.144	-10
646.178	-12
646.212	-19
646.245	9
646.279	-2
646.312	-9
646.346	8
646.38	-2
646.413	16
646.447	4
646.48	1
646.514	-9
646.547	-1
646.581	-8
646.615	1
646.648	-4
646.682	-3
646.715	6
646.749	8
646.782	1
646.816	-6
646.85	3
646.883	-10
646.917	13
646.95	7
646.984	6
647.017	-4
647.051	1
647.084	0
647.118	8
647.151	-2
647.185	-2
647.218	-15
647.252	11
647.285	-9
647.319	-15
647.353	5
647.386	22
647.42	-1
647.453	-9
647.487	11
647.52	-10
647.553	7
647.587	-5
647.62	-2
647.654	6
647.687	-18
647.721	3
647.754	1
647.788	-5
647.821	-18
647.855	3
647.888	-10
647.922	9
647.955	-11
647.989	-2
648.022	-19
648.055	-10
648.089	12
648.122	6
648.156	-7
648.189	-5
648.223	-4
648.256	12
648.29	17
648.323	8
648.356	16
648.39	10
648.423	4
648.457	0
648.49	11
648.523	-11
648.557	-3
648.59	4
648.624	0
648.657	10
648.69	11
648.724	10
648.757	11
648.791	-10
648.824	13
648.857	10
648.891	-6
648.924	10
648.957	11
648.991	-13
649.024	19
649.057	-3
649.091	3
649.124	22
649.158	5
649.191	14
649.224	9
649.258	21
649.291	-7
649.324	-1
649.358	-4
649.391	5
649.424	1
649.458	-3
649.491	-16
649.524	1
649.557	0
649.591	-11
649.624	0
649.657	-10
649.691	5
649.724	10
649.757	9
649.791	-1
649.824	9
649.857	10
649.89	10
649.924	-2
649.957	-3
649.99	-9
650.023	8
650.057	-4
650.09	13
650.123	8
650.157	3
650.19	6
650.223	-11
650.256	-11
650.29	3
650.323	-6
650.356	10
650.389	-2
650.423	-10
650.456	-2
650.489	-4
650.522	-1
650.555	3
650.589	10
650.622	-7
650.655	20
650.688	20
650.721	9
650.755	-14
650.788	12
650.821	6
650.854	-6
650.887	6
650.921	10
650.954	-4
650.987	-7
651.02	10
651.053	14
651.087	-6
651.12	8
651.153	-11
651.186	-6
651.219	2
651.252	-2
651.286	16
651.319	-7
651.352	8
651.385	6
651.418	2
651.451	9
651.484	-4
651.518	-7
651.551	22
651.584	-2
651.617	13
651.65	4
651.683	16
651.716	4
651.749	-7
651.783	7
651.816	12
651.849	3
651.882	-14
651.915	4
651.948	3
651.981	-27
652.014	-15
652.047	6
652.08	-3
652.114	-10
652.147	-10
652.18	-1
652.213	10
652.246	-8
652.279	-17
652.312	6
652.345	-11
652.378	4
652.411	14
652.444	4
652.477	-1
652.51	9
652.543	-20
652.576	-5
652.609	-22
652.642	-10
652.675	9
652.709	8
652.742	2
652.775	-6
652.808	1
652.841	-10
652.874	7
652.907	-7
652.94	-6
652.973	-19
653.006	6
653.039	11
653.072	-1
653.105	2
653.138	-13
653.171	-23
653.204	-8
653.237	8
653.27	-5
653.303	5
653.336	-7
653.368	-27
653.401	-6
653.434	-2
653.467	7
653.5	-18
653.533	-12
653.566	6
653.599	-5
653.632	-4
653.665	-5
653.698	-13
653.731	5
653.764	3
653.797	4
653.83	2
653.863	-5
653.896	-5
653.929	11
653.961	13
653.994	-5
654.027	-22
654.06	-11
654.093	-18
654.126	-2
654.159	-12
654.192	5
654.225	-7
654.258	-7
654.29	6
654.323	-5
654.356	-8
654.389	-14
654.422	-6
654.455	11
654.488	18
654.521	-20
654.553	-15
654.586	2
654.619	-12
654.652	-21
654.685	3
654.718	3
654.751	22
654.783	5
654.816	11
654.849	-11
654.882	-29
654.915	-32
654.948	3
654.98	-14
655.013	-6
655.046	-13
655.079	-12
655.112	-13
655.144	-24
655.177	5
655.21	21
655.243	11
655.276	5
655.308	-7
655.341	-24
655.374	19
655.407	12
655.44	-12
655.472	7
655.505	20
655.538	-5
655.571	2
655.603	-9
655.636	-3
655.669	8
655.702	12
655.734	-7
655.767	-10
655.8	16
655.833	1
655.865	-2
655.898	-1
655.931	4
655.964	8
655.996	10
656.029	28
656.062	26
656.095	49
656.127	96
656.16	223
656.193	635
656.225	982
656.258	548
656.291	207
656.324	166
656.356	366
656.389	772
656.422	675
656.454	243
656.487	77
656.52	29
656.552	2
656.585	-7
656.618	12
656.65	12
656.683	-6
656.716	5
656.748	-10
656.781	1
656.814	-9
656.846	-17
656.879	-1
656.912	-4
656.944	-7
656.977	-14
657.01	1
657.042	0
657.075	2
657.108	0
657.14	3
657.173	8
657.205	25
657.238	0
657.271	1
657.303	-28
657.336	-18
657.369	3
657.401	4
657.434	-13
657.466	6
657.499	-7
657.532	-6
657.564	2
657.597	5
657.629	4
657.662	6
657.694	1
657.727	-14
657.76	12
657.792	-20
657.825	-12
657.857	-4
657.89	-7
657.922	7
657.955	-8
657.987	-22
658.02	11
658.053	11
658.085	2
658.118	3
658.15	-1
658.183	11
658.215	-5
658.248	2
658.28	-7
658.313	16
658.345	5
658.378	-9
658.41	0
658.443	3
658.475	-22
658.508	-26
658.54	-7
658.573	-19
658.605	4
658.638	-16
658.67	-4
658.703	5
658.735	1
658.768	-1
658.8	-11
658.833	21
658.865	6
658.898	5
658.93	-13
658.963	14
658.995	-12
659.028	7
659.06	-7
659.092	1
659.125	5
659.157	6
659.19	-14
659.222	-12
659.255	14
659.287	7
659.32	-15
659.352	-12
659.384	15
659.417	9
659.449	2
659.482	-1
659.514	-13
659.546	1
659.579	-18
659.611	3
659.644	-8
659.676	-5
659.708	3
659.741	-22
659.773	16
659.806	10
659.838	2
659.87	-5
659.903	-19
659.935	1
659.967	6
660	8
660.032	-2
660.065	2
660.097	2
660.129	-18
660.162	3
660.194	1
660.226	9
660.259	-2
660.291	-4
660.323	-14
660.356	9
660.388	-13
660.42	-2
660.453	-11
660.485	2
660.517	-11
660.55	12
660.582	8
660.614	4
660.647	-17
660.679	-12
660.711	-9
660.743	-22
660.776	-4
660.808	-11
660.84	-3
660.873	7
660.905	-6
660.937	-9
660.969	-2
661.002	7
661.034	4
661.066	12
661.099	5
661.131	9
661.163	-5
661.195	-11
661.228	14
661.26	8
661.292	-10
661.324	10
661.357	15
661.389	9
661.421	-5
661.453	-21
661.485	0
661.518	-9
661.55	-5
661.582	-1
661.614	-2
661.647	2
661.679	1
661.711	5
661.743	5
661.775	-3
661.808	15
661.84	-8
661.872	-1
661.904	7
661.936	-3
661.969	-8
662.001	-17
662.033	-11
662.065	-11
662.097	5
662.129	0
662.162	-4
662.194	-2
662.226	5
662.258	7
662.29	-8
662.322	2
662.355	-14
662.387	12
662.419	20
662.451	11
662.483	11
662.515	2
662.547	-22
662.58	-22
662.612	0
662.644	-3
662.676	-6
662.708	11
662.74	3
662.772	-2
662.804	-5
662.836	5
662.869	2
662.901	3
662.933	-1
662.965	6
662.997	11
663.029	-8
663.061	-12
663.093	-21
663.125	-9
663.157	2
663.189	0
663.221	11
663.254	11
663.286	6
663.318	-6
663.35	-5
663.382	3
663.414	-3
663.446	0
663.478	-14
663.51	13
663.542	-2
663.574	-11
663.606	6
663.638	-19
663.67	-18
663.702	-9
663.734	-10
663.766	-1
663.798	-10
663.83	-2
663.862	5
663.894	-5
663.926	-18
663.958	2
663.99	-4
664.022	-9
664.054	-2
664.086	-8
664.118	-1
664.15	-6
664.182	1
664.214	-6
664.246	3
664.278	8
664.31	12
664.342	13
664.374	-3
664.406	5
664.438	11
664.47	3
664.502	0
664.534	6
664.566	-8
664.598	-5
664.63	-17
664.662	-1
664.693	-10
664.725	1
664.757	-7
664.789	-9
664.821	-5
664.853	3
664.885	-7
664.917	-11
664.949	-2
664.981	20
665.013	-6
665.045	-15
665.076	-5
665.108	-4
665.14	-10
665.172	-6
665.204	-8
665.236	-1
665.268	9
665.3	-13
665.331	-11
665.363	-1
665.395	-4
665.427	0
665.459	5
665.491	0
665.523	-11
665.555	1
665.586	6
665.618	7
665.65	-4
665.682	25
665.714	13
665.746	-12
665.777	-2
665.809	12
665.841	-12
665.873	-23
665.905	-7
665.937	10
665.968	-13
666	-1
666.032	10
666.064	-15
666.096	-2
666.127	5
666.159	11
666.191	20
666.223	-1
666.255	0
666.286	-4
666.318	1
666.35	6
666.382	4
666.413	-9
666.445	-22
666.477	-8
666.509	-11
666.54	2
666.572	-2
666.604	-8
666.636	-7
666.667	9
666.699	5
666.731	-9
666.763	-17
666.794	-15
666.826	2
666.858	-4
666.89	10
666.921	-1
666.953	4
666.985	-2
667.017	14
667.048	4
667.08	10
667.112	-7
667.143	-23
667.175	-7
667.207	-3
667.238	2
667.27	7
667.302	2
667.334	-9
667.365	14
667.397	-1
667.429	1
667.46	18
667.492	13
667.524	11
667.555	3
667.587	-2
667.619	-4
667.65	-13
667.682	7
667.714	5
667.745	-6
667.777	2
667.808	-7
667.84	2
667.872	-7
667.903	4
667.935	-18
667.967	-10
667.998	6
668.03	-6
668.061	2
668.093	-6
668.125	-3
668.156	-9
668.188	-14
668.22	-17
668.251	-2
668.283	2
668.314	15
668.346	-10
668.377	-15
668.409	-19
668.441	-8
668.472	-8
668.504	2
668.535	-7
668.567	10
668.599	-4
668.63	-8
668.662	-9
668.693	3
668.725	2
668.756	12
668.788	-4
668.819	7
668.851	-10
668.882	-2
668.914	-7
668.946	-12
668.977	-30
669.009	-15
669.04	-4
669.072	-1
669.103	6
669.135	2
669.166	3
669.198	-11
669.229	0
669.261	-8
669.292	-3
669.324	-4
669.355	11
669.387	2
669.418	13
669.45	-2
669.481	-8
669.513	1
669.544	4
669.576	3
669.607	9
669.639	15
669.67	-10
669.701	-3
669.733	-19
669.764	-6
669.796	4
669.827	1
669.859	-19
669.89	-2
669.922	10
669.953	-1
669.985	7
670.016	-5
670.047	3
670.079	6
670.11	0
670.142	0
670.173	7
670.204	-3
670.236	-5
670.267	-24
670.299	-6
670.33	2
670.362	-6
670.393	-28
670.424	8
670.456	-20
670.487	-2
670.518	0
670.55	2
670.581	-12
670.613	-4
670.644	-7
670.675	-6
670.707	0
670.738	1
670.769	5
670.801	-19
670.832	4
670.864	-6
670.895	6
670.926	-17
670.958	-6
670.989	5
671.02	-4
671.052	-8
671.083	1
671.114	-3
671.146	2
671.177	-4
671.208	-21
671.24	-8
671.271	-7
671.302	-2
671.333	-17
671.365	-3
671.396	2
671.427	18
671.459	6
671.49	8
671.521	-21
671.553	-2
671.584	-5
671.615	2
671.646	-12
671.678	-9
671.709	-9
671.74	-26
671.771	-17
671.803	-10
671.834	-7
671.865	-14
671.896	8
671.928	-3
671.959	-16
671.99	5
672.021	-3
672.053	-3
672.084	10
672.115	10
672.146	-9
672.178	-12
672.209	-9
672.24	-3
672.271	9
672.303	0
672.334	-6
672.365	3
672.396	10
672.427	6
672.459	-3
672.49	31
672.521	8
672.552	-3
672.583	-8
672.615	-2
672.646	1
672.677	-1
672.708	-3
672.739	12
672.77	15
672.802	2
672.833	3
672.864	-13
672.895	-7
672.926	-10
672.957	7
672.989	-1
673.02	10
673.051	-10
673.082	2
673.113	-5
673.144	-10
673.175	-2
673.206	-7
673.238	-20
673.269	-18
673.3	-2
673.331	11
673.362	0
673.393	0
673.424	13
673.455	7
673.487	8
673.518	0
673.549	-10
673.58	-15
673.611	-7
673.642	-2
673.673	-17
673.704	-17
673.735	-12
673.766	-14
673.797	5
673.828	13
673.86	-22
673.891	-24
673.922	2
673.953	-5
673.984	-1
674.015	4
674.046	2
674.077	10
674.108	-8
674.139	2
674.17	-5
674.201	-3
674.232	-9
674.263	2
674.294	-10
674.325	-15
674.356	7
674.387	8
674.418	-6
674.449	-18
674.48	-16
674.511	2
674.542	-1
674.573	-13
674.604	5
674.635	-7
674.666	15
674.697	7
674.728	-4
674.759	6
674.79	-16
674.821	-16
674.852	-2
674.883	-6
674.914	2
674.945	-15
674.976	-12
675.007	-20
675.038	4
675.069	-11
675.1	6
675.131	-3
675.162	-11
675.193	-6
675.224	-11
675.254	-4
675.285	-1
675.316	5
675.347	4
675.378	-15
675.409	-7
675.44	5
675.471	3
675.502	-29
675.533	3
675.564	6
675.595	7
675.625	23
675.656	5
675.687	-9
675.718	-15
675.749	-7
675.78	-10
675.811	-5
675.842	-4
675.873	-5
675.903	-3
675.934	9
675.965	-10
675.996	-18
676.027	4
676.058	-2
676.089	-17
676.119	6
676.15	8
676.181	-10
676.212	-7
676.243	15
676.274	-5
676.304	21
676.335	-14
676.366	-9
676.397	-10
676.428	-13
676.459	2
676.489	1
676.52	2
676.551	-22
676.582	-7
676.613	6
676.643	1
676.674	1
676.705	-12
676.736	-6
676.767	5
676.797	0
676.828	14
676.859	3
676.89	-3
676.92	7
676.951	20
676.982	6
677.013	-31
677.044	6
677.074	5
677.105	-5
677.136	8
677.167	-12
677.197	-9
677.228	-8
677.259	-10
677.289	2
677.32	-7
677.351	-12
677.382	-2
677.412	-23
677.443	4
677.474	1
677.505	-17
677.535	-9
677.566	-7
677.597	-25
677.627	-28
677.658	-11
677.689	13
677.72	0
677.75	-8
677.781	-9
677.812	-13
677.842	1
677.873	12
677.904	13
677.934	3
677.965	-11
677.996	-28
678.026	9
678.057	7
678.088	-1
678.118	-3
678.149	-29
678.18	6
678.21	3
678.241	7
678.272	-12
678.302	0
678.333	6
678.363	7
678.394	6
678.425	-19
678.455	0
678.486	3
678.517	-5
678.547	-6
678.578	2
678.608	-9
678.639	13
678.67	3
678.7	-7
678.731	-4
678.761	-1
678.792	-2
678.823	-5
678.853	11
678.884	-13
678.914	3
678.945	11
678.975	1
679.006	-3
679.037	-12
679.067	20
679.098	10
679.128	6
679.159	7
679.189	13
679.22	-18
679.25	5
679.281	2
679.312	2
679.342	-10
679.373	25
679.403	-4
679.434	2
679.464	-3
679.495	-4
679.525	7
679.556	2
679.586	-2
679.617	-4
679.647	2
679.678	4
679.708	4
679.739	7
679.769	-11
679.8	-14
679.83	1
679.861	12
679.891	-9
679.922	-13
679.952	3
679.983	4
680.013	9
680.044	-8
680.074	-6
680.105	0
680.135	4
680.165	16
680.196	3
680.226	9
680.257	17
680.287	5
680.318	-6
680.348	-6
680.379	8
680.409	1
680.439	4
680.47	0
680.5	-3
680.531	-15
680.561	-4
680.592	9
680.622	3
680.652	2
680.683	18
680.713	2
680.744	-6
680.774	-11
680.804	2
680.835	-5
680.865	7
680.896	15
680.926	18
680.956	0
680.987	-2
681.017	-12
681.047	-2
681.078	-24
681.108	-9
681.139	-2
681.169	22
681.199	8
681.23	-5
681.26	-2
681.29	-2
681.321	-12
681.351	-4
681.381	-9
681.412	-7
681.442	1
681.472	6
681.503	7
681.533	-1
681.563	5
681.594	3
681.624	1
681.654	6
681.685	3
681.715	-3
681.745	10
681.775	0
681.806	8
681.836	-6
681.866	-10
681.897	7
681.927	-4
681.957	-32
681.987	2
682.018	1
682.048	-3
682.078	1
682.109	17
682.139	26
682.169	-4
682.199	2
682.23	-2
682.26	14
682.29	-3
682.32	-4
682.351	-10
682.381	-2
682.411	-7
682.441	-5
682.472	-6
682.502	0
682.532	-23
682.562	5
682.592	20
682.623	11
682.653	1
682.683	-5
682.713	2
682.743	-2
682.774	-14
682.804	9
682.834	14
682.864	-2
682.894	-13
682.925	-8
682.955	-4
682.985	-15
683.015	-5
683.045	2
683.076	-15
683.106	4
683.136	4
683.166	-14
683.196	3
683.226	-5
683.257	-26
683.287	-7
683.317	-17
683.347	9
683.377	-14
683.407	15
683.437	5
683.468	18
683.498	-7
683.528	3
683.558	-4
683.588	-9
683.618	-14
683.648	-4
683.678	-6
683.708	5
683.739	6
683.769	-2
683.799	2
683.829	0
683.859	2
683.889	8
683.919	8
683.949	-7
683.979	-22
684.009	-11
684.039	13
684.07	-8
684.1	19
684.13	2
684.16	5
684.19	6
684.22	-12
684.25	-5
684.28	-12
684.31	25
684.34	18
684.37	6
684.4	-24
684.43	17
684.46	0
684.49	13
684.52	2
684.55	14
684.58	4
684.61	-12
684.64	15
684.67	4
684.7	-2
684.73	1
684.76	4
684.79	11
684.82	20
684.85	-19
684.88	-15
684.91	-5
684.94	-8
684.97	-4
685	-11
685.03	3
685.06	5
685.09	-6
685.12	6
685.15	-15
685.18	-10
685.21	5
685.24	3
685.27	37
685.3	0
685.33	-4
685.36	-6
685.39	-4
685.42	-10
685.45	3
685.48	-17
685.51	-19
685.54	5
685.569	10
685.599	12
685.629	3
685.659	1
685.689	-4
685.719	-15
685.749	-14
685.779	14
685.809	-6
685.839	2
685.869	6
685.898	18
685.928	-17
685.958	-19
685.988	11
686.018	-9
686.048	-6
686.078	6
686.108	1
686.137	9
686.167	12
686.197	-15
686.227	-21
686.257	24
686.287	6
686.317	-7
686.346	-2
686.376	-8
686.406	-9
686.436	-6
686.466	-17
686.496	-4
686.525	-3
686.555	-7
686.585	12
686.615	16
686.645	7
686.675	-18
686.704	1
686.734	-5
686.764	-2
686.794	6
686.824	-8
686.853	1
686.883	1
686.913	5
686.943	-11
686.973	-1
687.002	0
687.032	7
687.062	-6
687.092	15
687.121	-6
687.151	6
687.181	-2
687.211	1
687.24	-10
687.27	-6
687.3	10
687.33	-11
687.359	-12
687.389	2
687.419	2
687.449	-1
687.478	1
687.508	8
687.538	13
687.568	18
687.597	-2
687.627	-9
687.657	-10
687.686	9
687.716	23
687.746	11
687.776	-9
687.805	-3
687.835	2
687.865	13
687.894	-6
687.924	-4
687.954	-2
687.983	9
688.013	20
688.043	8
688.072	-2
688.102	14
688.132	-3
688.161	4
688.191	-20
688.221	24
688.25	2
688.28	25
688.31	12
688.339	2
688.369	-22
688.399	2
688.428	0
688.458	13
688.488	11
688.517	-9
688.547	-5
688.576	22
688.606	1
688.636	-5
688.665	10
688.695	8
688.725	4
688.754	-1
688.784	-3
688.813	9
688.843	-3
688.873	-13
688.902	-3
688.932	-11
688.961	-2
688.991	13
689.02	7
689.05	-6
689.08	21
689.109	17
689.139	-6
689.168	7
689.198	-1
689.227	2
689.257	0
689.287	7
689.316	6
689.346	-10
689.375	-15
689.405	2
689.434	-1
689.464	-1
689.493	-10
689.523	-13
689.552	-4
689.582	4
689.611	-5
689.641	-4
689.67	-1
689.7	6
689.73	2
689.759	0
689.789	13
689.818	-14
689.848	6
689.877	21
689.906	2
689.936	4
689.965	4
689.995	14
690.024	11
690.054	-2
690.083	6
690.113	12
690.142	1
690.172	6
690.201	4
690.231	-2
690.26	6
690.29	-6
690.319	13
690.348	7
690.378	-17
690.407	7
690.437	-6
690.466	-2
690.496	0
690.525	8
690.555	-1
690.584	0
690.613	1
690.643	14
690.672	8
690.702	25
690.731	-5
690.76	3
690.79	-2
690.819	-13
690.849	7
690.878	17
690.907	-3
690.937	10
690.966	5
690.996	1
691.025	-6
691.054	-3
691.084	0
691.113	14
691.142	12
691.172	0
691.201	15
691.23	-3
691.26	10
691.289	2
691.319	-8
691.348	8
691.377	1
691.407	7
691.436	-11
691.465	10
691.495	4
691.524	7
691.553	3
691.583	-6
691.612	-2
691.641	-15
691.67	4
691.7	6
691.729	-9
691.758	16
691.788	-3
691.817	-10
691.846	-18
691.876	4
691.905	-7
691.934	2
691.963	4
691.993	-3
692.022	-8
692.051	-14
692.081	8
692.11	18
692.139	12
692.168	7
692.198	11
692.227	-5
692.256	3
692.285	4
692.315	1
692.344	13
692.373	9
692.402	-5
692.432	-4
692.461	-5
692.49	6
692.519	-17
692.548	3
692.578	16
692.607	5
692.636	-3
692.665	5
692.694	-7
692.724	-3
692.753	9
692.782	8
692.811	2
692.84	7
692.87	13
692.899	-11
692.928	11
692.957	11
692.986	10
693.016	3
693.045	-3
693.074	-8
693.103	-2
693.132	2
693.161	16
693.191	2
693.22	12
693.249	-1
693.278	-10
693.307	13
693.336	4
693.365	-13
693.395	-14
693.424	5
693.453	18
693.482	-1
693.511	15
693.54	2
693.569	3
693.598	6
693.628	9
693.657	-1
693.686	11
693.715	21
693.744	15
693.773	20
693.802	7
693.831	-18
693.86	0
693.889	6
693.919	15
693.948	2
693.977	5
694.006	1
694.035	5
694.064	-7
694.093	3
694.122	10
694.151	-5
694.18	8
694.209	29
694.238	10
694.267	4
694.296	-6
694.325	5
694.354	17
694.383	-7
694.412	5
694.441	-8
694.471	-9
694.5	-8
694.529	10
694.558	16
694.587	16
694.616	-6
694.645	7
694.674	12
694.703	11
694.732	-11
694.761	13
694.79	14
694.819	-15
694.848	11
694.877	10
694.906	14
694.935	2
694.963	9
694.992	5
695.021	7
695.05	1
695.079	8
695.108	1
695.137	21
695.166	-1
695.195	-9
695.224	0
695.253	-4
695.282	3
695.311	-2
695.34	-8
695.369	3
695.398	0
695.427	20
695.456	8
695.485	-4
695.513	-6
695.542	-3
695.571	-1
695.6	7
695.629	20
695.658	13
695.687	2
695.716	2
695.745	17
695.774	-18
695.802	6
695.831	4
695.86	19
695.889	14
695.918	-1
695.947	-3
695.976	14
696.005	18
696.033	6
696.062	14
696.091	2
696.12	-14
696.149	11
696.178	7
696.207	12
696.235	-5
696.264	-10
696.293	2
696.322	17
696.351	2
696.38	-8
696.408	-8
696.437	15
696.466	18
696.495	6
696.524	16
696.553	13
696.581	10
696.61	-9
696.639	10
696.668	6
696.697	11
696.725	9
696.754	4
696.783	-6
696.812	1
696.84	6
696.869	13
696.898	-3
696.927	0
696.956	18
696.984	-8
697.013	-15
697.042	-15
697.071	-1
697.099	19
697.128	6
697.157	12
697.186	14
697.214	6
697.243	-10
697.272	-3
697.301	9
697.329	10
697.358	13
697.387	30
697.415	27
697.444	15
697.473	-3
697.502	-7
697.53	13
697.559	-3
697.588	-12
697.616	6
697.645	14
697.674	24
697.703	-3
697.731	5
697.76	11
697.789	4
697.817	10
697.846	28
697.875	1
697.903	19
697.932	13
697.961	14
697.989	8
698.018	11
698.047	4
698.075	14
698.104	4
698.133	9
698.161	8
698.19	-4
698.218	-14
698.247	0
698.276	-11
698.304	21
698.333	0
698.362	3
698.39	-5
698.419	7
698.447	-7
698.476	-8
698.505	10
698.533	2
698.562	4
698.591	-28
698.619	-1
698.648	14
698.676	4
698.705	-21
698.733	-6
698.762	1
698.791	10
698.819	1
698.848	-3
698.876	8
698.905	-2
698.933	-5
698.962	-12
698.991	2
699.019	18
699.048	13
699.076	6
699.105	-8
699.133	-5
699.162	1
699.19	4
699.219	2
699.248	-9
699.276	2
699.305	-19
699.333	6
699.362	5
699.39	-5
699.419	-15
699.447	-1
699.476	5
699.504	-7
699.533	10
699.561	1
699.59	1
699.618	4
699.647	15
699.675	6
699.704	-4
699.732	7
699.761	4
699.789	7
699.818	-7
699.846	6
699.874	-8
699.903	-12
699.931	1
699.96	-6
699.988	-20
700.017	-2
700.045	-3
700.074	-7
700.102	-9
700.13	-4
700.159	-5
700.187	-3
700.216	-1
700.244	-20
700.273	-28
700.301	-5
700.329	-2
700.358	9
700.386	-6
700.415	8
700.443	1
700.472	-4
700.5	2
700.528	-7
700.557	10
700.585	-11
700.614	-5
700.642	-2
700.67	4
700.699	10
700.727	1
700.755	-1
700.784	-8
700.812	-8
700.841	13
700.869	1
700.897	-2
700.926	-10
700.954	11
700.982	25
701.011	10
701.039	10
701.067	7
701.096	7
701.124	-14
701.152	2
701.181	-6
701.209	-18
701.237	2
701.266	-9
701.294	-3
701.322	-2
701.351	-1
701.379	8
701.407	-11
701.435	7
701.464	22
701.492	25
701.52	2
701.549	4
701.577	-11
701.605	1
701.634	-14
701.662	9
701.69	3
701.718	-6
701.747	15
701.775	-5
701.803	-10
701.831	8
701.86	-8
701.888	8
701.916	-3
701.944	-13
701.973	-4
702.001	-11
702.029	-20
702.057	-6
702.086	-18
702.114	-5
702.142	15
702.17	3
702.199	2
702.227	-2
702.255	8
702.283	-4
702.311	3
702.34	-5
702.368	-7
702.396	5
702.424	-5
702.452	-6
702.481	1
702.509	3
702.537	11
702.565	3
702.593	-11
702.621	-3
702.65	4
702.678	-2
702.706	5
702.734	-1
702.762	-5
702.79	-4
702.819	-6
702.847	6
702.875	7
702.903	5
702.931	-13
702.959	-5
702.988	-3
703.016	-22
703.044	5
703.072	-10
703.1	2
703.128	-14
703.156	13
703.184	-7
703.212	-2
703.241	-1
703.269	7
703.297	3
703.325	4
703.353	-11
703.381	-3
703.409	-7
703.437	-8
703.465	2
703.493	-17
703.522	-4
703.55	0
703.578	2
703.606	-24
703.634	-1
703.662	-7
703.69	1
703.718	18
703.746	21
703.774	2
703.802	7
703.83	-1
703.858	3
703.886	-10
703.914	-12
703.942	6
703.97	1
703.998	-7
704.027	14
704.055	9
704.083	0
704.111	-22
704.139	8
704.167	-2
704.195	7
704.223	3
704.251	-4
704.279	9
704.307	7
704.335	-19
704.363	-7
704.391	-9
704.419	-4
704.447	2
704.475	-4
704.503	-5
704.531	16
704.558	8
704.586	5
704.614	2
704.642	0
704.67	-11
704.698	-4
704.726	-6
704.754	-3
704.782	-9
704.81	1
704.838	9
704.866	3
704.894	-12
704.922	6
704.95	2
704.978	8
705.006	-2
705.034	7
705.061	-11
705.089	-7
705.117	-3
705.145	-6
705.173	-2
705.201	-1
705.229	-1
705.257	4
705.285	11
705.313	3
705.34	-25
705.368	-15
705.396	5
705.424	-1
705.452	-14
705.48	9
705.508	-10
705.536	-9
705.563	-7
705.591	-6
705.619	-10
705.647	-9
705.675	5
705.703	1
705.731	-8
705.758	11
705.786	-3
705.814	11
705.842	-2
705.87	15
705.898	7
705.925	-3
705.953	-1
705.981	-5
706.009	-4
706.037	1
706.065	-8
706.092	-14
706.12	-6
706.148	-18
706.176	-30
706.204	-12
706.231	-11
706.259	-29
706.287	-17
706.315	-5
706.342	-5
706.37	14
706.398	9
706.426	-8
706.454	-5
706.481	8
706.509	18
706.537	-11
706.565	-6
706.592	29
706.62	6
706.648	1
706.676	-19
706.703	-5
706.731	2
706.759	-13
706.787	1
706.814	-1
706.842	1
706.87	-9
706.897	-9
706.925	-1
706.953	0
706.981	16
707.008	15
707.036	-2
707.064	-1
707.091	-14
707.119	-2
707.147	-9
707.174	-23
707.202	6
707.23	-14
707.258	-7
707.285	-4
707.313	-9
707.341	-23
707.368	-3
707.396	10
707.424	20
707.451	6
707.479	-3
707.507	-8
707.534	-10
707.562	5
707.59	0
707.617	-25
707.645	-6
707.672	-1
707.7	3
707.728	18
707.755	0
707.783	-2
707.811	-3
707.838	1
707.866	10
707.893	0
707.921	-3
707.949	-2
707.976	4
708.004	-6
708.031	-4
708.059	-8
708.087	1
708.114	4
708.142	-3
708.169	-9
708.197	-15
708.225	-9
708.252	-19
708.28	6
708.307	-3
708.335	-7
708.362	-3
708.39	-18
708.418	-4
708.445	-3
708.473	-12
708.5	-6
708.528	-2
708.555	-9
708.583	-14
708.61	-3
708.638	11
708.665	-20
708.693	4
708.72	-17
708.748	-10
708.776	-3
708.803	16
708.831	20
708.858	9
708.886	-3
708.913	-2
708.941	-5
708.968	10
708.996	-2
709.023	37
709.051	-3
709.078	-15
709.105	-7
709.133	-4
709.16	-5
709.188	1
709.215	-2
709.243	-1
709.27	-25
709.298	-7
709.325	1
709.353	-2
709.38	9
709.408	12
709.435	2
709.462	3
709.49	0
709.517	-8
709.545	-17
709.572	-10
709.6	-6
709.627	-1
709.655	-14
709.682	-19
709.709	-4
709.737	4
709.764	2
709.792	11
709.819	-1
709.846	-4
709.874	8
709.901	5
709.929	1
709.956	-7
709.983	0
710.011	-15
710.038	-13
710.066	4
710.093	6
710.12	3
710.148	-4
710.175	-3
710.202	5
710.23	5
710.257	7
710.284	-6
710.312	5
710.339	-8
710.366	1
710.394	-8
710.421	-2
710.448	-7
710.476	-17
710.503	-9
710.53	2
710.558	20
710.585	21
710.612	-11
710.64	-10
710.667	-15
710.694	-15
710.722	-5
710.749	-10
710.776	7
710.804	6
710.831	-5
710.858	2
710.885	-13
710.913	-16
710.94	1
710.967	3
710.995	3
711.022	-8
711.049	12
711.076	-8
711.104	-5
711.131	-11
711.158	-10
711.185	13
711.213	-11
711.24	-3
711.267	11
711.294	2
711.322	11
711.349	1
711.376	1
711.403	9
711.431	2
711.458	-1
711.485	-12
711.512	7
711.54	-14
711.567	6
711.594	-13
711.621	1
711.648	7
711.676	-7
711.703	8
711.73	-2
711.757	9
711.784	0
711.812	3
711.839	0
711.866	-11
711.893	-6
711.92	2
711.947	4
711.975	3
712.002	-6
712.029	12
712.056	19
712.083	5
712.11	-22
712.138	1
712.165	2
712.192	-16
712.219	-14
712.246	-3
712.273	-13
712.3	-7
712.328	-10
712.355	1
712.382	-9
712.409	18
712.436	-6
712.463	-2
712.49	9
712.517	1
712.544	-3
712.572	4
712.599	-2
712.626	3
712.653	-2
712.68	-6
712.707	-3
712.734	9
712.761	-2
712.788	12
712.815	9
712.842	9
712.87	0
712.897	-3
712.924	-12
712.951	-2
712.978	14
713.005	18
713.032	24
713.059	-1
713.086	-9
713.113	-6
713.14	-17
713.167	-9
713.194	-5
713.221	2
713.248	9
713.275	-8
713.302	-16
713.329	-6
713.356	15
713.383	12
713.41	-2
713.437	-7
713.464	-6
713.491	6
713.518	6
713.545	13
713.572	-10
713.599	2
713.626	-1
713.653	6
713.68	-3
713.707	-13
713.734	17
713.761	12
713.788	11
713.815	6
713.842	-3
713.869	-9
713.896	9
713.923	0
713.95	-3
713.977	-6
714.004	0
714.031	-6
714.058	-1
714.085	6
714.112	5
714.139	-21
714.165	-5
714.192	-26
714.219	-9
714.246	8
714.273	-1
714.3	-4
714.327	-9
714.354	15
714.381	1
714.408	-19
714.435	-11
714.461	7
714.488	6
714.515	-14
714.542	-15
714.569	-6
714.596	-5
714.623	-12
714.65	-6
714.677	4
714.703	15
714.73	-3
714.757	-15
714.784	1
714.811	-17
714.838	-3
714.865	-10
714.891	5
714.918	-4
714.945	-3
714.972	-25
714.999	-2
715.026	5
715.052	18
715.079	-4
715.106	19
715.133	-3
715.16	-10
715.187	16
715.213	1
715.24	-14
715.267	-12
715.294	3
715.321	-2
715.347	-4
715.374	-7
715.401	7
715.428	11
715.455	1
715.481	-11
715.508	5
715.535	-4
715.562	20
715.588	9
715.615	1
715.642	-1
715.669	3
715.695	-13
715.722	6
715.749	2
715.776	7
715.802	-2
715.829	10
715.856	-13
715.883	2
715.909	-6
715.936	-11
715.963	-7
715.99	-9
716.016	7
716.043	0
716.07	11
716.096	-23
716.123	2
716.15	-14
716.177	3
716.203	7
716.23	6
716.257	-16
716.283	13
716.31	0
716.337	6
716.363	1
716.39	-13
716.417	11
716.443	9
716.47	-10
716.497	-3
716.523	3
716.55	-6
716.577	8
716.603	-10
716.63	9
716.657	5
716.683	0
716.71	-10
716.737	2
716.763	12
716.79	1
716.817	7
716.843	3
716.87	-4
716.897	4
716.923	3
716.95	-3
716.976	-6
717.003	1
717.03	-3
717.056	-4
717.083	2
717.109	9
717.136	16
717.163	-8
717.189	-4
717.216	8
717.242	-8
717.269	-7
717.296	7
717.322	-3
717.349	2
717.375	-3
717.402	-4
717.428	7
717.455	7
717.481	1
717.508	-10
717.535	5
717.561	1
717.588	5
717.614	2
717.641	13
717.667	10
717.694	4
717.72	-6
717.747	-3
717.773	-9
717.8	10
717.826	11
717.853	-3
717.88	7
717.906	6
717.933	10
717.959	13
717.986	3
718.012	-2
718.039	6
718.065	12
718.092	-9
718.118	-6
718.144	-3
718.171	13
718.197	9
718.224	-1
718.25	1
718.277	6
718.303	-2
718.33	6
718.356	-12
718.383	-19
718.409	-4
718.436	0
718.462	-18
718.489	-15
718.515	-2
718.541	2
718.568	1
718.594	-1
718.621	10
718.647	7
718.674	12
718.7	9
718.726	3
718.753	-9
718.779	20
718.806	3
718.832	-4
718.858	-6
718.885	-6
718.911	1
718.938	3
718.964	-3
718.99	8
719.017	-2
719.043	2
719.07	15
719.096	-12
719.122	3
719.149	7
719.175	0
719.201	-3
719.228	-9
719.254	-7
719.281	-11
719.307	-1
719.333	8
719.36	7
719.386	11
719.412	16
719.439	-10
719.465	-3
719.491	-10
719.518	8
719.544	22
719.57	8
719.597	7
719.623	-8
719.649	4
719.675	-1
719.702	1
719.728	15
719.754	-9
719.781	5
719.807	6
719.833	7
719.86	-8
719.886	0
719.912	-9
719.938	4
719.965	5
719.991	4
720.017	-2
720.044	-7
720.07	5
720.096	0
720.122	-9
720.149	12
720.175	22
720.201	3
720.227	-14
720.254	0
720.28	2
720.306	-10
720.332	1
720.359	-6
720.385	13
720.411	10
720.437	7
720.463	6
720.49	5
720.516	2
720.542	-11
720.568	12
720.595	7
720.621	10
720.647	-3
720.673	-10
720.699	-4
720.725	10
720.752	3
720.778	7
720.804	5
720.83	11
720.856	-3
720.883	-1
720.909	12
720.935	5
720.961	8
720.987	3
721.013	4
721.04	9
721.066	0
721.092	4
721.118	-2
721.144	0
721.17	0
721.196	-3
721.223	-7
721.249	-5
721.275	30
721.301	-1
721.327	1
721.353	-1
721.379	-10
721.405	-9
721.432	6
721.458	4
721.484	8
721.51	-9
721.536	-5
721.562	-9
721.588	-10
721.614	-13
721.64	-6
721.666	1
721.693	1
721.719	-3
721.745	-17
721.771	-3
721.797	9
721.823	12
721.849	27
721.875	5
721.901	2
721.927	1
721.953	10
721.979	21
722.005	-2
722.031	10
722.057	-3
722.083	7
722.109	3
722.135	13
722.161	-1
722.187	2
722.214	-12
722.24	-14
722.266	1
722.292	8
722.318	11
722.344	-5
722.37	-2
722.396	-4
722.422	7
722.448	7
722.474	-5
722.5	3
722.526	-6
722.552	-2
722.578	-5
722.603	9
722.629	-8
722.655	6
722.681	-16
722.707	-5
722.733	-4
722.759	-3
722.785	6
722.811	4
722.837	7
722.863	-2
722.889	10
722.915	-2
722.941	-9
722.967	-15
722.993	11
723.019	-3
723.045	3
723.071	14
723.097	20
723.122	3
723.148	-7
723.174	3
723.2	2
723.226	2
723.252	10
723.278	3
723.304	3
723.33	1
723.356	9
723.381	-14
723.407	-15
723.433	15
723.459	-10
723.485	-1
723.511	2
723.537	1
723.563	5
723.588	-9
723.614	-5
723.64	10
723.666	-23
723.692	5
723.718	9
723.744	6
723.769	9
723.795	6
723.821	6
723.847	2
723.873	6
723.899	-3
723.924	-10
723.95	1
723.976	-23
724.002	5
724.028	18
724.053	8
724.079	18
724.105	-7
724.131	-1
724.157	4
724.182	-2
724.208	3
724.234	-2
724.26	-10
724.286	-13
724.311	-1
724.337	-17
724.363	-10
724.389	-4
724.415	-5
724.44	20
724.466	-9
724.492	-4
724.518	-4
724.543	-6
724.569	4
724.595	6
724.621	9
724.646	-10
724.672	-9
724.698	-9
724.723	3
724.749	0
724.775	14
724.801	0
724.826	1
724.852	-14
724.878	-13
724.904	-23
724.929	12
724.955	-6
724.981	-11
725.006	-8
725.032	-6
725.058	2
725.083	8
725.109	-9
725.135	-8
725.161	-1
725.186	-6
725.212	2
725.238	3
725.263	6
725.289	-12
725.315	-21
725.34	-3
725.366	14
725.392	6
725.417	8
725.443	3
725.468	13
725.494	-1
725.52	11
725.545	-4
725.571	-11
725.597	-10
725.622	-9
725.648	-1
725.674	15
725.699	11
725.725	-1
725.75	13
725.776	-11
725.802	2
725.827	-1
725.853	9
725.878	6
725.904	-14
725.93	-2
725.955	-4
725.981	-10
726.006	1
726.032	13
726.057	1
726.083	-10
726.109	-3
726.134	-12
726.16	1
726.185	2
726.211	1
726.236	-2
726.262	1
726.288	-6
726.313	15
726.339	4
726.364	1
726.39	12
726.415	14
726.441	-7
726.466	-5
726.492	3
726.517	15
726.543	8
726.568	-5
726.594	7
726.619	-6
726.645	-1
726.67	-6
726.696	6
726.721	-9
726.747	0
726.772	-1
726.798	-1
726.823	6
726.849	-3
726.874	-14
726.9	16
726.925	-4
726.951	-9
726.976	3
727.002	-7
727.027	-2
727.053	1
727.078	-7
727.104	-2
727.129	-13
727.155	-22
727.18	9
727.205	5
727.231	12
727.256	7
727.282	0
727.307	6
727.333	-2
727.358	-13
727.383	-10
727.409	-7
727.434	-3
727.46	-10
727.485	-12
727.511	0
727.536	-11
727.561	4
727.587	-15
727.612	-5
727.637	2
727.663	3
727.688	13
727.714	1
727.739	-24
727.764	-12
727.79	6
727.815	-15
727.841	15
727.866	4
727.891	7
727.917	-13
727.942	-24
727.967	-5
727.993	-29
728.018	-2
728.043	-12
728.069	11
728.094	15
728.119	-12
728.145	7
728.17	2
728.195	-2
728.221	10
728.246	-4
728.271	-19
728.297	-4
728.322	-11
728.347	6
728.373	4
728.398	7
728.423	3
728.448	-3
728.474	-3
728.499	3
728.524	-21
728.55	0
728.575	-14
728.6	-13
728.625	-8
728.651	6
728.676	-9
728.701	13
728.727	3
728.752	-29
728.777	-17
728.802	2
728.828	-5
728.853	-7
728.878	0
728.903	-7
728.929	-6
728.954	-2
728.979	2
729.004	-2
729.03	7
729.055	1
729.08	-17
729.105	-19
729.13	3
729.156	-6
729.181	-15
729.206	-11
729.231	-9
729.256	10
729.282	4
729.307	-8
729.332	-5
729.357	-11
729.382	17
729.408	-6
729.433	2
729.458	4
729.483	2
729.508	2
729.533	-3
729.559	-5
729.584	-18
729.609	1
729.634	7
729.659	-9
729.684	-10
729.71	6
729.735	7
729.76	-11
729.785	0
729.81	13
729.835	5
729.86	-13
729.886	-3
729.911	-3
729.936	-3
729.961	-5
729.986	-12
730.011	8
730.036	1
730.061	4
730.086	-1
730.112	0
730.137	6
730.162	5
730.187	-7
730.212	-8
730.237	-5
730.262	-9
730.287	2
730.312	-2
730.337	-4
730.362	19
730.387	-4
730.413	7
730.438	-10
730.463	3
730.488	-2
730.513	-14
730.538	-15
730.563	5
730.588	8
730.613	23
730.638	-2
730.663	-9
730.688	-3
730.713	17
730.738	-1
730.763	1
730.788	-18
730.813	-2
730.838	-1
730.863	0
730.888	-5
730.913	-13
730.938	-15
730.963	-4
730.988	8
731.013	7
731.038	-14
731.063	-7
731.088	3
731.113	-6
731.138	-9
731.163	-4
731.188	6
731.213	1
731.238	10
731.263	4
731.288	-5
731.313	-3
731.338	-3
731.363	-7
731.388	2
731.413	4
731.438	9
731.463	10
731.487	-2
731.512	2
731.537	-12
731.562	0
731.587	5
731.612	-14
731.637	-9
731.662	-2
731.687	17
731.712	-18
731.737	-13
731.762	3
731.786	1
731.811	-4
731.836	7
731.861	-24
731.886	-7
731.911	11
731.936	1
731.961	-2
731.986	-9
732.01	1
732.035	13
732.06	16
732.085	2
732.11	2
732.135	-14
732.16	-8
732.184	-7
732.209	-9
732.234	1
732.259	-5
732.284	3
732.309	-2
732.334	-26
732.358	-23
732.383	-13
732.408	-5
732.433	-2
732.458	-1
732.482	-2
732.507	-8
732.532	-1
732.557	9
732.582	-2
732.607	2
732.631	-17
732.656	-10
732.681	9
732.706	-5
732.73	-18
732.755	-4
732.78	-2
732.805	13
732.83	-2
732.854	1
732.879	2
732.904	-5
732.929	-11
732.953	-1
732.978	1
733.003	-11
733.028	-5
733.052	6
733.077	0
733.102	4
733.127	-14
733.151	-3
733.176	7
733.201	-1
733.226	-2
733.25	2
733.275	5
733.3	-3
733.324	1
733.349	-3
733.374	15
733.399	-1
733.423	-2
733.448	-5
733.473	-4
733.497	1
733.522	-5
733.547	10
733.571	23
733.596	8
733.621	16
733.646	-6
733.67	1
733.695	-12
733.72	-9
733.744	17
733.769	3
733.794	28
733.818	2
733.843	-9
733.867	-17
733.892	-10
733.917	-4
733.941	-5
733.966	-15
733.991	-6
734.015	21
734.04	-1
734.065	13
734.089	6
734.114	-6
734.138	-2
734.163	-10
734.188	16
734.212	18
734.237	9
734.261	1
734.286	-6
734.311	-5
734.335	-14
734.36	-9
734.384	1
734.409	-9
734.434	-13
734.458	-2
734.483	1
734.507	-5
734.532	-2
734.556	3
734.581	-1
734.606	-5
734.63	-5
734.655	20
734.679	4
734.704	-6
734.728	-7
734.753	-11
734.777	16
734.802	-2
734.826	-1
734.851	11
734.876	0
734.9	14
734.925	11
734.949	1
734.974	9
734.998	-4
735.023	-18
735.047	-12
735.072	14
735.096	17
735.121	2
735.145	1
735.17	-1
735.194	10
735.219	-6
735.243	-2
735.268	0
735.292	4
735.317	9
735.341	-1
735.365	-20
735.39	21
735.414	6
735.439	3
735.463	-14
735.488	-2
735.512	1
735.537	-3
735.561	-7
735.586	-11
735.61	-8
735.634	7
735.659	4
735.683	14
735.708	-5
735.732	-10
735.757	-6
735.781	9
735.805	5
735.83	-6
735.854	3
735.879	2
735.903	6
735.927	9
735.952	-2
735.976	2
736.001	-1
736.025	2
736.049	-2
736.074	7
736.098	6
736.123	9
736.147	-3
736.171	-4
736.196	-3
736.22	-2
736.244	3
736.269	-3
736.293	-7
736.317	0
736.342	1
736.366	21
736.39	12
736.415	-2
736.439	-5
736.463	12
736.488	4
736.512	14
736.536	19
736.561	35
736.585	27
736.609	-1
736.634	4
736.658	-1
736.682	3
736.707	-5
736.731	-13
736.755	-4
736.78	23
736.804	11
736.828	12
736.852	-14
736.877	-3
736.901	-3
736.925	3
736.949	11
736.974	-6
736.998	-8
737.022	10
737.047	-6
737.071	-8
737.095	7
737.119	17
737.144	5
737.168	-7
737.192	-9
737.216	7
737.241	-14
737.265	-6
737.289	1
737.313	-2
737.337	15
737.362	3
737.386	-2
737.41	-5
737.434	7
737.459	7
737.483	10
737.507	1
737.531	9
737.555	-1
737.58	14
737.604	-2
737.628	-13
737.652	5
737.676	-9
737.701	-2
737.725	-14
737.749	7
737.773	-1
737.797	15
737.821	1
737.846	-5
737.87	22
737.894	9
737.918	-12
737.942	-5
737.966	12
737.99	1
738.015	6
738.039	20
738.063	0
738.087	3
738.111	4
738.135	13
738.159	7
738.184	15
738.208	17
738.232	3
738.256	2
738.28	9
738.304	5
738.328	-11
738.352	-14
738.376	-5
738.4	-1
738.425	13
738.449	-13
738.473	0
738.497	6
738.521	6
738.545	3
738.569	12
738.593	15
738.617	8
738.641	-15
738.665	-6
738.689	1
738.713	7
738.737	16
738.762	12
738.786	-5
738.81	-15
738.834	-3
738.858	-15
738.882	5
738.906	-5
738.93	-9
738.954	-7
738.978	-4
739.002	-3
739.026	9
739.05	11
739.074	-2
739.098	1
739.122	9
739.146	4
739.17	-1
739.194	4
739.218	-11
739.242	3
739.266	-5
739.29	15
739.314	7
739.338	4
739.362	-2
739.386	5
739.41	-7
739.434	1
739.458	19
739.482	6
739.506	9
739.53	2
739.554	-2
739.577	3
739.601	14
739.625	-7
739.649	1
739.673	-6
739.697	2
739.721	1
739.745	6
739.769	9
739.793	13
739.817	8
739.841	2
739.865	5
739.889	-2
739.912	12
739.936	6
739.96	6
739.984	23
740.008	2
740.032	-12
740.056	19
740.08	7
740.104	-10
740.127	4
740.151	5
740.175	18
740.199	11
740.223	42
740.247	18
740.271	-7
740.295	-11
740.318	-3
740.342	1
740.366	4
740.39	8
740.414	-2
740.438	1
740.461	22
740.485	21
740.509	0
740.533	-3
740.557	-1
740.581	-4
740.604	-8
740.628	12
740.652	11
740.676	-3
740.7	9
740.723	-9
740.747	-10
740.771	3
740.795	-8
740.819	14
740.842	5
740.866	7
740.89	-5
740.914	11
740.938	-3
740.961	19
740.985	5
741.009	-6
741.033	11
741.056	1
741.08	1
741.104	-6
741.128	-1
741.151	5
741.175	6
741.199	10
741.223	19
741.246	4
741.27	-3
741.294	-12
741.318	13
741.341	6
741.365	-5
741.389	15
741.413	10
741.436	11
741.46	4
741.484	2
741.507	4
741.531	19
741.555	13
741.579	4
741.602	-6
741.626	4
741.65	-10
741.673	-3
741.697	-1
741.721	7
741.744	-11
741.768	-6
741.792	3
741.815	-6
741.839	15
741.863	2
741.886	7
741.91	5
741.934	-6
741.957	-15
741.981	10
742.005	4
742.028	-5
742.052	-13
742.075	1
742.099	14
742.123	2
742.146	2
742.17	9
742.194	-18
742.217	-8
742.241	-5
742.264	5
742.288	21
742.312	5
742.335	-3
742.359	3
742.382	7
742.406	4
742.43	-1
742.453	7
742.477	-11
742.5	-2
742.524	1
742.548	6
742.571	0
742.595	-3
742.618	-8
742.642	-15
742.665	11
742.689	-15
742.712	2
742.736	4
742.76	4
742.783	0
742.807	-4
742.83	2
742.854	-5
742.877	-14
742.901	-1
742.924	-7
742.948	6
742.971	2
742.995	1
743.018	-17
743.042	-5
743.065	-8
743.089	3
743.112	-6
743.136	-1
743.159	-12
743.183	-11
743.206	-5
743.23	-10
743.253	5
743.277	6
743.3	-10
743.324	-3
743.347	0
743.371	18
743.394	15
743.418	19
743.441	7
743.465	5
743.488	9
743.512	-5
743.535	-5
743.558	2
743.582	4
743.605	4
743.629	15
743.652	25
743.676	4
743.699	15
743.723	12
743.746	13
743.769	-5
743.793	0
743.816	-9
743.84	21
743.863	4
743.886	12
743.91	-5
743.933	-9
743.957	-7
743.98	-4
744.003	0
744.027	-12
744.05	-2
744.074	9
744.097	-4
744.12	-6
744.144	-8
744.167	6
744.19	8
744.214	-6
744.237	-7
744.26	11
744.284	-2
744.307	-7
744.331	1
744.354	-5
744.377	-13
744.401	-3
744.424	-9
744.447	-12
744.471	-18
