Data from HighRes_H2D2_15_04_11_07_2024_HR4C61891__71__15-05-41-543.txt Node

Date: Thu Nov 07 15:05:41 EST 2024
User: crc00042
Spectrometer: HR4C6189
Trigger mode: 4
Integration Time (sec): 1.000000E-1
Scans to average: 1
Electric dark correction enabled: true
Nonlinearity correction enabled: false
Boxcar width: 0
XAxis mode: Wavelengths
Number of Pixels in Spectrum: 3648
>>>>>Begin Spectral Data<<<<<
639.567	-41.85
639.602	-41.85
639.636	-41.85
639.67	-43.85
639.704	-31.85
639.738	11.15
639.773	0.15
639.807	-16.85
639.841	-9.85
639.875	17.15
639.909	9.15
639.943	-16.85
639.978	-1.85
640.012	0.15
640.046	22.15
640.08	9.15
640.114	-3.85
640.148	-19.85
640.182	-5.85
640.217	-5.85
640.251	19.15
640.285	-15.85
640.319	-21.85
640.353	7.15
640.387	2.15
640.421	2.15
640.455	4.15
640.49	-1.85
640.524	-13.85
640.558	3.15
640.592	18.15
640.626	1.15
640.66	11.15
640.694	12.15
640.728	7.15
640.762	8.15
640.796	10.15
640.83	23.15
640.865	8.15
640.899	7.15
640.933	-7.85
640.967	-4.85
641.001	3.15
641.035	10.15
641.069	0.15
641.103	-14.85
641.137	-7.85
641.171	-2.85
641.205	12.15
641.239	16.15
641.273	7.15
641.307	12.15
641.341	1.15
641.375	-1.85
641.409	-19.85
641.443	-3.85
641.477	22.15
641.511	6.15
641.545	8.15
641.579	8.15
641.614	16.15
641.648	9.15
641.682	-12.85
641.716	3.15
641.75	18.15
641.784	15.15
641.818	0.15
641.852	15.15
641.886	6.15
641.919	25.15
641.953	5.15
641.987	-14.85
642.021	-4.85
642.055	14.15
642.089	-1.85
642.123	0.15
642.157	-5.85
642.191	7.15
642.225	10.15
642.259	-7.85
642.293	7.15
642.327	1.15
642.361	6.15
642.395	20.15
642.429	28.15
642.463	5.15
642.497	15.15
642.531	3.15
642.565	0.15
642.599	-0.85
642.633	2.15
642.666	18.15
642.7	31.15
642.734	9.15
642.768	3.15
642.802	3.15
642.836	13.15
642.87	5.15
642.904	10.15
642.938	11.15
642.972	-0.85
643.005	-0.85
643.039	21.15
643.073	9.15
643.107	14.15
643.141	6.15
643.175	1.15
643.209	9.15
643.243	-2.85
643.276	1.15
643.31	3.15
643.344	-16.85
643.378	-0.85
643.412	7.15
643.446	3.15
643.48	-6.85
643.513	8.15
643.547	9.15
643.581	-8.85
643.615	-9.85
643.649	5.15
643.683	8.15
643.716	10.15
643.75	8.15
643.784	0.15
643.818	3.15
643.852	7.15
643.886	3.15
643.919	8.15
643.953	-7.85
643.987	1.15
644.021	3.15
644.055	0.15
644.088	7.15
644.122	1.15
644.156	-2.85
644.19	-15.85
644.224	7.15
644.257	10.15
644.291	11.15
644.325	4.15
644.359	12.15
644.392	27.15
644.426	0.15
644.46	-5.85
644.494	7.15
644.527	-18.85
644.561	8.15
644.595	-1.85
644.629	0.15
644.662	-0.85
644.696	10.15
644.73	-5.85
644.764	2.15
644.797	4.15
644.831	-6.85
644.865	-1.85
644.899	-4.85
644.932	18.15
644.966	2.15
645	-8.85
645.033	6.15
645.067	-0.85
645.101	1.15
645.135	-3.85
645.168	-8.85
645.202	-6.85
645.236	10.15
645.269	17.15
645.303	-4.85
645.337	-14.85
645.37	-15.85
645.404	-6.85
645.438	6.15
645.471	1.15
645.505	3.15
645.539	9.15
645.572	1.15
645.606	-6.85
645.64	19.15
645.673	6.15
645.707	32.15
645.741	-0.85
645.774	-3.85
645.808	9.15
645.842	5.15
645.875	6.15
645.909	-9.85
645.943	-4.85
645.976	5.15
646.01	13.15
646.043	20.15
646.077	17.15
646.111	11.15
646.144	9.15
646.178	12.15
646.212	-8.85
646.245	9.15
646.279	2.15
646.312	-3.85
646.346	11.15
646.38	4.15
646.413	14.15
646.447	4.15
646.48	2.15
646.514	-3.85
646.547	-0.85
646.581	3.15
646.615	-8.85
646.648	6.15
646.682	-11.85
646.715	13.15
646.749	18.15
646.782	-5.85
646.816	-2.85
646.85	-0.85
646.883	-15.85
646.917	7.15
646.95	4.15
646.984	3.15
647.017	4.15
647.051	-1.85
647.084	5.15
647.118	-0.85
647.151	10.15
647.185	19.15
647.218	-8.85
647.252	4.15
647.285	-9.85
647.319	-15.85
647.353	11.15
647.386	7.15
647.42	9.15
647.453	4.15
647.487	6.15
647.52	14.15
647.553	17.15
647.587	6.15
647.62	0.15
647.654	14.15
647.687	9.15
647.721	-2.85
647.754	14.15
647.788	7.15
647.821	-2.85
647.855	0.15
647.888	4.15
647.922	3.15
647.955	13.15
647.989	3.15
648.022	16.15
648.055	13.15
648.089	-13.85
648.122	30.15
648.156	-0.85
648.189	6.15
648.223	8.15
648.256	19.15
648.29	6.15
648.323	-10.85
648.356	10.15
648.39	0.15
648.423	-5.85
648.457	-1.85
648.49	0.15
648.523	2.15
648.557	7.15
648.59	-13.85
648.624	-3.85
648.657	5.15
648.69	32.15
648.724	26.15
648.757	8.15
648.791	10.15
648.824	11.15
648.857	9.15
648.891	-2.85
648.924	-9.85
648.957	24.15
648.991	-14.85
649.024	3.15
649.057	2.15
649.091	18.15
649.124	6.15
649.158	8.15
649.191	19.15
649.224	-4.85
649.258	15.15
649.291	-6.85
649.324	15.15
649.358	3.15
649.391	7.15
649.424	8.15
649.458	-17.85
649.491	8.15
649.524	-10.85
649.557	-1.85
649.591	-20.85
649.624	-6.85
649.657	-1.85
649.691	2.15
649.724	9.15
649.757	-2.85
649.791	-3.85
649.824	17.15
649.857	10.15
649.89	-2.85
649.924	-2.85
649.957	-5.85
649.99	-6.85
650.023	2.15
650.057	0.15
650.09	-3.85
650.123	3.15
650.157	17.15
650.19	29.15
650.223	-4.85
650.256	-14.85
650.29	3.15
650.323	3.15
650.356	7.15
650.389	-9.85
650.423	-11.85
650.456	6.15
650.489	-2.85
650.522	-7.85
650.555	6.15
650.589	16.15
650.622	-0.85
650.655	12.15
650.688	-3.85
650.721	-14.85
650.755	-17.85
650.788	-4.85
650.821	7.15
650.854	-5.85
650.887	-2.85
650.921	1.15
650.954	-8.85
650.987	5.15
651.02	3.15
651.053	-5.85
651.087	-10.85
651.12	29.15
651.153	16.15
651.186	22.15
651.219	6.15
651.252	3.15
651.286	-5.85
651.319	-8.85
651.352	10.15
651.385	8.15
651.418	2.15
651.451	7.15
651.484	12.15
651.518	-0.85
651.551	25.15
651.584	6.15
651.617	20.15
651.65	17.15
651.683	6.15
651.716	-2.85
651.749	-7.85
651.783	-5.85
651.816	14.15
651.849	17.15
651.882	-0.85
651.915	18.15
651.948	13.15
651.981	0.15
652.014	-23.85
652.047	-21.85
652.08	4.15
652.114	-9.85
652.147	-0.85
652.18	-1.85
652.213	15.15
652.246	-9.85
652.279	-1.85
652.312	3.15
652.345	-3.85
652.378	2.15
652.411	3.15
652.444	2.15
652.477	13.15
652.51	10.15
652.543	0.15
652.576	13.15
652.609	-2.85
652.642	10.15
652.675	18.15
652.709	13.15
652.742	2.15
652.775	11.15
652.808	16.15
652.841	-14.85
652.874	9.15
652.907	0.15
652.94	0.15
652.973	0.15
653.006	0.15
653.039	3.15
653.072	10.15
653.105	-4.85
653.138	-2.85
653.171	12.15
653.204	8.15
653.237	10.15
653.27	5.15
653.303	7.15
653.336	15.15
653.368	-12.85
653.401	-4.85
653.434	-3.85
653.467	14.15
653.5	-15.85
653.533	-14.85
653.566	18.15
653.599	-1.85
653.632	13.15
653.665	14.15
653.698	-5.85
653.731	2.15
653.764	15.15
653.797	5.15
653.83	10.15
653.863	-2.85
653.896	18.15
653.929	-5.85
653.961	17.15
653.994	1.15
654.027	-16.85
654.06	6.15
654.093	19.15
654.126	14.15
654.159	-22.85
654.192	1.15
654.225	9.15
654.258	0.15
654.29	-2.85
654.323	7.15
654.356	3.15
654.389	7.15
654.422	7.15
654.455	9.15
654.488	8.15
654.521	-11.85
654.553	-13.85
654.586	-2.85
654.619	9.15
654.652	9.15
654.685	13.15
654.718	9.15
654.751	35.15
654.783	11.15
654.816	11.15
654.849	12.15
654.882	2.15
654.915	1.15
654.948	15.15
654.98	-2.85
655.013	-3.85
655.046	6.15
655.079	-6.85
655.112	3.15
655.144	-3.85
655.177	3.15
655.21	16.15
655.243	13.15
655.276	-4.85
655.308	-12.85
655.341	-11.85
655.374	26.15
655.407	18.15
655.44	11.15
655.472	6.15
655.505	5.15
655.538	3.15
655.571	19.15
655.603	14.15
655.636	10.15
655.669	17.15
655.702	10.15
655.734	-2.85
655.767	2.15
655.8	0.15
655.833	11.15
655.865	7.15
655.898	9.15
655.931	13.15
655.964	19.15
655.996	7.15
656.029	20.15
656.062	38.15
656.095	68.15
656.127	82.15
656.16	226.15
656.193	637.15
656.225	945.15
656.258	570.15
656.291	229.15
656.324	189.15
656.356	376.15
656.389	766.15
656.422	689.15
656.454	244.15
656.487	88.15
656.52	51.15
656.552	17.15
656.585	8.15
656.618	1.15
656.65	2.15
656.683	-3.85
656.716	14.15
656.748	-5.85
656.781	-1.85
656.814	-15.85
656.846	0.15
656.879	6.15
656.912	16.15
656.944	-13.85
656.977	1.15
657.01	-6.85
657.042	13.15
657.075	15.15
657.108	-11.85
657.14	8.15
657.173	17.15
657.205	24.15
657.238	12.15
657.271	11.15
657.303	-10.85
657.336	8.15
657.369	11.15
657.401	5.15
657.434	-5.85
657.466	10.15
657.499	18.15
657.532	-7.85
657.564	2.15
657.597	16.15
657.629	16.15
657.662	13.15
657.694	10.15
657.727	2.15
657.76	18.15
657.792	5.15
657.825	-6.85
657.857	16.15
657.89	12.15
657.922	20.15
657.955	-3.85
657.987	2.15
658.02	11.15
658.053	10.15
658.085	-1.85
658.118	15.15
658.15	3.15
658.183	12.15
658.215	2.15
658.248	-0.85
658.28	6.15
658.313	12.15
658.345	-1.85
658.378	-0.85
658.41	0.15
658.443	13.15
658.475	-7.85
658.508	-10.85
658.54	1.15
658.573	0.15
658.605	10.15
658.638	12.15
658.67	-3.85
658.703	-2.85
658.735	-14.85
658.768	16.15
658.8	6.15
658.833	23.15
658.865	5.15
658.898	6.15
658.93	0.15
658.963	4.15
658.995	-17.85
659.028	6.15
659.06	8.15
659.092	-11.85
659.125	-10.85
659.157	9.15
659.19	5.15
659.222	-4.85
659.255	-1.85
659.287	9.15
659.32	-7.85
659.352	2.15
659.384	7.15
659.417	1.15
659.449	1.15
659.482	14.15
659.514	-10.85
659.546	-1.85
659.579	6.15
659.611	1.15
659.644	-18.85
659.676	-9.85
659.708	-8.85
659.741	-20.85
659.773	6.15
659.806	-8.85
659.838	-1.85
659.87	2.15
659.903	-4.85
659.935	6.15
659.967	8.15
660	13.15
660.032	-6.85
660.065	7.15
660.097	-11.85
660.129	15.15
660.162	-6.85
660.194	-16.85
660.226	10.15
660.259	7.15
660.291	-10.85
660.323	-11.85
660.356	-4.85
660.388	-7.85
660.42	0.15
660.453	15.15
660.485	18.15
660.517	26.15
660.55	20.15
660.582	2.15
660.614	11.15
660.647	-2.85
660.679	-8.85
660.711	5.15
660.743	-12.85
660.776	-2.85
660.808	-5.85
660.84	0.15
660.873	-3.85
660.905	6.15
660.937	0.15
660.969	10.15
661.002	8.15
661.034	11.15
661.066	-11.85
661.099	18.15
661.131	9.15
661.163	-9.85
661.195	-13.85
661.228	10.15
661.26	-8.85
661.292	-7.85
661.324	6.15
661.357	-3.85
661.389	12.15
661.421	25.15
661.453	-5.85
661.485	11.15
661.518	6.15
661.55	-0.85
661.582	-13.85
661.614	-0.85
661.647	3.15
661.679	3.15
661.711	1.15
661.743	-4.85
661.775	8.15
661.808	29.15
661.84	12.15
661.872	6.15
661.904	1.15
661.936	-9.85
661.969	-17.85
662.001	-9.85
662.033	-3.85
662.065	-0.85
662.097	18.15
662.129	-1.85
662.162	-6.85
662.194	5.15
662.226	-0.85
662.258	14.15
662.29	6.15
662.322	-12.85
662.355	-13.85
662.387	21.15
662.419	3.15
662.451	7.15
662.483	2.15
662.515	-3.85
662.547	6.15
662.58	8.15
662.612	1.15
662.644	-16.85
662.676	1.15
662.708	23.15
662.74	4.15
662.772	6.15
662.804	15.15
662.836	2.15
662.869	-9.85
662.901	18.15
662.933	0.15
662.965	23.15
662.997	25.15
663.029	-11.85
663.061	7.15
663.093	15.15
663.125	19.15
663.157	3.15
663.189	15.15
663.221	2.15
663.254	-6.85
663.286	14.15
663.318	-5.85
663.35	4.15
663.382	13.15
663.414	22.15
663.446	14.15
663.478	-0.85
663.51	17.15
663.542	-10.85
663.574	-5.85
663.606	5.15
663.638	-2.85
663.67	6.15
663.702	-2.85
663.734	6.15
663.766	12.15
663.798	-21.85
663.83	-8.85
663.862	0.15
663.894	5.15
663.926	10.15
663.958	13.15
663.99	-3.85
664.022	-6.85
664.054	-0.85
664.086	8.15
664.118	-0.85
664.15	2.15
664.182	13.15
664.214	4.15
664.246	10.15
664.278	-0.85
664.31	11.15
664.342	11.15
664.374	-6.85
664.406	-5.85
664.438	-6.85
664.47	7.15
664.502	1.15
664.534	-15.85
664.566	-22.85
664.598	15.15
664.63	-2.85
664.662	12.15
664.693	-11.85
664.725	-17.85
664.757	10.15
664.789	-13.85
664.821	6.15
664.853	14.15
664.885	6.15
664.917	-4.85
664.949	10.15
664.981	24.15
665.013	3.15
665.045	9.15
665.076	7.15
665.108	0.15
665.14	-12.85
665.172	-1.85
665.204	-7.85
665.236	13.15
665.268	12.15
665.3	-0.85
665.331	-4.85
665.363	-3.85
665.395	-4.85
665.427	-4.85
665.459	8.15
665.491	8.15
665.523	7.15
665.555	4.15
665.586	9.15
665.618	2.15
665.65	-20.85
665.682	-2.85
665.714	20.15
665.746	7.15
665.777	-2.85
665.809	1.15
665.841	7.15
665.873	4.15
665.905	8.15
665.937	18.15
665.968	0.15
666	-4.85
666.032	1.15
666.064	-1.85
666.096	-1.85
666.127	6.15
666.159	2.15
666.191	13.15
666.223	5.15
666.255	-3.85
666.286	7.15
666.318	-3.85
666.35	15.15
666.382	2.15
666.413	-0.85
666.445	-7.85
666.477	-5.85
666.509	-5.85
666.54	3.15
666.572	-4.85
666.604	4.15
666.636	4.15
666.667	12.15
666.699	14.15
666.731	-0.85
666.763	-9.85
666.794	-4.85
666.826	9.15
666.858	-9.85
666.89	3.15
666.921	10.15
666.953	9.15
666.985	3.15
667.017	13.15
667.048	0.15
667.08	2.15
667.112	1.15
667.143	-7.85
667.175	16.15
667.207	11.15
667.238	11.15
667.27	13.15
667.302	12.15
667.334	-0.85
667.365	27.15
667.397	3.15
667.429	1.15
667.46	13.15
667.492	16.15
667.524	7.15
667.555	-13.85
667.587	-9.85
667.619	-15.85
667.65	-4.85
667.682	-3.85
667.714	8.15
667.745	13.15
667.777	16.15
667.808	10.15
667.84	14.15
667.872	0.15
667.903	30.15
667.935	13.15
667.967	7.15
667.998	9.15
668.03	10.15
668.061	5.15
668.093	-7.85
668.125	-5.85
668.156	9.15
668.188	3.15
668.22	-17.85
668.251	9.15
668.283	0.15
668.314	6.15
668.346	1.15
668.377	-0.85
668.409	-2.85
668.441	7.15
668.472	17.15
668.504	9.15
668.535	9.15
668.567	25.15
668.599	13.15
668.63	4.15
668.662	2.15
668.693	30.15
668.725	1.15
668.756	16.15
668.788	2.15
668.819	1.15
668.851	-13.85
668.882	5.15
668.914	-12.85
668.946	-5.85
668.977	4.15
669.009	8.15
669.04	-16.85
669.072	0.15
669.103	1.15
669.135	0.15
669.166	7.15
669.198	16.15
669.229	6.15
669.261	-2.85
669.292	-4.85
669.324	10.15
669.355	12.15
669.387	9.15
669.418	-4.85
669.45	-5.85
669.481	5.15
669.513	-5.85
669.544	-0.85
669.576	-3.85
669.607	11.15
669.639	5.15
669.67	8.15
669.701	16.15
669.733	-14.85
669.764	-6.85
669.796	3.15
669.827	-18.85
669.859	11.15
669.89	6.15
669.922	14.15
669.953	6.15
669.985	-11.85
670.016	15.15
670.047	-7.85
670.079	-3.85
670.11	10.15
670.142	8.15
670.173	5.15
670.204	3.15
670.236	11.15
670.267	18.15
670.299	2.15
670.33	-7.85
670.362	6.15
670.393	-4.85
670.424	-3.85
670.456	-23.85
670.487	-5.85
670.518	3.15
670.55	7.15
670.581	-9.85
670.613	-9.85
670.644	-0.85
670.675	-3.85
670.707	-3.85
670.738	1.15
670.769	13.15
670.801	-9.85
670.832	9.15
670.864	1.15
670.895	14.15
670.926	9.15
670.958	7.15
670.989	7.15
671.02	-12.85
671.052	-7.85
671.083	2.15
671.114	-5.85
671.146	18.15
671.177	7.15
671.208	-14.85
671.24	3.15
671.271	-9.85
671.302	-9.85
671.333	-7.85
671.365	-0.85
671.396	5.15
671.427	14.15
671.459	11.15
671.49	-4.85
671.521	9.15
671.553	7.15
671.584	12.15
671.615	13.15
671.646	8.15
671.678	0.15
671.709	-10.85
671.74	-23.85
671.771	-0.85
671.803	6.15
671.834	-14.85
671.865	-8.85
671.896	2.15
671.928	-0.85
671.959	-4.85
671.99	-1.85
672.021	-13.85
672.053	-6.85
672.084	23.15
672.115	8.15
672.146	-3.85
672.178	-18.85
672.209	-23.85
672.24	1.15
672.271	25.15
672.303	9.15
672.334	13.15
672.365	0.15
672.396	-0.85
672.427	7.15
672.459	21.15
672.49	34.15
672.521	23.15
672.552	11.15
672.583	0.15
672.615	5.15
672.646	26.15
672.677	-5.85
672.708	-2.85
672.739	10.15
672.77	16.15
672.802	5.15
672.833	7.15
672.864	-7.85
672.895	-4.85
672.926	-12.85
672.957	-22.85
672.989	-9.85
673.02	5.15
673.051	2.15
673.082	25.15
673.113	2.15
673.144	3.15
673.175	-4.85
673.206	-1.85
673.238	-4.85
673.269	-4.85
673.3	-25.85
673.331	9.15
673.362	2.15
673.393	2.15
673.424	7.15
673.455	19.15
673.487	9.15
673.518	9.15
673.549	14.15
673.58	7.15
673.611	11.15
673.642	-2.85
673.673	-24.85
673.704	12.15
673.735	6.15
673.766	-0.85
673.797	5.15
673.828	3.15
673.86	-16.85
673.891	-17.85
673.922	-13.85
673.953	-4.85
673.984	14.15
674.015	2.15
674.046	2.15
674.077	-0.85
674.108	23.15
674.139	0.15
674.17	-7.85
674.201	-21.85
674.232	-6.85
674.263	-11.85
674.294	-0.85
674.325	-17.85
674.356	8.15
674.387	10.15
674.418	-5.85
674.449	1.15
674.48	-7.85
674.511	-12.85
674.542	6.15
674.573	-20.85
674.604	8.15
674.635	-3.85
674.666	22.15
674.697	12.15
674.728	7.15
674.759	-0.85
674.79	-7.85
674.821	-10.85
674.852	-2.85
674.883	16.15
674.914	4.15
674.945	-1.85
674.976	13.15
675.007	0.15
675.038	-2.85
675.069	-5.85
675.1	-12.85
675.131	-7.85
675.162	-12.85
675.193	1.15
675.224	-3.85
675.254	6.15
675.285	13.15
675.316	26.15
675.347	2.15
675.378	-17.85
675.409	-5.85
675.44	22.15
675.471	18.15
675.502	10.15
675.533	5.15
675.564	3.15
675.595	4.15
675.625	14.15
675.656	6.15
675.687	13.15
675.718	-12.85
675.749	4.15
675.78	4.15
675.811	-8.85
675.842	4.15
675.873	1.15
675.903	-23.85
675.934	10.15
675.965	0.15
675.996	-8.85
676.027	2.15
676.058	1.15
676.089	-12.85
676.119	1.15
676.15	-8.85
676.181	0.15
676.212	-1.85
676.243	26.15
676.274	-12.85
676.304	13.15
676.335	2.15
676.366	2.15
676.397	-1.85
676.428	-3.85
676.459	5.15
676.489	13.15
676.52	7.15
676.551	-4.85
676.582	-12.85
676.613	5.15
676.643	-12.85
676.674	10.15
676.705	5.15
676.736	-3.85
676.767	2.15
676.797	16.15
676.828	3.15
676.859	1.15
676.89	11.15
676.92	-7.85
676.951	13.15
676.982	5.15
677.013	6.15
677.044	9.15
677.074	2.15
677.105	-9.85
677.136	15.15
677.167	2.15
677.197	8.15
677.228	17.15
677.259	0.15
677.289	6.15
677.32	-6.85
677.351	-15.85
677.382	-4.85
677.412	-6.85
677.443	0.15
677.474	-4.85
677.505	-5.85
677.535	6.15
677.566	2.15
677.597	-1.85
677.627	-6.85
677.658	-4.85
677.689	-13.85
677.72	8.15
677.75	0.15
677.781	13.15
677.812	19.15
677.842	1.15
677.873	0.15
677.904	7.15
677.934	0.15
677.965	5.15
677.996	-0.85
678.026	18.15
678.057	3.15
678.088	-14.85
678.118	-1.85
678.149	-15.85
678.18	4.15
678.21	6.15
678.241	10.15
678.272	-1.85
678.302	5.15
678.333	10.15
678.363	8.15
678.394	-3.85
678.425	0.15
678.455	-7.85
678.486	12.15
678.517	9.15
678.547	11.15
678.578	6.15
678.608	-16.85
678.639	8.15
678.67	18.15
678.7	-3.85
678.731	-7.85
678.761	6.15
678.792	-6.85
678.823	-11.85
678.853	8.15
678.884	-7.85
678.914	11.15
678.945	9.15
678.975	4.15
679.006	16.15
679.037	0.15
679.067	19.15
679.098	-7.85
679.128	-9.85
679.159	0.15
679.189	18.15
679.22	-7.85
679.25	8.15
679.281	14.15
679.312	0.15
679.342	-14.85
679.373	25.15
679.403	8.15
679.434	14.15
679.464	-6.85
679.495	9.15
679.525	9.15
679.556	6.15
679.586	14.15
679.617	2.15
679.647	-5.85
679.678	4.15
679.708	6.15
679.739	0.15
679.769	-3.85
679.8	-13.85
679.83	8.15
679.861	12.15
679.891	6.15
679.922	-14.85
679.952	-1.85
679.983	15.15
680.013	17.15
680.044	5.15
680.074	13.15
680.105	9.15
680.135	-2.85
680.165	4.15
680.196	11.15
680.226	-3.85
680.257	13.15
680.287	7.15
680.318	-6.85
680.348	-12.85
680.379	22.15
680.409	10.15
680.439	6.15
680.47	7.15
680.5	-3.85
680.531	-4.85
680.561	6.15
680.592	4.15
680.622	11.15
680.652	-11.85
680.683	15.15
680.713	-5.85
680.744	-8.85
680.774	1.15
680.804	13.15
680.835	-12.85
680.865	-22.85
680.896	5.15
680.926	16.15
680.956	7.15
680.987	-3.85
681.017	3.15
681.047	0.15
681.078	-9.85
681.108	0.15
681.139	9.15
681.169	1.15
681.199	-5.85
681.23	5.15
681.26	-4.85
681.29	-4.85
681.321	8.15
681.351	-6.85
681.381	-14.85
681.412	-5.85
681.442	-10.85
681.472	1.15
681.503	9.15
681.533	-2.85
681.563	-4.85
681.594	10.15
681.624	1.15
681.654	-11.85
681.685	1.15
681.715	6.15
681.745	8.15
681.775	-3.85
681.806	9.15
681.836	6.15
681.866	-1.85
681.897	4.15
681.927	-7.85
681.957	-17.85
681.987	10.15
682.018	-4.85
682.048	13.15
682.078	9.15
682.109	23.15
682.139	5.15
682.169	5.15
682.199	1.15
682.23	1.15
682.26	8.15
682.29	-10.85
682.32	0.15
682.351	6.15
682.381	5.15
682.411	8.15
682.441	5.15
682.472	-9.85
682.502	-13.85
682.532	6.15
682.562	1.15
682.592	-8.85
682.623	10.15
682.653	8.15
682.683	8.15
682.713	24.15
682.743	-5.85
682.774	-7.85
682.804	-5.85
682.834	22.15
682.864	4.15
682.894	-1.85
682.925	3.15
682.955	-1.85
682.985	-15.85
683.015	-0.85
683.045	26.15
683.076	-19.85
683.106	-4.85
683.136	4.15
683.166	-9.85
683.196	-2.85
683.226	-9.85
683.257	-2.85
683.287	9.15
683.317	10.15
683.347	-10.85
683.377	-7.85
683.407	11.15
683.437	-3.85
683.468	2.15
683.498	9.15
683.528	16.15
683.558	-8.85
683.588	-7.85
683.618	-8.85
683.648	-22.85
683.678	5.15
683.708	2.15
683.739	-1.85
683.769	-0.85
683.799	8.15
683.829	-2.85
683.859	15.15
683.889	11.15
683.919	6.15
683.949	9.15
683.979	-4.85
684.009	-4.85
684.039	9.15
684.07	17.15
684.1	18.15
684.13	9.15
684.16	-0.85
684.19	13.15
684.22	2.15
684.25	-3.85
684.28	-6.85
684.31	10.15
684.34	15.15
684.37	0.15
684.4	-10.85
684.43	1.15
684.46	12.15
684.49	14.15
684.52	7.15
684.55	19.15
684.58	5.15
684.61	11.15
684.64	19.15
684.67	11.15
684.7	-5.85
684.73	5.15
684.76	0.15
684.79	20.15
684.82	-0.85
684.85	12.15
684.88	14.15
684.91	9.15
684.94	-1.85
684.97	6.15
685	3.15
685.03	-3.85
685.06	2.15
685.09	17.15
685.12	20.15
685.15	-6.85
685.18	2.15
685.21	-2.85
685.24	9.15
685.27	6.15
685.3	9.15
685.33	-0.85
685.36	11.15
685.39	-0.85
685.42	-7.85
685.45	12.15
685.48	10.15
685.51	-14.85
685.54	9.15
685.569	19.15
685.599	18.15
685.629	2.15
685.659	6.15
685.689	1.15
685.719	-1.85
685.749	0.15
685.779	-8.85
685.809	-0.85
685.839	5.15
685.869	-0.85
685.898	4.15
685.928	-8.85
685.958	-6.85
685.988	17.15
686.018	-1.85
686.048	13.15
686.078	7.15
686.108	9.15
686.137	4.15
686.167	15.15
686.197	-5.85
686.227	11.15
686.257	17.15
686.287	13.15
686.317	7.15
686.346	4.15
686.376	-5.85
686.406	-12.85
686.436	18.15
686.466	0.15
686.496	12.15
686.525	0.15
686.555	13.15
686.585	13.15
686.615	20.15
686.645	5.15
686.675	-0.85
686.704	22.15
686.734	21.15
686.764	6.15
686.794	4.15
686.824	-12.85
686.853	23.15
686.883	18.15
686.913	21.15
686.943	-3.85
686.973	4.15
687.002	-0.85
687.032	-1.85
687.062	4.15
687.092	26.15
687.121	8.15
687.151	11.15
687.181	5.15
687.211	14.15
687.24	-2.85
687.27	-6.85
687.3	-1.85
687.33	2.15
687.359	-12.85
687.389	8.15
687.419	10.15
687.449	27.15
687.478	8.15
687.508	12.15
687.538	4.15
687.568	10.15
687.597	-1.85
687.627	8.15
687.657	9.15
687.686	14.15
687.716	22.15
687.746	-4.85
687.776	7.15
687.805	21.15
687.835	5.15
687.865	16.15
687.894	6.15
687.924	0.15
687.954	-3.85
687.983	2.15
688.013	4.15
688.043	9.15
688.072	1.15
688.102	7.15
688.132	-16.85
688.161	-7.85
688.191	6.15
688.221	20.15
688.25	-6.85
688.28	2.15
688.31	-0.85
688.339	-4.85
688.369	-15.85
688.399	-2.85
688.428	-9.85
688.458	-1.85
688.488	-2.85
688.517	12.15
688.547	9.15
688.576	30.15
688.606	20.15
688.636	-5.85
688.665	16.15
688.695	18.15
688.725	18.15
688.754	9.15
688.784	4.15
688.813	19.15
688.843	9.15
688.873	2.15
688.902	-1.85
688.932	-2.85
688.961	5.15
688.991	20.15
689.02	7.15
689.05	8.15
689.08	6.15
689.109	6.15
689.139	7.15
689.168	13.15
689.198	1.15
689.227	7.15
689.257	2.15
689.287	14.15
689.316	21.15
689.346	-15.85
689.375	-4.85
689.405	19.15
689.434	-1.85
689.464	5.15
689.493	8.15
689.523	-1.85
689.552	-14.85
689.582	-12.85
689.611	-16.85
689.641	4.15
689.67	2.15
689.7	8.15
689.73	0.15
689.759	3.15
689.789	21.15
689.818	6.15
689.848	3.15
689.877	15.15
689.906	-2.85
689.936	-13.85
689.965	8.15
689.995	17.15
690.024	16.15
690.054	18.15
690.083	8.15
690.113	12.15
690.142	-8.85
690.172	15.15
690.201	3.15
690.231	2.15
690.26	16.15
690.29	0.15
690.319	15.15
690.348	0.15
690.378	9.15
690.407	7.15
690.437	-4.85
690.466	-1.85
690.496	-0.85
690.525	16.15
690.555	-0.85
690.584	-6.85
690.613	10.15
690.643	14.15
690.672	18.15
690.702	20.15
690.731	19.15
690.76	13.15
690.79	-8.85
690.819	-17.85
690.849	2.15
690.878	-3.85
690.907	-12.85
690.937	25.15
690.966	19.15
690.996	6.15
691.025	3.15
691.054	0.15
691.084	9.15
691.113	10.15
691.142	4.15
691.172	4.15
691.201	14.15
691.23	-4.85
691.26	19.15
691.289	8.15
691.319	20.15
691.348	2.15
691.377	20.15
691.407	-2.85
691.436	6.15
691.465	9.15
691.495	11.15
691.524	0.15
691.553	-1.85
691.583	2.15
691.612	9.15
691.641	2.15
691.67	-9.85
691.7	14.15
691.729	-7.85
691.758	5.15
691.788	7.15
691.817	6.15
691.846	8.15
691.876	13.15
691.905	17.15
691.934	-8.85
691.963	14.15
691.993	-1.85
692.022	-5.85
692.051	14.15
692.081	31.15
692.11	22.15
692.139	10.15
692.168	6.15
692.198	11.15
692.227	-8.85
692.256	10.15
692.285	1.15
692.315	-1.85
692.344	-5.85
692.373	11.15
692.402	5.15
692.432	-0.85
692.461	-5.85
692.49	0.15
692.519	2.15
692.548	14.15
692.578	23.15
692.607	8.15
692.636	-4.85
692.665	6.15
692.694	1.15
692.724	8.15
692.753	11.15
692.782	11.15
692.811	-0.85
692.84	3.15
692.87	5.15
692.899	-5.85
692.928	-5.85
692.957	-5.85
692.986	0.15
693.016	2.15
693.045	13.15
693.074	4.15
693.103	21.15
693.132	9.15
693.161	9.15
693.191	1.15
693.22	0.15
693.249	-4.85
693.278	5.15
693.307	26.15
693.336	-3.85
693.365	-2.85
693.395	-1.85
693.424	-8.85
693.453	10.15
693.482	-12.85
693.511	22.15
693.54	11.15
693.569	19.15
693.598	3.15
693.628	19.15
693.657	22.15
693.686	36.15
693.715	25.15
693.744	20.15
693.773	22.15
693.802	6.15
693.831	1.15
693.86	-0.85
693.889	9.15
693.919	7.15
693.948	-1.85
693.977	19.15
694.006	18.15
694.035	-4.85
694.064	-6.85
694.093	1.15
694.122	2.15
694.151	7.15
694.18	8.15
694.209	19.15
694.238	5.15
694.267	15.15
694.296	9.15
694.325	6.15
694.354	10.15
694.383	8.15
694.412	3.15
694.441	1.15
694.471	-1.85
694.5	-2.85
694.529	-5.85
694.558	22.15
694.587	18.15
694.616	-7.85
694.645	5.15
694.674	15.15
694.703	6.15
694.732	-6.85
694.761	19.15
694.79	11.15
694.819	0.15
694.848	-4.85
694.877	22.15
694.906	15.15
694.935	1.15
694.963	23.15
694.992	3.15
695.021	-3.85
695.05	12.15
695.079	19.15
695.108	22.15
695.137	37.15
695.166	39.15
695.195	-5.85
695.224	0.15
695.253	-2.85
695.282	-10.85
695.311	5.15
695.34	5.15
695.369	5.15
695.398	9.15
695.427	30.15
695.456	5.15
695.485	5.15
695.513	2.15
695.542	9.15
695.571	5.15
695.6	14.15
695.629	8.15
695.658	17.15
695.687	1.15
695.716	0.15
695.745	26.15
695.774	3.15
695.802	20.15
695.831	20.15
695.86	9.15
695.889	11.15
695.918	-5.85
695.947	2.15
695.976	9.15
696.005	10.15
696.033	13.15
696.062	13.15
696.091	19.15
696.12	-1.85
696.149	13.15
696.178	9.15
696.207	8.15
696.235	8.15
696.264	6.15
696.293	2.15
696.322	7.15
696.351	16.15
696.38	7.15
696.408	9.15
696.437	13.15
696.466	5.15
696.495	14.15
696.524	25.15
696.553	18.15
696.581	23.15
696.61	-1.85
696.639	-5.85
696.668	8.15
696.697	9.15
696.725	15.15
696.754	18.15
696.783	3.15
696.812	19.15
696.84	10.15
696.869	0.15
696.898	13.15
696.927	10.15
696.956	39.15
696.984	9.15
697.013	-0.85
697.042	-3.85
697.071	5.15
697.099	18.15
697.128	18.15
697.157	16.15
697.186	18.15
697.214	5.15
697.243	17.15
697.272	8.15
697.301	1.15
697.329	6.15
697.358	18.15
697.387	23.15
697.415	20.15
697.444	13.15
697.473	13.15
697.502	-8.85
697.53	4.15
697.559	6.15
697.588	16.15
697.616	3.15
697.645	7.15
697.674	14.15
697.703	6.15
697.731	5.15
697.76	8.15
697.789	-10.85
697.817	-2.85
697.846	28.15
697.875	14.15
697.903	17.15
697.932	-7.85
697.961	3.15
697.989	7.15
698.018	12.15
698.047	4.15
698.075	18.15
698.104	3.15
698.133	6.15
698.161	-11.85
698.19	-4.85
698.218	-4.85
698.247	5.15
698.276	1.15
698.304	-5.85
698.333	19.15
698.362	16.15
698.39	10.15
698.419	14.15
698.447	5.15
698.476	-5.85
698.505	9.15
698.533	15.15
698.562	26.15
698.591	-8.85
698.619	-15.85
698.648	-5.85
698.676	10.15
698.705	5.15
698.733	11.15
698.762	8.15
698.791	-0.85
698.819	4.15
698.848	-5.85
698.876	8.15
698.905	14.15
698.933	20.15
698.962	6.15
698.991	8.15
699.019	8.15
699.048	-1.85
699.076	-6.85
699.105	-15.85
699.133	4.15
699.162	0.15
699.19	16.15
699.219	25.15
699.248	-5.85
699.276	-7.85
699.305	-6.85
699.333	15.15
699.362	11.15
699.39	7.15
699.419	3.15
699.447	13.15
699.476	8.15
699.504	8.15
699.533	1.15
699.561	-3.85
699.59	-3.85
699.618	-6.85
699.647	3.15
699.675	4.15
699.704	-0.85
699.732	2.15
699.761	8.15
699.789	-2.85
699.818	2.15
699.846	7.15
699.874	-3.85
699.903	3.15
699.931	6.15
699.96	5.15
699.988	27.15
700.017	14.15
700.045	-0.85
700.074	-15.85
700.102	5.15
700.13	-12.85
700.159	12.15
700.187	8.15
700.216	4.15
700.244	-15.85
700.273	-17.85
700.301	-15.85
700.329	8.15
700.358	17.15
700.386	-4.85
700.415	5.15
700.443	-5.85
700.472	0.15
700.5	-0.85
700.528	11.15
700.557	-1.85
700.585	2.15
700.614	-7.85
700.642	13.15
700.67	13.15
700.699	5.15
700.727	4.15
700.755	1.15
700.784	1.15
700.812	18.15
700.841	21.15
700.869	3.15
700.897	-2.85
700.926	-4.85
700.954	21.15
700.982	-1.85
701.011	15.15
701.039	5.15
701.067	-4.85
701.096	7.15
701.124	-0.85
701.152	12.15
701.181	-9.85
701.209	0.15
701.237	-0.85
701.266	-10.85
701.294	-10.85
701.322	9.15
701.351	18.15
701.379	18.15
701.407	-7.85
701.435	16.15
701.464	22.15
701.492	28.15
701.52	-4.85
701.549	1.15
701.577	-21.85
701.605	8.15
701.634	-5.85
701.662	5.15
701.69	-5.85
701.718	1.15
701.747	6.15
701.775	-12.85
701.803	-1.85
701.831	6.15
701.86	-2.85
701.888	-3.85
701.916	6.15
701.944	7.15
701.973	0.15
702.001	-14.85
702.029	-12.85
702.057	-3.85
702.086	-4.85
702.114	0.15
702.142	8.15
702.17	6.15
702.199	-3.85
702.227	2.15
702.255	5.15
702.283	-4.85
702.311	15.15
702.34	-5.85
702.368	12.15
702.396	21.15
702.424	11.15
702.452	6.15
702.481	0.15
702.509	1.15
702.537	6.15
702.565	7.15
702.593	-12.85
702.621	5.15
702.65	7.15
702.678	5.15
702.706	13.15
702.734	-3.85
702.762	4.15
702.79	-1.85
702.819	11.15
702.847	10.15
702.875	10.15
702.903	16.15
702.931	14.15
702.959	6.15
702.988	9.15
703.016	3.15
703.044	13.15
703.072	15.15
703.1	-6.85
703.128	3.15
703.156	3.15
703.184	1.15
703.212	12.15
703.241	3.15
703.269	15.15
703.297	-6.85
703.325	-6.85
703.353	0.15
703.381	-9.85
703.409	5.15
703.437	13.15
703.465	9.15
703.493	-14.85
703.522	-3.85
703.55	16.15
703.578	15.15
703.606	-8.85
703.634	3.15
703.662	-1.85
703.69	2.15
703.718	13.15
703.746	6.15
703.774	1.15
703.802	17.15
703.83	11.15
703.858	8.15
703.886	-9.85
703.914	-2.85
703.942	15.15
703.97	-4.85
703.998	-4.85
704.027	20.15
704.055	21.15
704.083	1.15
704.111	-0.85
704.139	5.15
704.167	-0.85
704.195	15.15
704.223	-7.85
704.251	5.15
704.279	21.15
704.307	-2.85
704.335	-0.85
704.363	14.15
704.391	-7.85
704.419	-12.85
704.447	7.15
704.475	6.15
704.503	-5.85
704.531	25.15
704.558	15.15
704.586	11.15
704.614	-0.85
704.642	7.15
704.67	-10.85
704.698	5.15
704.726	0.15
704.754	-5.85
704.782	7.15
704.81	-10.85
704.838	12.15
704.866	12.15
704.894	-4.85
704.922	-7.85
704.95	3.15
704.978	19.15
705.006	6.15
705.034	10.15
705.061	7.15
705.089	7.15
705.117	-4.85
705.145	2.15
705.173	0.15
705.201	-10.85
705.229	8.15
705.257	-7.85
705.285	3.15
705.313	2.15
705.34	1.15
705.368	20.15
705.396	2.15
705.424	7.15
705.452	9.15
705.48	19.15
705.508	5.15
705.536	1.15
705.563	-4.85
705.591	10.15
705.619	13.15
705.647	-2.85
705.675	0.15
705.703	3.15
705.731	5.15
705.758	8.15
705.786	12.15
705.814	22.15
705.842	-9.85
705.87	18.15
705.898	21.15
705.925	-12.85
705.953	2.15
705.981	-1.85
706.009	8.15
706.037	13.15
706.065	-0.85
706.092	-0.85
706.12	13.15
706.148	0.15
706.176	10.15
706.204	17.15
706.231	11.15
706.259	1.15
706.287	1.15
706.315	13.15
706.342	5.15
706.37	9.15
706.398	10.15
706.426	-3.85
706.454	-3.85
706.481	9.15
706.509	8.15
706.537	1.15
706.565	-8.85
706.592	10.15
706.62	3.15
706.648	22.15
706.676	-9.85
706.703	7.15
706.731	0.15
706.759	10.15
706.787	7.15
706.814	-3.85
706.842	-2.85
706.87	10.15
706.897	2.15
706.925	3.15
706.953	18.15
706.981	14.15
707.008	8.15
707.036	14.15
707.064	3.15
707.091	-9.85
707.119	13.15
707.147	7.15
707.174	-2.85
707.202	27.15
707.23	6.15
707.258	-1.85
707.285	-10.85
707.313	6.15
707.341	-2.85
707.368	3.15
707.396	11.15
707.424	13.15
707.451	13.15
707.479	12.15
707.507	7.15
707.534	-5.85
707.562	11.15
707.59	1.15
707.617	-9.85
707.645	-0.85
707.672	5.15
707.7	10.15
707.728	12.15
707.755	19.15
707.783	3.15
707.811	1.15
707.838	3.15
707.866	-1.85
707.893	5.15
707.921	-5.85
707.949	-6.85
707.976	8.15
708.004	-1.85
708.031	4.15
708.059	1.15
708.087	4.15
708.114	-0.85
708.142	-2.85
708.169	1.15
708.197	1.15
708.225	3.15
708.252	-6.85
708.28	0.15
708.307	8.15
708.335	5.15
708.362	0.15
708.39	-3.85
708.418	-2.85
708.445	2.15
708.473	-4.85
708.5	1.15
708.528	15.15
708.555	13.15
708.583	-1.85
708.61	-18.85
708.638	-8.85
708.665	-9.85
708.693	5.15
708.72	2.15
708.748	-0.85
708.776	-10.85
708.803	5.15
708.831	16.15
708.858	22.15
708.886	1.15
708.913	6.15
708.941	6.15
708.968	15.15
708.996	-1.85
709.023	12.15
709.051	-10.85
709.078	5.15
709.105	1.15
709.133	7.15
709.16	-2.85
709.188	5.15
709.215	-0.85
709.243	1.15
709.27	0.15
709.298	8.15
709.325	-8.85
709.353	-6.85
709.38	22.15
709.408	25.15
709.435	9.15
709.462	-9.85
709.49	13.15
709.517	1.15
709.545	-3.85
709.572	-6.85
709.6	-4.85
709.627	-2.85
709.655	-5.85
709.682	8.15
709.709	11.15
709.737	8.15
709.764	-5.85
709.792	3.15
709.819	-6.85
709.846	1.15
709.874	16.15
709.901	11.15
709.929	25.15
709.956	20.15
709.983	-6.85
710.011	-6.85
710.038	-0.85
710.066	7.15
710.093	4.15
710.12	2.15
710.148	-1.85
710.175	-2.85
710.202	-9.85
710.23	15.15
710.257	15.15
710.284	2.15
710.312	2.15
710.339	-0.85
710.366	-7.85
710.394	-5.85
710.421	9.15
710.448	6.15
710.476	-10.85
710.503	10.15
710.53	12.15
710.558	26.15
710.585	16.15
710.612	-2.85
710.64	-5.85
710.667	15.15
710.694	-5.85
710.722	1.15
710.749	-0.85
710.776	6.15
710.804	15.15
710.831	-5.85
710.858	-1.85
710.885	9.15
710.913	-2.85
710.94	10.15
710.967	10.15
710.995	17.15
711.022	-2.85
711.049	14.15
711.076	2.15
711.104	5.15
711.131	1.15
711.158	-8.85
711.185	-0.85
711.213	-16.85
711.24	2.15
711.267	-11.85
711.294	-2.85
711.322	15.15
711.349	6.15
711.376	-1.85
711.403	-3.85
711.431	0.15
711.458	2.15
711.485	12.15
711.512	9.15
711.54	-4.85
711.567	1.15
711.594	-1.85
711.621	13.15
711.648	9.15
711.676	9.15
711.703	5.15
711.73	-14.85
711.757	-1.85
711.784	0.15
711.812	1.15
711.839	7.15
711.866	-12.85
711.893	-10.85
711.92	17.15
711.947	-1.85
711.975	18.15
712.002	-10.85
712.029	18.15
712.056	-2.85
712.083	11.15
712.11	-25.85
712.138	6.15
712.165	7.15
712.192	1.15
712.219	-22.85
712.246	1.15
712.273	-9.85
712.3	-1.85
712.328	12.15
712.355	10.15
712.382	-12.85
712.409	10.15
712.436	0.15
712.463	6.15
712.49	-0.85
712.517	2.15
712.544	3.15
712.572	1.15
712.599	-14.85
712.626	1.15
712.653	-5.85
712.68	-10.85
712.707	10.15
712.734	5.15
712.761	6.15
712.788	13.15
712.815	12.15
712.842	9.15
712.87	6.15
712.897	2.15
712.924	6.15
712.951	7.15
712.978	12.15
713.005	10.15
713.032	15.15
713.059	-15.85
713.086	-9.85
713.113	-12.85
713.14	3.15
713.167	12.15
713.194	11.15
713.221	10.15
713.248	3.15
713.275	0.15
713.302	-4.85
713.329	11.15
713.356	10.15
713.383	13.15
713.41	19.15
713.437	-10.85
713.464	-3.85
713.491	-2.85
713.518	-2.85
713.545	6.15
713.572	19.15
713.599	9.15
713.626	-1.85
713.653	11.15
713.68	2.15
713.707	1.15
713.734	-2.85
713.761	3.15
713.788	13.15
713.815	0.15
713.842	5.15
713.869	6.15
713.896	0.15
713.923	-0.85
713.95	-1.85
713.977	-0.85
714.004	-4.85
714.031	0.15
714.058	2.15
714.085	-1.85
714.112	-1.85
714.139	2.15
714.165	2.15
714.192	-10.85
714.219	3.15
714.246	9.15
714.273	2.15
714.3	13.15
714.327	6.15
714.354	7.15
714.381	-0.85
714.408	2.15
714.435	11.15
714.461	-6.85
714.488	19.15
714.515	-0.85
714.542	-13.85
714.569	-10.85
714.596	1.15
714.623	4.15
714.65	-4.85
714.677	0.15
714.703	1.15
714.73	8.15
714.757	8.15
714.784	5.15
714.811	-1.85
714.838	8.15
714.865	-3.85
714.891	1.15
714.918	-8.85
714.945	-6.85
714.972	-5.85
714.999	17.15
715.026	-6.85
715.052	13.15
715.079	2.15
715.106	-5.85
715.133	-6.85
715.16	-16.85
715.187	8.15
715.213	6.15
715.24	-7.85
715.267	-0.85
715.294	10.15
715.321	4.15
715.347	1.15
715.374	-10.85
715.401	-5.85
715.428	7.15
715.455	2.15
715.481	0.15
715.508	19.15
715.535	2.15
715.562	34.15
715.588	2.15
715.615	5.15
715.642	4.15
715.669	9.15
715.695	-2.85
715.722	-0.85
715.749	17.15
715.776	28.15
715.802	8.15
715.829	28.15
715.856	8.15
715.883	21.15
715.909	-4.85
715.936	-1.85
715.963	-1.85
715.99	-1.85
716.016	1.15
716.043	5.15
716.07	7.15
716.096	-4.85
716.123	2.15
716.15	-4.85
716.177	3.15
716.203	3.15
716.23	9.15
716.257	3.15
716.283	17.15
716.31	1.15
716.337	4.15
716.363	-6.85
716.39	4.15
716.417	21.15
716.443	11.15
716.47	8.15
716.497	22.15
716.523	9.15
716.55	8.15
716.577	11.15
716.603	9.15
716.63	-0.85
716.657	21.15
716.683	3.15
716.71	2.15
716.737	7.15
716.763	8.15
716.79	6.15
716.817	14.15
716.843	10.15
716.87	-21.85
716.897	10.15
716.923	11.15
716.95	-1.85
716.976	-3.85
717.003	10.15
717.03	21.15
717.056	17.15
717.083	13.15
717.109	-12.85
717.136	2.15
717.163	-1.85
717.189	12.15
717.216	8.15
717.242	1.15
717.269	-0.85
717.296	18.15
717.322	8.15
717.349	13.15
717.375	4.15
717.402	-8.85
717.428	-0.85
717.455	14.15
717.481	2.15
717.508	16.15
717.535	6.15
717.561	-1.85
717.588	5.15
717.614	-2.85
717.641	9.15
717.667	-13.85
717.694	7.15
717.72	6.15
717.747	12.15
717.773	-8.85
717.8	11.15
717.826	7.15
717.853	16.15
717.88	10.15
717.906	2.15
717.933	0.15
717.959	1.15
717.986	0.15
718.012	-6.85
718.039	15.15
718.065	9.15
718.092	8.15
718.118	11.15
718.144	3.15
718.171	13.15
718.197	19.15
718.224	4.15
718.25	10.15
718.277	13.15
718.303	-0.85
718.33	-8.85
718.356	-21.85
718.383	-6.85
718.409	10.15
718.436	22.15
718.462	-6.85
718.489	-2.85
718.515	15.15
718.541	5.15
718.568	16.15
718.594	-10.85
718.621	-0.85
718.647	15.15
718.674	17.15
718.7	5.15
718.726	10.15
718.753	13.15
718.779	15.15
718.806	1.15
718.832	4.15
718.858	18.15
718.885	3.15
718.911	0.15
718.938	15.15
718.964	0.15
718.99	14.15
719.017	-0.85
719.043	6.15
719.07	17.15
719.096	-7.85
719.122	4.15
719.149	11.15
719.175	14.15
719.201	3.15
719.228	15.15
719.254	9.15
719.281	-1.85
719.307	-0.85
719.333	-0.85
719.36	15.15
719.386	14.15
719.412	14.15
719.439	7.15
719.465	17.15
719.491	2.15
719.518	14.15
719.544	10.15
719.57	15.15
719.597	14.15
719.623	-4.85
719.649	6.15
719.675	17.15
719.702	6.15
719.728	13.15
719.754	-0.85
719.781	-1.85
719.807	7.15
719.833	-8.85
719.86	-4.85
719.886	-0.85
719.912	11.15
719.938	1.15
719.965	17.15
719.991	23.15
720.017	0.15
720.044	6.15
720.07	4.15
720.096	7.15
720.122	-3.85
720.149	4.15
720.175	15.15
720.201	3.15
720.227	3.15
720.254	8.15
720.28	-4.85
720.306	-0.85
720.332	-9.85
720.359	1.15
720.385	17.15
720.411	11.15
720.437	0.15
720.463	9.15
720.49	-3.85
720.516	-3.85
720.542	2.15
720.568	-3.85
720.595	10.15
720.621	0.15
720.647	16.15
720.673	12.15
720.699	1.15
720.725	25.15
720.752	4.15
720.778	28.15
720.804	13.15
720.83	12.15
720.856	-13.85
720.883	-12.85
720.909	7.15
720.935	5.15
720.961	14.15
720.987	2.15
721.013	11.15
721.04	3.15
721.066	-1.85
721.092	-5.85
721.118	16.15
721.144	-5.85
721.17	1.15
721.196	-5.85
721.223	-12.85
721.249	7.15
721.275	11.15
721.301	11.15
721.327	7.15
721.353	11.15
721.379	7.15
721.405	3.15
721.432	20.15
721.458	1.15
721.484	-0.85
721.51	-9.85
721.536	7.15
721.562	1.15
721.588	1.15
721.614	-0.85
721.64	11.15
721.666	4.15
721.693	-2.85
721.719	0.15
721.745	-3.85
721.771	-9.85
721.797	8.15
721.823	10.15
721.849	34.15
721.875	19.15
721.901	11.15
721.927	-2.85
721.953	3.15
721.979	10.15
722.005	14.15
722.031	1.15
722.057	25.15
722.083	9.15
722.109	-2.85
722.135	7.15
722.161	3.15
722.187	-3.85
722.214	-13.85
722.24	-9.85
722.266	0.15
722.292	24.15
722.318	18.15
722.344	19.15
722.37	25.15
722.396	13.15
722.422	9.15
722.448	-8.85
722.474	-4.85
722.5	19.15
722.526	6.15
722.552	9.15
722.578	5.15
722.603	27.15
722.629	-1.85
722.655	-2.85
722.681	-13.85
722.707	-14.85
722.733	-2.85
722.759	1.15
722.785	6.15
722.811	2.15
722.837	7.15
722.863	15.15
722.889	10.15
722.915	15.15
722.941	3.15
722.967	2.15
722.993	-8.85
723.019	17.15
723.045	-1.85
723.071	1.15
723.097	9.15
723.122	18.15
723.148	-6.85
723.174	5.15
723.2	2.15
723.226	3.15
723.252	-1.85
723.278	1.15
723.304	11.15
723.33	5.15
723.356	-1.85
723.381	-0.85
723.407	-14.85
723.433	7.15
723.459	-14.85
723.485	-1.85
723.511	19.15
723.537	6.15
723.563	5.15
723.588	20.15
723.614	21.15
723.64	6.15
723.666	0.15
723.692	6.15
723.718	-1.85
723.744	-3.85
723.769	-1.85
723.795	2.15
723.821	14.15
723.847	-2.85
723.873	25.15
723.899	1.15
723.924	-4.85
723.95	10.15
723.976	3.15
724.002	-0.85
724.028	6.15
724.053	-0.85
724.079	-1.85
724.105	5.15
724.131	-10.85
724.157	2.15
724.182	2.15
724.208	4.15
724.234	3.15
724.26	14.15
724.286	11.15
724.311	4.15
724.337	-17.85
724.363	-3.85
724.389	-4.85
724.415	7.15
724.44	25.15
724.466	8.15
724.492	3.15
724.518	1.15
724.543	-6.85
724.569	2.15
724.595	-5.85
724.621	-19.85
724.646	-9.85
724.672	1.15
724.698	-4.85
724.723	-5.85
724.749	-1.85
724.775	-4.85
724.801	31.15
724.826	-0.85
724.852	6.15
724.878	-2.85
724.904	-4.85
724.929	13.15
724.955	1.15
724.981	-1.85
725.006	6.15
725.032	12.15
725.058	6.15
725.083	2.15
725.109	-2.85
725.135	2.15
725.161	2.15
725.186	-0.85
725.212	-2.85
725.238	9.15
725.263	-5.85
725.289	-3.85
725.315	-6.85
725.34	-1.85
725.366	26.15
725.392	5.15
725.417	13.15
725.443	5.15
725.468	17.15
725.494	14.15
725.52	10.15
725.545	-3.85
725.571	-2.85
725.597	-14.85
725.622	-9.85
725.648	1.15
725.674	8.15
725.699	-17.85
725.725	2.15
725.75	21.15
725.776	4.15
725.802	14.15
725.827	7.15
725.853	4.15
725.878	12.15
725.904	-3.85
725.93	0.15
725.955	1.15
725.981	2.15
726.006	0.15
726.032	10.15
726.057	1.15
726.083	-8.85
726.109	-2.85
726.134	7.15
726.16	-2.85
726.185	8.15
726.211	-1.85
726.236	16.15
726.262	8.15
726.288	13.15
726.313	25.15
726.339	10.15
726.364	12.15
726.39	-1.85
726.415	5.15
726.441	4.15
726.466	3.15
726.492	2.15
726.517	7.15
726.543	6.15
726.568	-10.85
726.594	6.15
726.619	6.15
726.645	8.15
726.67	1.15
726.696	9.15
726.721	-0.85
726.747	3.15
726.772	4.15
726.798	7.15
726.823	5.15
726.849	5.15
726.874	14.15
726.9	22.15
726.925	11.15
726.951	5.15
726.976	9.15
727.002	-5.85
727.027	10.15
727.053	0.15
727.078	8.15
727.104	6.15
727.129	-4.85
727.155	-10.85
727.18	17.15
727.205	-8.85
727.231	-1.85
727.256	-0.85
727.282	13.15
727.307	15.15
727.333	13.15
727.358	-0.85
727.383	2.15
727.409	-13.85
727.434	9.15
727.46	13.15
727.485	21.15
727.511	9.15
727.536	-9.85
727.561	1.15
727.587	-10.85
727.612	8.15
727.637	28.15
727.663	-2.85
727.688	16.15
727.714	6.15
727.739	0.15
727.764	-9.85
727.79	13.15
727.815	3.15
727.841	20.15
727.866	27.15
727.891	2.15
727.917	-4.85
727.942	-7.85
727.967	-1.85
727.993	-13.85
728.018	-1.85
728.043	12.15
728.069	10.15
728.094	15.15
728.119	1.15
728.145	8.15
728.17	7.15
728.195	16.15
728.221	4.15
728.246	7.15
728.271	1.15
728.297	8.15
728.322	8.15
728.347	26.15
728.373	5.15
728.398	13.15
728.423	-6.85
728.448	7.15
728.474	3.15
728.499	10.15
728.524	7.15
728.55	4.15
728.575	7.15
728.6	2.15
728.625	-9.85
728.651	3.15
728.676	-3.85
728.701	-0.85
728.727	6.15
728.752	-13.85
728.777	-12.85
728.802	0.15
728.828	12.15
728.853	1.15
728.878	1.15
728.903	2.15
728.929	10.15
728.954	2.15
728.979	15.15
729.004	-2.85
729.03	-6.85
729.055	10.15
729.08	3.15
729.105	-0.85
729.13	16.15
729.156	15.15
729.181	-14.85
729.206	-8.85
729.231	-4.85
729.256	18.15
729.282	3.15
729.307	-4.85
729.332	0.15
729.357	-14.85
729.382	-7.85
729.408	-13.85
729.433	8.15
729.458	8.15
729.483	11.15
729.508	17.15
729.533	1.15
729.559	-2.85
729.584	-6.85
729.609	10.15
729.634	18.15
729.659	-3.85
729.684	-10.85
729.71	30.15
729.735	10.15
729.76	-5.85
729.785	-0.85
729.81	2.15
729.835	-9.85
729.86	20.15
729.886	15.15
729.911	12.15
729.936	-9.85
729.961	22.15
729.986	0.15
730.011	11.15
730.036	0.15
730.061	-9.85
730.086	2.15
730.112	13.15
730.137	16.15
730.162	9.15
730.187	-2.85
730.212	14.15
730.237	6.15
730.262	7.15
730.287	12.15
730.312	14.15
730.337	7.15
730.362	0.15
730.387	2.15
730.413	0.15
730.438	-1.85
730.463	-6.85
730.488	-0.85
730.513	-2.85
730.538	6.15
730.563	13.15
730.588	19.15
730.613	16.15
730.638	2.15
730.663	3.15
730.688	28.15
730.713	14.15
730.738	-6.85
730.763	-0.85
730.788	-13.85
730.813	12.15
730.838	21.15
730.863	5.15
730.888	-1.85
730.913	-12.85
730.938	-24.85
730.963	-2.85
730.988	7.15
731.013	19.15
731.038	0.15
731.063	-9.85
731.088	0.15
731.113	-6.85
731.138	-1.85
731.163	2.15
731.188	-22.85
731.213	9.15
731.238	14.15
731.263	2.15
731.288	2.15
731.313	8.15
731.338	7.15
731.363	1.15
731.388	15.15
731.413	-2.85
731.438	17.15
731.463	4.15
731.487	12.15
731.512	-0.85
731.537	10.15
731.562	4.15
731.587	11.15
731.612	5.15
731.637	0.15
731.662	14.15
731.687	-0.85
731.712	-22.85
731.737	22.15
731.762	8.15
731.786	12.15
731.811	-0.85
731.836	0.15
731.861	5.15
731.886	7.15
731.911	29.15
731.936	26.15
731.961	-4.85
731.986	7.15
732.01	3.15
732.035	12.15
732.06	11.15
732.085	-7.85
732.11	1.15
732.135	2.15
732.16	10.15
732.184	4.15
732.209	-6.85
732.234	21.15
732.259	15.15
732.284	10.15
732.309	-10.85
732.334	5.15
732.358	10.15
732.383	-2.85
732.408	0.15
732.433	-2.85
732.458	-6.85
732.482	2.15
732.507	1.15
732.532	-0.85
732.557	6.15
732.582	-2.85
732.607	-0.85
732.631	-14.85
732.656	-1.85
732.681	14.15
732.706	14.15
732.73	-5.85
732.755	3.15
732.78	2.15
732.805	7.15
732.83	-14.85
732.854	3.15
732.879	17.15
732.904	7.15
732.929	11.15
732.953	6.15
732.978	-4.85
733.003	-6.85
733.028	-17.85
733.052	15.15
733.077	5.15
733.102	19.15
733.127	-0.85
733.151	-3.85
733.176	5.15
733.201	-7.85
733.226	-4.85
733.25	17.15
733.275	7.15
733.3	12.15
733.324	10.15
733.349	11.15
733.374	21.15
733.399	7.15
733.423	5.15
733.448	18.15
733.473	4.15
733.497	2.15
733.522	-17.85
733.547	40.15
733.571	16.15
733.596	5.15
733.621	14.15
733.646	4.15
733.67	7.15
733.695	13.15
733.72	12.15
733.744	8.15
733.769	2.15
733.794	11.15
733.818	5.15
733.843	-6.85
733.867	-2.85
733.892	3.15
733.917	-5.85
733.941	0.15
733.966	0.15
733.991	-4.85
734.015	9.15
734.04	10.15
734.065	17.15
734.089	28.15
734.114	-7.85
734.138	20.15
734.163	1.15
734.188	2.15
734.212	15.15
734.237	6.15
734.261	11.15
734.286	10.15
734.311	15.15
734.335	9.15
734.36	-6.85
734.384	0.15
734.409	3.15
734.434	-5.85
734.458	4.15
734.483	-3.85
734.507	4.15
734.532	9.15
734.556	13.15
734.581	6.15
734.606	7.15
734.63	3.15
734.655	0.15
734.679	17.15
734.704	-8.85
734.728	6.15
734.753	-5.85
734.777	19.15
734.802	8.15
734.826	11.15
734.851	-1.85
734.876	14.15
734.9	19.15
734.925	3.15
734.949	11.15
734.974	6.15
734.998	6.15
735.023	-2.85
735.047	-4.85
735.072	23.15
735.096	19.15
735.121	3.15
735.145	4.15
735.17	7.15
735.194	6.15
735.219	-4.85
735.243	5.15
735.268	0.15
735.292	13.15
735.317	6.15
735.341	-1.85
735.365	-3.85
735.39	12.15
735.414	10.15
735.439	3.15
735.463	2.15
735.488	11.15
735.512	9.15
735.537	5.15
735.561	1.15
735.586	3.15
735.61	9.15
735.634	0.15
735.659	5.15
735.683	14.15
735.708	-1.85
735.732	16.15
735.757	-0.85
735.781	21.15
735.805	10.15
735.83	2.15
735.854	12.15
735.879	1.15
735.903	20.15
735.927	14.15
735.952	6.15
735.976	2.15
736.001	9.15
736.025	-2.85
736.049	6.15
736.074	-3.85
736.098	2.15
736.123	12.15
736.147	10.15
736.171	2.15
736.196	0.15
736.22	-2.85
736.244	7.15
736.269	-9.85
736.293	19.15
736.317	10.15
736.342	-3.85
736.366	12.15
736.39	16.15
736.415	2.15
736.439	14.15
736.463	8.15
736.488	14.15
736.512	4.15
736.536	13.15
736.561	23.15
736.585	-2.85
736.609	17.15
736.634	-3.85
736.658	1.15
736.682	-4.85
736.707	6.15
736.731	1.15
736.755	-9.85
736.78	10.15
736.804	18.15
736.828	15.15
736.852	2.15
736.877	3.15
736.901	5.15
736.925	11.15
736.949	17.15
736.974	-5.85
736.998	-9.85
737.022	2.15
737.047	0.15
737.071	-0.85
737.095	18.15
737.119	30.15
737.144	-4.85
737.168	-2.85
737.192	12.15
737.216	12.15
737.241	-0.85
737.265	6.15
737.289	6.15
737.313	0.15
737.337	24.15
737.362	-2.85
737.386	-7.85
737.41	-6.85
737.434	12.15
737.459	-0.85
737.483	25.15
737.507	19.15
737.531	17.15
737.555	7.15
737.58	8.15
737.604	16.15
737.628	-5.85
737.652	-10.85
737.676	12.15
737.701	10.15
737.725	3.15
737.749	12.15
737.773	-13.85
737.797	-10.85
737.821	9.15
737.846	25.15
737.87	21.15
737.894	14.15
737.918	14.15
737.942	-0.85
737.966	11.15
737.99	17.15
738.015	-0.85
738.039	1.15
738.063	-4.85
738.087	35.15
738.111	6.15
738.135	16.15
738.159	-6.85
738.184	-0.85
738.208	-1.85
738.232	25.15
738.256	30.15
738.28	6.15
738.304	15.15
738.328	-0.85
738.352	5.15
738.376	2.15
738.4	18.15
738.425	1.15
738.449	-0.85
738.473	25.15
738.497	-2.85
738.521	-0.85
738.545	0.15
738.569	-8.85
738.593	30.15
738.617	9.15
738.641	3.15
738.665	-4.85
738.689	-3.85
738.713	2.15
738.737	13.15
738.762	22.15
738.786	1.15
738.81	-12.85
738.834	11.15
738.858	0.15
738.882	-0.85
738.906	-1.85
738.93	11.15
738.954	5.15
738.978	2.15
739.002	2.15
739.026	22.15
739.05	5.15
739.074	8.15
739.098	21.15
739.122	11.15
739.146	7.15
739.17	23.15
739.194	20.15
739.218	3.15
739.242	-2.85
739.266	3.15
739.29	5.15
739.314	7.15
739.338	10.15
739.362	10.15
739.386	12.15
739.41	-3.85
739.434	5.15
739.458	12.15
739.482	-1.85
739.506	13.15
739.53	9.15
739.554	12.15
739.577	-10.85
739.601	12.15
739.625	-2.85
739.649	2.15
739.673	-13.85
739.697	8.15
739.721	4.15
739.745	9.15
739.769	15.15
739.793	21.15
739.817	9.15
739.841	-2.85
739.865	-5.85
739.889	-0.85
739.912	12.15
739.936	0.15
739.96	8.15
739.984	19.15
740.008	14.15
740.032	0.15
740.056	9.15
740.08	-2.85
740.104	-5.85
740.127	4.15
740.151	1.15
740.175	8.15
740.199	20.15
740.223	49.15
740.247	14.15
740.271	3.15
740.295	-14.85
740.318	-7.85
740.342	-1.85
740.366	6.15
740.39	25.15
740.414	2.15
740.438	0.15
740.461	16.15
740.485	14.15
740.509	-1.85
740.533	12.15
740.557	0.15
740.581	-12.85
740.604	-21.85
740.628	-0.85
740.652	0.15
740.676	8.15
740.7	26.15
740.723	8.15
740.747	-0.85
740.771	-1.85
740.795	-9.85
740.819	-8.85
740.842	6.15
740.866	10.15
740.89	12.15
740.914	2.15
740.938	-7.85
740.961	8.15
740.985	-3.85
741.009	0.15
741.033	6.15
741.056	3.15
741.08	7.15
741.104	2.15
741.128	-6.85
741.151	11.15
741.175	-4.85
741.199	-2.85
741.223	7.15
741.246	-10.85
741.27	1.15
741.294	22.15
741.318	-10.85
741.341	-2.85
741.365	18.15
741.389	10.15
741.413	23.15
741.436	17.15
741.46	2.15
741.484	16.15
741.507	11.15
741.531	22.15
741.555	18.15
741.579	2.15
741.602	3.15
741.626	15.15
741.65	2.15
741.673	5.15
741.697	23.15
741.721	9.15
741.744	3.15
741.768	-5.85
741.792	1.15
741.815	7.15
741.839	20.15
741.863	26.15
741.886	11.15
741.91	12.15
741.934	-2.85
741.957	-1.85
741.981	11.15
742.005	8.15
742.028	-5.85
742.052	1.15
742.075	16.15
742.099	11.15
742.123	3.15
742.146	-0.85
742.17	5.15
742.194	-9.85
742.217	-2.85
742.241	1.15
742.264	-2.85
742.288	22.15
742.312	17.15
742.335	2.15
742.359	8.15
742.382	14.15
742.406	18.15
742.43	3.15
742.453	17.15
742.477	-3.85
742.5	-6.85
742.524	0.15
742.548	-13.85
742.571	-13.85
742.595	-1.85
742.618	1.15
742.642	-11.85
742.665	6.15
742.689	-5.85
742.712	15.15
742.736	3.15
742.76	4.15
742.783	7.15
742.807	20.15
742.83	25.15
742.854	-1.85
742.877	-1.85
742.901	8.15
742.924	-8.85
742.948	10.15
742.971	1.15
742.995	5.15
743.018	-5.85
743.042	-4.85
743.065	-2.85
743.089	-0.85
743.112	28.15
743.136	8.15
743.159	7.15
743.183	-6.85
743.206	12.15
743.23	7.15
743.253	7.15
743.277	11.15
743.3	-1.85
743.324	2.15
743.347	-10.85
743.371	12.15
743.394	14.15
743.418	10.15
743.441	3.15
743.465	10.15
743.488	2.15
743.512	-13.85
743.535	-3.85
743.558	-2.85
743.582	4.15
743.605	1.15
743.629	13.15
743.652	18.15
743.676	15.15
743.699	16.15
743.723	10.15
743.746	11.15
743.769	8.15
743.793	5.15
743.816	10.15
743.84	8.15
743.863	-7.85
743.886	-2.85
743.91	8.15
743.933	3.15
743.957	11.15
743.98	5.15
744.003	11.15
744.027	7.15
744.05	0.15
744.074	9.15
744.097	0.15
744.12	-5.85
744.144	5.15
744.167	11.15
744.19	4.15
744.214	3.15
744.237	-10.85
744.26	6.15
744.284	1.15
744.307	-5.85
744.331	10.15
744.354	-13.85
744.377	-12.85
744.401	2.15
744.424	-4.85
744.447	-8.85
744.471	-5.85
