Data from HighRes_H2D2_15_04_11_07_2024_HR4C61891__68__15-05-41-243.txt Node

Date: Thu Nov 07 15:05:41 EST 2024
User: crc00042
Spectrometer: HR4C6189
Trigger mode: 4
Integration Time (sec): 1.000000E-1
Scans to average: 1
Electric dark correction enabled: true
Nonlinearity correction enabled: false
Boxcar width: 0
XAxis mode: Wavelengths
Number of Pixels in Spectrum: 3648
>>>>>Begin Spectral Data<<<<<
639.567	-32.54
639.602	-32.54
639.636	-32.54
639.67	-49.54
639.704	-14.54
639.738	4.46
639.773	3.46
639.807	-21.54
639.841	2.46
639.875	18.46
639.909	-0.54
639.943	-19.54
639.978	5.46
640.012	11.46
640.046	20.46
640.08	3.46
640.114	-7.54
640.148	-20.54
640.182	0.46
640.217	-20.54
640.251	12.46
640.285	-3.54
640.319	-14.54
640.353	-9.54
640.387	-12.54
640.421	-15.54
640.455	-4.54
640.49	-3.54
640.524	-10.54
640.558	0.46
640.592	12.46
640.626	1.46
640.66	15.46
640.694	-16.54
640.728	-3.54
640.762	-4.54
640.796	32.46
640.83	23.46
640.865	-10.54
640.899	-3.54
640.933	3.46
640.967	-2.54
641.001	17.46
641.035	2.46
641.069	6.46
641.103	-19.54
641.137	-12.54
641.171	-0.54
641.205	5.46
641.239	7.46
641.273	27.46
641.307	5.46
641.341	6.46
641.375	-15.54
641.409	-4.54
641.443	-6.54
641.477	10.46
641.511	10.46
641.545	-0.54
641.579	-16.54
641.614	-6.54
641.648	0.46
641.682	-5.54
641.716	14.46
641.75	9.46
641.784	-0.54
641.818	-14.54
641.852	11.46
641.886	-1.54
641.919	32.46
641.953	3.46
641.987	-18.54
642.021	-9.54
642.055	1.46
642.089	2.46
642.123	-19.54
642.157	-11.54
642.191	4.46
642.225	10.46
642.259	-8.54
642.293	12.46
642.327	-11.54
642.361	6.46
642.395	5.46
642.429	5.46
642.463	11.46
642.497	27.46
642.531	18.46
642.565	-9.54
642.599	8.46
642.633	-10.54
642.666	-2.54
642.7	15.46
642.734	5.46
642.768	-9.54
642.802	-8.54
642.836	3.46
642.87	-7.54
642.904	5.46
642.938	5.46
642.972	15.46
643.005	3.46
643.039	24.46
643.073	7.46
643.107	0.46
643.141	-18.54
643.175	10.46
643.209	-5.54
643.243	-8.54
643.276	-7.54
643.31	15.46
643.344	-15.54
643.378	-3.54
643.412	17.46
643.446	11.46
643.48	-11.54
643.513	-0.54
643.547	-0.54
643.581	-7.54
643.615	3.46
643.649	-7.54
643.683	-15.54
643.716	-0.54
643.75	6.46
643.784	-8.54
643.818	-2.54
643.852	10.46
643.886	1.46
643.919	-5.54
643.953	0.46
643.987	-4.54
644.021	5.46
644.055	18.46
644.088	-1.54
644.122	-21.54
644.156	-6.54
644.19	-4.54
644.224	4.46
644.257	9.46
644.291	15.46
644.325	13.46
644.359	-0.54
644.392	16.46
644.426	18.46
644.46	-0.54
644.494	3.46
644.527	1.46
644.561	6.46
644.595	9.46
644.629	-15.54
644.662	-7.54
644.696	-2.54
644.73	-2.54
644.764	1.46
644.797	2.46
644.831	-1.54
644.865	-2.54
644.899	6.46
644.932	17.46
644.966	-4.54
645	8.46
645.033	15.46
645.067	-7.54
645.101	0.46
645.135	-7.54
645.168	-12.54
645.202	-13.54
645.236	-6.54
645.269	9.46
645.303	3.46
645.337	-7.54
645.37	-1.54
645.404	-6.54
645.438	4.46
645.471	6.46
645.505	6.46
645.539	-9.54
645.572	-12.54
645.606	-10.54
645.64	-11.54
645.673	-8.54
645.707	8.46
645.741	-11.54
645.774	-11.54
645.808	15.46
645.842	-8.54
645.875	0.46
645.909	-9.54
645.943	-19.54
645.976	-0.54
646.01	-2.54
646.043	-7.54
646.077	-9.54
646.111	-6.54
646.144	-5.54
646.178	3.46
646.212	-20.54
646.245	-12.54
646.279	0.46
646.312	-5.54
646.346	10.46
646.38	-1.54
646.413	13.46
646.447	11.46
646.48	8.46
646.514	7.46
646.547	-6.54
646.581	1.46
646.615	8.46
646.648	-0.54
646.682	-5.54
646.715	-12.54
646.749	-6.54
646.782	3.46
646.816	-0.54
646.85	0.46
646.883	-7.54
646.917	-6.54
646.95	-5.54
646.984	7.46
647.017	-7.54
647.051	-22.54
647.084	-4.54
647.118	-2.54
647.151	-1.54
647.185	5.46
647.218	-15.54
647.252	-13.54
647.285	-5.54
647.319	-7.54
647.353	-4.54
647.386	2.46
647.42	6.46
647.453	-6.54
647.487	4.46
647.52	-4.54
647.553	20.46
647.587	-7.54
647.62	-7.54
647.654	1.46
647.687	-5.54
647.721	11.46
647.754	5.46
647.788	3.46
647.821	1.46
647.855	12.46
647.888	6.46
647.922	9.46
647.955	11.46
647.989	-5.54
648.022	1.46
648.055	27.46
648.089	-4.54
648.122	23.46
648.156	-2.54
648.189	-4.54
648.223	4.46
648.256	18.46
648.29	6.46
648.323	-1.54
648.356	-1.54
648.39	23.46
648.423	-13.54
648.457	-0.54
648.49	-10.54
648.523	6.46
648.557	21.46
648.59	-1.54
648.624	0.46
648.657	-3.54
648.69	8.46
648.724	-3.54
648.757	5.46
648.791	2.46
648.824	9.46
648.857	1.46
648.891	-6.54
648.924	8.46
648.957	14.46
648.991	-16.54
649.024	7.46
649.057	-6.54
649.091	-0.54
649.124	11.46
649.158	9.46
649.191	16.46
649.224	-3.54
649.258	0.46
649.291	15.46
649.324	-1.54
649.358	-8.54
649.391	-5.54
649.424	-8.54
649.458	-2.54
649.491	-1.54
649.524	-4.54
649.557	-12.54
649.591	-17.54
649.624	2.46
649.657	-2.54
649.691	-9.54
649.724	-3.54
649.757	-10.54
649.791	6.46
649.824	28.46
649.857	8.46
649.89	5.46
649.924	-4.54
649.957	-16.54
649.99	-7.54
650.023	-12.54
650.057	-1.54
650.09	-2.54
650.123	-4.54
650.157	16.46
650.19	17.46
650.223	-5.54
650.256	-12.54
650.29	-6.54
650.323	0.46
650.356	16.46
650.389	-10.54
650.423	-20.54
650.456	6.46
650.489	-11.54
650.522	1.46
650.555	11.46
650.589	-0.54
650.622	6.46
650.655	-2.54
650.688	-0.54
650.721	-5.54
650.755	13.46
650.788	14.46
650.821	-2.54
650.854	-7.54
650.887	-3.54
650.921	-15.54
650.954	4.46
650.987	7.46
651.02	-10.54
651.053	-16.54
651.087	-20.54
651.12	9.46
651.153	14.46
651.186	-5.54
651.219	-1.54
651.252	-11.54
651.286	12.46
651.319	3.46
651.352	6.46
651.385	-5.54
651.418	4.46
651.451	21.46
651.484	7.46
651.518	0.46
651.551	19.46
651.584	-3.54
651.617	4.46
651.65	2.46
651.683	17.46
651.716	-4.54
651.749	-7.54
651.783	-3.54
651.816	-2.54
651.849	6.46
651.882	5.46
651.915	2.46
651.948	11.46
651.981	0.46
652.014	-17.54
652.047	-10.54
652.08	-16.54
652.114	15.46
652.147	-12.54
652.18	13.46
652.213	23.46
652.246	-2.54
652.279	-2.54
652.312	27.46
652.345	3.46
652.378	-5.54
652.411	9.46
652.444	9.46
652.477	-3.54
652.51	3.46
652.543	2.46
652.576	-5.54
652.609	-14.54
652.642	-8.54
652.675	-2.54
652.709	2.46
652.742	3.46
652.775	14.46
652.808	3.46
652.841	-3.54
652.874	9.46
652.907	-1.54
652.94	-16.54
652.973	-10.54
653.006	-24.54
653.039	2.46
653.072	0.46
653.105	-6.54
653.138	-9.54
653.171	-9.54
653.204	-16.54
653.237	3.46
653.27	-8.54
653.303	11.46
653.336	14.46
653.368	-6.54
653.401	2.46
653.434	-3.54
653.467	7.46
653.5	-6.54
653.533	-10.54
653.566	3.46
653.599	2.46
653.632	14.46
653.665	11.46
653.698	-14.54
653.731	-11.54
653.764	5.46
653.797	-13.54
653.83	2.46
653.863	-7.54
653.896	10.46
653.929	26.46
653.961	6.46
653.994	-0.54
654.027	-6.54
654.06	2.46
654.093	7.46
654.126	8.46
654.159	4.46
654.192	13.46
654.225	-4.54
654.258	-18.54
654.29	7.46
654.323	15.46
654.356	1.46
654.389	7.46
654.422	-5.54
654.455	-1.54
654.488	12.46
654.521	-22.54
654.553	-18.54
654.586	7.46
654.619	-3.54
654.652	-0.54
654.685	6.46
654.718	19.46
654.751	-2.54
654.783	-19.54
654.816	23.46
654.849	4.46
654.882	7.46
654.915	1.46
654.948	10.46
654.98	-0.54
655.013	-14.54
655.046	1.46
655.079	-24.54
655.112	5.46
655.144	0.46
655.177	8.46
655.21	15.46
655.243	10.46
655.276	6.46
655.308	-6.54
655.341	-5.54
655.374	7.46
655.407	-5.54
655.44	5.46
655.472	6.46
655.505	4.46
655.538	-2.54
655.571	5.46
655.603	16.46
655.636	10.46
655.669	6.46
655.702	-3.54
655.734	0.46
655.767	-8.54
655.8	7.46
655.833	2.46
655.865	24.46
655.898	0.46
655.931	2.46
655.964	25.46
655.996	34.46
656.029	41.46
656.062	26.46
656.095	43.46
656.127	91.46
656.16	224.46
656.193	627.46
656.225	983.46
656.258	555.46
656.291	219.46
656.324	179.46
656.356	371.46
656.389	787.46
656.422	671.46
656.454	219.46
656.487	69.46
656.52	26.46
656.552	11.46
656.585	8.46
656.618	16.46
656.65	15.46
656.683	-4.54
656.716	-4.54
656.748	5.46
656.781	-1.54
656.814	-2.54
656.846	-1.54
656.879	9.46
656.912	6.46
656.944	-2.54
656.977	-9.54
657.01	-0.54
657.042	2.46
657.075	10.46
657.108	15.46
657.14	19.46
657.173	14.46
657.205	33.46
657.238	10.46
657.271	-3.54
657.303	-6.54
657.336	5.46
657.369	6.46
657.401	3.46
657.434	1.46
657.466	3.46
657.499	-5.54
657.532	-3.54
657.564	-6.54
657.597	-9.54
657.629	15.46
657.662	-3.54
657.694	7.46
657.727	-20.54
657.76	6.46
657.792	-1.54
657.825	-23.54
657.857	2.46
657.89	6.46
657.922	9.46
657.955	-15.54
657.987	4.46
658.02	4.46
658.053	22.46
658.085	5.46
658.118	1.46
658.15	25.46
658.183	26.46
658.215	1.46
658.248	0.46
658.28	-6.54
658.313	10.46
658.345	7.46
658.378	13.46
658.41	1.46
658.443	12.46
658.475	8.46
658.508	0.46
658.54	-3.54
658.573	-7.54
658.605	5.46
658.638	12.46
658.67	-10.54
658.703	6.46
658.735	-9.54
658.768	4.46
658.8	-7.54
658.833	15.46
658.865	4.46
658.898	-4.54
658.93	-9.54
658.963	-12.54
658.995	-19.54
659.028	8.46
659.06	0.46
659.092	6.46
659.125	7.46
659.157	11.46
659.19	0.46
659.222	-5.54
659.255	-12.54
659.287	11.46
659.32	13.46
659.352	1.46
659.384	8.46
659.417	-2.54
659.449	7.46
659.482	-0.54
659.514	-12.54
659.546	9.46
659.579	-2.54
659.611	-9.54
659.644	0.46
659.676	-12.54
659.708	-8.54
659.741	-0.54
659.773	10.46
659.806	9.46
659.838	4.46
659.87	-2.54
659.903	-6.54
659.935	-1.54
659.967	9.46
660	7.46
660.032	-14.54
660.065	-11.54
660.097	-17.54
660.129	14.46
660.162	-9.54
660.194	7.46
660.226	16.46
660.259	5.46
660.291	-2.54
660.323	12.46
660.356	-0.54
660.388	6.46
660.42	-5.54
660.453	9.46
660.485	13.46
660.517	17.46
660.55	25.46
660.582	6.46
660.614	20.46
660.647	-1.54
660.679	-19.54
660.711	1.46
660.743	-12.54
660.776	-14.54
660.808	3.46
660.84	3.46
660.873	11.46
660.905	-5.54
660.937	-4.54
660.969	0.46
661.002	-17.54
661.034	17.46
661.066	4.46
661.099	3.46
661.131	12.46
661.163	-0.54
661.195	7.46
661.228	18.46
661.26	-0.54
661.292	-8.54
661.324	7.46
661.357	6.46
661.389	-3.54
661.421	1.46
661.453	0.46
661.485	8.46
661.518	4.46
661.55	-24.54
661.582	-17.54
661.614	-2.54
661.647	15.46
661.679	-1.54
661.711	-5.54
661.743	-8.54
661.775	-7.54
661.808	16.46
661.84	2.46
661.872	-1.54
661.904	-4.54
661.936	-8.54
661.969	-12.54
662.001	10.46
662.033	5.46
662.065	-5.54
662.097	8.46
662.129	6.46
662.162	-1.54
662.194	3.46
662.226	7.46
662.258	13.46
662.29	6.46
662.322	-20.54
662.355	-21.54
662.387	22.46
662.419	9.46
662.451	17.46
662.483	10.46
662.515	-1.54
662.547	-4.54
662.58	-22.54
662.612	2.46
662.644	-9.54
662.676	-5.54
662.708	7.46
662.74	-1.54
662.772	-3.54
662.804	7.46
662.836	1.46
662.869	-10.54
662.901	4.46
662.933	0.46
662.965	9.46
662.997	14.46
663.029	-12.54
663.061	-23.54
663.093	-1.54
663.125	-9.54
663.157	11.46
663.189	-1.54
663.221	20.46
663.254	5.46
663.286	-1.54
663.318	-0.54
663.35	-0.54
663.382	2.46
663.414	14.46
663.446	6.46
663.478	1.46
663.51	15.46
663.542	-10.54
663.574	6.46
663.606	11.46
663.638	0.46
663.67	0.46
663.702	0.46
663.734	14.46
663.766	14.46
663.798	5.46
663.83	4.46
663.862	4.46
663.894	8.46
663.926	-4.54
663.958	14.46
663.99	-20.54
664.022	-6.54
664.054	14.46
664.086	-23.54
664.118	-2.54
664.15	10.46
664.182	-0.54
664.214	11.46
664.246	12.46
664.278	5.46
664.31	9.46
664.342	13.46
664.374	5.46
664.406	-5.54
664.438	-0.54
664.47	17.46
664.502	-6.54
664.534	-3.54
664.566	-12.54
664.598	3.46
664.63	-1.54
664.662	1.46
664.693	10.46
664.725	-7.54
664.757	-3.54
664.789	-18.54
664.821	-2.54
664.853	-2.54
664.885	9.46
664.917	-8.54
664.949	11.46
664.981	24.46
665.013	11.46
665.045	-5.54
665.076	10.46
665.108	10.46
665.14	-6.54
665.172	7.46
665.204	-12.54
665.236	-23.54
665.268	8.46
665.3	5.46
665.331	12.46
665.363	8.46
665.395	4.46
665.427	-0.54
665.459	2.46
665.491	-4.54
665.523	-0.54
665.555	6.46
665.586	-0.54
665.618	5.46
665.65	-15.54
665.682	9.46
665.714	5.46
665.746	-1.54
665.777	6.46
665.809	-15.54
665.841	1.46
665.873	-2.54
665.905	17.46
665.937	1.46
665.968	7.46
666	-12.54
666.032	8.46
666.064	-3.54
666.096	-3.54
666.127	5.46
666.159	17.46
666.191	-0.54
666.223	-5.54
666.255	-9.54
666.286	4.46
666.318	-10.54
666.35	24.46
666.382	15.46
666.413	-1.54
666.445	-25.54
666.477	-16.54
666.509	-13.54
666.54	-14.54
666.572	-12.54
666.604	-9.54
666.636	-11.54
666.667	20.46
666.699	20.46
666.731	12.46
666.763	0.46
666.794	-17.54
666.826	0.46
666.858	-12.54
666.89	4.46
666.921	4.46
666.953	-6.54
666.985	9.46
667.017	15.46
667.048	10.46
667.08	5.46
667.112	9.46
667.143	3.46
667.175	7.46
667.207	1.46
667.238	4.46
667.27	12.46
667.302	5.46
667.334	-0.54
667.365	27.46
667.397	4.46
667.429	7.46
667.46	14.46
667.492	10.46
667.524	4.46
667.555	1.46
667.587	-11.54
667.619	-0.54
667.65	-7.54
667.682	7.46
667.714	17.46
667.745	28.46
667.777	-4.54
667.808	4.46
667.84	-10.54
667.872	-4.54
667.903	31.46
667.935	0.46
667.967	-2.54
667.998	8.46
668.03	-6.54
668.061	16.46
668.093	-4.54
668.125	11.46
668.156	6.46
668.188	-12.54
668.22	-4.54
668.251	-13.54
668.283	-2.54
668.314	8.46
668.346	-10.54
668.377	-5.54
668.409	-2.54
668.441	12.46
668.472	-1.54
668.504	4.46
668.535	3.46
668.567	-1.54
668.599	-0.54
668.63	-0.54
668.662	-11.54
668.693	-5.54
668.725	6.46
668.756	14.46
668.788	16.46
668.819	-5.54
668.851	1.46
668.882	9.46
668.914	0.46
668.946	2.46
668.977	-8.54
669.009	7.46
669.04	-7.54
669.072	-3.54
669.103	-2.54
669.135	-3.54
669.166	6.46
669.198	5.46
669.229	-1.54
669.261	-2.54
669.292	-8.54
669.324	0.46
669.355	11.46
669.387	-5.54
669.418	1.46
669.45	-5.54
669.481	-1.54
669.513	2.46
669.544	3.46
669.576	4.46
669.607	4.46
669.639	4.46
669.67	-23.54
669.701	5.46
669.733	-2.54
669.764	-6.54
669.796	6.46
669.827	-15.54
669.859	2.46
669.89	16.46
669.922	11.46
669.953	8.46
669.985	-16.54
670.016	0.46
670.047	-15.54
670.079	-12.54
670.11	10.46
670.142	-1.54
670.173	12.46
670.204	8.46
670.236	-1.54
670.267	-12.54
670.299	10.46
670.33	5.46
670.362	18.46
670.393	-10.54
670.424	9.46
670.456	-14.54
670.487	-7.54
670.518	-12.54
670.55	-10.54
670.581	1.46
670.613	16.46
670.644	2.46
670.675	-0.54
670.707	3.46
670.738	4.46
670.769	7.46
670.801	-10.54
670.832	0.46
670.864	-8.54
670.895	-0.54
670.926	5.46
670.958	8.46
670.989	-1.54
671.02	4.46
671.052	-3.54
671.083	3.46
671.114	9.46
671.146	-4.54
671.177	-8.54
671.208	-4.54
671.24	-19.54
671.271	-7.54
671.302	8.46
671.333	-7.54
671.365	-12.54
671.396	6.46
671.427	2.46
671.459	1.46
671.49	10.46
671.521	7.46
671.553	-10.54
671.584	-1.54
671.615	-0.54
671.646	13.46
671.678	21.46
671.709	-9.54
671.74	-25.54
671.771	-7.54
671.803	-17.54
671.834	8.46
671.865	9.46
671.896	1.46
671.928	7.46
671.959	5.46
671.99	-16.54
672.021	0.46
672.053	-8.54
672.084	6.46
672.115	6.46
672.146	-6.54
672.178	-22.54
672.209	-8.54
672.24	-2.54
672.271	23.46
672.303	15.46
672.334	7.46
672.365	-15.54
672.396	0.46
672.427	3.46
672.459	3.46
672.49	22.46
672.521	-6.54
672.552	-1.54
672.583	2.46
672.615	5.46
672.646	4.46
672.677	-10.54
672.708	-9.54
672.739	-12.54
672.77	10.46
672.802	7.46
672.833	-0.54
672.864	-17.54
672.895	3.46
672.926	8.46
672.957	-11.54
672.989	3.46
673.02	4.46
673.051	-10.54
673.082	13.46
673.113	0.46
673.144	-1.54
673.175	-8.54
673.206	-15.54
673.238	-15.54
673.269	4.46
673.3	-22.54
673.331	2.46
673.362	8.46
673.393	5.46
673.424	15.46
673.455	27.46
673.487	3.46
673.518	-4.54
673.549	1.46
673.58	13.46
673.611	-3.54
673.642	-10.54
673.673	-23.54
673.704	13.46
673.735	8.46
673.766	-16.54
673.797	-16.54
673.828	-4.54
673.86	3.46
673.891	-4.54
673.922	-20.54
673.953	-24.54
673.984	-0.54
674.015	2.46
674.046	-1.54
674.077	-11.54
674.108	-12.54
674.139	-2.54
674.17	11.46
674.201	4.46
674.232	-4.54
674.263	-0.54
674.294	-5.54
674.325	-5.54
674.356	5.46
674.387	-1.54
674.418	1.46
674.449	-6.54
674.48	0.46
674.511	1.46
674.542	12.46
674.573	-11.54
674.604	11.46
674.635	6.46
674.666	14.46
674.697	-0.54
674.728	-19.54
674.759	9.46
674.79	-3.54
674.821	1.46
674.852	7.46
674.883	-18.54
674.914	3.46
674.945	-2.54
674.976	-3.54
675.007	-2.54
675.038	-14.54
675.069	-15.54
675.1	2.46
675.131	-3.54
675.162	-14.54
675.193	-8.54
675.224	-2.54
675.254	-0.54
675.285	8.46
675.316	10.46
675.347	7.46
675.378	-10.54
675.409	-13.54
675.44	-0.54
675.471	-5.54
675.502	-15.54
675.533	-0.54
675.564	-7.54
675.595	-11.54
675.625	20.46
675.656	9.46
675.687	-3.54
675.718	-20.54
675.749	6.46
675.78	9.46
675.811	-13.54
675.842	1.46
675.873	2.46
675.903	4.46
675.934	9.46
675.965	-4.54
675.996	0.46
676.027	11.46
676.058	6.46
676.089	-8.54
676.119	0.46
676.15	0.46
676.181	7.46
676.212	-1.54
676.243	20.46
676.274	4.46
676.304	3.46
676.335	-7.54
676.366	-11.54
676.397	-7.54
676.428	-0.54
676.459	5.46
676.489	2.46
676.52	9.46
676.551	6.46
676.582	-7.54
676.613	20.46
676.643	-5.54
676.674	13.46
676.705	-17.54
676.736	-2.54
676.767	14.46
676.797	-5.54
676.828	1.46
676.859	-0.54
676.89	-19.54
676.92	-5.54
676.951	3.46
676.982	6.46
677.013	-8.54
677.044	14.46
677.074	6.46
677.105	-3.54
677.136	10.46
677.167	-0.54
677.197	4.46
677.228	-1.54
677.259	-16.54
677.289	-6.54
677.32	-2.54
677.351	-14.54
677.382	-3.54
677.412	-10.54
677.443	2.46
677.474	-8.54
677.505	-25.54
677.535	0.46
677.566	-16.54
677.597	-20.54
677.627	-16.54
677.658	-9.54
677.689	4.46
677.72	-0.54
677.75	-0.54
677.781	2.46
677.812	-15.54
677.842	15.46
677.873	3.46
677.904	1.46
677.934	-4.54
677.965	-5.54
677.996	-12.54
678.026	-4.54
678.057	-20.54
678.088	-19.54
678.118	8.46
678.149	-12.54
678.18	-5.54
678.21	3.46
678.241	9.46
678.272	8.46
678.302	1.46
678.333	7.46
678.363	5.46
678.394	10.46
678.425	-4.54
678.455	-4.54
678.486	12.46
678.517	2.46
678.547	-13.54
678.578	1.46
678.608	-6.54
678.639	-13.54
678.67	-0.54
678.7	-14.54
678.731	-5.54
678.761	0.46
678.792	6.46
678.823	12.46
678.853	8.46
678.884	-12.54
678.914	-13.54
678.945	5.46
678.975	-16.54
679.006	-14.54
679.037	-8.54
679.067	22.46
679.098	9.46
679.128	-8.54
679.159	3.46
679.189	-0.54
679.22	-2.54
679.25	3.46
679.281	-1.54
679.312	7.46
679.342	3.46
679.373	29.46
679.403	4.46
679.434	-2.54
679.464	-3.54
679.495	-10.54
679.525	-2.54
679.556	-8.54
679.586	8.46
679.617	9.46
679.647	11.46
679.678	-0.54
679.708	6.46
679.739	-9.54
679.769	-26.54
679.8	-0.54
679.83	-2.54
679.861	13.46
679.891	-2.54
679.922	-4.54
679.952	4.46
679.983	1.46
680.013	7.46
680.044	-2.54
680.074	9.46
680.105	15.46
680.135	-0.54
680.165	19.46
680.196	14.46
680.226	-2.54
680.257	8.46
680.287	9.46
680.318	-2.54
680.348	-21.54
680.379	22.46
680.409	7.46
680.439	8.46
680.47	-8.54
680.5	-1.54
680.531	-1.54
680.561	9.46
680.592	13.46
680.622	9.46
680.652	-6.54
680.683	14.46
680.713	4.46
680.744	7.46
680.774	-0.54
680.804	22.46
680.835	-12.54
680.865	2.46
680.896	12.46
680.926	9.46
680.956	3.46
680.987	0.46
681.017	-2.54
681.047	7.46
681.078	0.46
681.108	-8.54
681.139	-3.54
681.169	5.46
681.199	-3.54
681.23	-1.54
681.26	-0.54
681.29	12.46
681.321	-5.54
681.351	8.46
681.381	-15.54
681.412	7.46
681.442	4.46
681.472	11.46
681.503	6.46
681.533	4.46
681.563	3.46
681.594	-1.54
681.624	5.46
681.654	-6.54
681.685	-7.54
681.715	-3.54
681.745	-4.54
681.775	0.46
681.806	4.46
681.836	-5.54
681.866	3.46
681.897	0.46
681.927	0.46
681.957	-16.54
681.987	-4.54
682.018	-12.54
682.048	5.46
682.078	7.46
682.109	7.46
682.139	-3.54
682.169	0.46
682.199	-11.54
682.23	-8.54
682.26	6.46
682.29	-6.54
682.32	-6.54
682.351	4.46
682.381	17.46
682.411	-5.54
682.441	-8.54
682.472	-0.54
682.502	-4.54
682.532	-5.54
682.562	9.46
682.592	7.46
682.623	-2.54
682.653	-6.54
682.683	-8.54
682.713	-3.54
682.743	7.46
682.774	6.46
682.804	6.46
682.834	20.46
682.864	0.46
682.894	7.46
682.925	-7.54
682.955	5.46
682.985	-13.54
683.015	4.46
683.045	0.46
683.076	-5.54
683.106	-19.54
683.136	-11.54
683.166	-9.54
683.196	-28.54
683.226	-18.54
683.257	3.46
683.287	-9.54
683.317	-8.54
683.347	-2.54
683.377	-0.54
683.407	6.46
683.437	21.46
683.468	11.46
683.498	1.46
683.528	1.46
683.558	4.46
683.588	-11.54
683.618	-15.54
683.648	-13.54
683.678	-9.54
683.708	-3.54
683.739	-3.54
683.769	5.46
683.799	3.46
683.829	-1.54
683.859	3.46
683.889	20.46
683.919	-8.54
683.949	10.46
683.979	-8.54
684.009	0.46
684.039	1.46
684.07	1.46
684.1	12.46
684.13	11.46
684.16	13.46
684.19	-3.54
684.22	6.46
684.25	8.46
684.28	5.46
684.31	20.46
684.34	9.46
684.37	10.46
684.4	-6.54
684.43	3.46
684.46	0.46
684.49	10.46
684.52	-5.54
684.55	12.46
684.58	2.46
684.61	0.46
684.64	-0.54
684.67	5.46
684.7	-0.54
684.73	5.46
684.76	9.46
684.79	19.46
684.82	-8.54
684.85	-8.54
684.88	17.46
684.91	4.46
684.94	-7.54
684.97	-15.54
685	7.46
685.03	-13.54
685.06	-5.54
685.09	6.46
685.12	21.46
685.15	8.46
685.18	4.46
685.21	6.46
685.24	3.46
685.27	26.46
685.3	-0.54
685.33	-5.54
685.36	-17.54
685.39	-10.54
685.42	-9.54
685.45	-12.54
685.48	-9.54
685.51	-6.54
685.54	22.46
685.569	1.46
685.599	4.46
685.629	0.46
685.659	12.46
685.689	11.46
685.719	-2.54
685.749	-12.54
685.779	18.46
685.809	10.46
685.839	9.46
685.869	11.46
685.898	-1.54
685.928	5.46
685.958	3.46
685.988	6.46
686.018	11.46
686.048	7.46
686.078	7.46
686.108	14.46
686.137	0.46
686.167	5.46
686.197	-9.54
686.227	-1.54
686.257	29.46
686.287	2.46
686.317	-4.54
686.346	4.46
686.376	-5.54
686.406	-12.54
686.436	3.46
686.466	-3.54
686.496	20.46
686.525	17.46
686.555	-8.54
686.585	12.46
686.615	23.46
686.645	11.46
686.675	-4.54
686.704	-3.54
686.734	-0.54
686.764	-3.54
686.794	-4.54
686.824	-1.54
686.853	25.46
686.883	13.46
686.913	5.46
686.943	4.46
686.973	12.46
687.002	0.46
687.032	6.46
687.062	3.46
687.092	18.46
687.121	-4.54
687.151	-3.54
687.181	-5.54
687.211	2.46
687.24	-5.54
687.27	-11.54
687.3	-7.54
687.33	17.46
687.359	-12.54
687.389	-0.54
687.419	11.46
687.449	9.46
687.478	-3.54
687.508	-8.54
687.538	-10.54
687.568	10.46
687.597	-0.54
687.627	8.46
687.657	-3.54
687.686	10.46
687.716	30.46
687.746	2.46
687.776	-3.54
687.805	22.46
687.835	3.46
687.865	17.46
687.894	8.46
687.924	-7.54
687.954	-13.54
687.983	3.46
688.013	14.46
688.043	6.46
688.072	-0.54
688.102	-9.54
688.132	-1.54
688.161	19.46
688.191	3.46
688.221	13.46
688.25	-4.54
688.28	3.46
688.31	-25.54
688.339	-8.54
688.369	-5.54
688.399	-8.54
688.428	0.46
688.458	6.46
688.488	3.46
688.517	-7.54
688.547	-3.54
688.576	46.46
688.606	8.46
688.636	-16.54
688.665	-8.54
688.695	0.46
688.725	17.46
688.754	23.46
688.784	-10.54
688.813	4.46
688.843	15.46
688.873	-4.54
688.902	-5.54
688.932	-1.54
688.961	-9.54
688.991	14.46
689.02	7.46
689.05	0.46
689.08	6.46
689.109	-2.54
689.139	-5.54
689.168	4.46
689.198	-3.54
689.227	-5.54
689.257	5.46
689.287	7.46
689.316	-5.54
689.346	-12.54
689.375	-2.54
689.405	-2.54
689.434	1.46
689.464	9.46
689.493	-2.54
689.523	-13.54
689.552	10.46
689.582	-4.54
689.611	-0.54
689.641	-8.54
689.67	-0.54
689.7	0.46
689.73	18.46
689.759	4.46
689.789	4.46
689.818	-20.54
689.848	-4.54
689.877	21.46
689.906	3.46
689.936	-8.54
689.965	-0.54
689.995	17.46
690.024	7.46
690.054	5.46
690.083	6.46
690.113	8.46
690.142	7.46
690.172	-1.54
690.201	6.46
690.231	14.46
690.26	13.46
690.29	6.46
690.319	20.46
690.348	6.46
690.378	11.46
690.407	11.46
690.437	-6.54
690.466	-10.54
690.496	-7.54
690.525	18.46
690.555	-4.54
690.584	-4.54
690.613	-2.54
690.643	9.46
690.672	16.46
690.702	-0.54
690.731	0.46
690.76	1.46
690.79	-13.54
690.819	-4.54
690.849	-0.54
690.878	0.46
690.907	-5.54
690.937	5.46
690.966	8.46
690.996	-12.54
691.025	7.46
691.054	1.46
691.084	-1.54
691.113	2.46
691.142	-1.54
691.172	-2.54
691.201	17.46
691.23	2.46
691.26	19.46
691.289	13.46
691.319	-13.54
691.348	8.46
691.377	14.46
691.407	6.46
691.436	3.46
691.465	-10.54
691.495	0.46
691.524	-3.54
691.553	-1.54
691.583	-2.54
691.612	14.46
691.641	8.46
691.67	-1.54
691.7	-3.54
691.729	-0.54
691.758	-2.54
691.788	-10.54
691.817	-10.54
691.846	-9.54
691.876	3.46
691.905	3.46
691.934	3.46
691.963	7.46
691.993	0.46
692.022	-8.54
692.051	-17.54
692.081	10.46
692.11	32.46
692.139	1.46
692.168	9.46
692.198	20.46
692.227	17.46
692.256	4.46
692.285	-0.54
692.315	3.46
692.344	0.46
692.373	14.46
692.402	-2.54
692.432	8.46
692.461	8.46
692.49	1.46
692.519	-5.54
692.548	2.46
692.578	8.46
692.607	-8.54
692.636	3.46
692.665	16.46
692.694	-2.54
692.724	5.46
692.753	7.46
692.782	17.46
692.811	-17.54
692.84	-1.54
692.87	-3.54
692.899	0.46
692.928	-11.54
692.957	10.46
692.986	-9.54
693.016	-2.54
693.045	4.46
693.074	10.46
693.103	17.46
693.132	6.46
693.161	11.46
693.191	4.46
693.22	5.46
693.249	12.46
693.278	3.46
693.307	32.46
693.336	7.46
693.365	-15.54
693.395	-7.54
693.424	5.46
693.453	10.46
693.482	9.46
693.511	5.46
693.54	9.46
693.569	16.46
693.598	6.46
693.628	12.46
693.657	14.46
693.686	14.46
693.715	15.46
693.744	2.46
693.773	11.46
693.802	11.46
693.831	-3.54
693.86	2.46
693.889	-6.54
693.919	14.46
693.948	-0.54
693.977	0.46
694.006	-9.54
694.035	-3.54
694.064	-10.54
694.093	-4.54
694.122	-3.54
694.151	4.46
694.18	7.46
694.209	28.46
694.238	22.46
694.267	36.46
694.296	6.46
694.325	-8.54
694.354	19.46
694.383	14.46
694.412	-8.54
694.441	-8.54
694.471	-10.54
694.5	-8.54
694.529	0.46
694.558	19.46
694.587	2.46
694.616	7.46
694.645	9.46
694.674	12.46
694.703	7.46
694.732	4.46
694.761	21.46
694.79	14.46
694.819	-2.54
694.848	-7.54
694.877	13.46
694.906	17.46
694.935	19.46
694.963	24.46
694.992	3.46
695.021	9.46
695.05	0.46
695.079	13.46
695.108	9.46
695.137	18.46
695.166	14.46
695.195	-10.54
695.224	13.46
695.253	5.46
695.282	-3.54
695.311	9.46
695.34	14.46
695.369	14.46
695.398	-5.54
695.427	9.46
695.456	-5.54
695.485	-0.54
695.513	-11.54
695.542	0.46
695.571	2.46
695.6	16.46
695.629	-1.54
695.658	5.46
695.687	-3.54
695.716	0.46
695.745	26.46
695.774	-1.54
695.802	-6.54
695.831	3.46
695.86	5.46
695.889	13.46
695.918	1.46
695.947	-5.54
695.976	-0.54
696.005	6.46
696.033	10.46
696.062	22.46
696.091	3.46
696.12	16.46
696.149	26.46
696.178	12.46
696.207	3.46
696.235	-15.54
696.264	7.46
696.293	-0.54
696.322	-1.54
696.351	8.46
696.38	3.46
696.408	11.46
696.437	-6.54
696.466	9.46
696.495	1.46
696.524	15.46
696.553	23.46
696.581	14.46
696.61	4.46
696.639	-6.54
696.668	6.46
696.697	0.46
696.725	15.46
696.754	-0.54
696.783	-4.54
696.812	-10.54
696.84	-2.54
696.869	5.46
696.898	-5.54
696.927	10.46
696.956	28.46
696.984	7.46
697.013	13.46
697.042	-3.54
697.071	8.46
697.099	0.46
697.128	-6.54
697.157	12.46
697.186	7.46
697.214	-1.54
697.243	5.46
697.272	0.46
697.301	-3.54
697.329	12.46
697.358	1.46
697.387	12.46
697.415	17.46
697.444	8.46
697.473	15.46
697.502	-7.54
697.53	-0.54
697.559	26.46
697.588	6.46
697.616	-5.54
697.645	-22.54
697.674	7.46
697.703	-3.54
697.731	9.46
697.76	4.46
697.789	0.46
697.817	12.46
697.846	14.46
697.875	-4.54
697.903	23.46
697.932	8.46
697.961	11.46
697.989	16.46
698.018	-0.54
698.047	4.46
698.075	17.46
698.104	-0.54
698.133	5.46
698.161	4.46
698.19	3.46
698.218	12.46
698.247	24.46
698.276	4.46
698.304	1.46
698.333	-1.54
698.362	8.46
698.39	8.46
698.419	3.46
698.447	-0.54
698.476	-11.54
698.505	5.46
698.533	1.46
698.562	-9.54
698.591	-9.54
698.619	-16.54
698.648	14.46
698.676	5.46
698.705	3.46
698.733	-15.54
698.762	4.46
698.791	8.46
698.819	-6.54
698.848	-2.54
698.876	8.46
698.905	-2.54
698.933	-13.54
698.962	3.46
698.991	21.46
699.019	14.46
699.048	-7.54
699.076	-4.54
699.105	-20.54
699.133	-3.54
699.162	6.46
699.19	13.46
699.219	-3.54
699.248	-0.54
699.276	7.46
699.305	-3.54
699.333	5.46
699.362	-1.54
699.39	2.46
699.419	-8.54
699.447	18.46
699.476	13.46
699.504	0.46
699.533	1.46
699.561	-10.54
699.59	-4.54
699.618	8.46
699.647	2.46
699.675	-8.54
699.704	-6.54
699.732	-3.54
699.761	0.46
699.789	-4.54
699.818	5.46
699.846	8.46
699.874	-5.54
699.903	13.46
699.931	15.46
699.96	19.46
699.988	-3.54
700.017	-1.54
700.045	-4.54
700.074	-11.54
700.102	-3.54
700.13	-10.54
700.159	3.46
700.187	8.46
700.216	21.46
700.244	-23.54
700.273	-8.54
700.301	-4.54
700.329	-1.54
700.358	7.46
700.386	-4.54
700.415	4.46
700.443	-6.54
700.472	5.46
700.5	8.46
700.528	17.46
700.557	9.46
700.585	-5.54
700.614	-0.54
700.642	13.46
700.67	19.46
700.699	4.46
700.727	-4.54
700.755	1.46
700.784	-1.54
700.812	5.46
700.841	11.46
700.869	2.46
700.897	-13.54
700.926	-7.54
700.954	6.46
700.982	-2.54
701.011	3.46
701.039	6.46
701.067	-2.54
701.096	3.46
701.124	-5.54
701.152	-2.54
701.181	-3.54
701.209	-15.54
701.237	14.46
701.266	-3.54
701.294	4.46
701.322	21.46
701.351	26.46
701.379	4.46
701.407	-2.54
701.435	2.46
701.464	8.46
701.492	21.46
701.52	-7.54
701.549	5.46
701.577	-7.54
701.605	-11.54
701.634	11.46
701.662	16.46
701.69	-10.54
701.718	3.46
701.747	6.46
701.775	-2.54
701.803	1.46
701.831	2.46
701.86	-5.54
701.888	6.46
701.916	12.46
701.944	6.46
701.973	7.46
702.001	-7.54
702.029	-4.54
702.057	-23.54
702.086	-4.54
702.114	-3.54
702.142	16.46
702.17	3.46
702.199	-12.54
702.227	3.46
702.255	21.46
702.283	0.46
702.311	7.46
702.34	-4.54
702.368	-20.54
702.396	-0.54
702.424	-7.54
702.452	9.46
702.481	6.46
702.509	-9.54
702.537	4.46
702.565	9.46
702.593	-11.54
702.621	-5.54
702.65	2.46
702.678	-9.54
702.706	1.46
702.734	6.46
702.762	-0.54
702.79	-11.54
702.819	-2.54
702.847	-3.54
702.875	5.46
702.903	6.46
702.931	5.46
702.959	3.46
702.988	-10.54
703.016	-16.54
703.044	4.46
703.072	-7.54
703.1	-12.54
703.128	-8.54
703.156	-9.54
703.184	-6.54
703.212	15.46
703.241	0.46
703.269	13.46
703.297	15.46
703.325	1.46
703.353	-4.54
703.381	-3.54
703.409	4.46
703.437	3.46
703.465	10.46
703.493	-8.54
703.522	12.46
703.55	14.46
703.578	4.46
703.606	-12.54
703.634	3.46
703.662	-4.54
703.69	-9.54
703.718	7.46
703.746	5.46
703.774	1.46
703.802	15.46
703.83	-0.54
703.858	3.46
703.886	-5.54
703.914	-8.54
703.942	3.46
703.97	1.46
703.998	-9.54
704.027	18.46
704.055	9.46
704.083	12.46
704.111	3.46
704.139	14.46
704.167	9.46
704.195	5.46
704.223	-2.54
704.251	-6.54
704.279	2.46
704.307	11.46
704.335	1.46
704.363	-1.54
704.391	0.46
704.419	14.46
704.447	-8.54
704.475	5.46
704.503	-9.54
704.531	16.46
704.558	-3.54
704.586	10.46
704.614	8.46
704.642	-1.54
704.67	-11.54
704.698	-4.54
704.726	4.46
704.754	-3.54
704.782	2.46
704.81	9.46
704.838	11.46
704.866	6.46
704.894	-7.54
704.922	-0.54
704.95	13.46
704.978	18.46
705.006	0.46
705.034	10.46
705.061	-7.54
705.089	3.46
705.117	-18.54
705.145	3.46
705.173	8.46
705.201	-1.54
705.229	10.46
705.257	-2.54
705.285	6.46
705.313	16.46
705.34	-2.54
705.368	-8.54
705.396	12.46
705.424	-0.54
705.452	-1.54
705.48	-9.54
705.508	-5.54
705.536	-9.54
705.563	-42.54
705.591	5.46
705.619	8.46
705.647	-5.54
705.675	2.46
705.703	6.46
705.731	-2.54
705.758	5.46
705.786	3.46
705.814	6.46
705.842	-3.54
705.87	9.46
705.898	16.46
705.925	-4.54
705.953	11.46
705.981	0.46
706.009	-4.54
706.037	15.46
706.065	2.46
706.092	-9.54
706.12	-7.54
706.148	3.46
706.176	-4.54
706.204	9.46
706.231	7.46
706.259	-20.54
706.287	2.46
706.315	4.46
706.342	2.46
706.37	23.46
706.398	11.46
706.426	2.46
706.454	5.46
706.481	2.46
706.509	-0.54
706.537	2.46
706.565	-7.54
706.592	11.46
706.62	0.46
706.648	10.46
706.676	0.46
706.703	11.46
706.731	-0.54
706.759	5.46
706.787	-2.54
706.814	-5.54
706.842	6.46
706.87	-1.54
706.897	0.46
706.925	-3.54
706.953	10.46
706.981	21.46
707.008	21.46
707.036	-4.54
707.064	-9.54
707.091	-9.54
707.119	0.46
707.147	-3.54
707.174	-9.54
707.202	6.46
707.23	-1.54
707.258	12.46
707.285	-5.54
707.313	-4.54
707.341	-12.54
707.368	-8.54
707.396	-3.54
707.424	14.46
707.451	21.46
707.479	4.46
707.507	1.46
707.534	0.46
707.562	3.46
707.59	-8.54
707.617	8.46
707.645	-8.54
707.672	-10.54
707.7	-1.54
707.728	22.46
707.755	15.46
707.783	-0.54
707.811	23.46
707.838	3.46
707.866	10.46
707.893	2.46
707.921	5.46
707.949	3.46
707.976	7.46
708.004	5.46
708.031	-0.54
708.059	10.46
708.087	3.46
708.114	-0.54
708.142	-7.54
708.169	-12.54
708.197	-8.54
708.225	2.46
708.252	-14.54
708.28	16.46
708.307	-2.54
708.335	7.46
708.362	-12.54
708.39	-19.54
708.418	4.46
708.445	-8.54
708.473	3.46
708.5	-4.54
708.528	10.46
708.555	1.46
708.583	1.46
708.61	12.46
708.638	2.46
708.665	-6.54
708.693	3.46
708.72	-5.54
708.748	-0.54
708.776	-1.54
708.803	10.46
708.831	11.46
708.858	19.46
708.886	7.46
708.913	3.46
708.941	4.46
708.968	2.46
708.996	-3.54
709.023	38.46
709.051	4.46
709.078	6.46
709.105	-2.54
709.133	-3.54
709.16	5.46
709.188	4.46
709.215	0.46
709.243	5.46
709.27	0.46
709.298	-0.54
709.325	-4.54
709.353	0.46
709.38	-11.54
709.408	8.46
709.435	-5.54
709.462	-16.54
709.49	4.46
709.517	-10.54
709.545	-3.54
709.572	-4.54
709.6	6.46
709.627	-3.54
709.655	0.46
709.682	-2.54
709.709	10.46
709.737	-9.54
709.764	-5.54
709.792	15.46
709.819	3.46
709.846	-4.54
709.874	2.46
709.901	2.46
709.929	17.46
709.956	-2.54
709.983	0.46
710.011	-32.54
710.038	-9.54
710.066	8.46
710.093	-0.54
710.12	6.46
710.148	-3.54
710.175	-1.54
710.202	-5.54
710.23	7.46
710.257	5.46
710.284	3.46
710.312	-3.54
710.339	-6.54
710.366	-0.54
710.394	-15.54
710.421	11.46
710.448	20.46
710.476	-18.54
710.503	-1.54
710.53	9.46
710.558	21.46
710.585	16.46
710.612	5.46
710.64	-1.54
710.667	-6.54
710.694	1.46
710.722	5.46
710.749	3.46
710.776	-1.54
710.804	23.46
710.831	12.46
710.858	2.46
710.885	-8.54
710.913	-4.54
710.94	7.46
710.967	5.46
710.995	0.46
711.022	-11.54
711.049	7.46
711.076	-0.54
711.104	1.46
711.131	-13.54
711.158	-1.54
711.185	5.46
711.213	-8.54
711.24	-21.54
711.267	-12.54
711.294	-3.54
711.322	4.46
711.349	-1.54
711.376	6.46
711.403	-3.54
711.431	3.46
711.458	-5.54
711.485	-1.54
711.512	7.46
711.54	-11.54
711.567	-3.54
711.594	-8.54
711.621	-12.54
711.648	0.46
711.676	-9.54
711.703	2.46
711.73	-18.54
711.757	9.46
711.784	2.46
711.812	-8.54
711.839	-0.54
711.866	-15.54
711.893	-21.54
711.92	-0.54
711.947	17.46
711.975	6.46
712.002	4.46
712.029	-8.54
712.056	3.46
712.083	2.46
712.11	-7.54
712.138	-3.54
712.165	8.46
712.192	3.46
712.219	0.46
712.246	-2.54
712.273	-4.54
712.3	-4.54
712.328	-7.54
712.355	-17.54
712.382	-12.54
712.409	0.46
712.436	-0.54
712.463	10.46
712.49	12.46
712.517	11.46
712.544	5.46
712.572	9.46
712.599	8.46
712.626	-17.54
712.653	-0.54
712.68	-10.54
712.707	3.46
712.734	7.46
712.761	-9.54
712.788	-1.54
712.815	1.46
712.842	6.46
712.87	-19.54
712.897	-4.54
712.924	2.46
712.951	7.46
712.978	6.46
713.005	13.46
713.032	-4.54
713.059	-0.54
713.086	4.46
713.113	-3.54
713.14	-4.54
713.167	-6.54
713.194	1.46
713.221	6.46
713.248	18.46
713.275	6.46
713.302	-0.54
713.329	-1.54
713.356	6.46
713.383	-1.54
713.41	7.46
713.437	-19.54
713.464	10.46
713.491	15.46
713.518	5.46
713.545	4.46
713.572	-2.54
713.599	14.46
713.626	-0.54
713.653	13.46
713.68	3.46
713.707	9.46
713.734	-0.54
713.761	3.46
713.788	-2.54
713.815	2.46
713.842	-9.54
713.869	-6.54
713.896	5.46
713.923	20.46
713.95	1.46
713.977	-11.54
714.004	-7.54
714.031	3.46
714.058	-8.54
714.085	-12.54
714.112	14.46
714.139	9.46
714.165	-9.54
714.192	-6.54
714.219	14.46
714.246	-0.54
714.273	4.46
714.3	5.46
714.327	2.46
714.354	-0.54
714.381	-5.54
714.408	1.46
714.435	14.46
714.461	-6.54
714.488	21.46
714.515	0.46
714.542	-11.54
714.569	-17.54
714.596	0.46
714.623	0.46
714.65	-5.54
714.677	2.46
714.703	-11.54
714.73	4.46
714.757	11.46
714.784	1.46
714.811	2.46
714.838	7.46
714.865	-8.54
714.891	-4.54
714.918	-12.54
714.945	-8.54
714.972	-5.54
714.999	19.46
715.026	3.46
715.052	25.46
715.079	18.46
715.106	4.46
715.133	0.46
715.16	-9.54
715.187	1.46
715.213	10.46
715.24	-0.54
715.267	-0.54
715.294	1.46
715.321	-5.54
715.347	-8.54
715.374	-13.54
715.401	-0.54
715.428	-8.54
715.455	-5.54
715.481	-4.54
715.508	15.46
715.535	7.46
715.562	10.46
715.588	-1.54
715.615	-2.54
715.642	7.46
715.669	7.46
715.695	11.46
715.722	3.46
715.749	6.46
715.776	14.46
715.802	-13.54
715.829	13.46
715.856	-0.54
715.883	1.46
715.909	-5.54
715.936	-9.54
715.963	0.46
715.99	-2.54
716.016	-20.54
716.043	-5.54
716.07	-1.54
716.096	-6.54
716.123	5.46
716.15	12.46
716.177	1.46
716.203	3.46
716.23	8.46
716.257	6.46
716.283	19.46
716.31	4.46
716.337	-2.54
716.363	-13.54
716.39	0.46
716.417	23.46
716.443	9.46
716.47	18.46
716.497	15.46
716.523	9.46
716.55	17.46
716.577	10.46
716.603	12.46
716.63	2.46
716.657	0.46
716.683	-17.54
716.71	1.46
716.737	-4.54
716.763	-1.54
716.79	-0.54
716.817	9.46
716.843	10.46
716.87	-5.54
716.897	-9.54
716.923	4.46
716.95	-4.54
716.976	3.46
717.003	-16.54
717.03	12.46
717.056	4.46
717.083	-5.54
717.109	-7.54
717.136	4.46
717.163	-9.54
717.189	8.46
717.216	-0.54
717.242	-14.54
717.269	1.46
717.296	3.46
717.322	2.46
717.349	12.46
717.375	3.46
717.402	-6.54
717.428	2.46
717.455	3.46
717.481	14.46
717.508	3.46
717.535	22.46
717.561	12.46
717.588	5.46
717.614	3.46
717.641	-9.54
717.667	-3.54
717.694	7.46
717.72	7.46
717.747	-11.54
717.773	4.46
717.8	-0.54
717.826	8.46
717.853	12.46
717.88	19.46
717.906	-1.54
717.933	2.46
717.959	11.46
717.986	-5.54
718.012	-17.54
718.039	4.46
718.065	16.46
718.092	9.46
718.118	0.46
718.144	-10.54
718.171	20.46
718.197	19.46
718.224	-1.54
718.25	4.46
718.277	4.46
718.303	6.46
718.33	-3.54
718.356	-13.54
718.383	-8.54
718.409	3.46
718.436	-12.54
718.462	7.46
718.489	-9.54
718.515	2.46
718.541	2.46
718.568	2.46
718.594	9.46
718.621	13.46
718.647	-1.54
718.674	15.46
718.7	6.46
718.726	-7.54
718.753	8.46
718.779	11.46
718.806	-0.54
718.832	14.46
718.858	5.46
718.885	6.46
718.911	-6.54
718.938	-0.54
718.964	-7.54
718.99	2.46
719.017	18.46
719.043	1.46
719.07	15.46
719.096	8.46
719.122	12.46
719.149	6.46
719.175	0.46
719.201	6.46
719.228	0.46
719.254	-1.54
719.281	-1.54
719.307	3.46
719.333	-12.54
719.36	11.46
719.386	-4.54
719.412	-9.54
719.439	-9.54
719.465	-10.54
719.491	-8.54
719.518	3.46
719.544	-4.54
719.57	9.46
719.597	10.46
719.623	5.46
719.649	18.46
719.675	13.46
719.702	-7.54
719.728	14.46
719.754	-0.54
719.781	4.46
719.807	-2.54
719.833	-0.54
719.86	3.46
719.886	7.46
719.912	23.46
719.938	0.46
719.965	9.46
719.991	12.46
720.017	7.46
720.044	-6.54
720.07	7.46
720.096	22.46
720.122	3.46
720.149	-0.54
720.175	16.46
720.201	-1.54
720.227	-0.54
720.254	9.46
720.28	-4.54
720.306	-5.54
720.332	-3.54
720.359	-7.54
720.385	-4.54
720.411	0.46
720.437	-1.54
720.463	-8.54
720.49	-9.54
720.516	-10.54
720.542	-5.54
720.568	9.46
720.595	8.46
720.621	2.46
720.647	-3.54
720.673	15.46
720.699	12.46
720.725	5.46
720.752	9.46
720.778	2.46
720.804	4.46
720.83	8.46
720.856	23.46
720.883	1.46
720.909	8.46
720.935	6.46
720.961	15.46
720.987	5.46
721.013	-0.54
721.04	0.46
721.066	5.46
721.092	4.46
721.118	2.46
721.144	8.46
721.17	-3.54
721.196	-7.54
721.223	-8.54
721.249	-7.54
721.275	10.46
721.301	-13.54
721.327	8.46
721.353	9.46
721.379	-5.54
721.405	0.46
721.432	7.46
721.458	-4.54
721.484	0.46
721.51	-9.54
721.536	-2.54
721.562	-2.54
721.588	0.46
721.614	-8.54
721.64	3.46
721.666	13.46
721.693	-4.54
721.719	-0.54
721.745	-24.54
721.771	-12.54
721.797	11.46
721.823	2.46
721.849	19.46
721.875	2.46
721.901	9.46
721.927	14.46
721.953	5.46
721.979	15.46
722.005	-0.54
722.031	-4.54
722.057	4.46
722.083	2.46
722.109	1.46
722.135	19.46
722.161	7.46
722.187	-0.54
722.214	-3.54
722.24	-8.54
722.266	-8.54
722.292	11.46
722.318	17.46
722.344	0.46
722.37	2.46
722.396	16.46
722.422	-11.54
722.448	-1.54
722.474	-3.54
722.5	2.46
722.526	-0.54
722.552	6.46
722.578	-0.54
722.603	5.46
722.629	-0.54
722.655	2.46
722.681	-0.54
722.707	8.46
722.733	2.46
722.759	-16.54
722.785	-2.54
722.811	-17.54
722.837	-4.54
722.863	7.46
722.889	5.46
722.915	-7.54
722.941	-3.54
722.967	11.46
722.993	0.46
723.019	7.46
723.045	8.46
723.071	-2.54
723.097	10.46
723.122	-0.54
723.148	-9.54
723.174	9.46
723.2	19.46
723.226	2.46
723.252	10.46
723.278	8.46
723.304	8.46
723.33	7.46
723.356	4.46
723.381	-6.54
723.407	-20.54
723.433	10.46
723.459	9.46
723.485	6.46
723.511	9.46
723.537	7.46
723.563	11.46
723.588	4.46
723.614	4.46
723.64	-4.54
723.666	9.46
723.692	0.46
723.718	-9.54
723.744	-1.54
723.769	-0.54
723.795	8.46
723.821	12.46
723.847	1.46
723.873	-3.54
723.899	17.46
723.924	8.46
723.95	-0.54
723.976	-11.54
724.002	-0.54
724.028	-0.54
724.053	-9.54
724.079	1.46
724.105	2.46
724.131	0.46
724.157	-8.54
724.182	6.46
724.208	-1.54
724.234	-4.54
724.26	-5.54
724.286	19.46
724.311	-8.54
724.337	-9.54
724.363	-0.54
724.389	11.46
724.415	0.46
724.44	4.46
724.466	0.46
724.492	0.46
724.518	8.46
724.543	-3.54
724.569	8.46
724.595	12.46
724.621	-6.54
724.646	4.46
724.672	11.46
724.698	-0.54
724.723	8.46
724.749	9.46
724.775	14.46
724.801	11.46
724.826	-9.54
724.852	-12.54
724.878	-0.54
724.904	-12.54
724.929	-3.54
724.955	-15.54
724.981	6.46
725.006	3.46
725.032	5.46
725.058	9.46
725.083	-20.54
725.109	-0.54
725.135	-11.54
725.161	8.46
725.186	-15.54
725.212	-9.54
725.238	9.46
725.263	0.46
725.289	-8.54
725.315	-13.54
725.34	8.46
725.366	34.46
725.392	-7.54
725.417	-22.54
725.443	2.46
725.468	-4.54
725.494	3.46
725.52	5.46
725.545	-8.54
725.571	-7.54
725.597	-7.54
725.622	-5.54
725.648	-0.54
725.674	18.46
725.699	13.46
725.725	4.46
725.75	24.46
725.776	-9.54
725.802	-3.54
725.827	-19.54
725.853	2.46
725.878	1.46
725.904	-10.54
725.93	-6.54
725.955	-26.54
725.981	-8.54
726.006	-7.54
726.032	26.46
726.057	11.46
726.083	2.46
726.109	-5.54
726.134	2.46
726.16	-5.54
726.185	0.46
726.211	10.46
726.236	11.46
726.262	7.46
726.288	8.46
726.313	18.46
726.339	-4.54
726.364	0.46
726.39	12.46
726.415	0.46
726.441	-8.54
726.466	-2.54
726.492	7.46
726.517	16.46
726.543	3.46
726.568	-1.54
726.594	7.46
726.619	26.46
726.645	20.46
726.67	7.46
726.696	6.46
726.721	3.46
726.747	-7.54
726.772	4.46
726.798	0.46
726.823	7.46
726.849	10.46
726.874	6.46
726.9	25.46
726.925	6.46
726.951	0.46
726.976	4.46
727.002	4.46
727.027	14.46
727.053	14.46
727.078	-1.54
727.104	7.46
727.129	-4.54
727.155	0.46
727.18	11.46
727.205	4.46
727.231	4.46
727.256	-2.54
727.282	-3.54
727.307	15.46
727.333	16.46
727.358	2.46
727.383	-5.54
727.409	-7.54
727.434	6.46
727.46	7.46
727.485	2.46
727.511	5.46
727.536	-6.54
727.561	-7.54
727.587	-9.54
727.612	-1.54
727.637	-1.54
727.663	17.46
727.688	26.46
727.714	-9.54
727.739	-7.54
727.764	-6.54
727.79	6.46
727.815	3.46
727.841	-7.54
727.866	-0.54
727.891	-4.54
727.917	-27.54
727.942	-7.54
727.967	-6.54
727.993	-7.54
728.018	0.46
728.043	3.46
728.069	7.46
728.094	28.46
728.119	-4.54
728.145	32.46
728.17	7.46
728.195	0.46
728.221	8.46
728.246	-12.54
728.271	-22.54
728.297	-4.54
728.322	2.46
728.347	-3.54
728.373	4.46
728.398	-3.54
728.423	7.46
728.448	3.46
728.474	3.46
728.499	10.46
728.524	-3.54
728.55	-1.54
728.575	-16.54
728.6	-2.54
728.625	-4.54
728.651	-3.54
728.676	-0.54
728.701	-2.54
728.727	-0.54
728.752	-0.54
728.777	0.46
728.802	8.46
728.828	2.46
728.853	2.46
728.878	10.46
728.903	2.46
728.929	-19.54
728.954	-5.54
728.979	9.46
729.004	-0.54
729.03	-5.54
729.055	3.46
729.08	-11.54
729.105	-10.54
729.13	6.46
729.156	18.46
729.181	-11.54
729.206	-17.54
729.231	-8.54
729.256	-4.54
729.282	6.46
729.307	-13.54
729.332	-5.54
729.357	-4.54
729.382	0.46
729.408	9.46
729.433	4.46
729.458	6.46
729.483	6.46
729.508	9.46
729.533	12.46
729.559	7.46
729.584	4.46
729.609	8.46
729.634	16.46
729.659	10.46
729.684	3.46
729.71	17.46
729.735	-5.54
729.76	1.46
729.785	7.46
729.81	7.46
729.835	-11.54
729.86	-20.54
729.886	13.46
729.911	16.46
729.936	-20.54
729.961	4.46
729.986	-7.54
730.011	-1.54
730.036	3.46
730.061	-6.54
730.086	-0.54
730.112	14.46
730.137	17.46
730.162	5.46
730.187	-2.54
730.212	7.46
730.237	3.46
730.262	-1.54
730.287	6.46
730.312	12.46
730.337	0.46
730.362	7.46
730.387	2.46
730.413	-11.54
730.438	-7.54
730.463	-3.54
730.488	10.46
730.513	1.46
730.538	-0.54
730.563	7.46
730.588	-4.54
730.613	6.46
730.638	-5.54
730.663	-0.54
730.688	17.46
730.713	-5.54
730.738	-0.54
730.763	-9.54
730.788	-1.54
730.813	20.46
730.838	-9.54
730.863	3.46
730.888	4.46
730.913	-13.54
730.938	-12.54
730.963	-3.54
730.988	10.46
731.013	30.46
731.038	5.46
731.063	3.46
731.088	6.46
731.113	-9.54
731.138	-3.54
731.163	-11.54
731.188	1.46
731.213	13.46
731.238	10.46
731.263	3.46
731.288	9.46
731.313	18.46
731.338	14.46
731.363	3.46
731.388	3.46
731.413	0.46
731.438	16.46
731.463	21.46
731.487	9.46
731.512	1.46
731.537	3.46
731.562	4.46
731.587	0.46
731.612	0.46
731.637	-19.54
731.662	3.46
731.687	3.46
731.712	-9.54
731.737	4.46
731.762	-0.54
731.786	23.46
731.811	-1.54
731.836	-8.54
731.861	6.46
731.886	4.46
731.911	10.46
731.936	16.46
731.961	13.46
731.986	-16.54
732.01	-0.54
732.035	-1.54
732.06	7.46
732.085	8.46
732.11	-0.54
732.135	4.46
732.16	-1.54
732.184	0.46
732.209	-9.54
732.234	14.46
732.259	5.46
732.284	17.46
732.309	-5.54
732.334	-0.54
732.358	-1.54
732.383	-5.54
732.408	4.46
732.433	-4.54
732.458	-3.54
732.482	12.46
732.507	-8.54
732.532	-1.54
732.557	17.46
732.582	10.46
732.607	-3.54
732.631	-11.54
732.656	4.46
732.681	-2.54
732.706	2.46
732.73	-2.54
732.755	-3.54
732.78	3.46
732.805	11.46
732.83	4.46
732.854	17.46
732.879	13.46
732.904	2.46
732.929	-1.54
732.953	-0.54
732.978	-2.54
733.003	-4.54
733.028	-8.54
733.052	4.46
733.077	8.46
733.102	12.46
733.127	-5.54
733.151	-5.54
733.176	-7.54
733.201	-3.54
733.226	1.46
733.25	7.46
733.275	9.46
733.3	7.46
733.324	14.46
733.349	3.46
733.374	3.46
733.399	-17.54
733.423	16.46
733.448	-13.54
733.473	7.46
733.497	7.46
733.522	0.46
733.547	9.46
733.571	10.46
733.596	20.46
733.621	15.46
733.646	0.46
733.67	-13.54
733.695	-8.54
733.72	8.46
733.744	18.46
733.769	6.46
733.794	22.46
733.818	15.46
733.843	-3.54
733.867	-16.54
733.892	-8.54
733.917	-9.54
733.941	-1.54
733.966	3.46
733.991	3.46
734.015	11.46
734.04	-2.54
734.065	11.46
734.089	6.46
734.114	-12.54
734.138	-11.54
734.163	-6.54
734.188	7.46
734.212	22.46
734.237	1.46
734.261	8.46
734.286	12.46
734.311	-7.54
734.335	-10.54
734.36	-10.54
734.384	-7.54
734.409	5.46
734.434	-2.54
734.458	8.46
734.483	2.46
734.507	-20.54
734.532	-10.54
734.556	8.46
734.581	1.46
734.606	12.46
734.63	-17.54
734.655	13.46
734.679	8.46
734.704	4.46
734.728	18.46
734.753	-5.54
734.777	0.46
734.802	6.46
734.826	-2.54
734.851	11.46
734.876	10.46
734.9	11.46
734.925	4.46
734.949	15.46
734.974	-10.54
734.998	6.46
735.023	-0.54
735.047	-1.54
735.072	32.46
735.096	6.46
735.121	16.46
735.145	3.46
735.17	7.46
735.194	23.46
735.219	-0.54
735.243	21.46
735.268	12.46
735.292	3.46
735.317	-4.54
735.341	5.46
735.365	-4.54
735.39	8.46
735.414	6.46
735.439	6.46
735.463	-3.54
735.488	5.46
735.512	5.46
735.537	3.46
735.561	3.46
735.586	6.46
735.61	-0.54
735.634	2.46
735.659	14.46
735.683	22.46
735.708	-0.54
735.732	-3.54
735.757	-8.54
735.781	0.46
735.805	5.46
735.83	-8.54
735.854	-0.54
735.879	9.46
735.903	20.46
735.927	27.46
735.952	20.46
735.976	-2.54
736.001	-0.54
736.025	2.46
736.049	15.46
736.074	9.46
736.098	1.46
736.123	2.46
736.147	0.46
736.171	12.46
736.196	14.46
736.22	6.46
736.244	14.46
736.269	2.46
736.293	12.46
736.317	2.46
736.342	4.46
736.366	8.46
736.39	9.46
736.415	8.46
736.439	-0.54
736.463	4.46
736.488	1.46
736.512	-10.54
736.536	2.46
736.561	24.46
736.585	-3.54
736.609	15.46
736.634	2.46
736.658	8.46
736.682	-4.54
736.707	-6.54
736.731	-6.54
736.755	-2.54
736.78	13.46
736.804	4.46
736.828	10.46
736.852	-0.54
736.877	-17.54
736.901	-2.54
736.925	10.46
736.949	12.46
736.974	7.46
736.998	-13.54
737.022	-5.54
737.047	-5.54
737.071	3.46
737.095	11.46
737.119	23.46
737.144	12.46
737.168	10.46
737.192	-12.54
737.216	10.46
737.241	-3.54
737.265	8.46
737.289	19.46
737.313	0.46
737.337	9.46
737.362	1.46
737.386	-6.54
737.41	-16.54
737.434	5.46
737.459	5.46
737.483	4.46
737.507	21.46
737.531	16.46
737.555	15.46
737.58	17.46
737.604	14.46
737.628	5.46
737.652	5.46
737.676	-10.54
737.701	-1.54
737.725	-1.54
737.749	2.46
737.773	-3.54
737.797	5.46
737.821	1.46
737.846	6.46
737.87	25.46
737.894	3.46
737.918	-2.54
737.942	0.46
737.966	15.46
737.99	16.46
738.015	15.46
738.039	10.46
738.063	-5.54
738.087	-3.54
738.111	-3.54
738.135	20.46
738.159	0.46
738.184	3.46
738.208	20.46
738.232	3.46
738.256	18.46
738.28	3.46
738.304	4.46
738.328	-17.54
738.352	5.46
738.376	-0.54
738.4	-2.54
738.425	11.46
738.449	-4.54
738.473	-3.54
738.497	-8.54
738.521	-1.54
738.545	6.46
738.569	4.46
738.593	8.46
738.617	-1.54
738.641	3.46
738.665	-0.54
738.689	4.46
738.713	10.46
738.737	20.46
738.762	12.46
738.786	0.46
738.81	-15.54
738.834	-7.54
738.858	-11.54
738.882	4.46
738.906	-1.54
738.93	13.46
738.954	14.46
738.978	-1.54
739.002	3.46
739.026	-0.54
739.05	-5.54
739.074	0.46
739.098	13.46
739.122	-0.54
739.146	-7.54
739.17	23.46
739.194	17.46
739.218	-6.54
739.242	14.46
739.266	8.46
739.29	3.46
739.314	-0.54
739.338	1.46
739.362	-1.54
739.386	9.46
739.41	-12.54
739.434	0.46
739.458	16.46
739.482	11.46
739.506	13.46
739.53	-12.54
739.554	3.46
739.577	12.46
739.601	28.46
739.625	3.46
739.649	6.46
739.673	-7.54
739.697	5.46
739.721	-2.54
739.745	-0.54
739.769	9.46
739.793	2.46
739.817	12.46
739.841	-4.54
739.865	-1.54
739.889	-7.54
739.912	11.46
739.936	-11.54
739.96	-2.54
739.984	11.46
740.008	1.46
740.032	-9.54
740.056	5.46
740.08	10.46
740.104	-2.54
740.127	0.46
740.151	16.46
740.175	22.46
740.199	6.46
740.223	44.46
740.247	20.46
740.271	14.46
740.295	7.46
740.318	0.46
740.342	10.46
740.366	7.46
740.39	15.46
740.414	-12.54
740.438	-13.54
740.461	0.46
740.485	-1.54
740.509	3.46
740.533	5.46
740.557	-6.54
740.581	0.46
740.604	-3.54
740.628	-0.54
740.652	5.46
740.676	2.46
740.7	8.46
740.723	-11.54
740.747	-7.54
740.771	0.46
740.795	-10.54
740.819	2.46
740.842	10.46
740.866	1.46
740.89	1.46
740.914	0.46
740.938	-0.54
740.961	11.46
740.985	2.46
741.009	-16.54
741.033	4.46
741.056	3.46
741.08	-1.54
741.104	-2.54
741.128	-1.54
741.151	6.46
741.175	1.46
741.199	-4.54
741.223	9.46
741.246	-12.54
741.27	13.46
741.294	3.46
741.318	-2.54
741.341	-12.54
741.365	-3.54
741.389	-1.54
741.413	5.46
741.436	5.46
741.46	7.46
741.484	10.46
741.507	3.46
741.531	22.46
741.555	19.46
741.579	5.46
741.602	19.46
741.626	8.46
741.65	-3.54
741.673	8.46
741.697	5.46
741.721	16.46
741.744	-13.54
741.768	-2.54
741.792	2.46
741.815	-0.54
741.839	6.46
741.863	18.46
741.886	16.46
741.91	25.46
741.934	17.46
741.957	6.46
741.981	0.46
742.005	-3.54
742.028	3.46
742.052	2.46
742.075	-4.54
742.099	4.46
742.123	-1.54
742.146	2.46
742.17	13.46
742.194	-12.54
742.217	11.46
742.241	-1.54
742.264	-5.54
742.288	17.46
742.312	18.46
742.335	1.46
742.359	4.46
742.382	18.46
742.406	5.46
742.43	-11.54
742.453	15.46
742.477	-10.54
742.5	-16.54
742.524	-0.54
742.548	0.46
742.571	8.46
742.595	0.46
742.618	-9.54
742.642	-4.54
742.665	8.46
742.689	11.46
742.712	2.46
742.736	1.46
742.76	2.46
742.783	-0.54
742.807	19.46
742.83	4.46
742.854	-11.54
742.877	1.46
742.901	3.46
742.924	2.46
742.948	11.46
742.971	6.46
742.995	12.46
743.018	-17.54
743.042	-5.54
743.065	-11.54
743.089	-10.54
743.112	16.46
743.136	-5.54
743.159	2.46
743.183	3.46
743.206	0.46
743.23	-12.54
743.253	-2.54
743.277	0.46
743.3	-11.54
743.324	2.46
743.347	-3.54
743.371	15.46
743.394	-0.54
743.418	15.46
743.441	10.46
743.465	3.46
743.488	21.46
743.512	4.46
743.535	2.46
743.558	4.46
743.582	9.46
743.605	2.46
743.629	4.46
743.652	10.46
743.676	-9.54
743.699	6.46
743.723	6.46
743.746	0.46
743.769	-8.54
743.793	6.46
743.816	0.46
743.84	2.46
743.863	4.46
743.886	-0.54
743.91	15.46
743.933	3.46
743.957	7.46
743.98	-1.54
744.003	2.46
744.027	-0.54
744.05	-10.54
744.074	2.46
744.097	-5.54
744.12	-7.54
744.144	-15.54
744.167	9.46
744.19	18.46
744.214	-3.54
744.237	6.46
744.26	31.46
744.284	0.46
744.307	5.46
744.331	14.46
744.354	-16.54
744.377	2.46
744.401	2.46
744.424	11.46
744.447	5.46
744.471	-13.54
