Data from HighRes_H2D2_15_04_11_07_2024_HR4C61891__66__15-05-41-043.txt Node

Date: Thu Nov 07 15:05:41 EST 2024
User: crc00042
Spectrometer: HR4C6189
Trigger mode: 4
Integration Time (sec): 1.000000E-1
Scans to average: 1
Electric dark correction enabled: true
Nonlinearity correction enabled: false
Boxcar width: 0
XAxis mode: Wavelengths
Number of Pixels in Spectrum: 3648
>>>>>Begin Spectral Data<<<<<
639.567	-73.77
639.602	-73.77
639.636	-73.77
639.67	-38.77
639.704	-12.77
639.738	-1.77
639.773	8.23
639.807	-25.77
639.841	-5.77
639.875	10.23
639.909	-0.77
639.943	3.23
639.978	-3.77
640.012	2.23
640.046	11.23
640.08	3.23
640.114	6.23
640.148	-6.77
640.182	-25.77
640.217	-0.77
640.251	23.23
640.285	8.23
640.319	-7.77
640.353	-2.77
640.387	-0.77
640.421	-4.77
640.455	0.23
640.49	-0.77
640.524	-5.77
640.558	13.23
640.592	6.23
640.626	5.23
640.66	20.23
640.694	6.23
640.728	10.23
640.762	21.23
640.796	15.23
640.83	20.23
640.865	-3.77
640.899	2.23
640.933	-8.77
640.967	-8.77
641.001	2.23
641.035	22.23
641.069	8.23
641.103	-5.77
641.137	7.23
641.171	-7.77
641.205	1.23
641.239	-3.77
641.273	26.23
641.307	16.23
641.341	-13.77
641.375	2.23
641.409	-4.77
641.443	4.23
641.477	6.23
641.511	6.23
641.545	13.23
641.579	3.23
641.614	-2.77
641.648	21.23
641.682	-18.77
641.716	16.23
641.75	10.23
641.784	-0.77
641.818	2.23
641.852	4.23
641.886	-12.77
641.919	20.23
641.953	8.23
641.987	-19.77
642.021	-5.77
642.055	7.23
642.089	2.23
642.123	-11.77
642.157	-17.77
642.191	2.23
642.225	3.23
642.259	4.23
642.293	12.23
642.327	4.23
642.361	0.23
642.395	9.23
642.429	20.23
642.463	14.23
642.497	15.23
642.531	0.23
642.565	-13.77
642.599	12.23
642.633	-7.77
642.666	-0.77
642.7	29.23
642.734	12.23
642.768	-12.77
642.802	-12.77
642.836	16.23
642.87	3.23
642.904	11.23
642.938	19.23
642.972	-3.77
643.005	0.23
643.039	13.23
643.073	4.23
643.107	-0.77
643.141	4.23
643.175	2.23
643.209	0.23
643.243	13.23
643.276	13.23
643.31	6.23
643.344	-5.77
643.378	2.23
643.412	3.23
643.446	7.23
643.48	-10.77
643.513	7.23
643.547	16.23
643.581	3.23
643.615	6.23
643.649	3.23
643.683	8.23
643.716	0.23
643.75	1.23
643.784	-10.77
643.818	12.23
643.852	-6.77
643.886	-7.77
643.919	9.23
643.953	13.23
643.987	-0.77
644.021	14.23
644.055	14.23
644.088	8.23
644.122	-15.77
644.156	-9.77
644.19	1.23
644.224	3.23
644.257	19.23
644.291	17.23
644.325	7.23
644.359	-11.77
644.392	33.23
644.426	14.23
644.46	14.23
644.494	4.23
644.527	2.23
644.561	25.23
644.595	6.23
644.629	-8.77
644.662	7.23
644.696	15.23
644.73	14.23
644.764	-0.77
644.797	-5.77
644.831	3.23
644.865	3.23
644.899	2.23
644.932	24.23
644.966	-6.77
645	10.23
645.033	26.23
645.067	-9.77
645.101	-4.77
645.135	-16.77
645.168	-8.77
645.202	-9.77
645.236	-5.77
645.269	21.23
645.303	-2.77
645.337	0.23
645.37	8.23
645.404	-3.77
645.438	-7.77
645.471	-16.77
645.505	5.23
645.539	-11.77
645.572	-3.77
645.606	-22.77
645.64	8.23
645.673	6.23
645.707	12.23
645.741	-2.77
645.774	-11.77
645.808	15.23
645.842	1.23
645.875	-3.77
645.909	-4.77
645.943	-1.77
645.976	-1.77
646.01	17.23
646.043	6.23
646.077	7.23
646.111	10.23
646.144	8.23
646.178	29.23
646.212	-5.77
646.245	-3.77
646.279	19.23
646.312	-7.77
646.346	7.23
646.38	-1.77
646.413	5.23
646.447	-0.77
646.48	-2.77
646.514	14.23
646.547	-3.77
646.581	-8.77
646.615	-1.77
646.648	-7.77
646.682	10.23
646.715	6.23
646.749	24.23
646.782	2.23
646.816	-4.77
646.85	2.23
646.883	-11.77
646.917	9.23
646.95	8.23
646.984	17.23
647.017	10.23
647.051	12.23
647.084	3.23
647.118	-3.77
647.151	-1.77
647.185	23.23
647.218	-14.77
647.252	6.23
647.285	-23.77
647.319	-6.77
647.353	4.23
647.386	12.23
647.42	-14.77
647.453	-15.77
647.487	-3.77
647.52	10.23
647.553	5.23
647.587	1.23
647.62	0.23
647.654	13.23
647.687	7.23
647.721	8.23
647.754	7.23
647.788	6.23
647.821	-10.77
647.855	-4.77
647.888	15.23
647.922	26.23
647.955	-1.77
647.989	9.23
648.022	5.23
648.055	5.23
648.089	1.23
648.122	9.23
648.156	-0.77
648.189	1.23
648.223	11.23
648.256	6.23
648.29	2.23
648.323	9.23
648.356	9.23
648.39	9.23
648.423	-3.77
648.457	9.23
648.49	9.23
648.523	4.23
648.557	6.23
648.59	-2.77
648.624	-0.77
648.657	-4.77
648.69	5.23
648.724	11.23
648.757	7.23
648.791	7.23
648.824	5.23
648.857	14.23
648.891	7.23
648.924	5.23
648.957	24.23
648.991	9.23
649.024	24.23
649.057	10.23
649.091	2.23
649.124	23.23
649.158	9.23
649.191	19.23
649.224	-7.77
649.258	3.23
649.291	-0.77
649.324	-2.77
649.358	13.23
649.391	16.23
649.424	6.23
649.458	-16.77
649.491	-2.77
649.524	-2.77
649.557	1.23
649.591	-3.77
649.624	22.23
649.657	8.23
649.691	12.23
649.724	20.23
649.757	-3.77
649.791	-4.77
649.824	21.23
649.857	21.23
649.89	2.23
649.924	3.23
649.957	-1.77
649.99	-5.77
650.023	11.23
650.057	2.23
650.09	4.23
650.123	8.23
650.157	25.23
650.19	30.23
650.223	6.23
650.256	6.23
650.29	-7.77
650.323	5.23
650.356	9.23
650.389	4.23
650.423	-5.77
650.456	23.23
650.489	13.23
650.522	9.23
650.555	23.23
650.589	16.23
650.622	2.23
650.655	17.23
650.688	-3.77
650.721	-14.77
650.755	0.23
650.788	9.23
650.821	9.23
650.854	-0.77
650.887	18.23
650.921	10.23
650.954	-17.77
650.987	0.23
651.02	-14.77
651.053	-14.77
651.087	-22.77
651.12	33.23
651.153	19.23
651.186	9.23
651.219	-16.77
651.252	-1.77
651.286	8.23
651.319	-3.77
651.352	7.23
651.385	5.23
651.418	0.23
651.451	3.23
651.484	13.23
651.518	7.23
651.551	36.23
651.584	5.23
651.617	23.23
651.65	10.23
651.683	17.23
651.716	12.23
651.749	-6.77
651.783	10.23
651.816	11.23
651.849	2.23
651.882	-4.77
651.915	-8.77
651.948	3.23
651.981	-19.77
652.014	-19.77
652.047	-15.77
652.08	-1.77
652.114	14.23
652.147	10.23
652.18	-7.77
652.213	18.23
652.246	-12.77
652.279	-1.77
652.312	19.23
652.345	-7.77
652.378	24.23
652.411	14.23
652.444	13.23
652.477	9.23
652.51	0.23
652.543	3.23
652.576	12.23
652.609	-4.77
652.642	8.23
652.675	10.23
652.709	-0.77
652.742	6.23
652.775	1.23
652.808	7.23
652.841	15.23
652.874	19.23
652.907	3.23
652.94	-12.77
652.973	0.23
653.006	4.23
653.039	3.23
653.072	4.23
653.105	14.23
653.138	-3.77
653.171	10.23
653.204	14.23
653.237	-12.77
653.27	-9.77
653.303	14.23
653.336	2.23
653.368	-0.77
653.401	12.23
653.434	9.23
653.467	3.23
653.5	2.23
653.533	-7.77
653.566	5.23
653.599	17.23
653.632	9.23
653.665	5.23
653.698	-11.77
653.731	-9.77
653.764	-6.77
653.797	12.23
653.83	21.23
653.863	17.23
653.896	6.23
653.929	5.23
653.961	7.23
653.994	1.23
654.027	-13.77
654.06	11.23
654.093	-8.77
654.126	2.23
654.159	-18.77
654.192	22.23
654.225	-7.77
654.258	-2.77
654.29	4.23
654.323	1.23
654.356	-12.77
654.389	-9.77
654.422	9.23
654.455	11.23
654.488	8.23
654.521	0.23
654.553	11.23
654.586	16.23
654.619	-8.77
654.652	-0.77
654.685	-2.77
654.718	-4.77
654.751	22.23
654.783	-11.77
654.816	25.23
654.849	9.23
654.882	2.23
654.915	9.23
654.948	14.23
654.98	11.23
655.013	11.23
655.046	17.23
655.079	0.23
655.112	4.23
655.144	5.23
655.177	5.23
655.21	6.23
655.243	18.23
655.276	3.23
655.308	-5.77
655.341	-3.77
655.374	7.23
655.407	-6.77
655.44	-11.77
655.472	7.23
655.505	8.23
655.538	5.23
655.571	13.23
655.603	7.23
655.636	-6.77
655.669	4.23
655.702	4.23
655.734	-5.77
655.767	4.23
655.8	7.23
655.833	2.23
655.865	17.23
655.898	11.23
655.931	9.23
655.964	15.23
655.996	18.23
656.029	52.23
656.062	38.23
656.095	52.23
656.127	91.23
656.16	207.23
656.193	608.23
656.225	927.23
656.258	571.23
656.291	232.23
656.324	189.23
656.356	361.23
656.389	758.23
656.422	675.23
656.454	219.23
656.487	96.23
656.52	49.23
656.552	4.23
656.585	18.23
656.618	-2.77
656.65	12.23
656.683	7.23
656.716	11.23
656.748	-3.77
656.781	-2.77
656.814	-2.77
656.846	0.23
656.879	8.23
656.912	-2.77
656.944	-12.77
656.977	-8.77
657.01	7.23
657.042	10.23
657.075	8.23
657.108	-3.77
657.14	7.23
657.173	14.23
657.205	24.23
657.238	13.23
657.271	2.23
657.303	-4.77
657.336	15.23
657.369	1.23
657.401	9.23
657.434	6.23
657.466	14.23
657.499	-4.77
657.532	0.23
657.564	4.23
657.597	6.23
657.629	10.23
657.662	13.23
657.694	12.23
657.727	-2.77
657.76	12.23
657.792	-12.77
657.825	-4.77
657.857	-1.77
657.89	7.23
657.922	24.23
657.955	-1.77
657.987	-0.77
658.02	12.23
658.053	7.23
658.085	8.23
658.118	2.23
658.15	0.23
658.183	10.23
658.215	7.23
658.248	-5.77
658.28	2.23
658.313	14.23
658.345	22.23
658.378	5.23
658.41	9.23
658.443	7.23
658.475	8.23
658.508	-5.77
658.54	12.23
658.573	-13.77
658.605	-23.77
658.638	-4.77
658.67	-1.77
658.703	1.23
658.735	-9.77
658.768	12.23
658.8	0.23
658.833	17.23
658.865	1.23
658.898	-4.77
658.93	-7.77
658.963	8.23
658.995	1.23
659.028	12.23
659.06	1.23
659.092	6.23
659.125	-4.77
659.157	24.23
659.19	-14.77
659.222	-7.77
659.255	16.23
659.287	13.23
659.32	7.23
659.352	7.23
659.384	14.23
659.417	-3.77
659.449	10.23
659.482	2.23
659.514	12.23
659.546	3.23
659.579	-13.77
659.611	9.23
659.644	7.23
659.676	-25.77
659.708	-7.77
659.741	4.23
659.773	-1.77
659.806	4.23
659.838	11.23
659.87	-7.77
659.903	-3.77
659.935	9.23
659.967	7.23
660	19.23
660.032	-4.77
660.065	12.23
660.097	9.23
660.129	1.23
660.162	-5.77
660.194	17.23
660.226	12.23
660.259	-7.77
660.291	12.23
660.323	1.23
660.356	-2.77
660.388	-7.77
660.42	-0.77
660.453	23.23
660.485	-8.77
660.517	15.23
660.55	11.23
660.582	3.23
660.614	8.23
660.647	10.23
660.679	11.23
660.711	21.23
660.743	-3.77
660.776	-0.77
660.808	-4.77
660.84	3.23
660.873	13.23
660.905	-9.77
660.937	11.23
660.969	-3.77
661.002	12.23
661.034	12.23
661.066	-3.77
661.099	8.23
661.131	19.23
661.163	3.23
661.195	5.23
661.228	5.23
661.26	3.23
661.292	2.23
661.324	1.23
661.357	3.23
661.389	8.23
661.421	22.23
661.453	-0.77
661.485	1.23
661.518	6.23
661.55	-25.77
661.582	-22.77
661.614	8.23
661.647	21.23
661.679	13.23
661.711	18.23
661.743	-0.77
661.775	9.23
661.808	28.23
661.84	-0.77
661.872	7.23
661.904	5.23
661.936	-5.77
661.969	-6.77
662.001	6.23
662.033	9.23
662.065	11.23
662.097	19.23
662.129	13.23
662.162	-12.77
662.194	13.23
662.226	-12.77
662.258	14.23
662.29	-1.77
662.322	2.23
662.355	-4.77
662.387	20.23
662.419	14.23
662.451	8.23
662.483	11.23
662.515	-5.77
662.547	-6.77
662.58	1.23
662.612	-12.77
662.644	-9.77
662.676	7.23
662.708	31.23
662.74	-2.77
662.772	1.23
662.804	10.23
662.836	6.23
662.869	0.23
662.901	17.23
662.933	6.23
662.965	13.23
662.997	6.23
663.029	-4.77
663.061	-3.77
663.093	-1.77
663.125	3.23
663.157	8.23
663.189	-4.77
663.221	11.23
663.254	7.23
663.286	16.23
663.318	3.23
663.35	-4.77
663.382	-3.77
663.414	-4.77
663.446	17.23
663.478	4.23
663.51	27.23
663.542	-6.77
663.574	-1.77
663.606	12.23
663.638	-7.77
663.67	-12.77
663.702	-15.77
663.734	-4.77
663.766	9.23
663.798	-10.77
663.83	3.23
663.862	2.23
663.894	17.23
663.926	-5.77
663.958	17.23
663.99	1.23
664.022	-13.77
664.054	-0.77
664.086	-0.77
664.118	-9.77
664.15	-11.77
664.182	9.23
664.214	2.23
664.246	8.23
664.278	-5.77
664.31	1.23
664.342	-0.77
664.374	-11.77
664.406	-18.77
664.438	9.23
664.47	20.23
664.502	14.23
664.534	7.23
664.566	1.23
664.598	14.23
664.63	-2.77
664.662	11.23
664.693	-5.77
664.725	4.23
664.757	0.23
664.789	4.23
664.821	1.23
664.853	16.23
664.885	14.23
664.917	4.23
664.949	16.23
664.981	15.23
665.013	13.23
665.045	-14.77
665.076	9.23
665.108	-0.77
665.14	-2.77
665.172	8.23
665.204	2.23
665.236	-6.77
665.268	-3.77
665.3	-8.77
665.331	8.23
665.363	20.23
665.395	-5.77
665.427	-0.77
665.459	8.23
665.491	-6.77
665.523	-13.77
665.555	-8.77
665.586	-0.77
665.618	7.23
665.65	-6.77
665.682	3.23
665.714	4.23
665.746	-3.77
665.777	13.23
665.809	7.23
665.841	14.23
665.873	-2.77
665.905	5.23
665.937	7.23
665.968	7.23
666	21.23
666.032	11.23
666.064	-16.77
666.096	7.23
666.127	-0.77
666.159	13.23
666.191	5.23
666.223	-5.77
666.255	-12.77
666.286	17.23
666.318	2.23
666.35	22.23
666.382	12.23
666.413	-12.77
666.445	-10.77
666.477	-7.77
666.509	-9.77
666.54	-0.77
666.572	-2.77
666.604	13.23
666.636	7.23
666.667	6.23
666.699	16.23
666.731	7.23
666.763	-5.77
666.794	-3.77
666.826	7.23
666.858	2.23
666.89	14.23
666.921	13.23
666.953	2.23
666.985	33.23
667.017	25.23
667.048	-3.77
667.08	3.23
667.112	1.23
667.143	-14.77
667.175	5.23
667.207	-9.77
667.238	-4.77
667.27	6.23
667.302	-2.77
667.334	-2.77
667.365	-1.77
667.397	3.23
667.429	-1.77
667.46	12.23
667.492	8.23
667.524	-7.77
667.555	-12.77
667.587	-2.77
667.619	-1.77
667.65	2.23
667.682	4.23
667.714	3.23
667.745	3.23
667.777	-12.77
667.808	-4.77
667.84	13.23
667.872	1.23
667.903	26.23
667.935	-9.77
667.967	6.23
667.998	-7.77
668.03	-13.77
668.061	9.23
668.093	10.23
668.125	9.23
668.156	5.23
668.188	-12.77
668.22	-0.77
668.251	10.23
668.283	11.23
668.314	16.23
668.346	-1.77
668.377	3.23
668.409	6.23
668.441	4.23
668.472	-11.77
668.504	9.23
668.535	-6.77
668.567	15.23
668.599	2.23
668.63	14.23
668.662	7.23
668.693	15.23
668.725	-2.77
668.756	5.23
668.788	2.23
668.819	-8.77
668.851	11.23
668.882	-4.77
668.914	-5.77
668.946	-3.77
668.977	1.23
669.009	4.23
669.04	-5.77
669.072	6.23
669.103	15.23
669.135	10.23
669.166	-11.77
669.198	1.23
669.229	-4.77
669.261	2.23
669.292	3.23
669.324	-4.77
669.355	19.23
669.387	-19.77
669.418	6.23
669.45	0.23
669.481	-15.77
669.513	15.23
669.544	12.23
669.576	3.23
669.607	6.23
669.639	15.23
669.67	-1.77
669.701	8.23
669.733	8.23
669.764	-7.77
669.796	3.23
669.827	-2.77
669.859	-0.77
669.89	14.23
669.922	13.23
669.953	12.23
669.985	-2.77
670.016	14.23
670.047	4.23
670.079	-16.77
670.11	11.23
670.142	3.23
670.173	10.23
670.204	-8.77
670.236	0.23
670.267	-1.77
670.299	6.23
670.33	5.23
670.362	9.23
670.393	7.23
670.424	0.23
670.456	-14.77
670.487	-3.77
670.518	-1.77
670.55	-6.77
670.581	-8.77
670.613	7.23
670.644	9.23
670.675	-8.77
670.707	-1.77
670.738	3.23
670.769	4.23
670.801	1.23
670.832	6.23
670.864	-1.77
670.895	17.23
670.926	14.23
670.958	22.23
670.989	1.23
671.02	-8.77
671.052	19.23
671.083	-4.77
671.114	8.23
671.146	8.23
671.177	-5.77
671.208	1.23
671.24	-9.77
671.271	12.23
671.302	-3.77
671.333	-4.77
671.365	-11.77
671.396	0.23
671.427	15.23
671.459	10.23
671.49	18.23
671.521	22.23
671.553	15.23
671.584	21.23
671.615	4.23
671.646	11.23
671.678	3.23
671.709	1.23
671.74	-11.77
671.771	2.23
671.803	-9.77
671.834	7.23
671.865	11.23
671.896	5.23
671.928	10.23
671.959	0.23
671.99	5.23
672.021	3.23
672.053	-3.77
672.084	17.23
672.115	8.23
672.146	2.23
672.178	-16.77
672.209	-18.77
672.24	-11.77
672.271	25.23
672.303	6.23
672.334	3.23
672.365	1.23
672.396	-2.77
672.427	18.23
672.459	2.23
672.49	19.23
672.521	16.23
672.552	-1.77
672.583	10.23
672.615	15.23
672.646	12.23
672.677	3.23
672.708	1.23
672.739	-3.77
672.77	5.23
672.802	-4.77
672.833	8.23
672.864	0.23
672.895	9.23
672.926	6.23
672.957	-8.77
672.989	6.23
673.02	8.23
673.051	7.23
673.082	9.23
673.113	14.23
673.144	10.23
673.175	8.23
673.206	7.23
673.238	-1.77
673.269	7.23
673.3	-3.77
673.331	5.23
673.362	14.23
673.393	6.23
673.424	1.23
673.455	29.23
673.487	4.23
673.518	6.23
673.549	-13.77
673.58	-9.77
673.611	-2.77
673.642	2.23
673.673	-9.77
673.704	-12.77
673.735	-2.77
673.766	-3.77
673.797	5.23
673.828	-4.77
673.86	-1.77
673.891	-12.77
673.922	-0.77
673.953	-4.77
673.984	4.23
674.015	8.23
674.046	1.23
674.077	12.23
674.108	-13.77
674.139	2.23
674.17	7.23
674.201	17.23
674.232	-2.77
674.263	-9.77
674.294	5.23
674.325	-3.77
674.356	4.23
674.387	13.23
674.418	13.23
674.449	-3.77
674.48	7.23
674.511	8.23
674.542	-12.77
674.573	-15.77
674.604	11.23
674.635	-3.77
674.666	8.23
674.697	-6.77
674.728	1.23
674.759	-8.77
674.79	-8.77
674.821	-17.77
674.852	5.23
674.883	4.23
674.914	19.23
674.945	-5.77
674.976	-1.77
675.007	4.23
675.038	7.23
675.069	-5.77
675.1	12.23
675.131	14.23
675.162	10.23
675.193	-13.77
675.224	7.23
675.254	9.23
675.285	21.23
675.316	19.23
675.347	5.23
675.378	2.23
675.409	-1.77
675.44	14.23
675.471	17.23
675.502	8.23
675.533	0.23
675.564	-11.77
675.595	-8.77
675.625	8.23
675.656	26.23
675.687	13.23
675.718	-4.77
675.749	5.23
675.78	2.23
675.811	13.23
675.842	7.23
675.873	3.23
675.903	-16.77
675.934	9.23
675.965	-8.77
675.996	-11.77
676.027	1.23
676.058	9.23
676.089	-7.77
676.119	-5.77
676.15	4.23
676.181	11.23
676.212	-5.77
676.243	15.23
676.274	7.23
676.304	19.23
676.335	8.23
676.366	19.23
676.397	14.23
676.428	7.23
676.459	1.23
676.489	0.23
676.52	18.23
676.551	26.23
676.582	-13.77
676.613	7.23
676.643	-1.77
676.674	15.23
676.705	3.23
676.736	22.23
676.767	4.23
676.797	8.23
676.828	12.23
676.859	-8.77
676.89	8.23
676.92	8.23
676.951	14.23
676.982	6.23
677.013	-1.77
677.044	15.23
677.074	8.23
677.105	-14.77
677.136	15.23
677.167	-5.77
677.197	8.23
677.228	-0.77
677.259	-7.77
677.289	11.23
677.32	3.23
677.351	-8.77
677.382	-2.77
677.412	5.23
677.443	6.23
677.474	4.23
677.505	-5.77
677.535	7.23
677.566	3.23
677.597	-2.77
677.627	5.23
677.658	-0.77
677.689	-4.77
677.72	14.23
677.75	3.23
677.781	14.23
677.812	8.23
677.842	7.23
677.873	2.23
677.904	16.23
677.934	-0.77
677.965	-12.77
677.996	6.23
678.026	11.23
678.057	4.23
678.088	-3.77
678.118	7.23
678.149	-22.77
678.18	-5.77
678.21	5.23
678.241	10.23
678.272	-0.77
678.302	10.23
678.333	5.23
678.363	14.23
678.394	-0.77
678.425	10.23
678.455	2.23
678.486	17.23
678.517	5.23
678.547	-7.77
678.578	1.23
678.608	-8.77
678.639	8.23
678.67	12.23
678.7	-1.77
678.731	-6.77
678.761	3.23
678.792	9.23
678.823	4.23
678.853	5.23
678.884	-2.77
678.914	14.23
678.945	16.23
678.975	-6.77
679.006	9.23
679.037	1.23
679.067	30.23
679.098	-1.77
679.128	1.23
679.159	0.23
679.189	11.23
679.22	2.23
679.25	4.23
679.281	1.23
679.312	-11.77
679.342	7.23
679.373	18.23
679.403	-9.77
679.434	9.23
679.464	-0.77
679.495	-2.77
679.525	0.23
679.556	-2.77
679.586	15.23
679.617	23.23
679.647	22.23
679.678	21.23
679.708	2.23
679.739	5.23
679.769	-5.77
679.8	-16.77
679.83	-2.77
679.861	3.23
679.891	-6.77
679.922	-2.77
679.952	10.23
679.983	8.23
680.013	-4.77
680.044	1.23
680.074	1.23
680.105	7.23
680.135	11.23
680.165	24.23
680.196	14.23
680.226	28.23
680.257	8.23
680.287	15.23
680.318	-2.77
680.348	-9.77
680.379	3.23
680.409	10.23
680.439	-6.77
680.47	10.23
680.5	-9.77
680.531	2.23
680.561	7.23
680.592	8.23
680.622	23.23
680.652	15.23
680.683	21.23
680.713	3.23
680.744	-6.77
680.774	-19.77
680.804	31.23
680.835	-2.77
680.865	-7.77
680.896	17.23
680.926	8.23
680.956	1.23
680.987	-2.77
681.017	2.23
681.047	6.23
681.078	13.23
681.108	2.23
681.139	8.23
681.169	20.23
681.199	3.23
681.23	2.23
681.26	8.23
681.29	7.23
681.321	8.23
681.351	5.23
681.381	-21.77
681.412	-1.77
681.442	3.23
681.472	24.23
681.503	12.23
681.533	9.23
681.563	-10.77
681.594	-7.77
681.624	1.23
681.654	11.23
681.685	0.23
681.715	9.23
681.745	8.23
681.775	-2.77
681.806	4.23
681.836	8.23
681.866	9.23
681.897	10.23
681.927	11.23
681.957	-5.77
681.987	7.23
682.018	8.23
682.048	-2.77
682.078	11.23
682.109	17.23
682.139	8.23
682.169	2.23
682.199	7.23
682.23	-3.77
682.26	9.23
682.29	3.23
682.32	7.23
682.351	2.23
682.381	7.23
682.411	2.23
682.441	6.23
682.472	-1.77
682.502	12.23
682.532	2.23
682.562	2.23
682.592	9.23
682.623	21.23
682.653	5.23
682.683	1.23
682.713	5.23
682.743	2.23
682.774	-4.77
682.804	1.23
682.834	17.23
682.864	3.23
682.894	-5.77
682.925	11.23
682.955	17.23
682.985	-14.77
683.015	-6.77
683.045	21.23
683.076	7.23
683.106	-8.77
683.136	1.23
683.166	-8.77
683.196	-11.77
683.226	3.23
683.257	4.23
683.287	-16.77
683.317	-5.77
683.347	-9.77
683.377	-3.77
683.407	7.23
683.437	11.23
683.468	28.23
683.498	7.23
683.528	-3.77
683.558	0.23
683.588	3.23
683.618	-16.77
683.648	-1.77
683.678	1.23
683.708	1.23
683.739	12.23
683.769	2.23
683.799	11.23
683.829	2.23
683.859	12.23
683.889	18.23
683.919	13.23
683.949	9.23
683.979	-7.77
684.009	-7.77
684.039	7.23
684.07	-11.77
684.1	3.23
684.13	1.23
684.16	4.23
684.19	4.23
684.22	-4.77
684.25	14.23
684.28	9.23
684.31	20.23
684.34	17.23
684.37	2.23
684.4	-9.77
684.43	6.23
684.46	0.23
684.49	11.23
684.52	17.23
684.55	22.23
684.58	-2.77
684.61	9.23
684.64	4.23
684.67	29.23
684.7	7.23
684.73	7.23
684.76	-6.77
684.79	15.23
684.82	-1.77
684.85	-14.77
684.88	2.23
684.91	16.23
684.94	19.23
684.97	6.23
685	-5.77
685.03	4.23
685.06	10.23
685.09	15.23
685.12	16.23
685.15	0.23
685.18	17.23
685.21	18.23
685.24	7.23
685.27	24.23
685.3	3.23
685.33	13.23
685.36	-13.77
685.39	-8.77
685.42	-1.77
685.45	-4.77
685.48	1.23
685.51	-0.77
685.54	8.23
685.569	3.23
685.599	11.23
685.629	10.23
685.659	-5.77
685.689	3.23
685.719	12.23
685.749	1.23
685.779	7.23
685.809	-5.77
685.839	9.23
685.869	8.23
685.898	7.23
685.928	-9.77
685.958	8.23
685.988	14.23
686.018	7.23
686.048	10.23
686.078	15.23
686.108	10.23
686.137	13.23
686.167	15.23
686.197	7.23
686.227	9.23
686.257	28.23
686.287	26.23
686.317	2.23
686.346	11.23
686.376	-11.77
686.406	1.23
686.436	17.23
686.466	7.23
686.496	13.23
686.525	-7.77
686.555	-5.77
686.585	4.23
686.615	20.23
686.645	10.23
686.675	-3.77
686.704	3.23
686.734	3.23
686.764	7.23
686.794	9.23
686.824	7.23
686.853	15.23
686.883	18.23
686.913	12.23
686.943	10.23
686.973	9.23
687.002	11.23
687.032	5.23
687.062	-11.77
687.092	21.23
687.121	-5.77
687.151	5.23
687.181	6.23
687.211	19.23
687.24	8.23
687.27	8.23
687.3	7.23
687.33	10.23
687.359	-11.77
687.389	3.23
687.419	8.23
687.449	7.23
687.478	3.23
687.508	17.23
687.538	9.23
687.568	10.23
687.597	-8.77
687.627	14.23
687.657	9.23
687.686	6.23
687.716	28.23
687.746	16.23
687.776	3.23
687.805	9.23
687.835	2.23
687.865	24.23
687.894	18.23
687.924	9.23
687.954	8.23
687.983	3.23
688.013	9.23
688.043	6.23
688.072	0.23
688.102	15.23
688.132	2.23
688.161	1.23
688.191	4.23
688.221	23.23
688.25	-15.77
688.28	7.23
688.31	-4.77
688.339	6.23
688.369	2.23
688.399	4.23
688.428	-1.77
688.458	4.23
688.488	7.23
688.517	10.23
688.547	-0.77
688.576	36.23
688.606	17.23
688.636	-6.77
688.665	11.23
688.695	30.23
688.725	8.23
688.754	15.23
688.784	-9.77
688.813	18.23
688.843	15.23
688.873	18.23
688.902	-1.77
688.932	-3.77
688.961	15.23
688.991	18.23
689.02	10.23
689.05	1.23
689.08	20.23
689.109	13.23
689.139	-7.77
689.168	3.23
689.198	10.23
689.227	0.23
689.257	18.23
689.287	21.23
689.316	3.23
689.346	-8.77
689.375	-3.77
689.405	12.23
689.434	3.23
689.464	24.23
689.493	4.23
689.523	16.23
689.552	6.23
689.582	6.23
689.611	2.23
689.641	-3.77
689.67	10.23
689.7	23.23
689.73	11.23
689.759	-3.77
689.789	9.23
689.818	-2.77
689.848	7.23
689.877	12.23
689.906	-0.77
689.936	-3.77
689.965	24.23
689.995	5.23
690.024	-5.77
690.054	1.23
690.083	16.23
690.113	12.23
690.142	12.23
690.172	20.23
690.201	9.23
690.231	-4.77
690.26	9.23
690.29	-2.77
690.319	21.23
690.348	12.23
690.378	5.23
690.407	6.23
690.437	0.23
690.466	-3.77
690.496	-5.77
690.525	8.23
690.555	5.23
690.584	12.23
690.613	12.23
690.643	24.23
690.672	10.23
690.702	6.23
690.731	6.23
690.76	12.23
690.79	-7.77
690.819	-1.77
690.849	-0.77
690.878	9.23
690.907	-5.77
690.937	-0.77
690.966	5.23
690.996	-17.77
691.025	3.23
691.054	6.23
691.084	16.23
691.113	12.23
691.142	11.23
691.172	12.23
691.201	33.23
691.23	11.23
691.26	10.23
691.289	10.23
691.319	7.23
691.348	7.23
691.377	18.23
691.407	-1.77
691.436	12.23
691.465	18.23
691.495	-0.77
691.524	6.23
691.553	-8.77
691.583	2.23
691.612	29.23
691.641	11.23
691.67	-4.77
691.7	-2.77
691.729	-4.77
691.758	8.23
691.788	-2.77
691.817	10.23
691.846	-1.77
691.876	9.23
691.905	11.23
691.934	3.23
691.963	10.23
691.993	16.23
692.022	-8.77
692.051	5.23
692.081	15.23
692.11	30.23
692.139	11.23
692.168	5.23
692.198	31.23
692.227	4.23
692.256	7.23
692.285	2.23
692.315	-0.77
692.344	9.23
692.373	6.23
692.402	-24.77
692.432	-11.77
692.461	10.23
692.49	4.23
692.519	0.23
692.548	3.23
692.578	17.23
692.607	-1.77
692.636	0.23
692.665	22.23
692.694	-1.77
692.724	3.23
692.753	2.23
692.782	18.23
692.811	2.23
692.84	8.23
692.87	4.23
692.899	12.23
692.928	11.23
692.957	24.23
692.986	21.23
693.016	20.23
693.045	11.23
693.074	16.23
693.103	9.23
693.132	10.23
693.161	17.23
693.191	-3.77
693.22	1.23
693.249	9.23
693.278	8.23
693.307	13.23
693.336	-15.77
693.365	-4.77
693.395	3.23
693.424	15.23
693.453	21.23
693.482	15.23
693.511	29.23
693.54	16.23
693.569	6.23
693.598	2.23
693.628	25.23
693.657	22.23
693.686	27.23
693.715	22.23
693.744	-0.77
693.773	11.23
693.802	7.23
693.831	6.23
693.86	28.23
693.889	3.23
693.919	11.23
693.948	7.23
693.977	12.23
694.006	0.23
694.035	6.23
694.064	-5.77
694.093	3.23
694.122	6.23
694.151	16.23
694.18	22.23
694.209	29.23
694.238	20.23
694.267	30.23
694.296	11.23
694.325	0.23
694.354	23.23
694.383	19.23
694.412	-0.77
694.441	7.23
694.471	-4.77
694.5	-8.77
694.529	4.23
694.558	21.23
694.587	15.23
694.616	14.23
694.645	4.23
694.674	32.23
694.703	20.23
694.732	12.23
694.761	12.23
694.79	2.23
694.819	8.23
694.848	7.23
694.877	11.23
694.906	19.23
694.935	2.23
694.963	25.23
694.992	2.23
695.021	12.23
695.05	15.23
695.079	17.23
695.108	3.23
695.137	44.23
695.166	22.23
695.195	-4.77
695.224	13.23
695.253	11.23
695.282	14.23
695.311	18.23
695.34	20.23
695.369	12.23
695.398	5.23
695.427	13.23
695.456	7.23
695.485	9.23
695.513	0.23
695.542	4.23
695.571	1.23
695.6	15.23
695.629	15.23
695.658	17.23
695.687	18.23
695.716	-4.77
695.745	7.23
695.774	-4.77
695.802	7.23
695.831	25.23
695.86	15.23
695.889	8.23
695.918	10.23
695.947	-3.77
695.976	-0.77
696.005	1.23
696.033	6.23
696.062	17.23
696.091	19.23
696.12	5.23
696.149	12.23
696.178	4.23
696.207	9.23
696.235	-3.77
696.264	12.23
696.293	14.23
696.322	26.23
696.351	19.23
696.38	9.23
696.408	-1.77
696.437	4.23
696.466	-3.77
696.495	29.23
696.524	16.23
696.553	12.23
696.581	15.23
696.61	11.23
696.639	3.23
696.668	9.23
696.697	-0.77
696.725	6.23
696.754	14.23
696.783	17.23
696.812	-11.77
696.84	17.23
696.869	1.23
696.898	13.23
696.927	10.23
696.956	13.23
696.984	-3.77
697.013	-1.77
697.042	15.23
697.071	11.23
697.099	12.23
697.128	7.23
697.157	10.23
697.186	1.23
697.214	2.23
697.243	7.23
697.272	14.23
697.301	8.23
697.329	15.23
697.358	19.23
697.387	25.23
697.415	-0.77
697.444	2.23
697.473	4.23
697.502	-5.77
697.53	20.23
697.559	-1.77
697.588	24.23
697.616	6.23
697.645	4.23
697.674	32.23
697.703	16.23
697.731	17.23
697.76	17.23
697.789	-1.77
697.817	0.23
697.846	21.23
697.875	11.23
697.903	10.23
697.932	13.23
697.961	5.23
697.989	19.23
698.018	18.23
698.047	14.23
698.075	18.23
698.104	0.23
698.133	-3.77
698.161	10.23
698.19	8.23
698.218	3.23
698.247	-2.77
698.276	3.23
698.304	18.23
698.333	8.23
698.362	4.23
698.39	4.23
698.419	11.23
698.447	-12.77
698.476	9.23
698.505	8.23
698.533	8.23
698.562	7.23
698.591	5.23
698.619	-8.77
698.648	2.23
698.676	14.23
698.705	-3.77
698.733	1.23
698.762	3.23
698.791	5.23
698.819	8.23
698.848	7.23
698.876	17.23
698.905	24.23
698.933	15.23
698.962	22.23
698.991	6.23
699.019	16.23
699.048	20.23
699.076	2.23
699.105	-0.77
699.133	11.23
699.162	5.23
699.19	21.23
699.219	18.23
699.248	1.23
699.276	5.23
699.305	8.23
699.333	15.23
699.362	16.23
699.39	24.23
699.419	-9.77
699.447	9.23
699.476	-0.77
699.504	0.23
699.533	0.23
699.561	-0.77
699.59	13.23
699.618	15.23
699.647	12.23
699.675	10.23
699.704	23.23
699.732	14.23
699.761	4.23
699.789	3.23
699.818	2.23
699.846	11.23
699.874	8.23
699.903	11.23
699.931	-0.77
699.96	0.23
699.988	10.23
700.017	13.23
700.045	4.23
700.074	11.23
700.102	7.23
700.13	-3.77
700.159	12.23
700.187	10.23
700.216	-0.77
700.244	-9.77
700.273	-0.77
700.301	-3.77
700.329	11.23
700.358	-0.77
700.386	-8.77
700.415	-6.77
700.443	6.23
700.472	-3.77
700.5	14.23
700.528	9.23
700.557	16.23
700.585	-1.77
700.614	11.23
700.642	23.23
700.67	25.23
700.699	21.23
700.727	13.23
700.755	6.23
700.784	6.23
700.812	14.23
700.841	8.23
700.869	17.23
700.897	-16.77
700.926	-9.77
700.954	0.23
700.982	16.23
701.011	-0.77
701.039	18.23
701.067	2.23
701.096	21.23
701.124	0.23
701.152	19.23
701.181	7.23
701.209	-9.77
701.237	11.23
701.266	2.23
701.294	-12.77
701.322	-4.77
701.351	10.23
701.379	-0.77
701.407	-4.77
701.435	23.23
701.464	35.23
701.492	16.23
701.52	9.23
701.549	4.23
701.577	-5.77
701.605	-5.77
701.634	1.23
701.662	14.23
701.69	12.23
701.718	-3.77
701.747	9.23
701.775	14.23
701.803	7.23
701.831	19.23
701.86	-8.77
701.888	-6.77
701.916	17.23
701.944	16.23
701.973	8.23
702.001	-1.77
702.029	-13.77
702.057	-3.77
702.086	-3.77
702.114	-13.77
702.142	-3.77
702.17	-4.77
702.199	7.23
702.227	12.23
702.255	1.23
702.283	9.23
702.311	7.23
702.34	2.23
702.368	-6.77
702.396	8.23
702.424	2.23
702.452	-22.77
702.481	-4.77
702.509	7.23
702.537	19.23
702.565	17.23
702.593	-16.77
702.621	11.23
702.65	13.23
702.678	15.23
702.706	11.23
702.734	-1.77
702.762	12.23
702.79	6.23
702.819	6.23
702.847	4.23
702.875	4.23
702.903	15.23
702.931	-0.77
702.959	18.23
702.988	1.23
703.016	4.23
703.044	14.23
703.072	8.23
703.1	0.23
703.128	10.23
703.156	4.23
703.184	-2.77
703.212	14.23
703.241	-0.77
703.269	12.23
703.297	3.23
703.325	18.23
703.353	4.23
703.381	10.23
703.409	8.23
703.437	0.23
703.465	-12.77
703.493	-5.77
703.522	2.23
703.55	6.23
703.578	5.23
703.606	-3.77
703.634	6.23
703.662	3.23
703.69	10.23
703.718	-1.77
703.746	24.23
703.774	20.23
703.802	24.23
703.83	6.23
703.858	9.23
703.886	5.23
703.914	-11.77
703.942	25.23
703.97	-9.77
703.998	-2.77
704.027	14.23
704.055	7.23
704.083	2.23
704.111	-2.77
704.139	11.23
704.167	-5.77
704.195	12.23
704.223	-0.77
704.251	-2.77
704.279	3.23
704.307	-1.77
704.335	-1.77
704.363	21.23
704.391	15.23
704.419	-8.77
704.447	7.23
704.475	-11.77
704.503	-16.77
704.531	18.23
704.558	12.23
704.586	17.23
704.614	7.23
704.642	4.23
704.67	-0.77
704.698	-3.77
704.726	2.23
704.754	-1.77
704.782	-7.77
704.81	3.23
704.838	24.23
704.866	18.23
704.894	-12.77
704.922	8.23
704.95	19.23
704.978	19.23
705.006	8.23
705.034	22.23
705.061	5.23
705.089	-4.77
705.117	-5.77
705.145	7.23
705.173	-1.77
705.201	11.23
705.229	-0.77
705.257	-0.77
705.285	17.23
705.313	2.23
705.34	2.23
705.368	2.23
705.396	-3.77
705.424	18.23
705.452	-0.77
705.48	20.23
705.508	13.23
705.536	5.23
705.563	-5.77
705.591	2.23
705.619	0.23
705.647	-8.77
705.675	12.23
705.703	9.23
705.731	12.23
705.758	25.23
705.786	14.23
705.814	23.23
705.842	14.23
705.87	13.23
705.898	1.23
705.925	6.23
705.953	12.23
705.981	3.23
706.009	16.23
706.037	11.23
706.065	3.23
706.092	0.23
706.12	12.23
706.148	-1.77
706.176	2.23
706.204	22.23
706.231	2.23
706.259	-12.77
706.287	-20.77
706.315	-3.77
706.342	-1.77
706.37	16.23
706.398	17.23
706.426	6.23
706.454	0.23
706.481	16.23
706.509	4.23
706.537	-4.77
706.565	-11.77
706.592	1.23
706.62	3.23
706.648	6.23
706.676	-9.77
706.703	-5.77
706.731	-5.77
706.759	-6.77
706.787	19.23
706.814	9.23
706.842	-0.77
706.87	-16.77
706.897	-0.77
706.925	0.23
706.953	7.23
706.981	19.23
707.008	4.23
707.036	8.23
707.064	-4.77
707.091	-6.77
707.119	20.23
707.147	-2.77
707.174	-12.77
707.202	23.23
707.23	-9.77
707.258	7.23
707.285	-0.77
707.313	-5.77
707.341	-1.77
707.368	7.23
707.396	15.23
707.424	15.23
707.451	11.23
707.479	9.23
707.507	7.23
707.534	-8.77
707.562	-2.77
707.59	-0.77
707.617	-7.77
707.645	-23.77
707.672	4.23
707.7	7.23
707.728	8.23
707.755	17.23
707.783	4.23
707.811	4.23
707.838	13.23
707.866	6.23
707.893	8.23
707.921	2.23
707.949	-16.77
707.976	-3.77
708.004	6.23
708.031	-1.77
708.059	-2.77
708.087	17.23
708.114	2.23
708.142	7.23
708.169	0.23
708.197	-12.77
708.225	-7.77
708.252	-8.77
708.28	10.23
708.307	-12.77
708.335	6.23
708.362	-4.77
708.39	-14.77
708.418	2.23
708.445	1.23
708.473	2.23
708.5	-3.77
708.528	11.23
708.555	-3.77
708.583	-2.77
708.61	11.23
708.638	5.23
708.665	4.23
708.693	5.23
708.72	2.23
708.748	0.23
708.776	8.23
708.803	14.23
708.831	15.23
708.858	18.23
708.886	6.23
708.913	-5.77
708.941	-11.77
708.968	22.23
708.996	10.23
709.023	36.23
709.051	7.23
709.078	-5.77
709.105	7.23
709.133	4.23
709.16	10.23
709.188	14.23
709.215	10.23
709.243	-3.77
709.27	-6.77
709.298	-16.77
709.325	-13.77
709.353	-6.77
709.38	-5.77
709.408	7.23
709.435	0.23
709.462	-1.77
709.49	14.23
709.517	6.23
709.545	-0.77
709.572	5.23
709.6	-3.77
709.627	3.23
709.655	4.23
709.682	15.23
709.709	16.23
709.737	0.23
709.764	6.23
709.792	28.23
709.819	5.23
709.846	2.23
709.874	29.23
709.901	25.23
709.929	15.23
709.956	20.23
709.983	-7.77
710.011	6.23
710.038	-4.77
710.066	3.23
710.093	23.23
710.12	-9.77
710.148	-9.77
710.175	-12.77
710.202	0.23
710.23	6.23
710.257	7.23
710.284	26.23
710.312	-4.77
710.339	7.23
710.366	4.23
710.394	-5.77
710.421	12.23
710.448	3.23
710.476	-10.77
710.503	18.23
710.53	18.23
710.558	8.23
710.585	4.23
710.612	6.23
710.64	0.23
710.667	0.23
710.694	5.23
710.722	3.23
710.749	7.23
710.776	19.23
710.804	7.23
710.831	14.23
710.858	-0.77
710.885	-0.77
710.913	5.23
710.94	26.23
710.967	2.23
710.995	4.23
711.022	-6.77
711.049	8.23
711.076	-6.77
711.104	-9.77
711.131	-20.77
711.158	-2.77
711.185	6.23
711.213	-4.77
711.24	-9.77
711.267	-0.77
711.294	-0.77
711.322	8.23
711.349	-1.77
711.376	-9.77
711.403	1.23
711.431	-9.77
711.458	-1.77
711.485	2.23
711.512	2.23
711.54	3.23
711.567	17.23
711.594	-1.77
711.621	6.23
711.648	14.23
711.676	14.23
711.703	16.23
711.73	-7.77
711.757	20.23
711.784	-2.77
711.812	-11.77
711.839	0.23
711.866	-8.77
711.893	-20.77
711.92	-11.77
711.947	19.23
711.975	7.23
712.002	-9.77
712.029	18.23
712.056	6.23
712.083	15.23
712.11	-8.77
712.138	6.23
712.165	7.23
712.192	0.23
712.219	-4.77
712.246	-15.77
712.273	-6.77
712.3	7.23
712.328	17.23
712.355	3.23
712.382	6.23
712.409	10.23
712.436	0.23
712.463	8.23
712.49	14.23
712.517	21.23
712.544	-7.77
712.572	-3.77
712.599	3.23
712.626	10.23
712.653	0.23
712.68	-3.77
712.707	10.23
712.734	7.23
712.761	1.23
712.788	-9.77
712.815	-0.77
712.842	6.23
712.87	0.23
712.897	-8.77
712.924	5.23
712.951	15.23
712.978	19.23
713.005	25.23
713.032	18.23
713.059	3.23
713.086	6.23
713.113	-16.77
713.14	-18.77
713.167	11.23
713.194	8.23
713.221	7.23
713.248	13.23
713.275	3.23
713.302	7.23
713.329	7.23
713.356	7.23
713.383	22.23
713.41	12.23
713.437	-9.77
713.464	-12.77
713.491	12.23
713.518	-9.77
713.545	0.23
713.572	7.23
713.599	20.23
713.626	7.23
713.653	13.23
713.68	-4.77
713.707	-7.77
713.734	5.23
713.761	9.23
713.788	0.23
713.815	30.23
713.842	10.23
713.869	-15.77
713.896	13.23
713.923	-3.77
713.95	-4.77
713.977	7.23
714.004	2.23
714.031	5.23
714.058	5.23
714.085	5.23
714.112	15.23
714.139	5.23
714.165	-4.77
714.192	-7.77
714.219	10.23
714.246	10.23
714.273	6.23
714.3	-8.77
714.327	-3.77
714.354	7.23
714.381	14.23
714.408	1.23
714.435	7.23
714.461	13.23
714.488	13.23
714.515	6.23
714.542	-1.77
714.569	-1.77
714.596	-16.77
714.623	-5.77
714.65	-8.77
714.677	17.23
714.703	18.23
714.73	14.23
714.757	7.23
714.784	6.23
714.811	-0.77
714.838	4.23
714.865	4.23
714.891	11.23
714.918	-9.77
714.945	-8.77
714.972	-12.77
714.999	12.23
715.026	-6.77
715.052	14.23
715.079	10.23
715.106	8.23
715.133	11.23
715.16	4.23
715.187	30.23
715.213	9.23
715.24	-1.77
715.267	1.23
715.294	-0.77
715.321	8.23
715.347	-4.77
715.374	-8.77
715.401	0.23
715.428	-2.77
715.455	19.23
715.481	-7.77
715.508	9.23
715.535	3.23
715.562	26.23
715.588	2.23
715.615	11.23
715.642	7.23
715.669	18.23
715.695	-1.77
715.722	-0.77
715.749	0.23
715.776	21.23
715.802	12.23
715.829	21.23
715.856	-4.77
715.883	12.23
715.909	-3.77
715.936	-0.77
715.963	-5.77
715.99	-2.77
716.016	-2.77
716.043	1.23
716.07	7.23
716.096	1.23
716.123	-4.77
716.15	10.23
716.177	8.23
716.203	1.23
716.23	6.23
716.257	-3.77
716.283	12.23
716.31	-1.77
716.337	-8.77
716.363	-2.77
716.39	0.23
716.417	16.23
716.443	2.23
716.47	5.23
716.497	20.23
716.523	15.23
716.55	7.23
716.577	14.23
716.603	5.23
716.63	3.23
716.657	10.23
716.683	-4.77
716.71	-9.77
716.737	9.23
716.763	-3.77
716.79	2.23
716.817	15.23
716.843	2.23
716.87	0.23
716.897	2.23
716.923	23.23
716.95	-4.77
716.976	-10.77
717.003	-14.77
717.03	7.23
717.056	6.23
717.083	2.23
717.109	4.23
717.136	15.23
717.163	-9.77
717.189	-7.77
717.216	0.23
717.242	1.23
717.269	12.23
717.296	9.23
717.322	18.23
717.349	11.23
717.375	7.23
717.402	7.23
717.428	9.23
717.455	13.23
717.481	7.23
717.508	8.23
717.535	3.23
717.561	6.23
717.588	7.23
717.614	1.23
717.641	14.23
717.667	9.23
717.694	3.23
717.72	3.23
717.747	8.23
717.773	-3.77
717.8	0.23
717.826	1.23
717.853	-9.77
717.88	3.23
717.906	0.23
717.933	6.23
717.959	0.23
717.986	6.23
718.012	1.23
718.039	12.23
718.065	10.23
718.092	6.23
718.118	0.23
718.144	1.23
718.171	19.23
718.197	3.23
718.224	4.23
718.25	2.23
718.277	13.23
718.303	-0.77
718.33	10.23
718.356	-3.77
718.383	-17.77
718.409	-4.77
718.436	-6.77
718.462	-2.77
718.489	0.23
718.515	21.23
718.541	6.23
718.568	20.23
718.594	3.23
718.621	-5.77
718.647	9.23
718.674	0.23
718.7	-2.77
718.726	0.23
718.753	1.23
718.779	0.23
718.806	8.23
718.832	11.23
718.858	-5.77
718.885	-8.77
718.911	9.23
718.938	6.23
718.964	-24.77
718.99	6.23
719.017	14.23
719.043	10.23
719.07	7.23
719.096	-19.77
719.122	-2.77
719.149	15.23
719.175	8.23
719.201	-8.77
719.228	3.23
719.254	-9.77
719.281	-6.77
719.307	6.23
719.333	-3.77
719.36	7.23
719.386	3.23
719.412	10.23
719.439	-16.77
719.465	-9.77
719.491	4.23
719.518	11.23
719.544	8.23
719.57	13.23
719.597	17.23
719.623	8.23
719.649	2.23
719.675	-1.77
719.702	-7.77
719.728	16.23
719.754	-4.77
719.781	6.23
719.807	23.23
719.833	-5.77
719.86	6.23
719.886	0.23
719.912	15.23
719.938	14.23
719.965	9.23
719.991	13.23
720.017	6.23
720.044	0.23
720.07	0.23
720.096	5.23
720.122	6.23
720.149	15.23
720.175	23.23
720.201	10.23
720.227	-1.77
720.254	8.23
720.28	21.23
720.306	2.23
720.332	7.23
720.359	9.23
720.385	12.23
720.411	26.23
720.437	9.23
720.463	8.23
720.49	14.23
720.516	2.23
720.542	-1.77
720.568	8.23
720.595	20.23
720.621	10.23
720.647	9.23
720.673	-0.77
720.699	2.23
720.725	6.23
720.752	16.23
720.778	21.23
720.804	9.23
720.83	23.23
720.856	-6.77
720.883	-7.77
720.909	8.23
720.935	18.23
720.961	11.23
720.987	24.23
721.013	6.23
721.04	1.23
721.066	-5.77
721.092	-5.77
721.118	8.23
721.144	9.23
721.17	4.23
721.196	18.23
721.223	2.23
721.249	-0.77
721.275	19.23
721.301	10.23
721.327	12.23
721.353	14.23
721.379	6.23
721.405	21.23
721.432	23.23
721.458	-7.77
721.484	-1.77
721.51	-7.77
721.536	0.23
721.562	8.23
721.588	14.23
721.614	1.23
721.64	-0.77
721.666	3.23
721.693	-0.77
721.719	1.23
721.745	1.23
721.771	-3.77
721.797	7.23
721.823	14.23
721.849	27.23
721.875	20.23
721.901	16.23
721.927	2.23
721.953	4.23
721.979	20.23
722.005	9.23
722.031	0.23
722.057	13.23
722.083	8.23
722.109	10.23
722.135	13.23
722.161	8.23
722.187	8.23
722.214	-8.77
722.24	-6.77
722.266	-1.77
722.292	27.23
722.318	4.23
722.344	10.23
722.37	22.23
722.396	7.23
722.422	-3.77
722.448	6.23
722.474	-12.77
722.5	20.23
722.526	18.23
722.552	12.23
722.578	19.23
722.603	17.23
722.629	6.23
722.655	4.23
722.681	6.23
722.707	10.23
722.733	9.23
722.759	0.23
722.785	-5.77
722.811	9.23
722.837	5.23
722.863	10.23
722.889	16.23
722.915	13.23
722.941	-6.77
722.967	3.23
722.993	8.23
723.019	27.23
723.045	12.23
723.071	5.23
723.097	5.23
723.122	23.23
723.148	3.23
723.174	10.23
723.2	5.23
723.226	17.23
723.252	15.23
723.278	11.23
723.304	14.23
723.33	0.23
723.356	1.23
723.381	-1.77
723.407	-1.77
723.433	24.23
723.459	12.23
723.485	2.23
723.511	7.23
723.537	7.23
723.563	10.23
723.588	5.23
723.614	11.23
723.64	-4.77
723.666	-6.77
723.692	12.23
723.718	6.23
723.744	5.23
723.769	-1.77
723.795	0.23
723.821	11.23
723.847	-0.77
723.873	13.23
723.899	9.23
723.924	-13.77
723.95	-0.77
723.976	11.23
724.002	14.23
724.028	11.23
724.053	5.23
724.079	9.23
724.105	9.23
724.131	11.23
724.157	6.23
724.182	13.23
724.208	4.23
724.234	6.23
724.26	3.23
724.286	18.23
724.311	1.23
724.337	-12.77
724.363	-0.77
724.389	15.23
724.415	9.23
724.44	15.23
724.466	-2.77
724.492	-3.77
724.518	15.23
724.543	6.23
724.569	10.23
724.595	7.23
724.621	0.23
724.646	-0.77
724.672	-2.77
724.698	1.23
724.723	1.23
724.749	12.23
724.775	13.23
724.801	22.23
724.826	13.23
724.852	3.23
724.878	-6.77
724.904	0.23
724.929	17.23
724.955	-0.77
724.981	16.23
725.006	6.23
725.032	0.23
725.058	8.23
725.083	13.23
725.109	-4.77
725.135	8.23
725.161	1.23
725.186	1.23
725.212	-5.77
725.238	10.23
725.263	0.23
725.289	1.23
725.315	-24.77
725.34	10.23
725.366	1.23
725.392	7.23
725.417	-6.77
725.443	2.23
725.468	15.23
725.494	7.23
725.52	0.23
725.545	10.23
725.571	-9.77
725.597	1.23
725.622	10.23
725.648	9.23
725.674	9.23
725.699	7.23
725.725	15.23
725.75	24.23
725.776	-0.77
725.802	12.23
725.827	4.23
725.853	6.23
725.878	16.23
725.904	5.23
725.93	16.23
725.955	10.23
725.981	-3.77
726.006	7.23
726.032	20.23
726.057	-5.77
726.083	2.23
726.109	0.23
726.134	0.23
726.16	11.23
726.185	-1.77
726.211	-5.77
726.236	18.23
726.262	19.23
726.288	4.23
726.313	18.23
726.339	22.23
726.364	14.23
726.39	10.23
726.415	-1.77
726.441	9.23
726.466	7.23
726.492	6.23
726.517	12.23
726.543	4.23
726.568	-3.77
726.594	6.23
726.619	10.23
726.645	9.23
726.67	8.23
726.696	24.23
726.721	-1.77
726.747	-8.77
726.772	10.23
726.798	-1.77
726.823	14.23
726.849	-1.77
726.874	13.23
726.9	34.23
726.925	17.23
726.951	3.23
726.976	11.23
727.002	-0.77
727.027	4.23
727.053	19.23
727.078	15.23
727.104	13.23
727.129	9.23
727.155	-2.77
727.18	18.23
727.205	-8.77
727.231	-4.77
727.256	2.23
727.282	2.23
727.307	16.23
727.333	7.23
727.358	-0.77
727.383	-14.77
727.409	-13.77
727.434	1.23
727.46	5.23
727.485	5.23
727.511	-0.77
727.536	1.23
727.561	-11.77
727.587	10.23
727.612	7.23
727.637	0.23
727.663	7.23
727.688	22.23
727.714	0.23
727.739	0.23
727.764	4.23
727.79	9.23
727.815	3.23
727.841	18.23
727.866	14.23
727.891	6.23
727.917	1.23
727.942	-3.77
727.967	0.23
727.993	-12.77
728.018	0.23
728.043	0.23
728.069	11.23
728.094	14.23
728.119	6.23
728.145	9.23
728.17	16.23
728.195	3.23
728.221	20.23
728.246	-8.77
728.271	0.23
728.297	7.23
728.322	19.23
728.347	1.23
728.373	11.23
728.398	8.23
728.423	6.23
728.448	8.23
728.474	15.23
728.499	17.23
728.524	6.23
728.55	11.23
728.575	14.23
728.6	-4.77
728.625	8.23
728.651	10.23
728.676	10.23
728.701	3.23
728.727	17.23
728.752	-4.77
728.777	3.23
728.802	2.23
728.828	13.23
728.853	-4.77
728.878	-0.77
728.903	-15.77
728.929	-7.77
728.954	13.23
728.979	22.23
729.004	15.23
729.03	2.23
729.055	8.23
729.08	-0.77
729.105	-11.77
729.13	20.23
729.156	11.23
729.181	7.23
729.206	-1.77
729.231	0.23
729.256	11.23
729.282	8.23
729.307	-1.77
729.332	-7.77
729.357	-3.77
729.382	-9.77
729.408	2.23
729.433	6.23
729.458	4.23
729.483	8.23
729.508	12.23
729.533	16.23
729.559	15.23
729.584	-9.77
729.609	-1.77
729.634	10.23
729.659	6.23
729.684	-7.77
729.71	29.23
729.735	16.23
729.76	11.23
729.785	16.23
729.81	14.23
729.835	-0.77
729.86	-9.77
729.886	13.23
729.911	3.23
729.936	-2.77
729.961	7.23
729.986	2.23
730.011	2.23
730.036	12.23
730.061	17.23
730.086	14.23
730.112	4.23
730.137	13.23
730.162	3.23
730.187	-0.77
730.212	17.23
730.237	12.23
730.262	-1.77
730.287	6.23
730.312	28.23
730.337	6.23
730.362	7.23
730.387	-3.77
730.413	-4.77
730.438	-6.77
730.463	6.23
730.488	-12.77
730.513	6.23
730.538	2.23
730.563	19.23
730.588	12.23
730.613	9.23
730.638	1.23
730.663	1.23
730.688	13.23
730.713	-2.77
730.738	1.23
730.763	4.23
730.788	-1.77
730.813	3.23
730.838	6.23
730.863	0.23
730.888	-2.77
730.913	-13.77
730.938	-9.77
730.963	10.23
730.988	6.23
731.013	26.23
731.038	2.23
731.063	-9.77
731.088	18.23
731.113	0.23
731.138	1.23
731.163	-1.77
731.188	4.23
731.213	12.23
731.238	12.23
731.263	3.23
731.288	-9.77
731.313	-4.77
731.338	22.23
731.363	7.23
731.388	18.23
731.413	1.23
731.438	12.23
731.463	6.23
731.487	-2.77
731.512	8.23
731.537	-16.77
731.562	8.23
731.587	9.23
731.612	-0.77
731.637	-0.77
731.662	-6.77
731.687	14.23
731.712	-11.77
731.737	0.23
731.762	1.23
731.786	19.23
731.811	18.23
731.836	19.23
731.861	-1.77
731.886	-1.77
731.911	18.23
731.936	26.23
731.961	7.23
731.986	-0.77
732.01	6.23
732.035	10.23
732.06	6.23
732.085	-0.77
732.11	12.23
732.135	5.23
732.16	9.23
732.184	4.23
732.209	2.23
732.234	16.23
732.259	-3.77
732.284	19.23
732.309	-2.77
732.334	2.23
732.358	-7.77
732.383	-4.77
732.408	3.23
732.433	4.23
732.458	7.23
732.482	12.23
732.507	0.23
732.532	-14.77
732.557	7.23
732.582	-9.77
732.607	-19.77
732.631	-15.77
732.656	1.23
732.681	6.23
732.706	-0.77
732.73	4.23
732.755	3.23
732.78	10.23
732.805	14.23
732.83	-15.77
732.854	6.23
732.879	16.23
732.904	2.23
732.929	8.23
732.953	20.23
732.978	4.23
733.003	7.23
733.028	7.23
733.052	1.23
733.077	13.23
733.102	10.23
733.127	0.23
733.151	2.23
733.176	13.23
733.201	7.23
733.226	-3.77
733.25	11.23
733.275	-0.77
733.3	12.23
733.324	15.23
733.349	15.23
733.374	16.23
733.399	14.23
733.423	8.23
733.448	5.23
733.473	13.23
733.497	7.23
733.522	-4.77
733.547	13.23
733.571	15.23
733.596	-5.77
733.621	10.23
733.646	-2.77
733.67	2.23
733.695	4.23
733.72	0.23
733.744	12.23
733.769	6.23
733.794	9.23
733.818	16.23
733.843	-0.77
733.867	-1.77
733.892	3.23
733.917	3.23
733.941	2.23
733.966	-8.77
733.991	-2.77
734.015	17.23
734.04	9.23
734.065	13.23
734.089	5.23
734.114	1.23
734.138	17.23
734.163	10.23
734.188	14.23
734.212	27.23
734.237	30.23
734.261	5.23
734.286	6.23
734.311	10.23
734.335	8.23
734.36	0.23
734.384	11.23
734.409	18.23
734.434	-2.77
734.458	1.23
734.483	17.23
734.507	-9.77
734.532	-2.77
734.556	4.23
734.581	6.23
734.606	4.23
734.63	3.23
734.655	3.23
734.679	-13.77
734.704	-9.77
734.728	19.23
734.753	-3.77
734.777	-1.77
734.802	8.23
734.826	3.23
734.851	6.23
734.876	12.23
734.9	-0.77
734.925	-0.77
734.949	4.23
734.974	10.23
734.998	-0.77
735.023	-1.77
735.047	-5.77
735.072	9.23
735.096	13.23
735.121	12.23
735.145	17.23
735.17	9.23
735.194	6.23
735.219	7.23
735.243	5.23
735.268	16.23
735.292	15.23
735.317	-2.77
735.341	12.23
735.365	-17.77
735.39	7.23
735.414	19.23
735.439	1.23
735.463	-0.77
735.488	29.23
735.512	12.23
735.537	-3.77
735.561	2.23
735.586	-4.77
735.61	6.23
735.634	3.23
735.659	2.23
735.683	25.23
735.708	11.23
735.732	6.23
735.757	5.23
735.781	15.23
735.805	8.23
735.83	-1.77
735.854	24.23
735.879	14.23
735.903	13.23
735.927	9.23
735.952	28.23
735.976	13.23
736.001	6.23
736.025	1.23
736.049	18.23
736.074	7.23
736.098	8.23
736.123	9.23
736.147	-3.77
736.171	14.23
736.196	12.23
736.22	1.23
736.244	7.23
736.269	9.23
736.293	1.23
736.317	-0.77
736.342	16.23
736.366	12.23
736.39	18.23
736.415	2.23
736.439	8.23
736.463	15.23
736.488	14.23
736.512	20.23
736.536	14.23
736.561	38.23
736.585	-1.77
736.609	13.23
736.634	9.23
736.658	19.23
736.682	5.23
736.707	5.23
736.731	3.23
736.755	1.23
736.78	18.23
736.804	21.23
736.828	-0.77
736.852	3.23
736.877	-8.77
736.901	2.23
736.925	-1.77
736.949	-4.77
736.974	-4.77
736.998	-5.77
737.022	16.23
737.047	3.23
737.071	0.23
737.095	16.23
737.119	29.23
737.144	7.23
737.168	12.23
737.192	2.23
737.216	11.23
737.241	-2.77
737.265	3.23
737.289	14.23
737.313	1.23
737.337	14.23
737.362	8.23
737.386	3.23
737.41	-5.77
737.434	11.23
737.459	9.23
737.483	24.23
737.507	10.23
737.531	10.23
737.555	20.23
737.58	4.23
737.604	6.23
737.628	-6.77
737.652	-8.77
737.676	-0.77
737.701	3.23
737.725	6.23
737.749	7.23
737.773	0.23
737.797	-2.77
737.821	3.23
737.846	3.23
737.87	28.23
737.894	6.23
737.918	10.23
737.942	-2.77
737.966	35.23
737.99	5.23
738.015	3.23
738.039	13.23
738.063	-0.77
738.087	10.23
738.111	9.23
738.135	12.23
738.159	-3.77
738.184	6.23
738.208	22.23
738.232	10.23
738.256	4.23
738.28	13.23
738.304	17.23
738.328	2.23
738.352	13.23
738.376	2.23
738.4	9.23
738.425	13.23
738.449	-0.77
738.473	13.23
738.497	26.23
738.521	9.23
738.545	15.23
738.569	27.23
738.593	20.23
738.617	0.23
738.641	11.23
738.665	17.23
738.689	20.23
738.713	14.23
738.737	8.23
738.762	27.23
738.786	14.23
738.81	1.23
738.834	-0.77
738.858	1.23
738.882	6.23
738.906	-0.77
738.93	2.23
738.954	-5.77
738.978	15.23
739.002	-20.77
739.026	2.23
739.05	12.23
739.074	-13.77
739.098	26.23
739.122	19.23
739.146	0.23
739.17	3.23
739.194	15.23
739.218	0.23
739.242	-0.77
739.266	1.23
739.29	8.23
739.314	4.23
739.338	8.23
739.362	6.23
739.386	11.23
739.41	20.23
739.434	1.23
739.458	29.23
739.482	6.23
739.506	1.23
739.53	8.23
739.554	15.23
739.577	9.23
739.601	18.23
739.625	-0.77
739.649	0.23
739.673	3.23
739.697	19.23
739.721	0.23
739.745	11.23
739.769	8.23
739.793	15.23
739.817	15.23
739.841	-6.77
739.865	13.23
739.889	2.23
739.912	3.23
739.936	-2.77
739.96	4.23
739.984	10.23
740.008	1.23
740.032	13.23
740.056	8.23
740.08	7.23
740.104	12.23
740.127	7.23
740.151	11.23
740.175	13.23
740.199	27.23
740.223	64.23
740.247	12.23
740.271	16.23
740.295	5.23
740.318	-15.77
740.342	-2.77
740.366	11.23
740.39	16.23
740.414	-12.77
740.438	10.23
740.461	23.23
740.485	6.23
740.509	-9.77
740.533	19.23
740.557	7.23
740.581	5.23
740.604	-4.77
740.628	-3.77
740.652	21.23
740.676	1.23
740.7	6.23
740.723	1.23
740.747	-1.77
740.771	10.23
740.795	-2.77
740.819	11.23
740.842	10.23
740.866	10.23
740.89	1.23
740.914	3.23
740.938	-5.77
740.961	15.23
740.985	11.23
741.009	12.23
741.033	8.23
741.056	10.23
741.08	-12.77
741.104	3.23
741.128	6.23
741.151	15.23
741.175	11.23
741.199	2.23
741.223	16.23
741.246	10.23
741.27	16.23
741.294	-1.77
741.318	-0.77
741.341	-3.77
741.365	6.23
741.389	4.23
741.413	4.23
741.436	24.23
741.46	18.23
741.484	23.23
741.507	-7.77
741.531	22.23
741.555	5.23
741.579	7.23
741.602	1.23
741.626	25.23
741.65	10.23
741.673	19.23
741.697	21.23
741.721	0.23
741.744	-13.77
741.768	0.23
741.792	-6.77
741.815	0.23
741.839	19.23
741.863	9.23
741.886	11.23
741.91	10.23
741.934	2.23
741.957	-11.77
741.981	23.23
742.005	8.23
742.028	-8.77
742.052	-1.77
742.075	15.23
742.099	31.23
742.123	16.23
742.146	4.23
742.17	13.23
742.194	-11.77
742.217	5.23
742.241	2.23
742.264	7.23
742.288	19.23
742.312	9.23
742.335	9.23
742.359	6.23
742.382	20.23
742.406	7.23
742.43	1.23
742.453	13.23
742.477	-20.77
742.5	-4.77
742.524	-15.77
742.548	-11.77
742.571	7.23
742.595	2.23
742.618	-2.77
742.642	8.23
742.665	-0.77
742.689	-5.77
742.712	3.23
742.736	2.23
742.76	9.23
742.783	7.23
742.807	8.23
742.83	14.23
742.854	-16.77
742.877	4.23
742.901	-1.77
742.924	0.23
742.948	-8.77
742.971	10.23
742.995	2.23
743.018	-7.77
743.042	-1.77
743.065	4.23
743.089	-3.77
743.112	-0.77
743.136	4.23
743.159	-5.77
743.183	-16.77
743.206	1.23
743.23	1.23
743.253	6.23
743.277	4.23
743.3	0.23
743.324	6.23
743.347	13.23
743.371	18.23
743.394	24.23
743.418	32.23
743.441	26.23
743.465	-0.77
743.488	10.23
743.512	-2.77
743.535	8.23
743.558	-0.77
743.582	12.23
743.605	1.23
743.629	3.23
743.652	6.23
743.676	-7.77
743.699	27.23
743.723	14.23
743.746	8.23
743.769	7.23
743.793	11.23
743.816	7.23
743.84	14.23
743.863	-9.77
743.886	6.23
743.91	6.23
743.933	4.23
743.957	4.23
743.98	0.23
744.003	-4.77
744.027	-3.77
744.05	6.23
744.074	4.23
744.097	-1.77
744.12	3.23
744.144	0.23
744.167	8.23
744.19	-9.77
744.214	7.23
744.237	-9.77
744.26	10.23
744.284	3.23
744.307	-17.77
744.331	17.23
744.354	-3.77
744.377	-5.77
744.401	10.23
744.424	11.23
744.447	-12.77
744.471	-2.77
