Data from HighRes_H2D2_15_04_11_07_2024_HR4C61891__87__15-05-43-142.txt Node

Date: Thu Nov 07 15:05:43 EST 2024
User: crc00042
Spectrometer: HR4C6189
Trigger mode: 4
Integration Time (sec): 1.000000E-1
Scans to average: 1
Electric dark correction enabled: true
Nonlinearity correction enabled: false
Boxcar width: 0
XAxis mode: Wavelengths
Number of Pixels in Spectrum: 3648
>>>>>Begin Spectral Data<<<<<
639.567	-62.23
639.602	-62.23
639.636	-62.23
639.67	-37.23
639.704	-20.23
639.738	1.77
639.773	3.77
639.807	-17.23
639.841	0.77
639.875	17.77
639.909	1.77
639.943	-13.23
639.978	9.77
640.012	-2.23
640.046	4.77
640.08	5.77
640.114	-7.23
640.148	-6.23
640.182	-0.23
640.217	-8.23
640.251	9.77
640.285	20.77
640.319	1.77
640.353	13.77
640.387	10.77
640.421	-3.23
640.455	-12.23
640.49	1.77
640.524	-13.23
640.558	1.77
640.592	-16.23
640.626	-22.23
640.66	-8.23
640.694	-18.23
640.728	-6.23
640.762	3.77
640.796	12.77
640.83	4.77
640.865	9.77
640.899	11.77
640.933	10.77
640.967	7.77
641.001	11.77
641.035	15.77
641.069	0.77
641.103	-23.23
641.137	-8.23
641.171	-5.23
641.205	9.77
641.239	9.77
641.273	10.77
641.307	15.77
641.341	7.77
641.375	-8.23
641.409	-3.23
641.443	-4.23
641.477	5.77
641.511	10.77
641.545	2.77
641.579	-0.23
641.614	30.77
641.648	7.77
641.682	-2.23
641.716	22.77
641.75	23.77
641.784	-4.23
641.818	-6.23
641.852	0.77
641.886	-17.23
641.919	23.77
641.953	4.77
641.987	-5.23
642.021	0.77
642.055	-0.23
642.089	11.77
642.123	-2.23
642.157	-9.23
642.191	-1.23
642.225	19.77
642.259	10.77
642.293	10.77
642.327	0.77
642.361	0.77
642.395	9.77
642.429	14.77
642.463	17.77
642.497	22.77
642.531	-3.23
642.565	-14.23
642.599	3.77
642.633	-9.23
642.666	6.77
642.7	7.77
642.734	10.77
642.768	3.77
642.802	-19.23
642.836	-21.23
642.87	-0.23
642.904	14.77
642.938	13.77
642.972	-1.23
643.005	2.77
643.039	5.77
643.073	3.77
643.107	11.77
643.141	16.77
643.175	15.77
643.209	-15.23
643.243	-7.23
643.276	-4.23
643.31	1.77
643.344	-11.23
643.378	14.77
643.412	2.77
643.446	-19.23
643.48	-2.23
643.513	13.77
643.547	-1.23
643.581	7.77
643.615	5.77
643.649	6.77
643.683	2.77
643.716	-0.23
643.75	6.77
643.784	-14.23
643.818	2.77
643.852	-5.23
643.886	-3.23
643.919	-1.23
643.953	-1.23
643.987	1.77
644.021	7.77
644.055	-5.23
644.088	-4.23
644.122	-3.23
644.156	-1.23
644.19	-6.23
644.224	4.77
644.257	-4.23
644.291	9.77
644.325	15.77
644.359	-0.23
644.392	17.77
644.426	14.77
644.46	-6.23
644.494	1.77
644.527	-6.23
644.561	1.77
644.595	10.77
644.629	-11.23
644.662	-17.23
644.696	5.77
644.73	10.77
644.764	2.77
644.797	2.77
644.831	-2.23
644.865	7.77
644.899	-3.23
644.932	16.77
644.966	17.77
645	11.77
645.033	19.77
645.067	-8.23
645.101	6.77
645.135	13.77
645.168	10.77
645.202	-2.23
645.236	-13.23
645.269	3.77
645.303	0.77
645.337	-6.23
645.37	-10.23
645.404	0.77
645.438	-6.23
645.471	-7.23
645.505	-3.23
645.539	-1.23
645.572	1.77
645.606	7.77
645.64	-6.23
645.673	9.77
645.707	12.77
645.741	-3.23
645.774	3.77
645.808	12.77
645.842	-10.23
645.875	1.77
645.909	-9.23
645.943	-7.23
645.976	6.77
646.01	-15.23
646.043	17.77
646.077	11.77
646.111	17.77
646.144	-1.23
646.178	5.77
646.212	-8.23
646.245	7.77
646.279	9.77
646.312	2.77
646.346	14.77
646.38	-1.23
646.413	11.77
646.447	11.77
646.48	8.77
646.514	4.77
646.547	-3.23
646.581	10.77
646.615	-4.23
646.648	7.77
646.682	-0.23
646.715	-8.23
646.749	10.77
646.782	4.77
646.816	-4.23
646.85	11.77
646.883	12.77
646.917	7.77
646.95	11.77
646.984	2.77
647.017	0.77
647.051	-3.23
647.084	11.77
647.118	10.77
647.151	8.77
647.185	0.77
647.218	-19.23
647.252	16.77
647.285	0.77
647.319	-11.23
647.353	-4.23
647.386	7.77
647.42	0.77
647.453	12.77
647.487	19.77
647.52	-4.23
647.553	2.77
647.587	-10.23
647.62	-7.23
647.654	14.77
647.687	7.77
647.721	15.77
647.754	11.77
647.788	9.77
647.821	-16.23
647.855	-3.23
647.888	23.77
647.922	23.77
647.955	13.77
647.989	17.77
648.022	5.77
648.055	-1.23
648.089	-7.23
648.122	24.77
648.156	-2.23
648.189	5.77
648.223	11.77
648.256	9.77
648.29	14.77
648.323	0.77
648.356	-1.23
648.39	12.77
648.423	4.77
648.457	9.77
648.49	10.77
648.523	-0.23
648.557	0.77
648.59	0.77
648.624	2.77
648.657	5.77
648.69	23.77
648.724	12.77
648.757	24.77
648.791	5.77
648.824	8.77
648.857	9.77
648.891	10.77
648.924	-0.23
648.957	9.77
648.991	0.77
649.024	24.77
649.057	5.77
649.091	5.77
649.124	-4.23
649.158	-8.23
649.191	9.77
649.224	8.77
649.258	26.77
649.291	6.77
649.324	18.77
649.358	8.77
649.391	20.77
649.424	10.77
649.458	11.77
649.491	12.77
649.524	4.77
649.557	-12.23
649.591	-22.23
649.624	7.77
649.657	-19.23
649.691	-1.23
649.724	17.77
649.757	-0.23
649.791	-2.23
649.824	3.77
649.857	10.77
649.89	8.77
649.924	-6.23
649.957	-18.23
649.99	-5.23
650.023	-4.23
650.057	-10.23
650.09	-0.23
650.123	13.77
650.157	5.77
650.19	12.77
650.223	-8.23
650.256	-6.23
650.29	1.77
650.323	8.77
650.356	3.77
650.389	-9.23
650.423	-14.23
650.456	-0.23
650.489	-10.23
650.522	10.77
650.555	14.77
650.589	4.77
650.622	5.77
650.655	19.77
650.688	-3.23
650.721	-5.23
650.755	-0.23
650.788	13.77
650.821	12.77
650.854	-5.23
650.887	0.77
650.921	-14.23
650.954	-1.23
650.987	13.77
651.02	-5.23
651.053	-19.23
651.087	-15.23
651.12	10.77
651.153	-5.23
651.186	-6.23
651.219	-15.23
651.252	6.77
651.286	-4.23
651.319	-6.23
651.352	1.77
651.385	10.77
651.418	10.77
651.451	3.77
651.484	0.77
651.518	-9.23
651.551	11.77
651.584	2.77
651.617	17.77
651.65	17.77
651.683	20.77
651.716	0.77
651.749	-10.23
651.783	-9.23
651.816	-2.23
651.849	-6.23
651.882	-4.23
651.915	-9.23
651.948	-1.23
651.981	0.77
652.014	-10.23
652.047	-8.23
652.08	-9.23
652.114	4.77
652.147	-11.23
652.18	2.77
652.213	23.77
652.246	5.77
652.279	-2.23
652.312	12.77
652.345	-2.23
652.378	14.77
652.411	28.77
652.444	8.77
652.477	0.77
652.51	-5.23
652.543	4.77
652.576	-0.23
652.609	3.77
652.642	5.77
652.675	9.77
652.709	-2.23
652.742	13.77
652.775	11.77
652.808	11.77
652.841	14.77
652.874	-9.23
652.907	-7.23
652.94	-0.23
652.973	-11.23
653.006	3.77
653.039	-0.23
653.072	14.77
653.105	5.77
653.138	-3.23
653.171	5.77
653.204	-12.23
653.237	-10.23
653.27	-1.23
653.303	11.77
653.336	17.77
653.368	7.77
653.401	5.77
653.434	-2.23
653.467	-5.23
653.5	-12.23
653.533	-1.23
653.566	-17.23
653.599	1.77
653.632	7.77
653.665	3.77
653.698	-5.23
653.731	-8.23
653.764	13.77
653.797	-0.23
653.83	6.77
653.863	-6.23
653.896	-8.23
653.929	-10.23
653.961	0.77
653.994	5.77
654.027	-8.23
654.06	17.77
654.093	11.77
654.126	-9.23
654.159	9.77
654.192	6.77
654.225	1.77
654.258	-0.23
654.29	-4.23
654.323	-4.23
654.356	9.77
654.389	-20.23
654.422	-0.23
654.455	1.77
654.488	-0.23
654.521	-17.23
654.553	-11.23
654.586	14.77
654.619	6.77
654.652	-0.23
654.685	8.77
654.718	15.77
654.751	7.77
654.783	-9.23
654.816	10.77
654.849	7.77
654.882	1.77
654.915	-11.23
654.948	9.77
654.98	0.77
655.013	23.77
655.046	-10.23
655.079	-2.23
655.112	9.77
655.144	-12.23
655.177	3.77
655.21	8.77
655.243	22.77
655.276	25.77
655.308	-4.23
655.341	-14.23
655.374	-3.23
655.407	9.77
655.44	3.77
655.472	10.77
655.505	12.77
655.538	-10.23
655.571	10.77
655.603	3.77
655.636	6.77
655.669	7.77
655.702	16.77
655.734	-3.23
655.767	2.77
655.8	12.77
655.833	14.77
655.865	25.77
655.898	12.77
655.931	6.77
655.964	12.77
655.996	21.77
656.029	21.77
656.062	26.77
656.095	51.77
656.127	75.77
656.16	220.77
656.193	607.77
656.225	945.77
656.258	536.77
656.291	216.77
656.324	162.77
656.356	345.77
656.389	770.77
656.422	689.77
656.454	234.77
656.487	79.77
656.52	53.77
656.552	14.77
656.585	23.77
656.618	11.77
656.65	12.77
656.683	-3.23
656.716	2.77
656.748	0.77
656.781	-6.23
656.814	-4.23
656.846	9.77
656.879	2.77
656.912	-7.23
656.944	-7.23
656.977	-9.23
657.01	-5.23
657.042	6.77
657.075	9.77
657.108	0.77
657.14	8.77
657.173	24.77
657.205	31.77
657.238	8.77
657.271	8.77
657.303	11.77
657.336	7.77
657.369	8.77
657.401	6.77
657.434	2.77
657.466	15.77
657.499	1.77
657.532	0.77
657.564	4.77
657.597	-8.23
657.629	11.77
657.662	5.77
657.694	7.77
657.727	-19.23
657.76	10.77
657.792	-2.23
657.825	-1.23
657.857	2.77
657.89	3.77
657.922	7.77
657.955	-2.23
657.987	15.77
658.02	11.77
658.053	9.77
658.085	5.77
658.118	11.77
658.15	23.77
658.183	12.77
658.215	-10.23
658.248	-2.23
658.28	5.77
658.313	11.77
658.345	10.77
658.378	5.77
658.41	6.77
658.443	-5.23
658.475	9.77
658.508	-3.23
658.54	0.77
658.573	-5.23
658.605	2.77
658.638	-3.23
658.67	11.77
658.703	7.77
658.735	-5.23
658.768	8.77
658.8	-9.23
658.833	32.77
658.865	9.77
658.898	7.77
658.93	-1.23
658.963	-13.23
658.995	-18.23
659.028	-14.23
659.06	4.77
659.092	-7.23
659.125	-20.23
659.157	-6.23
659.19	-17.23
659.222	-13.23
659.255	-8.23
659.287	6.77
659.32	1.77
659.352	7.77
659.384	10.77
659.417	2.77
659.449	8.77
659.482	12.77
659.514	-6.23
659.546	6.77
659.579	-17.23
659.611	-0.23
659.644	-10.23
659.676	-19.23
659.708	-5.23
659.741	2.77
659.773	-4.23
659.806	-2.23
659.838	6.77
659.87	0.77
659.903	-18.23
659.935	-3.23
659.967	19.77
660	-4.23
660.032	-23.23
660.065	8.77
660.097	-2.23
660.129	11.77
660.162	2.77
660.194	-0.23
660.226	19.77
660.259	5.77
660.291	-3.23
660.323	0.77
660.356	6.77
660.388	-20.23
660.42	-2.23
660.453	12.77
660.485	11.77
660.517	7.77
660.55	8.77
660.582	-5.23
660.614	0.77
660.647	5.77
660.679	-15.23
660.711	2.77
660.743	-15.23
660.776	-8.23
660.808	18.77
660.84	2.77
660.873	4.77
660.905	-9.23
660.937	-0.23
660.969	10.77
661.002	1.77
661.034	14.77
661.066	-9.23
661.099	-6.23
661.131	21.77
661.163	-1.23
661.195	15.77
661.228	14.77
661.26	8.77
661.292	-4.23
661.324	-4.23
661.357	6.77
661.389	12.77
661.421	-2.23
661.453	-4.23
661.485	-0.23
661.518	0.77
661.55	-22.23
661.582	-13.23
661.614	0.77
661.647	-16.23
661.679	-11.23
661.711	-5.23
661.743	-2.23
661.775	-6.23
661.808	25.77
661.84	-13.23
661.872	1.77
661.904	-3.23
661.936	-15.23
661.969	-16.23
662.001	-6.23
662.033	-4.23
662.065	-23.23
662.097	5.77
662.129	-9.23
662.162	-6.23
662.194	-0.23
662.226	6.77
662.258	-0.23
662.29	3.77
662.322	-27.23
662.355	-27.23
662.387	17.77
662.419	15.77
662.451	18.77
662.483	9.77
662.515	-3.23
662.547	8.77
662.58	-16.23
662.612	1.77
662.644	-18.23
662.676	1.77
662.708	7.77
662.74	-1.23
662.772	-9.23
662.804	-22.23
662.836	4.77
662.869	-9.23
662.901	4.77
662.933	-2.23
662.965	25.77
662.997	10.77
663.029	-12.23
663.061	0.77
663.093	-4.23
663.125	5.77
663.157	2.77
663.189	0.77
663.221	8.77
663.254	12.77
663.286	10.77
663.318	2.77
663.35	-1.23
663.382	-8.23
663.414	7.77
663.446	14.77
663.478	-19.23
663.51	21.77
663.542	-3.23
663.574	2.77
663.606	22.77
663.638	-18.23
663.67	-1.23
663.702	7.77
663.734	-2.23
663.766	-4.23
663.798	-0.23
663.83	-4.23
663.862	10.77
663.894	13.77
663.926	-6.23
663.958	8.77
663.99	4.77
664.022	-17.23
664.054	11.77
664.086	-16.23
664.118	-0.23
664.15	-10.23
664.182	14.77
664.214	9.77
664.246	21.77
664.278	12.77
664.31	26.77
664.342	14.77
664.374	-2.23
664.406	-7.23
664.438	0.77
664.47	17.77
664.502	0.77
664.534	-11.23
664.566	-11.23
664.598	20.77
664.63	0.77
664.662	-0.23
664.693	5.77
664.725	-3.23
664.757	4.77
664.789	-7.23
664.821	1.77
664.853	-2.23
664.885	-9.23
664.917	0.77
664.949	9.77
664.981	-5.23
665.013	5.77
665.045	-13.23
665.076	-11.23
665.108	-8.23
665.14	-0.23
665.172	9.77
665.204	-11.23
665.236	-17.23
665.268	12.77
665.3	-24.23
665.331	-23.23
665.363	13.77
665.395	-11.23
665.427	2.77
665.459	-6.23
665.491	-8.23
665.523	9.77
665.555	-3.23
665.586	-2.23
665.618	0.77
665.65	-9.23
665.682	15.77
665.714	17.77
665.746	-0.23
665.777	10.77
665.809	-5.23
665.841	0.77
665.873	-14.23
665.905	2.77
665.937	10.77
665.968	6.77
666	0.77
666.032	-19.23
666.064	-22.23
666.096	19.77
666.127	11.77
666.159	22.77
666.191	2.77
666.223	-12.23
666.255	4.77
666.286	13.77
666.318	4.77
666.35	15.77
666.382	-7.23
666.413	9.77
666.445	-11.23
666.477	-0.23
666.509	-7.23
666.54	1.77
666.572	1.77
666.604	-11.23
666.636	-5.23
666.667	26.77
666.699	-1.23
666.731	-11.23
666.763	4.77
666.794	-2.23
666.826	3.77
666.858	-9.23
666.89	-14.23
666.921	1.77
666.953	0.77
666.985	11.77
667.017	20.77
667.048	3.77
667.08	-0.23
667.112	-1.23
667.143	-9.23
667.175	-2.23
667.207	2.77
667.238	9.77
667.27	3.77
667.302	9.77
667.334	-7.23
667.365	6.77
667.397	-10.23
667.429	2.77
667.46	2.77
667.492	9.77
667.524	1.77
667.555	0.77
667.587	7.77
667.619	5.77
667.65	-4.23
667.682	5.77
667.714	20.77
667.745	0.77
667.777	-2.23
667.808	6.77
667.84	9.77
667.872	-10.23
667.903	33.77
667.935	3.77
667.967	-0.23
667.998	18.77
668.03	9.77
668.061	-0.23
668.093	-1.23
668.125	14.77
668.156	8.77
668.188	7.77
668.22	-0.23
668.251	9.77
668.283	-11.23
668.314	18.77
668.346	-7.23
668.377	0.77
668.409	-0.23
668.441	16.77
668.472	5.77
668.504	-1.23
668.535	3.77
668.567	-1.23
668.599	13.77
668.63	10.77
668.662	-17.23
668.693	18.77
668.725	-3.23
668.756	7.77
668.788	4.77
668.819	-2.23
668.851	11.77
668.882	6.77
668.914	-5.23
668.946	4.77
668.977	-18.23
669.009	-10.23
669.04	-9.23
669.072	3.77
669.103	7.77
669.135	12.77
669.166	-0.23
669.198	-5.23
669.229	8.77
669.261	-5.23
669.292	14.77
669.324	20.77
669.355	16.77
669.387	-3.23
669.418	-3.23
669.45	-8.23
669.481	-4.23
669.513	5.77
669.544	14.77
669.576	-6.23
669.607	25.77
669.639	11.77
669.67	-2.23
669.701	8.77
669.733	-0.23
669.764	-4.23
669.796	0.77
669.827	-8.23
669.859	-3.23
669.89	1.77
669.922	7.77
669.953	21.77
669.985	13.77
670.016	-2.23
670.047	-6.23
670.079	-14.23
670.11	4.77
670.142	1.77
670.173	2.77
670.204	3.77
670.236	-2.23
670.267	-0.23
670.299	6.77
670.33	18.77
670.362	22.77
670.393	-1.23
670.424	-1.23
670.456	-4.23
670.487	2.77
670.518	9.77
670.55	12.77
670.581	5.77
670.613	7.77
670.644	-2.23
670.675	-8.23
670.707	-9.23
670.738	-4.23
670.769	9.77
670.801	-7.23
670.832	6.77
670.864	-2.23
670.895	8.77
670.926	-0.23
670.958	-5.23
670.989	-3.23
671.02	-0.23
671.052	6.77
671.083	8.77
671.114	8.77
671.146	-4.23
671.177	10.77
671.208	-12.23
671.24	-17.23
671.271	-13.23
671.302	6.77
671.333	-10.23
671.365	-10.23
671.396	-11.23
671.427	10.77
671.459	7.77
671.49	-4.23
671.521	1.77
671.553	-6.23
671.584	3.77
671.615	-0.23
671.646	4.77
671.678	11.77
671.709	-13.23
671.74	-21.23
671.771	3.77
671.803	5.77
671.834	-1.23
671.865	-10.23
671.896	7.77
671.928	5.77
671.959	-0.23
671.99	-15.23
672.021	-12.23
672.053	-23.23
672.084	10.77
672.115	7.77
672.146	-0.23
672.178	-18.23
672.209	1.77
672.24	3.77
672.271	24.77
672.303	9.77
672.334	4.77
672.365	-5.23
672.396	-3.23
672.427	13.77
672.459	6.77
672.49	16.77
672.521	3.77
672.552	14.77
672.583	16.77
672.615	-15.23
672.646	7.77
672.677	-4.23
672.708	1.77
672.739	-8.23
672.77	17.77
672.802	13.77
672.833	-1.23
672.864	1.77
672.895	9.77
672.926	-3.23
672.957	-2.23
672.989	-9.23
673.02	0.77
673.051	-6.23
673.082	7.77
673.113	-3.23
673.144	3.77
673.175	-3.23
673.206	-6.23
673.238	4.77
673.269	0.77
673.3	-4.23
673.331	0.77
673.362	9.77
673.393	5.77
673.424	7.77
673.455	22.77
673.487	13.77
673.518	3.77
673.549	18.77
673.58	1.77
673.611	1.77
673.642	-5.23
673.673	-17.23
673.704	2.77
673.735	9.77
673.766	-1.23
673.797	-10.23
673.828	-12.23
673.86	-5.23
673.891	-13.23
673.922	-7.23
673.953	6.77
673.984	-0.23
674.015	3.77
674.046	13.77
674.077	10.77
674.108	-2.23
674.139	1.77
674.17	9.77
674.201	-13.23
674.232	-4.23
674.263	3.77
674.294	-0.23
674.325	7.77
674.356	5.77
674.387	20.77
674.418	-9.23
674.449	-8.23
674.48	-4.23
674.511	9.77
674.542	5.77
674.573	11.77
674.604	14.77
674.635	8.77
674.666	6.77
674.697	2.77
674.728	3.77
674.759	-3.23
674.79	2.77
674.821	-15.23
674.852	-0.23
674.883	-11.23
674.914	-0.23
674.945	-0.23
674.976	7.77
675.007	-1.23
675.038	-17.23
675.069	-5.23
675.1	-12.23
675.131	-1.23
675.162	-2.23
675.193	-9.23
675.224	-9.23
675.254	10.77
675.285	15.77
675.316	9.77
675.347	-6.23
675.378	-6.23
675.409	-10.23
675.44	9.77
675.471	6.77
675.502	-3.23
675.533	-7.23
675.564	-4.23
675.595	-16.23
675.625	17.77
675.656	7.77
675.687	-2.23
675.718	-9.23
675.749	-2.23
675.78	11.77
675.811	8.77
675.842	2.77
675.873	2.77
675.903	5.77
675.934	5.77
675.965	5.77
675.996	-9.23
676.027	5.77
676.058	-6.23
676.089	-13.23
676.119	4.77
676.15	-3.23
676.181	8.77
676.212	-4.23
676.243	11.77
676.274	-14.23
676.304	8.77
676.335	-20.23
676.366	-5.23
676.397	0.77
676.428	9.77
676.459	27.77
676.489	14.77
676.52	1.77
676.551	3.77
676.582	0.77
676.613	9.77
676.643	-10.23
676.674	7.77
676.705	8.77
676.736	2.77
676.767	10.77
676.797	14.77
676.828	8.77
676.859	-3.23
676.89	-2.23
676.92	6.77
676.951	0.77
676.982	-3.23
677.013	6.77
677.044	13.77
677.074	-13.23
677.105	-0.23
677.136	17.77
677.167	10.77
677.197	9.77
677.228	8.77
677.259	-21.23
677.289	8.77
677.32	-18.23
677.351	4.77
677.382	0.77
677.412	3.77
677.443	5.77
677.474	-7.23
677.505	-8.23
677.535	5.77
677.566	5.77
677.597	-10.23
677.627	-17.23
677.658	1.77
677.689	-6.23
677.72	-5.23
677.75	3.77
677.781	-0.23
677.812	7.77
677.842	9.77
677.873	14.77
677.904	17.77
677.934	-2.23
677.965	1.77
677.996	-8.23
678.026	5.77
678.057	9.77
678.088	-15.23
678.118	2.77
678.149	-0.23
678.18	-0.23
678.21	8.77
678.241	1.77
678.272	3.77
678.302	7.77
678.333	14.77
678.363	24.77
678.394	6.77
678.425	15.77
678.455	2.77
678.486	33.77
678.517	2.77
678.547	9.77
678.578	7.77
678.608	-7.23
678.639	16.77
678.67	-3.23
678.7	-7.23
678.731	-5.23
678.761	-7.23
678.792	0.77
678.823	-12.23
678.853	4.77
678.884	-12.23
678.914	12.77
678.945	5.77
678.975	-8.23
679.006	9.77
679.037	6.77
679.067	25.77
679.098	6.77
679.128	1.77
679.159	-9.23
679.189	7.77
679.22	4.77
679.25	-0.23
679.281	-3.23
679.312	-3.23
679.342	9.77
679.373	26.77
679.403	8.77
679.434	20.77
679.464	-6.23
679.495	0.77
679.525	5.77
679.556	-3.23
679.586	-0.23
679.617	4.77
679.647	-8.23
679.678	5.77
679.708	-1.23
679.739	-10.23
679.769	-0.23
679.8	-0.23
679.83	-1.23
679.861	11.77
679.891	5.77
679.922	-1.23
679.952	7.77
679.983	19.77
680.013	15.77
680.044	4.77
680.074	13.77
680.105	17.77
680.135	-2.23
680.165	-0.23
680.196	-0.23
680.226	-6.23
680.257	9.77
680.287	5.77
680.318	0.77
680.348	-24.23
680.379	-10.23
680.409	-21.23
680.439	-2.23
680.47	1.77
680.5	-11.23
680.531	5.77
680.561	9.77
680.592	-2.23
680.622	7.77
680.652	13.77
680.683	10.77
680.713	6.77
680.744	4.77
680.774	6.77
680.804	10.77
680.835	-5.23
680.865	-11.23
680.896	11.77
680.926	23.77
680.956	0.77
680.987	0.77
681.017	3.77
681.047	-5.23
681.078	-9.23
681.108	10.77
681.139	11.77
681.169	8.77
681.199	8.77
681.23	19.77
681.26	6.77
681.29	10.77
681.321	-20.23
681.351	1.77
681.381	-17.23
681.412	11.77
681.442	13.77
681.472	28.77
681.503	14.77
681.533	1.77
681.563	0.77
681.594	4.77
681.624	5.77
681.654	-8.23
681.685	-10.23
681.715	12.77
681.745	5.77
681.775	-7.23
681.806	7.77
681.836	8.77
681.866	-5.23
681.897	0.77
681.927	6.77
681.957	0.77
681.987	8.77
682.018	-0.23
682.048	12.77
682.078	17.77
682.109	24.77
682.139	3.77
682.169	5.77
682.199	-15.23
682.23	11.77
682.26	1.77
682.29	-8.23
682.32	9.77
682.351	-5.23
682.381	0.77
682.411	2.77
682.441	-2.23
682.472	6.77
682.502	8.77
682.532	8.77
682.562	8.77
682.592	22.77
682.623	18.77
682.653	13.77
682.683	-2.23
682.713	9.77
682.743	-5.23
682.774	-3.23
682.804	9.77
682.834	5.77
682.864	-1.23
682.894	-5.23
682.925	1.77
682.955	4.77
682.985	-14.23
683.015	-4.23
683.045	15.77
683.076	-7.23
683.106	1.77
683.136	2.77
683.166	-6.23
683.196	-0.23
683.226	-2.23
683.257	-19.23
683.287	-3.23
683.317	1.77
683.347	-4.23
683.377	-8.23
683.407	9.77
683.437	9.77
683.468	8.77
683.498	0.77
683.528	2.77
683.558	3.77
683.588	-16.23
683.618	-18.23
683.648	-8.23
683.678	2.77
683.708	4.77
683.739	12.77
683.769	-6.23
683.799	-2.23
683.829	-15.23
683.859	15.77
683.889	25.77
683.919	9.77
683.949	1.77
683.979	2.77
684.009	6.77
684.039	7.77
684.07	-10.23
684.1	8.77
684.13	17.77
684.16	13.77
684.19	5.77
684.22	-4.23
684.25	6.77
684.28	-4.23
684.31	10.77
684.34	25.77
684.37	-1.23
684.4	-8.23
684.43	3.77
684.46	8.77
684.49	15.77
684.52	12.77
684.55	7.77
684.58	9.77
684.61	7.77
684.64	18.77
684.67	22.77
684.7	0.77
684.73	5.77
684.76	0.77
684.79	12.77
684.82	4.77
684.85	-0.23
684.88	3.77
684.91	10.77
684.94	0.77
684.97	5.77
685	5.77
685.03	-2.23
685.06	-7.23
685.09	-8.23
685.12	27.77
685.15	-6.23
685.18	16.77
685.21	10.77
685.24	21.77
685.27	25.77
685.3	-6.23
685.33	11.77
685.36	11.77
685.39	-6.23
685.42	-18.23
685.45	-3.23
685.48	2.77
685.51	7.77
685.54	24.77
685.569	9.77
685.599	22.77
685.629	10.77
685.659	5.77
685.689	12.77
685.719	-2.23
685.749	5.77
685.779	2.77
685.809	18.77
685.839	14.77
685.869	12.77
685.898	15.77
685.928	4.77
685.958	-7.23
685.988	8.77
686.018	-11.23
686.048	6.77
686.078	7.77
686.108	1.77
686.137	4.77
686.167	9.77
686.197	-23.23
686.227	-14.23
686.257	30.77
686.287	25.77
686.317	4.77
686.346	-8.23
686.376	-13.23
686.406	-1.23
686.436	7.77
686.466	-3.23
686.496	-4.23
686.525	19.77
686.555	-0.23
686.585	24.77
686.615	38.77
686.645	6.77
686.675	7.77
686.704	19.77
686.734	19.77
686.764	-10.23
686.794	4.77
686.824	0.77
686.853	1.77
686.883	12.77
686.913	18.77
686.943	2.77
686.973	-4.23
687.002	9.77
687.032	-5.23
687.062	4.77
687.092	25.77
687.121	7.77
687.151	4.77
687.181	-7.23
687.211	3.77
687.24	6.77
687.27	16.77
687.3	-6.23
687.33	-2.23
687.359	-13.23
687.389	3.77
687.419	-12.23
687.449	-15.23
687.478	11.77
687.508	12.77
687.538	1.77
687.568	13.77
687.597	-6.23
687.627	-4.23
687.657	-7.23
687.686	0.77
687.716	16.77
687.746	-17.23
687.776	-16.23
687.805	-5.23
687.835	7.77
687.865	22.77
687.894	16.77
687.924	-2.23
687.954	-10.23
687.983	6.77
688.013	10.77
688.043	9.77
688.072	12.77
688.102	10.77
688.132	-4.23
688.161	-12.23
688.191	-9.23
688.221	6.77
688.25	-15.23
688.28	-2.23
688.31	6.77
688.339	15.77
688.369	-1.23
688.399	-19.23
688.428	-0.23
688.458	-5.23
688.488	-11.23
688.517	9.77
688.547	6.77
688.576	26.77
688.606	12.77
688.636	6.77
688.665	3.77
688.695	6.77
688.725	20.77
688.754	20.77
688.784	5.77
688.813	23.77
688.843	-14.23
688.873	11.77
688.902	3.77
688.932	3.77
688.961	3.77
688.991	21.77
689.02	13.77
689.05	6.77
689.08	15.77
689.109	20.77
689.139	3.77
689.168	2.77
689.198	1.77
689.227	7.77
689.257	1.77
689.287	17.77
689.316	-13.23
689.346	-16.23
689.375	3.77
689.405	13.77
689.434	0.77
689.464	1.77
689.493	0.77
689.523	9.77
689.552	0.77
689.582	3.77
689.611	-5.23
689.641	8.77
689.67	5.77
689.7	10.77
689.73	6.77
689.759	8.77
689.789	2.77
689.818	8.77
689.848	9.77
689.877	19.77
689.906	-7.23
689.936	-0.23
689.965	5.77
689.995	1.77
690.024	5.77
690.054	10.77
690.083	1.77
690.113	4.77
690.142	22.77
690.172	1.77
690.201	-0.23
690.231	-13.23
690.26	5.77
690.29	9.77
690.319	7.77
690.348	9.77
690.378	3.77
690.407	9.77
690.437	-6.23
690.466	0.77
690.496	6.77
690.525	9.77
690.555	0.77
690.584	5.77
690.613	-0.23
690.643	9.77
690.672	6.77
690.702	5.77
690.731	3.77
690.76	14.77
690.79	4.77
690.819	-5.23
690.849	1.77
690.878	-10.23
690.907	-0.23
690.937	20.77
690.966	10.77
690.996	7.77
691.025	6.77
691.054	-0.23
691.084	-3.23
691.113	-15.23
691.142	-5.23
691.172	12.77
691.201	9.77
691.23	5.77
691.26	11.77
691.289	13.77
691.319	7.77
691.348	-0.23
691.377	21.77
691.407	-0.23
691.436	-11.23
691.465	9.77
691.495	10.77
691.524	-6.23
691.553	-11.23
691.583	-9.23
691.612	20.77
691.641	5.77
691.67	4.77
691.7	2.77
691.729	-9.23
691.758	3.77
691.788	8.77
691.817	-1.23
691.846	-4.23
691.876	2.77
691.905	18.77
691.934	-0.23
691.963	25.77
691.993	12.77
692.022	4.77
692.051	1.77
692.081	3.77
692.11	4.77
692.139	8.77
692.168	9.77
692.198	9.77
692.227	17.77
692.256	-9.23
692.285	12.77
692.315	3.77
692.344	8.77
692.373	6.77
692.402	-6.23
692.432	-1.23
692.461	13.77
692.49	11.77
692.519	-7.23
692.548	23.77
692.578	8.77
692.607	7.77
692.636	3.77
692.665	15.77
692.694	11.77
692.724	7.77
692.753	17.77
692.782	16.77
692.811	0.77
692.84	0.77
692.87	1.77
692.899	11.77
692.928	-0.23
692.957	1.77
692.986	17.77
693.016	8.77
693.045	5.77
693.074	2.77
693.103	9.77
693.132	-10.23
693.161	1.77
693.191	-0.23
693.22	5.77
693.249	2.77
693.278	-5.23
693.307	0.77
693.336	-10.23
693.365	-5.23
693.395	-1.23
693.424	1.77
693.453	12.77
693.482	1.77
693.511	8.77
693.54	11.77
693.569	28.77
693.598	5.77
693.628	0.77
693.657	13.77
693.686	15.77
693.715	18.77
693.744	13.77
693.773	12.77
693.802	3.77
693.831	8.77
693.86	20.77
693.889	-8.23
693.919	-1.23
693.948	8.77
693.977	-2.23
694.006	-2.23
694.035	5.77
694.064	7.77
694.093	-0.23
694.122	-7.23
694.151	3.77
694.18	4.77
694.209	31.77
694.238	14.77
694.267	13.77
694.296	7.77
694.325	9.77
694.354	23.77
694.383	15.77
694.412	10.77
694.441	-1.23
694.471	0.77
694.5	-1.23
694.529	6.77
694.558	11.77
694.587	4.77
694.616	10.77
694.645	-10.23
694.674	10.77
694.703	10.77
694.732	3.77
694.761	10.77
694.79	13.77
694.819	-5.23
694.848	-0.23
694.877	15.77
694.906	19.77
694.935	-1.23
694.963	10.77
694.992	3.77
695.021	6.77
695.05	8.77
695.079	7.77
695.108	1.77
695.137	15.77
695.166	9.77
695.195	-14.23
695.224	25.77
695.253	-5.23
695.282	5.77
695.311	0.77
695.34	-6.23
695.369	-0.23
695.398	6.77
695.427	24.77
695.456	7.77
695.485	9.77
695.513	3.77
695.542	-4.23
695.571	7.77
695.6	23.77
695.629	14.77
695.658	5.77
695.687	9.77
695.716	10.77
695.745	19.77
695.774	-8.23
695.802	2.77
695.831	4.77
695.86	6.77
695.889	1.77
695.918	-2.23
695.947	-2.23
695.976	7.77
696.005	8.77
696.033	16.77
696.062	24.77
696.091	17.77
696.12	-10.23
696.149	10.77
696.178	4.77
696.207	5.77
696.235	0.77
696.264	11.77
696.293	11.77
696.322	19.77
696.351	14.77
696.38	9.77
696.408	16.77
696.437	-5.23
696.466	5.77
696.495	19.77
696.524	11.77
696.553	-3.23
696.581	17.77
696.61	-3.23
696.639	1.77
696.668	0.77
696.697	-5.23
696.725	14.77
696.754	9.77
696.783	-4.23
696.812	1.77
696.84	2.77
696.869	9.77
696.898	13.77
696.927	5.77
696.956	27.77
696.984	-6.23
697.013	10.77
697.042	-1.23
697.071	2.77
697.099	10.77
697.128	17.77
697.157	-0.23
697.186	9.77
697.214	9.77
697.243	-0.23
697.272	-1.23
697.301	17.77
697.329	1.77
697.358	-4.23
697.387	29.77
697.415	13.77
697.444	3.77
697.473	12.77
697.502	5.77
697.53	14.77
697.559	14.77
697.588	2.77
697.616	0.77
697.645	11.77
697.674	7.77
697.703	6.77
697.731	3.77
697.76	4.77
697.789	5.77
697.817	17.77
697.846	24.77
697.875	14.77
697.903	12.77
697.932	8.77
697.961	12.77
697.989	2.77
698.018	2.77
698.047	7.77
698.075	29.77
698.104	-3.23
698.133	-8.23
698.161	-6.23
698.19	6.77
698.218	13.77
698.247	7.77
698.276	0.77
698.304	20.77
698.333	-1.23
698.362	7.77
698.39	0.77
698.419	6.77
698.447	1.77
698.476	20.77
698.505	24.77
698.533	7.77
698.562	13.77
698.591	-7.23
698.619	-7.23
698.648	1.77
698.676	4.77
698.705	-10.23
698.733	-8.23
698.762	10.77
698.791	7.77
698.819	-1.23
698.848	2.77
698.876	5.77
698.905	3.77
698.933	16.77
698.962	10.77
698.991	12.77
699.019	15.77
699.048	14.77
699.076	1.77
699.105	-21.23
699.133	10.77
699.162	7.77
699.19	28.77
699.219	2.77
699.248	20.77
699.276	5.77
699.305	1.77
699.333	10.77
699.362	15.77
699.39	13.77
699.419	-7.23
699.447	12.77
699.476	25.77
699.504	1.77
699.533	17.77
699.561	12.77
699.59	7.77
699.618	9.77
699.647	18.77
699.675	14.77
699.704	11.77
699.732	0.77
699.761	10.77
699.789	-1.23
699.818	25.77
699.846	10.77
699.874	1.77
699.903	-11.23
699.931	1.77
699.96	16.77
699.988	6.77
700.017	9.77
700.045	-5.23
700.074	2.77
700.102	1.77
700.13	2.77
700.159	16.77
700.187	5.77
700.216	-3.23
700.244	1.77
700.273	-10.23
700.301	2.77
700.329	0.77
700.358	9.77
700.386	5.77
700.415	-1.23
700.443	-6.23
700.472	-3.23
700.5	2.77
700.528	20.77
700.557	13.77
700.585	-2.23
700.614	1.77
700.642	15.77
700.67	24.77
700.699	-1.23
700.727	-1.23
700.755	14.77
700.784	7.77
700.812	-3.23
700.841	18.77
700.869	4.77
700.897	-8.23
700.926	4.77
700.954	5.77
700.982	5.77
701.011	13.77
701.039	28.77
701.067	14.77
701.096	1.77
701.124	-8.23
701.152	-3.23
701.181	-6.23
701.209	-9.23
701.237	2.77
701.266	-1.23
701.294	17.77
701.322	2.77
701.351	19.77
701.379	-6.23
701.407	5.77
701.435	9.77
701.464	19.77
701.492	33.77
701.52	-8.23
701.549	1.77
701.577	4.77
701.605	5.77
701.634	-3.23
701.662	10.77
701.69	-7.23
701.718	-1.23
701.747	4.77
701.775	-4.23
701.803	-3.23
701.831	10.77
701.86	-10.23
701.888	17.77
701.916	-3.23
701.944	4.77
701.973	10.77
702.001	-12.23
702.029	-6.23
702.057	-5.23
702.086	-8.23
702.114	-18.23
702.142	-3.23
702.17	-2.23
702.199	5.77
702.227	8.77
702.255	2.77
702.283	10.77
702.311	4.77
702.34	13.77
702.368	-6.23
702.396	11.77
702.424	-4.23
702.452	3.77
702.481	14.77
702.509	6.77
702.537	6.77
702.565	6.77
702.593	-17.23
702.621	3.77
702.65	1.77
702.678	12.77
702.706	-5.23
702.734	-8.23
702.762	9.77
702.79	9.77
702.819	6.77
702.847	16.77
702.875	24.77
702.903	17.77
702.931	-11.23
702.959	-4.23
702.988	1.77
703.016	5.77
703.044	5.77
703.072	-1.23
703.1	-18.23
703.128	15.77
703.156	21.77
703.184	1.77
703.212	13.77
703.241	14.77
703.269	16.77
703.297	24.77
703.325	3.77
703.353	5.77
703.381	-5.23
703.409	4.77
703.437	13.77
703.465	-11.23
703.493	-9.23
703.522	6.77
703.55	10.77
703.578	10.77
703.606	-8.23
703.634	-9.23
703.662	-15.23
703.69	-7.23
703.718	5.77
703.746	11.77
703.774	1.77
703.802	6.77
703.83	5.77
703.858	13.77
703.886	5.77
703.914	6.77
703.942	5.77
703.97	4.77
703.998	0.77
704.027	13.77
704.055	11.77
704.083	11.77
704.111	-9.23
704.139	0.77
704.167	8.77
704.195	0.77
704.223	2.77
704.251	2.77
704.279	8.77
704.307	21.77
704.335	-2.23
704.363	-4.23
704.391	-1.23
704.419	12.77
704.447	-2.23
704.475	-11.23
704.503	-8.23
704.531	6.77
704.558	5.77
704.586	9.77
704.614	-3.23
704.642	-1.23
704.67	-7.23
704.698	1.77
704.726	15.77
704.754	5.77
704.782	3.77
704.81	-10.23
704.838	30.77
704.866	5.77
704.894	-2.23
704.922	5.77
704.95	-2.23
704.978	10.77
705.006	10.77
705.034	7.77
705.061	1.77
705.089	2.77
705.117	-1.23
705.145	-9.23
705.173	7.77
705.201	4.77
705.229	19.77
705.257	-5.23
705.285	8.77
705.313	4.77
705.34	6.77
705.368	-16.23
705.396	9.77
705.424	2.77
705.452	4.77
705.48	6.77
705.508	-6.23
705.536	6.77
705.563	-15.23
705.591	11.77
705.619	3.77
705.647	4.77
705.675	4.77
705.703	7.77
705.731	-8.23
705.758	-1.23
705.786	4.77
705.814	17.77
705.842	2.77
705.87	17.77
705.898	13.77
705.925	-1.23
705.953	7.77
705.981	-6.23
706.009	2.77
706.037	4.77
706.065	-7.23
706.092	-7.23
706.12	1.77
706.148	4.77
706.176	-14.23
706.204	6.77
706.231	-6.23
706.259	-8.23
706.287	-11.23
706.315	-3.23
706.342	-3.23
706.37	8.77
706.398	5.77
706.426	9.77
706.454	-11.23
706.481	15.77
706.509	10.77
706.537	-6.23
706.565	0.77
706.592	-7.23
706.62	3.77
706.648	4.77
706.676	6.77
706.703	15.77
706.731	4.77
706.759	0.77
706.787	0.77
706.814	0.77
706.842	-11.23
706.87	5.77
706.897	10.77
706.925	-0.23
706.953	9.77
706.981	8.77
707.008	-2.23
707.036	14.77
707.064	10.77
707.091	4.77
707.119	10.77
707.147	19.77
707.174	0.77
707.202	19.77
707.23	-9.23
707.258	4.77
707.285	6.77
707.313	-3.23
707.341	-0.23
707.368	-1.23
707.396	5.77
707.424	12.77
707.451	5.77
707.479	13.77
707.507	7.77
707.534	6.77
707.562	6.77
707.59	-10.23
707.617	1.77
707.645	0.77
707.672	24.77
707.7	9.77
707.728	21.77
707.755	12.77
707.783	8.77
707.811	21.77
707.838	-14.23
707.866	1.77
707.893	-0.23
707.921	-1.23
707.949	-3.23
707.976	7.77
708.004	7.77
708.031	-7.23
708.059	6.77
708.087	-2.23
708.114	4.77
708.142	-0.23
708.169	-3.23
708.197	-2.23
708.225	1.77
708.252	-8.23
708.28	14.77
708.307	4.77
708.335	5.77
708.362	-20.23
708.39	-7.23
708.418	9.77
708.445	3.77
708.473	-6.23
708.5	-8.23
708.528	-10.23
708.555	-14.23
708.583	2.77
708.61	0.77
708.638	6.77
708.665	-7.23
708.693	-16.23
708.72	-1.23
708.748	-5.23
708.776	12.77
708.803	19.77
708.831	17.77
708.858	17.77
708.886	3.77
708.913	1.77
708.941	-5.23
708.968	5.77
708.996	-9.23
709.023	22.77
709.051	6.77
709.078	-4.23
709.105	7.77
709.133	-11.23
709.16	-10.23
709.188	12.77
709.215	14.77
709.243	8.77
709.27	3.77
709.298	9.77
709.325	-9.23
709.353	-4.23
709.38	-2.23
709.408	10.77
709.435	9.77
709.462	8.77
709.49	4.77
709.517	16.77
709.545	12.77
709.572	2.77
709.6	-0.23
709.627	-7.23
709.655	-9.23
709.682	0.77
709.709	4.77
709.737	2.77
709.764	-8.23
709.792	13.77
709.819	7.77
709.846	17.77
709.874	9.77
709.901	11.77
709.929	14.77
709.956	-4.23
709.983	5.77
710.011	5.77
710.038	0.77
710.066	8.77
710.093	8.77
710.12	5.77
710.148	7.77
710.175	12.77
710.202	-6.23
710.23	7.77
710.257	-5.23
710.284	12.77
710.312	2.77
710.339	3.77
710.366	-0.23
710.394	-10.23
710.421	1.77
710.448	-1.23
710.476	-15.23
710.503	6.77
710.53	13.77
710.558	21.77
710.585	13.77
710.612	6.77
710.64	6.77
710.667	0.77
710.694	10.77
710.722	1.77
710.749	13.77
710.776	8.77
710.804	20.77
710.831	-8.23
710.858	-4.23
710.885	4.77
710.913	-0.23
710.94	21.77
710.967	7.77
710.995	0.77
711.022	13.77
711.049	6.77
711.076	-1.23
711.104	5.77
711.131	-0.23
711.158	9.77
711.185	14.77
711.213	5.77
711.24	-0.23
711.267	2.77
711.294	-3.23
711.322	16.77
711.349	-5.23
711.376	-6.23
711.403	12.77
711.431	4.77
711.458	-14.23
711.485	-5.23
711.512	6.77
711.54	4.77
711.567	9.77
711.594	9.77
711.621	-3.23
711.648	17.77
711.676	5.77
711.703	-8.23
711.73	-36.23
711.757	8.77
711.784	1.77
711.812	5.77
711.839	14.77
711.866	-0.23
711.893	-9.23
711.92	5.77
711.947	3.77
711.975	-1.23
712.002	-8.23
712.029	12.77
712.056	-6.23
712.083	2.77
712.11	-16.23
712.138	-2.23
712.165	5.77
712.192	16.77
712.219	-1.23
712.246	-5.23
712.273	-11.23
712.3	-7.23
712.328	7.77
712.355	-6.23
712.382	-13.23
712.409	-3.23
712.436	-15.23
712.463	8.77
712.49	7.77
712.517	17.77
712.544	-1.23
712.572	9.77
712.599	-5.23
712.626	2.77
712.653	-1.23
712.68	-11.23
712.707	13.77
712.734	20.77
712.761	6.77
712.788	-0.23
712.815	4.77
712.842	9.77
712.87	4.77
712.897	-5.23
712.924	-4.23
712.951	-1.23
712.978	8.77
713.005	9.77
713.032	14.77
713.059	-1.23
713.086	-4.23
713.113	-8.23
713.14	-10.23
713.167	-4.23
713.194	17.77
713.221	13.77
713.248	10.77
713.275	3.77
713.302	4.77
713.329	2.77
713.356	9.77
713.383	-1.23
713.41	5.77
713.437	-10.23
713.464	0.77
713.491	9.77
713.518	5.77
713.545	-0.23
713.572	5.77
713.599	17.77
713.626	3.77
713.653	21.77
713.68	1.77
713.707	-1.23
713.734	11.77
713.761	-0.23
713.788	10.77
713.815	12.77
713.842	16.77
713.869	12.77
713.896	-1.23
713.923	-3.23
713.95	-9.23
713.977	-7.23
714.004	5.77
714.031	-7.23
714.058	2.77
714.085	4.77
714.112	14.77
714.139	-3.23
714.165	4.77
714.192	-15.23
714.219	13.77
714.246	0.77
714.273	0.77
714.3	7.77
714.327	4.77
714.354	16.77
714.381	5.77
714.408	2.77
714.435	4.77
714.461	0.77
714.488	19.77
714.515	2.77
714.542	-5.23
714.569	18.77
714.596	-14.23
714.623	-19.23
714.65	-9.23
714.677	4.77
714.703	4.77
714.73	10.77
714.757	10.77
714.784	5.77
714.811	12.77
714.838	4.77
714.865	-1.23
714.891	11.77
714.918	1.77
714.945	-7.23
714.972	9.77
714.999	9.77
715.026	-10.23
715.052	9.77
715.079	12.77
715.106	8.77
715.133	8.77
715.16	-0.23
715.187	4.77
715.213	13.77
715.24	-3.23
715.267	1.77
715.294	10.77
715.321	3.77
715.347	-4.23
715.374	-1.23
715.401	-4.23
715.428	-7.23
715.455	14.77
715.481	1.77
715.508	7.77
715.535	7.77
715.562	26.77
715.588	5.77
715.615	-4.23
715.642	-6.23
715.669	12.77
715.695	3.77
715.722	-3.23
715.749	9.77
715.776	19.77
715.802	5.77
715.829	10.77
715.856	2.77
715.883	16.77
715.909	1.77
715.936	-0.23
715.963	-1.23
715.99	6.77
716.016	7.77
716.043	0.77
716.07	-8.23
716.096	-9.23
716.123	-0.23
716.15	4.77
716.177	16.77
716.203	8.77
716.23	5.77
716.257	3.77
716.283	8.77
716.31	-3.23
716.337	17.77
716.363	-14.23
716.39	5.77
716.417	-4.23
716.443	-3.23
716.47	15.77
716.497	5.77
716.523	18.77
716.55	5.77
716.577	12.77
716.603	-7.23
716.63	4.77
716.657	11.77
716.683	4.77
716.71	1.77
716.737	-2.23
716.763	10.77
716.79	11.77
716.817	11.77
716.843	17.77
716.87	1.77
716.897	4.77
716.923	15.77
716.95	-8.23
716.976	0.77
717.003	7.77
717.03	-2.23
717.056	-2.23
717.083	-7.23
717.109	17.77
717.136	-3.23
717.163	-12.23
717.189	3.77
717.216	4.77
717.242	1.77
717.269	0.77
717.296	17.77
717.322	14.77
717.349	6.77
717.375	10.77
717.402	5.77
717.428	18.77
717.455	17.77
717.481	13.77
717.508	7.77
717.535	2.77
717.561	4.77
717.588	-0.23
717.614	-7.23
717.641	-5.23
717.667	-7.23
717.694	7.77
717.72	1.77
717.747	2.77
717.773	-0.23
717.8	4.77
717.826	23.77
717.853	0.77
717.88	5.77
717.906	-1.23
717.933	0.77
717.959	-6.23
717.986	-8.23
718.012	-5.23
718.039	19.77
718.065	11.77
718.092	-2.23
718.118	-6.23
718.144	0.77
718.171	14.77
718.197	10.77
718.224	14.77
718.25	8.77
718.277	3.77
718.303	0.77
718.33	-2.23
718.356	-8.23
718.383	-11.23
718.409	-2.23
718.436	11.77
718.462	-7.23
718.489	-7.23
718.515	24.77
718.541	19.77
718.568	10.77
718.594	17.77
718.621	6.77
718.647	3.77
718.674	0.77
718.7	14.77
718.726	6.77
718.753	13.77
718.779	17.77
718.806	5.77
718.832	2.77
718.858	1.77
718.885	-3.23
718.911	1.77
718.938	7.77
718.964	-1.23
718.99	7.77
719.017	7.77
719.043	6.77
719.07	9.77
719.096	-7.23
719.122	9.77
719.149	0.77
719.175	-2.23
719.201	-4.23
719.228	8.77
719.254	16.77
719.281	1.77
719.307	5.77
719.333	22.77
719.36	21.77
719.386	10.77
719.412	-4.23
719.439	-10.23
719.465	-10.23
719.491	0.77
719.518	13.77
719.544	4.77
719.57	4.77
719.597	15.77
719.623	0.77
719.649	6.77
719.675	17.77
719.702	10.77
719.728	22.77
719.754	-0.23
719.781	0.77
719.807	-5.23
719.833	1.77
719.86	-2.23
719.886	-1.23
719.912	4.77
719.938	-1.23
719.965	-3.23
719.991	12.77
720.017	15.77
720.044	0.77
720.07	3.77
720.096	12.77
720.122	4.77
720.149	-0.23
720.175	16.77
720.201	7.77
720.227	4.77
720.254	0.77
720.28	4.77
720.306	-11.23
720.332	-3.23
720.359	6.77
720.385	21.77
720.411	8.77
720.437	-2.23
720.463	-5.23
720.49	5.77
720.516	-8.23
720.542	-8.23
720.568	-4.23
720.595	11.77
720.621	14.77
720.647	5.77
720.673	9.77
720.699	4.77
720.725	17.77
720.752	-7.23
720.778	2.77
720.804	1.77
720.83	-4.23
720.856	-2.23
720.883	7.77
720.909	9.77
720.935	8.77
720.961	2.77
720.987	12.77
721.013	31.77
721.04	3.77
721.066	-15.23
721.092	10.77
721.118	11.77
721.144	-8.23
721.17	6.77
721.196	8.77
721.223	-16.23
721.249	10.77
721.275	20.77
721.301	-3.23
721.327	4.77
721.353	-11.23
721.379	13.77
721.405	6.77
721.432	5.77
721.458	4.77
721.484	13.77
721.51	5.77
721.536	20.77
721.562	-0.23
721.588	15.77
721.614	-7.23
721.64	-1.23
721.666	1.77
721.693	-1.23
721.719	2.77
721.745	-1.23
721.771	0.77
721.797	-6.23
721.823	2.77
721.849	19.77
721.875	14.77
721.901	8.77
721.927	-11.23
721.953	9.77
721.979	6.77
722.005	6.77
722.031	-0.23
722.057	0.77
722.083	1.77
722.109	18.77
722.135	13.77
722.161	12.77
722.187	-0.23
722.214	3.77
722.24	-0.23
722.266	-0.23
722.292	10.77
722.318	17.77
722.344	-3.23
722.37	7.77
722.396	18.77
722.422	10.77
722.448	10.77
722.474	-18.23
722.5	17.77
722.526	6.77
722.552	4.77
722.578	-2.23
722.603	6.77
722.629	-10.23
722.655	14.77
722.681	-5.23
722.707	1.77
722.733	0.77
722.759	-8.23
722.785	5.77
722.811	1.77
722.837	1.77
722.863	28.77
722.889	9.77
722.915	-19.23
722.941	-8.23
722.967	1.77
722.993	5.77
723.019	5.77
723.045	6.77
723.071	-3.23
723.097	-0.23
723.122	-0.23
723.148	7.77
723.174	-0.23
723.2	9.77
723.226	-10.23
723.252	-2.23
723.278	0.77
723.304	-8.23
723.33	-2.23
723.356	-18.23
723.381	-8.23
723.407	2.77
723.433	28.77
723.459	5.77
723.485	2.77
723.511	21.77
723.537	7.77
723.563	-0.23
723.588	0.77
723.614	11.77
723.64	1.77
723.666	4.77
723.692	20.77
723.718	-0.23
723.744	-0.23
723.769	-3.23
723.795	-2.23
723.821	16.77
723.847	-5.23
723.873	-0.23
723.899	9.77
723.924	-1.23
723.95	-1.23
723.976	1.77
724.002	15.77
724.028	6.77
724.053	-2.23
724.079	1.77
724.105	12.77
724.131	10.77
724.157	2.77
724.182	5.77
724.208	2.77
724.234	5.77
724.26	-3.23
724.286	5.77
724.311	4.77
724.337	4.77
724.363	-5.23
724.389	10.77
724.415	-6.23
724.44	22.77
724.466	3.77
724.492	10.77
724.518	4.77
724.543	10.77
724.569	-3.23
724.595	5.77
724.621	-6.23
724.646	-16.23
724.672	-3.23
724.698	-0.23
724.723	-14.23
724.749	-0.23
724.775	18.77
724.801	1.77
724.826	0.77
724.852	-4.23
724.878	7.77
724.904	-15.23
724.929	4.77
724.955	-8.23
724.981	-9.23
725.006	-7.23
725.032	7.77
725.058	19.77
725.083	0.77
725.109	4.77
725.135	-0.23
725.161	3.77
725.186	0.77
725.212	5.77
725.238	19.77
725.263	14.77
725.289	5.77
725.315	-8.23
725.34	13.77
725.366	11.77
725.392	-6.23
725.417	19.77
725.443	19.77
725.468	26.77
725.494	17.77
725.52	20.77
725.545	-3.23
725.571	-8.23
725.597	-2.23
725.622	6.77
725.648	4.77
725.674	14.77
725.699	24.77
725.725	-0.23
725.75	16.77
725.776	-1.23
725.802	-4.23
725.827	16.77
725.853	8.77
725.878	-3.23
725.904	-2.23
725.93	-3.23
725.955	-22.23
725.981	-9.23
726.006	3.77
726.032	5.77
726.057	-8.23
726.083	-13.23
726.109	-4.23
726.134	-13.23
726.16	-2.23
726.185	8.77
726.211	0.77
726.236	14.77
726.262	5.77
726.288	16.77
726.313	8.77
726.339	10.77
726.364	-3.23
726.39	5.77
726.415	-2.23
726.441	18.77
726.466	5.77
726.492	6.77
726.517	8.77
726.543	-1.23
726.568	-0.23
726.594	-26.23
726.619	-2.23
726.645	15.77
726.67	-1.23
726.696	5.77
726.721	-11.23
726.747	-4.23
726.772	13.77
726.798	1.77
726.823	0.77
726.849	6.77
726.874	6.77
726.9	35.77
726.925	1.77
726.951	2.77
726.976	9.77
727.002	-0.23
727.027	16.77
727.053	18.77
727.078	-3.23
727.104	7.77
727.129	-1.23
727.155	-1.23
727.18	9.77
727.205	11.77
727.231	-3.23
727.256	4.77
727.282	-2.23
727.307	14.77
727.333	-1.23
727.358	-6.23
727.383	-3.23
727.409	-20.23
727.434	8.77
727.46	0.77
727.485	9.77
727.511	11.77
727.536	-21.23
727.561	-8.23
727.587	-0.23
727.612	8.77
727.637	-0.23
727.663	1.77
727.688	19.77
727.714	9.77
727.739	1.77
727.764	-0.23
727.79	20.77
727.815	5.77
727.841	8.77
727.866	7.77
727.891	16.77
727.917	4.77
727.942	-16.23
727.967	1.77
727.993	-16.23
728.018	1.77
728.043	-4.23
728.069	0.77
728.094	8.77
728.119	1.77
728.145	21.77
728.17	11.77
728.195	3.77
728.221	12.77
728.246	-12.23
728.271	-14.23
728.297	-12.23
728.322	4.77
728.347	2.77
728.373	21.77
728.398	22.77
728.423	-8.23
728.448	2.77
728.474	18.77
728.499	9.77
728.524	4.77
728.55	-6.23
728.575	2.77
728.6	12.77
728.625	4.77
728.651	-5.23
728.676	1.77
728.701	9.77
728.727	9.77
728.752	-11.23
728.777	-3.23
728.802	3.77
728.828	4.77
728.853	-6.23
728.878	0.77
728.903	-3.23
728.929	4.77
728.954	-3.23
728.979	21.77
729.004	10.77
729.03	0.77
729.055	10.77
729.08	-11.23
729.105	-9.23
729.13	7.77
729.156	2.77
729.181	-6.23
729.206	-10.23
729.231	-11.23
729.256	8.77
729.282	1.77
729.307	-2.23
729.332	5.77
729.357	-2.23
729.382	21.77
729.408	-1.23
729.433	-1.23
729.458	-0.23
729.483	22.77
729.508	25.77
729.533	2.77
729.559	13.77
729.584	-6.23
729.609	9.77
729.634	16.77
729.659	2.77
729.684	-3.23
729.71	20.77
729.735	16.77
729.76	2.77
729.785	-12.23
729.81	-0.23
729.835	0.77
729.86	-4.23
729.886	8.77
729.911	8.77
729.936	2.77
729.961	2.77
729.986	-14.23
730.011	15.77
730.036	2.77
730.061	8.77
730.086	15.77
730.112	5.77
730.137	27.77
730.162	13.77
730.187	-16.23
730.212	0.77
730.237	7.77
730.262	3.77
730.287	12.77
730.312	15.77
730.337	-2.23
730.362	23.77
730.387	15.77
730.413	-0.23
730.438	-4.23
730.463	8.77
730.488	9.77
730.513	-13.23
730.538	16.77
730.563	29.77
730.588	10.77
730.613	10.77
730.638	1.77
730.663	7.77
730.688	22.77
730.713	-1.23
730.738	9.77
730.763	0.77
730.788	-5.23
730.813	-0.23
730.838	-4.23
730.863	-4.23
730.888	-0.23
730.913	-9.23
730.938	-1.23
730.963	5.77
730.988	1.77
731.013	27.77
731.038	1.77
731.063	-2.23
731.088	10.77
731.113	-7.23
731.138	9.77
731.163	10.77
731.188	-2.23
731.213	21.77
731.238	14.77
731.263	14.77
731.288	-1.23
731.313	5.77
731.338	0.77
731.363	9.77
731.388	-11.23
731.413	15.77
731.438	16.77
731.463	11.77
731.487	4.77
731.512	14.77
731.537	-1.23
731.562	0.77
731.587	-0.23
731.612	-2.23
731.637	-1.23
731.662	8.77
731.687	2.77
731.712	-7.23
731.737	7.77
731.762	11.77
731.786	3.77
731.811	15.77
731.836	12.77
731.861	-9.23
731.886	-8.23
731.911	15.77
731.936	18.77
731.961	-2.23
731.986	-2.23
732.01	0.77
732.035	2.77
732.06	26.77
732.085	14.77
732.11	-6.23
732.135	-4.23
732.16	-0.23
732.184	-5.23
732.209	-1.23
732.234	19.77
732.259	2.77
732.284	10.77
732.309	9.77
732.334	-5.23
732.358	-11.23
732.383	-2.23
732.408	8.77
732.433	1.77
732.458	-1.23
732.482	2.77
732.507	-2.23
732.532	5.77
732.557	5.77
732.582	14.77
732.607	-6.23
732.631	-26.23
732.656	8.77
732.681	14.77
732.706	0.77
732.73	-6.23
732.755	4.77
732.78	6.77
732.805	5.77
732.83	1.77
732.854	13.77
732.879	19.77
732.904	-1.23
732.929	-2.23
732.953	12.77
732.978	0.77
733.003	-8.23
733.028	-15.23
733.052	3.77
733.077	-11.23
733.102	13.77
733.127	-1.23
733.151	-5.23
733.176	6.77
733.201	-1.23
733.226	5.77
733.25	9.77
733.275	22.77
733.3	10.77
733.324	23.77
733.349	0.77
733.374	-2.23
733.399	0.77
733.423	-9.23
733.448	9.77
733.473	4.77
733.497	4.77
733.522	-3.23
733.547	2.77
733.571	25.77
733.596	5.77
733.621	4.77
733.646	1.77
733.67	1.77
733.695	-1.23
733.72	2.77
733.744	10.77
733.769	-5.23
733.794	18.77
733.818	0.77
733.843	-2.23
733.867	0.77
733.892	4.77
733.917	9.77
733.941	4.77
733.966	6.77
733.991	-9.23
734.015	27.77
734.04	9.77
734.065	12.77
734.089	13.77
734.114	-0.23
734.138	8.77
734.163	9.77
734.188	6.77
734.212	8.77
734.237	14.77
734.261	0.77
734.286	-6.23
734.311	-7.23
734.335	5.77
734.36	-0.23
734.384	15.77
734.409	16.77
734.434	5.77
734.458	7.77
734.483	2.77
734.507	-2.23
734.532	0.77
734.556	11.77
734.581	-0.23
734.606	6.77
734.63	-9.23
734.655	1.77
734.679	15.77
734.704	-2.23
734.728	-0.23
734.753	14.77
734.777	9.77
734.802	4.77
734.826	0.77
734.851	4.77
734.876	12.77
734.9	16.77
734.925	14.77
734.949	6.77
734.974	-2.23
734.998	17.77
735.023	-8.23
735.047	0.77
735.072	8.77
735.096	14.77
735.121	0.77
735.145	-4.23
735.17	-3.23
735.194	22.77
735.219	10.77
735.243	14.77
735.268	15.77
735.292	14.77
735.317	12.77
735.341	5.77
735.365	-5.23
735.39	16.77
735.414	13.77
735.439	13.77
735.463	-2.23
735.488	17.77
735.512	7.77
735.537	1.77
735.561	-4.23
735.586	5.77
735.61	8.77
735.634	-0.23
735.659	3.77
735.683	22.77
735.708	-13.23
735.732	-9.23
735.757	-6.23
735.781	13.77
735.805	-5.23
735.83	-10.23
735.854	11.77
735.879	8.77
735.903	16.77
735.927	30.77
735.952	7.77
735.976	-1.23
736.001	-6.23
736.025	-1.23
736.049	10.77
736.074	-2.23
736.098	-3.23
736.123	-0.23
736.147	5.77
736.171	5.77
736.196	18.77
736.22	-6.23
736.244	-2.23
736.269	13.77
736.293	5.77
736.317	-2.23
736.342	9.77
736.366	31.77
736.39	15.77
736.415	8.77
736.439	15.77
736.463	10.77
736.488	15.77
736.512	2.77
736.536	2.77
736.561	21.77
736.585	1.77
736.609	21.77
736.634	-2.23
736.658	-5.23
736.682	-15.23
736.707	-21.23
736.731	6.77
736.755	2.77
736.78	14.77
736.804	3.77
736.828	19.77
736.852	-5.23
736.877	6.77
736.901	10.77
736.925	6.77
736.949	10.77
736.974	-3.23
736.998	-3.23
737.022	-4.23
737.047	-3.23
737.071	1.77
737.095	32.77
737.119	25.77
737.144	5.77
737.168	-4.23
737.192	-4.23
737.216	9.77
737.241	11.77
737.265	3.77
737.289	8.77
737.313	7.77
737.337	5.77
737.362	-4.23
737.386	-0.23
737.41	5.77
737.434	12.77
737.459	1.77
737.483	6.77
737.507	20.77
737.531	18.77
737.555	1.77
737.58	8.77
737.604	10.77
737.628	-4.23
737.652	-1.23
737.676	5.77
737.701	2.77
737.725	-2.23
737.749	12.77
737.773	6.77
737.797	1.77
737.821	7.77
737.846	-1.23
737.87	18.77
737.894	-3.23
737.918	6.77
737.942	11.77
737.966	12.77
737.99	12.77
738.015	9.77
738.039	6.77
738.063	0.77
738.087	13.77
738.111	3.77
738.135	14.77
738.159	-2.23
738.184	-5.23
738.208	-6.23
738.232	2.77
738.256	7.77
738.28	8.77
738.304	13.77
738.328	12.77
738.352	13.77
738.376	-0.23
738.4	1.77
738.425	7.77
738.449	-1.23
738.473	23.77
738.497	12.77
738.521	-11.23
738.545	4.77
738.569	16.77
738.593	9.77
738.617	4.77
738.641	6.77
738.665	-2.23
738.689	-0.23
738.713	7.77
738.737	18.77
738.762	9.77
738.786	14.77
738.81	-1.23
738.834	9.77
738.858	-1.23
738.882	-1.23
738.906	-3.23
738.93	-9.23
738.954	1.77
738.978	4.77
739.002	12.77
739.026	14.77
739.05	0.77
739.074	3.77
739.098	30.77
739.122	12.77
739.146	6.77
739.17	10.77
739.194	-0.23
739.218	3.77
739.242	5.77
739.266	-8.23
739.29	13.77
739.314	9.77
739.338	-0.23
739.362	6.77
739.386	8.77
739.41	-7.23
739.434	-4.23
739.458	17.77
739.482	4.77
739.506	8.77
739.53	-1.23
739.554	1.77
739.577	8.77
739.601	15.77
739.625	-3.23
739.649	9.77
739.673	6.77
739.697	17.77
739.721	0.77
739.745	27.77
739.769	17.77
739.793	14.77
739.817	18.77
739.841	8.77
739.865	5.77
739.889	9.77
739.912	6.77
739.936	1.77
739.96	-7.23
739.984	22.77
740.008	-2.23
740.032	-2.23
740.056	2.77
740.08	6.77
740.104	5.77
740.127	10.77
740.151	15.77
740.175	25.77
740.199	9.77
740.223	36.77
740.247	5.77
740.271	15.77
740.295	15.77
740.318	6.77
740.342	6.77
740.366	5.77
740.39	12.77
740.414	-2.23
740.438	-7.23
740.461	15.77
740.485	8.77
740.509	-7.23
740.533	14.77
740.557	0.77
740.581	-2.23
740.604	-14.23
740.628	1.77
740.652	21.77
740.676	10.77
740.7	18.77
740.723	-1.23
740.747	-3.23
740.771	-0.23
740.795	4.77
740.819	13.77
740.842	12.77
740.866	19.77
740.89	25.77
740.914	12.77
740.938	0.77
740.961	9.77
740.985	22.77
741.009	0.77
741.033	11.77
741.056	-0.23
741.08	-3.23
741.104	-5.23
741.128	1.77
741.151	16.77
741.175	14.77
741.199	4.77
741.223	6.77
741.246	-14.23
741.27	5.77
741.294	0.77
741.318	-2.23
741.341	7.77
741.365	5.77
741.389	21.77
741.413	20.77
741.436	18.77
741.46	5.77
741.484	-1.23
741.507	-12.23
741.531	17.77
741.555	15.77
741.579	5.77
741.602	14.77
741.626	18.77
741.65	7.77
741.673	17.77
741.697	25.77
741.721	8.77
741.744	-9.23
741.768	-1.23
741.792	3.77
741.815	6.77
741.839	6.77
741.863	27.77
741.886	10.77
741.91	14.77
741.934	4.77
741.957	6.77
741.981	14.77
742.005	13.77
742.028	2.77
742.052	5.77
742.075	9.77
742.099	17.77
742.123	8.77
742.146	15.77
742.17	-3.23
742.194	-6.23
742.217	-2.23
742.241	-8.23
742.264	-4.23
742.288	15.77
742.312	19.77
742.335	10.77
742.359	11.77
742.382	16.77
742.406	10.77
742.43	7.77
742.453	14.77
742.477	-22.23
742.5	0.77
742.524	4.77
742.548	-4.23
742.571	0.77
742.595	5.77
742.618	1.77
742.642	-4.23
742.665	5.77
742.689	-7.23
742.712	8.77
742.736	9.77
742.76	-0.23
742.783	-10.23
742.807	12.77
742.83	14.77
742.854	-5.23
742.877	4.77
742.901	-1.23
742.924	-1.23
742.948	10.77
742.971	1.77
742.995	2.77
743.018	-13.23
743.042	4.77
743.065	7.77
743.089	4.77
743.112	4.77
743.136	-3.23
743.159	-10.23
743.183	0.77
743.206	-4.23
743.23	-4.23
743.253	16.77
743.277	15.77
743.3	-11.23
743.324	-9.23
743.347	-9.23
743.371	10.77
743.394	13.77
743.418	7.77
743.441	4.77
743.465	15.77
743.488	7.77
743.512	-1.23
743.535	4.77
743.558	7.77
743.582	0.77
743.605	-2.23
743.629	10.77
743.652	-3.23
743.676	-0.23
743.699	23.77
743.723	12.77
743.746	12.77
743.769	7.77
743.793	-3.23
743.816	-3.23
743.84	17.77
743.863	9.77
743.886	6.77
743.91	10.77
743.933	9.77
743.957	3.77
743.98	-6.23
744.003	2.77
744.027	13.77
744.05	8.77
744.074	5.77
744.097	-11.23
744.12	3.77
744.144	4.77
744.167	25.77
744.19	0.77
744.214	10.77
744.237	-1.23
744.26	6.77
744.284	-7.23
744.307	10.77
744.331	15.77
744.354	-2.23
744.377	-1.23
744.401	7.77
744.424	-1.23
744.447	-5.23
744.471	-3.23
