Data from HighRes_H2D2_15_04_11_07_2024_HR4C61891__42__15-05-38-643.txt Node

Date: Thu Nov 07 15:05:38 EST 2024
User: crc00042
Spectrometer: HR4C6189
Trigger mode: 4
Integration Time (sec): 1.000000E-1
Scans to average: 1
Electric dark correction enabled: true
Nonlinearity correction enabled: false
Boxcar width: 0
XAxis mode: Wavelengths
Number of Pixels in Spectrum: 3648
>>>>>Begin Spectral Data<<<<<
639.567	-22.46
639.602	-22.46
639.636	-22.46
639.67	-43.46
639.704	-10.46
639.738	-4.46
639.773	2.54
639.807	-3.46
639.841	-5.46
639.875	17.54
639.909	11.54
639.943	-0.46
639.978	-14.46
640.012	-1.46
640.046	15.54
640.08	6.54
640.114	-8.46
640.148	-15.46
640.182	-14.46
640.217	13.54
640.251	16.54
640.285	1.54
640.319	-6.46
640.353	13.54
640.387	9.54
640.421	-8.46
640.455	-9.46
640.49	-10.46
640.524	4.54
640.558	-8.46
640.592	-0.46
640.626	10.54
640.66	6.54
640.694	6.54
640.728	7.54
640.762	12.54
640.796	19.54
640.83	18.54
640.865	-3.46
640.899	6.54
640.933	-1.46
640.967	-17.46
641.001	0.54
641.035	-1.46
641.069	5.54
641.103	9.54
641.137	-2.46
641.171	-5.46
641.205	20.54
641.239	12.54
641.273	12.54
641.307	11.54
641.341	1.54
641.375	-5.46
641.409	-4.46
641.443	-0.46
641.477	7.54
641.511	15.54
641.545	-0.46
641.579	-8.46
641.614	9.54
641.648	14.54
641.682	-9.46
641.716	0.54
641.75	22.54
641.784	-2.46
641.818	-6.46
641.852	9.54
641.886	-9.46
641.919	23.54
641.953	15.54
641.987	-16.46
642.021	-16.46
642.055	3.54
642.089	14.54
642.123	10.54
642.157	-19.46
642.191	2.54
642.225	8.54
642.259	-12.46
642.293	4.54
642.327	10.54
642.361	7.54
642.395	14.54
642.429	13.54
642.463	0.54
642.497	12.54
642.531	5.54
642.565	-7.46
642.599	17.54
642.633	-6.46
642.666	12.54
642.7	22.54
642.734	9.54
642.768	-15.46
642.802	6.54
642.836	6.54
642.87	8.54
642.904	18.54
642.938	9.54
642.972	9.54
643.005	-5.46
643.039	5.54
643.073	-1.46
643.107	8.54
643.141	2.54
643.175	6.54
643.209	9.54
643.243	16.54
643.276	11.54
643.31	8.54
643.344	-9.46
643.378	3.54
643.412	16.54
643.446	9.54
643.48	-2.46
643.513	12.54
643.547	1.54
643.581	5.54
643.615	-0.46
643.649	-7.46
643.683	3.54
643.716	-4.46
643.75	8.54
643.784	2.54
643.818	4.54
643.852	-8.46
643.886	3.54
643.919	15.54
643.953	12.54
643.987	-2.46
644.021	6.54
644.055	-1.46
644.088	-6.46
644.122	-20.46
644.156	-9.46
644.19	1.54
644.224	-4.46
644.257	8.54
644.291	20.54
644.325	12.54
644.359	-4.46
644.392	1.54
644.426	2.54
644.46	-0.46
644.494	7.54
644.527	-8.46
644.561	10.54
644.595	-5.46
644.629	2.54
644.662	-11.46
644.696	20.54
644.73	7.54
644.764	1.54
644.797	-7.46
644.831	27.54
644.865	8.54
644.899	-1.46
644.932	9.54
644.966	5.54
645	1.54
645.033	16.54
645.067	1.54
645.101	-1.46
645.135	-14.46
645.168	-0.46
645.202	-1.46
645.236	10.54
645.269	13.54
645.303	-3.46
645.337	-19.46
645.37	-7.46
645.404	6.54
645.438	7.54
645.471	-18.46
645.505	4.54
645.539	-0.46
645.572	-11.46
645.606	10.54
645.64	4.54
645.673	1.54
645.707	21.54
645.741	0.54
645.774	1.54
645.808	15.54
645.842	-4.46
645.875	15.54
645.909	-6.46
645.943	-1.46
645.976	0.54
646.01	15.54
646.043	-3.46
646.077	10.54
646.111	-7.46
646.144	-4.46
646.178	5.54
646.212	-10.46
646.245	-1.46
646.279	15.54
646.312	12.54
646.346	16.54
646.38	6.54
646.413	-2.46
646.447	1.54
646.48	-3.46
646.514	5.54
646.547	-4.46
646.581	1.54
646.615	4.54
646.648	-2.46
646.682	-2.46
646.715	-2.46
646.749	3.54
646.782	1.54
646.816	-4.46
646.85	9.54
646.883	-12.46
646.917	12.54
646.95	14.54
646.984	-4.46
647.017	-5.46
647.051	12.54
647.084	9.54
647.118	-7.46
647.151	11.54
647.185	1.54
647.218	-9.46
647.252	10.54
647.285	-1.46
647.319	-6.46
647.353	6.54
647.386	2.54
647.42	-7.46
647.453	6.54
647.487	-2.46
647.52	-4.46
647.553	2.54
647.587	4.54
647.62	-7.46
647.654	-2.46
647.687	7.54
647.721	3.54
647.754	6.54
647.788	1.54
647.821	1.54
647.855	3.54
647.888	16.54
647.922	28.54
647.955	11.54
647.989	8.54
648.022	-5.46
648.055	3.54
648.089	-6.46
648.122	27.54
648.156	3.54
648.189	0.54
648.223	12.54
648.256	12.54
648.29	-3.46
648.323	-1.46
648.356	-6.46
648.39	-0.46
648.423	0.54
648.457	6.54
648.49	-3.46
648.523	-7.46
648.557	-3.46
648.59	11.54
648.624	19.54
648.657	7.54
648.69	17.54
648.724	26.54
648.757	12.54
648.791	1.54
648.824	8.54
648.857	16.54
648.891	-10.46
648.924	13.54
648.957	25.54
648.991	-12.46
649.024	14.54
649.057	-6.46
649.091	-8.46
649.124	12.54
649.158	20.54
649.191	33.54
649.224	6.54
649.258	9.54
649.291	4.54
649.324	6.54
649.358	3.54
649.391	0.54
649.424	5.54
649.458	-5.46
649.491	8.54
649.524	3.54
649.557	1.54
649.591	-3.46
649.624	7.54
649.657	8.54
649.691	5.54
649.724	5.54
649.757	10.54
649.791	7.54
649.824	9.54
649.857	22.54
649.89	11.54
649.924	-7.46
649.957	1.54
649.99	-4.46
650.023	-6.46
650.057	-6.46
650.09	3.54
650.123	12.54
650.157	16.54
650.19	18.54
650.223	2.54
650.256	-14.46
650.29	-8.46
650.323	-0.46
650.356	9.54
650.389	9.54
650.423	-2.46
650.456	7.54
650.489	1.54
650.522	15.54
650.555	16.54
650.589	10.54
650.622	0.54
650.655	-1.46
650.688	13.54
650.721	0.54
650.755	-1.46
650.788	13.54
650.821	9.54
650.854	12.54
650.887	17.54
650.921	-9.46
650.954	-3.46
650.987	3.54
651.02	7.54
651.053	-17.46
651.087	2.54
651.12	25.54
651.153	9.54
651.186	15.54
651.219	5.54
651.252	10.54
651.286	10.54
651.319	12.54
651.352	7.54
651.385	-1.46
651.418	0.54
651.451	12.54
651.484	4.54
651.518	-6.46
651.551	12.54
651.584	-4.46
651.617	6.54
651.65	6.54
651.683	15.54
651.716	4.54
651.749	-8.46
651.783	8.54
651.816	-1.46
651.849	-1.46
651.882	7.54
651.915	4.54
651.948	4.54
651.981	2.54
652.014	-15.46
652.047	2.54
652.08	-1.46
652.114	6.54
652.147	5.54
652.18	4.54
652.213	19.54
652.246	8.54
652.279	6.54
652.312	15.54
652.345	0.54
652.378	1.54
652.411	25.54
652.444	23.54
652.477	8.54
652.51	-3.46
652.543	-4.46
652.576	14.54
652.609	0.54
652.642	7.54
652.675	18.54
652.709	18.54
652.742	6.54
652.775	19.54
652.808	10.54
652.841	2.54
652.874	15.54
652.907	13.54
652.94	-6.46
652.973	3.54
653.006	12.54
653.039	4.54
653.072	-1.46
653.105	-4.46
653.138	2.54
653.171	6.54
653.204	8.54
653.237	14.54
653.27	16.54
653.303	14.54
653.336	6.54
653.368	-1.46
653.401	3.54
653.434	-6.46
653.467	13.54
653.5	-8.46
653.533	-1.46
653.566	14.54
653.599	8.54
653.632	3.54
653.665	0.54
653.698	-4.46
653.731	-11.46
653.764	0.54
653.797	12.54
653.83	29.54
653.863	15.54
653.896	20.54
653.929	-0.46
653.961	1.54
653.994	9.54
654.027	-13.46
654.06	-4.46
654.093	2.54
654.126	-3.46
654.159	4.54
654.192	18.54
654.225	13.54
654.258	-0.46
654.29	3.54
654.323	-0.46
654.356	11.54
654.389	-5.46
654.422	14.54
654.455	-4.46
654.488	13.54
654.521	14.54
654.553	-8.46
654.586	15.54
654.619	5.54
654.652	-3.46
654.685	15.54
654.718	-1.46
654.751	9.54
654.783	1.54
654.816	26.54
654.849	17.54
654.882	-0.46
654.915	-5.46
654.948	-0.46
654.98	-3.46
655.013	-1.46
655.046	5.54
655.079	-23.46
655.112	3.54
655.144	-17.46
655.177	7.54
655.21	26.54
655.243	16.54
655.276	3.54
655.308	2.54
655.341	-5.46
655.374	13.54
655.407	0.54
655.44	2.54
655.472	16.54
655.505	3.54
655.538	18.54
655.571	10.54
655.603	4.54
655.636	-0.46
655.669	5.54
655.702	14.54
655.734	-2.46
655.767	-1.46
655.8	14.54
655.833	13.54
655.865	23.54
655.898	12.54
655.931	12.54
655.964	26.54
655.996	35.54
656.029	32.54
656.062	39.54
656.095	35.54
656.127	84.54
656.16	222.54
656.193	634.54
656.225	984.54
656.258	561.54
656.291	215.54
656.324	177.54
656.356	364.54
656.389	763.54
656.422	674.54
656.454	238.54
656.487	67.54
656.52	26.54
656.552	21.54
656.585	22.54
656.618	18.54
656.65	4.54
656.683	-9.46
656.716	-5.46
656.748	13.54
656.781	2.54
656.814	-6.46
656.846	3.54
656.879	2.54
656.912	18.54
656.944	-4.46
656.977	-17.46
657.01	-5.46
657.042	13.54
657.075	26.54
657.108	10.54
657.14	20.54
657.173	1.54
657.205	20.54
657.238	22.54
657.271	2.54
657.303	-26.46
657.336	1.54
657.369	11.54
657.401	4.54
657.434	26.54
657.466	21.54
657.499	-2.46
657.532	9.54
657.564	17.54
657.597	6.54
657.629	11.54
657.662	-13.46
657.694	10.54
657.727	-4.46
657.76	11.54
657.792	-7.46
657.825	-14.46
657.857	-5.46
657.89	-1.46
657.922	10.54
657.955	-8.46
657.987	-2.46
658.02	28.54
658.053	3.54
658.085	4.54
658.118	4.54
658.15	17.54
658.183	18.54
658.215	4.54
658.248	-9.46
658.28	-8.46
658.313	17.54
658.345	7.54
658.378	1.54
658.41	8.54
658.443	8.54
658.475	-16.46
658.508	-12.46
658.54	-6.46
658.573	7.54
658.605	6.54
658.638	-9.46
658.67	-0.46
658.703	5.54
658.735	-6.46
658.768	-6.46
658.8	-28.46
658.833	20.54
658.865	7.54
658.898	18.54
658.93	-2.46
658.963	-2.46
658.995	-12.46
659.028	16.54
659.06	11.54
659.092	1.54
659.125	-12.46
659.157	8.54
659.19	-14.46
659.222	3.54
659.255	5.54
659.287	0.54
659.32	1.54
659.352	6.54
659.384	4.54
659.417	-1.46
659.449	9.54
659.482	2.54
659.514	-14.46
659.546	-0.46
659.579	-11.46
659.611	15.54
659.644	-13.46
659.676	7.54
659.708	-7.46
659.741	-8.46
659.773	26.54
659.806	9.54
659.838	0.54
659.87	7.54
659.903	7.54
659.935	9.54
659.967	24.54
660	8.54
660.032	-8.46
660.065	-0.46
660.097	8.54
660.129	10.54
660.162	7.54
660.194	21.54
660.226	6.54
660.259	13.54
660.291	7.54
660.323	-7.46
660.356	1.54
660.388	10.54
660.42	-3.46
660.453	8.54
660.485	11.54
660.517	9.54
660.55	18.54
660.582	1.54
660.614	-2.46
660.647	-0.46
660.679	-14.46
660.711	12.54
660.743	2.54
660.776	1.54
660.808	-7.46
660.84	-8.46
660.873	-0.46
660.905	-5.46
660.937	2.54
660.969	3.54
661.002	7.54
661.034	14.54
661.066	9.54
661.099	16.54
661.131	17.54
661.163	10.54
661.195	17.54
661.228	18.54
661.26	6.54
661.292	1.54
661.324	12.54
661.357	0.54
661.389	5.54
661.421	-13.46
661.453	-16.46
661.485	3.54
661.518	-3.46
661.55	-25.46
661.582	4.54
661.614	5.54
661.647	15.54
661.679	-5.46
661.711	1.54
661.743	-23.46
661.775	-16.46
661.808	13.54
661.84	-6.46
661.872	11.54
661.904	9.54
661.936	-2.46
661.969	-31.46
662.001	-11.46
662.033	2.54
662.065	-5.46
662.097	10.54
662.129	10.54
662.162	-8.46
662.194	10.54
662.226	15.54
662.258	16.54
662.29	6.54
662.322	-18.46
662.355	5.54
662.387	34.54
662.419	13.54
662.451	13.54
662.483	16.54
662.515	5.54
662.547	4.54
662.58	-19.46
662.612	-3.46
662.644	-13.46
662.676	5.54
662.708	27.54
662.74	3.54
662.772	-4.46
662.804	4.54
662.836	27.54
662.869	21.54
662.901	5.54
662.933	10.54
662.965	21.54
662.997	14.54
663.029	-8.46
663.061	-0.46
663.093	-6.46
663.125	15.54
663.157	7.54
663.189	14.54
663.221	8.54
663.254	2.54
663.286	9.54
663.318	-15.46
663.35	-2.46
663.382	-0.46
663.414	-4.46
663.446	-1.46
663.478	-12.46
663.51	18.54
663.542	2.54
663.574	6.54
663.606	5.54
663.638	-19.46
663.67	-9.46
663.702	2.54
663.734	-1.46
663.766	2.54
663.798	-1.46
663.83	17.54
663.862	-2.46
663.894	10.54
663.926	7.54
663.958	23.54
663.99	12.54
664.022	3.54
664.054	1.54
664.086	-21.46
664.118	-19.46
664.15	-8.46
664.182	-5.46
664.214	-12.46
664.246	14.54
664.278	-12.46
664.31	16.54
664.342	3.54
664.374	-1.46
664.406	-10.46
664.438	-3.46
664.47	22.54
664.502	-10.46
664.534	-11.46
664.566	-10.46
664.598	-2.46
664.63	1.54
664.662	0.54
664.693	-8.46
664.725	-21.46
664.757	2.54
664.789	-14.46
664.821	15.54
664.853	18.54
664.885	-5.46
664.917	-3.46
664.949	10.54
664.981	10.54
665.013	-6.46
665.045	1.54
665.076	1.54
665.108	-8.46
665.14	7.54
665.172	23.54
665.204	-8.46
665.236	2.54
665.268	27.54
665.3	2.54
665.331	-1.46
665.363	9.54
665.395	2.54
665.427	-4.46
665.459	-0.46
665.491	-1.46
665.523	1.54
665.555	-2.46
665.586	-0.46
665.618	-10.46
665.65	-13.46
665.682	4.54
665.714	10.54
665.746	2.54
665.777	-0.46
665.809	5.54
665.841	2.54
665.873	7.54
665.905	-9.46
665.937	12.54
665.968	8.54
666	1.54
666.032	-5.46
666.064	-8.46
666.096	-6.46
666.127	13.54
666.159	12.54
666.191	-0.46
666.223	12.54
666.255	-6.46
666.286	-10.46
666.318	-5.46
666.35	19.54
666.382	8.54
666.413	1.54
666.445	-5.46
666.477	-25.46
666.509	-1.46
666.54	11.54
666.572	0.54
666.604	-7.46
666.636	14.54
666.667	13.54
666.699	8.54
666.731	1.54
666.763	-9.46
666.794	7.54
666.826	9.54
666.858	-2.46
666.89	13.54
666.921	6.54
666.953	2.54
666.985	1.54
667.017	20.54
667.048	5.54
667.08	5.54
667.112	2.54
667.143	-19.46
667.175	3.54
667.207	1.54
667.238	6.54
667.27	-2.46
667.302	-2.46
667.334	1.54
667.365	13.54
667.397	-1.46
667.429	-2.46
667.46	10.54
667.492	-3.46
667.524	-15.46
667.555	-5.46
667.587	0.54
667.619	-2.46
667.65	-4.46
667.682	3.54
667.714	10.54
667.745	6.54
667.777	2.54
667.808	-4.46
667.84	-2.46
667.872	9.54
667.903	26.54
667.935	-3.46
667.967	12.54
667.998	2.54
668.03	-8.46
668.061	14.54
668.093	-2.46
668.125	1.54
668.156	7.54
668.188	-9.46
668.22	-7.46
668.251	2.54
668.283	3.54
668.314	0.54
668.346	-2.46
668.377	-0.46
668.409	-6.46
668.441	0.54
668.472	3.54
668.504	9.54
668.535	17.54
668.567	19.54
668.599	-2.46
668.63	-10.46
668.662	-10.46
668.693	11.54
668.725	6.54
668.756	11.54
668.788	-8.46
668.819	12.54
668.851	3.54
668.882	-1.46
668.914	5.54
668.946	-9.46
668.977	-6.46
669.009	-13.46
669.04	2.54
669.072	12.54
669.103	7.54
669.135	7.54
669.166	1.54
669.198	1.54
669.229	2.54
669.261	10.54
669.292	13.54
669.324	4.54
669.355	9.54
669.387	-6.46
669.418	14.54
669.45	6.54
669.481	-0.46
669.513	11.54
669.544	-6.46
669.576	4.54
669.607	17.54
669.639	18.54
669.67	-12.46
669.701	18.54
669.733	6.54
669.764	1.54
669.796	-5.46
669.827	-17.46
669.859	-1.46
669.89	13.54
669.922	9.54
669.953	9.54
669.985	-4.46
670.016	2.54
670.047	4.54
670.079	4.54
670.11	24.54
670.142	14.54
670.173	0.54
670.204	2.54
670.236	7.54
670.267	-5.46
670.299	1.54
670.33	-0.46
670.362	12.54
670.393	-10.46
670.424	-1.46
670.456	-13.46
670.487	1.54
670.518	-5.46
670.55	19.54
670.581	-2.46
670.613	17.54
670.644	-17.46
670.675	-4.46
670.707	1.54
670.738	-0.46
670.769	-3.46
670.801	3.54
670.832	3.54
670.864	-2.46
670.895	-6.46
670.926	7.54
670.958	5.54
670.989	10.54
671.02	-4.46
671.052	-11.46
671.083	-0.46
671.114	-11.46
671.146	6.54
671.177	1.54
671.208	-3.46
671.24	-9.46
671.271	-1.46
671.302	10.54
671.333	1.54
671.365	-14.46
671.396	-14.46
671.427	-5.46
671.459	-1.46
671.49	-2.46
671.521	-4.46
671.553	8.54
671.584	21.54
671.615	-7.46
671.646	26.54
671.678	5.54
671.709	-10.46
671.74	-27.46
671.771	0.54
671.803	-4.46
671.834	0.54
671.865	-1.46
671.896	10.54
671.928	-5.46
671.959	-8.46
671.99	-7.46
672.021	-1.46
672.053	-15.46
672.084	15.54
672.115	8.54
672.146	-6.46
672.178	-8.46
672.209	-9.46
672.24	3.54
672.271	11.54
672.303	12.54
672.334	1.54
672.365	6.54
672.396	19.54
672.427	17.54
672.459	8.54
672.49	13.54
672.521	-3.46
672.552	19.54
672.583	11.54
672.615	10.54
672.646	19.54
672.677	-16.46
672.708	3.54
672.739	-0.46
672.77	17.54
672.802	13.54
672.833	-2.46
672.864	9.54
672.895	-1.46
672.926	-11.46
672.957	-2.46
672.989	-13.46
673.02	13.54
673.051	4.54
673.082	14.54
673.113	-3.46
673.144	-2.46
673.175	6.54
673.206	-8.46
673.238	-1.46
673.269	-8.46
673.3	1.54
673.331	19.54
673.362	1.54
673.393	-4.46
673.424	15.54
673.455	9.54
673.487	-5.46
673.518	25.54
673.549	10.54
673.58	-1.46
673.611	3.54
673.642	0.54
673.673	-24.46
673.704	-2.46
673.735	-1.46
673.766	-1.46
673.797	-9.46
673.828	1.54
673.86	-9.46
673.891	-12.46
673.922	14.54
673.953	7.54
673.984	8.54
674.015	19.54
674.046	12.54
674.077	4.54
674.108	-8.46
674.139	-3.46
674.17	3.54
674.201	5.54
674.232	-14.46
674.263	1.54
674.294	1.54
674.325	-14.46
674.356	0.54
674.387	16.54
674.418	13.54
674.449	5.54
674.48	-13.46
674.511	10.54
674.542	6.54
674.573	-7.46
674.604	6.54
674.635	1.54
674.666	22.54
674.697	-4.46
674.728	-2.46
674.759	-6.46
674.79	-3.46
674.821	-9.46
674.852	5.54
674.883	-6.46
674.914	8.54
674.945	-4.46
674.976	10.54
675.007	0.54
675.038	-8.46
675.069	-3.46
675.1	-1.46
675.131	-10.46
675.162	-22.46
675.193	-0.46
675.224	6.54
675.254	-3.46
675.285	9.54
675.316	18.54
675.347	14.54
675.378	-4.46
675.409	-9.46
675.44	5.54
675.471	11.54
675.502	-5.46
675.533	-5.46
675.564	-3.46
675.595	-5.46
675.625	22.54
675.656	12.54
675.687	12.54
675.718	-5.46
675.749	8.54
675.78	19.54
675.811	-2.46
675.842	5.54
675.873	13.54
675.903	1.54
675.934	11.54
675.965	7.54
675.996	2.54
676.027	-4.46
676.058	14.54
676.089	-1.46
676.119	6.54
676.15	-6.46
676.181	2.54
676.212	-3.46
676.243	17.54
676.274	-13.46
676.304	24.54
676.335	-4.46
676.366	-7.46
676.397	5.54
676.428	-7.46
676.459	23.54
676.489	20.54
676.52	11.54
676.551	-17.46
676.582	-9.46
676.613	5.54
676.643	12.54
676.674	4.54
676.705	7.54
676.736	5.54
676.767	8.54
676.797	16.54
676.828	-0.46
676.859	3.54
676.89	-6.46
676.92	-8.46
676.951	-2.46
676.982	17.54
677.013	-1.46
677.044	10.54
677.074	10.54
677.105	-7.46
677.136	7.54
677.167	6.54
677.197	9.54
677.228	16.54
677.259	-5.46
677.289	3.54
677.32	-5.46
677.351	-4.46
677.382	-7.46
677.412	-13.46
677.443	10.54
677.474	-22.46
677.505	-7.46
677.535	10.54
677.566	-4.46
677.597	-15.46
677.627	-10.46
677.658	-5.46
677.689	8.54
677.72	-0.46
677.75	-2.46
677.781	-3.46
677.812	-0.46
677.842	17.54
677.873	2.54
677.904	-12.46
677.934	0.54
677.965	-6.46
677.996	-17.46
678.026	-3.46
678.057	9.54
678.088	-5.46
678.118	6.54
678.149	-5.46
678.18	-1.46
678.21	10.54
678.241	-0.46
678.272	-8.46
678.302	0.54
678.333	11.54
678.363	6.54
678.394	7.54
678.425	1.54
678.455	7.54
678.486	36.54
678.517	-5.46
678.547	3.54
678.578	-1.46
678.608	-7.46
678.639	8.54
678.67	9.54
678.7	-15.46
678.731	1.54
678.761	7.54
678.792	8.54
678.823	10.54
678.853	2.54
678.884	-3.46
678.914	11.54
678.945	4.54
678.975	4.54
679.006	3.54
679.037	6.54
679.067	26.54
679.098	-7.46
679.128	-14.46
679.159	11.54
679.189	24.54
679.22	-21.46
679.25	5.54
679.281	5.54
679.312	4.54
679.342	-9.46
679.373	46.54
679.403	7.54
679.434	15.54
679.464	-1.46
679.495	4.54
679.525	6.54
679.556	-8.46
679.586	15.54
679.617	14.54
679.647	0.54
679.678	-4.46
679.708	7.54
679.739	-8.46
679.769	-2.46
679.8	-14.46
679.83	-2.46
679.861	12.54
679.891	-17.46
679.922	-9.46
679.952	21.54
679.983	16.54
680.013	1.54
680.044	-5.46
680.074	1.54
680.105	10.54
680.135	5.54
680.165	12.54
680.196	-1.46
680.226	6.54
680.257	15.54
680.287	1.54
680.318	18.54
680.348	6.54
680.379	3.54
680.409	1.54
680.439	-6.46
680.47	7.54
680.5	3.54
680.531	-9.46
680.561	11.54
680.592	8.54
680.622	12.54
680.652	-0.46
680.683	10.54
680.713	-0.46
680.744	-8.46
680.774	0.54
680.804	37.54
680.835	-1.46
680.865	-2.46
680.896	22.54
680.926	13.54
680.956	-15.46
680.987	0.54
681.017	7.54
681.047	13.54
681.078	14.54
681.108	-5.46
681.139	3.54
681.169	3.54
681.199	-4.46
681.23	5.54
681.26	-0.46
681.29	6.54
681.321	-12.46
681.351	0.54
681.381	-16.46
681.412	7.54
681.442	10.54
681.472	33.54
681.503	7.54
681.533	9.54
681.563	0.54
681.594	-8.46
681.624	8.54
681.654	13.54
681.685	1.54
681.715	4.54
681.745	1.54
681.775	5.54
681.806	6.54
681.836	10.54
681.866	3.54
681.897	8.54
681.927	-14.46
681.957	-4.46
681.987	12.54
682.018	7.54
682.048	8.54
682.078	-4.46
682.109	16.54
682.139	12.54
682.169	13.54
682.199	3.54
682.23	-4.46
682.26	11.54
682.29	-3.46
682.32	5.54
682.351	6.54
682.381	4.54
682.411	14.54
682.441	-2.46
682.472	0.54
682.502	3.54
682.532	-7.46
682.562	-15.46
682.592	18.54
682.623	20.54
682.653	1.54
682.683	13.54
682.713	15.54
682.743	7.54
682.774	-15.46
682.804	6.54
682.834	9.54
682.864	-8.46
682.894	-23.46
682.925	3.54
682.955	8.54
682.985	1.54
683.015	7.54
683.045	18.54
683.076	-18.46
683.106	-21.46
683.136	9.54
683.166	-1.46
683.196	6.54
683.226	16.54
683.257	0.54
683.287	-3.46
683.317	1.54
683.347	-2.46
683.377	18.54
683.407	9.54
683.437	10.54
683.468	13.54
683.498	-0.46
683.528	10.54
683.558	2.54
683.588	-8.46
683.618	3.54
683.648	4.54
683.678	7.54
683.708	17.54
683.739	-1.46
683.769	8.54
683.799	7.54
683.829	-6.46
683.859	3.54
683.889	15.54
683.919	-7.46
683.949	0.54
683.979	-5.46
684.009	0.54
684.039	6.54
684.07	-11.46
684.1	14.54
684.13	10.54
684.16	11.54
684.19	8.54
684.22	1.54
684.25	3.54
684.28	-8.46
684.31	24.54
684.34	11.54
684.37	3.54
684.4	4.54
684.43	-4.46
684.46	-7.46
684.49	6.54
684.52	5.54
684.55	16.54
684.58	-0.46
684.61	-2.46
684.64	6.54
684.67	18.54
684.7	2.54
684.73	4.54
684.76	8.54
684.79	12.54
684.82	12.54
684.85	1.54
684.88	3.54
684.91	11.54
684.94	1.54
684.97	1.54
685	-14.46
685.03	-4.46
685.06	-10.46
685.09	-2.46
685.12	13.54
685.15	-1.46
685.18	14.54
685.21	15.54
685.24	22.54
685.27	10.54
685.3	6.54
685.33	17.54
685.36	6.54
685.39	-12.46
685.42	-10.46
685.45	2.54
685.48	3.54
685.51	9.54
685.54	25.54
685.569	26.54
685.599	9.54
685.629	12.54
685.659	9.54
685.689	4.54
685.719	12.54
685.749	-1.46
685.779	1.54
685.809	11.54
685.839	17.54
685.869	12.54
685.898	18.54
685.928	2.54
685.958	6.54
685.988	15.54
686.018	-0.46
686.048	0.54
686.078	10.54
686.108	34.54
686.137	5.54
686.167	8.54
686.197	-16.46
686.227	-3.46
686.257	26.54
686.287	4.54
686.317	2.54
686.346	-4.46
686.376	-2.46
686.406	6.54
686.436	17.54
686.466	-0.46
686.496	8.54
686.525	-1.46
686.555	7.54
686.585	25.54
686.615	14.54
686.645	14.54
686.675	6.54
686.704	15.54
686.734	7.54
686.764	-0.46
686.794	1.54
686.824	-14.46
686.853	13.54
686.883	13.54
686.913	26.54
686.943	10.54
686.973	6.54
687.002	12.54
687.032	13.54
687.062	12.54
687.092	16.54
687.121	-4.46
687.151	10.54
687.181	11.54
687.211	23.54
687.24	5.54
687.27	-5.46
687.3	0.54
687.33	4.54
687.359	3.54
687.389	11.54
687.419	8.54
687.449	-0.46
687.478	3.54
687.508	2.54
687.538	12.54
687.568	9.54
687.597	-6.46
687.627	4.54
687.657	3.54
687.686	15.54
687.716	16.54
687.746	7.54
687.776	-0.46
687.805	-5.46
687.835	5.54
687.865	17.54
687.894	5.54
687.924	7.54
687.954	6.54
687.983	-0.46
688.013	13.54
688.043	18.54
688.072	13.54
688.102	20.54
688.132	11.54
688.161	-5.46
688.191	0.54
688.221	19.54
688.25	-9.46
688.28	17.54
688.31	-15.46
688.339	6.54
688.369	-8.46
688.399	2.54
688.428	-7.46
688.458	-0.46
688.488	5.54
688.517	-2.46
688.547	-9.46
688.576	32.54
688.606	19.54
688.636	-3.46
688.665	12.54
688.695	10.54
688.725	14.54
688.754	20.54
688.784	10.54
688.813	14.54
688.843	3.54
688.873	1.54
688.902	-15.46
688.932	5.54
688.961	11.54
688.991	8.54
689.02	15.54
689.05	13.54
689.08	17.54
689.109	26.54
689.139	10.54
689.168	13.54
689.198	22.54
689.227	-0.46
689.257	-8.46
689.287	9.54
689.316	1.54
689.346	-7.46
689.375	-10.46
689.405	7.54
689.434	-2.46
689.464	6.54
689.493	4.54
689.523	8.54
689.552	11.54
689.582	-1.46
689.611	5.54
689.641	2.54
689.67	10.54
689.7	16.54
689.73	26.54
689.759	14.54
689.789	18.54
689.818	14.54
689.848	14.54
689.877	17.54
689.906	-6.46
689.936	1.54
689.965	7.54
689.995	5.54
690.024	11.54
690.054	4.54
690.083	16.54
690.113	15.54
690.142	-0.46
690.172	5.54
690.201	0.54
690.231	4.54
690.26	1.54
690.29	17.54
690.319	22.54
690.348	10.54
690.378	9.54
690.407	10.54
690.437	7.54
690.466	-10.46
690.496	2.54
690.525	12.54
690.555	-7.46
690.584	-3.46
690.613	3.54
690.643	18.54
690.672	25.54
690.702	10.54
690.731	7.54
690.76	5.54
690.79	-4.46
690.819	-7.46
690.849	-11.46
690.878	7.54
690.907	9.54
690.937	20.54
690.966	30.54
690.996	6.54
691.025	11.54
691.054	6.54
691.084	18.54
691.113	11.54
691.142	6.54
691.172	12.54
691.201	21.54
691.23	6.54
691.26	5.54
691.289	30.54
691.319	16.54
691.348	19.54
691.377	17.54
691.407	5.54
691.436	13.54
691.465	1.54
691.495	-9.46
691.524	-9.46
691.553	4.54
691.583	6.54
691.612	22.54
691.641	4.54
691.67	10.54
691.7	19.54
691.729	-4.46
691.758	-7.46
691.788	-7.46
691.817	5.54
691.846	8.54
691.876	0.54
691.905	12.54
691.934	3.54
691.963	19.54
691.993	-4.46
692.022	-8.46
692.051	-8.46
692.081	19.54
692.11	20.54
692.139	14.54
692.168	1.54
692.198	19.54
692.227	8.54
692.256	13.54
692.285	10.54
692.315	1.54
692.344	9.54
692.373	3.54
692.402	-14.46
692.432	1.54
692.461	17.54
692.49	6.54
692.519	-1.46
692.548	31.54
692.578	18.54
692.607	5.54
692.636	4.54
692.665	27.54
692.694	2.54
692.724	0.54
692.753	4.54
692.782	9.54
692.811	-7.46
692.84	4.54
692.87	7.54
692.899	-1.46
692.928	2.54
692.957	12.54
692.986	1.54
693.016	12.54
693.045	9.54
693.074	8.54
693.103	1.54
693.132	3.54
693.161	27.54
693.191	3.54
693.22	-1.46
693.249	15.54
693.278	9.54
693.307	-6.46
693.336	-21.46
693.365	-24.46
693.395	-8.46
693.424	1.54
693.453	12.54
693.482	7.54
693.511	9.54
693.54	-7.46
693.569	6.54
693.598	4.54
693.628	20.54
693.657	9.54
693.686	31.54
693.715	3.54
693.744	9.54
693.773	17.54
693.802	12.54
693.831	8.54
693.86	9.54
693.889	-8.46
693.919	11.54
693.948	-0.46
693.977	9.54
694.006	-0.46
694.035	-0.46
694.064	10.54
694.093	7.54
694.122	-0.46
694.151	3.54
694.18	4.54
694.209	28.54
694.238	10.54
694.267	38.54
694.296	13.54
694.325	5.54
694.354	26.54
694.383	10.54
694.412	2.54
694.441	-14.46
694.471	-10.46
694.5	-6.46
694.529	11.54
694.558	27.54
694.587	17.54
694.616	0.54
694.645	-7.46
694.674	9.54
694.703	7.54
694.732	4.54
694.761	9.54
694.79	2.54
694.819	-5.46
694.848	8.54
694.877	7.54
694.906	11.54
694.935	6.54
694.963	2.54
694.992	2.54
695.021	8.54
695.05	11.54
695.079	7.54
695.108	-10.46
695.137	29.54
695.166	23.54
695.195	-3.46
695.224	1.54
695.253	19.54
695.282	5.54
695.311	10.54
695.34	6.54
695.369	14.54
695.398	18.54
695.427	21.54
695.456	-12.46
695.485	10.54
695.513	10.54
695.542	-0.46
695.571	7.54
695.6	9.54
695.629	2.54
695.658	29.54
695.687	6.54
695.716	6.54
695.745	5.54
695.774	2.54
695.802	1.54
695.831	3.54
695.86	7.54
695.889	11.54
695.918	3.54
695.947	5.54
695.976	-0.46
696.005	6.54
696.033	10.54
696.062	29.54
696.091	9.54
696.12	17.54
696.149	18.54
696.178	-3.46
696.207	5.54
696.235	-19.46
696.264	-2.46
696.293	-14.46
696.322	6.54
696.351	16.54
696.38	9.54
696.408	14.54
696.437	9.54
696.466	17.54
696.495	7.54
696.524	6.54
696.553	4.54
696.581	14.54
696.61	-10.46
696.639	9.54
696.668	5.54
696.697	6.54
696.725	20.54
696.754	6.54
696.783	-6.46
696.812	-1.46
696.84	8.54
696.869	12.54
696.898	-5.46
696.927	10.54
696.956	20.54
696.984	7.54
697.013	2.54
697.042	12.54
697.071	25.54
697.099	20.54
697.128	13.54
697.157	27.54
697.186	2.54
697.214	-0.46
697.243	9.54
697.272	15.54
697.301	16.54
697.329	26.54
697.358	22.54
697.387	11.54
697.415	4.54
697.444	8.54
697.473	5.54
697.502	-8.46
697.53	15.54
697.559	9.54
697.588	1.54
697.616	-10.46
697.645	-10.46
697.674	23.54
697.703	-1.46
697.731	5.54
697.76	13.54
697.789	6.54
697.817	7.54
697.846	27.54
697.875	12.54
697.903	31.54
697.932	22.54
697.961	7.54
697.989	13.54
698.018	11.54
698.047	8.54
698.075	12.54
698.104	5.54
698.133	1.54
698.161	2.54
698.19	-4.46
698.218	-8.46
698.247	2.54
698.276	5.54
698.304	28.54
698.333	-0.46
698.362	2.54
698.39	-1.46
698.419	14.54
698.447	1.54
698.476	-0.46
698.505	3.54
698.533	12.54
698.562	10.54
698.591	6.54
698.619	14.54
698.648	18.54
698.676	-8.46
698.705	-0.46
698.733	-6.46
698.762	16.54
698.791	9.54
698.819	12.54
698.848	7.54
698.876	24.54
698.905	10.54
698.933	20.54
698.962	9.54
698.991	26.54
699.019	8.54
699.048	4.54
699.076	5.54
699.105	21.54
699.133	-1.46
699.162	7.54
699.19	9.54
699.219	8.54
699.248	3.54
699.276	6.54
699.305	-2.46
699.333	10.54
699.362	3.54
699.39	17.54
699.419	-0.46
699.447	6.54
699.476	3.54
699.504	-4.46
699.533	14.54
699.561	-3.46
699.59	18.54
699.618	1.54
699.647	-3.46
699.675	5.54
699.704	7.54
699.732	-3.46
699.761	-1.46
699.789	8.54
699.818	15.54
699.846	4.54
699.874	-6.46
699.903	6.54
699.931	-9.46
699.96	6.54
699.988	5.54
700.017	-4.46
700.045	1.54
700.074	-4.46
700.102	6.54
700.13	-8.46
700.159	2.54
700.187	-4.46
700.216	-0.46
700.244	2.54
700.273	1.54
700.301	-5.46
700.329	6.54
700.358	9.54
700.386	6.54
700.415	21.54
700.443	5.54
700.472	4.54
700.5	15.54
700.528	15.54
700.557	9.54
700.585	-3.46
700.614	9.54
700.642	16.54
700.67	27.54
700.699	13.54
700.727	-0.46
700.755	1.54
700.784	6.54
700.812	7.54
700.841	7.54
700.869	5.54
700.897	-14.46
700.926	11.54
700.954	8.54
700.982	5.54
701.011	2.54
701.039	-1.46
701.067	-4.46
701.096	0.54
701.124	-16.46
701.152	6.54
701.181	8.54
701.209	2.54
701.237	7.54
701.266	2.54
701.294	3.54
701.322	5.54
701.351	13.54
701.379	-4.46
701.407	6.54
701.435	7.54
701.464	14.54
701.492	16.54
701.52	-7.46
701.549	-4.46
701.577	-4.46
701.605	7.54
701.634	-2.46
701.662	16.54
701.69	-0.46
701.718	-6.46
701.747	4.54
701.775	6.54
701.803	-14.46
701.831	26.54
701.86	-3.46
701.888	3.54
701.916	-5.46
701.944	12.54
701.973	2.54
702.001	1.54
702.029	-0.46
702.057	10.54
702.086	-4.46
702.114	1.54
702.142	18.54
702.17	5.54
702.199	-2.46
702.227	1.54
702.255	-0.46
702.283	-1.46
702.311	15.54
702.34	6.54
702.368	14.54
702.396	12.54
702.424	6.54
702.452	-9.46
702.481	-3.46
702.509	3.54
702.537	5.54
702.565	0.54
702.593	-6.46
702.621	9.54
702.65	-4.46
702.678	6.54
702.706	9.54
702.734	-10.46
702.762	4.54
702.79	10.54
702.819	-0.46
702.847	5.54
702.875	28.54
702.903	13.54
702.931	3.54
702.959	13.54
702.988	-6.46
703.016	-20.46
703.044	-8.46
703.072	-3.46
703.1	-5.46
703.128	-8.46
703.156	5.54
703.184	-11.46
703.212	-0.46
703.241	3.54
703.269	2.54
703.297	6.54
703.325	-0.46
703.353	6.54
703.381	-1.46
703.409	-4.46
703.437	-19.46
703.465	1.54
703.493	-1.46
703.522	21.54
703.55	17.54
703.578	-10.46
703.606	-8.46
703.634	10.54
703.662	7.54
703.69	8.54
703.718	8.54
703.746	21.54
703.774	0.54
703.802	16.54
703.83	-1.46
703.858	10.54
703.886	-2.46
703.914	-19.46
703.942	6.54
703.97	5.54
703.998	-22.46
704.027	35.54
704.055	20.54
704.083	1.54
704.111	5.54
704.139	8.54
704.167	3.54
704.195	-2.46
704.223	1.54
704.251	-8.46
704.279	15.54
704.307	15.54
704.335	9.54
704.363	11.54
704.391	-5.46
704.419	-1.46
704.447	5.54
704.475	-3.46
704.503	-0.46
704.531	19.54
704.558	11.54
704.586	0.54
704.614	3.54
704.642	9.54
704.67	-0.46
704.698	-11.46
704.726	2.54
704.754	2.54
704.782	7.54
704.81	-1.46
704.838	35.54
704.866	7.54
704.894	-1.46
704.922	2.54
704.95	19.54
704.978	17.54
705.006	-0.46
705.034	17.54
705.061	-0.46
705.089	-0.46
705.117	-14.46
705.145	-0.46
705.173	-0.46
705.201	3.54
705.229	10.54
705.257	6.54
705.285	12.54
705.313	8.54
705.34	2.54
705.368	7.54
705.396	1.54
705.424	5.54
705.452	9.54
705.48	14.54
705.508	2.54
705.536	5.54
705.563	0.54
705.591	2.54
705.619	-3.46
705.647	-8.46
705.675	-8.46
705.703	-5.46
705.731	-0.46
705.758	5.54
705.786	14.54
705.814	31.54
705.842	6.54
705.87	21.54
705.898	30.54
705.925	17.54
705.953	4.54
705.981	-7.46
706.009	5.54
706.037	14.54
706.065	-0.46
706.092	-12.46
706.12	-1.46
706.148	-4.46
706.176	-13.46
706.204	5.54
706.231	7.54
706.259	1.54
706.287	1.54
706.315	-0.46
706.342	-14.46
706.37	2.54
706.398	6.54
706.426	6.54
706.454	1.54
706.481	22.54
706.509	6.54
706.537	-3.46
706.565	-6.46
706.592	22.54
706.62	2.54
706.648	21.54
706.676	-5.46
706.703	13.54
706.731	5.54
706.759	4.54
706.787	5.54
706.814	3.54
706.842	9.54
706.87	-8.46
706.897	2.54
706.925	-1.46
706.953	11.54
706.981	17.54
707.008	12.54
707.036	9.54
707.064	-5.46
707.091	1.54
707.119	13.54
707.147	13.54
707.174	6.54
707.202	20.54
707.23	5.54
707.258	-1.46
707.285	-5.46
707.313	-1.46
707.341	2.54
707.368	-5.46
707.396	6.54
707.424	19.54
707.451	18.54
707.479	3.54
707.507	9.54
707.534	2.54
707.562	2.54
707.59	5.54
707.617	-2.46
707.645	1.54
707.672	15.54
707.7	9.54
707.728	18.54
707.755	5.54
707.783	18.54
707.811	13.54
707.838	16.54
707.866	-3.46
707.893	1.54
707.921	-9.46
707.949	-14.46
707.976	3.54
708.004	13.54
708.031	2.54
708.059	-7.46
708.087	1.54
708.114	8.54
708.142	-12.46
708.169	-0.46
708.197	-19.46
708.225	-7.46
708.252	-6.46
708.28	14.54
708.307	2.54
708.335	-0.46
708.362	-14.46
708.39	-5.46
708.418	-6.46
708.445	-11.46
708.473	-15.46
708.5	-3.46
708.528	10.54
708.555	-1.46
708.583	-3.46
708.61	-11.46
708.638	-0.46
708.665	2.54
708.693	-4.46
708.72	-6.46
708.748	-7.46
708.776	-5.46
708.803	22.54
708.831	18.54
708.858	11.54
708.886	12.54
708.913	5.54
708.941	-10.46
708.968	11.54
708.996	1.54
709.023	14.54
709.051	7.54
709.078	-10.46
709.105	-1.46
709.133	13.54
709.16	7.54
709.188	18.54
709.215	10.54
709.243	3.54
709.27	-7.46
709.298	-0.46
709.325	-7.46
709.353	0.54
709.38	2.54
709.408	19.54
709.435	13.54
709.462	9.54
709.49	3.54
709.517	3.54
709.545	-3.46
709.572	5.54
709.6	2.54
709.627	13.54
709.655	0.54
709.682	-6.46
709.709	4.54
709.737	-3.46
709.764	1.54
709.792	17.54
709.819	2.54
709.846	7.54
709.874	-0.46
709.901	20.54
709.929	27.54
709.956	13.54
709.983	0.54
710.011	-1.46
710.038	10.54
710.066	10.54
710.093	17.54
710.12	7.54
710.148	-2.46
710.175	-3.46
710.202	-2.46
710.23	15.54
710.257	11.54
710.284	8.54
710.312	2.54
710.339	3.54
710.366	3.54
710.394	-7.46
710.421	0.54
710.448	-4.46
710.476	-11.46
710.503	0.54
710.53	14.54
710.558	22.54
710.585	14.54
710.612	9.54
710.64	10.54
710.667	5.54
710.694	-5.46
710.722	-4.46
710.749	2.54
710.776	28.54
710.804	19.54
710.831	-3.46
710.858	-1.46
710.885	-17.46
710.913	6.54
710.94	31.54
710.967	0.54
710.995	-1.46
711.022	-5.46
711.049	21.54
711.076	-2.46
711.104	1.54
711.131	11.54
711.158	-0.46
711.185	9.54
711.213	-5.46
711.24	-7.46
711.267	13.54
711.294	-1.46
711.322	18.54
711.349	-2.46
711.376	-1.46
711.403	-13.46
711.431	-18.46
711.458	4.54
711.485	0.54
711.512	2.54
711.54	-2.46
711.567	0.54
711.594	2.54
711.621	2.54
711.648	15.54
711.676	7.54
711.703	-1.46
711.73	-3.46
711.757	2.54
711.784	-0.46
711.812	5.54
711.839	7.54
711.866	-6.46
711.893	-19.46
711.92	6.54
711.947	13.54
711.975	5.54
712.002	18.54
712.029	16.54
712.056	9.54
712.083	16.54
712.11	0.54
712.138	7.54
712.165	1.54
712.192	2.54
712.219	-8.46
712.246	-2.46
712.273	0.54
712.3	-11.46
712.328	8.54
712.355	15.54
712.382	3.54
712.409	14.54
712.436	-1.46
712.463	9.54
712.49	-0.46
712.517	6.54
712.544	-9.46
712.572	-5.46
712.599	-2.46
712.626	5.54
712.653	-7.46
712.68	-12.46
712.707	-0.46
712.734	0.54
712.761	0.54
712.788	-3.46
712.815	18.54
712.842	34.54
712.87	16.54
712.897	0.54
712.924	-2.46
712.951	3.54
712.978	14.54
713.005	26.54
713.032	15.54
713.059	3.54
713.086	1.54
713.113	-8.46
713.14	-0.46
713.167	13.54
713.194	15.54
713.221	10.54
713.248	11.54
713.275	-6.46
713.302	-8.46
713.329	18.54
713.356	4.54
713.383	9.54
713.41	18.54
713.437	-10.46
713.464	-1.46
713.491	10.54
713.518	-0.46
713.545	5.54
713.572	0.54
713.599	5.54
713.626	-2.46
713.653	21.54
713.68	-5.46
713.707	6.54
713.734	10.54
713.761	3.54
713.788	15.54
713.815	14.54
713.842	6.54
713.869	-8.46
713.896	-2.46
713.923	-1.46
713.95	3.54
713.977	9.54
714.004	-2.46
714.031	4.54
714.058	-14.46
714.085	1.54
714.112	19.54
714.139	2.54
714.165	8.54
714.192	13.54
714.219	12.54
714.246	3.54
714.273	3.54
714.3	1.54
714.327	-1.46
714.354	23.54
714.381	-2.46
714.408	5.54
714.435	15.54
714.461	2.54
714.488	7.54
714.515	2.54
714.542	1.54
714.569	-14.46
714.596	-22.46
714.623	-8.46
714.65	3.54
714.677	-2.46
714.703	8.54
714.73	6.54
714.757	11.54
714.784	6.54
714.811	-6.46
714.838	16.54
714.865	-2.46
714.891	4.54
714.918	13.54
714.945	0.54
714.972	7.54
714.999	5.54
715.026	7.54
715.052	7.54
715.079	3.54
715.106	9.54
715.133	5.54
715.16	-7.46
715.187	2.54
715.213	13.54
715.24	-13.46
715.267	-1.46
715.294	-4.46
715.321	-0.46
715.347	19.54
715.374	1.54
715.401	11.54
715.428	-6.46
715.455	17.54
715.481	0.54
715.508	10.54
715.535	7.54
715.562	28.54
715.588	23.54
715.615	-3.46
715.642	1.54
715.669	15.54
715.695	-2.46
715.722	0.54
715.749	17.54
715.776	22.54
715.802	7.54
715.829	9.54
715.856	-0.46
715.883	14.54
715.909	-4.46
715.936	-12.46
715.963	-0.46
715.99	-8.46
716.016	5.54
716.043	-0.46
716.07	1.54
716.096	-1.46
716.123	-2.46
716.15	-0.46
716.177	0.54
716.203	1.54
716.23	5.54
716.257	-4.46
716.283	22.54
716.31	10.54
716.337	5.54
716.363	-7.46
716.39	-4.46
716.417	13.54
716.443	11.54
716.47	13.54
716.497	6.54
716.523	8.54
716.55	9.54
716.577	12.54
716.603	-3.46
716.63	10.54
716.657	28.54
716.683	6.54
716.71	2.54
716.737	-0.46
716.763	-0.46
716.79	0.54
716.817	8.54
716.843	-1.46
716.87	7.54
716.897	-13.46
716.923	13.54
716.95	-12.46
716.976	-10.46
717.003	5.54
717.03	14.54
717.056	15.54
717.083	11.54
717.109	9.54
717.136	8.54
717.163	-5.46
717.189	7.54
717.216	-0.46
717.242	-0.46
717.269	10.54
717.296	19.54
717.322	11.54
717.349	17.54
717.375	5.54
717.402	1.54
717.428	5.54
717.455	13.54
717.481	-0.46
717.508	4.54
717.535	6.54
717.561	4.54
717.588	5.54
717.614	-4.46
717.641	-0.46
717.667	-4.46
717.694	3.54
717.72	3.54
717.747	-8.46
717.773	-15.46
717.8	12.54
717.826	8.54
717.853	1.54
717.88	12.54
717.906	14.54
717.933	14.54
717.959	8.54
717.986	8.54
718.012	10.54
718.039	9.54
718.065	12.54
718.092	10.54
718.118	-7.46
718.144	2.54
718.171	10.54
718.197	20.54
718.224	-8.46
718.25	-3.46
718.277	5.54
718.303	-0.46
718.33	2.54
718.356	-4.46
718.383	-17.46
718.409	2.54
718.436	11.54
718.462	7.54
718.489	4.54
718.515	0.54
718.541	7.54
718.568	3.54
718.594	5.54
718.621	14.54
718.647	14.54
718.674	11.54
718.7	-6.46
718.726	2.54
718.753	11.54
718.779	16.54
718.806	-3.46
718.832	6.54
718.858	12.54
718.885	3.54
718.911	-5.46
718.938	17.54
718.964	-6.46
718.99	2.54
719.017	9.54
719.043	-1.46
719.07	10.54
719.096	7.54
719.122	15.54
719.149	9.54
719.175	14.54
719.201	5.54
719.228	4.54
719.254	2.54
719.281	6.54
719.307	18.54
719.333	11.54
719.36	8.54
719.386	7.54
719.412	2.54
719.439	-1.46
719.465	3.54
719.491	-2.46
719.518	12.54
719.544	4.54
719.57	9.54
719.597	3.54
719.623	-2.46
719.649	14.54
719.675	13.54
719.702	11.54
719.728	14.54
719.754	-3.46
719.781	1.54
719.807	19.54
719.833	9.54
719.86	5.54
719.886	2.54
719.912	11.54
719.938	-5.46
719.965	-0.46
719.991	14.54
720.017	-4.46
720.044	-9.46
720.07	5.54
720.096	19.54
720.122	16.54
720.149	19.54
720.175	25.54
720.201	8.54
720.227	6.54
720.254	3.54
720.28	1.54
720.306	2.54
720.332	9.54
720.359	1.54
720.385	2.54
720.411	3.54
720.437	7.54
720.463	-1.46
720.49	13.54
720.516	0.54
720.542	-13.46
720.568	4.54
720.595	7.54
720.621	-5.46
720.647	6.54
720.673	-3.46
720.699	-4.46
720.725	1.54
720.752	-0.46
720.778	-3.46
720.804	6.54
720.83	-1.46
720.856	2.54
720.883	-1.46
720.909	16.54
720.935	10.54
720.961	19.54
720.987	7.54
721.013	-0.46
721.04	-0.46
721.066	1.54
721.092	10.54
721.118	11.54
721.144	5.54
721.17	3.54
721.196	10.54
721.223	-3.46
721.249	-2.46
721.275	17.54
721.301	0.54
721.327	9.54
721.353	9.54
721.379	-3.46
721.405	0.54
721.432	-0.46
721.458	-0.46
721.484	11.54
721.51	-22.46
721.536	0.54
721.562	5.54
721.588	12.54
721.614	-3.46
721.64	-3.46
721.666	-5.46
721.693	-9.46
721.719	-8.46
721.745	7.54
721.771	-7.46
721.797	5.54
721.823	27.54
721.849	22.54
721.875	16.54
721.901	5.54
721.927	5.54
721.953	12.54
721.979	19.54
722.005	11.54
722.031	-5.46
722.057	3.54
722.083	2.54
722.109	16.54
722.135	3.54
722.161	10.54
722.187	10.54
722.214	-2.46
722.24	-7.46
722.266	-10.46
722.292	-1.46
722.318	21.54
722.344	10.54
722.37	7.54
722.396	-0.46
722.422	-13.46
722.448	8.54
722.474	3.54
722.5	13.54
722.526	13.54
722.552	7.54
722.578	6.54
722.603	13.54
722.629	-8.46
722.655	9.54
722.681	-5.46
722.707	5.54
722.733	-2.46
722.759	3.54
722.785	6.54
722.811	9.54
722.837	-1.46
722.863	21.54
722.889	14.54
722.915	5.54
722.941	8.54
722.967	10.54
722.993	14.54
723.019	4.54
723.045	14.54
723.071	9.54
723.097	-0.46
723.122	6.54
723.148	1.54
723.174	11.54
723.2	21.54
723.226	6.54
723.252	9.54
723.278	2.54
723.304	0.54
723.33	4.54
723.356	-13.46
723.381	-35.46
723.407	-22.46
723.433	-2.46
723.459	-16.46
723.485	-0.46
723.511	14.54
723.537	-0.46
723.563	-8.46
723.588	-2.46
723.614	19.54
723.64	2.54
723.666	10.54
723.692	15.54
723.718	-7.46
723.744	0.54
723.769	-9.46
723.795	0.54
723.821	11.54
723.847	-1.46
723.873	6.54
723.899	5.54
723.924	10.54
723.95	13.54
723.976	-1.46
724.002	11.54
724.028	2.54
724.053	4.54
724.079	-2.46
724.105	3.54
724.131	14.54
724.157	11.54
724.182	21.54
724.208	13.54
724.234	5.54
724.26	-0.46
724.286	33.54
724.311	7.54
724.337	-9.46
724.363	4.54
724.389	4.54
724.415	-1.46
724.44	23.54
724.466	5.54
724.492	-4.46
724.518	11.54
724.543	4.54
724.569	-8.46
724.595	3.54
724.621	3.54
724.646	11.54
724.672	4.54
724.698	2.54
724.723	-1.46
724.749	-1.46
724.775	19.54
724.801	-6.46
724.826	9.54
724.852	2.54
724.878	-2.46
724.904	-14.46
724.929	3.54
724.955	13.54
724.981	3.54
725.006	3.54
725.032	11.54
725.058	26.54
725.083	6.54
725.109	-0.46
725.135	1.54
725.161	6.54
725.186	-2.46
725.212	-4.46
725.238	5.54
725.263	6.54
725.289	-6.46
725.315	0.54
725.34	-4.46
725.366	17.54
725.392	0.54
725.417	21.54
725.443	-5.46
725.468	4.54
725.494	8.54
725.52	15.54
725.545	8.54
725.571	2.54
725.597	3.54
725.622	1.54
725.648	-10.46
725.674	12.54
725.699	8.54
725.725	0.54
725.75	27.54
725.776	-5.46
725.802	2.54
725.827	11.54
725.853	9.54
725.878	13.54
725.904	-7.46
725.93	5.54
725.955	-1.46
725.981	5.54
726.006	2.54
726.032	9.54
726.057	5.54
726.083	-0.46
726.109	10.54
726.134	-1.46
726.16	4.54
726.185	-1.46
726.211	-7.46
726.236	-7.46
726.262	2.54
726.288	12.54
726.313	19.54
726.339	30.54
726.364	9.54
726.39	8.54
726.415	-0.46
726.441	10.54
726.466	-2.46
726.492	4.54
726.517	17.54
726.543	1.54
726.568	-10.46
726.594	-9.46
726.619	4.54
726.645	4.54
726.67	10.54
726.696	5.54
726.721	-6.46
726.747	1.54
726.772	13.54
726.798	1.54
726.823	6.54
726.849	4.54
726.874	17.54
726.9	26.54
726.925	12.54
726.951	-2.46
726.976	10.54
727.002	9.54
727.027	1.54
727.053	27.54
727.078	-0.46
727.104	0.54
727.129	-3.46
727.155	-2.46
727.18	6.54
727.205	13.54
727.231	6.54
727.256	-4.46
727.282	-1.46
727.307	-0.46
727.333	-7.46
727.358	1.54
727.383	4.54
727.409	-4.46
727.434	13.54
727.46	-5.46
727.485	9.54
727.511	13.54
727.536	-5.46
727.561	-4.46
727.587	-2.46
727.612	-6.46
727.637	19.54
727.663	-6.46
727.688	1.54
727.714	-2.46
727.739	3.54
727.764	-2.46
727.79	-10.46
727.815	2.54
727.841	14.54
727.866	10.54
727.891	-3.46
727.917	-14.46
727.942	-2.46
727.967	-1.46
727.993	-16.46
728.018	9.54
728.043	-7.46
728.069	15.54
728.094	17.54
728.119	3.54
728.145	13.54
728.17	12.54
728.195	8.54
728.221	17.54
728.246	-5.46
728.271	4.54
728.297	15.54
728.322	9.54
728.347	21.54
728.373	10.54
728.398	10.54
728.423	2.54
728.448	6.54
728.474	3.54
728.499	14.54
728.524	12.54
728.55	3.54
728.575	5.54
728.6	4.54
728.625	-3.46
728.651	16.54
728.676	-0.46
728.701	-2.46
728.727	5.54
728.752	-8.46
728.777	-7.46
728.802	5.54
728.828	10.54
728.853	10.54
728.878	-6.46
728.903	-8.46
728.929	3.54
728.954	3.54
728.979	-0.46
729.004	2.54
729.03	0.54
729.055	18.54
729.08	8.54
729.105	-7.46
729.13	13.54
729.156	16.54
729.181	-1.46
729.206	-19.46
729.231	2.54
729.256	20.54
729.282	17.54
729.307	6.54
729.332	5.54
729.357	-5.46
729.382	-8.46
729.408	-11.46
729.433	5.54
729.458	0.54
729.483	10.54
729.508	12.54
729.533	-6.46
729.559	6.54
729.584	-2.46
729.609	4.54
729.634	23.54
729.659	9.54
729.684	-4.46
729.71	18.54
729.735	12.54
729.76	4.54
729.785	2.54
729.81	13.54
729.835	-1.46
729.86	3.54
729.886	21.54
729.911	7.54
729.936	-10.46
729.961	-2.46
729.986	-0.46
730.011	12.54
730.036	13.54
730.061	11.54
730.086	9.54
730.112	5.54
730.137	10.54
730.162	13.54
730.187	-6.46
730.212	-0.46
730.237	15.54
730.262	1.54
730.287	-9.46
730.312	8.54
730.337	-2.46
730.362	9.54
730.387	7.54
730.413	-4.46
730.438	2.54
730.463	18.54
730.488	-12.46
730.513	5.54
730.538	-6.46
730.563	24.54
730.588	12.54
730.613	17.54
730.638	10.54
730.663	-11.46
730.688	14.54
730.713	14.54
730.738	10.54
730.763	2.54
730.788	-8.46
730.813	8.54
730.838	2.54
730.863	12.54
730.888	6.54
730.913	-4.46
730.938	-11.46
730.963	1.54
730.988	-9.46
731.013	28.54
731.038	2.54
731.063	-7.46
731.088	9.54
731.113	8.54
731.138	-0.46
731.163	-0.46
731.188	0.54
731.213	14.54
731.238	25.54
731.263	1.54
731.288	5.54
731.313	7.54
731.338	7.54
731.363	2.54
731.388	-2.46
731.413	-7.46
731.438	10.54
731.463	3.54
731.487	13.54
731.512	0.54
731.537	-7.46
731.562	-2.46
731.587	1.54
731.612	-9.46
731.637	8.54
731.662	3.54
731.687	-1.46
731.712	-18.46
731.737	12.54
731.762	-9.46
731.786	-1.46
731.811	6.54
731.836	2.54
731.861	5.54
731.886	2.54
731.911	6.54
731.936	9.54
731.961	2.54
731.986	-10.46
732.01	5.54
732.035	9.54
732.06	13.54
732.085	4.54
732.11	5.54
732.135	-7.46
732.16	-1.46
732.184	9.54
732.209	-5.46
732.234	5.54
732.259	8.54
732.284	1.54
732.309	-12.46
732.334	7.54
732.358	-12.46
732.383	-15.46
732.408	-10.46
732.433	-1.46
732.458	8.54
732.482	16.54
732.507	-2.46
732.532	6.54
732.557	9.54
732.582	2.54
732.607	-0.46
732.631	-15.46
732.656	4.54
732.681	2.54
732.706	-5.46
732.73	1.54
732.755	-13.46
732.78	-5.46
732.805	-2.46
732.83	-2.46
732.854	-1.46
732.879	18.54
732.904	1.54
732.929	18.54
732.953	-2.46
732.978	-1.46
733.003	-5.46
733.028	5.54
733.052	12.54
733.077	-6.46
733.102	-3.46
733.127	0.54
733.151	5.54
733.176	11.54
733.201	0.54
733.226	-6.46
733.25	5.54
733.275	10.54
733.3	6.54
733.324	6.54
733.349	15.54
733.374	32.54
733.399	3.54
733.423	0.54
733.448	5.54
733.473	-4.46
733.497	0.54
733.522	-4.46
733.547	2.54
733.571	9.54
733.596	3.54
733.621	14.54
733.646	-2.46
733.67	-3.46
733.695	-5.46
733.72	11.54
733.744	15.54
733.769	7.54
733.794	31.54
733.818	5.54
733.843	-16.46
733.867	-19.46
733.892	-9.46
733.917	-9.46
733.941	-0.46
733.966	-7.46
733.991	7.54
734.015	24.54
734.04	15.54
734.065	17.54
734.089	17.54
734.114	-4.46
734.138	11.54
734.163	4.54
734.188	11.54
734.212	20.54
734.237	23.54
734.261	8.54
734.286	-4.46
734.311	-6.46
734.335	2.54
734.36	-7.46
734.384	0.54
734.409	-10.46
734.434	-8.46
734.458	-8.46
734.483	-1.46
734.507	4.54
734.532	13.54
734.556	3.54
734.581	-9.46
734.606	15.54
734.63	-6.46
734.655	10.54
734.679	3.54
734.704	-5.46
734.728	7.54
734.753	-3.46
734.777	15.54
734.802	2.54
734.826	1.54
734.851	10.54
734.876	26.54
734.9	28.54
734.925	8.54
734.949	-1.46
734.974	-3.46
734.998	-4.46
735.023	-8.46
735.047	10.54
735.072	27.54
735.096	22.54
735.121	10.54
735.145	10.54
735.17	3.54
735.194	21.54
735.219	20.54
735.243	15.54
735.268	2.54
735.292	2.54
735.317	11.54
735.341	9.54
735.365	1.54
735.39	14.54
735.414	10.54
735.439	6.54
735.463	2.54
735.488	6.54
735.512	13.54
735.537	11.54
735.561	11.54
735.586	-1.46
735.61	-1.46
735.634	-6.46
735.659	14.54
735.683	14.54
735.708	1.54
735.732	-7.46
735.757	7.54
735.781	26.54
735.805	3.54
735.83	-1.46
735.854	9.54
735.879	11.54
735.903	24.54
735.927	15.54
735.952	4.54
735.976	2.54
736.001	19.54
736.025	-1.46
736.049	13.54
736.074	-5.46
736.098	15.54
736.123	9.54
736.147	2.54
736.171	14.54
736.196	16.54
736.22	-2.46
736.244	12.54
736.269	16.54
736.293	-2.46
736.317	-2.46
736.342	10.54
736.366	1.54
736.39	17.54
736.415	0.54
736.439	5.54
736.463	10.54
736.488	1.54
736.512	10.54
736.536	6.54
736.561	22.54
736.585	3.54
736.609	17.54
736.634	2.54
736.658	0.54
736.682	-6.46
736.707	0.54
736.731	-13.46
736.755	-8.46
736.78	26.54
736.804	15.54
736.828	5.54
736.852	13.54
736.877	5.54
736.901	-0.46
736.925	-4.46
736.949	14.54
736.974	2.54
736.998	-0.46
737.022	9.54
737.047	-8.46
737.071	7.54
737.095	7.54
737.119	26.54
737.144	20.54
737.168	7.54
737.192	-2.46
737.216	15.54
737.241	-0.46
737.265	13.54
737.289	7.54
737.313	5.54
737.337	9.54
737.362	-0.46
737.386	10.54
737.41	-4.46
737.434	11.54
737.459	15.54
737.483	12.54
737.507	4.54
737.531	-1.46
737.555	11.54
737.58	12.54
737.604	-1.46
737.628	-2.46
737.652	7.54
737.676	2.54
737.701	14.54
737.725	-1.46
737.749	14.54
737.773	3.54
737.797	2.54
737.821	11.54
737.846	0.54
737.87	20.54
737.894	8.54
737.918	0.54
737.942	-0.46
737.966	28.54
737.99	26.54
738.015	13.54
738.039	18.54
738.063	12.54
738.087	18.54
738.111	2.54
738.135	8.54
738.159	6.54
738.184	-0.46
738.208	13.54
738.232	11.54
738.256	10.54
738.28	11.54
738.304	20.54
738.328	3.54
738.352	8.54
738.376	11.54
738.4	1.54
738.425	-0.46
738.449	6.54
738.473	4.54
738.497	-14.46
738.521	0.54
738.545	16.54
738.569	7.54
738.593	24.54
738.617	9.54
738.641	18.54
738.665	17.54
738.689	13.54
738.713	5.54
738.737	5.54
738.762	5.54
738.786	1.54
738.81	-4.46
738.834	22.54
738.858	7.54
738.882	6.54
738.906	5.54
738.93	6.54
738.954	10.54
738.978	12.54
739.002	3.54
739.026	17.54
739.05	14.54
739.074	-6.46
739.098	13.54
739.122	1.54
739.146	8.54
739.17	19.54
739.194	32.54
739.218	3.54
739.242	-0.46
739.266	-3.46
739.29	3.54
739.314	1.54
739.338	-0.46
739.362	1.54
739.386	10.54
739.41	3.54
739.434	1.54
739.458	16.54
739.482	24.54
739.506	17.54
739.53	8.54
739.554	13.54
739.577	16.54
739.601	15.54
739.625	0.54
739.649	4.54
739.673	9.54
739.697	5.54
739.721	5.54
739.745	14.54
739.769	23.54
739.793	7.54
739.817	19.54
739.841	6.54
739.865	4.54
739.889	-7.46
739.912	22.54
739.936	4.54
739.96	6.54
739.984	24.54
740.008	11.54
740.032	3.54
740.056	-1.46
740.08	6.54
740.104	13.54
740.127	13.54
740.151	7.54
740.175	27.54
740.199	4.54
740.223	41.54
740.247	4.54
740.271	8.54
740.295	5.54
740.318	-13.46
740.342	-5.46
740.366	-1.46
740.39	19.54
740.414	5.54
740.438	-5.46
740.461	8.54
740.485	13.54
740.509	-12.46
740.533	0.54
740.557	7.54
740.581	-1.46
740.604	-3.46
740.628	11.54
740.652	8.54
740.676	12.54
740.7	30.54
740.723	-0.46
740.747	14.54
740.771	6.54
740.795	1.54
740.819	11.54
740.842	15.54
740.866	6.54
740.89	9.54
740.914	5.54
740.938	0.54
740.961	10.54
740.985	6.54
741.009	-2.46
741.033	27.54
741.056	11.54
741.08	2.54
741.104	1.54
741.128	9.54
741.151	10.54
741.175	10.54
741.199	14.54
741.223	2.54
741.246	-5.46
741.27	2.54
741.294	1.54
741.318	-6.46
741.341	3.54
741.365	-5.46
741.389	1.54
741.413	7.54
741.436	11.54
741.46	25.54
741.484	5.54
741.507	12.54
741.531	13.54
741.555	6.54
741.579	15.54
741.602	12.54
741.626	17.54
741.65	2.54
741.673	-0.46
741.697	13.54
741.721	10.54
741.744	-9.46
741.768	-10.46
741.792	6.54
741.815	-1.46
741.839	18.54
741.863	19.54
741.886	11.54
741.91	6.54
741.934	13.54
741.957	-3.46
741.981	17.54
742.005	-0.46
742.028	5.54
742.052	-8.46
742.075	15.54
742.099	20.54
742.123	-1.46
742.146	5.54
742.17	5.54
742.194	-6.46
742.217	2.54
742.241	-1.46
742.264	8.54
742.288	5.54
742.312	11.54
742.335	3.54
742.359	0.54
742.382	-11.46
742.406	7.54
742.43	3.54
742.453	5.54
742.477	-12.46
742.5	-7.46
742.524	-1.46
742.548	-10.46
742.571	-0.46
742.595	-9.46
742.618	-3.46
742.642	-4.46
742.665	10.54
742.689	-6.46
742.712	2.54
742.736	-11.46
742.76	8.54
742.783	-2.46
742.807	4.54
742.83	10.54
742.854	-9.46
742.877	0.54
742.901	1.54
742.924	-0.46
742.948	3.54
742.971	9.54
742.995	22.54
743.018	2.54
743.042	-2.46
743.065	-2.46
743.089	-5.46
743.112	1.54
743.136	-7.46
743.159	5.54
743.183	-0.46
743.206	20.54
743.23	8.54
743.253	13.54
743.277	3.54
743.3	-17.46
743.324	5.54
743.347	-10.46
743.371	10.54
743.394	17.54
743.418	3.54
743.441	7.54
743.465	7.54
743.488	2.54
743.512	-12.46
743.535	-1.46
743.558	5.54
743.582	1.54
743.605	6.54
743.629	9.54
743.652	10.54
743.676	-12.46
743.699	-0.46
743.723	5.54
743.746	2.54
743.769	-7.46
743.793	-5.46
743.816	16.54
743.84	18.54
743.863	7.54
743.886	6.54
743.91	22.54
743.933	6.54
743.957	27.54
743.98	-1.46
744.003	14.54
744.027	11.54
744.05	7.54
744.074	15.54
744.097	1.54
744.12	-6.46
744.144	-12.46
744.167	6.54
744.19	14.54
744.214	5.54
744.237	-8.46
744.26	5.54
744.284	-14.46
744.307	-17.46
744.331	-5.46
744.354	-3.46
744.377	-1.46
744.401	8.54
744.424	-14.46
744.447	-19.46
744.471	-10.46
