Data from HighRes_H2D2_15_04_11_07_2024_HR4C61891__29__15-05-37-343.txt Node

Date: Thu Nov 07 15:05:37 EST 2024
User: crc00042
Spectrometer: HR4C6189
Trigger mode: 4
Integration Time (sec): 1.000000E-1
Scans to average: 1
Electric dark correction enabled: true
Nonlinearity correction enabled: false
Boxcar width: 0
XAxis mode: Wavelengths
Number of Pixels in Spectrum: 3648
>>>>>Begin Spectral Data<<<<<
639.567	-72.23
639.602	-72.23
639.636	-72.23
639.67	-44.23
639.704	-11.23
639.738	-7.23
639.773	10.77
639.807	-26.23
639.841	-4.23
639.875	13.77
639.909	-4.23
639.943	-7.23
639.978	-2.23
640.012	4.77
640.046	12.77
640.08	13.77
640.114	0.77
640.148	-5.23
640.182	5.77
640.217	-8.23
640.251	9.77
640.285	17.77
640.319	-16.23
640.353	16.77
640.387	24.77
640.421	4.77
640.455	-9.23
640.49	3.77
640.524	11.77
640.558	14.77
640.592	6.77
640.626	13.77
640.66	-6.23
640.694	-5.23
640.728	-2.23
640.762	-2.23
640.796	17.77
640.83	16.77
640.865	12.77
640.899	18.77
640.933	-11.23
640.967	-11.23
641.001	11.77
641.035	8.77
641.069	10.77
641.103	-12.23
641.137	6.77
641.171	-19.23
641.205	-0.23
641.239	6.77
641.273	16.77
641.307	14.77
641.341	2.77
641.375	6.77
641.409	-3.23
641.443	-0.23
641.477	8.77
641.511	8.77
641.545	-1.23
641.579	-3.23
641.614	15.77
641.648	10.77
641.682	4.77
641.716	11.77
641.75	18.77
641.784	-13.23
641.818	6.77
641.852	-5.23
641.886	11.77
641.919	25.77
641.953	9.77
641.987	-6.23
642.021	5.77
642.055	3.77
642.089	12.77
642.123	-11.23
642.157	1.77
642.191	3.77
642.225	6.77
642.259	8.77
642.293	14.77
642.327	8.77
642.361	6.77
642.395	7.77
642.429	4.77
642.463	-1.23
642.497	1.77
642.531	6.77
642.565	7.77
642.599	8.77
642.633	2.77
642.666	9.77
642.7	8.77
642.734	28.77
642.768	2.77
642.802	20.77
642.836	30.77
642.87	10.77
642.904	14.77
642.938	9.77
642.972	8.77
643.005	11.77
643.039	26.77
643.073	9.77
643.107	1.77
643.141	2.77
643.175	1.77
643.209	-5.23
643.243	-2.23
643.276	5.77
643.31	-29.23
643.344	-27.23
643.378	-6.23
643.412	24.77
643.446	16.77
643.48	11.77
643.513	10.77
643.547	-0.23
643.581	4.77
643.615	12.77
643.649	0.77
643.683	2.77
643.716	8.77
643.75	-4.23
643.784	-23.23
643.818	0.77
643.852	13.77
643.886	8.77
643.919	26.77
643.953	-5.23
643.987	-3.23
644.021	-1.23
644.055	2.77
644.088	-3.23
644.122	-12.23
644.156	12.77
644.19	21.77
644.224	14.77
644.257	13.77
644.291	33.77
644.325	13.77
644.359	2.77
644.392	7.77
644.426	2.77
644.46	2.77
644.494	4.77
644.527	-12.23
644.561	9.77
644.595	5.77
644.629	6.77
644.662	10.77
644.696	11.77
644.73	10.77
644.764	2.77
644.797	11.77
644.831	-6.23
644.865	13.77
644.899	-2.23
644.932	17.77
644.966	0.77
645	7.77
645.033	13.77
645.067	-3.23
645.101	10.77
645.135	14.77
645.168	7.77
645.202	-24.23
645.236	-12.23
645.269	18.77
645.303	3.77
645.337	-8.23
645.37	-3.23
645.404	2.77
645.438	-2.23
645.471	0.77
645.505	16.77
645.539	11.77
645.572	-0.23
645.606	9.77
645.64	12.77
645.673	-5.23
645.707	31.77
645.741	-11.23
645.774	-2.23
645.808	2.77
645.842	0.77
645.875	11.77
645.909	2.77
645.943	5.77
645.976	27.77
646.01	22.77
646.043	23.77
646.077	9.77
646.111	4.77
646.144	10.77
646.178	8.77
646.212	-2.23
646.245	7.77
646.279	7.77
646.312	2.77
646.346	8.77
646.38	3.77
646.413	8.77
646.447	9.77
646.48	2.77
646.514	14.77
646.547	-0.23
646.581	3.77
646.615	-11.23
646.648	-5.23
646.682	7.77
646.715	0.77
646.749	-4.23
646.782	-6.23
646.816	-3.23
646.85	15.77
646.883	-4.23
646.917	4.77
646.95	4.77
646.984	0.77
647.017	15.77
647.051	27.77
647.084	17.77
647.118	5.77
647.151	9.77
647.185	19.77
647.218	-3.23
647.252	10.77
647.285	-0.23
647.319	-19.23
647.353	-12.23
647.386	15.77
647.42	3.77
647.453	10.77
647.487	8.77
647.52	-7.23
647.553	4.77
647.587	10.77
647.62	-7.23
647.654	3.77
647.687	-2.23
647.721	16.77
647.754	7.77
647.788	-4.23
647.821	-1.23
647.855	10.77
647.888	19.77
647.922	13.77
647.955	20.77
647.989	21.77
648.022	7.77
648.055	17.77
648.089	-2.23
648.122	34.77
648.156	6.77
648.189	24.77
648.223	10.77
648.256	23.77
648.29	7.77
648.323	13.77
648.356	17.77
648.39	21.77
648.423	21.77
648.457	23.77
648.49	16.77
648.523	12.77
648.557	12.77
648.59	13.77
648.624	9.77
648.657	14.77
648.69	9.77
648.724	21.77
648.757	17.77
648.791	19.77
648.824	20.77
648.857	24.77
648.891	-0.23
648.924	17.77
648.957	22.77
648.991	-10.23
649.024	10.77
649.057	-13.23
649.091	7.77
649.124	3.77
649.158	8.77
649.191	22.77
649.224	8.77
649.258	12.77
649.291	17.77
649.324	8.77
649.358	1.77
649.391	10.77
649.424	2.77
649.458	11.77
649.491	16.77
649.524	2.77
649.557	-11.23
649.591	-1.23
649.624	14.77
649.657	-4.23
649.691	3.77
649.724	2.77
649.757	7.77
649.791	-1.23
649.824	21.77
649.857	12.77
649.89	6.77
649.924	-10.23
649.957	10.77
649.99	1.77
650.023	12.77
650.057	-4.23
650.09	19.77
650.123	7.77
650.157	7.77
650.19	6.77
650.223	-10.23
650.256	7.77
650.29	8.77
650.323	1.77
650.356	12.77
650.389	13.77
650.423	1.77
650.456	16.77
650.489	14.77
650.522	11.77
650.555	11.77
650.589	28.77
650.622	12.77
650.655	13.77
650.688	5.77
650.721	-7.23
650.755	4.77
650.788	11.77
650.821	5.77
650.854	6.77
650.887	7.77
650.921	5.77
650.954	-3.23
650.987	13.77
651.02	2.77
651.053	-17.23
651.087	-14.23
651.12	12.77
651.153	3.77
651.186	-1.23
651.219	-3.23
651.252	17.77
651.286	18.77
651.319	-14.23
651.352	10.77
651.385	-1.23
651.418	15.77
651.451	12.77
651.484	20.77
651.518	-11.23
651.551	17.77
651.584	7.77
651.617	19.77
651.65	10.77
651.683	21.77
651.716	-3.23
651.749	-16.23
651.783	-5.23
651.816	10.77
651.849	11.77
651.882	2.77
651.915	-0.23
651.948	8.77
651.981	12.77
652.014	-16.23
652.047	-14.23
652.08	4.77
652.114	4.77
652.147	-8.23
652.18	10.77
652.213	41.77
652.246	12.77
652.279	-1.23
652.312	5.77
652.345	1.77
652.378	10.77
652.411	16.77
652.444	15.77
652.477	13.77
652.51	8.77
652.543	-0.23
652.576	10.77
652.609	6.77
652.642	9.77
652.675	14.77
652.709	9.77
652.742	2.77
652.775	3.77
652.808	22.77
652.841	28.77
652.874	6.77
652.907	-0.23
652.94	-8.23
652.973	-24.23
653.006	-7.23
653.039	6.77
653.072	8.77
653.105	10.77
653.138	3.77
653.171	2.77
653.204	1.77
653.237	12.77
653.27	-4.23
653.303	-3.23
653.336	14.77
653.368	0.77
653.401	18.77
653.434	2.77
653.467	13.77
653.5	3.77
653.533	0.77
653.566	12.77
653.599	-2.23
653.632	14.77
653.665	10.77
653.698	-10.23
653.731	-2.23
653.764	13.77
653.797	2.77
653.83	6.77
653.863	6.77
653.896	-12.23
653.929	0.77
653.961	13.77
653.994	13.77
654.027	-5.23
654.06	19.77
654.093	0.77
654.126	17.77
654.159	11.77
654.192	7.77
654.225	-2.23
654.258	-3.23
654.29	3.77
654.323	12.77
654.356	-11.23
654.389	5.77
654.422	-7.23
654.455	-1.23
654.488	16.77
654.521	-1.23
654.553	-1.23
654.586	14.77
654.619	5.77
654.652	6.77
654.685	20.77
654.718	16.77
654.751	9.77
654.783	13.77
654.816	16.77
654.849	16.77
654.882	4.77
654.915	-14.23
654.948	4.77
654.98	0.77
655.013	13.77
655.046	8.77
655.079	6.77
655.112	-2.23
655.144	5.77
655.177	5.77
655.21	10.77
655.243	30.77
655.276	19.77
655.308	4.77
655.341	4.77
655.374	4.77
655.407	-0.23
655.44	14.77
655.472	20.77
655.505	13.77
655.538	4.77
655.571	18.77
655.603	12.77
655.636	12.77
655.669	8.77
655.702	11.77
655.734	10.77
655.767	4.77
655.8	21.77
655.833	23.77
655.865	23.77
655.898	21.77
655.931	16.77
655.964	17.77
655.996	33.77
656.029	48.77
656.062	49.77
656.095	59.77
656.127	67.77
656.16	203.77
656.193	625.77
656.225	970.77
656.258	552.77
656.291	220.77
656.324	184.77
656.356	347.77
656.389	778.77
656.422	664.77
656.454	256.77
656.487	91.77
656.52	48.77
656.552	30.77
656.585	13.77
656.618	26.77
656.65	21.77
656.683	-7.23
656.716	23.77
656.748	15.77
656.781	-3.23
656.814	-5.23
656.846	9.77
656.879	-19.23
656.912	-19.23
656.944	-23.23
656.977	-2.23
657.01	-7.23
657.042	11.77
657.075	9.77
657.108	-3.23
657.14	10.77
657.173	13.77
657.205	13.77
657.238	14.77
657.271	13.77
657.303	0.77
657.336	5.77
657.369	-6.23
657.401	5.77
657.434	10.77
657.466	0.77
657.499	9.77
657.532	1.77
657.564	11.77
657.597	17.77
657.629	17.77
657.662	14.77
657.694	1.77
657.727	-3.23
657.76	4.77
657.792	-5.23
657.825	-1.23
657.857	14.77
657.89	1.77
657.922	19.77
657.955	3.77
657.987	-0.23
658.02	9.77
658.053	16.77
658.085	11.77
658.118	9.77
658.15	11.77
658.183	12.77
658.215	7.77
658.248	11.77
658.28	15.77
658.313	19.77
658.345	15.77
658.378	2.77
658.41	16.77
658.443	21.77
658.475	18.77
658.508	5.77
658.54	11.77
658.573	0.77
658.605	7.77
658.638	-1.23
658.67	5.77
658.703	25.77
658.735	-0.23
658.768	6.77
658.8	-2.23
658.833	16.77
658.865	-3.23
658.898	3.77
658.93	0.77
658.963	4.77
658.995	-6.23
659.028	7.77
659.06	-7.23
659.092	-1.23
659.125	7.77
659.157	9.77
659.19	5.77
659.222	8.77
659.255	12.77
659.287	5.77
659.32	-4.23
659.352	3.77
659.384	3.77
659.417	8.77
659.449	24.77
659.482	11.77
659.514	-3.23
659.546	-12.23
659.579	-12.23
659.611	9.77
659.644	0.77
659.676	-8.23
659.708	5.77
659.741	11.77
659.773	19.77
659.806	-8.23
659.838	1.77
659.87	-8.23
659.903	-12.23
659.935	8.77
659.967	18.77
660	13.77
660.032	-19.23
660.065	11.77
660.097	14.77
660.129	17.77
660.162	-2.23
660.194	9.77
660.226	-5.23
660.259	1.77
660.291	0.77
660.323	9.77
660.356	15.77
660.388	1.77
660.42	15.77
660.453	18.77
660.485	12.77
660.517	13.77
660.55	15.77
660.582	27.77
660.614	25.77
660.647	-0.23
660.679	-14.23
660.711	4.77
660.743	-7.23
660.776	-7.23
660.808	-5.23
660.84	-4.23
660.873	-3.23
660.905	-7.23
660.937	-0.23
660.969	14.77
661.002	5.77
661.034	18.77
661.066	8.77
661.099	6.77
661.131	19.77
661.163	9.77
661.195	11.77
661.228	32.77
661.26	1.77
661.292	7.77
661.324	-9.23
661.357	6.77
661.389	8.77
661.421	8.77
661.453	12.77
661.485	13.77
661.518	14.77
661.55	-8.23
661.582	-15.23
661.614	12.77
661.647	12.77
661.679	10.77
661.711	7.77
661.743	-13.23
661.775	12.77
661.808	19.77
661.84	1.77
661.872	4.77
661.904	-17.23
661.936	16.77
661.969	2.77
662.001	-3.23
662.033	12.77
662.065	8.77
662.097	13.77
662.129	12.77
662.162	-2.23
662.194	16.77
662.226	-1.23
662.258	16.77
662.29	-6.23
662.322	2.77
662.355	-22.23
662.387	39.77
662.419	-0.23
662.451	19.77
662.483	9.77
662.515	11.77
662.547	6.77
662.58	5.77
662.612	5.77
662.644	1.77
662.676	11.77
662.708	27.77
662.74	14.77
662.772	9.77
662.804	14.77
662.836	5.77
662.869	3.77
662.901	14.77
662.933	-4.23
662.965	9.77
662.997	14.77
663.029	-8.23
663.061	-7.23
663.093	10.77
663.125	18.77
663.157	4.77
663.189	8.77
663.221	15.77
663.254	0.77
663.286	16.77
663.318	1.77
663.35	-2.23
663.382	14.77
663.414	21.77
663.446	4.77
663.478	0.77
663.51	28.77
663.542	2.77
663.574	24.77
663.606	12.77
663.638	-4.23
663.67	-5.23
663.702	3.77
663.734	-3.23
663.766	13.77
663.798	-10.23
663.83	-6.23
663.862	10.77
663.894	-2.23
663.926	-3.23
663.958	3.77
663.99	4.77
664.022	3.77
664.054	11.77
664.086	3.77
664.118	-1.23
664.15	7.77
664.182	-19.23
664.214	1.77
664.246	11.77
664.278	-1.23
664.31	9.77
664.342	25.77
664.374	22.77
664.406	8.77
664.438	0.77
664.47	0.77
664.502	-7.23
664.534	-11.23
664.566	-14.23
664.598	11.77
664.63	-8.23
664.662	14.77
664.693	10.77
664.725	0.77
664.757	-4.23
664.789	-14.23
664.821	20.77
664.853	11.77
664.885	0.77
664.917	-1.23
664.949	13.77
664.981	15.77
665.013	10.77
665.045	3.77
665.076	1.77
665.108	1.77
665.14	4.77
665.172	2.77
665.204	-4.23
665.236	-4.23
665.268	9.77
665.3	-9.23
665.331	-1.23
665.363	1.77
665.395	-1.23
665.427	-0.23
665.459	11.77
665.491	-4.23
665.523	0.77
665.555	-3.23
665.586	15.77
665.618	0.77
665.65	-6.23
665.682	7.77
665.714	5.77
665.746	-3.23
665.777	13.77
665.809	10.77
665.841	-2.23
665.873	-5.23
665.905	-0.23
665.937	12.77
665.968	19.77
666	12.77
666.032	5.77
666.064	6.77
666.096	-1.23
666.127	22.77
666.159	27.77
666.191	24.77
666.223	17.77
666.255	13.77
666.286	-0.23
666.318	5.77
666.35	16.77
666.382	9.77
666.413	-12.23
666.445	-16.23
666.477	-19.23
666.509	12.77
666.54	12.77
666.572	-3.23
666.604	-17.23
666.636	10.77
666.667	15.77
666.699	22.77
666.731	-4.23
666.763	-1.23
666.794	15.77
666.826	2.77
666.858	-10.23
666.89	5.77
666.921	-2.23
666.953	-3.23
666.985	12.77
667.017	20.77
667.048	17.77
667.08	3.77
667.112	1.77
667.143	5.77
667.175	16.77
667.207	13.77
667.238	14.77
667.27	-6.23
667.302	19.77
667.334	-0.23
667.365	20.77
667.397	11.77
667.429	-1.23
667.46	7.77
667.492	-3.23
667.524	-7.23
667.555	-13.23
667.587	2.77
667.619	0.77
667.65	-7.23
667.682	3.77
667.714	6.77
667.745	-13.23
667.777	8.77
667.808	15.77
667.84	5.77
667.872	13.77
667.903	26.77
667.935	5.77
667.967	5.77
667.998	7.77
668.03	11.77
668.061	1.77
668.093	17.77
668.125	14.77
668.156	21.77
668.188	12.77
668.22	1.77
668.251	4.77
668.283	6.77
668.314	16.77
668.346	-16.23
668.377	-5.23
668.409	-1.23
668.441	16.77
668.472	11.77
668.504	1.77
668.535	19.77
668.567	4.77
668.599	20.77
668.63	18.77
668.662	9.77
668.693	15.77
668.725	7.77
668.756	12.77
668.788	1.77
668.819	7.77
668.851	-4.23
668.882	8.77
668.914	-0.23
668.946	7.77
668.977	4.77
669.009	4.77
669.04	4.77
669.072	5.77
669.103	6.77
669.135	13.77
669.166	6.77
669.198	10.77
669.229	5.77
669.261	-3.23
669.292	-5.23
669.324	8.77
669.355	8.77
669.387	-0.23
669.418	20.77
669.45	-3.23
669.481	1.77
669.513	-0.23
669.544	-11.23
669.576	6.77
669.607	11.77
669.639	14.77
669.67	-0.23
669.701	-5.23
669.733	-6.23
669.764	-4.23
669.796	0.77
669.827	-3.23
669.859	0.77
669.89	29.77
669.922	22.77
669.953	12.77
669.985	15.77
670.016	14.77
670.047	-2.23
670.079	-5.23
670.11	10.77
670.142	17.77
670.173	2.77
670.204	18.77
670.236	5.77
670.267	-14.23
670.299	8.77
670.33	15.77
670.362	16.77
670.393	0.77
670.424	2.77
670.456	-2.23
670.487	3.77
670.518	17.77
670.55	17.77
670.581	14.77
670.613	4.77
670.644	1.77
670.675	4.77
670.707	-6.23
670.738	5.77
670.769	-1.23
670.801	-5.23
670.832	14.77
670.864	-1.23
670.895	2.77
670.926	10.77
670.958	1.77
670.989	3.77
671.02	12.77
671.052	8.77
671.083	10.77
671.114	-3.23
671.146	13.77
671.177	13.77
671.208	5.77
671.24	-18.23
671.271	7.77
671.302	9.77
671.333	-0.23
671.365	-3.23
671.396	14.77
671.427	12.77
671.459	9.77
671.49	1.77
671.521	20.77
671.553	9.77
671.584	12.77
671.615	-9.23
671.646	5.77
671.678	4.77
671.709	-15.23
671.74	-10.23
671.771	-8.23
671.803	-11.23
671.834	12.77
671.865	11.77
671.896	22.77
671.928	-9.23
671.959	-13.23
671.99	5.77
672.021	7.77
672.053	0.77
672.084	13.77
672.115	10.77
672.146	2.77
672.178	-24.23
672.209	0.77
672.24	-4.23
672.271	22.77
672.303	12.77
672.334	11.77
672.365	4.77
672.396	-3.23
672.427	-0.23
672.459	9.77
672.49	26.77
672.521	10.77
672.552	11.77
672.583	2.77
672.615	2.77
672.646	4.77
672.677	-7.23
672.708	16.77
672.739	12.77
672.77	24.77
672.802	19.77
672.833	2.77
672.864	7.77
672.895	4.77
672.926	3.77
672.957	-4.23
672.989	2.77
673.02	1.77
673.051	13.77
673.082	17.77
673.113	2.77
673.144	8.77
673.175	-1.23
673.206	-5.23
673.238	-6.23
673.269	15.77
673.3	-14.23
673.331	0.77
673.362	-7.23
673.393	16.77
673.424	16.77
673.455	29.77
673.487	-16.23
673.518	22.77
673.549	15.77
673.58	7.77
673.611	15.77
673.642	19.77
673.673	-8.23
673.704	4.77
673.735	12.77
673.766	-5.23
673.797	-2.23
673.828	4.77
673.86	1.77
673.891	-6.23
673.922	2.77
673.953	7.77
673.984	13.77
674.015	16.77
674.046	18.77
674.077	-1.23
674.108	-12.23
674.139	-2.23
674.17	-14.23
674.201	-16.23
674.232	8.77
674.263	-7.23
674.294	-11.23
674.325	-7.23
674.356	-1.23
674.387	9.77
674.418	-0.23
674.449	-3.23
674.48	-14.23
674.511	-13.23
674.542	3.77
674.573	-11.23
674.604	3.77
674.635	6.77
674.666	5.77
674.697	12.77
674.728	-6.23
674.759	9.77
674.79	-12.23
674.821	-11.23
674.852	-6.23
674.883	-5.23
674.914	-6.23
674.945	-2.23
674.976	6.77
675.007	-6.23
675.038	-7.23
675.069	2.77
675.1	-7.23
675.131	-4.23
675.162	-19.23
675.193	-1.23
675.224	-14.23
675.254	8.77
675.285	18.77
675.316	17.77
675.347	-3.23
675.378	2.77
675.409	4.77
675.44	20.77
675.471	15.77
675.502	1.77
675.533	1.77
675.564	14.77
675.595	-4.23
675.625	14.77
675.656	16.77
675.687	8.77
675.718	-17.23
675.749	8.77
675.78	7.77
675.811	5.77
675.842	-2.23
675.873	-0.23
675.903	4.77
675.934	5.77
675.965	-13.23
675.996	1.77
676.027	9.77
676.058	8.77
676.089	-10.23
676.119	0.77
676.15	0.77
676.181	8.77
676.212	-4.23
676.243	10.77
676.274	5.77
676.304	22.77
676.335	-2.23
676.366	-6.23
676.397	-10.23
676.428	12.77
676.459	13.77
676.489	0.77
676.52	19.77
676.551	5.77
676.582	-3.23
676.613	3.77
676.643	-1.23
676.674	6.77
676.705	4.77
676.736	23.77
676.767	22.77
676.797	20.77
676.828	16.77
676.859	8.77
676.89	4.77
676.92	2.77
676.951	11.77
676.982	19.77
677.013	8.77
677.044	16.77
677.074	2.77
677.105	-7.23
677.136	19.77
677.167	11.77
677.197	24.77
677.228	-3.23
677.259	0.77
677.289	7.77
677.32	-19.23
677.351	-0.23
677.382	3.77
677.412	5.77
677.443	3.77
677.474	11.77
677.505	2.77
677.535	0.77
677.566	3.77
677.597	-2.23
677.627	-3.23
677.658	12.77
677.689	27.77
677.72	7.77
677.75	8.77
677.781	-7.23
677.812	-4.23
677.842	5.77
677.873	14.77
677.904	6.77
677.934	2.77
677.965	-2.23
677.996	1.77
678.026	14.77
678.057	15.77
678.088	-0.23
678.118	-0.23
678.149	-16.23
678.18	8.77
678.21	3.77
678.241	16.77
678.272	-5.23
678.302	1.77
678.333	7.77
678.363	14.77
678.394	-1.23
678.425	14.77
678.455	9.77
678.486	24.77
678.517	1.77
678.547	-1.23
678.578	-1.23
678.608	-0.23
678.639	14.77
678.67	4.77
678.7	6.77
678.731	3.77
678.761	-0.23
678.792	4.77
678.823	7.77
678.853	-3.23
678.884	-7.23
678.914	13.77
678.945	0.77
678.975	1.77
679.006	10.77
679.037	-6.23
679.067	31.77
679.098	14.77
679.128	-16.23
679.159	0.77
679.189	3.77
679.22	-3.23
679.25	14.77
679.281	11.77
679.312	3.77
679.342	13.77
679.373	37.77
679.403	10.77
679.434	-0.23
679.464	2.77
679.495	10.77
679.525	10.77
679.556	-3.23
679.586	16.77
679.617	-0.23
679.647	13.77
679.678	11.77
679.708	9.77
679.739	17.77
679.769	11.77
679.8	0.77
679.83	1.77
679.861	18.77
679.891	12.77
679.922	-24.23
679.952	-10.23
679.983	13.77
680.013	-2.23
680.044	-3.23
680.074	7.77
680.105	13.77
680.135	9.77
680.165	8.77
680.196	11.77
680.226	3.77
680.257	12.77
680.287	6.77
680.318	15.77
680.348	-0.23
680.379	8.77
680.409	16.77
680.439	1.77
680.47	13.77
680.5	13.77
680.531	6.77
680.561	8.77
680.592	5.77
680.622	16.77
680.652	2.77
680.683	22.77
680.713	6.77
680.744	-4.23
680.774	9.77
680.804	36.77
680.835	0.77
680.865	-2.23
680.896	19.77
680.926	7.77
680.956	21.77
680.987	9.77
681.017	-8.23
681.047	17.77
681.078	-6.23
681.108	3.77
681.139	3.77
681.169	7.77
681.199	12.77
681.23	11.77
681.26	10.77
681.29	8.77
681.321	-1.23
681.351	-0.23
681.381	-10.23
681.412	13.77
681.442	-0.23
681.472	13.77
681.503	21.77
681.533	4.77
681.563	14.77
681.594	5.77
681.624	19.77
681.654	-0.23
681.685	8.77
681.715	10.77
681.745	-6.23
681.775	-4.23
681.806	-3.23
681.836	16.77
681.866	-0.23
681.897	2.77
681.927	0.77
681.957	-2.23
681.987	9.77
682.018	-4.23
682.048	5.77
682.078	14.77
682.109	23.77
682.139	11.77
682.169	3.77
682.199	2.77
682.23	-10.23
682.26	9.77
682.29	-9.23
682.32	-10.23
682.351	3.77
682.381	8.77
682.411	4.77
682.441	6.77
682.472	9.77
682.502	-7.23
682.532	-4.23
682.562	-2.23
682.592	10.77
682.623	9.77
682.653	16.77
682.683	0.77
682.713	3.77
682.743	1.77
682.774	-0.23
682.804	-0.23
682.834	13.77
682.864	7.77
682.894	9.77
682.925	9.77
682.955	8.77
682.985	5.77
683.015	4.77
683.045	8.77
683.076	-11.23
683.106	7.77
683.136	12.77
683.166	3.77
683.196	-0.23
683.226	5.77
683.257	6.77
683.287	-4.23
683.317	-4.23
683.347	13.77
683.377	-14.23
683.407	7.77
683.437	22.77
683.468	11.77
683.498	-1.23
683.528	-8.23
683.558	-1.23
683.588	-2.23
683.618	-6.23
683.648	-28.23
683.678	8.77
683.708	9.77
683.739	4.77
683.769	9.77
683.799	7.77
683.829	1.77
683.859	22.77
683.889	9.77
683.919	-4.23
683.949	-2.23
683.979	-4.23
684.009	5.77
684.039	-4.23
684.07	2.77
684.1	27.77
684.13	18.77
684.16	0.77
684.19	2.77
684.22	-18.23
684.25	0.77
684.28	-13.23
684.31	18.77
684.34	6.77
684.37	0.77
684.4	1.77
684.43	19.77
684.46	3.77
684.49	16.77
684.52	31.77
684.55	12.77
684.58	7.77
684.61	9.77
684.64	5.77
684.67	21.77
684.7	7.77
684.73	3.77
684.76	-6.23
684.79	26.77
684.82	0.77
684.85	0.77
684.88	5.77
684.91	17.77
684.94	-1.23
684.97	-7.23
685	-8.23
685.03	-2.23
685.06	0.77
685.09	16.77
685.12	12.77
685.15	-8.23
685.18	-5.23
685.21	-3.23
685.24	19.77
685.27	7.77
685.3	6.77
685.33	20.77
685.36	-5.23
685.39	9.77
685.42	-7.23
685.45	10.77
685.48	12.77
685.51	12.77
685.54	17.77
685.569	12.77
685.599	2.77
685.629	5.77
685.659	13.77
685.689	-1.23
685.719	5.77
685.749	-3.23
685.779	9.77
685.809	5.77
685.839	11.77
685.869	10.77
685.898	17.77
685.928	14.77
685.958	9.77
685.988	1.77
686.018	10.77
686.048	11.77
686.078	3.77
686.108	19.77
686.137	17.77
686.167	20.77
686.197	-6.23
686.227	5.77
686.257	31.77
686.287	19.77
686.317	13.77
686.346	-5.23
686.376	-7.23
686.406	-2.23
686.436	9.77
686.466	-0.23
686.496	31.77
686.525	16.77
686.555	2.77
686.585	9.77
686.615	24.77
686.645	30.77
686.675	12.77
686.704	5.77
686.734	5.77
686.764	2.77
686.794	15.77
686.824	-2.23
686.853	24.77
686.883	20.77
686.913	10.77
686.943	8.77
686.973	-17.23
687.002	19.77
687.032	-3.23
687.062	5.77
687.092	8.77
687.121	15.77
687.151	13.77
687.181	8.77
687.211	8.77
687.24	8.77
687.27	1.77
687.3	16.77
687.33	10.77
687.359	-5.23
687.389	-3.23
687.419	5.77
687.449	0.77
687.478	7.77
687.508	13.77
687.538	0.77
687.568	8.77
687.597	-7.23
687.627	-2.23
687.657	18.77
687.686	8.77
687.716	26.77
687.746	-5.23
687.776	5.77
687.805	19.77
687.835	5.77
687.865	11.77
687.894	2.77
687.924	9.77
687.954	-7.23
687.983	6.77
688.013	13.77
688.043	-3.23
688.072	-10.23
688.102	13.77
688.132	6.77
688.161	-2.23
688.191	6.77
688.221	18.77
688.25	1.77
688.28	8.77
688.31	7.77
688.339	7.77
688.369	7.77
688.399	-2.23
688.428	-0.23
688.458	10.77
688.488	-2.23
688.517	5.77
688.547	7.77
688.576	20.77
688.606	12.77
688.636	0.77
688.665	24.77
688.695	12.77
688.725	14.77
688.754	13.77
688.784	7.77
688.813	24.77
688.843	12.77
688.873	2.77
688.902	4.77
688.932	-7.23
688.961	-5.23
688.991	18.77
689.02	10.77
689.05	8.77
689.08	12.77
689.109	19.77
689.139	1.77
689.168	4.77
689.198	11.77
689.227	5.77
689.257	21.77
689.287	18.77
689.316	5.77
689.346	-8.23
689.375	-1.23
689.405	31.77
689.434	11.77
689.464	9.77
689.493	1.77
689.523	1.77
689.552	-11.23
689.582	10.77
689.611	7.77
689.641	9.77
689.67	7.77
689.7	17.77
689.73	23.77
689.759	13.77
689.789	15.77
689.818	-0.23
689.848	9.77
689.877	24.77
689.906	3.77
689.936	11.77
689.965	17.77
689.995	16.77
690.024	21.77
690.054	4.77
690.083	13.77
690.113	-2.23
690.142	15.77
690.172	5.77
690.201	6.77
690.231	19.77
690.26	8.77
690.29	10.77
690.319	-4.23
690.348	9.77
690.378	12.77
690.407	21.77
690.437	-3.23
690.466	10.77
690.496	6.77
690.525	14.77
690.555	-4.23
690.584	9.77
690.613	1.77
690.643	11.77
690.672	7.77
690.702	13.77
690.731	0.77
690.76	4.77
690.79	-0.23
690.819	7.77
690.849	11.77
690.878	13.77
690.907	17.77
690.937	17.77
690.966	10.77
690.996	14.77
691.025	7.77
691.054	-2.23
691.084	3.77
691.113	10.77
691.142	14.77
691.172	22.77
691.201	20.77
691.23	2.77
691.26	21.77
691.289	9.77
691.319	7.77
691.348	14.77
691.377	9.77
691.407	13.77
691.436	-2.23
691.465	9.77
691.495	-0.23
691.524	-2.23
691.553	-7.23
691.583	-2.23
691.612	9.77
691.641	2.77
691.67	15.77
691.7	2.77
691.729	7.77
691.758	-6.23
691.788	-2.23
691.817	-11.23
691.846	0.77
691.876	-7.23
691.905	-12.23
691.934	-0.23
691.963	25.77
691.993	17.77
692.022	3.77
692.051	-3.23
692.081	29.77
692.11	26.77
692.139	5.77
692.168	4.77
692.198	13.77
692.227	24.77
692.256	5.77
692.285	0.77
692.315	-6.23
692.344	-1.23
692.373	13.77
692.402	8.77
692.432	7.77
692.461	9.77
692.49	20.77
692.519	-0.23
692.548	12.77
692.578	4.77
692.607	-4.23
692.636	8.77
692.665	9.77
692.694	-3.23
692.724	4.77
692.753	10.77
692.782	17.77
692.811	-7.23
692.84	11.77
692.87	19.77
692.899	8.77
692.928	14.77
692.957	20.77
692.986	11.77
693.016	7.77
693.045	9.77
693.074	18.77
693.103	-2.23
693.132	16.77
693.161	8.77
693.191	-0.23
693.22	3.77
693.249	12.77
693.278	-3.23
693.307	13.77
693.336	-13.23
693.365	-3.23
693.395	7.77
693.424	7.77
693.453	22.77
693.482	10.77
693.511	-1.23
693.54	30.77
693.569	19.77
693.598	3.77
693.628	17.77
693.657	-0.23
693.686	27.77
693.715	20.77
693.744	16.77
693.773	16.77
693.802	1.77
693.831	15.77
693.86	23.77
693.889	0.77
693.919	10.77
693.948	13.77
693.977	23.77
694.006	4.77
694.035	-0.23
694.064	-3.23
694.093	-7.23
694.122	-6.23
694.151	0.77
694.18	28.77
694.209	26.77
694.238	10.77
694.267	20.77
694.296	13.77
694.325	2.77
694.354	17.77
694.383	8.77
694.412	-1.23
694.441	-0.23
694.471	-5.23
694.5	-15.23
694.529	5.77
694.558	14.77
694.587	15.77
694.616	1.77
694.645	8.77
694.674	22.77
694.703	3.77
694.732	-6.23
694.761	0.77
694.79	4.77
694.819	-0.23
694.848	8.77
694.877	21.77
694.906	39.77
694.935	5.77
694.963	19.77
694.992	6.77
695.021	25.77
695.05	34.77
695.079	16.77
695.108	1.77
695.137	20.77
695.166	-2.23
695.195	-2.23
695.224	12.77
695.253	13.77
695.282	10.77
695.311	23.77
695.34	8.77
695.369	1.77
695.398	10.77
695.427	18.77
695.456	3.77
695.485	11.77
695.513	8.77
695.542	10.77
695.571	-2.23
695.6	29.77
695.629	11.77
695.658	7.77
695.687	12.77
695.716	7.77
695.745	23.77
695.774	8.77
695.802	-17.23
695.831	4.77
695.86	10.77
695.889	21.77
695.918	5.77
695.947	1.77
695.976	-1.23
696.005	1.77
696.033	6.77
696.062	12.77
696.091	11.77
696.12	12.77
696.149	24.77
696.178	11.77
696.207	5.77
696.235	-12.23
696.264	2.77
696.293	14.77
696.322	9.77
696.351	15.77
696.38	12.77
696.408	9.77
696.437	2.77
696.466	12.77
696.495	15.77
696.524	18.77
696.553	0.77
696.581	15.77
696.61	-2.23
696.639	8.77
696.668	20.77
696.697	9.77
696.725	3.77
696.754	5.77
696.783	10.77
696.812	7.77
696.84	12.77
696.869	10.77
696.898	-6.23
696.927	1.77
696.956	22.77
696.984	17.77
697.013	9.77
697.042	17.77
697.071	32.77
697.099	13.77
697.128	7.77
697.157	18.77
697.186	6.77
697.214	16.77
697.243	3.77
697.272	2.77
697.301	19.77
697.329	17.77
697.358	5.77
697.387	25.77
697.415	10.77
697.444	2.77
697.473	10.77
697.502	-8.23
697.53	19.77
697.559	-5.23
697.588	-8.23
697.616	-6.23
697.645	9.77
697.674	27.77
697.703	14.77
697.731	12.77
697.76	4.77
697.789	8.77
697.817	13.77
697.846	34.77
697.875	12.77
697.903	9.77
697.932	19.77
697.961	9.77
697.989	9.77
698.018	14.77
698.047	17.77
698.075	12.77
698.104	17.77
698.133	10.77
698.161	0.77
698.19	9.77
698.218	12.77
698.247	13.77
698.276	4.77
698.304	14.77
698.333	4.77
698.362	8.77
698.39	-0.23
698.419	14.77
698.447	-0.23
698.476	12.77
698.505	11.77
698.533	-1.23
698.562	12.77
698.591	-4.23
698.619	-5.23
698.648	10.77
698.676	13.77
698.705	8.77
698.733	0.77
698.762	2.77
698.791	7.77
698.819	7.77
698.848	-4.23
698.876	29.77
698.905	11.77
698.933	11.77
698.962	-2.23
698.991	7.77
699.019	11.77
699.048	7.77
699.076	15.77
699.105	-7.23
699.133	5.77
699.162	4.77
699.19	25.77
699.219	22.77
699.248	-6.23
699.276	13.77
699.305	16.77
699.333	17.77
699.362	14.77
699.39	26.77
699.419	5.77
699.447	12.77
699.476	13.77
699.504	-1.23
699.533	10.77
699.561	6.77
699.59	3.77
699.618	4.77
699.647	-0.23
699.675	8.77
699.704	3.77
699.732	-5.23
699.761	5.77
699.789	5.77
699.818	14.77
699.846	-6.23
699.874	7.77
699.903	0.77
699.931	14.77
699.96	24.77
699.988	9.77
700.017	18.77
700.045	4.77
700.074	8.77
700.102	8.77
700.13	-15.23
700.159	9.77
700.187	10.77
700.216	4.77
700.244	-18.23
700.273	-5.23
700.301	9.77
700.329	7.77
700.358	4.77
700.386	-3.23
700.415	10.77
700.443	11.77
700.472	11.77
700.5	16.77
700.528	21.77
700.557	2.77
700.585	6.77
700.614	13.77
700.642	28.77
700.67	29.77
700.699	13.77
700.727	8.77
700.755	8.77
700.784	9.77
700.812	1.77
700.841	11.77
700.869	-5.23
700.897	-23.23
700.926	11.77
700.954	1.77
700.982	12.77
701.011	9.77
701.039	24.77
701.067	0.77
701.096	16.77
701.124	-0.23
701.152	13.77
701.181	-13.23
701.209	-4.23
701.237	-3.23
701.266	-10.23
701.294	-3.23
701.322	6.77
701.351	-1.23
701.379	7.77
701.407	-5.23
701.435	15.77
701.464	28.77
701.492	19.77
701.52	10.77
701.549	16.77
701.577	-1.23
701.605	-0.23
701.634	3.77
701.662	17.77
701.69	-16.23
701.718	-12.23
701.747	10.77
701.775	18.77
701.803	16.77
701.831	3.77
701.86	-14.23
701.888	0.77
701.916	2.77
701.944	4.77
701.973	-9.23
702.001	-3.23
702.029	10.77
702.057	6.77
702.086	-1.23
702.114	8.77
702.142	0.77
702.17	-13.23
702.199	3.77
702.227	-0.23
702.255	8.77
702.283	-7.23
702.311	-3.23
702.34	13.77
702.368	4.77
702.396	6.77
702.424	3.77
702.452	12.77
702.481	12.77
702.509	2.77
702.537	17.77
702.565	24.77
702.593	-8.23
702.621	0.77
702.65	4.77
702.678	13.77
702.706	13.77
702.734	0.77
702.762	8.77
702.79	9.77
702.819	13.77
702.847	7.77
702.875	13.77
702.903	12.77
702.931	0.77
702.959	7.77
702.988	6.77
703.016	-11.23
703.044	2.77
703.072	4.77
703.1	9.77
703.128	-6.23
703.156	10.77
703.184	8.77
703.212	9.77
703.241	15.77
703.269	2.77
703.297	4.77
703.325	5.77
703.353	0.77
703.381	-15.23
703.409	3.77
703.437	-4.23
703.465	12.77
703.493	5.77
703.522	-1.23
703.55	9.77
703.578	8.77
703.606	-4.23
703.634	0.77
703.662	-1.23
703.69	-3.23
703.718	-5.23
703.746	18.77
703.774	9.77
703.802	9.77
703.83	16.77
703.858	5.77
703.886	-12.23
703.914	4.77
703.942	18.77
703.97	8.77
703.998	-1.23
704.027	26.77
704.055	13.77
704.083	3.77
704.111	1.77
704.139	6.77
704.167	3.77
704.195	8.77
704.223	2.77
704.251	7.77
704.279	7.77
704.307	9.77
704.335	1.77
704.363	3.77
704.391	-1.23
704.419	-5.23
704.447	1.77
704.475	0.77
704.503	7.77
704.531	15.77
704.558	6.77
704.586	-4.23
704.614	-3.23
704.642	2.77
704.67	3.77
704.698	13.77
704.726	3.77
704.754	7.77
704.782	-4.23
704.81	1.77
704.838	14.77
704.866	8.77
704.894	-3.23
704.922	-5.23
704.95	26.77
704.978	15.77
705.006	11.77
705.034	18.77
705.061	-7.23
705.089	-10.23
705.117	-4.23
705.145	-1.23
705.173	2.77
705.201	-1.23
705.229	10.77
705.257	15.77
705.285	27.77
705.313	1.77
705.34	4.77
705.368	3.77
705.396	5.77
705.424	0.77
705.452	8.77
705.48	9.77
705.508	-4.23
705.536	-0.23
705.563	8.77
705.591	5.77
705.619	12.77
705.647	7.77
705.675	4.77
705.703	9.77
705.731	-6.23
705.758	7.77
705.786	0.77
705.814	20.77
705.842	-0.23
705.87	21.77
705.898	27.77
705.925	8.77
705.953	12.77
705.981	-3.23
706.009	8.77
706.037	7.77
706.065	-1.23
706.092	-16.23
706.12	-3.23
706.148	-11.23
706.176	-13.23
706.204	7.77
706.231	4.77
706.259	-3.23
706.287	7.77
706.315	4.77
706.342	-9.23
706.37	9.77
706.398	4.77
706.426	5.77
706.454	0.77
706.481	3.77
706.509	4.77
706.537	1.77
706.565	3.77
706.592	10.77
706.62	14.77
706.648	15.77
706.676	-11.23
706.703	1.77
706.731	-4.23
706.759	-5.23
706.787	16.77
706.814	19.77
706.842	15.77
706.87	12.77
706.897	9.77
706.925	3.77
706.953	-0.23
706.981	12.77
707.008	15.77
707.036	9.77
707.064	-7.23
707.091	-5.23
707.119	6.77
707.147	2.77
707.174	5.77
707.202	16.77
707.23	-7.23
707.258	3.77
707.285	-6.23
707.313	-0.23
707.341	-10.23
707.368	2.77
707.396	-7.23
707.424	21.77
707.451	2.77
707.479	10.77
707.507	1.77
707.534	-7.23
707.562	14.77
707.59	6.77
707.617	8.77
707.645	7.77
707.672	7.77
707.7	14.77
707.728	11.77
707.755	2.77
707.783	22.77
707.811	4.77
707.838	-8.23
707.866	-0.23
707.893	6.77
707.921	4.77
707.949	12.77
707.976	-3.23
708.004	1.77
708.031	-14.23
708.059	-6.23
708.087	-1.23
708.114	-2.23
708.142	-2.23
708.169	15.77
708.197	0.77
708.225	-3.23
708.252	-8.23
708.28	21.77
708.307	3.77
708.335	0.77
708.362	10.77
708.39	-14.23
708.418	-7.23
708.445	-10.23
708.473	-6.23
708.5	-7.23
708.528	7.77
708.555	4.77
708.583	-8.23
708.61	-3.23
708.638	11.77
708.665	5.77
708.693	12.77
708.72	-0.23
708.748	-12.23
708.776	3.77
708.803	17.77
708.831	14.77
708.858	13.77
708.886	9.77
708.913	3.77
708.941	15.77
708.968	26.77
708.996	5.77
709.023	33.77
709.051	-1.23
709.078	4.77
709.105	9.77
709.133	6.77
709.16	17.77
709.188	14.77
709.215	15.77
709.243	14.77
709.27	-3.23
709.298	-3.23
709.325	-10.23
709.353	0.77
709.38	2.77
709.408	6.77
709.435	-2.23
709.462	-3.23
709.49	16.77
709.517	7.77
709.545	-4.23
709.572	-5.23
709.6	13.77
709.627	8.77
709.655	0.77
709.682	-12.23
709.709	12.77
709.737	10.77
709.764	-0.23
709.792	28.77
709.819	0.77
709.846	8.77
709.874	14.77
709.901	31.77
709.929	35.77
709.956	6.77
709.983	4.77
710.011	4.77
710.038	-5.23
710.066	16.77
710.093	24.77
710.12	7.77
710.148	4.77
710.175	-3.23
710.202	7.77
710.23	9.77
710.257	1.77
710.284	12.77
710.312	1.77
710.339	-8.23
710.366	-15.23
710.394	-6.23
710.421	7.77
710.448	4.77
710.476	-8.23
710.503	7.77
710.53	17.77
710.558	23.77
710.585	16.77
710.612	9.77
710.64	-18.23
710.667	7.77
710.694	6.77
710.722	13.77
710.749	2.77
710.776	1.77
710.804	35.77
710.831	18.77
710.858	4.77
710.885	20.77
710.913	4.77
710.94	29.77
710.967	9.77
710.995	11.77
711.022	9.77
711.049	17.77
711.076	2.77
711.104	4.77
711.131	-11.23
711.158	7.77
711.185	13.77
711.213	7.77
711.24	-4.23
711.267	1.77
711.294	-5.23
711.322	5.77
711.349	-1.23
711.376	4.77
711.403	-4.23
711.431	6.77
711.458	2.77
711.485	3.77
711.512	4.77
711.54	-4.23
711.567	19.77
711.594	-12.23
711.621	7.77
711.648	11.77
711.676	10.77
711.703	9.77
711.73	7.77
711.757	8.77
711.784	11.77
711.812	7.77
711.839	4.77
711.866	7.77
711.893	-13.23
711.92	1.77
711.947	12.77
711.975	0.77
712.002	-10.23
712.029	17.77
712.056	14.77
712.083	12.77
712.11	2.77
712.138	9.77
712.165	15.77
712.192	-1.23
712.219	-5.23
712.246	3.77
712.273	2.77
712.3	5.77
712.328	-2.23
712.355	9.77
712.382	-2.23
712.409	12.77
712.436	2.77
712.463	11.77
712.49	14.77
712.517	14.77
712.544	2.77
712.572	2.77
712.599	-2.23
712.626	4.77
712.653	-6.23
712.68	-11.23
712.707	6.77
712.734	24.77
712.761	-3.23
712.788	4.77
712.815	15.77
712.842	0.77
712.87	-0.23
712.897	-12.23
712.924	-2.23
712.951	-1.23
712.978	13.77
713.005	11.77
713.032	18.77
713.059	-7.23
713.086	-3.23
713.113	-9.23
713.14	2.77
713.167	26.77
713.194	16.77
713.221	15.77
713.248	8.77
713.275	9.77
713.302	1.77
713.329	13.77
713.356	8.77
713.383	3.77
713.41	13.77
713.437	-14.23
713.464	-1.23
713.491	10.77
713.518	5.77
713.545	1.77
713.572	4.77
713.599	29.77
713.626	3.77
713.653	5.77
713.68	1.77
713.707	6.77
713.734	7.77
713.761	11.77
713.788	20.77
713.815	16.77
713.842	3.77
713.869	0.77
713.896	12.77
713.923	8.77
713.95	4.77
713.977	-14.23
714.004	-13.23
714.031	5.77
714.058	15.77
714.085	4.77
714.112	25.77
714.139	9.77
714.165	3.77
714.192	-8.23
714.219	9.77
714.246	11.77
714.273	8.77
714.3	5.77
714.327	4.77
714.354	5.77
714.381	2.77
714.408	0.77
714.435	-0.23
714.461	9.77
714.488	15.77
714.515	4.77
714.542	-6.23
714.569	-5.23
714.596	2.77
714.623	-2.23
714.65	0.77
714.677	-5.23
714.703	12.77
714.73	10.77
714.757	8.77
714.784	4.77
714.811	3.77
714.838	2.77
714.865	-3.23
714.891	3.77
714.918	11.77
714.945	-12.23
714.972	-1.23
714.999	8.77
715.026	4.77
715.052	12.77
715.079	-12.23
715.106	-6.23
715.133	3.77
715.16	-6.23
715.187	11.77
715.213	2.77
715.24	-6.23
715.267	0.77
715.294	1.77
715.321	-14.23
715.347	24.77
715.374	-4.23
715.401	-8.23
715.428	7.77
715.455	-5.23
715.481	-15.23
715.508	29.77
715.535	11.77
715.562	20.77
715.588	9.77
715.615	6.77
715.642	-4.23
715.669	20.77
715.695	-0.23
715.722	-0.23
715.749	14.77
715.776	13.77
715.802	0.77
715.829	3.77
715.856	1.77
715.883	21.77
715.909	11.77
715.936	6.77
715.963	-10.23
715.99	-4.23
716.016	14.77
716.043	7.77
716.07	-5.23
716.096	3.77
716.123	-0.23
716.15	1.77
716.177	25.77
716.203	0.77
716.23	21.77
716.257	-6.23
716.283	14.77
716.31	13.77
716.337	12.77
716.363	22.77
716.39	19.77
716.417	21.77
716.443	15.77
716.47	12.77
716.497	13.77
716.523	13.77
716.55	11.77
716.577	13.77
716.603	-1.23
716.63	12.77
716.657	13.77
716.683	2.77
716.71	-6.23
716.737	16.77
716.763	15.77
716.79	-3.23
716.817	16.77
716.843	0.77
716.87	-0.23
716.897	-13.23
716.923	17.77
716.95	3.77
716.976	-0.23
717.003	5.77
717.03	-0.23
717.056	11.77
717.083	-7.23
717.109	5.77
717.136	18.77
717.163	14.77
717.189	20.77
717.216	8.77
717.242	3.77
717.269	3.77
717.296	-1.23
717.322	9.77
717.349	18.77
717.375	8.77
717.402	-7.23
717.428	9.77
717.455	11.77
717.481	4.77
717.508	20.77
717.535	0.77
717.561	3.77
717.588	-1.23
717.614	1.77
717.641	-4.23
717.667	4.77
717.694	6.77
717.72	2.77
717.747	1.77
717.773	5.77
717.8	12.77
717.826	15.77
717.853	0.77
717.88	20.77
717.906	11.77
717.933	17.77
717.959	23.77
717.986	15.77
718.012	2.77
718.039	8.77
718.065	21.77
718.092	15.77
718.118	7.77
718.144	4.77
718.171	12.77
718.197	16.77
718.224	14.77
718.25	0.77
718.277	-3.23
718.303	6.77
718.33	2.77
718.356	-11.23
718.383	-11.23
718.409	-8.23
718.436	-7.23
718.462	2.77
718.489	4.77
718.515	20.77
718.541	19.77
718.568	0.77
718.594	12.77
718.621	9.77
718.647	-0.23
718.674	10.77
718.7	16.77
718.726	-0.23
718.753	7.77
718.779	12.77
718.806	-2.23
718.832	-3.23
718.858	-0.23
718.885	1.77
718.911	-3.23
718.938	17.77
718.964	1.77
718.99	4.77
719.017	2.77
719.043	20.77
719.07	11.77
719.096	-15.23
719.122	12.77
719.149	14.77
719.175	9.77
719.201	19.77
719.228	6.77
719.254	5.77
719.281	-7.23
719.307	5.77
719.333	11.77
719.36	13.77
719.386	3.77
719.412	9.77
719.439	-7.23
719.465	-1.23
719.491	1.77
719.518	26.77
719.544	7.77
719.57	8.77
719.597	12.77
719.623	12.77
719.649	18.77
719.675	4.77
719.702	21.77
719.728	26.77
719.754	3.77
719.781	10.77
719.807	3.77
719.833	-2.23
719.86	5.77
719.886	9.77
719.912	5.77
719.938	1.77
719.965	12.77
719.991	27.77
720.017	9.77
720.044	-1.23
720.07	15.77
720.096	11.77
720.122	5.77
720.149	19.77
720.175	23.77
720.201	16.77
720.227	6.77
720.254	8.77
720.28	7.77
720.306	15.77
720.332	-1.23
720.359	3.77
720.385	3.77
720.411	5.77
720.437	11.77
720.463	1.77
720.49	15.77
720.516	4.77
720.542	8.77
720.568	3.77
720.595	11.77
720.621	10.77
720.647	11.77
720.673	6.77
720.699	8.77
720.725	8.77
720.752	17.77
720.778	14.77
720.804	17.77
720.83	24.77
720.856	4.77
720.883	-2.23
720.909	12.77
720.935	4.77
720.961	17.77
720.987	15.77
721.013	8.77
721.04	-5.23
721.066	0.77
721.092	14.77
721.118	14.77
721.144	12.77
721.17	-1.23
721.196	-10.23
721.223	1.77
721.249	-1.23
721.275	25.77
721.301	14.77
721.327	1.77
721.353	16.77
721.379	3.77
721.405	12.77
721.432	15.77
721.458	-0.23
721.484	15.77
721.51	3.77
721.536	12.77
721.562	4.77
721.588	9.77
721.614	5.77
721.64	-17.23
721.666	9.77
721.693	-2.23
721.719	-3.23
721.745	-19.23
721.771	-11.23
721.797	7.77
721.823	6.77
721.849	10.77
721.875	28.77
721.901	15.77
721.927	11.77
721.953	1.77
721.979	21.77
722.005	9.77
722.031	4.77
722.057	5.77
722.083	8.77
722.109	16.77
722.135	21.77
722.161	23.77
722.187	2.77
722.214	-3.23
722.24	8.77
722.266	-2.23
722.292	-4.23
722.318	-2.23
722.344	8.77
722.37	20.77
722.396	20.77
722.422	15.77
722.448	-5.23
722.474	1.77
722.5	16.77
722.526	3.77
722.552	0.77
722.578	8.77
722.603	8.77
722.629	-3.23
722.655	6.77
722.681	2.77
722.707	-4.23
722.733	-0.23
722.759	-4.23
722.785	1.77
722.811	1.77
722.837	-1.23
722.863	19.77
722.889	8.77
722.915	9.77
722.941	-0.23
722.967	-2.23
722.993	3.77
723.019	7.77
723.045	4.77
723.071	7.77
723.097	5.77
723.122	13.77
723.148	22.77
723.174	-3.23
723.2	-3.23
723.226	6.77
723.252	7.77
723.278	2.77
723.304	-4.23
723.33	-2.23
723.356	-6.23
723.381	-7.23
723.407	-4.23
723.433	9.77
723.459	-2.23
723.485	0.77
723.511	11.77
723.537	-0.23
723.563	5.77
723.588	-1.23
723.614	12.77
723.64	11.77
723.666	11.77
723.692	28.77
723.718	8.77
723.744	1.77
723.769	4.77
723.795	-24.23
723.821	-1.23
723.847	21.77
723.873	17.77
723.899	21.77
723.924	4.77
723.95	12.77
723.976	-4.23
724.002	9.77
724.028	5.77
724.053	-2.23
724.079	9.77
724.105	10.77
724.131	8.77
724.157	15.77
724.182	12.77
724.208	5.77
724.234	-4.23
724.26	2.77
724.286	16.77
724.311	7.77
724.337	14.77
724.363	4.77
724.389	2.77
724.415	0.77
724.44	23.77
724.466	4.77
724.492	-0.23
724.518	3.77
724.543	3.77
724.569	7.77
724.595	-0.23
724.621	1.77
724.646	13.77
724.672	9.77
724.698	-1.23
724.723	10.77
724.749	10.77
724.775	16.77
724.801	5.77
724.826	-5.23
724.852	-12.23
724.878	-11.23
724.904	-12.23
724.929	4.77
724.955	-9.23
724.981	8.77
725.006	-4.23
725.032	-6.23
725.058	14.77
725.083	-0.23
725.109	16.77
725.135	-0.23
725.161	-0.23
725.186	10.77
725.212	0.77
725.238	8.77
725.263	19.77
725.289	-1.23
725.315	-3.23
725.34	16.77
725.366	3.77
725.392	10.77
725.417	12.77
725.443	-11.23
725.468	7.77
725.494	11.77
725.52	4.77
725.545	10.77
725.571	9.77
725.597	6.77
725.622	3.77
725.648	11.77
725.674	17.77
725.699	10.77
725.725	7.77
725.75	11.77
725.776	-2.23
725.802	-0.23
725.827	11.77
725.853	0.77
725.878	8.77
725.904	5.77
725.93	12.77
725.955	-1.23
725.981	2.77
726.006	5.77
726.032	15.77
726.057	4.77
726.083	-5.23
726.109	15.77
726.134	7.77
726.16	-6.23
726.185	-9.23
726.211	-14.23
726.236	11.77
726.262	6.77
726.288	16.77
726.313	14.77
726.339	19.77
726.364	13.77
726.39	22.77
726.415	-0.23
726.441	0.77
726.466	-5.23
726.492	4.77
726.517	5.77
726.543	18.77
726.568	5.77
726.594	11.77
726.619	13.77
726.645	9.77
726.67	3.77
726.696	15.77
726.721	5.77
726.747	-17.23
726.772	-3.23
726.798	-2.23
726.823	15.77
726.849	-6.23
726.874	17.77
726.9	34.77
726.925	14.77
726.951	13.77
726.976	16.77
727.002	10.77
727.027	15.77
727.053	24.77
727.078	5.77
727.104	-0.23
727.129	7.77
727.155	-8.23
727.18	-8.23
727.205	-2.23
727.231	8.77
727.256	5.77
727.282	16.77
727.307	20.77
727.333	7.77
727.358	-2.23
727.383	-2.23
727.409	-11.23
727.434	13.77
727.46	8.77
727.485	0.77
727.511	5.77
727.536	-12.23
727.561	-11.23
727.587	13.77
727.612	9.77
727.637	-4.23
727.663	-2.23
727.688	39.77
727.714	5.77
727.739	8.77
727.764	8.77
727.79	15.77
727.815	10.77
727.841	18.77
727.866	18.77
727.891	16.77
727.917	-3.23
727.942	-9.23
727.967	3.77
727.993	-5.23
728.018	-0.23
728.043	9.77
728.069	17.77
728.094	5.77
728.119	8.77
728.145	16.77
728.17	12.77
728.195	14.77
728.221	9.77
728.246	2.77
728.271	-22.23
728.297	11.77
728.322	8.77
728.347	14.77
728.373	13.77
728.398	-3.23
728.423	-7.23
728.448	4.77
728.474	10.77
728.499	3.77
728.524	-10.23
728.55	0.77
728.575	1.77
728.6	2.77
728.625	-12.23
728.651	8.77
728.676	9.77
728.701	-7.23
728.727	-12.23
728.752	4.77
728.777	16.77
728.802	-0.23
728.828	15.77
728.853	7.77
728.878	1.77
728.903	4.77
728.929	7.77
728.954	-8.23
728.979	3.77
729.004	7.77
729.03	-4.23
729.055	12.77
729.08	-5.23
729.105	-2.23
729.13	20.77
729.156	2.77
729.181	19.77
729.206	-12.23
729.231	2.77
729.256	18.77
729.282	5.77
729.307	0.77
729.332	-13.23
729.357	5.77
729.382	4.77
729.408	9.77
729.433	0.77
729.458	4.77
729.483	12.77
729.508	17.77
729.533	11.77
729.559	2.77
729.584	-11.23
729.609	10.77
729.634	8.77
729.659	9.77
729.684	8.77
729.71	17.77
729.735	13.77
729.76	3.77
729.785	4.77
729.81	5.77
729.835	1.77
729.86	3.77
729.886	18.77
729.911	9.77
729.936	0.77
729.961	4.77
729.986	-11.23
730.011	0.77
730.036	12.77
730.061	10.77
730.086	16.77
730.112	17.77
730.137	35.77
730.162	11.77
730.187	1.77
730.212	15.77
730.237	5.77
730.262	-5.23
730.287	-0.23
730.312	25.77
730.337	0.77
730.362	14.77
730.387	3.77
730.413	-15.23
730.438	-5.23
730.463	12.77
730.488	-5.23
730.513	-5.23
730.538	19.77
730.563	31.77
730.588	20.77
730.613	12.77
730.638	-2.23
730.663	1.77
730.688	40.77
730.713	23.77
730.738	-2.23
730.763	13.77
730.788	1.77
730.813	2.77
730.838	12.77
730.863	22.77
730.888	8.77
730.913	1.77
730.938	-2.23
730.963	-4.23
730.988	7.77
731.013	17.77
731.038	12.77
731.063	12.77
731.088	19.77
731.113	3.77
731.138	3.77
731.163	-0.23
731.188	2.77
731.213	11.77
731.238	13.77
731.263	-2.23
731.288	19.77
731.313	3.77
731.338	1.77
731.363	15.77
731.388	16.77
731.413	-3.23
731.438	11.77
731.463	21.77
731.487	7.77
731.512	4.77
731.537	7.77
731.562	6.77
731.587	9.77
731.612	-13.23
731.637	7.77
731.662	6.77
731.687	1.77
731.712	-12.23
731.737	12.77
731.762	9.77
731.786	13.77
731.811	12.77
731.836	18.77
731.861	-2.23
731.886	4.77
731.911	6.77
731.936	-0.23
731.961	1.77
731.986	-3.23
732.01	11.77
732.035	-2.23
732.06	15.77
732.085	-1.23
732.11	9.77
732.135	-4.23
732.16	4.77
732.184	3.77
732.209	7.77
732.234	11.77
732.259	-6.23
732.284	11.77
732.309	10.77
732.334	-0.23
732.358	-16.23
732.383	-8.23
732.408	-3.23
732.433	3.77
732.458	-8.23
732.482	16.77
732.507	3.77
732.532	3.77
732.557	13.77
732.582	6.77
732.607	4.77
732.631	0.77
732.656	2.77
732.681	-2.23
732.706	18.77
732.73	-0.23
732.755	18.77
732.78	8.77
732.805	4.77
732.83	1.77
732.854	19.77
732.879	20.77
732.904	-4.23
732.929	9.77
732.953	0.77
732.978	9.77
733.003	4.77
733.028	-1.23
733.052	18.77
733.077	3.77
733.102	15.77
733.127	6.77
733.151	2.77
733.176	13.77
733.201	-4.23
733.226	-2.23
733.25	-0.23
733.275	7.77
733.3	14.77
733.324	13.77
733.349	17.77
733.374	16.77
733.399	12.77
733.423	5.77
733.448	-11.23
733.473	-3.23
733.497	-8.23
733.522	6.77
733.547	14.77
733.571	13.77
733.596	24.77
733.621	12.77
733.646	9.77
733.67	8.77
733.695	11.77
733.72	18.77
733.744	-0.23
733.769	10.77
733.794	18.77
733.818	6.77
733.843	-7.23
733.867	-3.23
733.892	-3.23
733.917	-4.23
733.941	0.77
733.966	-7.23
733.991	8.77
734.015	22.77
734.04	18.77
734.065	3.77
734.089	4.77
734.114	0.77
734.138	-1.23
734.163	4.77
734.188	25.77
734.212	25.77
734.237	23.77
734.261	-1.23
734.286	0.77
734.311	5.77
734.335	19.77
734.36	-6.23
734.384	5.77
734.409	16.77
734.434	4.77
734.458	12.77
734.483	19.77
734.507	4.77
734.532	2.77
734.556	14.77
734.581	-4.23
734.606	-0.23
734.63	8.77
734.655	6.77
734.679	11.77
734.704	0.77
734.728	0.77
734.753	5.77
734.777	9.77
734.802	12.77
734.826	18.77
734.851	-4.23
734.876	19.77
734.9	14.77
734.925	0.77
734.949	-0.23
734.974	7.77
734.998	8.77
735.023	-7.23
735.047	-0.23
735.072	25.77
735.096	3.77
735.121	3.77
735.145	10.77
735.17	16.77
735.194	23.77
735.219	8.77
735.243	20.77
735.268	25.77
735.292	1.77
735.317	2.77
735.341	4.77
735.365	-14.23
735.39	17.77
735.414	7.77
735.439	13.77
735.463	10.77
735.488	6.77
735.512	0.77
735.537	8.77
735.561	0.77
735.586	19.77
735.61	19.77
735.634	10.77
735.659	5.77
735.683	22.77
735.708	13.77
735.732	5.77
735.757	5.77
735.781	15.77
735.805	19.77
735.83	8.77
735.854	3.77
735.879	12.77
735.903	13.77
735.927	8.77
735.952	17.77
735.976	2.77
736.001	10.77
736.025	4.77
736.049	12.77
736.074	3.77
736.098	-0.23
736.123	1.77
736.147	-0.23
736.171	7.77
736.196	12.77
736.22	-3.23
736.244	-3.23
736.269	-2.23
736.293	-0.23
736.317	7.77
736.342	-1.23
736.366	26.77
736.39	12.77
736.415	12.77
736.439	11.77
736.463	23.77
736.488	15.77
736.512	13.77
736.536	13.77
736.561	27.77
736.585	13.77
736.609	14.77
736.634	-0.23
736.658	7.77
736.682	-0.23
736.707	-11.23
736.731	9.77
736.755	4.77
736.78	19.77
736.804	25.77
736.828	20.77
736.852	2.77
736.877	0.77
736.901	15.77
736.925	13.77
736.949	19.77
736.974	18.77
736.998	-0.23
737.022	4.77
737.047	10.77
737.071	7.77
737.095	12.77
737.119	21.77
737.144	22.77
737.168	10.77
737.192	5.77
737.216	-3.23
737.241	0.77
737.265	13.77
737.289	-0.23
737.313	0.77
737.337	5.77
737.362	19.77
737.386	0.77
737.41	1.77
737.434	8.77
737.459	4.77
737.483	15.77
737.507	7.77
737.531	21.77
737.555	0.77
737.58	9.77
737.604	-2.23
737.628	-0.23
737.652	4.77
737.676	-1.23
737.701	10.77
737.725	10.77
737.749	24.77
737.773	6.77
737.797	-2.23
737.821	17.77
737.846	14.77
737.87	32.77
737.894	16.77
737.918	10.77
737.942	10.77
737.966	18.77
737.99	8.77
738.015	-2.23
738.039	-3.23
738.063	12.77
738.087	10.77
738.111	1.77
738.135	16.77
738.159	7.77
738.184	3.77
738.208	1.77
738.232	-0.23
738.256	16.77
738.28	9.77
738.304	16.77
738.328	1.77
738.352	1.77
738.376	1.77
738.4	5.77
738.425	24.77
738.449	4.77
738.473	11.77
738.497	0.77
738.521	8.77
738.545	12.77
738.569	9.77
738.593	21.77
738.617	15.77
738.641	5.77
738.665	7.77
738.689	12.77
738.713	10.77
738.737	4.77
738.762	21.77
738.786	3.77
738.81	-1.23
738.834	17.77
738.858	11.77
738.882	-1.23
738.906	7.77
738.93	8.77
738.954	13.77
738.978	11.77
739.002	-3.23
739.026	9.77
739.05	27.77
739.074	7.77
739.098	31.77
739.122	17.77
739.146	-2.23
739.17	17.77
739.194	15.77
739.218	9.77
739.242	1.77
739.266	12.77
739.29	18.77
739.314	24.77
739.338	12.77
739.362	9.77
739.386	15.77
739.41	-5.23
739.434	13.77
739.458	11.77
739.482	4.77
739.506	18.77
739.53	1.77
739.554	29.77
739.577	12.77
739.601	13.77
739.625	-0.23
739.649	-0.23
739.673	2.77
739.697	4.77
739.721	-3.23
739.745	6.77
739.769	16.77
739.793	11.77
739.817	6.77
739.841	0.77
739.865	-3.23
739.889	3.77
739.912	-3.23
739.936	-5.23
739.96	-0.23
739.984	22.77
740.008	11.77
740.032	9.77
740.056	11.77
740.08	4.77
740.104	-2.23
740.127	20.77
740.151	12.77
740.175	15.77
740.199	27.77
740.223	42.77
740.247	23.77
740.271	10.77
740.295	-5.23
740.318	-2.23
740.342	15.77
740.366	10.77
740.39	11.77
740.414	4.77
740.438	8.77
740.461	20.77
740.485	12.77
740.509	-0.23
740.533	17.77
740.557	1.77
740.581	-1.23
740.604	-3.23
740.628	1.77
740.652	16.77
740.676	8.77
740.7	9.77
740.723	7.77
740.747	-0.23
740.771	0.77
740.795	-17.23
740.819	13.77
740.842	7.77
740.866	14.77
740.89	13.77
740.914	12.77
740.938	-3.23
740.961	27.77
740.985	7.77
741.009	1.77
741.033	11.77
741.056	20.77
741.08	0.77
741.104	20.77
741.128	10.77
741.151	16.77
741.175	16.77
741.199	8.77
741.223	22.77
741.246	1.77
741.27	11.77
741.294	13.77
741.318	7.77
741.341	-7.23
741.365	5.77
741.389	4.77
741.413	8.77
741.436	8.77
741.46	13.77
741.484	7.77
741.507	4.77
741.531	28.77
741.555	15.77
741.579	8.77
741.602	3.77
741.626	9.77
741.65	8.77
741.673	10.77
741.697	25.77
741.721	0.77
741.744	-27.23
741.768	-2.23
741.792	0.77
741.815	7.77
741.839	15.77
741.863	16.77
741.886	12.77
741.91	17.77
741.934	9.77
741.957	-14.23
741.981	15.77
742.005	11.77
742.028	-19.23
742.052	-3.23
742.075	8.77
742.099	15.77
742.123	-3.23
742.146	14.77
742.17	2.77
742.194	-8.23
742.217	5.77
742.241	9.77
742.264	-3.23
742.288	16.77
742.312	26.77
742.335	11.77
742.359	4.77
742.382	8.77
742.406	3.77
742.43	-0.23
742.453	-0.23
742.477	-3.23
742.5	3.77
742.524	7.77
742.548	-1.23
742.571	4.77
742.595	-13.23
742.618	10.77
742.642	3.77
742.665	7.77
742.689	2.77
742.712	14.77
742.736	2.77
742.76	12.77
742.783	-0.23
742.807	-2.23
742.83	13.77
742.854	-2.23
742.877	16.77
742.901	15.77
742.924	0.77
742.948	10.77
742.971	5.77
742.995	5.77
743.018	1.77
743.042	-15.23
743.065	1.77
743.089	1.77
743.112	16.77
743.136	6.77
743.159	4.77
743.183	2.77
743.206	20.77
743.23	5.77
743.253	2.77
743.277	24.77
743.3	-14.23
743.324	2.77
743.347	-2.23
743.371	9.77
743.394	3.77
743.418	10.77
743.441	13.77
743.465	2.77
743.488	8.77
743.512	-11.23
743.535	4.77
743.558	2.77
743.582	22.77
743.605	9.77
743.629	10.77
743.652	10.77
743.676	4.77
743.699	4.77
743.723	18.77
743.746	17.77
743.769	13.77
743.793	4.77
743.816	8.77
743.84	11.77
743.863	-2.23
743.886	8.77
743.91	8.77
743.933	3.77
743.957	11.77
743.98	-0.23
744.003	1.77
744.027	3.77
744.05	6.77
744.074	16.77
744.097	0.77
744.12	11.77
744.144	-8.23
744.167	10.77
744.19	6.77
744.214	2.77
744.237	8.77
744.26	10.77
744.284	16.77
744.307	8.77
744.331	11.77
744.354	-1.23
744.377	6.77
744.401	2.77
744.424	-4.23
744.447	-13.23
744.471	-0.23
