Data from HighRes_H2D2_15_04_11_07_2024_HR4C61891__25__15-05-36-943.txt Node

Date: Thu Nov 07 15:05:36 EST 2024
User: crc00042
Spectrometer: HR4C6189
Trigger mode: 4
Integration Time (sec): 1.000000E-1
Scans to average: 1
Electric dark correction enabled: true
Nonlinearity correction enabled: false
Boxcar width: 0
XAxis mode: Wavelengths
Number of Pixels in Spectrum: 3648
>>>>>Begin Spectral Data<<<<<
639.567	-27.85
639.602	-27.85
639.636	-27.85
639.67	-56.85
639.704	-41.85
639.738	11.15
639.773	4.15
639.807	-19.85
639.841	-8.85
639.875	7.15
639.909	-3.85
639.943	-4.85
639.978	-3.85
640.012	9.15
640.046	17.15
640.08	15.15
640.114	-13.85
640.148	-8.85
640.182	-11.85
640.217	1.15
640.251	16.15
640.285	8.15
640.319	-10.85
640.353	-7.85
640.387	3.15
640.421	-4.85
640.455	4.15
640.49	4.15
640.524	1.15
640.558	4.15
640.592	3.15
640.626	2.15
640.66	11.15
640.694	-13.85
640.728	5.15
640.762	-5.85
640.796	15.15
640.83	16.15
640.865	-3.85
640.899	-0.85
640.933	-3.85
640.967	-10.85
641.001	6.15
641.035	0.15
641.069	0.15
641.103	-11.85
641.137	0.15
641.171	-12.85
641.205	6.15
641.239	9.15
641.273	2.15
641.307	2.15
641.341	-8.85
641.375	-1.85
641.409	6.15
641.443	-1.85
641.477	-7.85
641.511	0.15
641.545	-2.85
641.579	-22.85
641.614	-6.85
641.648	-5.85
641.682	-10.85
641.716	5.15
641.75	4.15
641.784	-19.85
641.818	-16.85
641.852	-9.85
641.886	-23.85
641.919	7.15
641.953	0.15
641.987	-7.85
642.021	-12.85
642.055	0.15
642.089	3.15
642.123	-17.85
642.157	-15.85
642.191	-14.85
642.225	7.15
642.259	-12.85
642.293	4.15
642.327	1.15
642.361	-6.85
642.395	6.15
642.429	6.15
642.463	2.15
642.497	23.15
642.531	6.15
642.565	-7.85
642.599	5.15
642.633	-17.85
642.666	-0.85
642.7	1.15
642.734	2.15
642.768	-8.85
642.802	4.15
642.836	13.15
642.87	5.15
642.904	-2.85
642.938	8.15
642.972	2.15
643.005	-0.85
643.039	10.15
643.073	-4.85
643.107	-5.85
643.141	0.15
643.175	-11.85
643.209	4.15
643.243	-7.85
643.276	-10.85
643.31	4.15
643.344	0.15
643.378	-0.85
643.412	10.15
643.446	-6.85
643.48	-11.85
643.513	-3.85
643.547	-3.85
643.581	-13.85
643.615	-1.85
643.649	-3.85
643.683	-18.85
643.716	-3.85
643.75	-12.85
643.784	-3.85
643.818	7.15
643.852	-0.85
643.886	3.15
643.919	1.15
643.953	-2.85
643.987	-8.85
644.021	4.15
644.055	-12.85
644.088	-0.85
644.122	1.15
644.156	-8.85
644.19	-1.85
644.224	-15.85
644.257	14.15
644.291	4.15
644.325	7.15
644.359	3.15
644.392	12.15
644.426	19.15
644.46	13.15
644.494	-11.85
644.527	3.15
644.561	-7.85
644.595	5.15
644.629	-17.85
644.662	-1.85
644.696	5.15
644.73	-4.85
644.764	-7.85
644.797	-5.85
644.831	3.15
644.865	8.15
644.899	-12.85
644.932	20.15
644.966	-3.85
645	-3.85
645.033	9.15
645.067	-8.85
645.101	1.15
645.135	-18.85
645.168	-1.85
645.202	-6.85
645.236	6.15
645.269	3.15
645.303	-11.85
645.337	-17.85
645.37	-6.85
645.404	7.15
645.438	-5.85
645.471	-2.85
645.505	17.15
645.539	6.15
645.572	7.15
645.606	-14.85
645.64	-6.85
645.673	-1.85
645.707	22.15
645.741	7.15
645.774	-24.85
645.808	2.15
645.842	-2.85
645.875	-0.85
645.909	-9.85
645.943	-11.85
645.976	-10.85
646.01	-9.85
646.043	0.15
646.077	11.15
646.111	11.15
646.144	4.15
646.178	-2.85
646.212	-14.85
646.245	-23.85
646.279	-10.85
646.312	-2.85
646.346	3.15
646.38	-5.85
646.413	10.15
646.447	1.15
646.48	-3.85
646.514	11.15
646.547	-1.85
646.581	-18.85
646.615	1.15
646.648	-22.85
646.682	-9.85
646.715	-0.85
646.749	2.15
646.782	-16.85
646.816	3.15
646.85	7.15
646.883	-7.85
646.917	5.15
646.95	9.15
646.984	-17.85
647.017	-12.85
647.051	-8.85
647.084	-0.85
647.118	8.15
647.151	4.15
647.185	-5.85
647.218	-26.85
647.252	-6.85
647.285	-9.85
647.319	5.15
647.353	19.15
647.386	7.15
647.42	-1.85
647.453	-4.85
647.487	12.15
647.52	0.15
647.553	-5.85
647.587	-12.85
647.62	-6.85
647.654	-12.85
647.687	5.15
647.721	11.15
647.754	-7.85
647.788	-10.85
647.821	-6.85
647.855	3.15
647.888	15.15
647.922	12.15
647.955	5.15
647.989	-2.85
648.022	-6.85
648.055	-5.85
648.089	-14.85
648.122	25.15
648.156	-6.85
648.189	-6.85
648.223	-3.85
648.256	4.15
648.29	-1.85
648.323	-9.85
648.356	4.15
648.39	-7.85
648.423	15.15
648.457	10.15
648.49	11.15
648.523	13.15
648.557	-9.85
648.59	-5.85
648.624	-2.85
648.657	-1.85
648.69	1.15
648.724	6.15
648.757	24.15
648.791	16.15
648.824	3.15
648.857	18.15
648.891	-3.85
648.924	4.15
648.957	-1.85
648.991	-30.85
649.024	16.15
649.057	-4.85
649.091	-3.85
649.124	7.15
649.158	7.15
649.191	5.15
649.224	2.15
649.258	-14.85
649.291	-6.85
649.324	-5.85
649.358	5.15
649.391	7.15
649.424	-4.85
649.458	-7.85
649.491	10.15
649.524	-2.85
649.557	-8.85
649.591	-10.85
649.624	15.15
649.657	-0.85
649.691	9.15
649.724	-10.85
649.757	-11.85
649.791	-14.85
649.824	19.15
649.857	20.15
649.89	-10.85
649.924	-9.85
649.957	0.15
649.99	-19.85
650.023	-7.85
650.057	-12.85
650.09	-4.85
650.123	-7.85
650.157	13.15
650.19	21.15
650.223	-1.85
650.256	-4.85
650.29	-6.85
650.323	3.15
650.356	10.15
650.389	0.15
650.423	-9.85
650.456	2.15
650.489	5.15
650.522	-6.85
650.555	-0.85
650.589	6.15
650.622	-6.85
650.655	12.15
650.688	4.15
650.721	-3.85
650.755	0.15
650.788	12.15
650.821	-7.85
650.854	6.15
650.887	5.15
650.921	-8.85
650.954	-8.85
650.987	-4.85
651.02	12.15
651.053	1.15
651.087	-8.85
651.12	12.15
651.153	9.15
651.186	6.15
651.219	-7.85
651.252	-3.85
651.286	5.15
651.319	2.15
651.352	-6.85
651.385	1.15
651.418	-13.85
651.451	9.15
651.484	2.15
651.518	1.15
651.551	2.15
651.584	-20.85
651.617	24.15
651.65	8.15
651.683	3.15
651.716	16.15
651.749	-7.85
651.783	-6.85
651.816	4.15
651.849	-4.85
651.882	8.15
651.915	-20.85
651.948	4.15
651.981	-17.85
652.014	-19.85
652.047	-13.85
652.08	-14.85
652.114	5.15
652.147	-4.85
652.18	2.15
652.213	14.15
652.246	4.15
652.279	1.15
652.312	10.15
652.345	-14.85
652.378	-0.85
652.411	12.15
652.444	12.15
652.477	7.15
652.51	2.15
652.543	-0.85
652.576	3.15
652.609	-19.85
652.642	-20.85
652.675	8.15
652.709	-1.85
652.742	-4.85
652.775	2.15
652.808	-0.85
652.841	1.15
652.874	-0.85
652.907	-12.85
652.94	-15.85
652.973	-19.85
653.006	-10.85
653.039	-14.85
653.072	6.15
653.105	-8.85
653.138	-15.85
653.171	-13.85
653.204	-2.85
653.237	2.15
653.27	-2.85
653.303	4.15
653.336	8.15
653.368	0.15
653.401	1.15
653.434	-2.85
653.467	1.15
653.5	-18.85
653.533	-22.85
653.566	6.15
653.599	-7.85
653.632	20.15
653.665	7.15
653.698	-11.85
653.731	-3.85
653.764	9.15
653.797	12.15
653.83	1.15
653.863	-14.85
653.896	11.15
653.929	13.15
653.961	0.15
653.994	3.15
654.027	-4.85
654.06	6.15
654.093	5.15
654.126	3.15
654.159	-1.85
654.192	-3.85
654.225	-4.85
654.258	-6.85
654.29	4.15
654.323	9.15
654.356	0.15
654.389	-2.85
654.422	10.15
654.455	2.15
654.488	-13.85
654.521	-18.85
654.553	-13.85
654.586	5.15
654.619	-9.85
654.652	-5.85
654.685	-6.85
654.718	14.15
654.751	7.15
654.783	-14.85
654.816	9.15
654.849	1.15
654.882	-7.85
654.915	-22.85
654.948	-4.85
654.98	-9.85
655.013	-6.85
655.046	-10.85
655.079	-10.85
655.112	5.15
655.144	-6.85
655.177	-3.85
655.21	21.15
655.243	0.15
655.276	9.15
655.308	-3.85
655.341	-27.85
655.374	7.15
655.407	-10.85
655.44	2.15
655.472	-12.85
655.505	5.15
655.538	-8.85
655.571	20.15
655.603	-4.85
655.636	-0.85
655.669	10.15
655.702	-0.85
655.734	-12.85
655.767	2.15
655.8	6.15
655.833	4.15
655.865	20.15
655.898	1.15
655.931	4.15
655.964	21.15
655.996	12.15
656.029	37.15
656.062	38.15
656.095	42.15
656.127	71.15
656.16	207.15
656.193	633.15
656.225	962.15
656.258	543.15
656.291	220.15
656.324	161.15
656.356	351.15
656.389	758.15
656.422	669.15
656.454	234.15
656.487	84.15
656.52	29.15
656.552	14.15
656.585	12.15
656.618	6.15
656.65	0.15
656.683	4.15
656.716	10.15
656.748	7.15
656.781	-9.85
656.814	-6.85
656.846	-6.85
656.879	-1.85
656.912	-2.85
656.944	-1.85
656.977	-19.85
657.01	-9.85
657.042	-2.85
657.075	13.15
657.108	1.15
657.14	21.15
657.173	1.15
657.205	17.15
657.238	15.15
657.271	-9.85
657.303	-4.85
657.336	-5.85
657.369	-2.85
657.401	-20.85
657.434	-2.85
657.466	10.15
657.499	-2.85
657.532	8.15
657.564	1.15
657.597	-8.85
657.629	1.15
657.662	1.15
657.694	6.15
657.727	-17.85
657.76	-3.85
657.792	-9.85
657.825	-8.85
657.857	-0.85
657.89	-6.85
657.922	6.15
657.955	-23.85
657.987	-5.85
658.02	5.15
658.053	9.15
658.085	-18.85
658.118	0.15
658.15	5.15
658.183	13.15
658.215	-10.85
658.248	-6.85
658.28	5.15
658.313	3.15
658.345	16.15
658.378	-2.85
658.41	-1.85
658.443	12.15
658.475	15.15
658.508	7.15
658.54	1.15
658.573	1.15
658.605	2.15
658.638	-9.85
658.67	-12.85
658.703	4.15
658.735	-3.85
658.768	-1.85
658.8	-15.85
658.833	26.15
658.865	2.15
658.898	1.15
658.93	-3.85
658.963	11.15
658.995	-10.85
659.028	4.15
659.06	8.15
659.092	-3.85
659.125	4.15
659.157	0.15
659.19	-10.85
659.222	-6.85
659.255	-2.85
659.287	-10.85
659.32	3.15
659.352	5.15
659.384	19.15
659.417	-0.85
659.449	-3.85
659.482	10.15
659.514	-12.85
659.546	-8.85
659.579	-21.85
659.611	11.15
659.644	2.15
659.676	-5.85
659.708	-13.85
659.741	-19.85
659.773	-6.85
659.806	5.15
659.838	14.15
659.87	-10.85
659.903	5.15
659.935	-7.85
659.967	5.15
660	29.15
660.032	-17.85
660.065	13.15
660.097	6.15
660.129	2.15
660.162	-3.85
660.194	8.15
660.226	-13.85
660.259	-6.85
660.291	-12.85
660.323	6.15
660.356	-1.85
660.388	-1.85
660.42	-5.85
660.453	13.15
660.485	24.15
660.517	0.15
660.55	5.15
660.582	-8.85
660.614	-8.85
660.647	-14.85
660.679	-11.85
660.711	2.15
660.743	3.15
660.776	-13.85
660.808	8.15
660.84	4.15
660.873	5.15
660.905	-20.85
660.937	1.15
660.969	0.15
661.002	-4.85
661.034	7.15
661.066	4.15
661.099	-5.85
661.131	5.15
661.163	3.15
661.195	4.15
661.228	13.15
661.26	1.15
661.292	-6.85
661.324	2.15
661.357	4.15
661.389	5.15
661.421	0.15
661.453	-7.85
661.485	7.15
661.518	7.15
661.55	-20.85
661.582	-0.85
661.614	-23.85
661.647	-6.85
661.679	6.15
661.711	-5.85
661.743	-14.85
661.775	1.15
661.808	8.15
661.84	-8.85
661.872	11.15
661.904	-11.85
661.936	-5.85
661.969	-8.85
662.001	-15.85
662.033	-15.85
662.065	-6.85
662.097	-3.85
662.129	13.15
662.162	-4.85
662.194	2.15
662.226	-14.85
662.258	7.15
662.29	-4.85
662.322	-7.85
662.355	-19.85
662.387	13.15
662.419	-17.85
662.451	-5.85
662.483	-9.85
662.515	-12.85
662.547	1.15
662.58	-9.85
662.612	-9.85
662.644	-22.85
662.676	-0.85
662.708	15.15
662.74	4.15
662.772	-1.85
662.804	14.15
662.836	7.15
662.869	3.15
662.901	2.15
662.933	-2.85
662.965	5.15
662.997	19.15
663.029	-14.85
663.061	4.15
663.093	-2.85
663.125	10.15
663.157	5.15
663.189	-14.85
663.221	4.15
663.254	4.15
663.286	4.15
663.318	-2.85
663.35	-0.85
663.382	-1.85
663.414	-3.85
663.446	4.15
663.478	-11.85
663.51	27.15
663.542	2.15
663.574	1.15
663.606	15.15
663.638	-1.85
663.67	-6.85
663.702	-13.85
663.734	-0.85
663.766	-11.85
663.798	-11.85
663.83	5.15
663.862	6.15
663.894	8.15
663.926	-6.85
663.958	9.15
663.99	-22.85
664.022	-8.85
664.054	-4.85
664.086	-12.85
664.118	0.15
664.15	-12.85
664.182	-7.85
664.214	-1.85
664.246	3.15
664.278	4.15
664.31	4.15
664.342	-8.85
664.374	-7.85
664.406	4.15
664.438	18.15
664.47	5.15
664.502	6.15
664.534	-23.85
664.566	-10.85
664.598	4.15
664.63	2.15
664.662	-0.85
664.693	-5.85
664.725	-15.85
664.757	3.15
664.789	-25.85
664.821	5.15
664.853	15.15
664.885	2.15
664.917	3.15
664.949	12.15
664.981	15.15
665.013	12.15
665.045	-26.85
665.076	4.15
665.108	7.15
665.14	4.15
665.172	-15.85
665.204	2.15
665.236	-4.85
665.268	-6.85
665.3	-11.85
665.331	1.15
665.363	7.15
665.395	-3.85
665.427	-5.85
665.459	12.15
665.491	-23.85
665.523	-15.85
665.555	1.15
665.586	-1.85
665.618	-14.85
665.65	-18.85
665.682	2.15
665.714	1.15
665.746	-9.85
665.777	4.15
665.809	-5.85
665.841	-19.85
665.873	-10.85
665.905	-10.85
665.937	5.15
665.968	-2.85
666	1.15
666.032	1.15
666.064	-10.85
666.096	-7.85
666.127	0.15
666.159	4.15
666.191	-0.85
666.223	-2.85
666.255	13.15
666.286	2.15
666.318	1.15
666.35	6.15
666.382	17.15
666.413	-17.85
666.445	-23.85
666.477	-12.85
666.509	-17.85
666.54	-19.85
666.572	-18.85
666.604	3.15
666.636	7.15
666.667	11.15
666.699	16.15
666.731	-2.85
666.763	-1.85
666.794	-2.85
666.826	-2.85
666.858	-12.85
666.89	11.15
666.921	-4.85
666.953	-5.85
666.985	10.15
667.017	8.15
667.048	2.15
667.08	0.15
667.112	-5.85
667.143	-11.85
667.175	-14.85
667.207	-0.85
667.238	0.15
667.27	-6.85
667.302	-5.85
667.334	2.15
667.365	31.15
667.397	-9.85
667.429	-16.85
667.46	3.15
667.492	2.15
667.524	-18.85
667.555	-26.85
667.587	2.15
667.619	-0.85
667.65	3.15
667.682	2.15
667.714	0.15
667.745	3.15
667.777	11.15
667.808	-5.85
667.84	3.15
667.872	-6.85
667.903	19.15
667.935	-24.85
667.967	0.15
667.998	-6.85
668.03	-10.85
668.061	-2.85
668.093	0.15
668.125	-4.85
668.156	11.15
668.188	-15.85
668.22	-2.85
668.251	2.15
668.283	-9.85
668.314	-12.85
668.346	-11.85
668.377	-4.85
668.409	-11.85
668.441	1.15
668.472	3.15
668.504	2.15
668.535	17.15
668.567	13.15
668.599	-9.85
668.63	-15.85
668.662	-12.85
668.693	6.15
668.725	0.15
668.756	1.15
668.788	13.15
668.819	6.15
668.851	3.15
668.882	2.15
668.914	-8.85
668.946	-2.85
668.977	-11.85
669.009	-12.85
669.04	-24.85
669.072	-0.85
669.103	-13.85
669.135	-4.85
669.166	0.15
669.198	6.15
669.229	1.15
669.261	7.15
669.292	-8.85
669.324	-11.85
669.355	-3.85
669.387	-12.85
669.418	9.15
669.45	-1.85
669.481	10.15
669.513	7.15
669.544	4.15
669.576	7.15
669.607	8.15
669.639	9.15
669.67	-10.85
669.701	-2.85
669.733	-5.85
669.764	0.15
669.796	-14.85
669.827	-19.85
669.859	-13.85
669.89	1.15
669.922	-6.85
669.953	5.15
669.985	3.15
670.016	6.15
670.047	2.15
670.079	-3.85
670.11	6.15
670.142	-4.85
670.173	-15.85
670.204	-7.85
670.236	-4.85
670.267	-21.85
670.299	-10.85
670.33	2.15
670.362	1.15
670.393	-1.85
670.424	1.15
670.456	-16.85
670.487	3.15
670.518	-11.85
670.55	-4.85
670.581	1.15
670.613	1.15
670.644	9.15
670.675	-5.85
670.707	-14.85
670.738	19.15
670.769	5.15
670.801	-14.85
670.832	4.15
670.864	-10.85
670.895	0.15
670.926	-17.85
670.958	-11.85
670.989	10.15
671.02	-17.85
671.052	-16.85
671.083	-1.85
671.114	-10.85
671.146	-7.85
671.177	-1.85
671.208	-12.85
671.24	-24.85
671.271	-13.85
671.302	-2.85
671.333	-2.85
671.365	-7.85
671.396	-19.85
671.427	6.15
671.459	0.15
671.49	-7.85
671.521	9.15
671.553	13.15
671.584	17.15
671.615	-10.85
671.646	-6.85
671.678	-10.85
671.709	-19.85
671.74	-21.85
671.771	-12.85
671.803	1.15
671.834	12.15
671.865	-11.85
671.896	3.15
671.928	-2.85
671.959	-13.85
671.99	-8.85
672.021	-6.85
672.053	-8.85
672.084	4.15
672.115	-3.85
672.146	2.15
672.178	4.15
672.209	-8.85
672.24	1.15
672.271	28.15
672.303	0.15
672.334	13.15
672.365	-6.85
672.396	6.15
672.427	6.15
672.459	-2.85
672.49	15.15
672.521	8.15
672.552	12.15
672.583	4.15
672.615	2.15
672.646	0.15
672.677	-1.85
672.708	-18.85
672.739	3.15
672.77	9.15
672.802	-0.85
672.833	-4.85
672.864	1.15
672.895	-10.85
672.926	-14.85
672.957	-3.85
672.989	-8.85
673.02	-6.85
673.051	-2.85
673.082	-3.85
673.113	-6.85
673.144	-3.85
673.175	-4.85
673.206	-4.85
673.238	-8.85
673.269	6.15
673.3	-6.85
673.331	13.15
673.362	-3.85
673.393	1.15
673.424	-0.85
673.455	21.15
673.487	18.15
673.518	8.15
673.549	-18.85
673.58	-24.85
673.611	-2.85
673.642	-12.85
673.673	-11.85
673.704	5.15
673.735	-5.85
673.766	9.15
673.797	11.15
673.828	-4.85
673.86	-2.85
673.891	-10.85
673.922	-4.85
673.953	-7.85
673.984	2.15
674.015	5.15
674.046	11.15
674.077	-0.85
674.108	-13.85
674.139	-4.85
674.17	4.15
674.201	-2.85
674.232	-4.85
674.263	-13.85
674.294	-3.85
674.325	-17.85
674.356	-7.85
674.387	14.15
674.418	2.15
674.449	-20.85
674.48	-21.85
674.511	-5.85
674.542	16.15
674.573	-13.85
674.604	8.15
674.635	6.15
674.666	16.15
674.697	-14.85
674.728	-2.85
674.759	11.15
674.79	-0.85
674.821	0.15
674.852	-6.85
674.883	2.15
674.914	-8.85
674.945	2.15
674.976	4.15
675.007	-10.85
675.038	1.15
675.069	-4.85
675.1	-11.85
675.131	-16.85
675.162	-31.85
675.193	-17.85
675.224	-1.85
675.254	1.15
675.285	21.15
675.316	13.15
675.347	7.15
675.378	-18.85
675.409	0.15
675.44	-2.85
675.471	-5.85
675.502	-7.85
675.533	3.15
675.564	-8.85
675.595	1.15
675.625	15.15
675.656	6.15
675.687	2.15
675.718	5.15
675.749	11.15
675.78	0.15
675.811	-11.85
675.842	-2.85
675.873	-4.85
675.903	-11.85
675.934	-7.85
675.965	-2.85
675.996	3.15
676.027	2.15
676.058	3.15
676.089	-14.85
676.119	6.15
676.15	-2.85
676.181	-11.85
676.212	-6.85
676.243	2.15
676.274	8.15
676.304	8.15
676.335	-8.85
676.366	-10.85
676.397	-6.85
676.428	9.15
676.459	10.15
676.489	7.15
676.52	14.15
676.551	-9.85
676.582	-20.85
676.613	12.15
676.643	-0.85
676.674	6.15
676.705	-7.85
676.736	-19.85
676.767	17.15
676.797	5.15
676.828	6.15
676.859	-13.85
676.89	-6.85
676.92	0.15
676.951	-5.85
676.982	6.15
677.013	-12.85
677.044	5.15
677.074	-8.85
677.105	4.15
677.136	3.15
677.167	-1.85
677.197	19.15
677.228	-0.85
677.259	3.15
677.289	1.15
677.32	5.15
677.351	0.15
677.382	-0.85
677.412	-15.85
677.443	8.15
677.474	1.15
677.505	-21.85
677.535	-11.85
677.566	5.15
677.597	-24.85
677.627	-15.85
677.658	-7.85
677.689	-9.85
677.72	-6.85
677.75	-1.85
677.781	-4.85
677.812	-3.85
677.842	-8.85
677.873	-5.85
677.904	2.15
677.934	-1.85
677.965	-9.85
677.996	-24.85
678.026	-12.85
678.057	1.15
678.088	-5.85
678.118	-8.85
678.149	-14.85
678.18	0.15
678.21	-5.85
678.241	-5.85
678.272	-5.85
678.302	-0.85
678.333	-3.85
678.363	-0.85
678.394	21.15
678.425	-13.85
678.455	3.15
678.486	3.15
678.517	0.15
678.547	-7.85
678.578	-7.85
678.608	-13.85
678.639	0.15
678.67	4.15
678.7	0.15
678.731	3.15
678.761	3.15
678.792	10.15
678.823	-5.85
678.853	-18.85
678.884	-2.85
678.914	4.15
678.945	2.15
678.975	4.15
679.006	11.15
679.037	-5.85
679.067	18.15
679.098	-12.85
679.128	-25.85
679.159	-14.85
679.189	0.15
679.22	-6.85
679.25	-15.85
679.281	-10.85
679.312	-1.85
679.342	3.15
679.373	20.15
679.403	-3.85
679.434	15.15
679.464	0.15
679.495	4.15
679.525	8.15
679.556	-20.85
679.586	0.15
679.617	15.15
679.647	-12.85
679.678	-0.85
679.708	-4.85
679.739	-10.85
679.769	5.15
679.8	9.15
679.83	5.15
679.861	8.15
679.891	6.15
679.922	0.15
679.952	7.15
679.983	-0.85
680.013	6.15
680.044	-13.85
680.074	12.15
680.105	7.15
680.135	2.15
680.165	4.15
680.196	3.15
680.226	-3.85
680.257	7.15
680.287	9.15
680.318	4.15
680.348	-10.85
680.379	11.15
680.409	16.15
680.439	-3.85
680.47	-12.85
680.5	-2.85
680.531	-5.85
680.561	-2.85
680.592	-1.85
680.622	10.15
680.652	4.15
680.683	4.15
680.713	-3.85
680.744	-3.85
680.774	-10.85
680.804	6.15
680.835	-10.85
680.865	-8.85
680.896	11.15
680.926	2.15
680.956	-0.85
680.987	1.15
681.017	-4.85
681.047	3.15
681.078	-12.85
681.108	-13.85
681.139	1.15
681.169	-6.85
681.199	-9.85
681.23	-9.85
681.26	-9.85
681.29	17.15
681.321	-27.85
681.351	-8.85
681.381	-7.85
681.412	-4.85
681.442	4.15
681.472	10.15
681.503	-8.85
681.533	-17.85
681.563	-11.85
681.594	-8.85
681.624	10.15
681.654	-13.85
681.685	-8.85
681.715	2.15
681.745	1.15
681.775	-13.85
681.806	-10.85
681.836	-6.85
681.866	-4.85
681.897	0.15
681.927	-5.85
681.957	-13.85
681.987	4.15
682.018	4.15
682.048	-3.85
682.078	1.15
682.109	8.15
682.139	4.15
682.169	-3.85
682.199	7.15
682.23	-5.85
682.26	8.15
682.29	-10.85
682.32	-6.85
682.351	-9.85
682.381	-12.85
682.411	-0.85
682.441	-9.85
682.472	-1.85
682.502	-4.85
682.532	-14.85
682.562	7.15
682.592	8.15
682.623	3.15
682.653	7.15
682.683	1.15
682.713	8.15
682.743	-6.85
682.774	1.15
682.804	-0.85
682.834	32.15
682.864	2.15
682.894	-8.85
682.925	-5.85
682.955	3.15
682.985	-6.85
683.015	-8.85
683.045	11.15
683.076	-19.85
683.106	-15.85
683.136	5.15
683.166	-4.85
683.196	-10.85
683.226	-5.85
683.257	-10.85
683.287	-26.85
683.317	-27.85
683.347	-12.85
683.377	-3.85
683.407	-5.85
683.437	3.15
683.468	14.15
683.498	-15.85
683.528	-13.85
683.558	-13.85
683.588	1.15
683.618	-13.85
683.648	0.15
683.678	2.15
683.708	1.15
683.739	8.15
683.769	-9.85
683.799	-2.85
683.829	4.15
683.859	7.15
683.889	7.15
683.919	14.15
683.949	-2.85
683.979	1.15
684.009	12.15
684.039	10.15
684.07	-9.85
684.1	17.15
684.13	11.15
684.16	5.15
684.19	-2.85
684.22	-10.85
684.25	2.15
684.28	-3.85
684.31	7.15
684.34	13.15
684.37	-2.85
684.4	-0.85
684.43	-1.85
684.46	-3.85
684.49	14.15
684.52	7.15
684.55	1.15
684.58	-4.85
684.61	-9.85
684.64	8.15
684.67	-6.85
684.7	-9.85
684.73	-0.85
684.76	9.15
684.79	5.15
684.82	11.15
684.85	2.15
684.88	-4.85
684.91	8.15
684.94	7.15
684.97	3.15
685	9.15
685.03	-9.85
685.06	-10.85
685.09	-4.85
685.12	22.15
685.15	-15.85
685.18	2.15
685.21	8.15
685.24	19.15
685.27	7.15
685.3	0.15
685.33	20.15
685.36	3.15
685.39	-6.85
685.42	-7.85
685.45	-10.85
685.48	13.15
685.51	-8.85
685.54	11.15
685.569	11.15
685.599	3.15
685.629	13.15
685.659	9.15
685.689	-12.85
685.719	-2.85
685.749	-12.85
685.779	-1.85
685.809	17.15
685.839	5.15
685.869	5.15
685.898	-2.85
685.928	-4.85
685.958	6.15
685.988	1.15
686.018	2.15
686.048	-8.85
686.078	4.15
686.108	18.15
686.137	3.15
686.167	12.15
686.197	-20.85
686.227	1.15
686.257	29.15
686.287	2.15
686.317	0.15
686.346	-1.85
686.376	-13.85
686.406	1.15
686.436	-0.85
686.466	-2.85
686.496	3.15
686.525	-0.85
686.555	-14.85
686.585	5.15
686.615	21.15
686.645	3.15
686.675	-3.85
686.704	3.15
686.734	6.15
686.764	-8.85
686.794	-4.85
686.824	-7.85
686.853	2.15
686.883	11.15
686.913	28.15
686.943	5.15
686.973	-1.85
687.002	-2.85
687.032	-1.85
687.062	-13.85
687.092	13.15
687.121	-11.85
687.151	-9.85
687.181	-6.85
687.211	5.15
687.24	1.15
687.27	1.15
687.3	8.15
687.33	-9.85
687.359	-15.85
687.389	10.15
687.419	-1.85
687.449	-11.85
687.478	-5.85
687.508	-5.85
687.538	3.15
687.568	12.15
687.597	-7.85
687.627	12.15
687.657	-3.85
687.686	2.15
687.716	36.15
687.746	2.15
687.776	-6.85
687.805	9.15
687.835	12.15
687.865	-0.85
687.894	-2.85
687.924	-7.85
687.954	-5.85
687.983	0.15
688.013	4.15
688.043	3.15
688.072	6.15
688.102	-5.85
688.132	-1.85
688.161	7.15
688.191	-1.85
688.221	15.15
688.25	-19.85
688.28	8.15
688.31	-1.85
688.339	-0.85
688.369	-9.85
688.399	-5.85
688.428	-8.85
688.458	-2.85
688.488	-7.85
688.517	-10.85
688.547	-5.85
688.576	35.15
688.606	-4.85
688.636	-7.85
688.665	4.15
688.695	5.15
688.725	7.15
688.754	20.15
688.784	9.15
688.813	1.15
688.843	2.15
688.873	-4.85
688.902	-11.85
688.932	-10.85
688.961	5.15
688.991	20.15
689.02	16.15
689.05	2.15
689.08	7.15
689.109	11.15
689.139	0.15
689.168	1.15
689.198	-3.85
689.227	-7.85
689.257	10.15
689.287	9.15
689.316	13.15
689.346	-3.85
689.375	-11.85
689.405	-1.85
689.434	3.15
689.464	4.15
689.493	-11.85
689.523	-3.85
689.552	3.15
689.582	3.15
689.611	3.15
689.641	9.15
689.67	4.15
689.7	1.15
689.73	20.15
689.759	5.15
689.789	1.15
689.818	-6.85
689.848	-11.85
689.877	11.15
689.906	-4.85
689.936	3.15
689.965	10.15
689.995	-7.85
690.024	10.15
690.054	-0.85
690.083	5.15
690.113	0.15
690.142	-3.85
690.172	-22.85
690.201	-8.85
690.231	-6.85
690.26	7.15
690.29	5.15
690.319	7.15
690.348	18.15
690.378	11.15
690.407	17.15
690.437	-5.85
690.466	-6.85
690.496	11.15
690.525	3.15
690.555	-6.85
690.584	-11.85
690.613	-2.85
690.643	-0.85
690.672	9.15
690.702	-14.85
690.731	-9.85
690.76	5.15
690.79	-3.85
690.819	1.15
690.849	8.15
690.878	-12.85
690.907	-5.85
690.937	3.15
690.966	6.15
690.996	-10.85
691.025	1.15
691.054	3.15
691.084	9.15
691.113	-4.85
691.142	-4.85
691.172	19.15
691.201	7.15
691.23	14.15
691.26	13.15
691.289	7.15
691.319	-1.85
691.348	7.15
691.377	5.15
691.407	-13.85
691.436	2.15
691.465	10.15
691.495	16.15
691.524	-4.85
691.553	-1.85
691.583	-12.85
691.612	24.15
691.641	12.15
691.67	2.15
691.7	10.15
691.729	-18.85
691.758	1.15
691.788	1.15
691.817	8.15
691.846	-5.85
691.876	-4.85
691.905	12.15
691.934	-8.85
691.963	19.15
691.993	13.15
692.022	-3.85
692.051	-13.85
692.081	11.15
692.11	6.15
692.139	5.15
692.168	1.15
692.198	20.15
692.227	7.15
692.256	1.15
692.285	10.15
692.315	4.15
692.344	-6.85
692.373	8.15
692.402	-25.85
692.432	-10.85
692.461	1.15
692.49	1.15
692.519	7.15
692.548	-3.85
692.578	2.15
692.607	-6.85
692.636	-5.85
692.665	22.15
692.694	1.15
692.724	1.15
692.753	6.15
692.782	-3.85
692.811	-4.85
692.84	4.15
692.87	-1.85
692.899	4.15
692.928	0.15
692.957	15.15
692.986	5.15
693.016	-2.85
693.045	15.15
693.074	4.15
693.103	8.15
693.132	2.15
693.161	4.15
693.191	-0.85
693.22	-18.85
693.249	3.15
693.278	-15.85
693.307	-0.85
693.336	-5.85
693.365	1.15
693.395	-0.85
693.424	1.15
693.453	11.15
693.482	-1.85
693.511	10.15
693.54	30.15
693.569	0.15
693.598	15.15
693.628	5.15
693.657	31.15
693.686	19.15
693.715	9.15
693.744	19.15
693.773	19.15
693.802	6.15
693.831	2.15
693.86	9.15
693.889	-2.85
693.919	2.15
693.948	6.15
693.977	12.15
694.006	-8.85
694.035	1.15
694.064	-12.85
694.093	5.15
694.122	0.15
694.151	5.15
694.18	10.15
694.209	22.15
694.238	-3.85
694.267	1.15
694.296	3.15
694.325	6.15
694.354	7.15
694.383	14.15
694.412	-5.85
694.441	-5.85
694.471	-5.85
694.5	-17.85
694.529	-1.85
694.558	21.15
694.587	13.15
694.616	0.15
694.645	-2.85
694.674	13.15
694.703	4.15
694.732	-2.85
694.761	19.15
694.79	10.15
694.819	-3.85
694.848	9.15
694.877	14.15
694.906	20.15
694.935	12.15
694.963	25.15
694.992	4.15
695.021	1.15
695.05	4.15
695.079	3.15
695.108	-1.85
695.137	41.15
695.166	22.15
695.195	-3.85
695.224	15.15
695.253	-3.85
695.282	17.15
695.311	6.15
695.34	0.15
695.369	23.15
695.398	10.15
695.427	16.15
695.456	-6.85
695.485	20.15
695.513	11.15
695.542	0.15
695.571	-2.85
695.6	17.15
695.629	1.15
695.658	7.15
695.687	0.15
695.716	0.15
695.745	20.15
695.774	-19.85
695.802	2.15
695.831	2.15
695.86	-5.85
695.889	9.15
695.918	4.15
695.947	-0.85
695.976	-8.85
696.005	2.15
696.033	8.15
696.062	15.15
696.091	18.15
696.12	-3.85
696.149	14.15
696.178	10.15
696.207	12.15
696.235	-17.85
696.264	4.15
696.293	3.15
696.322	13.15
696.351	11.15
696.38	11.15
696.408	8.15
696.437	3.15
696.466	-1.85
696.495	25.15
696.524	24.15
696.553	14.15
696.581	1.15
696.61	0.15
696.639	2.15
696.668	-10.85
696.697	-7.85
696.725	-4.85
696.754	10.15
696.783	-3.85
696.812	-5.85
696.84	1.15
696.869	15.15
696.898	6.15
696.927	3.15
696.956	19.15
696.984	10.15
697.013	-3.85
697.042	-1.85
697.071	2.15
697.099	19.15
697.128	3.15
697.157	-0.85
697.186	1.15
697.214	3.15
697.243	-3.85
697.272	-18.85
697.301	24.15
697.329	16.15
697.358	6.15
697.387	15.15
697.415	4.15
697.444	-8.85
697.473	0.15
697.502	-6.85
697.53	1.15
697.559	2.15
697.588	21.15
697.616	5.15
697.645	-19.85
697.674	0.15
697.703	-6.85
697.731	-5.85
697.76	2.15
697.789	22.15
697.817	3.15
697.846	16.15
697.875	2.15
697.903	10.15
697.932	4.15
697.961	1.15
697.989	7.15
698.018	5.15
698.047	15.15
698.075	10.15
698.104	-6.85
698.133	0.15
698.161	-7.85
698.19	4.15
698.218	-4.85
698.247	14.15
698.276	4.15
698.304	12.15
698.333	5.15
698.362	4.15
698.39	-0.85
698.419	2.15
698.447	9.15
698.476	1.15
698.505	4.15
698.533	2.15
698.562	23.15
698.591	10.15
698.619	-5.85
698.648	3.15
698.676	4.15
698.705	-5.85
698.733	-14.85
698.762	6.15
698.791	3.15
698.819	-5.85
698.848	10.15
698.876	5.15
698.905	-5.85
698.933	-5.85
698.962	7.15
698.991	8.15
699.019	21.15
699.048	0.15
699.076	10.15
699.105	-13.85
699.133	-4.85
699.162	21.15
699.19	8.15
699.219	3.15
699.248	0.15
699.276	4.15
699.305	-4.85
699.333	7.15
699.362	9.15
699.39	8.15
699.419	-19.85
699.447	11.15
699.476	21.15
699.504	1.15
699.533	2.15
699.561	-1.85
699.59	-13.85
699.618	-4.85
699.647	4.15
699.675	10.15
699.704	8.15
699.732	-10.85
699.761	16.15
699.789	-1.85
699.818	2.15
699.846	-8.85
699.874	-4.85
699.903	0.15
699.931	-7.85
699.96	0.15
699.988	2.15
700.017	8.15
700.045	3.15
700.074	-0.85
700.102	5.15
700.13	-21.85
700.159	1.15
700.187	4.15
700.216	2.15
700.244	-11.85
700.273	-4.85
700.301	-3.85
700.329	27.15
700.358	13.15
700.386	9.15
700.415	-3.85
700.443	-5.85
700.472	2.15
700.5	4.15
700.528	14.15
700.557	13.15
700.585	5.15
700.614	6.15
700.642	15.15
700.67	22.15
700.699	20.15
700.727	-11.85
700.755	0.15
700.784	-10.85
700.812	5.15
700.841	0.15
700.869	-0.85
700.897	-15.85
700.926	-2.85
700.954	5.15
700.982	5.15
701.011	1.15
701.039	-0.85
701.067	-0.85
701.096	-1.85
701.124	-26.85
701.152	-9.85
701.181	-2.85
701.209	-14.85
701.237	-15.85
701.266	-20.85
701.294	-30.85
701.322	9.15
701.351	5.15
701.379	-14.85
701.407	-5.85
701.435	-12.85
701.464	4.15
701.492	13.15
701.52	8.15
701.549	11.15
701.577	-16.85
701.605	0.15
701.634	-15.85
701.662	4.15
701.69	-17.85
701.718	-10.85
701.747	0.15
701.775	1.15
701.803	0.15
701.831	7.15
701.86	-9.85
701.888	9.15
701.916	4.15
701.944	-2.85
701.973	3.15
702.001	-3.85
702.029	-14.85
702.057	-20.85
702.086	-20.85
702.114	-19.85
702.142	-5.85
702.17	-19.85
702.199	-2.85
702.227	14.15
702.255	9.15
702.283	-1.85
702.311	-8.85
702.34	2.15
702.368	-1.85
702.396	-6.85
702.424	5.15
702.452	-7.85
702.481	-7.85
702.509	-9.85
702.537	12.15
702.565	-15.85
702.593	-18.85
702.621	5.15
702.65	5.15
702.678	3.15
702.706	9.15
702.734	-4.85
702.762	9.15
702.79	9.15
702.819	1.15
702.847	-5.85
702.875	-3.85
702.903	14.15
702.931	9.15
702.959	14.15
702.988	3.15
703.016	-0.85
703.044	-0.85
703.072	-3.85
703.1	-14.85
703.128	9.15
703.156	9.15
703.184	0.15
703.212	15.15
703.241	3.15
703.269	20.15
703.297	-10.85
703.325	8.15
703.353	-17.85
703.381	-12.85
703.409	3.15
703.437	-6.85
703.465	-6.85
703.493	-2.85
703.522	9.15
703.55	7.15
703.578	-7.85
703.606	-11.85
703.634	3.15
703.662	-3.85
703.69	-23.85
703.718	3.15
703.746	24.15
703.774	-9.85
703.802	10.15
703.83	-6.85
703.858	-3.85
703.886	-6.85
703.914	-3.85
703.942	0.15
703.97	1.15
703.998	-5.85
704.027	22.15
704.055	9.15
704.083	-7.85
704.111	-6.85
704.139	2.15
704.167	-10.85
704.195	-5.85
704.223	-13.85
704.251	-12.85
704.279	4.15
704.307	9.15
704.335	-12.85
704.363	-3.85
704.391	-14.85
704.419	-26.85
704.447	-17.85
704.475	5.15
704.503	-14.85
704.531	-4.85
704.558	-6.85
704.586	12.15
704.614	2.15
704.642	-2.85
704.67	-8.85
704.698	2.15
704.726	-9.85
704.754	-20.85
704.782	4.15
704.81	7.15
704.838	13.15
704.866	2.15
704.894	-15.85
704.922	-2.85
704.95	-5.85
704.978	12.15
705.006	6.15
705.034	8.15
705.061	-10.85
705.089	-9.85
705.117	2.15
705.145	-18.85
705.173	5.15
705.201	7.15
705.229	12.15
705.257	3.15
705.285	9.15
705.313	12.15
705.34	15.15
705.368	-6.85
705.396	4.15
705.424	7.15
705.452	1.15
705.48	6.15
705.508	-9.85
705.536	-3.85
705.563	-16.85
705.591	4.15
705.619	3.15
705.647	-7.85
705.675	-10.85
705.703	18.15
705.731	1.15
705.758	3.15
705.786	7.15
705.814	17.15
705.842	-18.85
705.87	5.15
705.898	-1.85
705.925	-12.85
705.953	-6.85
705.981	-26.85
706.009	-19.85
706.037	13.15
706.065	5.15
706.092	-2.85
706.12	5.15
706.148	-11.85
706.176	0.15
706.204	2.15
706.231	21.15
706.259	-5.85
706.287	-9.85
706.315	4.15
706.342	0.15
706.37	14.15
706.398	6.15
706.426	14.15
706.454	-1.85
706.481	12.15
706.509	-10.85
706.537	-5.85
706.565	-15.85
706.592	-9.85
706.62	-2.85
706.648	-2.85
706.676	-5.85
706.703	2.15
706.731	-5.85
706.759	-1.85
706.787	-8.85
706.814	-5.85
706.842	-23.85
706.87	-21.85
706.897	3.15
706.925	-18.85
706.953	18.15
706.981	19.15
707.008	20.15
707.036	2.15
707.064	7.15
707.091	-19.85
707.119	-6.85
707.147	2.15
707.174	-9.85
707.202	3.15
707.23	1.15
707.258	4.15
707.285	1.15
707.313	13.15
707.341	-14.85
707.368	-15.85
707.396	-3.85
707.424	15.15
707.451	6.15
707.479	10.15
707.507	6.15
707.534	-1.85
707.562	-14.85
707.59	-14.85
707.617	-10.85
707.645	0.15
707.672	1.15
707.7	-5.85
707.728	13.15
707.755	11.15
707.783	-2.85
707.811	-7.85
707.838	-7.85
707.866	7.15
707.893	1.15
707.921	-14.85
707.949	-1.85
707.976	5.15
708.004	-3.85
708.031	-1.85
708.059	-23.85
708.087	-18.85
708.114	-12.85
708.142	-2.85
708.169	-6.85
708.197	-8.85
708.225	-3.85
708.252	-13.85
708.28	0.15
708.307	-0.85
708.335	-6.85
708.362	-4.85
708.39	-17.85
708.418	-4.85
708.445	9.15
708.473	13.15
708.5	-0.85
708.528	2.15
708.555	0.15
708.583	0.15
708.61	2.15
708.638	-3.85
708.665	-20.85
708.693	-9.85
708.72	-4.85
708.748	-21.85
708.776	-1.85
708.803	16.15
708.831	21.15
708.858	12.15
708.886	-0.85
708.913	7.15
708.941	-9.85
708.968	0.15
708.996	-15.85
709.023	25.15
709.051	-2.85
709.078	-1.85
709.105	8.15
709.133	-12.85
709.16	-3.85
709.188	7.15
709.215	-6.85
709.243	1.15
709.27	-12.85
709.298	-29.85
709.325	-9.85
709.353	-4.85
709.38	2.15
709.408	-2.85
709.435	2.15
709.462	-4.85
709.49	17.15
709.517	-8.85
709.545	-6.85
709.572	1.15
709.6	6.15
709.627	3.15
709.655	1.15
709.682	17.15
709.709	0.15
709.737	-2.85
709.764	-5.85
709.792	6.15
709.819	-20.85
709.846	-4.85
709.874	-5.85
709.901	8.15
709.929	16.15
709.956	19.15
709.983	-24.85
710.011	-1.85
710.038	-6.85
710.066	9.15
710.093	23.15
710.12	8.15
710.148	6.15
710.175	-10.85
710.202	-11.85
710.23	-1.85
710.257	-2.85
710.284	0.15
710.312	2.15
710.339	-6.85
710.366	-3.85
710.394	-13.85
710.421	-12.85
710.448	-2.85
710.476	-20.85
710.503	1.15
710.53	15.15
710.558	1.15
710.585	-0.85
710.612	-6.85
710.64	-1.85
710.667	7.15
710.694	5.15
710.722	26.15
710.749	10.15
710.776	-7.85
710.804	10.15
710.831	5.15
710.858	-5.85
710.885	0.15
710.913	-9.85
710.94	7.15
710.967	-14.85
710.995	-11.85
711.022	-6.85
711.049	1.15
711.076	-18.85
711.104	-1.85
711.131	-4.85
711.158	1.15
711.185	12.15
711.213	-7.85
711.24	-1.85
711.267	-0.85
711.294	2.15
711.322	12.15
711.349	-1.85
711.376	-5.85
711.403	-6.85
711.431	-21.85
711.458	-2.85
711.485	11.15
711.512	2.15
711.54	-1.85
711.567	1.15
711.594	-11.85
711.621	-11.85
711.648	-7.85
711.676	-6.85
711.703	-13.85
711.73	-24.85
711.757	-1.85
711.784	-8.85
711.812	1.15
711.839	9.15
711.866	-5.85
711.893	-9.85
711.92	7.15
711.947	-4.85
711.975	9.15
712.002	-8.85
712.029	16.15
712.056	6.15
712.083	6.15
712.11	-15.85
712.138	-0.85
712.165	-10.85
712.192	-11.85
712.219	-9.85
712.246	-4.85
712.273	3.15
712.3	-10.85
712.328	-1.85
712.355	-0.85
712.382	-13.85
712.409	10.15
712.436	-18.85
712.463	8.15
712.49	-2.85
712.517	14.15
712.544	-2.85
712.572	8.15
712.599	-12.85
712.626	10.15
712.653	-7.85
712.68	-15.85
712.707	-3.85
712.734	-3.85
712.761	-12.85
712.788	3.15
712.815	4.15
712.842	7.15
712.87	6.15
712.897	0.15
712.924	-20.85
712.951	-11.85
712.978	7.15
713.005	10.15
713.032	10.15
713.059	-2.85
713.086	13.15
713.113	0.15
713.14	-10.85
713.167	10.15
713.194	-2.85
713.221	-22.85
713.248	5.15
713.275	-5.85
713.302	-8.85
713.329	-1.85
713.356	5.15
713.383	-0.85
713.41	-1.85
713.437	-6.85
713.464	9.15
713.491	14.15
713.518	4.15
713.545	-0.85
713.572	4.15
713.599	14.15
713.626	-2.85
713.653	11.15
713.68	-10.85
713.707	1.15
713.734	1.15
713.761	1.15
713.788	-6.85
713.815	-5.85
713.842	-18.85
713.869	-12.85
713.896	-16.85
713.923	5.15
713.95	1.15
713.977	4.15
714.004	-9.85
714.031	-2.85
714.058	-7.85
714.085	-4.85
714.112	-9.85
714.139	8.15
714.165	2.15
714.192	-7.85
714.219	3.15
714.246	19.15
714.273	-3.85
714.3	-1.85
714.327	11.15
714.354	11.15
714.381	-7.85
714.408	5.15
714.435	-12.85
714.461	-9.85
714.488	10.15
714.515	-10.85
714.542	-6.85
714.569	-6.85
714.596	-6.85
714.623	-12.85
714.65	-11.85
714.677	-1.85
714.703	14.15
714.73	3.15
714.757	-11.85
714.784	1.15
714.811	-27.85
714.838	4.15
714.865	1.15
714.891	6.15
714.918	-11.85
714.945	-7.85
714.972	8.15
714.999	6.15
715.026	-7.85
715.052	5.15
715.079	4.15
715.106	-12.85
715.133	10.15
715.16	-3.85
715.187	-7.85
715.213	-3.85
715.24	-10.85
715.267	-7.85
715.294	0.15
715.321	-15.85
715.347	-19.85
715.374	-10.85
715.401	-2.85
715.428	-13.85
715.455	1.15
715.481	5.15
715.508	9.15
715.535	-17.85
715.562	21.15
715.588	0.15
715.615	-3.85
715.642	2.15
715.669	10.15
715.695	-7.85
715.722	5.15
715.749	22.15
715.776	14.15
715.802	1.15
715.829	1.15
715.856	-13.85
715.883	18.15
715.909	-5.85
715.936	1.15
715.963	4.15
715.99	-9.85
716.016	10.15
716.043	-1.85
716.07	-11.85
716.096	-14.85
716.123	-10.85
716.15	6.15
716.177	9.15
716.203	20.15
716.23	-2.85
716.257	-5.85
716.283	8.15
716.31	-9.85
716.337	9.15
716.363	-2.85
716.39	-7.85
716.417	-0.85
716.443	14.15
716.47	5.15
716.497	7.15
716.523	4.15
716.55	2.15
716.577	10.15
716.603	5.15
716.63	6.15
716.657	1.15
716.683	-6.85
716.71	-12.85
716.737	-7.85
716.763	0.15
716.79	-3.85
716.817	11.15
716.843	-2.85
716.87	-2.85
716.897	5.15
716.923	22.15
716.95	-7.85
716.976	-23.85
717.003	-14.85
717.03	-5.85
717.056	9.15
717.083	-10.85
717.109	-2.85
717.136	0.15
717.163	6.15
717.189	-1.85
717.216	-2.85
717.242	-0.85
717.269	2.15
717.296	4.15
717.322	13.15
717.349	5.15
717.375	8.15
717.402	7.15
717.428	-2.85
717.455	-2.85
717.481	-6.85
717.508	12.15
717.535	12.15
717.561	10.15
717.588	-4.85
717.614	-6.85
717.641	-1.85
717.667	4.15
717.694	0.15
717.72	-3.85
717.747	0.15
717.773	-9.85
717.8	-7.85
717.826	-2.85
717.853	-0.85
717.88	6.15
717.906	-1.85
717.933	-5.85
717.959	-4.85
717.986	-7.85
718.012	-11.85
718.039	6.15
718.065	17.15
718.092	9.15
718.118	-1.85
718.144	-14.85
718.171	9.15
718.197	20.15
718.224	3.15
718.25	7.15
718.277	6.15
718.303	1.15
718.33	-4.85
718.356	-10.85
718.383	-10.85
718.409	-4.85
718.436	-11.85
718.462	-8.85
718.489	-2.85
718.515	17.15
718.541	9.15
718.568	-3.85
718.594	0.15
718.621	8.15
718.647	-6.85
718.674	1.15
718.7	6.15
718.726	-4.85
718.753	-1.85
718.779	-10.85
718.806	-9.85
718.832	-0.85
718.858	10.15
718.885	-1.85
718.911	1.15
718.938	3.15
718.964	-8.85
718.99	7.15
719.017	4.15
719.043	-2.85
719.07	15.15
719.096	-14.85
719.122	1.15
719.149	-1.85
719.175	13.15
719.201	10.15
719.228	0.15
719.254	1.15
719.281	-11.85
719.307	12.15
719.333	-9.85
719.36	6.15
719.386	-6.85
719.412	11.15
719.439	-3.85
719.465	3.15
719.491	-6.85
719.518	0.15
719.544	6.15
719.57	13.15
719.597	6.15
719.623	2.15
719.649	5.15
719.675	-13.85
719.702	6.15
719.728	0.15
719.754	-11.85
719.781	8.15
719.807	-5.85
719.833	-13.85
719.86	0.15
719.886	-0.85
719.912	-2.85
719.938	-3.85
719.965	3.15
719.991	8.15
720.017	-13.85
720.044	-21.85
720.07	-2.85
720.096	8.15
720.122	0.15
720.149	6.15
720.175	23.15
720.201	13.15
720.227	9.15
720.254	-1.85
720.28	3.15
720.306	12.15
720.332	5.15
720.359	2.15
720.385	-3.85
720.411	-11.85
720.437	2.15
720.463	-7.85
720.49	2.15
720.516	-1.85
720.542	-5.85
720.568	1.15
720.595	6.15
720.621	-2.85
720.647	-13.85
720.673	8.15
720.699	-4.85
720.725	1.15
720.752	7.15
720.778	24.15
720.804	4.15
720.83	11.15
720.856	-7.85
720.883	-10.85
720.909	-4.85
720.935	13.15
720.961	13.15
720.987	6.15
721.013	11.15
721.04	-12.85
721.066	-12.85
721.092	-5.85
721.118	11.15
721.144	8.15
721.17	-11.85
721.196	-11.85
721.223	-6.85
721.249	0.15
721.275	16.15
721.301	-7.85
721.327	4.15
721.353	-3.85
721.379	-7.85
721.405	6.15
721.432	12.15
721.458	-2.85
721.484	2.15
721.51	-6.85
721.536	-4.85
721.562	-10.85
721.588	8.15
721.614	-9.85
721.64	-7.85
721.666	-9.85
721.693	-5.85
721.719	-2.85
721.745	-2.85
721.771	-9.85
721.797	7.15
721.823	-4.85
721.849	6.15
721.875	-1.85
721.901	12.15
721.927	2.15
721.953	10.15
721.979	11.15
722.005	7.15
722.031	-5.85
722.057	18.15
722.083	0.15
722.109	7.15
722.135	0.15
722.161	16.15
722.187	-5.85
722.214	-14.85
722.24	-3.85
722.266	-2.85
722.292	5.15
722.318	9.15
722.344	18.15
722.37	11.15
722.396	-7.85
722.422	-7.85
722.448	-4.85
722.474	-13.85
722.5	2.15
722.526	-2.85
722.552	5.15
722.578	13.15
722.603	3.15
722.629	-2.85
722.655	-1.85
722.681	-10.85
722.707	-15.85
722.733	-4.85
722.759	-3.85
722.785	-9.85
722.811	-13.85
722.837	8.15
722.863	-3.85
722.889	8.15
722.915	-13.85
722.941	3.15
722.967	-12.85
722.993	-2.85
723.019	0.15
723.045	-0.85
723.071	-10.85
723.097	2.15
723.122	-8.85
723.148	12.15
723.174	1.15
723.2	17.15
723.226	-5.85
723.252	2.15
723.278	-8.85
723.304	-7.85
723.33	-7.85
723.356	-4.85
723.381	-19.85
723.407	-8.85
723.433	-7.85
723.459	-5.85
723.485	-0.85
723.511	4.15
723.537	2.15
723.563	2.15
723.588	2.15
723.614	10.15
723.64	-9.85
723.666	2.15
723.692	0.15
723.718	3.15
723.744	-10.85
723.769	-10.85
723.795	-12.85
723.821	5.15
723.847	-2.85
723.873	0.15
723.899	3.15
723.924	4.15
723.95	-2.85
723.976	-14.85
724.002	5.15
724.028	5.15
724.053	-10.85
724.079	2.15
724.105	-2.85
724.131	-7.85
724.157	13.15
724.182	5.15
724.208	-7.85
724.234	0.15
724.26	-9.85
724.286	1.15
724.311	2.15
724.337	-22.85
724.363	-2.85
724.389	-2.85
724.415	0.15
724.44	11.15
724.466	-3.85
724.492	5.15
724.518	1.15
724.543	-6.85
724.569	-2.85
724.595	9.15
724.621	-8.85
724.646	2.15
724.672	-9.85
724.698	6.15
724.723	-25.85
724.749	4.15
724.775	11.15
724.801	5.15
724.826	-14.85
724.852	-16.85
724.878	-23.85
724.904	-11.85
724.929	13.15
724.955	-22.85
724.981	-5.85
725.006	10.15
725.032	-15.85
725.058	5.15
725.083	-7.85
725.109	-4.85
725.135	7.15
725.161	1.15
725.186	-9.85
725.212	0.15
725.238	-4.85
725.263	-6.85
725.289	-16.85
725.315	-32.85
725.34	-5.85
725.366	1.15
725.392	-0.85
725.417	-5.85
725.443	3.15
725.468	6.15
725.494	24.15
725.52	12.15
725.545	13.15
725.571	-3.85
725.597	-5.85
725.622	-4.85
725.648	-5.85
725.674	4.15
725.699	-2.85
725.725	-7.85
725.75	25.15
725.776	-11.85
725.802	-7.85
725.827	-11.85
725.853	8.15
725.878	-2.85
725.904	-0.85
725.93	1.15
725.955	-2.85
725.981	0.15
726.006	-9.85
726.032	-3.85
726.057	8.15
726.083	0.15
726.109	-6.85
726.134	-10.85
726.16	-22.85
726.185	-1.85
726.211	-14.85
726.236	-8.85
726.262	-6.85
726.288	13.15
726.313	9.15
726.339	7.15
726.364	-5.85
726.39	2.15
726.415	-1.85
726.441	-4.85
726.466	1.15
726.492	-2.85
726.517	1.15
726.543	-4.85
726.568	-12.85
726.594	-11.85
726.619	-0.85
726.645	8.15
726.67	1.15
726.696	12.15
726.721	-6.85
726.747	-18.85
726.772	5.15
726.798	-13.85
726.823	4.15
726.849	-7.85
726.874	4.15
726.9	24.15
726.925	0.15
726.951	-1.85
726.976	19.15
727.002	0.15
727.027	2.15
727.053	12.15
727.078	2.15
727.104	4.15
727.129	-2.85
727.155	-5.85
727.18	1.15
727.205	3.15
727.231	-3.85
727.256	6.15
727.282	13.15
727.307	2.15
727.333	2.15
727.358	-12.85
727.383	-11.85
727.409	-3.85
727.434	4.15
727.46	-9.85
727.485	-11.85
727.511	-0.85
727.536	-12.85
727.561	-3.85
727.587	-9.85
727.612	0.15
727.637	6.15
727.663	6.15
727.688	25.15
727.714	-10.85
727.739	-4.85
727.764	-4.85
727.79	-7.85
727.815	13.15
727.841	9.15
727.866	12.15
727.891	7.15
727.917	-13.85
727.942	0.15
727.967	1.15
727.993	-10.85
728.018	2.15
728.043	-1.85
728.069	6.15
728.094	25.15
728.119	4.15
728.145	12.15
728.17	5.15
728.195	-18.85
728.221	11.15
728.246	-1.85
728.271	-24.85
728.297	1.15
728.322	2.15
728.347	14.15
728.373	0.15
728.398	2.15
728.423	-11.85
728.448	6.15
728.474	7.15
728.499	5.15
728.524	-8.85
728.55	0.15
728.575	-3.85
728.6	-2.85
728.625	-3.85
728.651	1.15
728.676	-5.85
728.701	-9.85
728.727	-3.85
728.752	-9.85
728.777	4.15
728.802	-1.85
728.828	-15.85
728.853	1.15
728.878	-0.85
728.903	-5.85
728.929	-13.85
728.954	-1.85
728.979	9.15
729.004	6.15
729.03	-2.85
729.055	9.15
729.08	-9.85
729.105	-2.85
729.13	9.15
729.156	-2.85
729.181	7.15
729.206	-18.85
729.231	-15.85
729.256	9.15
729.282	-2.85
729.307	-23.85
729.332	-15.85
729.357	-9.85
729.382	4.15
729.408	-1.85
729.433	-1.85
729.458	-14.85
729.483	11.15
729.508	7.15
729.533	4.15
729.559	6.15
729.584	-13.85
729.609	0.15
729.634	6.15
729.659	2.15
729.684	-14.85
729.71	12.15
729.735	1.15
729.76	4.15
729.785	-5.85
729.81	13.15
729.835	-8.85
729.86	-18.85
729.886	11.15
729.911	13.15
729.936	-22.85
729.961	13.15
729.986	-9.85
730.011	-3.85
730.036	6.15
730.061	-0.85
730.086	-4.85
730.112	-7.85
730.137	11.15
730.162	3.15
730.187	-5.85
730.212	3.15
730.237	-7.85
730.262	0.15
730.287	-11.85
730.312	12.15
730.337	-4.85
730.362	24.15
730.387	1.15
730.413	-2.85
730.438	0.15
730.463	0.15
730.488	-4.85
730.513	-11.85
730.538	-12.85
730.563	3.15
730.588	7.15
730.613	8.15
730.638	-12.85
730.663	-9.85
730.688	14.15
730.713	3.15
730.738	-13.85
730.763	-4.85
730.788	-6.85
730.813	8.15
730.838	0.15
730.863	-2.85
730.888	-3.85
730.913	-19.85
730.938	-23.85
730.963	-9.85
730.988	-2.85
731.013	12.15
731.038	-8.85
731.063	-2.85
731.088	6.15
731.113	7.15
731.138	0.15
731.163	9.15
731.188	-9.85
731.213	6.15
731.238	18.15
731.263	-2.85
731.288	-9.85
731.313	6.15
731.338	-2.85
731.363	-4.85
731.388	14.15
731.413	5.15
731.438	2.15
731.463	-6.85
731.487	6.15
731.512	-2.85
731.537	-28.85
731.562	-13.85
731.587	2.15
731.612	-19.85
731.637	-4.85
731.662	-1.85
731.687	1.15
731.712	-5.85
731.737	-5.85
731.762	-10.85
731.786	2.15
731.811	8.15
731.836	7.15
731.861	9.15
731.886	-3.85
731.911	10.15
731.936	12.15
731.961	-2.85
731.986	3.15
732.01	2.15
732.035	3.15
732.06	10.15
732.085	-2.85
732.11	-5.85
732.135	-19.85
732.16	-6.85
732.184	-11.85
732.209	-5.85
732.234	5.15
732.259	-5.85
732.284	25.15
732.309	-19.85
732.334	-4.85
732.358	-18.85
732.383	-15.85
732.408	1.15
732.433	2.15
732.458	-10.85
732.482	-5.85
732.507	-2.85
732.532	-2.85
732.557	5.15
732.582	17.15
732.607	-11.85
732.631	-19.85
732.656	-5.85
732.681	-2.85
732.706	-4.85
732.73	-1.85
732.755	-10.85
732.78	-5.85
732.805	2.15
732.83	-5.85
732.854	-5.85
732.879	11.15
732.904	-7.85
732.929	-3.85
732.953	13.15
732.978	1.15
733.003	3.15
733.028	-21.85
733.052	3.15
733.077	-11.85
733.102	24.15
733.127	-0.85
733.151	-13.85
733.176	8.15
733.201	-15.85
733.226	-8.85
733.25	-1.85
733.275	1.15
733.3	-14.85
733.324	3.15
733.349	1.15
733.374	-2.85
733.399	6.15
733.423	2.15
733.448	13.15
733.473	-9.85
733.497	0.15
733.522	-7.85
733.547	-2.85
733.571	10.15
733.596	9.15
733.621	2.15
733.646	-9.85
733.67	-8.85
733.695	-9.85
733.72	19.15
733.744	-3.85
733.769	12.15
733.794	10.15
733.818	0.15
733.843	-12.85
733.867	-4.85
733.892	-11.85
733.917	1.15
733.941	-3.85
733.966	-5.85
733.991	-9.85
734.015	1.15
734.04	5.15
734.065	6.15
734.089	9.15
734.114	-8.85
734.138	-3.85
734.163	-0.85
734.188	6.15
734.212	14.15
734.237	10.15
734.261	2.15
734.286	4.15
734.311	-14.85
734.335	-5.85
734.36	-4.85
734.384	-7.85
734.409	-3.85
734.434	-6.85
734.458	-1.85
734.483	7.15
734.507	7.15
734.532	-7.85
734.556	11.15
734.581	-4.85
734.606	-5.85
734.63	-8.85
734.655	11.15
734.679	-1.85
734.704	-16.85
734.728	-4.85
734.753	3.15
734.777	5.15
734.802	0.15
734.826	-5.85
734.851	-7.85
734.876	10.15
734.9	0.15
734.925	2.15
734.949	5.15
734.974	7.15
734.998	4.15
735.023	-11.85
735.047	-13.85
735.072	30.15
735.096	0.15
735.121	-2.85
735.145	0.15
735.17	1.15
735.194	5.15
735.219	-1.85
735.243	5.15
735.268	2.15
735.292	17.15
735.317	2.15
735.341	-2.85
735.365	-7.85
735.39	2.15
735.414	-4.85
735.439	-13.85
735.463	-0.85
735.488	21.15
735.512	-0.85
735.537	8.15
735.561	-2.85
735.586	-8.85
735.61	6.15
735.634	-4.85
735.659	9.15
735.683	10.15
735.708	3.15
735.732	-2.85
735.757	0.15
735.781	-5.85
735.805	3.15
735.83	-7.85
735.854	-9.85
735.879	-4.85
735.903	21.15
735.927	1.15
735.952	9.15
735.976	-11.85
736.001	-2.85
736.025	-2.85
736.049	6.15
736.074	6.15
736.098	10.15
736.123	-2.85
736.147	-1.85
736.171	-2.85
736.196	1.15
736.22	-10.85
736.244	-3.85
736.269	6.15
736.293	-14.85
736.317	3.15
736.342	3.15
736.366	3.15
736.39	12.15
736.415	2.15
736.439	2.15
736.463	8.15
736.488	1.15
736.512	-2.85
736.536	1.15
736.561	21.15
736.585	-7.85
736.609	3.15
736.634	-9.85
736.658	1.15
736.682	2.15
736.707	-14.85
736.731	-12.85
736.755	-8.85
736.78	15.15
736.804	9.15
736.828	11.15
736.852	8.15
736.877	4.15
736.901	6.15
736.925	9.15
736.949	3.15
736.974	-5.85
736.998	-10.85
737.022	11.15
737.047	-2.85
737.071	-14.85
737.095	-2.85
737.119	13.15
737.144	8.15
737.168	-1.85
737.192	2.15
737.216	9.15
737.241	0.15
737.265	-10.85
737.289	-2.85
737.313	-7.85
737.337	12.15
737.362	-2.85
737.386	-1.85
737.41	-2.85
737.434	9.15
737.459	2.15
737.483	6.15
737.507	10.15
737.531	26.15
737.555	7.15
737.58	7.15
737.604	-7.85
737.628	-14.85
737.652	-7.85
737.676	1.15
737.701	3.15
737.725	17.15
737.749	10.15
737.773	2.15
737.797	-5.85
737.821	1.15
737.846	18.15
737.87	14.15
737.894	-3.85
737.918	-3.85
737.942	4.15
737.966	20.15
737.99	7.15
738.015	-4.85
738.039	12.15
738.063	5.15
738.087	0.15
738.111	-7.85
738.135	-0.85
738.159	1.15
738.184	5.15
738.208	5.15
738.232	1.15
738.256	7.15
738.28	5.15
738.304	13.15
738.328	-0.85
738.352	-3.85
738.376	1.15
738.4	7.15
738.425	5.15
738.449	-11.85
738.473	3.15
738.497	0.15
738.521	-5.85
738.545	8.15
738.569	19.15
738.593	20.15
738.617	5.15
738.641	-14.85
738.665	-2.85
738.689	3.15
738.713	0.15
738.737	3.15
738.762	18.15
738.786	-3.85
738.81	-6.85
738.834	20.15
738.858	-4.85
738.882	-2.85
738.906	-6.85
738.93	0.15
738.954	-3.85
738.978	24.15
739.002	-5.85
739.026	2.15
739.05	13.15
739.074	13.15
739.098	26.15
739.122	13.15
739.146	14.15
739.17	13.15
739.194	0.15
739.218	-3.85
739.242	10.15
739.266	-2.85
739.29	-1.85
739.314	2.15
739.338	-1.85
739.362	2.15
739.386	9.15
739.41	-18.85
739.434	-5.85
739.458	17.15
739.482	11.15
739.506	21.15
739.53	0.15
739.554	10.15
739.577	-9.85
739.601	7.15
739.625	-2.85
739.649	-15.85
739.673	-9.85
739.697	-3.85
739.721	-2.85
739.745	-1.85
739.769	11.15
739.793	20.15
739.817	1.15
739.841	5.15
739.865	1.15
739.889	-17.85
739.912	8.15
739.936	-4.85
739.96	-2.85
739.984	12.15
740.008	6.15
740.032	-6.85
740.056	-2.85
740.08	-3.85
740.104	-11.85
740.127	-3.85
740.151	-1.85
740.175	16.15
740.199	-8.85
740.223	29.15
740.247	5.15
740.271	13.15
740.295	-0.85
740.318	-7.85
740.342	3.15
740.366	9.15
740.39	1.15
740.414	10.15
740.438	-5.85
740.461	24.15
740.485	14.15
740.509	-23.85
740.533	-7.85
740.557	1.15
740.581	-1.85
740.604	-20.85
740.628	-4.85
740.652	5.15
740.676	-2.85
740.7	-0.85
740.723	0.15
740.747	-3.85
740.771	4.15
740.795	-7.85
740.819	5.15
740.842	1.15
740.866	7.15
740.89	2.15
740.914	-15.85
740.938	-18.85
740.961	13.15
740.985	-4.85
741.009	4.15
741.033	5.15
741.056	2.15
741.08	-2.85
741.104	0.15
741.128	0.15
741.151	2.15
741.175	6.15
741.199	7.15
741.223	10.15
741.246	-10.85
741.27	-7.85
741.294	7.15
741.318	-7.85
741.341	-7.85
741.365	-11.85
741.389	0.15
741.413	2.15
741.436	11.15
741.46	2.15
741.484	7.15
741.507	2.15
741.531	10.15
741.555	1.15
741.579	-0.85
741.602	-12.85
741.626	8.15
741.65	0.15
741.673	-1.85
741.697	-2.85
741.721	0.15
741.744	-0.85
741.768	-3.85
741.792	-3.85
741.815	-3.85
741.839	10.15
741.863	4.15
741.886	-3.85
741.91	11.15
741.934	-14.85
741.957	-10.85
741.981	4.15
742.005	-7.85
742.028	-11.85
742.052	-11.85
742.075	0.15
742.099	-2.85
742.123	-1.85
742.146	13.15
742.17	-2.85
742.194	-24.85
742.217	-2.85
742.241	-4.85
742.264	-2.85
742.288	9.15
742.312	-3.85
742.335	-11.85
742.359	0.15
742.382	17.15
742.406	4.15
742.43	-22.85
742.453	0.15
742.477	-13.85
742.5	-1.85
742.524	-16.85
742.548	8.15
742.571	0.15
742.595	-6.85
742.618	-7.85
742.642	1.15
742.665	6.15
742.689	-7.85
742.712	-1.85
742.736	-2.85
742.76	9.15
742.783	-2.85
742.807	1.15
742.83	8.15
742.854	-1.85
742.877	-12.85
742.901	2.15
742.924	-4.85
742.948	-6.85
742.971	-6.85
742.995	-6.85
743.018	-12.85
743.042	-0.85
743.065	-5.85
743.089	-5.85
743.112	5.15
743.136	4.15
743.159	-9.85
743.183	4.15
743.206	3.15
743.23	-0.85
743.253	0.15
743.277	3.15
743.3	-6.85
743.324	-9.85
743.347	-3.85
743.371	10.15
743.394	3.15
743.418	22.15
743.441	4.15
743.465	1.15
743.488	-2.85
743.512	-17.85
743.535	3.15
743.558	-2.85
743.582	4.15
743.605	-5.85
743.629	-7.85
743.652	5.15
743.676	-3.85
743.699	5.15
743.723	12.15
743.746	15.15
743.769	3.15
743.793	6.15
743.816	-14.85
743.84	4.15
743.863	6.15
743.886	11.15
743.91	14.15
743.933	12.15
743.957	2.15
743.98	-4.85
744.003	2.15
744.027	1.15
744.05	-17.85
744.074	-5.85
744.097	-11.85
744.12	6.15
744.144	-10.85
744.167	3.15
744.19	-6.85
744.214	-14.85
744.237	-7.85
744.26	16.15
744.284	0.15
744.307	-14.85
744.331	-6.85
744.354	-11.85
744.377	-3.85
744.401	-6.85
744.424	-0.85
744.447	-5.85
744.471	6.15
