Data from HighRes_H2D2_15_04_11_07_2024_HR4C61891__23__15-05-36-743.txt Node

Date: Thu Nov 07 15:05:36 EST 2024
User: crc00042
Spectrometer: HR4C6189
Trigger mode: 4
Integration Time (sec): 1.000000E-1
Scans to average: 1
Electric dark correction enabled: true
Nonlinearity correction enabled: false
Boxcar width: 0
XAxis mode: Wavelengths
Number of Pixels in Spectrum: 3648
>>>>>Begin Spectral Data<<<<<
639.567	-48.54
639.602	-48.54
639.636	-48.54
639.67	-25.54
639.704	-24.54
639.738	-6.54
639.773	16.46
639.807	1.46
639.841	8.46
639.875	4.46
639.909	0.46
639.943	-13.54
639.978	-11.54
640.012	4.46
640.046	-8.54
640.08	8.46
640.114	-1.54
640.148	-2.54
640.182	16.46
640.217	1.46
640.251	26.46
640.285	7.46
640.319	-6.54
640.353	10.46
640.387	3.46
640.421	-5.54
640.455	4.46
640.49	10.46
640.524	12.46
640.558	14.46
640.592	14.46
640.626	0.46
640.66	11.46
640.694	2.46
640.728	11.46
640.762	7.46
640.796	13.46
640.83	23.46
640.865	-21.54
640.899	-1.54
640.933	7.46
640.967	-2.54
641.001	5.46
641.035	8.46
641.069	7.46
641.103	5.46
641.137	-1.54
641.171	-8.54
641.205	14.46
641.239	-8.54
641.273	20.46
641.307	11.46
641.341	11.46
641.375	9.46
641.409	-15.54
641.443	-9.54
641.477	8.46
641.511	4.46
641.545	-10.54
641.579	-0.54
641.614	-5.54
641.648	8.46
641.682	-12.54
641.716	1.46
641.75	26.46
641.784	-6.54
641.818	-2.54
641.852	-0.54
641.886	-6.54
641.919	9.46
641.953	7.46
641.987	5.46
642.021	-12.54
642.055	4.46
642.089	1.46
642.123	-13.54
642.157	-4.54
642.191	-0.54
642.225	13.46
642.259	11.46
642.293	9.46
642.327	6.46
642.361	-11.54
642.395	9.46
642.429	16.46
642.463	13.46
642.497	2.46
642.531	-4.54
642.565	-16.54
642.599	7.46
642.633	-32.54
642.666	6.46
642.7	16.46
642.734	11.46
642.768	3.46
642.802	7.46
642.836	8.46
642.87	0.46
642.904	7.46
642.938	11.46
642.972	-1.54
643.005	3.46
643.039	10.46
643.073	1.46
643.107	19.46
643.141	0.46
643.175	15.46
643.209	3.46
643.243	-6.54
643.276	-8.54
643.31	-8.54
643.344	-4.54
643.378	7.46
643.412	5.46
643.446	15.46
643.48	9.46
643.513	12.46
643.547	2.46
643.581	2.46
643.615	5.46
643.649	-1.54
643.683	-6.54
643.716	1.46
643.75	10.46
643.784	3.46
643.818	0.46
643.852	-12.54
643.886	12.46
643.919	11.46
643.953	3.46
643.987	0.46
644.021	19.46
644.055	9.46
644.088	2.46
644.122	-3.54
644.156	-1.54
644.19	7.46
644.224	16.46
644.257	16.46
644.291	25.46
644.325	11.46
644.359	-6.54
644.392	13.46
644.426	16.46
644.46	16.46
644.494	6.46
644.527	-12.54
644.561	-16.54
644.595	13.46
644.629	-14.54
644.662	-23.54
644.696	20.46
644.73	13.46
644.764	-1.54
644.797	2.46
644.831	-15.54
644.865	23.46
644.899	1.46
644.932	15.46
644.966	-5.54
645	14.46
645.033	4.46
645.067	-15.54
645.101	15.46
645.135	8.46
645.168	4.46
645.202	-12.54
645.236	-2.54
645.269	6.46
645.303	-13.54
645.337	3.46
645.37	-15.54
645.404	3.46
645.438	3.46
645.471	0.46
645.505	14.46
645.539	-6.54
645.572	-7.54
645.606	3.46
645.64	-3.54
645.673	-6.54
645.707	15.46
645.741	13.46
645.774	5.46
645.808	9.46
645.842	3.46
645.875	20.46
645.909	-5.54
645.943	1.46
645.976	-2.54
646.01	13.46
646.043	30.46
646.077	11.46
646.111	9.46
646.144	9.46
646.178	19.46
646.212	3.46
646.245	2.46
646.279	0.46
646.312	0.46
646.346	12.46
646.38	2.46
646.413	-2.54
646.447	-3.54
646.48	-0.54
646.514	3.46
646.547	-1.54
646.581	9.46
646.615	8.46
646.648	-6.54
646.682	-12.54
646.715	2.46
646.749	13.46
646.782	4.46
646.816	-6.54
646.85	16.46
646.883	-8.54
646.917	-10.54
646.95	6.46
646.984	11.46
647.017	3.46
647.051	10.46
647.084	-3.54
647.118	8.46
647.151	12.46
647.185	5.46
647.218	1.46
647.252	12.46
647.285	-4.54
647.319	5.46
647.353	7.46
647.386	9.46
647.42	3.46
647.453	-0.54
647.487	12.46
647.52	20.46
647.553	11.46
647.587	0.46
647.62	16.46
647.654	-6.54
647.687	11.46
647.721	15.46
647.754	17.46
647.788	12.46
647.821	-0.54
647.855	6.46
647.888	25.46
647.922	9.46
647.955	11.46
647.989	-4.54
648.022	-7.54
648.055	17.46
648.089	6.46
648.122	16.46
648.156	-4.54
648.189	2.46
648.223	5.46
648.256	14.46
648.29	11.46
648.323	9.46
648.356	18.46
648.39	-9.54
648.423	17.46
648.457	9.46
648.49	4.46
648.523	1.46
648.557	15.46
648.59	10.46
648.624	6.46
648.657	-13.54
648.69	20.46
648.724	4.46
648.757	16.46
648.791	6.46
648.824	18.46
648.857	29.46
648.891	11.46
648.924	11.46
648.957	5.46
648.991	-12.54
649.024	10.46
649.057	5.46
649.091	-10.54
649.124	5.46
649.158	13.46
649.191	19.46
649.224	1.46
649.258	4.46
649.291	1.46
649.324	15.46
649.358	16.46
649.391	5.46
649.424	2.46
649.458	3.46
649.491	19.46
649.524	-17.54
649.557	-6.54
649.591	-10.54
649.624	7.46
649.657	-16.54
649.691	3.46
649.724	5.46
649.757	14.46
649.791	-14.54
649.824	7.46
649.857	11.46
649.89	13.46
649.924	-5.54
649.957	7.46
649.99	-7.54
650.023	5.46
650.057	-8.54
650.09	15.46
650.123	-3.54
650.157	12.46
650.19	24.46
650.223	-8.54
650.256	9.46
650.29	15.46
650.323	26.46
650.356	13.46
650.389	6.46
650.423	-10.54
650.456	7.46
650.489	7.46
650.522	13.46
650.555	12.46
650.589	15.46
650.622	-0.54
650.655	29.46
650.688	-5.54
650.721	8.46
650.755	15.46
650.788	16.46
650.821	6.46
650.854	-5.54
650.887	1.46
650.921	-6.54
650.954	3.46
650.987	7.46
651.02	-1.54
651.053	1.46
651.087	-11.54
651.12	14.46
651.153	13.46
651.186	2.46
651.219	1.46
651.252	0.46
651.286	14.46
651.319	-0.54
651.352	7.46
651.385	8.46
651.418	3.46
651.451	10.46
651.484	12.46
651.518	-0.54
651.551	28.46
651.584	4.46
651.617	30.46
651.65	-8.54
651.683	7.46
651.716	12.46
651.749	-9.54
651.783	10.46
651.816	14.46
651.849	0.46
651.882	16.46
651.915	9.46
651.948	13.46
651.981	-5.54
652.014	11.46
652.047	9.46
652.08	-7.54
652.114	8.46
652.147	6.46
652.18	6.46
652.213	38.46
652.246	-0.54
652.279	22.46
652.312	16.46
652.345	-3.54
652.378	10.46
652.411	26.46
652.444	3.46
652.477	9.46
652.51	7.46
652.543	-7.54
652.576	-4.54
652.609	-3.54
652.642	8.46
652.675	12.46
652.709	4.46
652.742	-2.54
652.775	5.46
652.808	10.46
652.841	-0.54
652.874	6.46
652.907	14.46
652.94	10.46
652.973	-5.54
653.006	-0.54
653.039	5.46
653.072	6.46
653.105	-1.54
653.138	-18.54
653.171	10.46
653.204	14.46
653.237	-4.54
653.27	-23.54
653.303	6.46
653.336	23.46
653.368	-5.54
653.401	11.46
653.434	-1.54
653.467	23.46
653.5	-3.54
653.533	13.46
653.566	5.46
653.599	8.46
653.632	13.46
653.665	31.46
653.698	-6.54
653.731	-2.54
653.764	16.46
653.797	14.46
653.83	16.46
653.863	24.46
653.896	-1.54
653.929	3.46
653.961	-8.54
653.994	13.46
654.027	-0.54
654.06	13.46
654.093	18.46
654.126	20.46
654.159	-4.54
654.192	3.46
654.225	-0.54
654.258	2.46
654.29	17.46
654.323	-1.54
654.356	-8.54
654.389	3.46
654.422	2.46
654.455	22.46
654.488	0.46
654.521	-12.54
654.553	-9.54
654.586	20.46
654.619	4.46
654.652	5.46
654.685	19.46
654.718	23.46
654.751	20.46
654.783	12.46
654.816	20.46
654.849	7.46
654.882	-9.54
654.915	-13.54
654.948	10.46
654.98	1.46
655.013	1.46
655.046	0.46
655.079	-3.54
655.112	-5.54
655.144	-8.54
655.177	-1.54
655.21	14.46
655.243	24.46
655.276	7.46
655.308	7.46
655.341	-4.54
655.374	19.46
655.407	11.46
655.44	2.46
655.472	19.46
655.505	15.46
655.538	-3.54
655.571	13.46
655.603	14.46
655.636	13.46
655.669	17.46
655.702	11.46
655.734	6.46
655.767	13.46
655.8	9.46
655.833	12.46
655.865	24.46
655.898	16.46
655.931	16.46
655.964	18.46
655.996	19.46
656.029	50.46
656.062	32.46
656.095	52.46
656.127	95.46
656.16	216.46
656.193	623.46
656.225	950.46
656.258	555.46
656.291	213.46
656.324	157.46
656.356	354.46
656.389	777.46
656.422	670.46
656.454	237.46
656.487	77.46
656.52	43.46
656.552	29.46
656.585	19.46
656.618	4.46
656.65	31.46
656.683	-0.54
656.716	-3.54
656.748	2.46
656.781	-9.54
656.814	1.46
656.846	17.46
656.879	7.46
656.912	5.46
656.944	0.46
656.977	-3.54
657.01	0.46
657.042	11.46
657.075	12.46
657.108	2.46
657.14	-1.54
657.173	20.46
657.205	30.46
657.238	15.46
657.271	5.46
657.303	-9.54
657.336	3.46
657.369	-0.54
657.401	8.46
657.434	6.46
657.466	3.46
657.499	8.46
657.532	5.46
657.564	17.46
657.597	9.46
657.629	25.46
657.662	24.46
657.694	3.46
657.727	-13.54
657.76	8.46
657.792	-13.54
657.825	3.46
657.857	1.46
657.89	4.46
657.922	5.46
657.955	-0.54
657.987	7.46
658.02	15.46
658.053	17.46
658.085	7.46
658.118	-0.54
658.15	11.46
658.183	8.46
658.215	-4.54
658.248	-3.54
658.28	-13.54
658.313	19.46
658.345	30.46
658.378	12.46
658.41	-9.54
658.443	14.46
658.475	-2.54
658.508	-2.54
658.54	14.46
658.573	3.46
658.605	-8.54
658.638	-9.54
658.67	0.46
658.703	12.46
658.735	2.46
658.768	8.46
658.8	-13.54
658.833	22.46
658.865	23.46
658.898	8.46
658.93	-12.54
658.963	2.46
658.995	5.46
659.028	6.46
659.06	12.46
659.092	11.46
659.125	7.46
659.157	9.46
659.19	-13.54
659.222	-8.54
659.255	4.46
659.287	-4.54
659.32	-1.54
659.352	-7.54
659.384	3.46
659.417	-5.54
659.449	-0.54
659.482	5.46
659.514	-5.54
659.546	-1.54
659.579	-10.54
659.611	1.46
659.644	0.46
659.676	-0.54
659.708	-12.54
659.741	-4.54
659.773	10.46
659.806	9.46
659.838	4.46
659.87	12.46
659.903	-2.54
659.935	15.46
659.967	8.46
660	7.46
660.032	-4.54
660.065	18.46
660.097	-7.54
660.129	-2.54
660.162	-14.54
660.194	11.46
660.226	4.46
660.259	23.46
660.291	-13.54
660.323	-0.54
660.356	8.46
660.388	-7.54
660.42	11.46
660.453	28.46
660.485	12.46
660.517	11.46
660.55	15.46
660.582	3.46
660.614	8.46
660.647	2.46
660.679	-4.54
660.711	-0.54
660.743	-5.54
660.776	-12.54
660.808	-6.54
660.84	1.46
660.873	7.46
660.905	12.46
660.937	-10.54
660.969	-1.54
661.002	-9.54
661.034	13.46
661.066	1.46
661.099	2.46
661.131	7.46
661.163	2.46
661.195	-11.54
661.228	16.46
661.26	-1.54
661.292	5.46
661.324	11.46
661.357	9.46
661.389	2.46
661.421	-1.54
661.453	-5.54
661.485	-4.54
661.518	5.46
661.55	-7.54
661.582	-7.54
661.614	-3.54
661.647	-1.54
661.679	-9.54
661.711	4.46
661.743	-17.54
661.775	5.46
661.808	16.46
661.84	-9.54
661.872	10.46
661.904	7.46
661.936	11.46
661.969	-14.54
662.001	-0.54
662.033	15.46
662.065	6.46
662.097	1.46
662.129	13.46
662.162	4.46
662.194	8.46
662.226	6.46
662.258	14.46
662.29	-3.54
662.322	-8.54
662.355	-5.54
662.387	23.46
662.419	13.46
662.451	8.46
662.483	15.46
662.515	-4.54
662.547	-12.54
662.58	-17.54
662.612	-9.54
662.644	-11.54
662.676	-3.54
662.708	21.46
662.74	-1.54
662.772	5.46
662.804	13.46
662.836	4.46
662.869	3.46
662.901	8.46
662.933	-1.54
662.965	10.46
662.997	2.46
663.029	-6.54
663.061	-9.54
663.093	-3.54
663.125	-6.54
663.157	11.46
663.189	-3.54
663.221	12.46
663.254	4.46
663.286	-0.54
663.318	1.46
663.35	-14.54
663.382	4.46
663.414	4.46
663.446	-5.54
663.478	-1.54
663.51	5.46
663.542	1.46
663.574	2.46
663.606	7.46
663.638	3.46
663.67	0.46
663.702	-1.54
663.734	8.46
663.766	3.46
663.798	-4.54
663.83	-0.54
663.862	13.46
663.894	14.46
663.926	0.46
663.958	20.46
663.99	-14.54
664.022	-5.54
664.054	5.46
664.086	-4.54
664.118	-12.54
664.15	-12.54
664.182	-1.54
664.214	-7.54
664.246	10.46
664.278	-9.54
664.31	14.46
664.342	7.46
664.374	-2.54
664.406	7.46
664.438	-4.54
664.47	22.46
664.502	14.46
664.534	7.46
664.566	-9.54
664.598	2.46
664.63	5.46
664.662	0.46
664.693	-4.54
664.725	9.46
664.757	-0.54
664.789	-13.54
664.821	10.46
664.853	16.46
664.885	10.46
664.917	-4.54
664.949	23.46
664.981	8.46
665.013	-5.54
665.045	-11.54
665.076	9.46
665.108	2.46
665.14	-1.54
665.172	6.46
665.204	1.46
665.236	-2.54
665.268	15.46
665.3	-5.54
665.331	14.46
665.363	4.46
665.395	-6.54
665.427	-9.54
665.459	9.46
665.491	6.46
665.523	2.46
665.555	11.46
665.586	10.46
665.618	-1.54
665.65	-12.54
665.682	11.46
665.714	0.46
665.746	4.46
665.777	-3.54
665.809	0.46
665.841	6.46
665.873	-19.54
665.905	5.46
665.937	5.46
665.968	2.46
666	-5.54
666.032	-0.54
666.064	-5.54
666.096	-11.54
666.127	5.46
666.159	21.46
666.191	21.46
666.223	9.46
666.255	5.46
666.286	12.46
666.318	-5.54
666.35	19.46
666.382	20.46
666.413	-2.54
666.445	-20.54
666.477	-13.54
666.509	6.46
666.54	0.46
666.572	-1.54
666.604	1.46
666.636	6.46
666.667	22.46
666.699	7.46
666.731	12.46
666.763	-12.54
666.794	1.46
666.826	-4.54
666.858	-8.54
666.89	9.46
666.921	3.46
666.953	12.46
666.985	12.46
667.017	32.46
667.048	19.46
667.08	12.46
667.112	5.46
667.143	9.46
667.175	-5.54
667.207	-0.54
667.238	10.46
667.27	-7.54
667.302	-5.54
667.334	-1.54
667.365	2.46
667.397	9.46
667.429	1.46
667.46	-1.54
667.492	-1.54
667.524	-5.54
667.555	-6.54
667.587	4.46
667.619	-3.54
667.65	-14.54
667.682	17.46
667.714	5.46
667.745	6.46
667.777	27.46
667.808	12.46
667.84	16.46
667.872	17.46
667.903	31.46
667.935	10.46
667.967	4.46
667.998	6.46
668.03	-0.54
668.061	3.46
668.093	8.46
668.125	11.46
668.156	19.46
668.188	-0.54
668.22	7.46
668.251	12.46
668.283	-0.54
668.314	-9.54
668.346	-14.54
668.377	8.46
668.409	-9.54
668.441	16.46
668.472	13.46
668.504	14.46
668.535	9.46
668.567	12.46
668.599	-1.54
668.63	-4.54
668.662	-7.54
668.693	24.46
668.725	5.46
668.756	-0.54
668.788	-3.54
668.819	-11.54
668.851	5.46
668.882	-4.54
668.914	-0.54
668.946	6.46
668.977	-8.54
669.009	14.46
669.04	-4.54
669.072	3.46
669.103	-4.54
669.135	7.46
669.166	3.46
669.198	-0.54
669.229	11.46
669.261	-4.54
669.292	1.46
669.324	8.46
669.355	3.46
669.387	-0.54
669.418	12.46
669.45	4.46
669.481	-7.54
669.513	11.46
669.544	6.46
669.576	-1.54
669.607	17.46
669.639	10.46
669.67	-8.54
669.701	10.46
669.733	-4.54
669.764	-3.54
669.796	0.46
669.827	-1.54
669.859	1.46
669.89	16.46
669.922	19.46
669.953	15.46
669.985	17.46
670.016	22.46
670.047	0.46
670.079	2.46
670.11	11.46
670.142	13.46
670.173	4.46
670.204	5.46
670.236	2.46
670.267	-11.54
670.299	4.46
670.33	-1.54
670.362	1.46
670.393	-5.54
670.424	8.46
670.456	-15.54
670.487	-1.54
670.518	2.46
670.55	20.46
670.581	-2.54
670.613	-5.54
670.644	4.46
670.675	-1.54
670.707	3.46
670.738	11.46
670.769	11.46
670.801	-4.54
670.832	14.46
670.864	-7.54
670.895	11.46
670.926	16.46
670.958	15.46
670.989	-0.54
671.02	13.46
671.052	-0.54
671.083	2.46
671.114	-11.54
671.146	6.46
671.177	-2.54
671.208	-2.54
671.24	0.46
671.271	0.46
671.302	7.46
671.333	-9.54
671.365	-3.54
671.396	2.46
671.427	-0.54
671.459	-3.54
671.49	2.46
671.521	25.46
671.553	19.46
671.584	10.46
671.615	-17.54
671.646	8.46
671.678	-3.54
671.709	5.46
671.74	-6.54
671.771	2.46
671.803	-0.54
671.834	12.46
671.865	-8.54
671.896	10.46
671.928	12.46
671.959	-12.54
671.99	-1.54
672.021	4.46
672.053	8.46
672.084	10.46
672.115	2.46
672.146	-13.54
672.178	-4.54
672.209	-4.54
672.24	-0.54
672.271	30.46
672.303	-5.54
672.334	2.46
672.365	-0.54
672.396	-0.54
672.427	10.46
672.459	6.46
672.49	34.46
672.521	11.46
672.552	19.46
672.583	5.46
672.615	0.46
672.646	14.46
672.677	-2.54
672.708	-22.54
672.739	7.46
672.77	22.46
672.802	13.46
672.833	11.46
672.864	1.46
672.895	-0.54
672.926	-7.54
672.957	-3.54
672.989	8.46
673.02	9.46
673.051	15.46
673.082	-1.54
673.113	-0.54
673.144	8.46
673.175	4.46
673.206	-7.54
673.238	-5.54
673.269	1.46
673.3	-14.54
673.331	17.46
673.362	7.46
673.393	-1.54
673.424	12.46
673.455	25.46
673.487	18.46
673.518	20.46
673.549	4.46
673.58	6.46
673.611	-1.54
673.642	-7.54
673.673	-17.54
673.704	2.46
673.735	7.46
673.766	3.46
673.797	2.46
673.828	-12.54
673.86	-7.54
673.891	-4.54
673.922	3.46
673.953	-5.54
673.984	5.46
674.015	25.46
674.046	9.46
674.077	18.46
674.108	-12.54
674.139	7.46
674.17	-11.54
674.201	-0.54
674.232	-5.54
674.263	-5.54
674.294	-3.54
674.325	-1.54
674.356	34.46
674.387	16.46
674.418	4.46
674.449	-1.54
674.48	-8.54
674.511	10.46
674.542	20.46
674.573	9.46
674.604	13.46
674.635	-6.54
674.666	21.46
674.697	15.46
674.728	12.46
674.759	7.46
674.79	13.46
674.821	-5.54
674.852	2.46
674.883	-1.54
674.914	13.46
674.945	9.46
674.976	-11.54
675.007	-4.54
675.038	4.46
675.069	-1.54
675.1	-7.54
675.131	-1.54
675.162	-14.54
675.193	-18.54
675.224	-1.54
675.254	22.46
675.285	16.46
675.316	16.46
675.347	15.46
675.378	10.46
675.409	-1.54
675.44	4.46
675.471	11.46
675.502	10.46
675.533	-2.54
675.564	7.46
675.595	-6.54
675.625	18.46
675.656	8.46
675.687	3.46
675.718	-2.54
675.749	1.46
675.78	0.46
675.811	-13.54
675.842	5.46
675.873	-10.54
675.903	1.46
675.934	4.46
675.965	9.46
675.996	6.46
676.027	3.46
676.058	5.46
676.089	-4.54
676.119	7.46
676.15	6.46
676.181	-2.54
676.212	6.46
676.243	12.46
676.274	-3.54
676.304	30.46
676.335	-13.54
676.366	7.46
676.397	5.46
676.428	-0.54
676.459	-3.54
676.489	13.46
676.52	11.46
676.551	13.46
676.582	-5.54
676.613	-4.54
676.643	-15.54
676.674	1.46
676.705	-8.54
676.736	-0.54
676.767	27.46
676.797	35.46
676.828	28.46
676.859	-3.54
676.89	13.46
676.92	-0.54
676.951	8.46
676.982	13.46
677.013	3.46
677.044	8.46
677.074	8.46
677.105	0.46
677.136	16.46
677.167	3.46
677.197	17.46
677.228	15.46
677.259	2.46
677.289	-3.54
677.32	-10.54
677.351	-8.54
677.382	2.46
677.412	-16.54
677.443	4.46
677.474	6.46
677.505	5.46
677.535	-11.54
677.566	-11.54
677.597	-0.54
677.627	4.46
677.658	-4.54
677.689	2.46
677.72	8.46
677.75	9.46
677.781	3.46
677.812	-2.54
677.842	17.46
677.873	4.46
677.904	-3.54
677.934	5.46
677.965	-10.54
677.996	-8.54
678.026	9.46
678.057	6.46
678.088	-14.54
678.118	10.46
678.149	-8.54
678.18	-12.54
678.21	9.46
678.241	-2.54
678.272	0.46
678.302	22.46
678.333	2.46
678.363	6.46
678.394	17.46
678.425	3.46
678.455	-1.54
678.486	16.46
678.517	-3.54
678.547	14.46
678.578	2.46
678.608	1.46
678.639	0.46
678.67	-10.54
678.7	-9.54
678.731	-16.54
678.761	0.46
678.792	15.46
678.823	17.46
678.853	7.46
678.884	-15.54
678.914	6.46
678.945	2.46
678.975	10.46
679.006	12.46
679.037	-7.54
679.067	7.46
679.098	2.46
679.128	-7.54
679.159	-11.54
679.189	24.46
679.22	12.46
679.25	8.46
679.281	10.46
679.312	3.46
679.342	-5.54
679.373	24.46
679.403	4.46
679.434	11.46
679.464	-7.54
679.495	14.46
679.525	8.46
679.556	8.46
679.586	21.46
679.617	17.46
679.647	14.46
679.678	3.46
679.708	5.46
679.739	-7.54
679.769	-2.54
679.8	-2.54
679.83	9.46
679.861	-1.54
679.891	5.46
679.922	-5.54
679.952	2.46
679.983	10.46
680.013	28.46
680.044	7.46
680.074	5.46
680.105	6.46
680.135	8.46
680.165	14.46
680.196	2.46
680.226	6.46
680.257	21.46
680.287	-1.54
680.318	11.46
680.348	-9.54
680.379	15.46
680.409	0.46
680.439	-4.54
680.47	-5.54
680.5	2.46
680.531	-12.54
680.561	7.46
680.592	6.46
680.622	22.46
680.652	-7.54
680.683	3.46
680.713	-3.54
680.744	0.46
680.774	-5.54
680.804	32.46
680.835	-3.54
680.865	-3.54
680.896	15.46
680.926	16.46
680.956	12.46
680.987	2.46
681.017	3.46
681.047	1.46
681.078	1.46
681.108	-1.54
681.139	9.46
681.169	0.46
681.199	5.46
681.23	15.46
681.26	8.46
681.29	7.46
681.321	6.46
681.351	9.46
681.381	-16.54
681.412	-2.54
681.442	7.46
681.472	14.46
681.503	9.46
681.533	-1.54
681.563	-9.54
681.594	7.46
681.624	-2.54
681.654	8.46
681.685	-1.54
681.715	13.46
681.745	20.46
681.775	-0.54
681.806	2.46
681.836	7.46
681.866	-13.54
681.897	3.46
681.927	12.46
681.957	-6.54
681.987	3.46
682.018	1.46
682.048	-6.54
682.078	7.46
682.109	14.46
682.139	15.46
682.169	9.46
682.199	8.46
682.23	-13.54
682.26	6.46
682.29	-7.54
682.32	3.46
682.351	11.46
682.381	3.46
682.411	-7.54
682.441	6.46
682.472	-6.54
682.502	8.46
682.532	3.46
682.562	14.46
682.592	18.46
682.623	14.46
682.653	0.46
682.683	-2.54
682.713	28.46
682.743	1.46
682.774	1.46
682.804	-0.54
682.834	25.46
682.864	-8.54
682.894	4.46
682.925	-1.54
682.955	-3.54
682.985	-4.54
683.015	0.46
683.045	13.46
683.076	-5.54
683.106	-6.54
683.136	-1.54
683.166	1.46
683.196	12.46
683.226	-2.54
683.257	-1.54
683.287	-4.54
683.317	-12.54
683.347	1.46
683.377	-2.54
683.407	3.46
683.437	11.46
683.468	1.46
683.498	-4.54
683.528	-0.54
683.558	3.46
683.588	-7.54
683.618	-5.54
683.648	3.46
683.678	14.46
683.708	5.46
683.739	-10.54
683.769	11.46
683.799	11.46
683.829	8.46
683.859	11.46
683.889	19.46
683.919	-6.54
683.949	-2.54
683.979	-5.54
684.009	-1.54
684.039	4.46
684.07	1.46
684.1	19.46
684.13	21.46
684.16	2.46
684.19	-21.54
684.22	10.46
684.25	4.46
684.28	-8.54
684.31	14.46
684.34	5.46
684.37	3.46
684.4	-9.54
684.43	6.46
684.46	-2.54
684.49	0.46
684.52	-0.54
684.55	28.46
684.58	-0.54
684.61	-2.54
684.64	8.46
684.67	-5.54
684.7	5.46
684.73	20.46
684.76	3.46
684.79	13.46
684.82	-4.54
684.85	-5.54
684.88	5.46
684.91	9.46
684.94	-1.54
684.97	-0.54
685	0.46
685.03	9.46
685.06	1.46
685.09	4.46
685.12	10.46
685.15	-12.54
685.18	7.46
685.21	17.46
685.24	6.46
685.27	10.46
685.3	6.46
685.33	10.46
685.36	-11.54
685.39	10.46
685.42	8.46
685.45	5.46
685.48	21.46
685.51	17.46
685.54	18.46
685.569	-0.54
685.599	-4.54
685.629	-0.54
685.659	4.46
685.689	15.46
685.719	-0.54
685.749	-5.54
685.779	9.46
685.809	14.46
685.839	3.46
685.869	10.46
685.898	17.46
685.928	10.46
685.958	7.46
685.988	23.46
686.018	-3.54
686.048	11.46
686.078	10.46
686.108	19.46
686.137	12.46
686.167	13.46
686.197	-17.54
686.227	-0.54
686.257	15.46
686.287	11.46
686.317	13.46
686.346	6.46
686.376	2.46
686.406	-4.54
686.436	1.46
686.466	-5.54
686.496	9.46
686.525	-2.54
686.555	11.46
686.585	13.46
686.615	27.46
686.645	11.46
686.675	-15.54
686.704	4.46
686.734	11.46
686.764	-0.54
686.794	2.46
686.824	-4.54
686.853	12.46
686.883	12.46
686.913	26.46
686.943	2.46
686.973	3.46
687.002	20.46
687.032	22.46
687.062	0.46
687.092	5.46
687.121	10.46
687.151	-0.54
687.181	1.46
687.211	12.46
687.24	0.46
687.27	6.46
687.3	5.46
687.33	12.46
687.359	-5.54
687.389	9.46
687.419	-2.54
687.449	10.46
687.478	19.46
687.508	7.46
687.538	13.46
687.568	-1.54
687.597	7.46
687.627	15.46
687.657	3.46
687.686	13.46
687.716	28.46
687.746	-1.54
687.776	-11.54
687.805	6.46
687.835	-17.54
687.865	18.46
687.894	25.46
687.924	19.46
687.954	1.46
687.983	-5.54
688.013	16.46
688.043	4.46
688.072	18.46
688.102	23.46
688.132	9.46
688.161	0.46
688.191	2.46
688.221	14.46
688.25	5.46
688.28	20.46
688.31	8.46
688.339	10.46
688.369	-17.54
688.399	-0.54
688.428	13.46
688.458	10.46
688.488	11.46
688.517	6.46
688.547	-0.54
688.576	41.46
688.606	18.46
688.636	-2.54
688.665	16.46
688.695	10.46
688.725	12.46
688.754	0.46
688.784	-8.54
688.813	21.46
688.843	10.46
688.873	0.46
688.902	0.46
688.932	-8.54
688.961	17.46
688.991	14.46
689.02	11.46
689.05	-3.54
689.08	7.46
689.109	0.46
689.139	3.46
689.168	7.46
689.198	-4.54
689.227	-8.54
689.257	4.46
689.287	13.46
689.316	16.46
689.346	-14.54
689.375	-4.54
689.405	12.46
689.434	-7.54
689.464	10.46
689.493	1.46
689.523	5.46
689.552	4.46
689.582	1.46
689.611	4.46
689.641	20.46
689.67	15.46
689.7	2.46
689.73	13.46
689.759	10.46
689.789	23.46
689.818	4.46
689.848	7.46
689.877	19.46
689.906	17.46
689.936	7.46
689.965	14.46
689.995	-2.54
690.024	5.46
690.054	5.46
690.083	8.46
690.113	10.46
690.142	-6.54
690.172	1.46
690.201	-9.54
690.231	-4.54
690.26	15.46
690.29	0.46
690.319	22.46
690.348	-27.54
690.378	-1.54
690.407	3.46
690.437	-6.54
690.466	9.46
690.496	-1.54
690.525	7.46
690.555	-4.54
690.584	5.46
690.613	-0.54
690.643	10.46
690.672	9.46
690.702	13.46
690.731	11.46
690.76	-0.54
690.79	-17.54
690.819	11.46
690.849	7.46
690.878	-0.54
690.907	1.46
690.937	10.46
690.966	3.46
690.996	15.46
691.025	-5.54
691.054	11.46
691.084	4.46
691.113	-3.54
691.142	7.46
691.172	6.46
691.201	18.46
691.23	2.46
691.26	16.46
691.289	7.46
691.319	6.46
691.348	-1.54
691.377	16.46
691.407	5.46
691.436	7.46
691.465	16.46
691.495	8.46
691.524	9.46
691.553	-5.54
691.583	-3.54
691.612	-0.54
691.641	-7.54
691.67	13.46
691.7	13.46
691.729	-10.54
691.758	-4.54
691.788	4.46
691.817	-6.54
691.846	0.46
691.876	0.46
691.905	4.46
691.934	-6.54
691.963	8.46
691.993	-1.54
692.022	-7.54
692.051	-3.54
692.081	12.46
692.11	7.46
692.139	26.46
692.168	10.46
692.198	30.46
692.227	12.46
692.256	15.46
692.285	3.46
692.315	-2.54
692.344	6.46
692.373	4.46
692.402	-22.54
692.432	-17.54
692.461	1.46
692.49	-3.54
692.519	-0.54
692.548	20.46
692.578	15.46
692.607	11.46
692.636	-2.54
692.665	24.46
692.694	-4.54
692.724	-3.54
692.753	8.46
692.782	24.46
692.811	8.46
692.84	18.46
692.87	7.46
692.899	9.46
692.928	-0.54
692.957	10.46
692.986	10.46
693.016	6.46
693.045	11.46
693.074	24.46
693.103	1.46
693.132	1.46
693.161	11.46
693.191	-14.54
693.22	-22.54
693.249	-2.54
693.278	8.46
693.307	25.46
693.336	-15.54
693.365	-5.54
693.395	4.46
693.424	3.46
693.453	25.46
693.482	22.46
693.511	35.46
693.54	2.46
693.569	27.46
693.598	32.46
693.628	20.46
693.657	-1.54
693.686	15.46
693.715	14.46
693.744	14.46
693.773	12.46
693.802	14.46
693.831	5.46
693.86	16.46
693.889	3.46
693.919	-0.54
693.948	17.46
693.977	5.46
694.006	-7.54
694.035	8.46
694.064	-6.54
694.093	2.46
694.122	3.46
694.151	4.46
694.18	9.46
694.209	17.46
694.238	16.46
694.267	13.46
694.296	-1.54
694.325	6.46
694.354	16.46
694.383	11.46
694.412	16.46
694.441	-17.54
694.471	-7.54
694.5	3.46
694.529	8.46
694.558	33.46
694.587	13.46
694.616	-4.54
694.645	8.46
694.674	22.46
694.703	30.46
694.732	10.46
694.761	27.46
694.79	3.46
694.819	-0.54
694.848	-0.54
694.877	24.46
694.906	32.46
694.935	4.46
694.963	-0.54
694.992	20.46
695.021	24.46
695.05	27.46
695.079	18.46
695.108	9.46
695.137	32.46
695.166	1.46
695.195	-0.54
695.224	12.46
695.253	16.46
695.282	17.46
695.311	17.46
695.34	10.46
695.369	15.46
695.398	8.46
695.427	15.46
695.456	10.46
695.485	17.46
695.513	11.46
695.542	-1.54
695.571	17.46
695.6	9.46
695.629	24.46
695.658	5.46
695.687	1.46
695.716	4.46
695.745	30.46
695.774	-5.54
695.802	4.46
695.831	10.46
695.86	20.46
695.889	22.46
695.918	15.46
695.947	16.46
695.976	6.46
696.005	12.46
696.033	17.46
696.062	11.46
696.091	6.46
696.12	9.46
696.149	0.46
696.178	-3.54
696.207	16.46
696.235	-6.54
696.264	11.46
696.293	14.46
696.322	6.46
696.351	15.46
696.38	1.46
696.408	15.46
696.437	7.46
696.466	5.46
696.495	14.46
696.524	5.46
696.553	21.46
696.581	30.46
696.61	4.46
696.639	7.46
696.668	4.46
696.697	10.46
696.725	2.46
696.754	9.46
696.783	-8.54
696.812	-3.54
696.84	2.46
696.869	10.46
696.898	5.46
696.927	7.46
696.956	23.46
696.984	11.46
697.013	16.46
697.042	7.46
697.071	25.46
697.099	25.46
697.128	15.46
697.157	17.46
697.186	3.46
697.214	7.46
697.243	15.46
697.272	9.46
697.301	14.46
697.329	23.46
697.358	12.46
697.387	21.46
697.415	8.46
697.444	8.46
697.473	12.46
697.502	-7.54
697.53	7.46
697.559	-0.54
697.588	7.46
697.616	12.46
697.645	12.46
697.674	12.46
697.703	4.46
697.731	7.46
697.76	-5.54
697.789	-0.54
697.817	19.46
697.846	21.46
697.875	15.46
697.903	24.46
697.932	18.46
697.961	4.46
697.989	11.46
698.018	21.46
698.047	3.46
698.075	11.46
698.104	-12.54
698.133	-0.54
698.161	9.46
698.19	10.46
698.218	3.46
698.247	-0.54
698.276	8.46
698.304	23.46
698.333	10.46
698.362	10.46
698.39	0.46
698.419	20.46
698.447	3.46
698.476	6.46
698.505	12.46
698.533	-0.54
698.562	4.46
698.591	-5.54
698.619	3.46
698.648	-6.54
698.676	1.46
698.705	3.46
698.733	-20.54
698.762	-12.54
698.791	10.46
698.819	10.46
698.848	1.46
698.876	12.46
698.905	9.46
698.933	6.46
698.962	4.46
698.991	6.46
699.019	20.46
699.048	-1.54
699.076	4.46
699.105	-10.54
699.133	-9.54
699.162	9.46
699.19	18.46
699.219	24.46
699.248	6.46
699.276	10.46
699.305	7.46
699.333	-5.54
699.362	1.46
699.39	7.46
699.419	8.46
699.447	18.46
699.476	-6.54
699.504	5.46
699.533	16.46
699.561	0.46
699.59	5.46
699.618	-1.54
699.647	18.46
699.675	5.46
699.704	2.46
699.732	1.46
699.761	-3.54
699.789	-9.54
699.818	11.46
699.846	13.46
699.874	0.46
699.903	-5.54
699.931	4.46
699.96	16.46
699.988	-0.54
700.017	-9.54
700.045	6.46
700.074	15.46
700.102	2.46
700.13	-6.54
700.159	-0.54
700.187	3.46
700.216	-10.54
700.244	-0.54
700.273	10.46
700.301	-1.54
700.329	12.46
700.358	23.46
700.386	6.46
700.415	11.46
700.443	3.46
700.472	-18.54
700.5	-1.54
700.528	10.46
700.557	8.46
700.585	-6.54
700.614	6.46
700.642	23.46
700.67	22.46
700.699	3.46
700.727	2.46
700.755	7.46
700.784	11.46
700.812	-3.54
700.841	16.46
700.869	9.46
700.897	5.46
700.926	4.46
700.954	23.46
700.982	18.46
701.011	3.46
701.039	6.46
701.067	8.46
701.096	13.46
701.124	-1.54
701.152	12.46
701.181	7.46
701.209	-10.54
701.237	0.46
701.266	-5.54
701.294	-7.54
701.322	26.46
701.351	11.46
701.379	10.46
701.407	7.46
701.435	23.46
701.464	40.46
701.492	22.46
701.52	-3.54
701.549	9.46
701.577	-4.54
701.605	-4.54
701.634	-12.54
701.662	35.46
701.69	-0.54
701.718	-8.54
701.747	13.46
701.775	2.46
701.803	-7.54
701.831	3.46
701.86	6.46
701.888	23.46
701.916	-2.54
701.944	4.46
701.973	1.46
702.001	-5.54
702.029	-4.54
702.057	-1.54
702.086	1.46
702.114	-6.54
702.142	6.46
702.17	-22.54
702.199	11.46
702.227	0.46
702.255	8.46
702.283	-0.54
702.311	12.46
702.34	2.46
702.368	-6.54
702.396	7.46
702.424	-0.54
702.452	3.46
702.481	2.46
702.509	7.46
702.537	21.46
702.565	10.46
702.593	-3.54
702.621	0.46
702.65	14.46
702.678	16.46
702.706	13.46
702.734	-4.54
702.762	6.46
702.79	6.46
702.819	3.46
702.847	1.46
702.875	4.46
702.903	18.46
702.931	4.46
702.959	11.46
702.988	21.46
703.016	2.46
703.044	6.46
703.072	7.46
703.1	-24.54
703.128	-14.54
703.156	17.46
703.184	19.46
703.212	25.46
703.241	10.46
703.269	4.46
703.297	3.46
703.325	-8.54
703.353	-7.54
703.381	-7.54
703.409	1.46
703.437	7.46
703.465	-5.54
703.493	-20.54
703.522	2.46
703.55	0.46
703.578	16.46
703.606	-0.54
703.634	-3.54
703.662	4.46
703.69	10.46
703.718	-0.54
703.746	3.46
703.774	9.46
703.802	19.46
703.83	-3.54
703.858	16.46
703.886	-1.54
703.914	-11.54
703.942	3.46
703.97	7.46
703.998	-1.54
704.027	19.46
704.055	19.46
704.083	11.46
704.111	0.46
704.139	2.46
704.167	2.46
704.195	7.46
704.223	-2.54
704.251	-1.54
704.279	16.46
704.307	14.46
704.335	-1.54
704.363	8.46
704.391	-4.54
704.419	-11.54
704.447	6.46
704.475	18.46
704.503	0.46
704.531	14.46
704.558	11.46
704.586	7.46
704.614	-2.54
704.642	-3.54
704.67	-14.54
704.698	-5.54
704.726	-3.54
704.754	-0.54
704.782	9.46
704.81	8.46
704.838	16.46
704.866	-1.54
704.894	-13.54
704.922	-8.54
704.95	4.46
704.978	6.46
705.006	7.46
705.034	23.46
705.061	-5.54
705.089	-8.54
705.117	-8.54
705.145	6.46
705.173	5.46
705.201	3.46
705.229	18.46
705.257	1.46
705.285	-5.54
705.313	6.46
705.34	-3.54
705.368	0.46
705.396	8.46
705.424	8.46
705.452	7.46
705.48	4.46
705.508	4.46
705.536	8.46
705.563	8.46
705.591	3.46
705.619	-3.54
705.647	-15.54
705.675	0.46
705.703	7.46
705.731	0.46
705.758	12.46
705.786	7.46
705.814	18.46
705.842	19.46
705.87	19.46
705.898	18.46
705.925	0.46
705.953	18.46
705.981	2.46
706.009	6.46
706.037	2.46
706.065	2.46
706.092	-10.54
706.12	7.46
706.148	7.46
706.176	17.46
706.204	11.46
706.231	6.46
706.259	-1.54
706.287	6.46
706.315	26.46
706.342	2.46
706.37	9.46
706.398	7.46
706.426	-3.54
706.454	7.46
706.481	11.46
706.509	11.46
706.537	-9.54
706.565	-5.54
706.592	14.46
706.62	10.46
706.648	6.46
706.676	-1.54
706.703	10.46
706.731	16.46
706.759	0.46
706.787	-8.54
706.814	6.46
706.842	-5.54
706.87	7.46
706.897	8.46
706.925	7.46
706.953	21.46
706.981	17.46
707.008	17.46
707.036	0.46
707.064	2.46
707.091	-16.54
707.119	23.46
707.147	-4.54
707.174	-7.54
707.202	9.46
707.23	-7.54
707.258	20.46
707.285	-8.54
707.313	7.46
707.341	2.46
707.368	-0.54
707.396	2.46
707.424	27.46
707.451	14.46
707.479	0.46
707.507	2.46
707.534	-1.54
707.562	4.46
707.59	-0.54
707.617	-11.54
707.645	3.46
707.672	7.46
707.7	-1.54
707.728	7.46
707.755	7.46
707.783	5.46
707.811	14.46
707.838	13.46
707.866	10.46
707.893	4.46
707.921	-5.54
707.949	4.46
707.976	7.46
708.004	3.46
708.031	-2.54
708.059	-7.54
708.087	8.46
708.114	3.46
708.142	11.46
708.169	2.46
708.197	-0.54
708.225	-0.54
708.252	-8.54
708.28	7.46
708.307	-0.54
708.335	3.46
708.362	-5.54
708.39	-12.54
708.418	-9.54
708.445	0.46
708.473	-3.54
708.5	1.46
708.528	7.46
708.555	3.46
708.583	8.46
708.61	-4.54
708.638	6.46
708.665	-5.54
708.693	2.46
708.72	-1.54
708.748	-9.54
708.776	8.46
708.803	23.46
708.831	6.46
708.858	13.46
708.886	10.46
708.913	0.46
708.941	7.46
708.968	3.46
708.996	-6.54
709.023	23.46
709.051	1.46
709.078	-9.54
709.105	-6.54
709.133	10.46
709.16	5.46
709.188	24.46
709.215	0.46
709.243	3.46
709.27	10.46
709.298	-11.54
709.325	6.46
709.353	12.46
709.38	15.46
709.408	13.46
709.435	1.46
709.462	-8.54
709.49	7.46
709.517	4.46
709.545	-4.54
709.572	5.46
709.6	-1.54
709.627	2.46
709.655	-3.54
709.682	-11.54
709.709	-0.54
709.737	2.46
709.764	-11.54
709.792	18.46
709.819	13.46
709.846	7.46
709.874	10.46
709.901	6.46
709.929	19.46
709.956	4.46
709.983	2.46
710.011	-3.54
710.038	-3.54
710.066	16.46
710.093	22.46
710.12	6.46
710.148	-9.54
710.175	2.46
710.202	-5.54
710.23	5.46
710.257	-3.54
710.284	2.46
710.312	5.46
710.339	-8.54
710.366	-2.54
710.394	-7.54
710.421	11.46
710.448	1.46
710.476	-11.54
710.503	7.46
710.53	12.46
710.558	25.46
710.585	10.46
710.612	16.46
710.64	0.46
710.667	-7.54
710.694	4.46
710.722	5.46
710.749	7.46
710.776	11.46
710.804	18.46
710.831	4.46
710.858	4.46
710.885	8.46
710.913	-8.54
710.94	20.46
710.967	-0.54
710.995	-4.54
711.022	10.46
711.049	18.46
711.076	1.46
711.104	4.46
711.131	-13.54
711.158	10.46
711.185	25.46
711.213	-2.54
711.24	-5.54
711.267	0.46
711.294	-9.54
711.322	9.46
711.349	2.46
711.376	7.46
711.403	13.46
711.431	-5.54
711.458	3.46
711.485	1.46
711.512	6.46
711.54	-3.54
711.567	-1.54
711.594	6.46
711.621	-0.54
711.648	5.46
711.676	10.46
711.703	4.46
711.73	-3.54
711.757	7.46
711.784	13.46
711.812	10.46
711.839	-0.54
711.866	-12.54
711.893	-21.54
711.92	2.46
711.947	2.46
711.975	1.46
712.002	-0.54
712.029	14.46
712.056	-4.54
712.083	-1.54
712.11	-20.54
712.138	10.46
712.165	-14.54
712.192	2.46
712.219	-6.54
712.246	-7.54
712.273	-14.54
712.3	-3.54
712.328	-2.54
712.355	6.46
712.382	3.46
712.409	23.46
712.436	-0.54
712.463	18.46
712.49	11.46
712.517	9.46
712.544	-2.54
712.572	10.46
712.599	8.46
712.626	13.46
712.653	6.46
712.68	10.46
712.707	7.46
712.734	11.46
712.761	15.46
712.788	15.46
712.815	9.46
712.842	10.46
712.87	16.46
712.897	3.46
712.924	-3.54
712.951	16.46
712.978	18.46
713.005	12.46
713.032	23.46
713.059	4.46
713.086	-6.54
713.113	-0.54
713.14	4.46
713.167	4.46
713.194	20.46
713.221	11.46
713.248	5.46
713.275	8.46
713.302	9.46
713.329	11.46
713.356	23.46
713.383	23.46
713.41	7.46
713.437	9.46
713.464	16.46
713.491	22.46
713.518	15.46
713.545	-7.54
713.572	-1.54
713.599	11.46
713.626	-2.54
713.653	19.46
713.68	-0.54
713.707	6.46
713.734	0.46
713.761	3.46
713.788	-3.54
713.815	23.46
713.842	-1.54
713.869	-11.54
713.896	0.46
713.923	2.46
713.95	-4.54
713.977	1.46
714.004	-2.54
714.031	-2.54
714.058	2.46
714.085	2.46
714.112	11.46
714.139	3.46
714.165	-0.54
714.192	-16.54
714.219	-1.54
714.246	5.46
714.273	10.46
714.3	6.46
714.327	5.46
714.354	9.46
714.381	0.46
714.408	5.46
714.435	3.46
714.461	3.46
714.488	-0.54
714.515	-7.54
714.542	3.46
714.569	-3.54
714.596	-10.54
714.623	-7.54
714.65	-2.54
714.677	9.46
714.703	2.46
714.73	-8.54
714.757	1.46
714.784	-5.54
714.811	-11.54
714.838	3.46
714.865	-0.54
714.891	12.46
714.918	5.46
714.945	-6.54
714.972	-5.54
714.999	21.46
715.026	7.46
715.052	8.46
715.079	8.46
715.106	-3.54
715.133	-0.54
715.16	1.46
715.187	-3.54
715.213	19.46
715.24	3.46
715.267	3.46
715.294	-9.54
715.321	8.46
715.347	6.46
715.374	-13.54
715.401	0.46
715.428	6.46
715.455	18.46
715.481	8.46
715.508	20.46
715.535	-2.54
715.562	24.46
715.588	10.46
715.615	15.46
715.642	4.46
715.669	8.46
715.695	-7.54
715.722	-1.54
715.749	7.46
715.776	13.46
715.802	8.46
715.829	13.46
715.856	-3.54
715.883	23.46
715.909	4.46
715.936	9.46
715.963	4.46
715.99	-1.54
716.016	2.46
716.043	7.46
716.07	1.46
716.096	-2.54
716.123	11.46
716.15	9.46
716.177	6.46
716.203	3.46
716.23	4.46
716.257	12.46
716.283	11.46
716.31	25.46
716.337	9.46
716.363	12.46
716.39	5.46
716.417	3.46
716.443	14.46
716.47	19.46
716.497	13.46
716.523	4.46
716.55	5.46
716.577	14.46
716.603	-10.54
716.63	5.46
716.657	13.46
716.683	0.46
716.71	6.46
716.737	3.46
716.763	1.46
716.79	11.46
716.817	11.46
716.843	7.46
716.87	-4.54
716.897	9.46
716.923	27.46
716.95	4.46
716.976	-5.54
717.003	-9.54
717.03	8.46
717.056	17.46
717.083	14.46
717.109	-4.54
717.136	4.46
717.163	16.46
717.189	9.46
717.216	4.46
717.242	9.46
717.269	-5.54
717.296	12.46
717.322	20.46
717.349	10.46
717.375	8.46
717.402	18.46
717.428	18.46
717.455	-0.54
717.481	18.46
717.508	5.46
717.535	9.46
717.561	-7.54
717.588	-0.54
717.614	7.46
717.641	6.46
717.667	-4.54
717.694	0.46
717.72	-4.54
717.747	4.46
717.773	-7.54
717.8	3.46
717.826	19.46
717.853	9.46
717.88	34.46
717.906	23.46
717.933	4.46
717.959	14.46
717.986	5.46
718.012	-1.54
718.039	17.46
718.065	33.46
718.092	14.46
718.118	0.46
718.144	6.46
718.171	8.46
718.197	18.46
718.224	4.46
718.25	9.46
718.277	9.46
718.303	10.46
718.33	-3.54
718.356	-11.54
718.383	-17.54
718.409	4.46
718.436	4.46
718.462	-6.54
718.489	-4.54
718.515	16.46
718.541	16.46
718.568	21.46
718.594	9.46
718.621	10.46
718.647	3.46
718.674	29.46
718.7	22.46
718.726	9.46
718.753	5.46
718.779	18.46
718.806	-5.54
718.832	-0.54
718.858	6.46
718.885	-6.54
718.911	11.46
718.938	10.46
718.964	-9.54
718.99	2.46
719.017	8.46
719.043	-5.54
719.07	12.46
719.096	-9.54
719.122	15.46
719.149	-1.54
719.175	7.46
719.201	3.46
719.228	8.46
719.254	7.46
719.281	1.46
719.307	4.46
719.333	5.46
719.36	19.46
719.386	0.46
719.412	4.46
719.439	6.46
719.465	7.46
719.491	4.46
719.518	15.46
719.544	11.46
719.57	12.46
719.597	-4.54
719.623	-6.54
719.649	15.46
719.675	8.46
719.702	8.46
719.728	16.46
719.754	1.46
719.781	1.46
719.807	2.46
719.833	-13.54
719.86	-6.54
719.886	1.46
719.912	4.46
719.938	-6.54
719.965	8.46
719.991	22.46
720.017	-2.54
720.044	-17.54
720.07	-0.54
720.096	3.46
720.122	9.46
720.149	19.46
720.175	28.46
720.201	8.46
720.227	7.46
720.254	10.46
720.28	10.46
720.306	-3.54
720.332	-0.54
720.359	5.46
720.385	19.46
720.411	4.46
720.437	10.46
720.463	-5.54
720.49	13.46
720.516	10.46
720.542	-0.54
720.568	5.46
720.595	7.46
720.621	8.46
720.647	-1.54
720.673	8.46
720.699	6.46
720.725	10.46
720.752	3.46
720.778	-0.54
720.804	21.46
720.83	16.46
720.856	-7.54
720.883	2.46
720.909	6.46
720.935	2.46
720.961	6.46
720.987	5.46
721.013	6.46
721.04	10.46
721.066	6.46
721.092	-2.54
721.118	11.46
721.144	-3.54
721.17	8.46
721.196	3.46
721.223	-0.54
721.249	10.46
721.275	29.46
721.301	3.46
721.327	16.46
721.353	13.46
721.379	5.46
721.405	13.46
721.432	11.46
721.458	5.46
721.484	12.46
721.51	-4.54
721.536	-5.54
721.562	-1.54
721.588	7.46
721.614	-2.54
721.64	-16.54
721.666	21.46
721.693	11.46
721.719	8.46
721.745	3.46
721.771	-4.54
721.797	-3.54
721.823	14.46
721.849	11.46
721.875	11.46
721.901	0.46
721.927	-3.54
721.953	7.46
721.979	21.46
722.005	6.46
722.031	2.46
722.057	6.46
722.083	11.46
722.109	7.46
722.135	16.46
722.161	20.46
722.187	-0.54
722.214	-4.54
722.24	7.46
722.266	-4.54
722.292	14.46
722.318	28.46
722.344	19.46
722.37	16.46
722.396	16.46
722.422	4.46
722.448	8.46
722.474	-1.54
722.5	16.46
722.526	12.46
722.552	8.46
722.578	1.46
722.603	23.46
722.629	8.46
722.655	5.46
722.681	-1.54
722.707	10.46
722.733	0.46
722.759	-6.54
722.785	4.46
722.811	0.46
722.837	6.46
722.863	8.46
722.889	1.46
722.915	-4.54
722.941	7.46
722.967	3.46
722.993	7.46
723.019	7.46
723.045	17.46
723.071	12.46
723.097	4.46
723.122	-3.54
723.148	-6.54
723.174	4.46
723.2	-1.54
723.226	23.46
723.252	15.46
723.278	-7.54
723.304	-4.54
723.33	7.46
723.356	-13.54
723.381	-2.54
723.407	-4.54
723.433	8.46
723.459	4.46
723.485	-1.54
723.511	19.46
723.537	13.46
723.563	15.46
723.588	7.46
723.614	7.46
723.64	2.46
723.666	6.46
723.692	27.46
723.718	6.46
723.744	-1.54
723.769	10.46
723.795	14.46
723.821	7.46
723.847	-9.54
723.873	10.46
723.899	4.46
723.924	-8.54
723.95	-4.54
723.976	-5.54
724.002	14.46
724.028	18.46
724.053	2.46
724.079	-4.54
724.105	12.46
724.131	14.46
724.157	11.46
724.182	16.46
724.208	3.46
724.234	-3.54
724.26	3.46
724.286	38.46
724.311	-4.54
724.337	-5.54
724.363	5.46
724.389	6.46
724.415	22.46
724.44	10.46
724.466	12.46
724.492	14.46
724.518	10.46
724.543	-2.54
724.569	2.46
724.595	10.46
724.621	-0.54
724.646	-9.54
724.672	7.46
724.698	6.46
724.723	-5.54
724.749	0.46
724.775	12.46
724.801	19.46
724.826	-1.54
724.852	4.46
724.878	0.46
724.904	1.46
724.929	11.46
724.955	2.46
724.981	0.46
725.006	-3.54
725.032	4.46
725.058	16.46
725.083	7.46
725.109	-4.54
725.135	3.46
725.161	2.46
725.186	10.46
725.212	-7.54
725.238	12.46
725.263	3.46
725.289	5.46
725.315	1.46
725.34	2.46
725.366	10.46
725.392	-3.54
725.417	2.46
725.443	9.46
725.468	17.46
725.494	14.46
725.52	19.46
725.545	-3.54
725.571	-10.54
725.597	-8.54
725.622	-0.54
725.648	10.46
725.674	16.46
725.699	-2.54
725.725	0.46
725.75	18.46
725.776	-1.54
725.802	1.46
725.827	6.46
725.853	4.46
725.878	14.46
725.904	5.46
725.93	7.46
725.955	-20.54
725.981	-1.54
726.006	-0.54
726.032	17.46
726.057	8.46
726.083	8.46
726.109	1.46
726.134	3.46
726.16	5.46
726.185	2.46
726.211	10.46
726.236	2.46
726.262	1.46
726.288	3.46
726.313	15.46
726.339	3.46
726.364	23.46
726.39	26.46
726.415	16.46
726.441	7.46
726.466	-0.54
726.492	2.46
726.517	14.46
726.543	17.46
726.568	-4.54
726.594	-0.54
726.619	11.46
726.645	-0.54
726.67	11.46
726.696	1.46
726.721	-3.54
726.747	-13.54
726.772	19.46
726.798	-1.54
726.823	11.46
726.849	4.46
726.874	8.46
726.9	27.46
726.925	29.46
726.951	4.46
726.976	15.46
727.002	1.46
727.027	7.46
727.053	13.46
727.078	15.46
727.104	4.46
727.129	-6.54
727.155	3.46
727.18	12.46
727.205	14.46
727.231	-11.54
727.256	0.46
727.282	-1.54
727.307	9.46
727.333	-1.54
727.358	-5.54
727.383	-9.54
727.409	-16.54
727.434	12.46
727.46	3.46
727.485	-0.54
727.511	3.46
727.536	-2.54
727.561	-0.54
727.587	-6.54
727.612	13.46
727.637	15.46
727.663	6.46
727.688	23.46
727.714	4.46
727.739	-1.54
727.764	-3.54
727.79	3.46
727.815	-8.54
727.841	-4.54
727.866	4.46
727.891	7.46
727.917	-2.54
727.942	10.46
727.967	-4.54
727.993	-2.54
728.018	11.46
728.043	15.46
728.069	7.46
728.094	7.46
728.119	16.46
728.145	9.46
728.17	5.46
728.195	16.46
728.221	13.46
728.246	-13.54
728.271	-1.54
728.297	9.46
728.322	6.46
728.347	1.46
728.373	2.46
728.398	14.46
728.423	2.46
728.448	18.46
728.474	15.46
728.499	0.46
728.524	-9.54
728.55	-10.54
728.575	4.46
728.6	7.46
728.625	14.46
728.651	11.46
728.676	0.46
728.701	-8.54
728.727	-4.54
728.752	10.46
728.777	-0.54
728.802	15.46
728.828	2.46
728.853	8.46
728.878	15.46
728.903	15.46
728.929	8.46
728.954	3.46
728.979	10.46
729.004	16.46
729.03	-0.54
729.055	14.46
729.08	-7.54
729.105	15.46
729.13	25.46
729.156	13.46
729.181	12.46
729.206	-16.54
729.231	-4.54
729.256	12.46
729.282	8.46
729.307	-5.54
729.332	0.46
729.357	8.46
729.382	-6.54
729.408	-4.54
729.433	11.46
729.458	3.46
729.483	20.46
729.508	9.46
729.533	22.46
729.559	8.46
729.584	-5.54
729.609	20.46
729.634	8.46
729.659	0.46
729.684	5.46
729.71	16.46
729.735	7.46
729.76	-3.54
729.785	-0.54
729.81	15.46
729.835	12.46
729.86	7.46
729.886	14.46
729.911	-3.54
729.936	-8.54
729.961	1.46
729.986	-7.54
730.011	-7.54
730.036	13.46
730.061	16.46
730.086	-8.54
730.112	-2.54
730.137	21.46
730.162	1.46
730.187	-5.54
730.212	11.46
730.237	-1.54
730.262	-3.54
730.287	-9.54
730.312	24.46
730.337	-1.54
730.362	3.46
730.387	-6.54
730.413	0.46
730.438	-0.54
730.463	-1.54
730.488	-7.54
730.513	8.46
730.538	6.46
730.563	16.46
730.588	2.46
730.613	13.46
730.638	7.46
730.663	11.46
730.688	23.46
730.713	-7.54
730.738	-0.54
730.763	0.46
730.788	-8.54
730.813	1.46
730.838	-7.54
730.863	-2.54
730.888	7.46
730.913	-9.54
730.938	-21.54
730.963	-7.54
730.988	0.46
731.013	-2.54
731.038	0.46
731.063	-12.54
731.088	12.46
731.113	-1.54
731.138	12.46
731.163	-1.54
731.188	2.46
731.213	11.46
731.238	30.46
731.263	10.46
731.288	7.46
731.313	6.46
731.338	6.46
731.363	11.46
731.388	7.46
731.413	3.46
731.438	24.46
731.463	12.46
731.487	10.46
731.512	1.46
731.537	-15.54
731.562	0.46
731.587	4.46
731.612	7.46
731.637	-0.54
731.662	-2.54
731.687	16.46
731.712	1.46
731.737	17.46
731.762	-1.54
731.786	2.46
731.811	12.46
731.836	8.46
731.861	-6.54
731.886	-0.54
731.911	20.46
731.936	11.46
731.961	1.46
731.986	1.46
732.01	-1.54
732.035	-5.54
732.06	10.46
732.085	2.46
732.11	1.46
732.135	-7.54
732.16	-6.54
732.184	-1.54
732.209	-6.54
732.234	9.46
732.259	13.46
732.284	10.46
732.309	-3.54
732.334	-7.54
732.358	-1.54
732.383	-3.54
732.408	6.46
732.433	-1.54
732.458	-3.54
732.482	2.46
732.507	4.46
732.532	3.46
732.557	10.46
732.582	4.46
732.607	4.46
732.631	-7.54
732.656	-14.54
732.681	0.46
732.706	8.46
732.73	-13.54
732.755	-0.54
732.78	7.46
732.805	9.46
732.83	4.46
732.854	8.46
732.879	23.46
732.904	-7.54
732.929	-8.54
732.953	24.46
732.978	7.46
733.003	-3.54
733.028	7.46
733.052	17.46
733.077	17.46
733.102	12.46
733.127	12.46
733.151	5.46
733.176	-0.54
733.201	-4.54
733.226	-1.54
733.25	6.46
733.275	3.46
733.3	11.46
733.324	10.46
733.349	8.46
733.374	24.46
733.399	-1.54
733.423	-5.54
733.448	-1.54
733.473	2.46
733.497	-7.54
733.522	-11.54
733.547	13.46
733.571	11.46
733.596	3.46
733.621	15.46
733.646	-1.54
733.67	11.46
733.695	-4.54
733.72	-15.54
733.744	8.46
733.769	9.46
733.794	9.46
733.818	7.46
733.843	19.46
733.867	-4.54
733.892	0.46
733.917	6.46
733.941	3.46
733.966	-5.54
733.991	7.46
734.015	32.46
734.04	16.46
734.065	17.46
734.089	14.46
734.114	3.46
734.138	2.46
734.163	4.46
734.188	17.46
734.212	24.46
734.237	15.46
734.261	16.46
734.286	-7.54
734.311	1.46
734.335	8.46
734.36	7.46
734.384	2.46
734.409	8.46
734.434	-9.54
734.458	14.46
734.483	2.46
734.507	3.46
734.532	11.46
734.556	10.46
734.581	-1.54
734.606	-4.54
734.63	-2.54
734.655	6.46
734.679	9.46
734.704	8.46
734.728	-3.54
734.753	-3.54
734.777	-6.54
734.802	-4.54
734.826	-0.54
734.851	-4.54
734.876	23.46
734.9	2.46
734.925	10.46
734.949	6.46
734.974	11.46
734.998	11.46
735.023	-8.54
735.047	-3.54
735.072	30.46
735.096	18.46
735.121	12.46
735.145	8.46
735.17	6.46
735.194	11.46
735.219	-7.54
735.243	14.46
735.268	7.46
735.292	11.46
735.317	0.46
735.341	-4.54
735.365	-1.54
735.39	14.46
735.414	17.46
735.439	-3.54
735.463	3.46
735.488	6.46
735.512	12.46
735.537	4.46
735.561	7.46
735.586	1.46
735.61	-2.54
735.634	6.46
735.659	14.46
735.683	15.46
735.708	7.46
735.732	-3.54
735.757	9.46
735.781	7.46
735.805	6.46
735.83	-1.54
735.854	9.46
735.879	-0.54
735.903	9.46
735.927	8.46
735.952	8.46
735.976	2.46
736.001	4.46
736.025	-7.54
736.049	7.46
736.074	1.46
736.098	-8.54
736.123	14.46
736.147	9.46
736.171	10.46
736.196	-3.54
736.22	-0.54
736.244	12.46
736.269	13.46
736.293	4.46
736.317	-3.54
736.342	-4.54
736.366	-0.54
736.39	2.46
736.415	2.46
736.439	3.46
736.463	12.46
736.488	18.46
736.512	20.46
736.536	18.46
736.561	11.46
736.585	9.46
736.609	6.46
736.634	0.46
736.658	3.46
736.682	-5.54
736.707	-5.54
736.731	-0.54
736.755	17.46
736.78	18.46
736.804	17.46
736.828	12.46
736.852	0.46
736.877	6.46
736.901	16.46
736.925	8.46
736.949	11.46
736.974	0.46
736.998	-0.54
737.022	14.46
737.047	7.46
737.071	-5.54
737.095	10.46
737.119	25.46
737.144	18.46
737.168	1.46
737.192	6.46
737.216	16.46
737.241	11.46
737.265	10.46
737.289	3.46
737.313	17.46
737.337	14.46
737.362	20.46
737.386	2.46
737.41	-12.54
737.434	2.46
737.459	4.46
737.483	2.46
737.507	-4.54
737.531	9.46
737.555	12.46
737.58	19.46
737.604	15.46
737.628	7.46
737.652	-3.54
737.676	-1.54
737.701	-7.54
737.725	9.46
737.749	26.46
737.773	10.46
737.797	6.46
737.821	10.46
737.846	8.46
737.87	23.46
737.894	2.46
737.918	7.46
737.942	14.46
737.966	22.46
737.99	14.46
738.015	11.46
738.039	13.46
738.063	14.46
738.087	19.46
738.111	8.46
738.135	22.46
738.159	23.46
738.184	0.46
738.208	3.46
738.232	6.46
738.256	16.46
738.28	9.46
738.304	12.46
738.328	3.46
738.352	11.46
738.376	3.46
738.4	0.46
738.425	19.46
738.449	2.46
738.473	3.46
738.497	10.46
738.521	5.46
738.545	7.46
738.569	10.46
738.593	17.46
738.617	7.46
738.641	4.46
738.665	15.46
738.689	12.46
738.713	-11.54
738.737	-5.54
738.762	8.46
738.786	10.46
738.81	-14.54
738.834	15.46
738.858	15.46
738.882	22.46
738.906	-0.54
738.93	8.46
738.954	6.46
738.978	25.46
739.002	-2.54
739.026	17.46
739.05	12.46
739.074	0.46
739.098	23.46
739.122	25.46
739.146	13.46
739.17	18.46
739.194	21.46
739.218	-9.54
739.242	-1.54
739.266	-11.54
739.29	21.46
739.314	20.46
739.338	8.46
739.362	-2.54
739.386	17.46
739.41	22.46
739.434	10.46
739.458	20.46
739.482	20.46
739.506	15.46
739.53	-3.54
739.554	16.46
739.577	13.46
739.601	24.46
739.625	3.46
739.649	11.46
739.673	1.46
739.697	0.46
739.721	-9.54
739.745	13.46
739.769	9.46
739.793	15.46
739.817	11.46
739.841	-14.54
739.865	10.46
739.889	18.46
739.912	6.46
739.936	0.46
739.96	0.46
739.984	16.46
740.008	8.46
740.032	3.46
740.056	8.46
740.08	4.46
740.104	-2.54
740.127	10.46
740.151	17.46
740.175	30.46
740.199	16.46
740.223	62.46
740.247	19.46
740.271	19.46
740.295	14.46
740.318	-16.54
740.342	-3.54
740.366	22.46
740.39	21.46
740.414	-2.54
740.438	-12.54
740.461	21.46
740.485	20.46
740.509	2.46
740.533	11.46
740.557	-11.54
740.581	-4.54
740.604	-5.54
740.628	-0.54
740.652	7.46
740.676	8.46
740.7	17.46
740.723	4.46
740.747	-8.54
740.771	8.46
740.795	-3.54
740.819	10.46
740.842	6.46
740.866	5.46
740.89	7.46
740.914	-0.54
740.938	-2.54
740.961	6.46
740.985	11.46
741.009	1.46
741.033	15.46
741.056	14.46
741.08	10.46
741.104	-1.54
741.128	13.46
741.151	15.46
741.175	0.46
741.199	6.46
741.223	17.46
741.246	0.46
741.27	17.46
741.294	12.46
741.318	2.46
741.341	2.46
741.365	4.46
741.389	-5.54
741.413	17.46
741.436	18.46
741.46	21.46
741.484	27.46
741.507	6.46
741.531	25.46
741.555	6.46
741.579	22.46
741.602	7.46
741.626	21.46
741.65	6.46
741.673	7.46
741.697	13.46
741.721	18.46
741.744	-3.54
741.768	2.46
741.792	8.46
741.815	-4.54
741.839	11.46
741.863	21.46
741.886	13.46
741.91	23.46
741.934	17.46
741.957	-1.54
741.981	19.46
742.005	15.46
742.028	-6.54
742.052	7.46
742.075	-3.54
742.099	11.46
742.123	0.46
742.146	-2.54
742.17	7.46
742.194	-8.54
742.217	-5.54
742.241	3.46
742.264	-1.54
742.288	18.46
742.312	26.46
742.335	-2.54
742.359	-0.54
742.382	19.46
742.406	24.46
742.43	-11.54
742.453	10.46
742.477	2.46
742.5	3.46
742.524	11.46
742.548	2.46
742.571	-0.54
742.595	8.46
742.618	-7.54
742.642	-1.54
742.665	16.46
742.689	-5.54
742.712	15.46
742.736	14.46
742.76	-6.54
742.783	0.46
742.807	11.46
742.83	21.46
742.854	-0.54
742.877	2.46
742.901	-3.54
742.924	9.46
742.948	6.46
742.971	0.46
742.995	15.46
743.018	6.46
743.042	4.46
743.065	1.46
743.089	4.46
743.112	-2.54
743.136	2.46
743.159	10.46
743.183	17.46
743.206	8.46
743.23	-2.54
743.253	7.46
743.277	5.46
743.3	-10.54
743.324	-5.54
743.347	-12.54
743.371	13.46
743.394	14.46
743.418	22.46
743.441	24.46
743.465	17.46
743.488	15.46
743.512	-11.54
743.535	-3.54
743.558	-15.54
743.582	-1.54
743.605	-1.54
743.629	4.46
743.652	18.46
743.676	10.46
743.699	14.46
743.723	21.46
743.746	18.46
743.769	-8.54
743.793	8.46
743.816	-6.54
743.84	11.46
743.863	-5.54
743.886	1.46
743.91	11.46
743.933	2.46
743.957	8.46
743.98	6.46
744.003	12.46
744.027	2.46
744.05	7.46
744.074	3.46
744.097	-21.54
744.12	-7.54
744.144	-8.54
744.167	10.46
744.19	27.46
744.214	2.46
744.237	2.46
744.26	4.46
744.284	-2.54
744.307	-3.54
744.331	-1.54
744.354	-6.54
744.377	-9.54
744.401	0.46
744.424	0.46
744.447	-5.54
744.471	7.46
