Data from HighRes_H2D2_15_04_11_07_2024_HR4C61891__46__15-05-39-043.txt Node

Date: Thu Nov 07 15:05:39 EST 2024
User: crc00042
Spectrometer: HR4C6189
Trigger mode: 4
Integration Time (sec): 1.000000E-1
Scans to average: 1
Electric dark correction enabled: true
Nonlinearity correction enabled: false
Boxcar width: 0
XAxis mode: Wavelengths
Number of Pixels in Spectrum: 3648
>>>>>Begin Spectral Data<<<<<
639.567	-22.46
639.602	-22.46
639.636	-22.46
639.67	-41.46
639.704	-8.46
639.738	-0.46
639.773	2.54
639.807	-14.46
639.841	17.54
639.875	22.54
639.909	-23.46
639.943	-1.46
639.978	-5.46
640.012	-5.46
640.046	7.54
640.08	6.54
640.114	-7.46
640.148	1.54
640.182	-16.46
640.217	-4.46
640.251	3.54
640.285	4.54
640.319	-14.46
640.353	-1.46
640.387	-7.46
640.421	-4.46
640.455	5.54
640.49	-0.46
640.524	9.54
640.558	11.54
640.592	8.54
640.626	-3.46
640.66	5.54
640.694	-0.46
640.728	7.54
640.762	31.54
640.796	17.54
640.83	5.54
640.865	12.54
640.899	3.54
640.933	15.54
640.967	5.54
641.001	8.54
641.035	13.54
641.069	-5.46
641.103	-20.46
641.137	-8.46
641.171	-6.46
641.205	15.54
641.239	5.54
641.273	24.54
641.307	7.54
641.341	5.54
641.375	1.54
641.409	-6.46
641.443	-15.46
641.477	3.54
641.511	9.54
641.545	5.54
641.579	8.54
641.614	16.54
641.648	8.54
641.682	12.54
641.716	8.54
641.75	14.54
641.784	12.54
641.818	3.54
641.852	1.54
641.886	0.54
641.919	8.54
641.953	11.54
641.987	-21.46
642.021	7.54
642.055	10.54
642.089	8.54
642.123	-1.46
642.157	-0.46
642.191	-1.46
642.225	17.54
642.259	-0.46
642.293	3.54
642.327	8.54
642.361	1.54
642.395	6.54
642.429	20.54
642.463	15.54
642.497	19.54
642.531	10.54
642.565	2.54
642.599	-2.46
642.633	-6.46
642.666	17.54
642.7	10.54
642.734	9.54
642.768	-8.46
642.802	-0.46
642.836	5.54
642.87	3.54
642.904	7.54
642.938	9.54
642.972	-2.46
643.005	10.54
643.039	21.54
643.073	-1.46
643.107	12.54
643.141	3.54
643.175	-4.46
643.209	-4.46
643.243	-0.46
643.276	4.54
643.31	-13.46
643.344	9.54
643.378	-2.46
643.412	11.54
643.446	12.54
643.48	1.54
643.513	11.54
643.547	-7.46
643.581	-15.46
643.615	7.54
643.649	9.54
643.683	11.54
643.716	16.54
643.75	14.54
643.784	-7.46
643.818	10.54
643.852	-1.46
643.886	-1.46
643.919	-4.46
643.953	-2.46
643.987	-1.46
644.021	11.54
644.055	0.54
644.088	7.54
644.122	-0.46
644.156	2.54
644.19	12.54
644.224	-1.46
644.257	7.54
644.291	19.54
644.325	10.54
644.359	3.54
644.392	14.54
644.426	7.54
644.46	22.54
644.494	7.54
644.527	-4.46
644.561	-0.46
644.595	10.54
644.629	1.54
644.662	-19.46
644.696	23.54
644.73	11.54
644.764	-6.46
644.797	2.54
644.831	1.54
644.865	5.54
644.899	5.54
644.932	26.54
644.966	-11.46
645	10.54
645.033	18.54
645.067	15.54
645.101	5.54
645.135	-2.46
645.168	14.54
645.202	8.54
645.236	1.54
645.269	18.54
645.303	-5.46
645.337	-8.46
645.37	1.54
645.404	-3.46
645.438	4.54
645.471	0.54
645.505	8.54
645.539	1.54
645.572	-16.46
645.606	-20.46
645.64	10.54
645.673	14.54
645.707	24.54
645.741	0.54
645.774	-12.46
645.808	1.54
645.842	-5.46
645.875	15.54
645.909	13.54
645.943	-7.46
645.976	1.54
646.01	13.54
646.043	8.54
646.077	18.54
646.111	15.54
646.144	10.54
646.178	9.54
646.212	-19.46
646.245	-0.46
646.279	5.54
646.312	-2.46
646.346	-6.46
646.38	-6.46
646.413	0.54
646.447	10.54
646.48	6.54
646.514	13.54
646.547	-9.46
646.581	-6.46
646.615	-2.46
646.648	7.54
646.682	2.54
646.715	4.54
646.749	17.54
646.782	7.54
646.816	0.54
646.85	2.54
646.883	3.54
646.917	13.54
646.95	10.54
646.984	5.54
647.017	-1.46
647.051	-2.46
647.084	7.54
647.118	-1.46
647.151	2.54
647.185	13.54
647.218	-13.46
647.252	-0.46
647.285	-15.46
647.319	2.54
647.353	-8.46
647.386	6.54
647.42	-3.46
647.453	-2.46
647.487	5.54
647.52	-5.46
647.553	-2.46
647.587	-7.46
647.62	-4.46
647.654	8.54
647.687	22.54
647.721	12.54
647.754	8.54
647.788	-5.46
647.821	-4.46
647.855	1.54
647.888	22.54
647.922	20.54
647.955	15.54
647.989	9.54
648.022	16.54
648.055	17.54
648.089	-1.46
648.122	21.54
648.156	4.54
648.189	13.54
648.223	-7.46
648.256	38.54
648.29	19.54
648.323	-7.46
648.356	8.54
648.39	13.54
648.423	18.54
648.457	9.54
648.49	13.54
648.523	15.54
648.557	-4.46
648.59	9.54
648.624	24.54
648.657	10.54
648.69	19.54
648.724	0.54
648.757	12.54
648.791	20.54
648.824	-2.46
648.857	19.54
648.891	8.54
648.924	9.54
648.957	25.54
648.991	-4.46
649.024	18.54
649.057	7.54
649.091	0.54
649.124	31.54
649.158	16.54
649.191	24.54
649.224	12.54
649.258	4.54
649.291	13.54
649.324	-1.46
649.358	-0.46
649.391	15.54
649.424	9.54
649.458	-2.46
649.491	8.54
649.524	0.54
649.557	3.54
649.591	-9.46
649.624	16.54
649.657	-1.46
649.691	-12.46
649.724	-4.46
649.757	-1.46
649.791	4.54
649.824	19.54
649.857	23.54
649.89	12.54
649.924	-14.46
649.957	-10.46
649.99	-14.46
650.023	-10.46
650.057	8.54
650.09	-0.46
650.123	9.54
650.157	14.54
650.19	-0.46
650.223	-3.46
650.256	-1.46
650.29	5.54
650.323	9.54
650.356	11.54
650.389	-2.46
650.423	-22.46
650.456	-5.46
650.489	-1.46
650.522	0.54
650.555	16.54
650.589	5.54
650.622	7.54
650.655	15.54
650.688	0.54
650.721	10.54
650.755	14.54
650.788	14.54
650.821	5.54
650.854	-10.46
650.887	9.54
650.921	6.54
650.954	-3.46
650.987	4.54
651.02	17.54
651.053	-9.46
651.087	-4.46
651.12	0.54
651.153	12.54
651.186	-2.46
651.219	-7.46
651.252	21.54
651.286	6.54
651.319	-11.46
651.352	4.54
651.385	9.54
651.418	14.54
651.451	8.54
651.484	25.54
651.518	3.54
651.551	7.54
651.584	-2.46
651.617	33.54
651.65	20.54
651.683	17.54
651.716	2.54
651.749	1.54
651.783	-21.46
651.816	5.54
651.849	14.54
651.882	7.54
651.915	4.54
651.948	15.54
651.981	17.54
652.014	5.54
652.047	-8.46
652.08	8.54
652.114	7.54
652.147	-6.46
652.18	9.54
652.213	16.54
652.246	-7.46
652.279	3.54
652.312	16.54
652.345	12.54
652.378	0.54
652.411	30.54
652.444	13.54
652.477	-0.46
652.51	12.54
652.543	0.54
652.576	9.54
652.609	5.54
652.642	1.54
652.675	4.54
652.709	13.54
652.742	20.54
652.775	2.54
652.808	8.54
652.841	1.54
652.874	15.54
652.907	-4.46
652.94	-5.46
652.973	-6.46
653.006	-6.46
653.039	2.54
653.072	8.54
653.105	8.54
653.138	-3.46
653.171	3.54
653.204	18.54
653.237	18.54
653.27	5.54
653.303	-0.46
653.336	5.54
653.368	1.54
653.401	10.54
653.434	5.54
653.467	15.54
653.5	-14.46
653.533	-12.46
653.566	-2.46
653.599	-0.46
653.632	7.54
653.665	14.54
653.698	-0.46
653.731	-11.46
653.764	20.54
653.797	11.54
653.83	0.54
653.863	-3.46
653.896	-1.46
653.929	3.54
653.961	13.54
653.994	-3.46
654.027	-8.46
654.06	3.54
654.093	1.54
654.126	23.54
654.159	-6.46
654.192	27.54
654.225	13.54
654.258	-13.46
654.29	7.54
654.323	3.54
654.356	8.54
654.389	-5.46
654.422	0.54
654.455	13.54
654.488	18.54
654.521	-12.46
654.553	-4.46
654.586	4.54
654.619	11.54
654.652	-3.46
654.685	19.54
654.718	7.54
654.751	17.54
654.783	6.54
654.816	20.54
654.849	-14.46
654.882	0.54
654.915	-14.46
654.948	-0.46
654.98	-8.46
655.013	21.54
655.046	15.54
655.079	-0.46
655.112	4.54
655.144	-21.46
655.177	2.54
655.21	21.54
655.243	27.54
655.276	13.54
655.308	8.54
655.341	-3.46
655.374	14.54
655.407	-3.46
655.44	-1.46
655.472	-0.46
655.505	4.54
655.538	-2.46
655.571	19.54
655.603	6.54
655.636	8.54
655.669	21.54
655.702	10.54
655.734	-2.46
655.767	12.54
655.8	3.54
655.833	4.54
655.865	22.54
655.898	15.54
655.931	18.54
655.964	36.54
655.996	31.54
656.029	28.54
656.062	44.54
656.095	57.54
656.127	76.54
656.16	201.54
656.193	629.54
656.225	955.54
656.258	577.54
656.291	200.54
656.324	178.54
656.356	371.54
656.389	773.54
656.422	654.54
656.454	235.54
656.487	82.54
656.52	46.54
656.552	18.54
656.585	20.54
656.618	12.54
656.65	21.54
656.683	2.54
656.716	20.54
656.748	0.54
656.781	-1.46
656.814	-5.46
656.846	-1.46
656.879	-13.46
656.912	-0.46
656.944	-7.46
656.977	-18.46
657.01	-5.46
657.042	7.54
657.075	15.54
657.108	14.54
657.14	6.54
657.173	11.54
657.205	17.54
657.238	20.54
657.271	10.54
657.303	-19.46
657.336	4.54
657.369	14.54
657.401	4.54
657.434	16.54
657.466	12.54
657.499	18.54
657.532	-1.46
657.564	4.54
657.597	-4.46
657.629	4.54
657.662	4.54
657.694	7.54
657.727	2.54
657.76	11.54
657.792	-5.46
657.825	3.54
657.857	4.54
657.89	-0.46
657.922	13.54
657.955	0.54
657.987	-14.46
658.02	8.54
658.053	25.54
658.085	18.54
658.118	10.54
658.15	19.54
658.183	21.54
658.215	-4.46
658.248	-0.46
658.28	1.54
658.313	12.54
658.345	4.54
658.378	12.54
658.41	1.54
658.443	16.54
658.475	5.54
658.508	8.54
658.54	21.54
658.573	19.54
658.605	5.54
658.638	0.54
658.67	-2.46
658.703	0.54
658.735	-12.46
658.768	0.54
658.8	-5.46
658.833	8.54
658.865	7.54
658.898	-3.46
658.93	-5.46
658.963	3.54
658.995	-11.46
659.028	3.54
659.06	-8.46
659.092	9.54
659.125	-4.46
659.157	19.54
659.19	3.54
659.222	-2.46
659.255	16.54
659.287	17.54
659.32	-5.46
659.352	16.54
659.384	10.54
659.417	6.54
659.449	7.54
659.482	2.54
659.514	5.54
659.546	-24.46
659.579	-18.46
659.611	-0.46
659.644	4.54
659.676	-2.46
659.708	-13.46
659.741	-13.46
659.773	16.54
659.806	-0.46
659.838	4.54
659.87	-0.46
659.903	-1.46
659.935	-2.46
659.967	14.54
660	4.54
660.032	-4.46
660.065	16.54
660.097	-4.46
660.129	-2.46
660.162	-17.46
660.194	3.54
660.226	7.54
660.259	2.54
660.291	-15.46
660.323	4.54
660.356	9.54
660.388	-15.46
660.42	1.54
660.453	11.54
660.485	15.54
660.517	17.54
660.55	18.54
660.582	1.54
660.614	11.54
660.647	8.54
660.679	-22.46
660.711	7.54
660.743	3.54
660.776	-27.46
660.808	-1.46
660.84	-9.46
660.873	7.54
660.905	6.54
660.937	5.54
660.969	3.54
661.002	0.54
661.034	20.54
661.066	2.54
661.099	13.54
661.131	32.54
661.163	7.54
661.195	10.54
661.228	14.54
661.26	5.54
661.292	-8.46
661.324	12.54
661.357	-3.46
661.389	3.54
661.421	12.54
661.453	10.54
661.485	2.54
661.518	-0.46
661.55	-8.46
661.582	-15.46
661.614	-2.46
661.647	9.54
661.679	14.54
661.711	9.54
661.743	-16.46
661.775	7.54
661.808	34.54
661.84	-18.46
661.872	3.54
661.904	-7.46
661.936	-25.46
661.969	-3.46
662.001	-0.46
662.033	10.54
662.065	-0.46
662.097	28.54
662.129	20.54
662.162	5.54
662.194	0.54
662.226	1.54
662.258	-3.46
662.29	-10.46
662.322	-13.46
662.355	-13.46
662.387	12.54
662.419	4.54
662.451	3.54
662.483	-0.46
662.515	5.54
662.547	5.54
662.58	-6.46
662.612	-8.46
662.644	-14.46
662.676	-2.46
662.708	22.54
662.74	15.54
662.772	-0.46
662.804	11.54
662.836	-2.46
662.869	-3.46
662.901	3.54
662.933	-1.46
662.965	24.54
662.997	10.54
663.029	-10.46
663.061	3.54
663.093	-3.46
663.125	5.54
663.157	14.54
663.189	-8.46
663.221	13.54
663.254	14.54
663.286	18.54
663.318	-21.46
663.35	-4.46
663.382	1.54
663.414	2.54
663.446	-0.46
663.478	-7.46
663.51	32.54
663.542	-10.46
663.574	3.54
663.606	8.54
663.638	-22.46
663.67	-1.46
663.702	-1.46
663.734	-3.46
663.766	6.54
663.798	-22.46
663.83	7.54
663.862	11.54
663.894	19.54
663.926	14.54
663.958	21.54
663.99	-3.46
664.022	0.54
664.054	4.54
664.086	-12.46
664.118	-6.46
664.15	7.54
664.182	13.54
664.214	-12.46
664.246	12.54
664.278	8.54
664.31	16.54
664.342	10.54
664.374	10.54
664.406	-5.46
664.438	3.54
664.47	9.54
664.502	7.54
664.534	1.54
664.566	2.54
664.598	7.54
664.63	7.54
664.662	3.54
664.693	1.54
664.725	-5.46
664.757	-1.46
664.789	8.54
664.821	-8.46
664.853	7.54
664.885	23.54
664.917	16.54
664.949	25.54
664.981	33.54
665.013	6.54
665.045	-9.46
665.076	-1.46
665.108	-0.46
665.14	-3.46
665.172	-3.46
665.204	-4.46
665.236	-7.46
665.268	10.54
665.3	0.54
665.331	-14.46
665.363	-0.46
665.395	1.54
665.427	-8.46
665.459	16.54
665.491	10.54
665.523	5.54
665.555	-0.46
665.586	-5.46
665.618	-11.46
665.65	-2.46
665.682	7.54
665.714	18.54
665.746	-19.46
665.777	2.54
665.809	-0.46
665.841	5.54
665.873	10.54
665.905	10.54
665.937	0.54
665.968	-5.46
666	-15.46
666.032	16.54
666.064	-0.46
666.096	3.54
666.127	20.54
666.159	6.54
666.191	16.54
666.223	18.54
666.255	1.54
666.286	6.54
666.318	11.54
666.35	22.54
666.382	12.54
666.413	-6.46
666.445	-14.46
666.477	-8.46
666.509	-11.46
666.54	9.54
666.572	5.54
666.604	-4.46
666.636	4.54
666.667	21.54
666.699	24.54
666.731	6.54
666.763	6.54
666.794	-1.46
666.826	0.54
666.858	-6.46
666.89	20.54
666.921	10.54
666.953	4.54
666.985	6.54
667.017	15.54
667.048	9.54
667.08	-5.46
667.112	-4.46
667.143	-2.46
667.175	5.54
667.207	-6.46
667.238	8.54
667.27	-1.46
667.302	0.54
667.334	7.54
667.365	15.54
667.397	8.54
667.429	-6.46
667.46	25.54
667.492	2.54
667.524	0.54
667.555	-1.46
667.587	3.54
667.619	-9.46
667.65	-5.46
667.682	4.54
667.714	9.54
667.745	4.54
667.777	7.54
667.808	9.54
667.84	8.54
667.872	8.54
667.903	16.54
667.935	2.54
667.967	-11.46
667.998	0.54
668.03	15.54
668.061	11.54
668.093	3.54
668.125	12.54
668.156	12.54
668.188	7.54
668.22	-5.46
668.251	-2.46
668.283	8.54
668.314	20.54
668.346	-0.46
668.377	-4.46
668.409	3.54
668.441	23.54
668.472	15.54
668.504	25.54
668.535	11.54
668.567	9.54
668.599	1.54
668.63	-0.46
668.662	-3.46
668.693	11.54
668.725	0.54
668.756	15.54
668.788	-2.46
668.819	4.54
668.851	16.54
668.882	4.54
668.914	-7.46
668.946	-0.46
668.977	-0.46
669.009	-14.46
669.04	-8.46
669.072	5.54
669.103	-7.46
669.135	3.54
669.166	1.54
669.198	12.54
669.229	6.54
669.261	15.54
669.292	-4.46
669.324	4.54
669.355	0.54
669.387	-15.46
669.418	14.54
669.45	-1.46
669.481	19.54
669.513	7.54
669.544	16.54
669.576	8.54
669.607	8.54
669.639	18.54
669.67	3.54
669.701	20.54
669.733	-6.46
669.764	0.54
669.796	4.54
669.827	-2.46
669.859	3.54
669.89	8.54
669.922	12.54
669.953	11.54
669.985	16.54
670.016	7.54
670.047	-8.46
670.079	-18.46
670.11	0.54
670.142	-1.46
670.173	4.54
670.204	8.54
670.236	4.54
670.267	-7.46
670.299	6.54
670.33	2.54
670.362	-0.46
670.393	0.54
670.424	18.54
670.456	-3.46
670.487	6.54
670.518	1.54
670.55	23.54
670.581	10.54
670.613	9.54
670.644	7.54
670.675	-4.46
670.707	5.54
670.738	6.54
670.769	8.54
670.801	-10.46
670.832	5.54
670.864	-7.46
670.895	7.54
670.926	11.54
670.958	2.54
670.989	-3.46
671.02	6.54
671.052	-0.46
671.083	4.54
671.114	-2.46
671.146	3.54
671.177	-13.46
671.208	-6.46
671.24	-13.46
671.271	-0.46
671.302	5.54
671.333	7.54
671.365	10.54
671.396	-1.46
671.427	15.54
671.459	11.54
671.49	6.54
671.521	14.54
671.553	12.54
671.584	17.54
671.615	-16.46
671.646	7.54
671.678	16.54
671.709	2.54
671.74	-4.46
671.771	12.54
671.803	10.54
671.834	-2.46
671.865	-8.46
671.896	1.54
671.928	6.54
671.959	-1.46
671.99	-4.46
672.021	-0.46
672.053	6.54
672.084	7.54
672.115	8.54
672.146	-2.46
672.178	-8.46
672.209	0.54
672.24	11.54
672.271	45.54
672.303	12.54
672.334	3.54
672.365	-8.46
672.396	-1.46
672.427	11.54
672.459	11.54
672.49	27.54
672.521	6.54
672.552	13.54
672.583	8.54
672.615	-4.46
672.646	25.54
672.677	9.54
672.708	1.54
672.739	3.54
672.77	7.54
672.802	3.54
672.833	1.54
672.864	7.54
672.895	2.54
672.926	-0.46
672.957	0.54
672.989	-8.46
673.02	19.54
673.051	0.54
673.082	12.54
673.113	19.54
673.144	3.54
673.175	7.54
673.206	-7.46
673.238	3.54
673.269	7.54
673.3	-1.46
673.331	7.54
673.362	8.54
673.393	19.54
673.424	14.54
673.455	31.54
673.487	5.54
673.518	12.54
673.549	8.54
673.58	11.54
673.611	17.54
673.642	11.54
673.673	-11.46
673.704	9.54
673.735	2.54
673.766	-1.46
673.797	-4.46
673.828	6.54
673.86	-12.46
673.891	-1.46
673.922	6.54
673.953	1.54
673.984	2.54
674.015	14.54
674.046	-3.46
674.077	5.54
674.108	5.54
674.139	5.54
674.17	-5.46
674.201	-3.46
674.232	2.54
674.263	-1.46
674.294	13.54
674.325	-11.46
674.356	3.54
674.387	10.54
674.418	2.54
674.449	16.54
674.48	-1.46
674.511	8.54
674.542	10.54
674.573	8.54
674.604	29.54
674.635	4.54
674.666	20.54
674.697	-13.46
674.728	-13.46
674.759	10.54
674.79	3.54
674.821	-2.46
674.852	15.54
674.883	7.54
674.914	16.54
674.945	13.54
674.976	15.54
675.007	3.54
675.038	1.54
675.069	-5.46
675.1	6.54
675.131	7.54
675.162	-13.46
675.193	-8.46
675.224	7.54
675.254	9.54
675.285	12.54
675.316	23.54
675.347	15.54
675.378	3.54
675.409	0.54
675.44	20.54
675.471	21.54
675.502	1.54
675.533	18.54
675.564	15.54
675.595	0.54
675.625	28.54
675.656	14.54
675.687	10.54
675.718	-0.46
675.749	5.54
675.78	21.54
675.811	-14.46
675.842	8.54
675.873	-2.46
675.903	6.54
675.934	-4.46
675.965	2.54
675.996	-2.46
676.027	6.54
676.058	-1.46
676.089	-6.46
676.119	11.54
676.15	3.54
676.181	5.54
676.212	3.54
676.243	17.54
676.274	8.54
676.304	12.54
676.335	-1.46
676.366	6.54
676.397	8.54
676.428	11.54
676.459	14.54
676.489	12.54
676.52	-2.46
676.551	17.54
676.582	-0.46
676.613	1.54
676.643	-11.46
676.674	11.54
676.705	-4.46
676.736	18.54
676.767	33.54
676.797	16.54
676.828	5.54
676.859	12.54
676.89	9.54
676.92	7.54
676.951	15.54
676.982	0.54
677.013	0.54
677.044	16.54
677.074	-2.46
677.105	-12.46
677.136	12.54
677.167	-4.46
677.197	0.54
677.228	2.54
677.259	-1.46
677.289	4.54
677.32	-11.46
677.351	-4.46
677.382	7.54
677.412	-5.46
677.443	13.54
677.474	7.54
677.505	2.54
677.535	12.54
677.566	11.54
677.597	-2.46
677.627	-0.46
677.658	1.54
677.689	14.54
677.72	12.54
677.75	-13.46
677.781	2.54
677.812	-5.46
677.842	-1.46
677.873	15.54
677.904	10.54
677.934	8.54
677.965	5.54
677.996	-11.46
678.026	2.54
678.057	6.54
678.088	-15.46
678.118	2.54
678.149	6.54
678.18	-1.46
678.21	-7.46
678.241	20.54
678.272	9.54
678.302	8.54
678.333	0.54
678.363	4.54
678.394	-7.46
678.425	-2.46
678.455	13.54
678.486	10.54
678.517	1.54
678.547	13.54
678.578	-2.46
678.608	-5.46
678.639	18.54
678.67	4.54
678.7	-6.46
678.731	-16.46
678.761	7.54
678.792	9.54
678.823	11.54
678.853	-7.46
678.884	-16.46
678.914	-9.46
678.945	0.54
678.975	-12.46
679.006	7.54
679.037	2.54
679.067	23.54
679.098	14.54
679.128	2.54
679.159	0.54
679.189	9.54
679.22	-19.46
679.25	7.54
679.281	1.54
679.312	16.54
679.342	6.54
679.373	29.54
679.403	7.54
679.434	-0.46
679.464	2.54
679.495	7.54
679.525	-0.46
679.556	15.54
679.586	11.54
679.617	-8.46
679.647	14.54
679.678	12.54
679.708	6.54
679.739	-8.46
679.769	7.54
679.8	6.54
679.83	8.54
679.861	13.54
679.891	-12.46
679.922	-6.46
679.952	-10.46
679.983	8.54
680.013	2.54
680.044	0.54
680.074	19.54
680.105	9.54
680.135	3.54
680.165	2.54
680.196	11.54
680.226	11.54
680.257	1.54
680.287	15.54
680.318	3.54
680.348	-5.46
680.379	21.54
680.409	9.54
680.439	-9.46
680.47	-11.46
680.5	6.54
680.531	3.54
680.561	10.54
680.592	11.54
680.622	14.54
680.652	-0.46
680.683	15.54
680.713	-8.46
680.744	3.54
680.774	-20.46
680.804	14.54
680.835	5.54
680.865	0.54
680.896	27.54
680.926	23.54
680.956	9.54
680.987	9.54
681.017	-5.46
681.047	-4.46
681.078	-0.46
681.108	10.54
681.139	5.54
681.169	-7.46
681.199	-3.46
681.23	31.54
681.26	-3.46
681.29	10.54
681.321	8.54
681.351	0.54
681.381	-4.46
681.412	-8.46
681.442	-1.46
681.472	4.54
681.503	9.54
681.533	13.54
681.563	-1.46
681.594	-5.46
681.624	7.54
681.654	6.54
681.685	-6.46
681.715	2.54
681.745	3.54
681.775	-15.46
681.806	4.54
681.836	14.54
681.866	-1.46
681.897	-1.46
681.927	-15.46
681.957	-15.46
681.987	9.54
682.018	5.54
682.048	8.54
682.078	15.54
682.109	23.54
682.139	13.54
682.169	19.54
682.199	7.54
682.23	3.54
682.26	6.54
682.29	-1.46
682.32	10.54
682.351	4.54
682.381	4.54
682.411	8.54
682.441	-13.46
682.472	-0.46
682.502	7.54
682.532	-4.46
682.562	18.54
682.592	15.54
682.623	8.54
682.653	3.54
682.683	-14.46
682.713	-9.46
682.743	5.54
682.774	0.54
682.804	7.54
682.834	20.54
682.864	3.54
682.894	6.54
682.925	-12.46
682.955	-13.46
682.985	-0.46
683.015	-4.46
683.045	18.54
683.076	-2.46
683.106	3.54
683.136	-6.46
683.166	-6.46
683.196	-7.46
683.226	-5.46
683.257	1.54
683.287	-14.46
683.317	-2.46
683.347	-8.46
683.377	-9.46
683.407	9.54
683.437	19.54
683.468	21.54
683.498	-13.46
683.528	4.54
683.558	12.54
683.588	6.54
683.618	9.54
683.648	-8.46
683.678	7.54
683.708	9.54
683.739	-5.46
683.769	4.54
683.799	15.54
683.829	1.54
683.859	7.54
683.889	12.54
683.919	9.54
683.949	12.54
683.979	-8.46
684.009	7.54
684.039	14.54
684.07	-9.46
684.1	27.54
684.13	5.54
684.16	0.54
684.19	1.54
684.22	-0.46
684.25	26.54
684.28	-6.46
684.31	5.54
684.34	26.54
684.37	-6.46
684.4	8.54
684.43	19.54
684.46	16.54
684.49	15.54
684.52	-6.46
684.55	3.54
684.58	9.54
684.61	4.54
684.64	3.54
684.67	6.54
684.7	11.54
684.73	3.54
684.76	0.54
684.79	9.54
684.82	-8.46
684.85	-1.46
684.88	23.54
684.91	6.54
684.94	19.54
684.97	-12.46
685	-5.46
685.03	-22.46
685.06	-2.46
685.09	10.54
685.12	13.54
685.15	2.54
685.18	6.54
685.21	-2.46
685.24	13.54
685.27	-7.46
685.3	3.54
685.33	10.54
685.36	11.54
685.39	2.54
685.42	8.54
685.45	3.54
685.48	7.54
685.51	3.54
685.54	11.54
685.569	9.54
685.599	8.54
685.629	2.54
685.659	4.54
685.689	5.54
685.719	6.54
685.749	-3.46
685.779	27.54
685.809	21.54
685.839	5.54
685.869	14.54
685.898	1.54
685.928	0.54
685.958	7.54
685.988	0.54
686.018	11.54
686.048	0.54
686.078	8.54
686.108	26.54
686.137	19.54
686.167	30.54
686.197	-5.46
686.227	-2.46
686.257	29.54
686.287	15.54
686.317	4.54
686.346	-5.46
686.376	-0.46
686.406	-7.46
686.436	12.54
686.466	1.54
686.496	-2.46
686.525	-0.46
686.555	-13.46
686.585	18.54
686.615	35.54
686.645	25.54
686.675	8.54
686.704	1.54
686.734	1.54
686.764	11.54
686.794	-11.46
686.824	-8.46
686.853	23.54
686.883	20.54
686.913	11.54
686.943	6.54
686.973	-8.46
687.002	6.54
687.032	16.54
687.062	0.54
687.092	26.54
687.121	-3.46
687.151	10.54
687.181	3.54
687.211	10.54
687.24	10.54
687.27	9.54
687.3	8.54
687.33	11.54
687.359	-17.46
687.389	6.54
687.419	0.54
687.449	8.54
687.478	9.54
687.508	3.54
687.538	16.54
687.568	23.54
687.597	0.54
687.627	6.54
687.657	9.54
687.686	6.54
687.716	35.54
687.746	-0.46
687.776	4.54
687.805	-1.46
687.835	7.54
687.865	27.54
687.894	-0.46
687.924	2.54
687.954	-0.46
687.983	10.54
688.013	5.54
688.043	17.54
688.072	2.54
688.102	8.54
688.132	6.54
688.161	10.54
688.191	-14.46
688.221	17.54
688.25	-1.46
688.28	6.54
688.31	7.54
688.339	13.54
688.369	3.54
688.399	5.54
688.428	-0.46
688.458	15.54
688.488	-7.46
688.517	14.54
688.547	-2.46
688.576	43.54
688.606	13.54
688.636	-8.46
688.665	8.54
688.695	12.54
688.725	6.54
688.754	14.54
688.784	3.54
688.813	17.54
688.843	9.54
688.873	11.54
688.902	0.54
688.932	4.54
688.961	-5.46
688.991	-6.46
689.02	7.54
689.05	12.54
689.08	10.54
689.109	30.54
689.139	9.54
689.168	16.54
689.198	1.54
689.227	14.54
689.257	7.54
689.287	30.54
689.316	2.54
689.346	-4.46
689.375	6.54
689.405	11.54
689.434	31.54
689.464	16.54
689.493	-4.46
689.523	-5.46
689.552	1.54
689.582	0.54
689.611	-3.46
689.641	8.54
689.67	-1.46
689.7	-2.46
689.73	28.54
689.759	14.54
689.789	20.54
689.818	14.54
689.848	-2.46
689.877	23.54
689.906	9.54
689.936	5.54
689.965	6.54
689.995	7.54
690.024	11.54
690.054	7.54
690.083	7.54
690.113	12.54
690.142	3.54
690.172	-1.46
690.201	6.54
690.231	5.54
690.26	21.54
690.29	14.54
690.319	33.54
690.348	15.54
690.378	15.54
690.407	6.54
690.437	23.54
690.466	2.54
690.496	8.54
690.525	8.54
690.555	5.54
690.584	11.54
690.613	-9.46
690.643	14.54
690.672	17.54
690.702	18.54
690.731	11.54
690.76	18.54
690.79	5.54
690.819	5.54
690.849	9.54
690.878	7.54
690.907	-4.46
690.937	17.54
690.966	18.54
690.996	4.54
691.025	10.54
691.054	13.54
691.084	-1.46
691.113	4.54
691.142	14.54
691.172	11.54
691.201	23.54
691.23	13.54
691.26	14.54
691.289	13.54
691.319	-5.46
691.348	5.54
691.377	5.54
691.407	9.54
691.436	0.54
691.465	6.54
691.495	14.54
691.524	-9.46
691.553	-6.46
691.583	-15.46
691.612	9.54
691.641	3.54
691.67	1.54
691.7	8.54
691.729	8.54
691.758	16.54
691.788	1.54
691.817	10.54
691.846	-3.46
691.876	14.54
691.905	8.54
691.934	-3.46
691.963	16.54
691.993	15.54
692.022	-2.46
692.051	-2.46
692.081	9.54
692.11	12.54
692.139	11.54
692.168	1.54
692.198	4.54
692.227	15.54
692.256	7.54
692.285	-6.46
692.315	-9.46
692.344	13.54
692.373	8.54
692.402	-23.46
692.432	-11.46
692.461	6.54
692.49	7.54
692.519	-1.46
692.548	15.54
692.578	11.54
692.607	-17.46
692.636	-4.46
692.665	8.54
692.694	-8.46
692.724	14.54
692.753	14.54
692.782	34.54
692.811	15.54
692.84	-3.46
692.87	9.54
692.899	9.54
692.928	12.54
692.957	19.54
692.986	3.54
693.016	1.54
693.045	6.54
693.074	3.54
693.103	8.54
693.132	7.54
693.161	16.54
693.191	11.54
693.22	0.54
693.249	13.54
693.278	15.54
693.307	18.54
693.336	-1.46
693.365	0.54
693.395	-1.46
693.424	16.54
693.453	16.54
693.482	7.54
693.511	20.54
693.54	17.54
693.569	24.54
693.598	20.54
693.628	24.54
693.657	10.54
693.686	20.54
693.715	0.54
693.744	12.54
693.773	6.54
693.802	10.54
693.831	1.54
693.86	30.54
693.889	2.54
693.919	10.54
693.948	16.54
693.977	9.54
694.006	8.54
694.035	-0.46
694.064	-0.46
694.093	-2.46
694.122	-7.46
694.151	6.54
694.18	3.54
694.209	21.54
694.238	16.54
694.267	22.54
694.296	7.54
694.325	8.54
694.354	19.54
694.383	18.54
694.412	-0.46
694.441	-13.46
694.471	-0.46
694.5	1.54
694.529	-0.46
694.558	21.54
694.587	12.54
694.616	-6.46
694.645	1.54
694.674	19.54
694.703	15.54
694.732	3.54
694.761	24.54
694.79	14.54
694.819	-3.46
694.848	-0.46
694.877	18.54
694.906	32.54
694.935	11.54
694.963	27.54
694.992	-0.46
695.021	3.54
695.05	16.54
695.079	10.54
695.108	4.54
695.137	25.54
695.166	14.54
695.195	-13.46
695.224	18.54
695.253	16.54
695.282	15.54
695.311	13.54
695.34	14.54
695.369	17.54
695.398	6.54
695.427	26.54
695.456	1.54
695.485	-0.46
695.513	18.54
695.542	16.54
695.571	-2.46
695.6	33.54
695.629	10.54
695.658	23.54
695.687	17.54
695.716	5.54
695.745	24.54
695.774	3.54
695.802	22.54
695.831	8.54
695.86	8.54
695.889	9.54
695.918	6.54
695.947	-4.46
695.976	7.54
696.005	18.54
696.033	11.54
696.062	7.54
696.091	3.54
696.12	10.54
696.149	16.54
696.178	17.54
696.207	12.54
696.235	-1.46
696.264	6.54
696.293	1.54
696.322	17.54
696.351	12.54
696.38	4.54
696.408	11.54
696.437	1.54
696.466	12.54
696.495	20.54
696.524	15.54
696.553	20.54
696.581	15.54
696.61	7.54
696.639	9.54
696.668	2.54
696.697	4.54
696.725	6.54
696.754	15.54
696.783	3.54
696.812	12.54
696.84	12.54
696.869	13.54
696.898	16.54
696.927	-3.46
696.956	21.54
696.984	-7.46
697.013	12.54
697.042	14.54
697.071	14.54
697.099	18.54
697.128	4.54
697.157	-2.46
697.186	5.54
697.214	10.54
697.243	0.54
697.272	1.54
697.301	11.54
697.329	12.54
697.358	7.54
697.387	29.54
697.415	7.54
697.444	9.54
697.473	8.54
697.502	-3.46
697.53	9.54
697.559	7.54
697.588	1.54
697.616	-13.46
697.645	-4.46
697.674	14.54
697.703	-4.46
697.731	23.54
697.76	20.54
697.789	6.54
697.817	9.54
697.846	30.54
697.875	10.54
697.903	23.54
697.932	7.54
697.961	16.54
697.989	8.54
698.018	8.54
698.047	20.54
698.075	19.54
698.104	11.54
698.133	7.54
698.161	14.54
698.19	4.54
698.218	5.54
698.247	7.54
698.276	-4.46
698.304	17.54
698.333	11.54
698.362	10.54
698.39	20.54
698.419	15.54
698.447	10.54
698.476	15.54
698.505	34.54
698.533	11.54
698.562	16.54
698.591	-8.46
698.619	-13.46
698.648	10.54
698.676	0.54
698.705	-0.46
698.733	-0.46
698.762	7.54
698.791	8.54
698.819	10.54
698.848	-3.46
698.876	5.54
698.905	3.54
698.933	22.54
698.962	0.54
698.991	6.54
699.019	26.54
699.048	9.54
699.076	19.54
699.105	11.54
699.133	7.54
699.162	7.54
699.19	37.54
699.219	11.54
699.248	19.54
699.276	-4.46
699.305	4.54
699.333	13.54
699.362	4.54
699.39	13.54
699.419	0.54
699.447	3.54
699.476	22.54
699.504	6.54
699.533	15.54
699.561	-5.46
699.59	12.54
699.618	6.54
699.647	0.54
699.675	3.54
699.704	15.54
699.732	9.54
699.761	9.54
699.789	16.54
699.818	22.54
699.846	-6.46
699.874	3.54
699.903	10.54
699.931	12.54
699.96	3.54
699.988	7.54
700.017	-0.46
700.045	7.54
700.074	16.54
700.102	3.54
700.13	-0.46
700.159	8.54
700.187	1.54
700.216	-1.46
700.244	-2.46
700.273	9.54
700.301	-3.46
700.329	2.54
700.358	22.54
700.386	4.54
700.415	8.54
700.443	-5.46
700.472	-1.46
700.5	10.54
700.528	22.54
700.557	7.54
700.585	-14.46
700.614	7.54
700.642	9.54
700.67	4.54
700.699	2.54
700.727	-7.46
700.755	15.54
700.784	10.54
700.812	-1.46
700.841	2.54
700.869	-6.46
700.897	-4.46
700.926	-3.46
700.954	9.54
700.982	8.54
701.011	4.54
701.039	18.54
701.067	8.54
701.096	21.54
701.124	11.54
701.152	12.54
701.181	7.54
701.209	-4.46
701.237	13.54
701.266	-0.46
701.294	-19.46
701.322	7.54
701.351	25.54
701.379	17.54
701.407	-9.46
701.435	6.54
701.464	7.54
701.492	14.54
701.52	1.54
701.549	6.54
701.577	2.54
701.605	-4.46
701.634	5.54
701.662	18.54
701.69	-2.46
701.718	15.54
701.747	20.54
701.775	10.54
701.803	-4.46
701.831	12.54
701.86	-0.46
701.888	-8.46
701.916	-2.46
701.944	8.54
701.973	5.54
702.001	-0.46
702.029	9.54
702.057	-5.46
702.086	0.54
702.114	-15.46
702.142	7.54
702.17	-3.46
702.199	6.54
702.227	13.54
702.255	-0.46
702.283	-16.46
702.311	10.54
702.34	16.54
702.368	-3.46
702.396	4.54
702.424	4.54
702.452	-2.46
702.481	7.54
702.509	1.54
702.537	26.54
702.565	11.54
702.593	-16.46
702.621	2.54
702.65	3.54
702.678	-0.46
702.706	18.54
702.734	3.54
702.762	-1.46
702.79	13.54
702.819	-1.46
702.847	12.54
702.875	19.54
702.903	9.54
702.931	-0.46
702.959	0.54
702.988	5.54
703.016	-4.46
703.044	2.54
703.072	7.54
703.1	13.54
703.128	12.54
703.156	-4.46
703.184	4.54
703.212	18.54
703.241	10.54
703.269	3.54
703.297	7.54
703.325	2.54
703.353	-10.46
703.381	-9.46
703.409	9.54
703.437	-4.46
703.465	-7.46
703.493	-23.46
703.522	7.54
703.55	8.54
703.578	-3.46
703.606	3.54
703.634	2.54
703.662	4.54
703.69	4.54
703.718	15.54
703.746	11.54
703.774	9.54
703.802	9.54
703.83	0.54
703.858	2.54
703.886	1.54
703.914	-7.46
703.942	19.54
703.97	-2.46
703.998	7.54
704.027	21.54
704.055	14.54
704.083	-2.46
704.111	-0.46
704.139	7.54
704.167	-2.46
704.195	3.54
704.223	-1.46
704.251	7.54
704.279	21.54
704.307	6.54
704.335	-6.46
704.363	14.54
704.391	7.54
704.419	10.54
704.447	3.54
704.475	1.54
704.503	-5.46
704.531	22.54
704.558	4.54
704.586	7.54
704.614	0.54
704.642	10.54
704.67	2.54
704.698	3.54
704.726	19.54
704.754	-5.46
704.782	3.54
704.81	-0.46
704.838	15.54
704.866	-5.46
704.894	-23.46
704.922	4.54
704.95	12.54
704.978	3.54
705.006	6.54
705.034	19.54
705.061	4.54
705.089	3.54
705.117	-17.46
705.145	3.54
705.173	1.54
705.201	6.54
705.229	7.54
705.257	2.54
705.285	6.54
705.313	14.54
705.34	0.54
705.368	-1.46
705.396	15.54
705.424	15.54
705.452	-15.46
705.48	7.54
705.508	9.54
705.536	-0.46
705.563	12.54
705.591	6.54
705.619	3.54
705.647	6.54
705.675	13.54
705.703	24.54
705.731	13.54
705.758	2.54
705.786	14.54
705.814	21.54
705.842	-2.46
705.87	17.54
705.898	17.54
705.925	-0.46
705.953	5.54
705.981	8.54
706.009	11.54
706.037	-1.46
706.065	3.54
706.092	-3.46
706.12	-4.46
706.148	-12.46
706.176	3.54
706.204	6.54
706.231	-2.46
706.259	-21.46
706.287	2.54
706.315	4.54
706.342	2.54
706.37	24.54
706.398	6.54
706.426	2.54
706.454	-2.46
706.481	3.54
706.509	-1.46
706.537	-1.46
706.565	4.54
706.592	5.54
706.62	-12.46
706.648	7.54
706.676	-0.46
706.703	5.54
706.731	8.54
706.759	-6.46
706.787	4.54
706.814	-5.46
706.842	-3.46
706.87	-16.46
706.897	9.54
706.925	3.54
706.953	9.54
706.981	21.54
707.008	25.54
707.036	13.54
707.064	7.54
707.091	-1.46
707.119	7.54
707.147	19.54
707.174	-3.46
707.202	14.54
707.23	3.54
707.258	-1.46
707.285	-1.46
707.313	9.54
707.341	3.54
707.368	2.54
707.396	-1.46
707.424	4.54
707.451	-6.46
707.479	-2.46
707.507	7.54
707.534	4.54
707.562	19.54
707.59	1.54
707.617	2.54
707.645	11.54
707.672	9.54
707.7	9.54
707.728	7.54
707.755	10.54
707.783	8.54
707.811	15.54
707.838	10.54
707.866	11.54
707.893	1.54
707.921	-4.46
707.949	-15.46
707.976	6.54
708.004	9.54
708.031	18.54
708.059	1.54
708.087	2.54
708.114	13.54
708.142	-8.46
708.169	-9.46
708.197	3.54
708.225	-8.46
708.252	-11.46
708.28	10.54
708.307	-5.46
708.335	-3.46
708.362	1.54
708.39	-1.46
708.418	1.54
708.445	2.54
708.473	-13.46
708.5	9.54
708.528	15.54
708.555	8.54
708.583	1.54
708.61	-6.46
708.638	7.54
708.665	2.54
708.693	-2.46
708.72	-1.46
708.748	-4.46
708.776	5.54
708.803	26.54
708.831	16.54
708.858	9.54
708.886	31.54
708.913	2.54
708.941	0.54
708.968	15.54
708.996	9.54
709.023	34.54
709.051	-15.46
709.078	1.54
709.105	16.54
709.133	8.54
709.16	1.54
709.188	14.54
709.215	22.54
709.243	2.54
709.27	0.54
709.298	7.54
709.325	-3.46
709.353	0.54
709.38	8.54
709.408	27.54
709.435	5.54
709.462	4.54
709.49	15.54
709.517	-8.46
709.545	-1.46
709.572	7.54
709.6	0.54
709.627	8.54
709.655	-3.46
709.682	-0.46
709.709	1.54
709.737	9.54
709.764	-1.46
709.792	12.54
709.819	9.54
709.846	2.54
709.874	12.54
709.901	20.54
709.929	10.54
709.956	21.54
709.983	-6.46
710.011	-13.46
710.038	0.54
710.066	25.54
710.093	31.54
710.12	3.54
710.148	9.54
710.175	9.54
710.202	3.54
710.23	6.54
710.257	6.54
710.284	8.54
710.312	15.54
710.339	9.54
710.366	-0.46
710.394	-1.46
710.421	11.54
710.448	-0.46
710.476	-3.46
710.503	7.54
710.53	16.54
710.558	24.54
710.585	1.54
710.612	0.54
710.64	-8.46
710.667	0.54
710.694	-9.46
710.722	4.54
710.749	14.54
710.776	0.54
710.804	23.54
710.831	-7.46
710.858	12.54
710.885	20.54
710.913	15.54
710.94	15.54
710.967	16.54
710.995	14.54
711.022	15.54
711.049	3.54
711.076	-0.46
711.104	14.54
711.131	-2.46
711.158	10.54
711.185	0.54
711.213	-13.46
711.24	-3.46
711.267	-2.46
711.294	3.54
711.322	8.54
711.349	-7.46
711.376	-6.46
711.403	10.54
711.431	-4.46
711.458	-2.46
711.485	-13.46
711.512	-9.46
711.54	2.54
711.567	9.54
711.594	3.54
711.621	17.54
711.648	0.54
711.676	20.54
711.703	24.54
711.73	-5.46
711.757	1.54
711.784	1.54
711.812	2.54
711.839	-6.46
711.866	-13.46
711.893	-0.46
711.92	3.54
711.947	-4.46
711.975	8.54
712.002	9.54
712.029	7.54
712.056	-3.46
712.083	6.54
712.11	-20.46
712.138	9.54
712.165	16.54
712.192	-2.46
712.219	-9.46
712.246	8.54
712.273	11.54
712.3	4.54
712.328	12.54
712.355	12.54
712.382	-5.46
712.409	10.54
712.436	-12.46
712.463	19.54
712.49	9.54
712.517	12.54
712.544	17.54
712.572	4.54
712.599	-5.46
712.626	8.54
712.653	11.54
712.68	-14.46
712.707	11.54
712.734	6.54
712.761	8.54
712.788	8.54
712.815	-2.46
712.842	15.54
712.87	-12.46
712.897	7.54
712.924	-2.46
712.951	4.54
712.978	15.54
713.005	17.54
713.032	13.54
713.059	-0.46
713.086	8.54
713.113	2.54
713.14	-13.46
713.167	1.54
713.194	20.54
713.221	4.54
713.248	20.54
713.275	5.54
713.302	7.54
713.329	15.54
713.356	0.54
713.383	9.54
713.41	9.54
713.437	-2.46
713.464	18.54
713.491	21.54
713.518	-3.46
713.545	-9.46
713.572	-1.46
713.599	22.54
713.626	5.54
713.653	11.54
713.68	0.54
713.707	4.54
713.734	5.54
713.761	-9.46
713.788	-0.46
713.815	2.54
713.842	-2.46
713.869	-0.46
713.896	18.54
713.923	2.54
713.95	5.54
713.977	0.54
714.004	11.54
714.031	-1.46
714.058	0.54
714.085	0.54
714.112	17.54
714.139	9.54
714.165	8.54
714.192	-8.46
714.219	1.54
714.246	10.54
714.273	-4.46
714.3	5.54
714.327	0.54
714.354	8.54
714.381	0.54
714.408	7.54
714.435	-3.46
714.461	6.54
714.488	4.54
714.515	-0.46
714.542	-7.46
714.569	2.54
714.596	-4.46
714.623	-10.46
714.65	-4.46
714.677	2.54
714.703	0.54
714.73	6.54
714.757	7.54
714.784	8.54
714.811	-17.46
714.838	-12.46
714.865	1.54
714.891	15.54
714.918	12.54
714.945	-5.46
714.972	10.54
714.999	22.54
715.026	2.54
715.052	26.54
715.079	-3.46
715.106	9.54
715.133	0.54
715.16	6.54
715.187	3.54
715.213	7.54
715.24	12.54
715.267	7.54
715.294	3.54
715.321	-11.46
715.347	0.54
715.374	-0.46
715.401	6.54
715.428	-3.46
715.455	3.54
715.481	-4.46
715.508	13.54
715.535	0.54
715.562	14.54
715.588	0.54
715.615	24.54
715.642	-4.46
715.669	24.54
715.695	-20.46
715.722	-8.46
715.749	7.54
715.776	6.54
715.802	2.54
715.829	8.54
715.856	-18.46
715.883	4.54
715.909	6.54
715.936	7.54
715.963	-1.46
715.99	-11.46
716.016	1.54
716.043	-3.46
716.07	0.54
716.096	-0.46
716.123	-8.46
716.15	8.54
716.177	3.54
716.203	23.54
716.23	9.54
716.257	9.54
716.283	6.54
716.31	12.54
716.337	11.54
716.363	-1.46
716.39	-3.46
716.417	-2.46
716.443	5.54
716.47	4.54
716.497	13.54
716.523	8.54
716.55	11.54
716.577	18.54
716.603	-3.46
716.63	2.54
716.657	10.54
716.683	2.54
716.71	13.54
716.737	7.54
716.763	18.54
716.79	10.54
716.817	22.54
716.843	12.54
716.87	8.54
716.897	7.54
716.923	14.54
716.95	-13.46
716.976	1.54
717.003	6.54
717.03	1.54
717.056	21.54
717.083	-1.46
717.109	0.54
717.136	4.54
717.163	-0.46
717.189	-6.46
717.216	-9.46
717.242	2.54
717.269	28.54
717.296	16.54
717.322	3.54
717.349	27.54
717.375	7.54
717.402	-0.46
717.428	-0.46
717.455	23.54
717.481	11.54
717.508	-1.46
717.535	7.54
717.561	17.54
717.588	-2.46
717.614	11.54
717.641	5.54
717.667	3.54
717.694	3.54
717.72	1.54
717.747	4.54
717.773	11.54
717.8	12.54
717.826	0.54
717.853	-11.46
717.88	15.54
717.906	6.54
717.933	4.54
717.959	0.54
717.986	2.54
718.012	4.54
718.039	21.54
718.065	7.54
718.092	7.54
718.118	-0.46
718.144	15.54
718.171	14.54
718.197	28.54
718.224	2.54
718.25	9.54
718.277	2.54
718.303	7.54
718.33	8.54
718.356	17.54
718.383	1.54
718.409	-1.46
718.436	14.54
718.462	7.54
718.489	-1.46
718.515	10.54
718.541	28.54
718.568	14.54
718.594	6.54
718.621	17.54
718.647	27.54
718.674	20.54
718.7	26.54
718.726	2.54
718.753	12.54
718.779	6.54
718.806	-7.46
718.832	16.54
718.858	0.54
718.885	-5.46
718.911	6.54
718.938	12.54
718.964	-0.46
718.99	10.54
719.017	13.54
719.043	10.54
719.07	12.54
719.096	-8.46
719.122	7.54
719.149	4.54
719.175	11.54
719.201	4.54
719.228	1.54
719.254	10.54
719.281	-7.46
719.307	6.54
719.333	6.54
719.36	8.54
719.386	11.54
719.412	8.54
719.439	-6.46
719.465	3.54
719.491	1.54
719.518	13.54
719.544	15.54
719.57	25.54
719.597	7.54
719.623	6.54
719.649	17.54
719.675	10.54
719.702	1.54
719.728	9.54
719.754	-5.46
719.781	21.54
719.807	-4.46
719.833	4.54
719.86	3.54
719.886	1.54
719.912	9.54
719.938	8.54
719.965	-0.46
719.991	8.54
720.017	0.54
720.044	-6.46
720.07	8.54
720.096	7.54
720.122	-1.46
720.149	18.54
720.175	26.54
720.201	19.54
720.227	5.54
720.254	1.54
720.28	-1.46
720.306	-5.46
720.332	8.54
720.359	8.54
720.385	11.54
720.411	14.54
720.437	12.54
720.463	11.54
720.49	15.54
720.516	-1.46
720.542	-3.46
720.568	-0.46
720.595	7.54
720.621	0.54
720.647	16.54
720.673	7.54
720.699	13.54
720.725	14.54
720.752	12.54
720.778	20.54
720.804	15.54
720.83	4.54
720.856	1.54
720.883	2.54
720.909	-5.46
720.935	13.54
720.961	16.54
720.987	14.54
721.013	11.54
721.04	5.54
721.066	-3.46
721.092	9.54
721.118	6.54
721.144	10.54
721.17	-5.46
721.196	7.54
721.223	-8.46
721.249	6.54
721.275	13.54
721.301	7.54
721.327	7.54
721.353	7.54
721.379	-6.46
721.405	4.54
721.432	14.54
721.458	4.54
721.484	10.54
721.51	-4.46
721.536	12.54
721.562	4.54
721.588	2.54
721.614	-3.46
721.64	3.54
721.666	-0.46
721.693	2.54
721.719	3.54
721.745	0.54
721.771	-1.46
721.797	-0.46
721.823	2.54
721.849	22.54
721.875	1.54
721.901	-0.46
721.927	-0.46
721.953	15.54
721.979	26.54
722.005	8.54
722.031	1.54
722.057	4.54
722.083	4.54
722.109	7.54
722.135	26.54
722.161	5.54
722.187	0.54
722.214	4.54
722.24	-6.46
722.266	-6.46
722.292	4.54
722.318	16.54
722.344	6.54
722.37	6.54
722.396	15.54
722.422	18.54
722.448	8.54
722.474	-2.46
722.5	23.54
722.526	10.54
722.552	-4.46
722.578	18.54
722.603	26.54
722.629	7.54
722.655	10.54
722.681	-18.46
722.707	6.54
722.733	-0.46
722.759	-5.46
722.785	1.54
722.811	6.54
722.837	10.54
722.863	20.54
722.889	7.54
722.915	4.54
722.941	6.54
722.967	7.54
722.993	19.54
723.019	12.54
723.045	7.54
723.071	12.54
723.097	1.54
723.122	15.54
723.148	-3.46
723.174	-7.46
723.2	17.54
723.226	11.54
723.252	5.54
723.278	-13.46
723.304	2.54
723.33	-2.46
723.356	1.54
723.381	-4.46
723.407	-5.46
723.433	15.54
723.459	13.54
723.485	7.54
723.511	14.54
723.537	-0.46
723.563	-0.46
723.588	1.54
723.614	8.54
723.64	-5.46
723.666	-4.46
723.692	28.54
723.718	3.54
723.744	4.54
723.769	5.54
723.795	8.54
723.821	11.54
723.847	10.54
723.873	4.54
723.899	11.54
723.924	4.54
723.95	14.54
723.976	0.54
724.002	14.54
724.028	16.54
724.053	0.54
724.079	7.54
724.105	12.54
724.131	4.54
724.157	11.54
724.182	11.54
724.208	5.54
724.234	1.54
724.26	13.54
724.286	12.54
724.311	-9.46
724.337	-0.46
724.363	-11.46
724.389	9.54
724.415	5.54
724.44	31.54
724.466	6.54
724.492	10.54
724.518	6.54
724.543	1.54
724.569	8.54
724.595	14.54
724.621	6.54
724.646	-8.46
724.672	-12.46
724.698	-4.46
724.723	2.54
724.749	13.54
724.775	14.54
724.801	-3.46
724.826	6.54
724.852	5.54
724.878	6.54
724.904	3.54
724.929	19.54
724.955	7.54
724.981	3.54
725.006	3.54
725.032	2.54
725.058	16.54
725.083	3.54
725.109	1.54
725.135	-6.46
725.161	14.54
725.186	-5.46
725.212	6.54
725.238	1.54
725.263	7.54
725.289	-6.46
725.315	-5.46
725.34	8.54
725.366	6.54
725.392	6.54
725.417	9.54
725.443	6.54
725.468	8.54
725.494	6.54
725.52	14.54
725.545	4.54
725.571	-5.46
725.597	4.54
725.622	10.54
725.648	10.54
725.674	6.54
725.699	20.54
725.725	13.54
725.75	30.54
725.776	5.54
725.802	9.54
725.827	2.54
725.853	15.54
725.878	7.54
725.904	12.54
725.93	12.54
725.955	7.54
725.981	-2.46
726.006	10.54
726.032	2.54
726.057	6.54
726.083	-5.46
726.109	2.54
726.134	15.54
726.16	0.54
726.185	11.54
726.211	-0.46
726.236	-0.46
726.262	19.54
726.288	20.54
726.313	27.54
726.339	19.54
726.364	-2.46
726.39	16.54
726.415	9.54
726.441	5.54
726.466	6.54
726.492	13.54
726.517	9.54
726.543	6.54
726.568	0.54
726.594	3.54
726.619	2.54
726.645	28.54
726.67	13.54
726.696	7.54
726.721	6.54
726.747	-4.46
726.772	0.54
726.798	13.54
726.823	8.54
726.849	7.54
726.874	24.54
726.9	22.54
726.925	24.54
726.951	10.54
726.976	0.54
727.002	4.54
727.027	14.54
727.053	12.54
727.078	1.54
727.104	-2.46
727.129	-9.46
727.155	-9.46
727.18	13.54
727.205	5.54
727.231	2.54
727.256	8.54
727.282	10.54
727.307	20.54
727.333	-4.46
727.358	-0.46
727.383	-7.46
727.409	-0.46
727.434	11.54
727.46	7.54
727.485	7.54
727.511	13.54
727.536	-18.46
727.561	3.54
727.587	0.54
727.612	5.54
727.637	9.54
727.663	-4.46
727.688	28.54
727.714	3.54
727.739	6.54
727.764	-3.46
727.79	5.54
727.815	17.54
727.841	24.54
727.866	3.54
727.891	21.54
727.917	-17.46
727.942	-21.46
727.967	3.54
727.993	-13.46
728.018	-13.46
728.043	-1.46
728.069	15.54
728.094	15.54
728.119	12.54
728.145	15.54
728.17	5.54
728.195	0.54
728.221	13.54
728.246	2.54
728.271	-8.46
728.297	0.54
728.322	-4.46
728.347	13.54
728.373	8.54
728.398	15.54
728.423	4.54
728.448	11.54
728.474	12.54
728.499	2.54
728.524	-4.46
728.55	-6.46
728.575	14.54
728.6	10.54
728.625	10.54
728.651	17.54
728.676	1.54
728.701	7.54
728.727	6.54
728.752	-0.46
728.777	-0.46
728.802	16.54
728.828	6.54
728.853	6.54
728.878	-5.46
728.903	11.54
728.929	-4.46
728.954	2.54
728.979	14.54
729.004	3.54
729.03	-14.46
729.055	3.54
729.08	3.54
729.105	5.54
729.13	5.54
729.156	-2.46
729.181	0.54
729.206	-14.46
729.231	0.54
729.256	11.54
729.282	15.54
729.307	10.54
729.332	-3.46
729.357	-7.46
729.382	3.54
729.408	7.54
729.433	5.54
729.458	7.54
729.483	10.54
729.508	14.54
729.533	5.54
729.559	20.54
729.584	-9.46
729.609	3.54
729.634	6.54
729.659	-8.46
729.684	2.54
729.71	38.54
729.735	-2.46
729.76	-5.46
729.785	3.54
729.81	11.54
729.835	16.54
729.86	-4.46
729.886	10.54
729.911	8.54
729.936	6.54
729.961	14.54
729.986	4.54
730.011	11.54
730.036	2.54
730.061	9.54
730.086	-0.46
730.112	-0.46
730.137	12.54
730.162	9.54
730.187	11.54
730.212	9.54
730.237	-8.46
730.262	-1.46
730.287	1.54
730.312	12.54
730.337	-1.46
730.362	18.54
730.387	6.54
730.413	0.54
730.438	-9.46
730.463	0.54
730.488	2.54
730.513	1.54
730.538	2.54
730.563	-1.46
730.588	14.54
730.613	10.54
730.638	-5.46
730.663	4.54
730.688	25.54
730.713	5.54
730.738	17.54
730.763	8.54
730.788	-13.46
730.813	11.54
730.838	-7.46
730.863	10.54
730.888	10.54
730.913	9.54
730.938	-8.46
730.963	4.54
730.988	3.54
731.013	29.54
731.038	13.54
731.063	9.54
731.088	16.54
731.113	20.54
731.138	-3.46
731.163	-1.46
731.188	-6.46
731.213	8.54
731.238	22.54
731.263	5.54
731.288	-4.46
731.313	14.54
731.338	12.54
731.363	2.54
731.388	0.54
731.413	11.54
731.438	16.54
731.463	17.54
731.487	16.54
731.512	11.54
731.537	-17.46
731.562	-13.46
731.587	7.54
731.612	0.54
731.637	12.54
731.662	-0.46
731.687	10.54
731.712	0.54
731.737	4.54
731.762	-3.46
731.786	3.54
731.811	-0.46
731.836	10.54
731.861	15.54
731.886	-1.46
731.911	10.54
731.936	24.54
731.961	3.54
731.986	-2.46
732.01	5.54
732.035	8.54
732.06	7.54
732.085	1.54
732.11	15.54
732.135	0.54
732.16	12.54
732.184	2.54
732.209	10.54
732.234	9.54
732.259	5.54
732.284	9.54
732.309	-11.46
732.334	2.54
732.358	-15.46
732.383	-7.46
732.408	-0.46
732.433	8.54
732.458	-5.46
732.482	-0.46
732.507	7.54
732.532	2.54
732.557	18.54
732.582	12.54
732.607	12.54
732.631	-18.46
732.656	8.54
732.681	3.54
732.706	17.54
732.73	6.54
732.755	0.54
732.78	7.54
732.805	10.54
732.83	12.54
732.854	14.54
732.879	15.54
732.904	3.54
732.929	0.54
732.953	8.54
732.978	6.54
733.003	-4.46
733.028	2.54
733.052	28.54
733.077	10.54
733.102	33.54
733.127	4.54
733.151	2.54
733.176	15.54
733.201	1.54
733.226	2.54
733.25	2.54
733.275	8.54
733.3	8.54
733.324	19.54
733.349	3.54
733.374	26.54
733.399	1.54
733.423	3.54
733.448	2.54
733.473	-4.46
733.497	13.54
733.522	-2.46
733.547	9.54
733.571	23.54
733.596	10.54
733.621	19.54
733.646	8.54
733.67	-1.46
733.695	-0.46
733.72	5.54
733.744	14.54
733.769	23.54
733.794	3.54
733.818	11.54
733.843	6.54
733.867	-4.46
733.892	2.54
733.917	6.54
733.941	2.54
733.966	-8.46
733.991	4.54
734.015	17.54
734.04	8.54
734.065	11.54
734.089	12.54
734.114	15.54
734.138	8.54
734.163	6.54
734.188	9.54
734.212	13.54
734.237	22.54
734.261	14.54
734.286	2.54
734.311	-2.46
734.335	-4.46
734.36	7.54
734.384	7.54
734.409	9.54
734.434	0.54
734.458	6.54
734.483	8.54
734.507	3.54
734.532	-4.46
734.556	10.54
734.581	-0.46
734.606	-6.46
734.63	-8.46
734.655	25.54
734.679	16.54
734.704	3.54
734.728	2.54
734.753	2.54
734.777	15.54
734.802	-1.46
734.826	0.54
734.851	8.54
734.876	4.54
734.9	-3.46
734.925	13.54
734.949	7.54
734.974	10.54
734.998	10.54
735.023	9.54
735.047	2.54
735.072	28.54
735.096	16.54
735.121	28.54
735.145	22.54
735.17	6.54
735.194	6.54
735.219	10.54
735.243	14.54
735.268	19.54
735.292	6.54
735.317	22.54
735.341	13.54
735.365	-6.46
735.39	7.54
735.414	13.54
735.439	1.54
735.463	-6.46
735.488	21.54
735.512	19.54
735.537	14.54
735.561	10.54
735.586	20.54
735.61	32.54
735.634	18.54
735.659	17.54
735.683	31.54
735.708	13.54
735.732	11.54
735.757	15.54
735.781	7.54
735.805	-0.46
735.83	-7.46
735.854	0.54
735.879	11.54
735.903	6.54
735.927	-5.46
735.952	14.54
735.976	-6.46
736.001	-8.46
736.025	4.54
736.049	3.54
736.074	8.54
736.098	12.54
736.123	10.54
736.147	-5.46
736.171	-3.46
736.196	13.54
736.22	3.54
736.244	2.54
736.269	-3.46
736.293	8.54
736.317	4.54
736.342	24.54
736.366	20.54
736.39	6.54
736.415	2.54
736.439	3.54
736.463	21.54
736.488	15.54
736.512	4.54
736.536	7.54
736.561	24.54
736.585	7.54
736.609	7.54
736.634	8.54
736.658	12.54
736.682	13.54
736.707	1.54
736.731	-9.46
736.755	-3.46
736.78	19.54
736.804	26.54
736.828	4.54
736.852	3.54
736.877	10.54
736.901	20.54
736.925	15.54
736.949	19.54
736.974	6.54
736.998	7.54
737.022	11.54
737.047	-5.46
737.071	-8.46
737.095	3.54
737.119	28.54
737.144	20.54
737.168	-6.46
737.192	-5.46
737.216	3.54
737.241	1.54
737.265	11.54
737.289	10.54
737.313	-2.46
737.337	9.54
737.362	11.54
737.386	10.54
737.41	3.54
737.434	12.54
737.459	8.54
737.483	21.54
737.507	23.54
737.531	17.54
737.555	28.54
737.58	20.54
737.604	3.54
737.628	-2.46
737.652	4.54
737.676	2.54
737.701	12.54
737.725	4.54
737.749	6.54
737.773	23.54
737.797	-2.46
737.821	7.54
737.846	9.54
737.87	44.54
737.894	4.54
737.918	9.54
737.942	-6.46
737.966	15.54
737.99	18.54
738.015	10.54
738.039	8.54
738.063	7.54
738.087	5.54
738.111	0.54
738.135	20.54
738.159	-5.46
738.184	2.54
738.208	3.54
738.232	11.54
738.256	8.54
738.28	11.54
738.304	2.54
738.328	-0.46
738.352	10.54
738.376	5.54
738.4	2.54
738.425	8.54
738.449	12.54
738.473	30.54
738.497	25.54
738.521	12.54
738.545	10.54
738.569	8.54
738.593	26.54
738.617	4.54
738.641	3.54
738.665	20.54
738.689	8.54
738.713	15.54
738.737	15.54
738.762	21.54
738.786	14.54
738.81	-9.46
738.834	5.54
738.858	8.54
738.882	10.54
738.906	1.54
738.93	7.54
738.954	9.54
738.978	7.54
739.002	7.54
739.026	9.54
739.05	4.54
739.074	-0.46
739.098	22.54
739.122	17.54
739.146	26.54
739.17	19.54
739.194	19.54
739.218	2.54
739.242	-1.46
739.266	2.54
739.29	14.54
739.314	14.54
739.338	15.54
739.362	2.54
739.386	7.54
739.41	-5.46
739.434	5.54
739.458	18.54
739.482	14.54
739.506	14.54
739.53	2.54
739.554	20.54
739.577	-1.46
739.601	19.54
739.625	8.54
739.649	9.54
739.673	-2.46
739.697	13.54
739.721	1.54
739.745	10.54
739.769	17.54
739.793	2.54
739.817	6.54
739.841	15.54
739.865	21.54
739.889	-6.46
739.912	4.54
739.936	10.54
739.96	-0.46
739.984	11.54
740.008	21.54
740.032	-3.46
740.056	4.54
740.08	16.54
740.104	2.54
740.127	8.54
740.151	14.54
740.175	12.54
740.199	11.54
740.223	39.54
740.247	14.54
740.271	23.54
740.295	4.54
740.318	-11.46
740.342	2.54
740.366	8.54
740.39	22.54
740.414	-1.46
740.438	11.54
740.461	26.54
740.485	11.54
740.509	1.54
740.533	8.54
740.557	3.54
740.581	-0.46
740.604	-3.46
740.628	-7.46
740.652	2.54
740.676	4.54
740.7	19.54
740.723	-9.46
740.747	-5.46
740.771	-1.46
740.795	-0.46
740.819	-0.46
740.842	8.54
740.866	5.54
740.89	18.54
740.914	7.54
740.938	3.54
740.961	23.54
740.985	15.54
741.009	8.54
741.033	2.54
741.056	-0.46
741.08	-0.46
741.104	-1.46
741.128	-3.46
741.151	22.54
741.175	4.54
741.199	-4.46
741.223	12.54
741.246	-11.46
741.27	14.54
741.294	12.54
741.318	8.54
741.341	-7.46
741.365	15.54
741.389	7.54
741.413	13.54
741.436	9.54
741.46	12.54
741.484	12.54
741.507	24.54
741.531	19.54
741.555	18.54
741.579	16.54
741.602	3.54
741.626	12.54
741.65	0.54
741.673	3.54
741.697	-0.46
741.721	3.54
741.744	4.54
741.768	7.54
741.792	20.54
741.815	-1.46
741.839	18.54
741.863	31.54
741.886	22.54
741.91	7.54
741.934	12.54
741.957	-6.46
741.981	7.54
742.005	2.54
742.028	-17.46
742.052	4.54
742.075	12.54
742.099	23.54
742.123	-4.46
742.146	9.54
742.17	8.54
742.194	-21.46
742.217	4.54
742.241	10.54
742.264	0.54
742.288	29.54
742.312	15.54
742.335	10.54
742.359	7.54
742.382	12.54
742.406	13.54
742.43	1.54
742.453	10.54
742.477	6.54
742.5	13.54
742.524	-1.46
742.548	-6.46
742.571	11.54
742.595	13.54
742.618	10.54
742.642	4.54
742.665	8.54
742.689	-7.46
742.712	-9.46
742.736	-4.46
742.76	-4.46
742.783	1.54
742.807	26.54
742.83	23.54
742.854	-13.46
742.877	-3.46
742.901	3.54
742.924	10.54
742.948	5.54
742.971	15.54
742.995	0.54
743.018	-5.46
743.042	0.54
743.065	-7.46
743.089	-1.46
743.112	4.54
743.136	-14.46
743.159	-4.46
743.183	6.54
743.206	12.54
743.23	3.54
743.253	-2.46
743.277	10.54
743.3	8.54
743.324	13.54
743.347	-0.46
743.371	15.54
743.394	13.54
743.418	19.54
743.441	23.54
743.465	17.54
743.488	19.54
743.512	-17.46
743.535	4.54
743.558	-7.46
743.582	14.54
743.605	10.54
743.629	1.54
743.652	15.54
743.676	15.54
743.699	6.54
743.723	21.54
743.746	25.54
743.769	2.54
743.793	2.54
743.816	10.54
743.84	20.54
743.863	-1.46
743.886	12.54
743.91	25.54
743.933	30.54
743.957	3.54
743.98	3.54
744.003	-11.46
744.027	13.54
744.05	12.54
744.074	-0.46
744.097	0.54
744.12	4.54
744.144	-1.46
744.167	3.54
744.19	2.54
744.214	9.54
744.237	8.54
744.26	23.54
744.284	7.54
744.307	-5.46
744.331	8.54
744.354	-8.46
744.377	-2.46
744.401	0.54
744.424	-3.46
744.447	0.54
744.471	7.54
