Data from HighRes_H2D2_15_04_11_07_2024_HR4C61891__86__15-05-43-042.txt Node

Date: Thu Nov 07 15:05:43 EST 2024
User: crc00042
Spectrometer: HR4C6189
Trigger mode: 4
Integration Time (sec): 1.000000E-1
Scans to average: 1
Electric dark correction enabled: true
Nonlinearity correction enabled: false
Boxcar width: 0
XAxis mode: Wavelengths
Number of Pixels in Spectrum: 3648
>>>>>Begin Spectral Data<<<<<
639.567	-98.77
639.602	-98.77
639.636	-98.77
639.67	-30.77
639.704	-24.77
639.738	10.23
639.773	-7.77
639.807	-14.77
639.841	6.23
639.875	21.23
639.909	-14.77
639.943	-11.77
639.978	11.23
640.012	0.23
640.046	4.23
640.08	4.23
640.114	-9.77
640.148	1.23
640.182	-7.77
640.217	0.23
640.251	30.23
640.285	12.23
640.319	-15.77
640.353	-0.77
640.387	-2.77
640.421	-0.77
640.455	7.23
640.49	0.23
640.524	1.23
640.558	7.23
640.592	8.23
640.626	7.23
640.66	10.23
640.694	-2.77
640.728	10.23
640.762	13.23
640.796	21.23
640.83	37.23
640.865	3.23
640.899	-4.77
640.933	-6.77
640.967	2.23
641.001	14.23
641.035	2.23
641.069	6.23
641.103	-5.77
641.137	0.23
641.171	-11.77
641.205	3.23
641.239	3.23
641.273	25.23
641.307	-4.77
641.341	-1.77
641.375	-6.77
641.409	-4.77
641.443	-10.77
641.477	-2.77
641.511	18.23
641.545	13.23
641.579	4.23
641.614	16.23
641.648	4.23
641.682	-7.77
641.716	19.23
641.75	17.23
641.784	-5.77
641.818	-2.77
641.852	16.23
641.886	0.23
641.919	28.23
641.953	8.23
641.987	-17.77
642.021	13.23
642.055	9.23
642.089	14.23
642.123	-4.77
642.157	-29.77
642.191	-15.77
642.225	11.23
642.259	-3.77
642.293	11.23
642.327	10.23
642.361	9.23
642.395	6.23
642.429	16.23
642.463	6.23
642.497	29.23
642.531	9.23
642.565	-9.77
642.599	9.23
642.633	-10.77
642.666	22.23
642.7	13.23
642.734	21.23
642.768	4.23
642.802	1.23
642.836	6.23
642.87	-1.77
642.904	14.23
642.938	4.23
642.972	6.23
643.005	13.23
643.039	10.23
643.073	3.23
643.107	14.23
643.141	11.23
643.175	14.23
643.209	12.23
643.243	16.23
643.276	27.23
643.31	-4.77
643.344	7.23
643.378	8.23
643.412	27.23
643.446	6.23
643.48	-1.77
643.513	2.23
643.547	6.23
643.581	6.23
643.615	10.23
643.649	-7.77
643.683	8.23
643.716	4.23
643.75	18.23
643.784	9.23
643.818	9.23
643.852	-1.77
643.886	-1.77
643.919	16.23
643.953	9.23
643.987	-0.77
644.021	16.23
644.055	18.23
644.088	-1.77
644.122	7.23
644.156	3.23
644.19	-6.77
644.224	11.23
644.257	12.23
644.291	18.23
644.325	14.23
644.359	0.23
644.392	16.23
644.426	18.23
644.46	18.23
644.494	2.23
644.527	-15.77
644.561	5.23
644.595	15.23
644.629	5.23
644.662	-17.77
644.696	13.23
644.73	3.23
644.764	0.23
644.797	-5.77
644.831	9.23
644.865	14.23
644.899	15.23
644.932	12.23
644.966	-1.77
645	10.23
645.033	14.23
645.067	5.23
645.101	-0.77
645.135	12.23
645.168	5.23
645.202	-3.77
645.236	-9.77
645.269	21.23
645.303	13.23
645.337	-4.77
645.37	-4.77
645.404	13.23
645.438	0.23
645.471	0.23
645.505	14.23
645.539	12.23
645.572	3.23
645.606	1.23
645.64	2.23
645.673	12.23
645.707	26.23
645.741	11.23
645.774	6.23
645.808	13.23
645.842	20.23
645.875	8.23
645.909	-5.77
645.943	-9.77
645.976	6.23
646.01	13.23
646.043	22.23
646.077	18.23
646.111	17.23
646.144	13.23
646.178	11.23
646.212	2.23
646.245	5.23
646.279	9.23
646.312	24.23
646.346	33.23
646.38	13.23
646.413	17.23
646.447	8.23
646.48	4.23
646.514	3.23
646.547	2.23
646.581	14.23
646.615	8.23
646.648	-2.77
646.682	4.23
646.715	1.23
646.749	5.23
646.782	20.23
646.816	0.23
646.85	7.23
646.883	-2.77
646.917	20.23
646.95	12.23
646.984	8.23
647.017	8.23
647.051	8.23
647.084	4.23
647.118	2.23
647.151	8.23
647.185	0.23
647.218	-20.77
647.252	1.23
647.285	-7.77
647.319	-11.77
647.353	15.23
647.386	20.23
647.42	7.23
647.453	5.23
647.487	14.23
647.52	-1.77
647.553	12.23
647.587	17.23
647.62	12.23
647.654	2.23
647.687	12.23
647.721	7.23
647.754	8.23
647.788	-3.77
647.821	-15.77
647.855	10.23
647.888	-4.77
647.922	12.23
647.955	0.23
647.989	6.23
648.022	-2.77
648.055	7.23
648.089	18.23
648.122	12.23
648.156	22.23
648.189	18.23
648.223	18.23
648.256	21.23
648.29	12.23
648.323	8.23
648.356	14.23
648.39	23.23
648.423	17.23
648.457	16.23
648.49	23.23
648.523	24.23
648.557	12.23
648.59	6.23
648.624	14.23
648.657	-1.77
648.69	25.23
648.724	12.23
648.757	22.23
648.791	8.23
648.824	27.23
648.857	27.23
648.891	3.23
648.924	7.23
648.957	22.23
648.991	5.23
649.024	12.23
649.057	10.23
649.091	-0.77
649.124	32.23
649.158	7.23
649.191	19.23
649.224	33.23
649.258	6.23
649.291	-5.77
649.324	9.23
649.358	15.23
649.391	0.23
649.424	10.23
649.458	-1.77
649.491	4.23
649.524	5.23
649.557	13.23
649.591	-12.77
649.624	20.23
649.657	-0.77
649.691	17.23
649.724	6.23
649.757	5.23
649.791	1.23
649.824	31.23
649.857	25.23
649.89	24.23
649.924	-10.77
649.957	5.23
649.99	-17.77
650.023	-22.77
650.057	2.23
650.09	-0.77
650.123	3.23
650.157	13.23
650.19	22.23
650.223	3.23
650.256	-7.77
650.29	10.23
650.323	4.23
650.356	14.23
650.389	16.23
650.423	-0.77
650.456	13.23
650.489	10.23
650.522	13.23
650.555	13.23
650.589	5.23
650.622	-0.77
650.655	3.23
650.688	-2.77
650.721	1.23
650.755	12.23
650.788	11.23
650.821	8.23
650.854	-12.77
650.887	11.23
650.921	10.23
650.954	-12.77
650.987	1.23
651.02	-1.77
651.053	-4.77
651.087	-5.77
651.12	32.23
651.153	21.23
651.186	10.23
651.219	-6.77
651.252	14.23
651.286	8.23
651.319	-6.77
651.352	14.23
651.385	2.23
651.418	2.23
651.451	14.23
651.484	7.23
651.518	15.23
651.551	20.23
651.584	-0.77
651.617	8.23
651.65	9.23
651.683	17.23
651.716	10.23
651.749	-2.77
651.783	-2.77
651.816	-3.77
651.849	-0.77
651.882	1.23
651.915	6.23
651.948	13.23
651.981	13.23
652.014	-7.77
652.047	-1.77
652.08	10.23
652.114	9.23
652.147	-19.77
652.18	7.23
652.213	19.23
652.246	4.23
652.279	-5.77
652.312	15.23
652.345	0.23
652.378	6.23
652.411	21.23
652.444	-0.77
652.477	26.23
652.51	4.23
652.543	0.23
652.576	0.23
652.609	15.23
652.642	17.23
652.675	19.23
652.709	9.23
652.742	11.23
652.775	11.23
652.808	14.23
652.841	-0.77
652.874	12.23
652.907	7.23
652.94	7.23
652.973	1.23
653.006	9.23
653.039	1.23
653.072	12.23
653.105	-2.77
653.138	-7.77
653.171	1.23
653.204	7.23
653.237	-3.77
653.27	5.23
653.303	7.23
653.336	4.23
653.368	9.23
653.401	6.23
653.434	2.23
653.467	8.23
653.5	-12.77
653.533	-7.77
653.566	-8.77
653.599	2.23
653.632	6.23
653.665	8.23
653.698	1.23
653.731	3.23
653.764	10.23
653.797	6.23
653.83	21.23
653.863	19.23
653.896	9.23
653.929	10.23
653.961	5.23
653.994	10.23
654.027	-2.77
654.06	18.23
654.093	29.23
654.126	20.23
654.159	-1.77
654.192	-0.77
654.225	13.23
654.258	5.23
654.29	19.23
654.323	10.23
654.356	3.23
654.389	14.23
654.422	-0.77
654.455	17.23
654.488	15.23
654.521	1.23
654.553	-1.77
654.586	22.23
654.619	-0.77
654.652	2.23
654.685	16.23
654.718	14.23
654.751	5.23
654.783	-2.77
654.816	25.23
654.849	-1.77
654.882	3.23
654.915	-1.77
654.948	12.23
654.98	0.23
655.013	4.23
655.046	0.23
655.079	9.23
655.112	16.23
655.144	-7.77
655.177	10.23
655.21	15.23
655.243	25.23
655.276	7.23
655.308	-2.77
655.341	2.23
655.374	13.23
655.407	-11.77
655.44	-2.77
655.472	9.23
655.505	19.23
655.538	12.23
655.571	13.23
655.603	17.23
655.636	13.23
655.669	28.23
655.702	14.23
655.734	-2.77
655.767	1.23
655.8	7.23
655.833	25.23
655.865	17.23
655.898	20.23
655.931	2.23
655.964	17.23
655.996	20.23
656.029	41.23
656.062	28.23
656.095	66.23
656.127	97.23
656.16	218.23
656.193	643.23
656.225	942.23
656.258	568.23
656.291	211.23
656.324	193.23
656.356	384.23
656.389	790.23
656.422	676.23
656.454	239.23
656.487	70.23
656.52	30.23
656.552	9.23
656.585	12.23
656.618	21.23
656.65	12.23
656.683	-3.77
656.716	2.23
656.748	10.23
656.781	16.23
656.814	-5.77
656.846	20.23
656.879	11.23
656.912	3.23
656.944	-3.77
656.977	-6.77
657.01	3.23
657.042	5.23
657.075	6.23
657.108	9.23
657.14	13.23
657.173	16.23
657.205	30.23
657.238	4.23
657.271	5.23
657.303	6.23
657.336	-4.77
657.369	11.23
657.401	14.23
657.434	0.23
657.466	11.23
657.499	8.23
657.532	-3.77
657.564	0.23
657.597	1.23
657.629	13.23
657.662	9.23
657.694	11.23
657.727	-11.77
657.76	15.23
657.792	-6.77
657.825	1.23
657.857	3.23
657.89	-1.77
657.922	6.23
657.955	-8.77
657.987	7.23
658.02	18.23
658.053	24.23
658.085	8.23
658.118	29.23
658.15	14.23
658.183	14.23
658.215	10.23
658.248	-1.77
658.28	-3.77
658.313	17.23
658.345	3.23
658.378	2.23
658.41	-3.77
658.443	12.23
658.475	16.23
658.508	5.23
658.54	-14.77
658.573	-2.77
658.605	-1.77
658.638	-5.77
658.67	0.23
658.703	4.23
658.735	-9.77
658.768	-5.77
658.8	-17.77
658.833	30.23
658.865	23.23
658.898	3.23
658.93	-18.77
658.963	8.23
658.995	-8.77
659.028	11.23
659.06	0.23
659.092	5.23
659.125	-9.77
659.157	15.23
659.19	7.23
659.222	0.23
659.255	7.23
659.287	12.23
659.32	2.23
659.352	9.23
659.384	14.23
659.417	1.23
659.449	14.23
659.482	19.23
659.514	8.23
659.546	-2.77
659.579	0.23
659.611	9.23
659.644	6.23
659.676	16.23
659.708	13.23
659.741	5.23
659.773	19.23
659.806	10.23
659.838	4.23
659.87	6.23
659.903	0.23
659.935	-5.77
659.967	11.23
660	11.23
660.032	-21.77
660.065	17.23
660.097	16.23
660.129	10.23
660.162	-1.77
660.194	2.23
660.226	11.23
660.259	24.23
660.291	7.23
660.323	-13.77
660.356	5.23
660.388	-13.77
660.42	-5.77
660.453	13.23
660.485	12.23
660.517	23.23
660.55	16.23
660.582	5.23
660.614	12.23
660.647	5.23
660.679	-4.77
660.711	0.23
660.743	-3.77
660.776	3.23
660.808	4.23
660.84	1.23
660.873	-3.77
660.905	-4.77
660.937	-7.77
660.969	7.23
661.002	3.23
661.034	5.23
661.066	8.23
661.099	9.23
661.131	28.23
661.163	7.23
661.195	14.23
661.228	24.23
661.26	-2.77
661.292	22.23
661.324	8.23
661.357	14.23
661.389	21.23
661.421	10.23
661.453	-4.77
661.485	20.23
661.518	6.23
661.55	-2.77
661.582	-17.77
661.614	4.23
661.647	9.23
661.679	1.23
661.711	14.23
661.743	3.23
661.775	3.23
661.808	17.23
661.84	-2.77
661.872	-1.77
661.904	6.23
661.936	8.23
661.969	-12.77
662.001	-12.77
662.033	9.23
662.065	1.23
662.097	15.23
662.129	6.23
662.162	2.23
662.194	6.23
662.226	5.23
662.258	5.23
662.29	2.23
662.322	-9.77
662.355	5.23
662.387	24.23
662.419	1.23
662.451	16.23
662.483	18.23
662.515	-9.77
662.547	-2.77
662.58	7.23
662.612	-3.77
662.644	-21.77
662.676	2.23
662.708	23.23
662.74	-0.77
662.772	9.23
662.804	14.23
662.836	22.23
662.869	-1.77
662.901	9.23
662.933	11.23
662.965	5.23
662.997	8.23
663.029	11.23
663.061	-4.77
663.093	-4.77
663.125	17.23
663.157	10.23
663.189	1.23
663.221	8.23
663.254	8.23
663.286	11.23
663.318	-3.77
663.35	-0.77
663.382	9.23
663.414	1.23
663.446	22.23
663.478	17.23
663.51	25.23
663.542	-2.77
663.574	-0.77
663.606	4.23
663.638	-9.77
663.67	-0.77
663.702	-0.77
663.734	-1.77
663.766	-3.77
663.798	-1.77
663.83	5.23
663.862	11.23
663.894	25.23
663.926	5.23
663.958	17.23
663.99	2.23
664.022	4.23
664.054	5.23
664.086	-0.77
664.118	7.23
664.15	-10.77
664.182	-11.77
664.214	-9.77
664.246	18.23
664.278	28.23
664.31	20.23
664.342	17.23
664.374	23.23
664.406	0.23
664.438	-6.77
664.47	8.23
664.502	9.23
664.534	14.23
664.566	10.23
664.598	4.23
664.63	0.23
664.662	12.23
664.693	13.23
664.725	-10.77
664.757	0.23
664.789	-0.77
664.821	11.23
664.853	12.23
664.885	-4.77
664.917	-6.77
664.949	15.23
664.981	23.23
665.013	2.23
665.045	6.23
665.076	10.23
665.108	10.23
665.14	10.23
665.172	-2.77
665.204	-2.77
665.236	-3.77
665.268	14.23
665.3	9.23
665.331	4.23
665.363	11.23
665.395	-16.77
665.427	1.23
665.459	13.23
665.491	0.23
665.523	1.23
665.555	-2.77
665.586	-7.77
665.618	-9.77
665.65	-13.77
665.682	23.23
665.714	15.23
665.746	3.23
665.777	8.23
665.809	2.23
665.841	14.23
665.873	-10.77
665.905	-10.77
665.937	3.23
665.968	20.23
666	-0.77
666.032	16.23
666.064	-6.77
666.096	0.23
666.127	4.23
666.159	6.23
666.191	4.23
666.223	-7.77
666.255	1.23
666.286	15.23
666.318	19.23
666.35	15.23
666.382	29.23
666.413	-6.77
666.445	3.23
666.477	0.23
666.509	6.23
666.54	7.23
666.572	11.23
666.604	11.23
666.636	8.23
666.667	19.23
666.699	13.23
666.731	9.23
666.763	-13.77
666.794	12.23
666.826	10.23
666.858	3.23
666.89	20.23
666.921	2.23
666.953	11.23
666.985	17.23
667.017	29.23
667.048	-9.77
667.08	11.23
667.112	-4.77
667.143	5.23
667.175	12.23
667.207	1.23
667.238	11.23
667.27	-4.77
667.302	10.23
667.334	2.23
667.365	36.23
667.397	10.23
667.429	9.23
667.46	22.23
667.492	11.23
667.524	10.23
667.555	-5.77
667.587	1.23
667.619	-13.77
667.65	-9.77
667.682	17.23
667.714	10.23
667.745	0.23
667.777	7.23
667.808	12.23
667.84	19.23
667.872	-0.77
667.903	5.23
667.935	3.23
667.967	7.23
667.998	0.23
668.03	-4.77
668.061	4.23
668.093	1.23
668.125	4.23
668.156	-0.77
668.188	2.23
668.22	4.23
668.251	8.23
668.283	13.23
668.314	14.23
668.346	-9.77
668.377	-0.77
668.409	-17.77
668.441	13.23
668.472	10.23
668.504	-0.77
668.535	5.23
668.567	-1.77
668.599	7.23
668.63	1.23
668.662	0.23
668.693	10.23
668.725	2.23
668.756	-2.77
668.788	6.23
668.819	-14.77
668.851	6.23
668.882	-4.77
668.914	8.23
668.946	9.23
668.977	3.23
669.009	21.23
669.04	3.23
669.072	7.23
669.103	9.23
669.135	-0.77
669.166	8.23
669.198	8.23
669.229	20.23
669.261	2.23
669.292	2.23
669.324	23.23
669.355	10.23
669.387	6.23
669.418	25.23
669.45	3.23
669.481	11.23
669.513	11.23
669.544	19.23
669.576	1.23
669.607	21.23
669.639	25.23
669.67	10.23
669.701	29.23
669.733	1.23
669.764	-11.77
669.796	-3.77
669.827	7.23
669.859	-6.77
669.89	26.23
669.922	20.23
669.953	21.23
669.985	7.23
670.016	0.23
670.047	11.23
670.079	9.23
670.11	10.23
670.142	2.23
670.173	0.23
670.204	-2.77
670.236	23.23
670.267	4.23
670.299	-10.77
670.33	3.23
670.362	23.23
670.393	-18.77
670.424	12.23
670.456	-20.77
670.487	-4.77
670.518	3.23
670.55	10.23
670.581	12.23
670.613	13.23
670.644	1.23
670.675	-7.77
670.707	0.23
670.738	11.23
670.769	13.23
670.801	-2.77
670.832	7.23
670.864	-2.77
670.895	6.23
670.926	8.23
670.958	-4.77
670.989	-1.77
671.02	-7.77
671.052	10.23
671.083	15.23
671.114	-8.77
671.146	17.23
671.177	12.23
671.208	2.23
671.24	2.23
671.271	0.23
671.302	21.23
671.333	17.23
671.365	8.23
671.396	6.23
671.427	11.23
671.459	19.23
671.49	-2.77
671.521	-19.77
671.553	4.23
671.584	9.23
671.615	3.23
671.646	10.23
671.678	-1.77
671.709	-10.77
671.74	-7.77
671.771	5.23
671.803	-17.77
671.834	5.23
671.865	-3.77
671.896	5.23
671.928	23.23
671.959	6.23
671.99	-2.77
672.021	12.23
672.053	2.23
672.084	15.23
672.115	21.23
672.146	6.23
672.178	4.23
672.209	3.23
672.24	18.23
672.271	15.23
672.303	17.23
672.334	13.23
672.365	3.23
672.396	11.23
672.427	20.23
672.459	22.23
672.49	31.23
672.521	22.23
672.552	14.23
672.583	17.23
672.615	19.23
672.646	10.23
672.677	3.23
672.708	4.23
672.739	4.23
672.77	15.23
672.802	0.23
672.833	-5.77
672.864	10.23
672.895	-1.77
672.926	12.23
672.957	-4.77
672.989	13.23
673.02	14.23
673.051	4.23
673.082	5.23
673.113	2.23
673.144	7.23
673.175	5.23
673.206	3.23
673.238	9.23
673.269	12.23
673.3	6.23
673.331	10.23
673.362	8.23
673.393	12.23
673.424	11.23
673.455	33.23
673.487	13.23
673.518	13.23
673.549	20.23
673.58	-0.77
673.611	16.23
673.642	3.23
673.673	0.23
673.704	13.23
673.735	-2.77
673.766	-3.77
673.797	-4.77
673.828	7.23
673.86	1.23
673.891	-7.77
673.922	3.23
673.953	1.23
673.984	18.23
674.015	16.23
674.046	16.23
674.077	0.23
674.108	0.23
674.139	-6.77
674.17	0.23
674.201	-2.77
674.232	7.23
674.263	4.23
674.294	-5.77
674.325	-9.77
674.356	11.23
674.387	32.23
674.418	17.23
674.449	-18.77
674.48	19.23
674.511	-7.77
674.542	-4.77
674.573	0.23
674.604	6.23
674.635	-0.77
674.666	6.23
674.697	13.23
674.728	-2.77
674.759	4.23
674.79	-14.77
674.821	-3.77
674.852	-7.77
674.883	-12.77
674.914	-2.77
674.945	21.23
674.976	17.23
675.007	-6.77
675.038	-3.77
675.069	-4.77
675.1	9.23
675.131	21.23
675.162	-1.77
675.193	3.23
675.224	-0.77
675.254	6.23
675.285	0.23
675.316	6.23
675.347	9.23
675.378	5.23
675.409	-3.77
675.44	14.23
675.471	11.23
675.502	-5.77
675.533	15.23
675.564	16.23
675.595	-3.77
675.625	25.23
675.656	20.23
675.687	7.23
675.718	-13.77
675.749	13.23
675.78	20.23
675.811	-5.77
675.842	11.23
675.873	17.23
675.903	9.23
675.934	6.23
675.965	-21.77
675.996	-18.77
676.027	-2.77
676.058	-10.77
676.089	-6.77
676.119	14.23
676.15	1.23
676.181	14.23
676.212	15.23
676.243	13.23
676.274	4.23
676.304	29.23
676.335	5.23
676.366	2.23
676.397	1.23
676.428	10.23
676.459	3.23
676.489	13.23
676.52	8.23
676.551	15.23
676.582	-8.77
676.613	-4.77
676.643	-4.77
676.674	4.23
676.705	7.23
676.736	13.23
676.767	18.23
676.797	18.23
676.828	17.23
676.859	11.23
676.89	7.23
676.92	-0.77
676.951	17.23
676.982	28.23
677.013	3.23
677.044	29.23
677.074	17.23
677.105	-10.77
677.136	10.23
677.167	0.23
677.197	21.23
677.228	-12.77
677.259	-17.77
677.289	-9.77
677.32	-7.77
677.351	-6.77
677.382	-10.77
677.412	10.23
677.443	4.23
677.474	-6.77
677.505	10.23
677.535	-10.77
677.566	-0.77
677.597	-11.77
677.627	-11.77
677.658	4.23
677.689	9.23
677.72	7.23
677.75	-4.77
677.781	15.23
677.812	17.23
677.842	9.23
677.873	7.23
677.904	12.23
677.934	-10.77
677.965	-2.77
677.996	-18.77
678.026	4.23
678.057	12.23
678.088	8.23
678.118	0.23
678.149	-12.77
678.18	-11.77
678.21	4.23
678.241	-1.77
678.272	10.23
678.302	9.23
678.333	-11.77
678.363	-0.77
678.394	10.23
678.425	4.23
678.455	6.23
678.486	7.23
678.517	9.23
678.547	-0.77
678.578	5.23
678.608	-12.77
678.639	-3.77
678.67	15.23
678.7	9.23
678.731	9.23
678.761	-3.77
678.792	-2.77
678.823	3.23
678.853	7.23
678.884	-10.77
678.914	9.23
678.945	-7.77
678.975	-7.77
679.006	3.23
679.037	5.23
679.067	36.23
679.098	10.23
679.128	-2.77
679.159	-5.77
679.189	13.23
679.22	3.23
679.25	10.23
679.281	16.23
679.312	4.23
679.342	8.23
679.373	19.23
679.403	8.23
679.434	12.23
679.464	3.23
679.495	8.23
679.525	0.23
679.556	-3.77
679.586	7.23
679.617	-11.77
679.647	14.23
679.678	11.23
679.708	1.23
679.739	15.23
679.769	4.23
679.8	5.23
679.83	26.23
679.861	9.23
679.891	2.23
679.922	-5.77
679.952	12.23
679.983	11.23
680.013	17.23
680.044	7.23
680.074	1.23
680.105	5.23
680.135	25.23
680.165	18.23
680.196	6.23
680.226	10.23
680.257	23.23
680.287	-6.77
680.318	7.23
680.348	-2.77
680.379	20.23
680.409	16.23
680.439	-8.77
680.47	16.23
680.5	5.23
680.531	12.23
680.561	5.23
680.592	11.23
680.622	10.23
680.652	5.23
680.683	14.23
680.713	-7.77
680.744	-4.77
680.774	16.23
680.804	13.23
680.835	-2.77
680.865	-4.77
680.896	18.23
680.926	16.23
680.956	2.23
680.987	5.23
681.017	-1.77
681.047	1.23
681.078	8.23
681.108	6.23
681.139	7.23
681.169	-5.77
681.199	-6.77
681.23	13.23
681.26	2.23
681.29	9.23
681.321	-14.77
681.351	7.23
681.381	-7.77
681.412	-1.77
681.442	-0.77
681.472	17.23
681.503	13.23
681.533	17.23
681.563	1.23
681.594	4.23
681.624	13.23
681.654	-9.77
681.685	-1.77
681.715	11.23
681.745	13.23
681.775	12.23
681.806	5.23
681.836	8.23
681.866	-12.77
681.897	0.23
681.927	4.23
681.957	-16.77
681.987	3.23
682.018	8.23
682.048	8.23
682.078	11.23
682.109	18.23
682.139	22.23
682.169	5.23
682.199	8.23
682.23	-3.77
682.26	3.23
682.29	20.23
682.32	9.23
682.351	-4.77
682.381	-3.77
682.411	11.23
682.441	-12.77
682.472	-5.77
682.502	1.23
682.532	2.23
682.562	7.23
682.592	8.23
682.623	13.23
682.653	-12.77
682.683	3.23
682.713	9.23
682.743	1.23
682.774	8.23
682.804	25.23
682.834	13.23
682.864	16.23
682.894	11.23
682.925	-11.77
682.955	13.23
682.985	17.23
683.015	8.23
683.045	-2.77
683.076	-3.77
683.106	-0.77
683.136	4.23
683.166	-1.77
683.196	-10.77
683.226	3.23
683.257	2.23
683.287	2.23
683.317	1.23
683.347	1.23
683.377	4.23
683.407	14.23
683.437	19.23
683.468	24.23
683.498	3.23
683.528	5.23
683.558	8.23
683.588	-3.77
683.618	11.23
683.648	11.23
683.678	6.23
683.708	7.23
683.739	-4.77
683.769	15.23
683.799	1.23
683.829	4.23
683.859	-8.77
683.889	13.23
683.919	12.23
683.949	5.23
683.979	-1.77
684.009	12.23
684.039	2.23
684.07	-11.77
684.1	16.23
684.13	10.23
684.16	16.23
684.19	0.23
684.22	4.23
684.25	7.23
684.28	-7.77
684.31	14.23
684.34	9.23
684.37	10.23
684.4	-5.77
684.43	22.23
684.46	15.23
684.49	9.23
684.52	4.23
684.55	3.23
684.58	-12.77
684.61	9.23
684.64	16.23
684.67	19.23
684.7	14.23
684.73	0.23
684.76	20.23
684.79	12.23
684.82	-3.77
684.85	-2.77
684.88	5.23
684.91	15.23
684.94	8.23
684.97	-7.77
685	4.23
685.03	4.23
685.06	12.23
685.09	1.23
685.12	21.23
685.15	-2.77
685.18	6.23
685.21	17.23
685.24	9.23
685.27	9.23
685.3	-10.77
685.33	10.23
685.36	9.23
685.39	2.23
685.42	-9.77
685.45	0.23
685.48	12.23
685.51	0.23
685.54	15.23
685.569	8.23
685.599	8.23
685.629	20.23
685.659	11.23
685.689	4.23
685.719	6.23
685.749	-5.77
685.779	3.23
685.809	9.23
685.839	4.23
685.869	14.23
685.898	12.23
685.928	-4.77
685.958	1.23
685.988	19.23
686.018	7.23
686.048	5.23
686.078	4.23
686.108	28.23
686.137	9.23
686.167	10.23
686.197	8.23
686.227	13.23
686.257	44.23
686.287	16.23
686.317	9.23
686.346	-9.77
686.376	6.23
686.406	-5.77
686.436	8.23
686.466	-9.77
686.496	5.23
686.525	9.23
686.555	6.23
686.585	24.23
686.615	28.23
686.645	18.23
686.675	3.23
686.704	5.23
686.734	20.23
686.764	5.23
686.794	-1.77
686.824	1.23
686.853	10.23
686.883	4.23
686.913	20.23
686.943	10.23
686.973	0.23
687.002	10.23
687.032	13.23
687.062	-6.77
687.092	18.23
687.121	4.23
687.151	12.23
687.181	-3.77
687.211	7.23
687.24	-8.77
687.27	-3.77
687.3	7.23
687.33	-1.77
687.359	-5.77
687.389	20.23
687.419	9.23
687.449	8.23
687.478	8.23
687.508	-0.77
687.538	17.23
687.568	10.23
687.597	17.23
687.627	8.23
687.657	19.23
687.686	36.23
687.716	22.23
687.746	2.23
687.776	-5.77
687.805	14.23
687.835	4.23
687.865	20.23
687.894	14.23
687.924	19.23
687.954	9.23
687.983	10.23
688.013	25.23
688.043	13.23
688.072	-2.77
688.102	0.23
688.132	11.23
688.161	19.23
688.191	-2.77
688.221	12.23
688.25	-0.77
688.28	12.23
688.31	9.23
688.339	17.23
688.369	7.23
688.399	-0.77
688.428	8.23
688.458	25.23
688.488	19.23
688.517	12.23
688.547	1.23
688.576	24.23
688.606	25.23
688.636	1.23
688.665	13.23
688.695	26.23
688.725	17.23
688.754	13.23
688.784	-6.77
688.813	21.23
688.843	10.23
688.873	7.23
688.902	-11.77
688.932	-0.77
688.961	8.23
688.991	19.23
689.02	23.23
689.05	14.23
689.08	20.23
689.109	34.23
689.139	19.23
689.168	4.23
689.198	3.23
689.227	12.23
689.257	10.23
689.287	4.23
689.316	5.23
689.346	2.23
689.375	6.23
689.405	3.23
689.434	-3.77
689.464	0.23
689.493	5.23
689.523	-8.77
689.552	-11.77
689.582	2.23
689.611	12.23
689.641	-5.77
689.67	4.23
689.7	0.23
689.73	16.23
689.759	9.23
689.789	8.23
689.818	3.23
689.848	5.23
689.877	27.23
689.906	-5.77
689.936	3.23
689.965	18.23
689.995	9.23
690.024	5.23
690.054	-12.77
690.083	16.23
690.113	-1.77
690.142	5.23
690.172	10.23
690.201	10.23
690.231	4.23
690.26	19.23
690.29	6.23
690.319	17.23
690.348	12.23
690.378	13.23
690.407	14.23
690.437	13.23
690.466	17.23
690.496	-6.77
690.525	6.23
690.555	6.23
690.584	-3.77
690.613	6.23
690.643	29.23
690.672	10.23
690.702	9.23
690.731	9.23
690.76	15.23
690.79	9.23
690.819	15.23
690.849	2.23
690.878	-13.77
690.907	-6.77
690.937	0.23
690.966	23.23
690.996	-2.77
691.025	0.23
691.054	0.23
691.084	14.23
691.113	13.23
691.142	12.23
691.172	12.23
691.201	27.23
691.23	15.23
691.26	21.23
691.289	22.23
691.319	3.23
691.348	11.23
691.377	19.23
691.407	8.23
691.436	12.23
691.465	24.23
691.495	10.23
691.524	8.23
691.553	12.23
691.583	-4.77
691.612	17.23
691.641	8.23
691.67	8.23
691.7	28.23
691.729	3.23
691.758	6.23
691.788	-15.77
691.817	-12.77
691.846	-1.77
691.876	25.23
691.905	7.23
691.934	0.23
691.963	9.23
691.993	1.23
692.022	8.23
692.051	3.23
692.081	13.23
692.11	33.23
692.139	10.23
692.168	17.23
692.198	31.23
692.227	9.23
692.256	5.23
692.285	16.23
692.315	9.23
692.344	4.23
692.373	5.23
692.402	-19.77
692.432	-12.77
692.461	3.23
692.49	15.23
692.519	0.23
692.548	4.23
692.578	18.23
692.607	1.23
692.636	-2.77
692.665	10.23
692.694	-14.77
692.724	-7.77
692.753	25.23
692.782	24.23
692.811	-7.77
692.84	14.23
692.87	11.23
692.899	5.23
692.928	16.23
692.957	7.23
692.986	25.23
693.016	17.23
693.045	12.23
693.074	14.23
693.103	1.23
693.132	19.23
693.161	18.23
693.191	3.23
693.22	-4.77
693.249	2.23
693.278	12.23
693.307	22.23
693.336	4.23
693.365	-13.77
693.395	7.23
693.424	10.23
693.453	25.23
693.482	17.23
693.511	22.23
693.54	18.23
693.569	12.23
693.598	9.23
693.628	28.23
693.657	7.23
693.686	35.23
693.715	34.23
693.744	13.23
693.773	22.23
693.802	20.23
693.831	-8.77
693.86	4.23
693.889	-4.77
693.919	-5.77
693.948	9.23
693.977	10.23
694.006	10.23
694.035	1.23
694.064	8.23
694.093	9.23
694.122	2.23
694.151	4.23
694.18	14.23
694.209	25.23
694.238	13.23
694.267	23.23
694.296	11.23
694.325	10.23
694.354	6.23
694.383	12.23
694.412	14.23
694.441	13.23
694.471	13.23
694.5	-1.77
694.529	10.23
694.558	32.23
694.587	14.23
694.616	5.23
694.645	-4.77
694.674	18.23
694.703	10.23
694.732	2.23
694.761	11.23
694.79	19.23
694.819	-0.77
694.848	1.23
694.877	24.23
694.906	23.23
694.935	24.23
694.963	21.23
694.992	0.23
695.021	12.23
695.05	13.23
695.079	-0.77
695.108	-0.77
695.137	25.23
695.166	5.23
695.195	-28.77
695.224	10.23
695.253	24.23
695.282	8.23
695.311	6.23
695.34	6.23
695.369	9.23
695.398	6.23
695.427	23.23
695.456	7.23
695.485	24.23
695.513	9.23
695.542	5.23
695.571	10.23
695.6	14.23
695.629	18.23
695.658	18.23
695.687	12.23
695.716	17.23
695.745	42.23
695.774	15.23
695.802	11.23
695.831	22.23
695.86	26.23
695.889	16.23
695.918	14.23
695.947	-0.77
695.976	1.23
696.005	9.23
696.033	11.23
696.062	37.23
696.091	26.23
696.12	21.23
696.149	6.23
696.178	12.23
696.207	9.23
696.235	21.23
696.264	13.23
696.293	17.23
696.322	10.23
696.351	12.23
696.38	5.23
696.408	11.23
696.437	11.23
696.466	12.23
696.495	21.23
696.524	1.23
696.553	11.23
696.581	12.23
696.61	10.23
696.639	1.23
696.668	3.23
696.697	6.23
696.725	12.23
696.754	9.23
696.783	4.23
696.812	5.23
696.84	23.23
696.869	17.23
696.898	9.23
696.927	14.23
696.956	29.23
696.984	12.23
697.013	17.23
697.042	8.23
697.071	9.23
697.099	18.23
697.128	16.23
697.157	10.23
697.186	1.23
697.214	11.23
697.243	16.23
697.272	29.23
697.301	19.23
697.329	24.23
697.358	20.23
697.387	33.23
697.415	28.23
697.444	10.23
697.473	5.23
697.502	-4.77
697.53	9.23
697.559	10.23
697.588	-2.77
697.616	5.23
697.645	13.23
697.674	18.23
697.703	6.23
697.731	18.23
697.76	8.23
697.789	22.23
697.817	18.23
697.846	23.23
697.875	20.23
697.903	16.23
697.932	21.23
697.961	2.23
697.989	20.23
698.018	25.23
698.047	12.23
698.075	26.23
698.104	-3.77
698.133	15.23
698.161	-10.77
698.19	12.23
698.218	14.23
698.247	4.23
698.276	4.23
698.304	7.23
698.333	0.23
698.362	30.23
698.39	17.23
698.419	11.23
698.447	2.23
698.476	6.23
698.505	16.23
698.533	20.23
698.562	4.23
698.591	-1.77
698.619	-0.77
698.648	13.23
698.676	10.23
698.705	8.23
698.733	-3.77
698.762	10.23
698.791	9.23
698.819	13.23
698.848	16.23
698.876	31.23
698.905	13.23
698.933	26.23
698.962	4.23
698.991	-0.77
699.019	24.23
699.048	10.23
699.076	12.23
699.105	-0.77
699.133	3.23
699.162	11.23
699.19	29.23
699.219	13.23
699.248	1.23
699.276	17.23
699.305	8.23
699.333	19.23
699.362	11.23
699.39	20.23
699.419	4.23
699.447	12.23
699.476	28.23
699.504	8.23
699.533	3.23
699.561	-3.77
699.59	13.23
699.618	9.23
699.647	-0.77
699.675	-0.77
699.704	18.23
699.732	5.23
699.761	18.23
699.789	-0.77
699.818	23.23
699.846	-1.77
699.874	12.23
699.903	12.23
699.931	-1.77
699.96	23.23
699.988	9.23
700.017	18.23
700.045	6.23
700.074	-2.77
700.102	6.23
700.13	2.23
700.159	6.23
700.187	18.23
700.216	0.23
700.244	13.23
700.273	10.23
700.301	9.23
700.329	12.23
700.358	8.23
700.386	8.23
700.415	2.23
700.443	-2.77
700.472	10.23
700.5	18.23
700.528	11.23
700.557	8.23
700.585	7.23
700.614	5.23
700.642	16.23
700.67	20.23
700.699	17.23
700.727	-9.77
700.755	6.23
700.784	8.23
700.812	9.23
700.841	21.23
700.869	-1.77
700.897	0.23
700.926	3.23
700.954	7.23
700.982	15.23
701.011	-2.77
701.039	18.23
701.067	13.23
701.096	12.23
701.124	7.23
701.152	-6.77
701.181	-4.77
701.209	-13.77
701.237	10.23
701.266	3.23
701.294	2.23
701.322	11.23
701.351	4.23
701.379	-6.77
701.407	-6.77
701.435	13.23
701.464	12.23
701.492	24.23
701.52	16.23
701.549	9.23
701.577	5.23
701.605	10.23
701.634	-11.77
701.662	17.23
701.69	1.23
701.718	0.23
701.747	13.23
701.775	5.23
701.803	-9.77
701.831	1.23
701.86	-2.77
701.888	17.23
701.916	12.23
701.944	-1.77
701.973	1.23
702.001	-17.77
702.029	-11.77
702.057	-9.77
702.086	13.23
702.114	2.23
702.142	9.23
702.17	1.23
702.199	5.23
702.227	11.23
702.255	-2.77
702.283	-4.77
702.311	5.23
702.34	14.23
702.368	3.23
702.396	-0.77
702.424	-1.77
702.452	12.23
702.481	20.23
702.509	16.23
702.537	17.23
702.565	7.23
702.593	-7.77
702.621	7.23
702.65	22.23
702.678	10.23
702.706	18.23
702.734	-23.77
702.762	9.23
702.79	9.23
702.819	10.23
702.847	16.23
702.875	6.23
702.903	15.23
702.931	11.23
702.959	0.23
702.988	15.23
703.016	-7.77
703.044	3.23
703.072	1.23
703.1	-5.77
703.128	9.23
703.156	4.23
703.184	10.23
703.212	18.23
703.241	19.23
703.269	12.23
703.297	9.23
703.325	20.23
703.353	4.23
703.381	-6.77
703.409	1.23
703.437	-11.77
703.465	5.23
703.493	2.23
703.522	6.23
703.55	19.23
703.578	-11.77
703.606	-5.77
703.634	-6.77
703.662	-13.77
703.69	11.23
703.718	9.23
703.746	26.23
703.774	6.23
703.802	7.23
703.83	12.23
703.858	-1.77
703.886	-13.77
703.914	-0.77
703.942	26.23
703.97	13.23
703.998	8.23
704.027	34.23
704.055	19.23
704.083	11.23
704.111	12.23
704.139	4.23
704.167	0.23
704.195	11.23
704.223	-3.77
704.251	6.23
704.279	15.23
704.307	-5.77
704.335	-16.77
704.363	8.23
704.391	4.23
704.419	4.23
704.447	-4.77
704.475	7.23
704.503	8.23
704.531	11.23
704.558	20.23
704.586	21.23
704.614	-4.77
704.642	16.23
704.67	5.23
704.698	4.23
704.726	6.23
704.754	1.23
704.782	6.23
704.81	-0.77
704.838	15.23
704.866	14.23
704.894	-9.77
704.922	1.23
704.95	19.23
704.978	12.23
705.006	11.23
705.034	14.23
705.061	2.23
705.089	17.23
705.117	6.23
705.145	7.23
705.173	5.23
705.201	23.23
705.229	18.23
705.257	6.23
705.285	9.23
705.313	4.23
705.34	-15.77
705.368	-4.77
705.396	5.23
705.424	8.23
705.452	-6.77
705.48	10.23
705.508	5.23
705.536	0.23
705.563	6.23
705.591	16.23
705.619	12.23
705.647	9.23
705.675	11.23
705.703	4.23
705.731	6.23
705.758	15.23
705.786	12.23
705.814	17.23
705.842	7.23
705.87	12.23
705.898	18.23
705.925	-12.77
705.953	27.23
705.981	0.23
706.009	3.23
706.037	22.23
706.065	-1.77
706.092	-19.77
706.12	4.23
706.148	10.23
706.176	10.23
706.204	11.23
706.231	5.23
706.259	-10.77
706.287	0.23
706.315	1.23
706.342	-9.77
706.37	26.23
706.398	4.23
706.426	9.23
706.454	10.23
706.481	19.23
706.509	31.23
706.537	11.23
706.565	-10.77
706.592	28.23
706.62	1.23
706.648	18.23
706.676	-4.77
706.703	12.23
706.731	8.23
706.759	-1.77
706.787	2.23
706.814	5.23
706.842	-13.77
706.87	5.23
706.897	8.23
706.925	0.23
706.953	8.23
706.981	10.23
707.008	12.23
707.036	6.23
707.064	-3.77
707.091	-12.77
707.119	25.23
707.147	15.23
707.174	6.23
707.202	22.23
707.23	9.23
707.258	13.23
707.285	-8.77
707.313	-6.77
707.341	-7.77
707.368	8.23
707.396	8.23
707.424	15.23
707.451	-4.77
707.479	14.23
707.507	5.23
707.534	1.23
707.562	5.23
707.59	8.23
707.617	2.23
707.645	5.23
707.672	0.23
707.7	2.23
707.728	16.23
707.755	6.23
707.783	-9.77
707.811	0.23
707.838	5.23
707.866	-4.77
707.893	-0.77
707.921	2.23
707.949	-2.77
707.976	10.23
708.004	1.23
708.031	-0.77
708.059	0.23
708.087	10.23
708.114	7.23
708.142	9.23
708.169	-6.77
708.197	2.23
708.225	4.23
708.252	-3.77
708.28	14.23
708.307	6.23
708.335	-12.77
708.362	-1.77
708.39	6.23
708.418	8.23
708.445	8.23
708.473	4.23
708.5	0.23
708.528	9.23
708.555	-4.77
708.583	4.23
708.61	-6.77
708.638	-2.77
708.665	-2.77
708.693	-4.77
708.72	6.23
708.748	3.23
708.776	-1.77
708.803	13.23
708.831	23.23
708.858	12.23
708.886	5.23
708.913	3.23
708.941	16.23
708.968	20.23
708.996	1.23
709.023	37.23
709.051	-4.77
709.078	-9.77
709.105	15.23
709.133	-0.77
709.16	10.23
709.188	16.23
709.215	18.23
709.243	6.23
709.27	-1.77
709.298	3.23
709.325	-10.77
709.353	-4.77
709.38	21.23
709.408	18.23
709.435	11.23
709.462	12.23
709.49	5.23
709.517	8.23
709.545	15.23
709.572	-0.77
709.6	10.23
709.627	14.23
709.655	-11.77
709.682	6.23
709.709	6.23
709.737	5.23
709.764	-0.77
709.792	10.23
709.819	13.23
709.846	-7.77
709.874	8.23
709.901	9.23
709.929	22.23
709.956	9.23
709.983	0.23
710.011	1.23
710.038	17.23
710.066	9.23
710.093	6.23
710.12	6.23
710.148	0.23
710.175	3.23
710.202	11.23
710.23	12.23
710.257	4.23
710.284	6.23
710.312	15.23
710.339	-1.77
710.366	2.23
710.394	-3.77
710.421	16.23
710.448	8.23
710.476	13.23
710.503	3.23
710.53	16.23
710.558	17.23
710.585	31.23
710.612	15.23
710.64	0.23
710.667	-2.77
710.694	-2.77
710.722	14.23
710.749	10.23
710.776	12.23
710.804	18.23
710.831	6.23
710.858	4.23
710.885	-3.77
710.913	0.23
710.94	12.23
710.967	-12.77
710.995	14.23
711.022	0.23
711.049	18.23
711.076	-5.77
711.104	-6.77
711.131	-11.77
711.158	5.23
711.185	17.23
711.213	1.23
711.24	-5.77
711.267	-6.77
711.294	-10.77
711.322	16.23
711.349	7.23
711.376	-0.77
711.403	11.23
711.431	3.23
711.458	1.23
711.485	-13.77
711.512	21.23
711.54	1.23
711.567	5.23
711.594	5.23
711.621	16.23
711.648	1.23
711.676	-1.77
711.703	27.23
711.73	1.23
711.757	16.23
711.784	8.23
711.812	1.23
711.839	10.23
711.866	3.23
711.893	5.23
711.92	1.23
711.947	8.23
711.975	16.23
712.002	4.23
712.029	11.23
712.056	8.23
712.083	5.23
712.11	-7.77
712.138	0.23
712.165	17.23
712.192	8.23
712.219	1.23
712.246	-17.77
712.273	6.23
712.3	0.23
712.328	6.23
712.355	5.23
712.382	2.23
712.409	15.23
712.436	-12.77
712.463	15.23
712.49	12.23
712.517	13.23
712.544	3.23
712.572	8.23
712.599	-6.77
712.626	13.23
712.653	-7.77
712.68	4.23
712.707	12.23
712.734	21.23
712.761	9.23
712.788	14.23
712.815	8.23
712.842	28.23
712.87	1.23
712.897	2.23
712.924	2.23
712.951	24.23
712.978	21.23
713.005	25.23
713.032	27.23
713.059	5.23
713.086	-0.77
713.113	3.23
713.14	11.23
713.167	11.23
713.194	24.23
713.221	12.23
713.248	16.23
713.275	10.23
713.302	2.23
713.329	5.23
713.356	6.23
713.383	12.23
713.41	11.23
713.437	-4.77
713.464	6.23
713.491	16.23
713.518	12.23
713.545	3.23
713.572	1.23
713.599	26.23
713.626	2.23
713.653	5.23
713.68	2.23
713.707	13.23
713.734	8.23
713.761	-6.77
713.788	3.23
713.815	13.23
713.842	10.23
713.869	8.23
713.896	5.23
713.923	20.23
713.95	5.23
713.977	-0.77
714.004	2.23
714.031	0.23
714.058	-0.77
714.085	3.23
714.112	17.23
714.139	-3.77
714.165	4.23
714.192	10.23
714.219	9.23
714.246	5.23
714.273	-7.77
714.3	-1.77
714.327	-3.77
714.354	7.23
714.381	6.23
714.408	9.23
714.435	9.23
714.461	10.23
714.488	20.23
714.515	6.23
714.542	1.23
714.569	-3.77
714.596	-4.77
714.623	10.23
714.65	9.23
714.677	0.23
714.703	5.23
714.73	11.23
714.757	10.23
714.784	13.23
714.811	6.23
714.838	16.23
714.865	5.23
714.891	9.23
714.918	3.23
714.945	7.23
714.972	8.23
714.999	16.23
715.026	8.23
715.052	22.23
715.079	7.23
715.106	4.23
715.133	23.23
715.16	4.23
715.187	5.23
715.213	1.23
715.24	-3.77
715.267	2.23
715.294	1.23
715.321	3.23
715.347	7.23
715.374	4.23
715.401	-0.77
715.428	13.23
715.455	-1.77
715.481	1.23
715.508	24.23
715.535	11.23
715.562	11.23
715.588	4.23
715.615	12.23
715.642	11.23
715.669	10.23
715.695	-9.77
715.722	10.23
715.749	12.23
715.776	14.23
715.802	8.23
715.829	6.23
715.856	-6.77
715.883	22.23
715.909	9.23
715.936	2.23
715.963	10.23
715.99	9.23
716.016	14.23
716.043	10.23
716.07	0.23
716.096	1.23
716.123	12.23
716.15	13.23
716.177	2.23
716.203	15.23
716.23	18.23
716.257	0.23
716.283	13.23
716.31	6.23
716.337	6.23
716.363	10.23
716.39	-2.77
716.417	14.23
716.443	6.23
716.47	30.23
716.497	23.23
716.523	17.23
716.55	7.23
716.577	13.23
716.603	2.23
716.63	4.23
716.657	14.23
716.683	-0.77
716.71	2.23
716.737	5.23
716.763	2.23
716.79	3.23
716.817	1.23
716.843	4.23
716.87	0.23
716.897	1.23
716.923	14.23
716.95	1.23
716.976	2.23
717.003	8.23
717.03	12.23
717.056	10.23
717.083	-1.77
717.109	17.23
717.136	3.23
717.163	2.23
717.189	0.23
717.216	-1.77
717.242	-1.77
717.269	4.23
717.296	17.23
717.322	6.23
717.349	9.23
717.375	19.23
717.402	8.23
717.428	12.23
717.455	18.23
717.481	14.23
717.508	10.23
717.535	6.23
717.561	-6.77
717.588	2.23
717.614	5.23
717.641	14.23
717.667	0.23
717.694	1.23
717.72	7.23
717.747	13.23
717.773	14.23
717.8	22.23
717.826	9.23
717.853	3.23
717.88	6.23
717.906	12.23
717.933	10.23
717.959	8.23
717.986	2.23
718.012	-1.77
718.039	12.23
718.065	20.23
718.092	4.23
718.118	5.23
718.144	0.23
718.171	19.23
718.197	21.23
718.224	12.23
718.25	0.23
718.277	1.23
718.303	-5.77
718.33	13.23
718.356	-1.77
718.383	-2.77
718.409	20.23
718.436	1.23
718.462	5.23
718.489	-0.77
718.515	25.23
718.541	11.23
718.568	19.23
718.594	9.23
718.621	-3.77
718.647	9.23
718.674	11.23
718.7	21.23
718.726	0.23
718.753	20.23
718.779	10.23
718.806	-8.77
718.832	9.23
718.858	10.23
718.885	2.23
718.911	22.23
718.938	8.23
718.964	11.23
718.99	24.23
719.017	5.23
719.043	37.23
719.07	18.23
719.096	6.23
719.122	10.23
719.149	8.23
719.175	8.23
719.201	-0.77
719.228	5.23
719.254	25.23
719.281	1.23
719.307	4.23
719.333	2.23
719.36	16.23
719.386	17.23
719.412	3.23
719.439	8.23
719.465	12.23
719.491	14.23
719.518	13.23
719.544	17.23
719.57	20.23
719.597	10.23
719.623	9.23
719.649	8.23
719.675	-1.77
719.702	4.23
719.728	17.23
719.754	2.23
719.781	11.23
719.807	10.23
719.833	6.23
719.86	4.23
719.886	4.23
719.912	22.23
719.938	0.23
719.965	8.23
719.991	22.23
720.017	9.23
720.044	4.23
720.07	22.23
720.096	20.23
720.122	9.23
720.149	8.23
720.175	33.23
720.201	16.23
720.227	13.23
720.254	18.23
720.28	13.23
720.306	10.23
720.332	9.23
720.359	2.23
720.385	12.23
720.411	13.23
720.437	22.23
720.463	12.23
720.49	17.23
720.516	-1.77
720.542	13.23
720.568	13.23
720.595	21.23
720.621	9.23
720.647	17.23
720.673	5.23
720.699	18.23
720.725	27.23
720.752	20.23
720.778	28.23
720.804	22.23
720.83	21.23
720.856	1.23
720.883	9.23
720.909	9.23
720.935	12.23
720.961	5.23
720.987	-2.77
721.013	4.23
721.04	1.23
721.066	-7.77
721.092	-12.77
721.118	9.23
721.144	12.23
721.17	-2.77
721.196	1.23
721.223	-0.77
721.249	-3.77
721.275	26.23
721.301	15.23
721.327	10.23
721.353	27.23
721.379	11.23
721.405	-3.77
721.432	18.23
721.458	16.23
721.484	23.23
721.51	-4.77
721.536	5.23
721.562	8.23
721.588	8.23
721.614	-0.77
721.64	0.23
721.666	14.23
721.693	-3.77
721.719	-7.77
721.745	2.23
721.771	-1.77
721.797	1.23
721.823	4.23
721.849	21.23
721.875	10.23
721.901	12.23
721.927	2.23
721.953	17.23
721.979	20.23
722.005	0.23
722.031	15.23
722.057	23.23
722.083	9.23
722.109	8.23
722.135	14.23
722.161	16.23
722.187	10.23
722.214	14.23
722.24	7.23
722.266	-9.77
722.292	20.23
722.318	17.23
722.344	19.23
722.37	6.23
722.396	10.23
722.422	4.23
722.448	-0.77
722.474	5.23
722.5	20.23
722.526	17.23
722.552	2.23
722.578	4.23
722.603	21.23
722.629	3.23
722.655	13.23
722.681	-14.77
722.707	-5.77
722.733	-2.77
722.759	-9.77
722.785	6.23
722.811	21.23
722.837	9.23
722.863	12.23
722.889	14.23
722.915	2.23
722.941	13.23
722.967	27.23
722.993	20.23
723.019	10.23
723.045	8.23
723.071	17.23
723.097	23.23
723.122	6.23
723.148	4.23
723.174	6.23
723.2	-2.77
723.226	1.23
723.252	12.23
723.278	9.23
723.304	3.23
723.33	12.23
723.356	-16.77
723.381	-5.77
723.407	-16.77
723.433	14.23
723.459	0.23
723.485	17.23
723.511	13.23
723.537	8.23
723.563	-6.77
723.588	14.23
723.614	29.23
723.64	6.23
723.666	17.23
723.692	46.23
723.718	1.23
723.744	6.23
723.769	0.23
723.795	1.23
723.821	14.23
723.847	9.23
723.873	20.23
723.899	11.23
723.924	5.23
723.95	2.23
723.976	-12.77
724.002	12.23
724.028	9.23
724.053	-2.77
724.079	-11.77
724.105	11.23
724.131	8.23
724.157	13.23
724.182	6.23
724.208	8.23
724.234	7.23
724.26	-0.77
724.286	8.23
724.311	5.23
724.337	4.23
724.363	10.23
724.389	16.23
724.415	11.23
724.44	23.23
724.466	14.23
724.492	12.23
724.518	18.23
724.543	15.23
724.569	10.23
724.595	13.23
724.621	2.23
724.646	2.23
724.672	-6.77
724.698	-0.77
724.723	11.23
724.749	11.23
724.775	13.23
724.801	15.23
724.826	-12.77
724.852	7.23
724.878	-7.77
724.904	-3.77
724.929	18.23
724.955	4.23
724.981	18.23
725.006	14.23
725.032	8.23
725.058	22.23
725.083	4.23
725.109	9.23
725.135	9.23
725.161	9.23
725.186	10.23
725.212	6.23
725.238	17.23
725.263	21.23
725.289	-9.77
725.315	-1.77
725.34	3.23
725.366	9.23
725.392	8.23
725.417	11.23
725.443	13.23
725.468	21.23
725.494	23.23
725.52	30.23
725.545	13.23
725.571	3.23
725.597	13.23
725.622	2.23
725.648	15.23
725.674	22.23
725.699	1.23
725.725	13.23
725.75	28.23
725.776	-5.77
725.802	9.23
725.827	13.23
725.853	1.23
725.878	10.23
725.904	-0.77
725.93	5.23
725.955	5.23
725.981	-9.77
726.006	0.23
726.032	13.23
726.057	6.23
726.083	-4.77
726.109	13.23
726.134	5.23
726.16	7.23
726.185	8.23
726.211	0.23
726.236	5.23
726.262	9.23
726.288	15.23
726.313	8.23
726.339	12.23
726.364	9.23
726.39	13.23
726.415	-2.77
726.441	1.23
726.466	-10.77
726.492	8.23
726.517	19.23
726.543	15.23
726.568	-9.77
726.594	-1.77
726.619	5.23
726.645	15.23
726.67	2.23
726.696	13.23
726.721	4.23
726.747	1.23
726.772	15.23
726.798	3.23
726.823	10.23
726.849	-0.77
726.874	9.23
726.9	13.23
726.925	18.23
726.951	16.23
726.976	9.23
727.002	1.23
727.027	14.23
727.053	12.23
727.078	9.23
727.104	12.23
727.129	4.23
727.155	12.23
727.18	22.23
727.205	17.23
727.231	11.23
727.256	21.23
727.282	2.23
727.307	20.23
727.333	11.23
727.358	5.23
727.383	-2.77
727.409	3.23
727.434	9.23
727.46	-10.77
727.485	19.23
727.511	4.23
727.536	-2.77
727.561	7.23
727.587	-3.77
727.612	3.23
727.637	-1.77
727.663	3.23
727.688	16.23
727.714	5.23
727.739	-12.77
727.764	3.23
727.79	5.23
727.815	12.23
727.841	10.23
727.866	17.23
727.891	18.23
727.917	2.23
727.942	-12.77
727.967	5.23
727.993	-10.77
728.018	18.23
728.043	13.23
728.069	5.23
728.094	12.23
728.119	-7.77
728.145	5.23
728.17	6.23
728.195	8.23
728.221	11.23
728.246	2.23
728.271	-10.77
728.297	2.23
728.322	-0.77
728.347	3.23
728.373	5.23
728.398	16.23
728.423	5.23
728.448	1.23
728.474	5.23
728.499	2.23
728.524	-4.77
728.55	2.23
728.575	6.23
728.6	8.23
728.625	4.23
728.651	15.23
728.676	12.23
728.701	-0.77
728.727	11.23
728.752	-11.77
728.777	5.23
728.802	17.23
728.828	17.23
728.853	-6.77
728.878	6.23
728.903	6.23
728.929	-1.77
728.954	6.23
728.979	14.23
729.004	8.23
729.03	5.23
729.055	9.23
729.08	4.23
729.105	-3.77
729.13	19.23
729.156	25.23
729.181	1.23
729.206	-15.77
729.231	0.23
729.256	19.23
729.282	9.23
729.307	8.23
729.332	-8.77
729.357	2.23
729.382	15.23
729.408	12.23
729.433	3.23
729.458	21.23
729.483	13.23
729.508	28.23
729.533	5.23
729.559	8.23
729.584	-4.77
729.609	11.23
729.634	23.23
729.659	-8.77
729.684	6.23
729.71	33.23
729.735	25.23
729.76	-6.77
729.785	4.23
729.81	4.23
729.835	3.23
729.86	-4.77
729.886	10.23
729.911	15.23
729.936	9.23
729.961	12.23
729.986	3.23
730.011	-3.77
730.036	10.23
730.061	22.23
730.086	14.23
730.112	2.23
730.137	28.23
730.162	7.23
730.187	-1.77
730.212	4.23
730.237	15.23
730.262	2.23
730.287	-0.77
730.312	17.23
730.337	5.23
730.362	17.23
730.387	16.23
730.413	0.23
730.438	0.23
730.463	4.23
730.488	-10.77
730.513	17.23
730.538	13.23
730.563	12.23
730.588	14.23
730.613	16.23
730.638	17.23
730.663	9.23
730.688	22.23
730.713	12.23
730.738	1.23
730.763	2.23
730.788	-2.77
730.813	5.23
730.838	15.23
730.863	3.23
730.888	-3.77
730.913	-5.77
730.938	-13.77
730.963	1.23
730.988	-4.77
731.013	7.23
731.038	7.23
731.063	7.23
731.088	14.23
731.113	-1.77
731.138	8.23
731.163	4.23
731.188	-2.77
731.213	11.23
731.238	8.23
731.263	3.23
731.288	8.23
731.313	22.23
731.338	2.23
731.363	10.23
731.388	8.23
731.413	4.23
731.438	19.23
731.463	5.23
731.487	26.23
731.512	6.23
731.537	1.23
731.562	10.23
731.587	0.23
731.612	8.23
731.637	-2.77
731.662	16.23
731.687	12.23
731.712	-7.77
731.737	12.23
731.762	0.23
731.786	12.23
731.811	22.23
731.836	20.23
731.861	6.23
731.886	5.23
731.911	1.23
731.936	20.23
731.961	6.23
731.986	1.23
732.01	4.23
732.035	0.23
732.06	9.23
732.085	0.23
732.11	12.23
732.135	11.23
732.16	10.23
732.184	1.23
732.209	-1.77
732.234	15.23
732.259	-7.77
732.284	14.23
732.309	17.23
732.334	12.23
732.358	-15.77
732.383	-14.77
732.408	-1.77
732.433	19.23
732.458	2.23
732.482	8.23
732.507	15.23
732.532	16.23
732.557	22.23
732.582	12.23
732.607	7.23
732.631	3.23
732.656	13.23
732.681	4.23
732.706	6.23
732.73	8.23
732.755	4.23
732.78	-2.77
732.805	4.23
732.83	6.23
732.854	5.23
732.879	23.23
732.904	2.23
732.929	-14.77
732.953	14.23
732.978	-2.77
733.003	-11.77
733.028	5.23
733.052	5.23
733.077	20.23
733.102	13.23
733.127	-1.77
733.151	-10.77
733.176	11.23
733.201	8.23
733.226	14.23
733.25	15.23
733.275	-0.77
733.3	20.23
733.324	5.23
733.349	4.23
733.374	17.23
733.399	6.23
733.423	8.23
733.448	4.23
733.473	8.23
733.497	13.23
733.522	0.23
733.547	17.23
733.571	25.23
733.596	3.23
733.621	-0.77
733.646	-5.77
733.67	8.23
733.695	9.23
733.72	24.23
733.744	12.23
733.769	15.23
733.794	16.23
733.818	6.23
733.843	-5.77
733.867	-5.77
733.892	-0.77
733.917	7.23
733.941	14.23
733.966	0.23
733.991	11.23
734.015	20.23
734.04	17.23
734.065	25.23
734.089	20.23
734.114	11.23
734.138	5.23
734.163	6.23
734.188	16.23
734.212	27.23
734.237	14.23
734.261	-2.77
734.286	-1.77
734.311	-19.77
734.335	-0.77
734.36	6.23
734.384	11.23
734.409	11.23
734.434	10.23
734.458	3.23
734.483	8.23
734.507	1.23
734.532	18.23
734.556	16.23
734.581	1.23
734.606	-0.77
734.63	8.23
734.655	7.23
734.679	13.23
734.704	20.23
734.728	8.23
734.753	3.23
734.777	19.23
734.802	-2.77
734.826	16.23
734.851	-3.77
734.876	17.23
734.9	32.23
734.925	20.23
734.949	13.23
734.974	13.23
734.998	13.23
735.023	-6.77
735.047	-2.77
735.072	10.23
735.096	-4.77
735.121	6.23
735.145	17.23
735.17	28.23
735.194	6.23
735.219	22.23
735.243	17.23
735.268	16.23
735.292	20.23
735.317	10.23
735.341	8.23
735.365	-1.77
735.39	8.23
735.414	27.23
735.439	16.23
735.463	17.23
735.488	14.23
735.512	5.23
735.537	0.23
735.561	-5.77
735.586	19.23
735.61	9.23
735.634	6.23
735.659	22.23
735.683	22.23
735.708	9.23
735.732	-7.77
735.757	9.23
735.781	4.23
735.805	4.23
735.83	8.23
735.854	8.23
735.879	15.23
735.903	27.23
735.927	18.23
735.952	11.23
735.976	-1.77
736.001	7.23
736.025	14.23
736.049	17.23
736.074	16.23
736.098	3.23
736.123	14.23
736.147	16.23
736.171	2.23
736.196	9.23
736.22	2.23
736.244	4.23
736.269	21.23
736.293	14.23
736.317	-2.77
736.342	-2.77
736.366	26.23
736.39	16.23
736.415	17.23
736.439	16.23
736.463	5.23
736.488	18.23
736.512	0.23
736.536	3.23
736.561	18.23
736.585	5.23
736.609	16.23
736.634	5.23
736.658	2.23
736.682	-4.77
736.707	-19.77
736.731	1.23
736.755	7.23
736.78	20.23
736.804	33.23
736.828	16.23
736.852	-5.77
736.877	19.23
736.901	20.23
736.925	9.23
736.949	17.23
736.974	-0.77
736.998	-0.77
737.022	8.23
737.047	5.23
737.071	-9.77
737.095	21.23
737.119	21.23
737.144	14.23
737.168	6.23
737.192	16.23
737.216	16.23
737.241	4.23
737.265	18.23
737.289	17.23
737.313	3.23
737.337	12.23
737.362	-2.77
737.386	0.23
737.41	0.23
737.434	4.23
737.459	6.23
737.483	14.23
737.507	26.23
737.531	22.23
737.555	13.23
737.58	17.23
737.604	13.23
737.628	3.23
737.652	5.23
737.676	16.23
737.701	12.23
737.725	1.23
737.749	-3.77
737.773	9.23
737.797	-2.77
737.821	6.23
737.846	8.23
737.87	22.23
737.894	4.23
737.918	4.23
737.942	5.23
737.966	13.23
737.99	19.23
738.015	12.23
738.039	12.23
738.063	-5.77
738.087	24.23
738.111	10.23
738.135	18.23
738.159	6.23
738.184	20.23
738.208	8.23
738.232	8.23
738.256	21.23
738.28	17.23
738.304	23.23
738.328	16.23
738.352	17.23
738.376	12.23
738.4	27.23
738.425	20.23
738.449	-2.77
738.473	12.23
738.497	10.23
738.521	3.23
738.545	7.23
738.569	17.23
738.593	15.23
738.617	8.23
738.641	3.23
738.665	3.23
738.689	5.23
738.713	12.23
738.737	9.23
738.762	1.23
738.786	6.23
738.81	-10.77
738.834	20.23
738.858	10.23
738.882	6.23
738.906	-12.77
738.93	1.23
738.954	6.23
738.978	3.23
739.002	8.23
739.026	10.23
739.05	12.23
739.074	5.23
739.098	36.23
739.122	22.23
739.146	22.23
739.17	17.23
739.194	11.23
739.218	4.23
739.242	10.23
739.266	5.23
739.29	16.23
739.314	16.23
739.338	6.23
739.362	9.23
739.386	7.23
739.41	-0.77
739.434	-3.77
739.458	6.23
739.482	-5.77
739.506	9.23
739.53	1.23
739.554	27.23
739.577	20.23
739.601	5.23
739.625	0.23
739.649	2.23
739.673	12.23
739.697	21.23
739.721	7.23
739.745	11.23
739.769	19.23
739.793	20.23
739.817	28.23
739.841	3.23
739.865	6.23
739.889	2.23
739.912	12.23
739.936	7.23
739.96	5.23
739.984	20.23
740.008	20.23
740.032	6.23
740.056	8.23
740.08	16.23
740.104	-2.77
740.127	2.23
740.151	29.23
740.175	20.23
740.199	17.23
740.223	44.23
740.247	15.23
740.271	15.23
740.295	-4.77
740.318	-2.77
740.342	18.23
740.366	13.23
740.39	15.23
740.414	7.23
740.438	5.23
740.461	15.23
740.485	9.23
740.509	-5.77
740.533	8.23
740.557	-4.77
740.581	-4.77
740.604	-2.77
740.628	3.23
740.652	15.23
740.676	11.23
740.7	30.23
740.723	10.23
740.747	12.23
740.771	11.23
740.795	8.23
740.819	10.23
740.842	13.23
740.866	19.23
740.89	14.23
740.914	4.23
740.938	13.23
740.961	33.23
740.985	10.23
741.009	4.23
741.033	10.23
741.056	5.23
741.08	9.23
741.104	16.23
741.128	4.23
741.151	12.23
741.175	10.23
741.199	4.23
741.223	19.23
741.246	-4.77
741.27	1.23
741.294	9.23
741.318	3.23
741.341	12.23
741.365	5.23
741.389	12.23
741.413	25.23
741.436	28.23
741.46	27.23
741.484	21.23
741.507	14.23
741.531	36.23
741.555	31.23
741.579	-1.77
741.602	14.23
741.626	18.23
741.65	8.23
741.673	29.23
741.697	27.23
741.721	22.23
741.744	-2.77
741.768	17.23
741.792	1.23
741.815	10.23
741.839	26.23
741.863	24.23
741.886	11.23
741.91	15.23
741.934	16.23
741.957	-3.77
741.981	22.23
742.005	3.23
742.028	8.23
742.052	3.23
742.075	21.23
742.099	8.23
742.123	4.23
742.146	24.23
742.17	20.23
742.194	-3.77
742.217	14.23
742.241	13.23
742.264	-6.77
742.288	20.23
742.312	14.23
742.335	6.23
742.359	10.23
742.382	14.23
742.406	10.23
742.43	0.23
742.453	12.23
742.477	0.23
742.5	0.23
742.524	0.23
742.548	-15.77
742.571	6.23
742.595	2.23
742.618	8.23
742.642	1.23
742.665	31.23
742.689	-0.77
742.712	5.23
742.736	4.23
742.76	17.23
742.783	8.23
742.807	10.23
742.83	14.23
742.854	3.23
742.877	9.23
742.901	16.23
742.924	5.23
742.948	5.23
742.971	10.23
742.995	15.23
743.018	11.23
743.042	-0.77
743.065	10.23
743.089	2.23
743.112	14.23
743.136	14.23
743.159	2.23
743.183	16.23
743.206	2.23
743.23	-6.77
743.253	0.23
743.277	1.23
743.3	-5.77
743.324	5.23
743.347	-0.77
743.371	19.23
743.394	13.23
743.418	37.23
743.441	5.23
743.465	9.23
743.488	21.23
743.512	-1.77
743.535	12.23
743.558	8.23
743.582	9.23
743.605	9.23
743.629	30.23
743.652	22.23
743.676	18.23
743.699	9.23
743.723	12.23
743.746	23.23
743.769	2.23
743.793	5.23
743.816	8.23
743.84	30.23
743.863	3.23
743.886	4.23
743.91	20.23
743.933	9.23
743.957	10.23
743.98	6.23
744.003	18.23
744.027	6.23
744.05	7.23
744.074	13.23
744.097	-0.77
744.12	12.23
744.144	-13.77
744.167	17.23
744.19	1.23
744.214	30.23
744.237	-5.77
744.26	9.23
744.284	-2.77
744.307	-11.77
744.331	4.23
744.354	3.23
744.377	4.23
744.401	6.23
744.424	2.23
744.447	-0.77
744.471	-9.77
