Data from HighRes_H2D2_15_04_11_07_2024_HR4C61891__24__15-05-36-843.txt Node

Date: Thu Nov 07 15:05:36 EST 2024
User: crc00042
Spectrometer: HR4C6189
Trigger mode: 4
Integration Time (sec): 1.000000E-1
Scans to average: 1
Electric dark correction enabled: true
Nonlinearity correction enabled: false
Boxcar width: 0
XAxis mode: Wavelengths
Number of Pixels in Spectrum: 3648
>>>>>Begin Spectral Data<<<<<
639.567	-73.08
639.602	-73.08
639.636	-73.08
639.67	-59.08
639.704	-5.08
639.738	0.92
639.773	-2.08
639.807	-11.08
639.841	8.92
639.875	7.92
639.909	-13.08
639.943	-13.08
639.978	8.92
640.012	-3.08
640.046	17.92
640.08	-0.08
640.114	-3.08
640.148	0.92
640.182	-4.08
640.217	-0.08
640.251	19.92
640.285	13.92
640.319	-2.08
640.353	-3.08
640.387	12.92
640.421	10.92
640.455	1.92
640.49	8.92
640.524	-10.08
640.558	14.92
640.592	1.92
640.626	-2.08
640.66	4.92
640.694	-9.08
640.728	-8.08
640.762	-6.08
640.796	6.92
640.83	15.92
640.865	-3.08
640.899	7.92
640.933	6.92
640.967	-5.08
641.001	7.92
641.035	9.92
641.069	-9.08
641.103	-1.08
641.137	0.92
641.171	-15.08
641.205	7.92
641.239	21.92
641.273	-1.08
641.307	1.92
641.341	11.92
641.375	-7.08
641.409	0.92
641.443	11.92
641.477	6.92
641.511	13.92
641.545	-1.08
641.579	7.92
641.614	-3.08
641.648	-11.08
641.682	-27.08
641.716	11.92
641.75	17.92
641.784	2.92
641.818	6.92
641.852	1.92
641.886	-8.08
641.919	12.92
641.953	-11.08
641.987	1.92
642.021	0.92
642.055	-14.08
642.089	9.92
642.123	-2.08
642.157	-2.08
642.191	-16.08
642.225	9.92
642.259	-0.08
642.293	10.92
642.327	-7.08
642.361	1.92
642.395	35.92
642.429	10.92
642.463	20.92
642.497	8.92
642.531	0.92
642.565	-4.08
642.599	12.92
642.633	-25.08
642.666	15.92
642.7	17.92
642.734	15.92
642.768	-2.08
642.802	9.92
642.836	15.92
642.87	6.92
642.904	1.92
642.938	5.92
642.972	4.92
643.005	-0.08
643.039	21.92
643.073	6.92
643.107	1.92
643.141	-1.08
643.175	-8.08
643.209	17.92
643.243	-4.08
643.276	-5.08
643.31	1.92
643.344	-7.08
643.378	-1.08
643.412	14.92
643.446	2.92
643.48	0.92
643.513	-3.08
643.547	0.92
643.581	1.92
643.615	4.92
643.649	8.92
643.683	-9.08
643.716	1.92
643.75	20.92
643.784	-11.08
643.818	7.92
643.852	-10.08
643.886	1.92
643.919	-7.08
643.953	-7.08
643.987	-8.08
644.021	16.92
644.055	-4.08
644.088	2.92
644.122	-11.08
644.156	-15.08
644.19	-16.08
644.224	-3.08
644.257	-1.08
644.291	11.92
644.325	2.92
644.359	-14.08
644.392	11.92
644.426	5.92
644.46	-1.08
644.494	-1.08
644.527	9.92
644.561	-1.08
644.595	-2.08
644.629	-11.08
644.662	-4.08
644.696	7.92
644.73	-8.08
644.764	-1.08
644.797	-5.08
644.831	-9.08
644.865	3.92
644.899	12.92
644.932	15.92
644.966	-5.08
645	-9.08
645.033	14.92
645.067	-3.08
645.101	-2.08
645.135	-0.08
645.168	2.92
645.202	-4.08
645.236	-4.08
645.269	7.92
645.303	-8.08
645.337	-22.08
645.37	-0.08
645.404	9.92
645.438	1.92
645.471	-4.08
645.505	6.92
645.539	-2.08
645.572	-5.08
645.606	-1.08
645.64	9.92
645.673	-5.08
645.707	16.92
645.741	3.92
645.774	-0.08
645.808	0.92
645.842	-10.08
645.875	3.92
645.909	-1.08
645.943	-0.08
645.976	9.92
646.01	11.92
646.043	19.92
646.077	8.92
646.111	16.92
646.144	15.92
646.178	4.92
646.212	-3.08
646.245	-9.08
646.279	-17.08
646.312	0.92
646.346	27.92
646.38	-4.08
646.413	3.92
646.447	8.92
646.48	4.92
646.514	6.92
646.547	-3.08
646.581	-1.08
646.615	-5.08
646.648	-9.08
646.682	-14.08
646.715	6.92
646.749	9.92
646.782	-11.08
646.816	-2.08
646.85	23.92
646.883	-4.08
646.917	4.92
646.95	-4.08
646.984	21.92
647.017	-14.08
647.051	9.92
647.084	-7.08
647.118	-17.08
647.151	-7.08
647.185	5.92
647.218	-4.08
647.252	4.92
647.285	-2.08
647.319	-19.08
647.353	0.92
647.386	5.92
647.42	12.92
647.453	-24.08
647.487	-5.08
647.52	-3.08
647.553	6.92
647.587	1.92
647.62	-13.08
647.654	4.92
647.687	8.92
647.721	2.92
647.754	-2.08
647.788	-7.08
647.821	-5.08
647.855	8.92
647.888	10.92
647.922	20.92
647.955	0.92
647.989	13.92
648.022	-9.08
648.055	16.92
648.089	-11.08
648.122	21.92
648.156	-10.08
648.189	-12.08
648.223	-1.08
648.256	27.92
648.29	2.92
648.323	-11.08
648.356	2.92
648.39	10.92
648.423	3.92
648.457	-3.08
648.49	9.92
648.523	7.92
648.557	-8.08
648.59	-18.08
648.624	3.92
648.657	10.92
648.69	8.92
648.724	12.92
648.757	24.92
648.791	12.92
648.824	9.92
648.857	29.92
648.891	13.92
648.924	-1.08
648.957	10.92
648.991	-8.08
649.024	14.92
649.057	18.92
649.091	-5.08
649.124	8.92
649.158	8.92
649.191	25.92
649.224	13.92
649.258	8.92
649.291	0.92
649.324	-0.08
649.358	0.92
649.391	-21.08
649.424	-3.08
649.458	13.92
649.491	-5.08
649.524	-12.08
649.557	-3.08
649.591	-10.08
649.624	21.92
649.657	-11.08
649.691	2.92
649.724	5.92
649.757	2.92
649.791	-21.08
649.824	2.92
649.857	5.92
649.89	0.92
649.924	-11.08
649.957	-4.08
649.99	-2.08
650.023	4.92
650.057	4.92
650.09	-0.08
650.123	-4.08
650.157	5.92
650.19	20.92
650.223	-1.08
650.256	-8.08
650.29	8.92
650.323	-0.08
650.356	7.92
650.389	6.92
650.423	-18.08
650.456	5.92
650.489	5.92
650.522	9.92
650.555	16.92
650.589	26.92
650.622	8.92
650.655	11.92
650.688	8.92
650.721	-2.08
650.755	5.92
650.788	-4.08
650.821	8.92
650.854	5.92
650.887	6.92
650.921	2.92
650.954	-5.08
650.987	-1.08
651.02	4.92
651.053	-5.08
651.087	8.92
651.12	23.92
651.153	-1.08
651.186	-7.08
651.219	-25.08
651.252	2.92
651.286	2.92
651.319	20.92
651.352	3.92
651.385	4.92
651.418	1.92
651.451	23.92
651.484	18.92
651.518	-18.08
651.551	21.92
651.584	-2.08
651.617	13.92
651.65	-6.08
651.683	4.92
651.716	3.92
651.749	-11.08
651.783	-3.08
651.816	-11.08
651.849	6.92
651.882	5.92
651.915	1.92
651.948	-12.08
651.981	-13.08
652.014	-3.08
652.047	-17.08
652.08	-3.08
652.114	18.92
652.147	-2.08
652.18	-7.08
652.213	17.92
652.246	-6.08
652.279	-7.08
652.312	3.92
652.345	-7.08
652.378	-4.08
652.411	10.92
652.444	-6.08
652.477	-3.08
652.51	-5.08
652.543	3.92
652.576	4.92
652.609	5.92
652.642	11.92
652.675	13.92
652.709	7.92
652.742	19.92
652.775	8.92
652.808	-6.08
652.841	-14.08
652.874	5.92
652.907	8.92
652.94	-3.08
652.973	-1.08
653.006	-8.08
653.039	-1.08
653.072	5.92
653.105	7.92
653.138	-5.08
653.171	0.92
653.204	7.92
653.237	0.92
653.27	3.92
653.303	8.92
653.336	5.92
653.368	4.92
653.401	2.92
653.434	-6.08
653.467	-13.08
653.5	-15.08
653.533	1.92
653.566	-21.08
653.599	-1.08
653.632	-5.08
653.665	7.92
653.698	-11.08
653.731	-7.08
653.764	2.92
653.797	9.92
653.83	25.92
653.863	-3.08
653.896	-2.08
653.929	-17.08
653.961	-4.08
653.994	-2.08
654.027	-1.08
654.06	9.92
654.093	8.92
654.126	-11.08
654.159	-2.08
654.192	2.92
654.225	-3.08
654.258	1.92
654.29	-3.08
654.323	6.92
654.356	15.92
654.389	4.92
654.422	4.92
654.455	-8.08
654.488	2.92
654.521	-9.08
654.553	-16.08
654.586	18.92
654.619	-2.08
654.652	-7.08
654.685	0.92
654.718	-3.08
654.751	8.92
654.783	5.92
654.816	17.92
654.849	5.92
654.882	-8.08
654.915	-13.08
654.948	-9.08
654.98	-6.08
655.013	3.92
655.046	0.92
655.079	-6.08
655.112	-1.08
655.144	-9.08
655.177	-17.08
655.21	5.92
655.243	-1.08
655.276	-4.08
655.308	-10.08
655.341	3.92
655.374	9.92
655.407	-2.08
655.44	4.92
655.472	3.92
655.505	9.92
655.538	-7.08
655.571	16.92
655.603	-16.08
655.636	6.92
655.669	7.92
655.702	5.92
655.734	-0.08
655.767	-1.08
655.8	12.92
655.833	3.92
655.865	12.92
655.898	6.92
655.931	22.92
655.964	17.92
655.996	18.92
656.029	17.92
656.062	32.92
656.095	34.92
656.127	83.92
656.16	207.92
656.193	628.92
656.225	962.92
656.258	564.92
656.291	229.92
656.324	189.92
656.356	362.92
656.389	778.92
656.422	656.92
656.454	246.92
656.487	72.92
656.52	56.92
656.552	26.92
656.585	-3.08
656.618	-3.08
656.65	-1.08
656.683	-9.08
656.716	-7.08
656.748	-3.08
656.781	-15.08
656.814	-4.08
656.846	10.92
656.879	0.92
656.912	-9.08
656.944	-14.08
656.977	-14.08
657.01	-11.08
657.042	8.92
657.075	4.92
657.108	-34.08
657.14	9.92
657.173	8.92
657.205	24.92
657.238	5.92
657.271	-1.08
657.303	-5.08
657.336	-4.08
657.369	6.92
657.401	-6.08
657.434	-2.08
657.466	4.92
657.499	-8.08
657.532	-7.08
657.564	-14.08
657.597	-7.08
657.629	-3.08
657.662	-15.08
657.694	-3.08
657.727	1.92
657.76	1.92
657.792	-14.08
657.825	-8.08
657.857	-13.08
657.89	-4.08
657.922	6.92
657.955	4.92
657.987	-4.08
658.02	28.92
658.053	10.92
658.085	-0.08
658.118	0.92
658.15	2.92
658.183	25.92
658.215	1.92
658.248	-5.08
658.28	-1.08
658.313	13.92
658.345	-4.08
658.378	-0.08
658.41	-5.08
658.443	-5.08
658.475	4.92
658.508	-9.08
658.54	-15.08
658.573	7.92
658.605	12.92
658.638	-0.08
658.67	-4.08
658.703	-4.08
658.735	-16.08
658.768	-2.08
658.8	-15.08
658.833	16.92
658.865	26.92
658.898	11.92
658.93	-9.08
658.963	8.92
658.995	-11.08
659.028	0.92
659.06	0.92
659.092	-16.08
659.125	-16.08
659.157	14.92
659.19	1.92
659.222	-3.08
659.255	-9.08
659.287	9.92
659.32	-13.08
659.352	0.92
659.384	14.92
659.417	-16.08
659.449	0.92
659.482	9.92
659.514	-3.08
659.546	-1.08
659.579	-15.08
659.611	-17.08
659.644	-5.08
659.676	-6.08
659.708	-22.08
659.741	5.92
659.773	12.92
659.806	2.92
659.838	-3.08
659.87	5.92
659.903	4.92
659.935	5.92
659.967	-12.08
660	8.92
660.032	-17.08
660.065	13.92
660.097	10.92
660.129	3.92
660.162	-11.08
660.194	8.92
660.226	4.92
660.259	-10.08
660.291	-13.08
660.323	-16.08
660.356	3.92
660.388	5.92
660.42	0.92
660.453	16.92
660.485	9.92
660.517	20.92
660.55	20.92
660.582	-4.08
660.614	7.92
660.647	6.92
660.679	-12.08
660.711	7.92
660.743	-7.08
660.776	-19.08
660.808	1.92
660.84	3.92
660.873	0.92
660.905	0.92
660.937	-3.08
660.969	-6.08
661.002	-4.08
661.034	11.92
661.066	-1.08
661.099	20.92
661.131	16.92
661.163	4.92
661.195	-0.08
661.228	20.92
661.26	-3.08
661.292	-5.08
661.324	5.92
661.357	15.92
661.389	-0.08
661.421	-2.08
661.453	1.92
661.485	-15.08
661.518	4.92
661.55	0.92
661.582	-1.08
661.614	-0.08
661.647	10.92
661.679	-1.08
661.711	1.92
661.743	4.92
661.775	0.92
661.808	20.92
661.84	-6.08
661.872	7.92
661.904	-5.08
661.936	-3.08
661.969	2.92
662.001	0.92
662.033	-2.08
662.065	-11.08
662.097	22.92
662.129	5.92
662.162	4.92
662.194	5.92
662.226	0.92
662.258	9.92
662.29	8.92
662.322	-9.08
662.355	-19.08
662.387	15.92
662.419	-3.08
662.451	5.92
662.483	17.92
662.515	-0.08
662.547	-10.08
662.58	-16.08
662.612	-10.08
662.644	-4.08
662.676	-1.08
662.708	4.92
662.74	-5.08
662.772	4.92
662.804	-0.08
662.836	5.92
662.869	-3.08
662.901	16.92
662.933	-10.08
662.965	18.92
662.997	22.92
663.029	-3.08
663.061	0.92
663.093	-2.08
663.125	17.92
663.157	27.92
663.189	1.92
663.221	7.92
663.254	-3.08
663.286	7.92
663.318	-9.08
663.35	-17.08
663.382	-12.08
663.414	4.92
663.446	14.92
663.478	-7.08
663.51	23.92
663.542	-4.08
663.574	-0.08
663.606	-0.08
663.638	-1.08
663.67	9.92
663.702	9.92
663.734	-13.08
663.766	2.92
663.798	-14.08
663.83	-3.08
663.862	20.92
663.894	19.92
663.926	9.92
663.958	8.92
663.99	9.92
664.022	-1.08
664.054	12.92
664.086	-22.08
664.118	0.92
664.15	-7.08
664.182	-1.08
664.214	5.92
664.246	10.92
664.278	-7.08
664.31	13.92
664.342	9.92
664.374	-8.08
664.406	-7.08
664.438	-10.08
664.47	-2.08
664.502	-3.08
664.534	-6.08
664.566	-0.08
664.598	19.92
664.63	6.92
664.662	14.92
664.693	1.92
664.725	-7.08
664.757	-5.08
664.789	-6.08
664.821	0.92
664.853	11.92
664.885	24.92
664.917	5.92
664.949	10.92
664.981	16.92
665.013	14.92
665.045	-4.08
665.076	-7.08
665.108	1.92
665.14	-8.08
665.172	0.92
665.204	-1.08
665.236	0.92
665.268	17.92
665.3	22.92
665.331	-5.08
665.363	-4.08
665.395	-8.08
665.427	-0.08
665.459	10.92
665.491	-2.08
665.523	-0.08
665.555	-1.08
665.586	-16.08
665.618	-8.08
665.65	-17.08
665.682	6.92
665.714	8.92
665.746	5.92
665.777	-0.08
665.809	-6.08
665.841	5.92
665.873	7.92
665.905	12.92
665.937	20.92
665.968	-1.08
666	1.92
666.032	4.92
666.064	2.92
666.096	2.92
666.127	0.92
666.159	5.92
666.191	1.92
666.223	10.92
666.255	5.92
666.286	-4.08
666.318	16.92
666.35	8.92
666.382	2.92
666.413	-5.08
666.445	-10.08
666.477	-13.08
666.509	5.92
666.54	-8.08
666.572	-3.08
666.604	-9.08
666.636	-14.08
666.667	11.92
666.699	6.92
666.731	18.92
666.763	-6.08
666.794	12.92
666.826	10.92
666.858	-11.08
666.89	9.92
666.921	-18.08
666.953	-5.08
666.985	6.92
667.017	6.92
667.048	12.92
667.08	-3.08
667.112	10.92
667.143	-3.08
667.175	20.92
667.207	17.92
667.238	8.92
667.27	15.92
667.302	22.92
667.334	4.92
667.365	19.92
667.397	-0.08
667.429	0.92
667.46	11.92
667.492	-2.08
667.524	6.92
667.555	-3.08
667.587	-5.08
667.619	5.92
667.65	-9.08
667.682	12.92
667.714	12.92
667.745	22.92
667.777	20.92
667.808	8.92
667.84	4.92
667.872	0.92
667.903	21.92
667.935	3.92
667.967	2.92
667.998	1.92
668.03	-2.08
668.061	-2.08
668.093	-5.08
668.125	-0.08
668.156	15.92
668.188	0.92
668.22	-11.08
668.251	6.92
668.283	20.92
668.314	15.92
668.346	2.92
668.377	13.92
668.409	-10.08
668.441	8.92
668.472	15.92
668.504	9.92
668.535	10.92
668.567	13.92
668.599	13.92
668.63	-8.08
668.662	-6.08
668.693	14.92
668.725	9.92
668.756	0.92
668.788	-7.08
668.819	5.92
668.851	-1.08
668.882	-8.08
668.914	14.92
668.946	15.92
668.977	3.92
669.009	6.92
669.04	-10.08
669.072	-3.08
669.103	-1.08
669.135	-0.08
669.166	-5.08
669.198	-0.08
669.229	23.92
669.261	-0.08
669.292	2.92
669.324	-3.08
669.355	18.92
669.387	-5.08
669.418	-0.08
669.45	1.92
669.481	10.92
669.513	14.92
669.544	13.92
669.576	10.92
669.607	18.92
669.639	12.92
669.67	-15.08
669.701	3.92
669.733	-2.08
669.764	8.92
669.796	6.92
669.827	-20.08
669.859	-8.08
669.89	3.92
669.922	5.92
669.953	-1.08
669.985	-6.08
670.016	14.92
670.047	9.92
670.079	1.92
670.11	1.92
670.142	5.92
670.173	15.92
670.204	3.92
670.236	30.92
670.267	-17.08
670.299	-2.08
670.33	5.92
670.362	-2.08
670.393	-8.08
670.424	3.92
670.456	-17.08
670.487	-11.08
670.518	-5.08
670.55	3.92
670.581	-5.08
670.613	9.92
670.644	4.92
670.675	2.92
670.707	-4.08
670.738	-7.08
670.769	-11.08
670.801	-12.08
670.832	3.92
670.864	-7.08
670.895	3.92
670.926	0.92
670.958	5.92
670.989	4.92
671.02	-9.08
671.052	4.92
671.083	-3.08
671.114	1.92
671.146	10.92
671.177	-7.08
671.208	2.92
671.24	-24.08
671.271	-10.08
671.302	7.92
671.333	-5.08
671.365	-5.08
671.396	-27.08
671.427	-5.08
671.459	-1.08
671.49	-16.08
671.521	1.92
671.553	-6.08
671.584	-5.08
671.615	-8.08
671.646	4.92
671.678	0.92
671.709	-11.08
671.74	-18.08
671.771	8.92
671.803	-13.08
671.834	-17.08
671.865	-15.08
671.896	5.92
671.928	-2.08
671.959	6.92
671.99	0.92
672.021	0.92
672.053	-0.08
672.084	16.92
672.115	-7.08
672.146	-20.08
672.178	-6.08
672.209	-1.08
672.24	8.92
672.271	25.92
672.303	4.92
672.334	-6.08
672.365	-1.08
672.396	-5.08
672.427	-10.08
672.459	-0.08
672.49	11.92
672.521	16.92
672.552	-0.08
672.583	3.92
672.615	8.92
672.646	9.92
672.677	1.92
672.708	4.92
672.739	1.92
672.77	9.92
672.802	-3.08
672.833	-7.08
672.864	2.92
672.895	-16.08
672.926	-19.08
672.957	-13.08
672.989	4.92
673.02	17.92
673.051	-1.08
673.082	16.92
673.113	7.92
673.144	1.92
673.175	-2.08
673.206	-11.08
673.238	-11.08
673.269	-7.08
673.3	-9.08
673.331	-0.08
673.362	-3.08
673.393	5.92
673.424	20.92
673.455	16.92
673.487	13.92
673.518	23.92
673.549	-0.08
673.58	7.92
673.611	11.92
673.642	6.92
673.673	-14.08
673.704	7.92
673.735	-3.08
673.766	-4.08
673.797	-11.08
673.828	5.92
673.86	1.92
673.891	-8.08
673.922	-9.08
673.953	-14.08
673.984	9.92
674.015	8.92
674.046	-11.08
674.077	3.92
674.108	-17.08
674.139	-12.08
674.17	-13.08
674.201	-11.08
674.232	-5.08
674.263	1.92
674.294	-0.08
674.325	-2.08
674.356	8.92
674.387	14.92
674.418	-1.08
674.449	-1.08
674.48	-6.08
674.511	-3.08
674.542	7.92
674.573	-19.08
674.604	16.92
674.635	7.92
674.666	3.92
674.697	-0.08
674.728	4.92
674.759	-5.08
674.79	-19.08
674.821	-9.08
674.852	-3.08
674.883	-21.08
674.914	-1.08
674.945	-9.08
674.976	-4.08
675.007	-4.08
675.038	-1.08
675.069	-12.08
675.1	-6.08
675.131	4.92
675.162	-11.08
675.193	-18.08
675.224	-7.08
675.254	23.92
675.285	7.92
675.316	0.92
675.347	9.92
675.378	-10.08
675.409	-17.08
675.44	-7.08
675.471	-11.08
675.502	-19.08
675.533	-10.08
675.564	-13.08
675.595	-12.08
675.625	21.92
675.656	6.92
675.687	3.92
675.718	-11.08
675.749	17.92
675.78	12.92
675.811	-2.08
675.842	8.92
675.873	-3.08
675.903	4.92
675.934	8.92
675.965	-21.08
675.996	-16.08
676.027	0.92
676.058	-9.08
676.089	-9.08
676.119	-1.08
676.15	-4.08
676.181	-14.08
676.212	-20.08
676.243	7.92
676.274	-2.08
676.304	9.92
676.335	-15.08
676.366	-10.08
676.397	-17.08
676.428	-7.08
676.459	-11.08
676.489	5.92
676.52	0.92
676.551	-0.08
676.582	-8.08
676.613	2.92
676.643	1.92
676.674	16.92
676.705	8.92
676.736	-2.08
676.767	28.92
676.797	22.92
676.828	8.92
676.859	10.92
676.89	3.92
676.92	0.92
676.951	-0.08
676.982	-2.08
677.013	0.92
677.044	-1.08
677.074	-4.08
677.105	-5.08
677.136	8.92
677.167	3.92
677.197	16.92
677.228	9.92
677.259	-2.08
677.289	9.92
677.32	-2.08
677.351	8.92
677.382	1.92
677.412	-24.08
677.443	-0.08
677.474	-6.08
677.505	-6.08
677.535	-0.08
677.566	-10.08
677.597	-3.08
677.627	-8.08
677.658	-12.08
677.689	-2.08
677.72	-19.08
677.75	3.92
677.781	-1.08
677.812	-0.08
677.842	9.92
677.873	-1.08
677.904	1.92
677.934	-8.08
677.965	-8.08
677.996	-8.08
678.026	6.92
678.057	4.92
678.088	-9.08
678.118	3.92
678.149	1.92
678.18	-9.08
678.21	1.92
678.241	1.92
678.272	7.92
678.302	13.92
678.333	5.92
678.363	11.92
678.394	0.92
678.425	1.92
678.455	-1.08
678.486	18.92
678.517	7.92
678.547	-0.08
678.578	7.92
678.608	-14.08
678.639	-2.08
678.67	-6.08
678.7	-16.08
678.731	-7.08
678.761	2.92
678.792	-0.08
678.823	7.92
678.853	4.92
678.884	-9.08
678.914	5.92
678.945	14.92
678.975	-16.08
679.006	14.92
679.037	-2.08
679.067	31.92
679.098	-12.08
679.128	-13.08
679.159	-2.08
679.189	1.92
679.22	-7.08
679.25	-1.08
679.281	-2.08
679.312	-4.08
679.342	2.92
679.373	20.92
679.403	-4.08
679.434	18.92
679.464	-0.08
679.495	12.92
679.525	10.92
679.556	13.92
679.586	16.92
679.617	6.92
679.647	14.92
679.678	23.92
679.708	12.92
679.739	8.92
679.769	-1.08
679.8	-9.08
679.83	8.92
679.861	4.92
679.891	-0.08
679.922	-9.08
679.952	-2.08
679.983	-6.08
680.013	5.92
680.044	-2.08
680.074	-3.08
680.105	20.92
680.135	8.92
680.165	15.92
680.196	16.92
680.226	1.92
680.257	4.92
680.287	-7.08
680.318	3.92
680.348	-9.08
680.379	-17.08
680.409	5.92
680.439	-12.08
680.47	-6.08
680.5	-12.08
680.531	-1.08
680.561	16.92
680.592	12.92
680.622	-6.08
680.652	1.92
680.683	11.92
680.713	0.92
680.744	-18.08
680.774	3.92
680.804	26.92
680.835	-0.08
680.865	6.92
680.896	15.92
680.926	21.92
680.956	6.92
680.987	-2.08
681.017	12.92
681.047	10.92
681.078	-10.08
681.108	-8.08
681.139	1.92
681.169	-10.08
681.199	-0.08
681.23	9.92
681.26	-2.08
681.29	8.92
681.321	-8.08
681.351	13.92
681.381	-10.08
681.412	3.92
681.442	-0.08
681.472	6.92
681.503	9.92
681.533	-7.08
681.563	-2.08
681.594	1.92
681.624	3.92
681.654	-4.08
681.685	5.92
681.715	10.92
681.745	10.92
681.775	9.92
681.806	-5.08
681.836	-2.08
681.866	-3.08
681.897	0.92
681.927	-11.08
681.957	-25.08
681.987	-5.08
682.018	11.92
682.048	-10.08
682.078	-0.08
682.109	5.92
682.139	4.92
682.169	2.92
682.199	6.92
682.23	1.92
682.26	11.92
682.29	1.92
682.32	-8.08
682.351	1.92
682.381	1.92
682.411	12.92
682.441	2.92
682.472	-5.08
682.502	-17.08
682.532	3.92
682.562	-7.08
682.592	14.92
682.623	23.92
682.653	0.92
682.683	-0.08
682.713	9.92
682.743	-11.08
682.774	-11.08
682.804	3.92
682.834	24.92
682.864	-3.08
682.894	0.92
682.925	-1.08
682.955	1.92
682.985	-8.08
683.015	8.92
683.045	5.92
683.076	-4.08
683.106	-6.08
683.136	-11.08
683.166	-9.08
683.196	4.92
683.226	10.92
683.257	-2.08
683.287	-14.08
683.317	-10.08
683.347	-8.08
683.377	-5.08
683.407	8.92
683.437	8.92
683.468	11.92
683.498	-4.08
683.528	11.92
683.558	2.92
683.588	-5.08
683.618	-9.08
683.648	-12.08
683.678	2.92
683.708	13.92
683.739	-12.08
683.769	5.92
683.799	3.92
683.829	-9.08
683.859	-4.08
683.889	9.92
683.919	6.92
683.949	-7.08
683.979	-15.08
684.009	-4.08
684.039	15.92
684.07	1.92
684.1	31.92
684.13	7.92
684.16	18.92
684.19	11.92
684.22	-11.08
684.25	-11.08
684.28	12.92
684.31	20.92
684.34	4.92
684.37	-0.08
684.4	-13.08
684.43	11.92
684.46	-0.08
684.49	1.92
684.52	16.92
684.55	11.92
684.58	4.92
684.61	9.92
684.64	13.92
684.67	7.92
684.7	6.92
684.73	8.92
684.76	4.92
684.79	1.92
684.82	0.92
684.85	7.92
684.88	3.92
684.91	3.92
684.94	0.92
684.97	-23.08
685	2.92
685.03	-9.08
685.06	-2.08
685.09	9.92
685.12	28.92
685.15	-7.08
685.18	12.92
685.21	4.92
685.24	14.92
685.27	8.92
685.3	8.92
685.33	-4.08
685.36	-15.08
685.39	3.92
685.42	-11.08
685.45	16.92
685.48	13.92
685.51	1.92
685.54	-0.08
685.569	-4.08
685.599	1.92
685.629	-0.08
685.659	-3.08
685.689	0.92
685.719	1.92
685.749	-8.08
685.779	18.92
685.809	8.92
685.839	5.92
685.869	16.92
685.898	18.92
685.928	10.92
685.958	8.92
685.988	23.92
686.018	-2.08
686.048	12.92
686.078	11.92
686.108	11.92
686.137	4.92
686.167	12.92
686.197	-2.08
686.227	10.92
686.257	26.92
686.287	7.92
686.317	-8.08
686.346	6.92
686.376	-0.08
686.406	1.92
686.436	14.92
686.466	11.92
686.496	16.92
686.525	3.92
686.555	-14.08
686.585	22.92
686.615	21.92
686.645	1.92
686.675	-0.08
686.704	3.92
686.734	1.92
686.764	2.92
686.794	3.92
686.824	-7.08
686.853	15.92
686.883	26.92
686.913	13.92
686.943	-2.08
686.973	-1.08
687.002	9.92
687.032	6.92
687.062	10.92
687.092	10.92
687.121	-10.08
687.151	9.92
687.181	1.92
687.211	13.92
687.24	10.92
687.27	12.92
687.3	-6.08
687.33	-9.08
687.359	-15.08
687.389	-11.08
687.419	12.92
687.449	8.92
687.478	4.92
687.508	4.92
687.538	5.92
687.568	0.92
687.597	-9.08
687.627	-2.08
687.657	10.92
687.686	1.92
687.716	19.92
687.746	4.92
687.776	-10.08
687.805	14.92
687.835	13.92
687.865	21.92
687.894	12.92
687.924	-7.08
687.954	9.92
687.983	13.92
688.013	10.92
688.043	8.92
688.072	-6.08
688.102	13.92
688.132	8.92
688.161	-5.08
688.191	-10.08
688.221	-4.08
688.25	-6.08
688.28	5.92
688.31	-2.08
688.339	13.92
688.369	-21.08
688.399	-8.08
688.428	2.92
688.458	-0.08
688.488	-5.08
688.517	21.92
688.547	3.92
688.576	16.92
688.606	24.92
688.636	-9.08
688.665	8.92
688.695	22.92
688.725	10.92
688.754	7.92
688.784	13.92
688.813	8.92
688.843	7.92
688.873	7.92
688.902	11.92
688.932	5.92
688.961	-0.08
688.991	4.92
689.02	6.92
689.05	-5.08
689.08	14.92
689.109	1.92
689.139	-10.08
689.168	10.92
689.198	-7.08
689.227	-8.08
689.257	1.92
689.287	25.92
689.316	8.92
689.346	-9.08
689.375	-17.08
689.405	3.92
689.434	-7.08
689.464	7.92
689.493	4.92
689.523	-3.08
689.552	-1.08
689.582	14.92
689.611	-16.08
689.641	-2.08
689.67	-8.08
689.7	5.92
689.73	12.92
689.759	10.92
689.789	27.92
689.818	-3.08
689.848	16.92
689.877	12.92
689.906	-8.08
689.936	6.92
689.965	11.92
689.995	20.92
690.024	17.92
690.054	4.92
690.083	-9.08
690.113	5.92
690.142	-7.08
690.172	17.92
690.201	2.92
690.231	-7.08
690.26	21.92
690.29	5.92
690.319	16.92
690.348	4.92
690.378	-8.08
690.407	4.92
690.437	3.92
690.466	0.92
690.496	-7.08
690.525	19.92
690.555	7.92
690.584	-2.08
690.613	8.92
690.643	4.92
690.672	8.92
690.702	11.92
690.731	4.92
690.76	6.92
690.79	-6.08
690.819	5.92
690.849	4.92
690.878	2.92
690.907	18.92
690.937	20.92
690.966	5.92
690.996	6.92
691.025	-0.08
691.054	6.92
691.084	-6.08
691.113	-6.08
691.142	18.92
691.172	13.92
691.201	5.92
691.23	-3.08
691.26	27.92
691.289	15.92
691.319	-6.08
691.348	5.92
691.377	15.92
691.407	0.92
691.436	5.92
691.465	0.92
691.495	5.92
691.524	-6.08
691.553	-12.08
691.583	-8.08
691.612	3.92
691.641	-3.08
691.67	4.92
691.7	3.92
691.729	-1.08
691.758	-0.08
691.788	8.92
691.817	8.92
691.846	-2.08
691.876	-0.08
691.905	0.92
691.934	1.92
691.963	7.92
691.993	-1.08
692.022	-14.08
692.051	-15.08
692.081	-9.08
692.11	8.92
692.139	3.92
692.168	8.92
692.198	21.92
692.227	15.92
692.256	7.92
692.285	-2.08
692.315	-2.08
692.344	18.92
692.373	0.92
692.402	-20.08
692.432	-14.08
692.461	-8.08
692.49	17.92
692.519	0.92
692.548	20.92
692.578	19.92
692.607	2.92
692.636	5.92
692.665	12.92
692.694	7.92
692.724	-4.08
692.753	15.92
692.782	18.92
692.811	-10.08
692.84	-18.08
692.87	0.92
692.899	-0.08
692.928	0.92
692.957	13.92
692.986	5.92
693.016	-2.08
693.045	3.92
693.074	-3.08
693.103	2.92
693.132	-0.08
693.161	15.92
693.191	2.92
693.22	-10.08
693.249	21.92
693.278	5.92
693.307	11.92
693.336	-5.08
693.365	-8.08
693.395	-3.08
693.424	1.92
693.453	17.92
693.482	-0.08
693.511	1.92
693.54	10.92
693.569	7.92
693.598	-17.08
693.628	8.92
693.657	12.92
693.686	21.92
693.715	21.92
693.744	3.92
693.773	20.92
693.802	11.92
693.831	4.92
693.86	9.92
693.889	-14.08
693.919	-0.08
693.948	-0.08
693.977	7.92
694.006	6.92
694.035	-3.08
694.064	-5.08
694.093	6.92
694.122	9.92
694.151	-0.08
694.18	0.92
694.209	13.92
694.238	7.92
694.267	20.92
694.296	11.92
694.325	10.92
694.354	16.92
694.383	17.92
694.412	-2.08
694.441	-4.08
694.471	-8.08
694.5	-15.08
694.529	13.92
694.558	17.92
694.587	12.92
694.616	-9.08
694.645	-0.08
694.674	17.92
694.703	17.92
694.732	10.92
694.761	14.92
694.79	13.92
694.819	-10.08
694.848	14.92
694.877	23.92
694.906	14.92
694.935	1.92
694.963	22.92
694.992	-0.08
695.021	20.92
695.05	18.92
695.079	4.92
695.108	6.92
695.137	28.92
695.166	20.92
695.195	-4.08
695.224	2.92
695.253	1.92
695.282	13.92
695.311	0.92
695.34	7.92
695.369	6.92
695.398	-0.08
695.427	23.92
695.456	3.92
695.485	-6.08
695.513	0.92
695.542	14.92
695.571	12.92
695.6	15.92
695.629	5.92
695.658	4.92
695.687	4.92
695.716	5.92
695.745	11.92
695.774	-5.08
695.802	-9.08
695.831	-5.08
695.86	17.92
695.889	-5.08
695.918	-3.08
695.947	14.92
695.976	7.92
696.005	11.92
696.033	6.92
696.062	12.92
696.091	4.92
696.12	3.92
696.149	3.92
696.178	6.92
696.207	-4.08
696.235	-8.08
696.264	13.92
696.293	12.92
696.322	24.92
696.351	23.92
696.38	3.92
696.408	-7.08
696.437	-3.08
696.466	11.92
696.495	19.92
696.524	25.92
696.553	-0.08
696.581	-10.08
696.61	4.92
696.639	-4.08
696.668	1.92
696.697	1.92
696.725	8.92
696.754	-2.08
696.783	4.92
696.812	10.92
696.84	12.92
696.869	10.92
696.898	8.92
696.927	1.92
696.956	11.92
696.984	-2.08
697.013	17.92
697.042	-2.08
697.071	5.92
697.099	11.92
697.128	-4.08
697.157	-1.08
697.186	-3.08
697.214	-6.08
697.243	2.92
697.272	7.92
697.301	10.92
697.329	-2.08
697.358	14.92
697.387	20.92
697.415	9.92
697.444	10.92
697.473	9.92
697.502	4.92
697.53	24.92
697.559	5.92
697.588	16.92
697.616	-15.08
697.645	-5.08
697.674	12.92
697.703	-17.08
697.731	8.92
697.76	3.92
697.789	11.92
697.817	-0.08
697.846	17.92
697.875	7.92
697.903	18.92
697.932	1.92
697.961	-8.08
697.989	0.92
698.018	7.92
698.047	21.92
698.075	9.92
698.104	4.92
698.133	-0.08
698.161	0.92
698.19	3.92
698.218	1.92
698.247	4.92
698.276	5.92
698.304	11.92
698.333	9.92
698.362	4.92
698.39	8.92
698.419	19.92
698.447	5.92
698.476	5.92
698.505	1.92
698.533	-2.08
698.562	-2.08
698.591	-2.08
698.619	-9.08
698.648	-4.08
698.676	10.92
698.705	8.92
698.733	-12.08
698.762	15.92
698.791	13.92
698.819	7.92
698.848	-0.08
698.876	-0.08
698.905	-4.08
698.933	2.92
698.962	-15.08
698.991	-10.08
699.019	10.92
699.048	-11.08
699.076	9.92
699.105	-4.08
699.133	0.92
699.162	13.92
699.19	15.92
699.219	5.92
699.248	4.92
699.276	3.92
699.305	-11.08
699.333	4.92
699.362	-5.08
699.39	11.92
699.419	-2.08
699.447	1.92
699.476	19.92
699.504	16.92
699.533	-6.08
699.561	-5.08
699.59	1.92
699.618	-12.08
699.647	0.92
699.675	-2.08
699.704	2.92
699.732	4.92
699.761	4.92
699.789	-3.08
699.818	13.92
699.846	6.92
699.874	-8.08
699.903	10.92
699.931	-7.08
699.96	16.92
699.988	9.92
700.017	6.92
700.045	-3.08
700.074	-0.08
700.102	7.92
700.13	6.92
700.159	11.92
700.187	6.92
700.216	-4.08
700.244	3.92
700.273	6.92
700.301	15.92
700.329	12.92
700.358	10.92
700.386	-7.08
700.415	-14.08
700.443	-3.08
700.472	2.92
700.5	-3.08
700.528	16.92
700.557	7.92
700.585	-1.08
700.614	3.92
700.642	18.92
700.67	14.92
700.699	10.92
700.727	-6.08
700.755	13.92
700.784	11.92
700.812	-7.08
700.841	19.92
700.869	-4.08
700.897	-12.08
700.926	-1.08
700.954	3.92
700.982	8.92
701.011	-2.08
701.039	20.92
701.067	-5.08
701.096	9.92
701.124	0.92
701.152	10.92
701.181	-9.08
701.209	-0.08
701.237	8.92
701.266	5.92
701.294	-1.08
701.322	-1.08
701.351	8.92
701.379	8.92
701.407	14.92
701.435	16.92
701.464	17.92
701.492	10.92
701.52	2.92
701.549	11.92
701.577	-23.08
701.605	-7.08
701.634	-3.08
701.662	-5.08
701.69	-6.08
701.718	-20.08
701.747	3.92
701.775	14.92
701.803	3.92
701.831	6.92
701.86	0.92
701.888	-3.08
701.916	6.92
701.944	-8.08
701.973	-8.08
702.001	-11.08
702.029	2.92
702.057	-17.08
702.086	-14.08
702.114	-0.08
702.142	9.92
702.17	2.92
702.199	9.92
702.227	14.92
702.255	7.92
702.283	-0.08
702.311	18.92
702.34	3.92
702.368	-0.08
702.396	19.92
702.424	3.92
702.452	-3.08
702.481	2.92
702.509	-4.08
702.537	-6.08
702.565	9.92
702.593	-19.08
702.621	9.92
702.65	18.92
702.678	-0.08
702.706	13.92
702.734	1.92
702.762	4.92
702.79	3.92
702.819	5.92
702.847	13.92
702.875	7.92
702.903	9.92
702.931	-10.08
702.959	-0.08
702.988	10.92
703.016	-7.08
703.044	3.92
703.072	3.92
703.1	1.92
703.128	3.92
703.156	-4.08
703.184	-2.08
703.212	3.92
703.241	6.92
703.269	-1.08
703.297	-3.08
703.325	-4.08
703.353	-13.08
703.381	-18.08
703.409	-17.08
703.437	-12.08
703.465	0.92
703.493	0.92
703.522	6.92
703.55	3.92
703.578	-0.08
703.606	10.92
703.634	2.92
703.662	-8.08
703.69	2.92
703.718	-8.08
703.746	7.92
703.774	6.92
703.802	12.92
703.83	0.92
703.858	4.92
703.886	3.92
703.914	-11.08
703.942	6.92
703.97	-8.08
703.998	-11.08
704.027	14.92
704.055	-19.08
704.083	1.92
704.111	0.92
704.139	3.92
704.167	7.92
704.195	8.92
704.223	-9.08
704.251	-12.08
704.279	10.92
704.307	7.92
704.335	-3.08
704.363	5.92
704.391	9.92
704.419	7.92
704.447	-5.08
704.475	1.92
704.503	-0.08
704.531	5.92
704.558	-7.08
704.586	-1.08
704.614	-12.08
704.642	0.92
704.67	-3.08
704.698	1.92
704.726	-5.08
704.754	-6.08
704.782	-0.08
704.81	-6.08
704.838	31.92
704.866	18.92
704.894	-3.08
704.922	-9.08
704.95	1.92
704.978	-2.08
705.006	-0.08
705.034	0.92
705.061	-2.08
705.089	18.92
705.117	-0.08
705.145	-2.08
705.173	1.92
705.201	-2.08
705.229	5.92
705.257	6.92
705.285	-6.08
705.313	6.92
705.34	12.92
705.368	-13.08
705.396	6.92
705.424	-6.08
705.452	-9.08
705.48	7.92
705.508	1.92
705.536	-2.08
705.563	4.92
705.591	0.92
705.619	-9.08
705.647	-11.08
705.675	6.92
705.703	-2.08
705.731	-7.08
705.758	-1.08
705.786	3.92
705.814	18.92
705.842	9.92
705.87	0.92
705.898	5.92
705.925	-22.08
705.953	0.92
705.981	-12.08
706.009	-23.08
706.037	-8.08
706.065	3.92
706.092	-6.08
706.12	1.92
706.148	-7.08
706.176	-23.08
706.204	8.92
706.231	-11.08
706.259	-0.08
706.287	-6.08
706.315	12.92
706.342	-7.08
706.37	25.92
706.398	6.92
706.426	0.92
706.454	-0.08
706.481	17.92
706.509	10.92
706.537	-13.08
706.565	0.92
706.592	6.92
706.62	-2.08
706.648	0.92
706.676	-10.08
706.703	4.92
706.731	0.92
706.759	-2.08
706.787	8.92
706.814	0.92
706.842	0.92
706.87	2.92
706.897	3.92
706.925	-4.08
706.953	13.92
706.981	19.92
707.008	13.92
707.036	9.92
707.064	3.92
707.091	-11.08
707.119	18.92
707.147	-10.08
707.174	-9.08
707.202	17.92
707.23	-5.08
707.258	11.92
707.285	-18.08
707.313	-3.08
707.341	-6.08
707.368	-4.08
707.396	-8.08
707.424	10.92
707.451	4.92
707.479	7.92
707.507	-6.08
707.534	-3.08
707.562	-0.08
707.59	-9.08
707.617	-10.08
707.645	-6.08
707.672	-16.08
707.7	-0.08
707.728	12.92
707.755	3.92
707.783	2.92
707.811	10.92
707.838	6.92
707.866	9.92
707.893	8.92
707.921	1.92
707.949	-0.08
707.976	12.92
708.004	17.92
708.031	-11.08
708.059	-15.08
708.087	-10.08
708.114	-7.08
708.142	-8.08
708.169	-1.08
708.197	-8.08
708.225	-8.08
708.252	-5.08
708.28	4.92
708.307	8.92
708.335	-3.08
708.362	-4.08
708.39	-18.08
708.418	-9.08
708.445	-2.08
708.473	-5.08
708.5	-14.08
708.528	1.92
708.555	0.92
708.583	4.92
708.61	-5.08
708.638	4.92
708.665	-2.08
708.693	2.92
708.72	7.92
708.748	-1.08
708.776	8.92
708.803	10.92
708.831	20.92
708.858	16.92
708.886	0.92
708.913	7.92
708.941	-1.08
708.968	7.92
708.996	-1.08
709.023	21.92
709.051	-0.08
709.078	1.92
709.105	8.92
709.133	-3.08
709.16	4.92
709.188	8.92
709.215	12.92
709.243	-11.08
709.27	-12.08
709.298	1.92
709.325	-8.08
709.353	-14.08
709.38	11.92
709.408	13.92
709.435	5.92
709.462	10.92
709.49	12.92
709.517	-4.08
709.545	-8.08
709.572	-11.08
709.6	-6.08
709.627	4.92
709.655	-3.08
709.682	-8.08
709.709	28.92
709.737	16.92
709.764	1.92
709.792	19.92
709.819	0.92
709.846	-8.08
709.874	18.92
709.901	29.92
709.929	10.92
709.956	8.92
709.983	-6.08
710.011	-8.08
710.038	-6.08
710.066	7.92
710.093	22.92
710.12	-10.08
710.148	0.92
710.175	-16.08
710.202	-5.08
710.23	-6.08
710.257	-11.08
710.284	1.92
710.312	13.92
710.339	-2.08
710.366	7.92
710.394	-9.08
710.421	7.92
710.448	-1.08
710.476	-16.08
710.503	4.92
710.53	16.92
710.558	19.92
710.585	4.92
710.612	-11.08
710.64	-3.08
710.667	-3.08
710.694	-5.08
710.722	-2.08
710.749	6.92
710.776	6.92
710.804	24.92
710.831	3.92
710.858	-4.08
710.885	-8.08
710.913	0.92
710.94	28.92
710.967	9.92
710.995	3.92
711.022	-5.08
711.049	3.92
711.076	-20.08
711.104	7.92
711.131	-13.08
711.158	-2.08
711.185	22.92
711.213	-2.08
711.24	-1.08
711.267	-16.08
711.294	4.92
711.322	-2.08
711.349	-1.08
711.376	10.92
711.403	6.92
711.431	-18.08
711.458	-5.08
711.485	-10.08
711.512	1.92
711.54	9.92
711.567	6.92
711.594	-10.08
711.621	8.92
711.648	-3.08
711.676	-3.08
711.703	0.92
711.73	-5.08
711.757	0.92
711.784	5.92
711.812	-5.08
711.839	-3.08
711.866	11.92
711.893	-1.08
711.92	22.92
711.947	-9.08
711.975	3.92
712.002	-0.08
712.029	9.92
712.056	-1.08
712.083	17.92
712.11	-10.08
712.138	-3.08
712.165	-0.08
712.192	-7.08
712.219	-7.08
712.246	-10.08
712.273	-11.08
712.3	-14.08
712.328	-20.08
712.355	4.92
712.382	-2.08
712.409	4.92
712.436	-15.08
712.463	-2.08
712.49	15.92
712.517	-0.08
712.544	19.92
712.572	1.92
712.599	-3.08
712.626	-9.08
712.653	-7.08
712.68	-16.08
712.707	9.92
712.734	9.92
712.761	4.92
712.788	9.92
712.815	5.92
712.842	14.92
712.87	-4.08
712.897	-11.08
712.924	-12.08
712.951	18.92
712.978	8.92
713.005	9.92
713.032	-2.08
713.059	-2.08
713.086	16.92
713.113	-2.08
713.14	-11.08
713.167	6.92
713.194	4.92
713.221	3.92
713.248	17.92
713.275	4.92
713.302	-15.08
713.329	6.92
713.356	13.92
713.383	-6.08
713.41	4.92
713.437	-7.08
713.464	-10.08
713.491	9.92
713.518	-10.08
713.545	-3.08
713.572	3.92
713.599	7.92
713.626	4.92
713.653	5.92
713.68	-12.08
713.707	13.92
713.734	14.92
713.761	11.92
713.788	-0.08
713.815	4.92
713.842	-4.08
713.869	-12.08
713.896	-5.08
713.923	10.92
713.95	2.92
713.977	-13.08
714.004	-10.08
714.031	-10.08
714.058	-3.08
714.085	-2.08
714.112	8.92
714.139	-0.08
714.165	3.92
714.192	-7.08
714.219	7.92
714.246	1.92
714.273	-9.08
714.3	-12.08
714.327	7.92
714.354	9.92
714.381	4.92
714.408	8.92
714.435	-5.08
714.461	-7.08
714.488	16.92
714.515	-9.08
714.542	-17.08
714.569	-19.08
714.596	-4.08
714.623	4.92
714.65	-11.08
714.677	-6.08
714.703	7.92
714.73	1.92
714.757	8.92
714.784	-1.08
714.811	-11.08
714.838	4.92
714.865	1.92
714.891	14.92
714.918	-6.08
714.945	-12.08
714.972	10.92
714.999	17.92
715.026	-12.08
715.052	14.92
715.079	2.92
715.106	3.92
715.133	-1.08
715.16	-0.08
715.187	0.92
715.213	19.92
715.24	-3.08
715.267	-4.08
715.294	-3.08
715.321	-14.08
715.347	-4.08
715.374	-11.08
715.401	-0.08
715.428	-2.08
715.455	0.92
715.481	-7.08
715.508	4.92
715.535	-0.08
715.562	14.92
715.588	15.92
715.615	15.92
715.642	9.92
715.669	16.92
715.695	-6.08
715.722	-7.08
715.749	2.92
715.776	10.92
715.802	17.92
715.829	18.92
715.856	-14.08
715.883	17.92
715.909	-4.08
715.936	8.92
715.963	1.92
715.99	-19.08
716.016	-3.08
716.043	-10.08
716.07	-0.08
716.096	-2.08
716.123	-14.08
716.15	10.92
716.177	7.92
716.203	28.92
716.23	14.92
716.257	-2.08
716.283	3.92
716.31	8.92
716.337	-1.08
716.363	-6.08
716.39	5.92
716.417	4.92
716.443	6.92
716.47	18.92
716.497	7.92
716.523	17.92
716.55	-17.08
716.577	8.92
716.603	5.92
716.63	21.92
716.657	5.92
716.683	1.92
716.71	-2.08
716.737	-0.08
716.763	15.92
716.79	-5.08
716.817	14.92
716.843	4.92
716.87	-5.08
716.897	4.92
716.923	1.92
716.95	-0.08
716.976	-8.08
717.003	0.92
717.03	3.92
717.056	15.92
717.083	0.92
717.109	3.92
717.136	7.92
717.163	9.92
717.189	-8.08
717.216	-16.08
717.242	-5.08
717.269	-6.08
717.296	12.92
717.322	17.92
717.349	24.92
717.375	6.92
717.402	-6.08
717.428	-1.08
717.455	4.92
717.481	9.92
717.508	12.92
717.535	9.92
717.561	-12.08
717.588	-8.08
717.614	6.92
717.641	-3.08
717.667	0.92
717.694	5.92
717.72	-1.08
717.747	1.92
717.773	-5.08
717.8	11.92
717.826	9.92
717.853	4.92
717.88	12.92
717.906	19.92
717.933	3.92
717.959	12.92
717.986	17.92
718.012	5.92
718.039	16.92
718.065	16.92
718.092	-0.08
718.118	-1.08
718.144	-0.08
718.171	19.92
718.197	20.92
718.224	3.92
718.25	6.92
718.277	12.92
718.303	5.92
718.33	-4.08
718.356	-7.08
718.383	-2.08
718.409	2.92
718.436	-0.08
718.462	6.92
718.489	-3.08
718.515	19.92
718.541	16.92
718.568	15.92
718.594	-0.08
718.621	4.92
718.647	3.92
718.674	8.92
718.7	4.92
718.726	1.92
718.753	4.92
718.779	13.92
718.806	-15.08
718.832	-0.08
718.858	-6.08
718.885	3.92
718.911	1.92
718.938	0.92
718.964	-9.08
718.99	8.92
719.017	0.92
719.043	3.92
719.07	16.92
719.096	3.92
719.122	22.92
719.149	-4.08
719.175	0.92
719.201	9.92
719.228	3.92
719.254	2.92
719.281	-2.08
719.307	0.92
719.333	2.92
719.36	0.92
719.386	7.92
719.412	1.92
719.439	-22.08
719.465	-7.08
719.491	-16.08
719.518	13.92
719.544	-1.08
719.57	10.92
719.597	15.92
719.623	14.92
719.649	-5.08
719.675	-7.08
719.702	9.92
719.728	17.92
719.754	-1.08
719.781	-7.08
719.807	4.92
719.833	-10.08
719.86	6.92
719.886	-15.08
719.912	4.92
719.938	-5.08
719.965	8.92
719.991	9.92
720.017	-9.08
720.044	-15.08
720.07	3.92
720.096	19.92
720.122	6.92
720.149	26.92
720.175	24.92
720.201	9.92
720.227	2.92
720.254	8.92
720.28	9.92
720.306	4.92
720.332	11.92
720.359	5.92
720.385	8.92
720.411	-0.08
720.437	14.92
720.463	-3.08
720.49	-3.08
720.516	-8.08
720.542	-11.08
720.568	1.92
720.595	11.92
720.621	-11.08
720.647	7.92
720.673	8.92
720.699	-1.08
720.725	-8.08
720.752	2.92
720.778	-0.08
720.804	-2.08
720.83	15.92
720.856	0.92
720.883	-6.08
720.909	-3.08
720.935	1.92
720.961	7.92
720.987	-0.08
721.013	12.92
721.04	-19.08
721.066	-2.08
721.092	8.92
721.118	17.92
721.144	4.92
721.17	-10.08
721.196	0.92
721.223	5.92
721.249	9.92
721.275	12.92
721.301	4.92
721.327	15.92
721.353	6.92
721.379	5.92
721.405	10.92
721.432	13.92
721.458	-3.08
721.484	30.92
721.51	-18.08
721.536	3.92
721.562	3.92
721.588	10.92
721.614	-9.08
721.64	-8.08
721.666	7.92
721.693	1.92
721.719	9.92
721.745	-8.08
721.771	-7.08
721.797	-4.08
721.823	0.92
721.849	21.92
721.875	24.92
721.901	8.92
721.927	-10.08
721.953	-0.08
721.979	17.92
722.005	4.92
722.031	-8.08
722.057	11.92
722.083	2.92
722.109	5.92
722.135	18.92
722.161	7.92
722.187	-8.08
722.214	10.92
722.24	3.92
722.266	-14.08
722.292	-13.08
722.318	14.92
722.344	3.92
722.37	5.92
722.396	-3.08
722.422	-2.08
722.448	-4.08
722.474	-10.08
722.5	-4.08
722.526	7.92
722.552	10.92
722.578	-1.08
722.603	11.92
722.629	-0.08
722.655	5.92
722.681	0.92
722.707	3.92
722.733	-2.08
722.759	-5.08
722.785	-4.08
722.811	6.92
722.837	11.92
722.863	6.92
722.889	9.92
722.915	-5.08
722.941	-4.08
722.967	-7.08
722.993	15.92
723.019	-2.08
723.045	8.92
723.071	12.92
723.097	11.92
723.122	3.92
723.148	5.92
723.174	0.92
723.2	9.92
723.226	2.92
723.252	-2.08
723.278	-8.08
723.304	-12.08
723.33	3.92
723.356	-4.08
723.381	-3.08
723.407	-12.08
723.433	14.92
723.459	17.92
723.485	-4.08
723.511	9.92
723.537	-10.08
723.563	-4.08
723.588	6.92
723.614	4.92
723.64	10.92
723.666	3.92
723.692	19.92
723.718	14.92
723.744	18.92
723.769	-9.08
723.795	9.92
723.821	7.92
723.847	-11.08
723.873	0.92
723.899	6.92
723.924	-2.08
723.95	1.92
723.976	-12.08
724.002	0.92
724.028	4.92
724.053	4.92
724.079	17.92
724.105	-9.08
724.131	9.92
724.157	0.92
724.182	30.92
724.208	0.92
724.234	6.92
724.26	0.92
724.286	17.92
724.311	2.92
724.337	-8.08
724.363	-1.08
724.389	-3.08
724.415	-15.08
724.44	3.92
724.466	-3.08
724.492	1.92
724.518	16.92
724.543	8.92
724.569	-4.08
724.595	11.92
724.621	1.92
724.646	-12.08
724.672	0.92
724.698	2.92
724.723	4.92
724.749	15.92
724.775	23.92
724.801	6.92
724.826	10.92
724.852	5.92
724.878	1.92
724.904	-6.08
724.929	3.92
724.955	-1.08
724.981	15.92
725.006	13.92
725.032	17.92
725.058	7.92
725.083	0.92
725.109	-4.08
725.135	4.92
725.161	10.92
725.186	12.92
725.212	-7.08
725.238	-0.08
725.263	-8.08
725.289	-1.08
725.315	-19.08
725.34	-0.08
725.366	5.92
725.392	11.92
725.417	14.92
725.443	-0.08
725.468	3.92
725.494	12.92
725.52	10.92
725.545	-6.08
725.571	-9.08
725.597	-17.08
725.622	-5.08
725.648	-7.08
725.674	17.92
725.699	6.92
725.725	1.92
725.75	21.92
725.776	-4.08
725.802	-4.08
725.827	2.92
725.853	-4.08
725.878	1.92
725.904	-13.08
725.93	-3.08
725.955	-15.08
725.981	-4.08
726.006	-9.08
726.032	4.92
726.057	-2.08
726.083	-0.08
726.109	4.92
726.134	1.92
726.16	-2.08
726.185	5.92
726.211	-3.08
726.236	20.92
726.262	9.92
726.288	0.92
726.313	25.92
726.339	8.92
726.364	0.92
726.39	15.92
726.415	3.92
726.441	-6.08
726.466	-11.08
726.492	-6.08
726.517	-0.08
726.543	1.92
726.568	-1.08
726.594	1.92
726.619	6.92
726.645	4.92
726.67	-0.08
726.696	16.92
726.721	-0.08
726.747	-0.08
726.772	0.92
726.798	-8.08
726.823	13.92
726.849	7.92
726.874	6.92
726.9	26.92
726.925	10.92
726.951	9.92
726.976	10.92
727.002	3.92
727.027	-9.08
727.053	15.92
727.078	13.92
727.104	27.92
727.129	-3.08
727.155	-1.08
727.18	10.92
727.205	9.92
727.231	-17.08
727.256	7.92
727.282	3.92
727.307	12.92
727.333	3.92
727.358	-0.08
727.383	-18.08
727.409	5.92
727.434	11.92
727.46	-3.08
727.485	5.92
727.511	-3.08
727.536	-6.08
727.561	-3.08
727.587	7.92
727.612	5.92
727.637	-0.08
727.663	1.92
727.688	30.92
727.714	-2.08
727.739	-3.08
727.764	1.92
727.79	-0.08
727.815	4.92
727.841	8.92
727.866	28.92
727.891	6.92
727.917	4.92
727.942	-4.08
727.967	4.92
727.993	-10.08
728.018	-4.08
728.043	1.92
728.069	5.92
728.094	18.92
728.119	-2.08
728.145	24.92
728.17	0.92
728.195	4.92
728.221	6.92
728.246	5.92
728.271	-4.08
728.297	-6.08
728.322	-7.08
728.347	-2.08
728.373	12.92
728.398	14.92
728.423	1.92
728.448	3.92
728.474	2.92
728.499	4.92
728.524	-9.08
728.55	-3.08
728.575	2.92
728.6	4.92
728.625	0.92
728.651	17.92
728.676	8.92
728.701	3.92
728.727	0.92
728.752	-8.08
728.777	-15.08
728.802	-0.08
728.828	5.92
728.853	-3.08
728.878	-4.08
728.903	-14.08
728.929	-8.08
728.954	-2.08
728.979	19.92
729.004	5.92
729.03	-10.08
729.055	-7.08
729.08	-12.08
729.105	-3.08
729.13	15.92
729.156	1.92
729.181	-8.08
729.206	-11.08
729.231	-7.08
729.256	15.92
729.282	8.92
729.307	-6.08
729.332	-6.08
729.357	-2.08
729.382	7.92
729.408	21.92
729.433	4.92
729.458	9.92
729.483	13.92
729.508	15.92
729.533	0.92
729.559	8.92
729.584	-13.08
729.609	11.92
729.634	12.92
729.659	3.92
729.684	-1.08
729.71	27.92
729.735	7.92
729.76	-1.08
729.785	-2.08
729.81	18.92
729.835	-2.08
729.86	-5.08
729.886	19.92
729.911	13.92
729.936	-9.08
729.961	-2.08
729.986	-0.08
730.011	-0.08
730.036	-2.08
730.061	7.92
730.086	-6.08
730.112	-3.08
730.137	6.92
730.162	3.92
730.187	-15.08
730.212	13.92
730.237	-5.08
730.262	0.92
730.287	-10.08
730.312	8.92
730.337	-0.08
730.362	15.92
730.387	4.92
730.413	-7.08
730.438	2.92
730.463	5.92
730.488	8.92
730.513	10.92
730.538	-7.08
730.563	8.92
730.588	5.92
730.613	12.92
730.638	-0.08
730.663	2.92
730.688	21.92
730.713	-2.08
730.738	13.92
730.763	-14.08
730.788	-18.08
730.813	14.92
730.838	-3.08
730.863	-12.08
730.888	-14.08
730.913	-2.08
730.938	-17.08
730.963	-2.08
730.988	3.92
731.013	22.92
731.038	1.92
731.063	-18.08
731.088	14.92
731.113	1.92
731.138	-5.08
731.163	8.92
731.188	-0.08
731.213	3.92
731.238	16.92
731.263	8.92
731.288	0.92
731.313	9.92
731.338	16.92
731.363	-3.08
731.388	1.92
731.413	0.92
731.438	-3.08
731.463	7.92
731.487	20.92
731.512	-8.08
731.537	-1.08
731.562	-13.08
731.587	3.92
731.612	11.92
731.637	-6.08
731.662	-1.08
731.687	-2.08
731.712	-9.08
731.737	-1.08
731.762	5.92
731.786	-3.08
731.811	-3.08
731.836	3.92
731.861	-4.08
731.886	1.92
731.911	18.92
731.936	9.92
731.961	9.92
731.986	-7.08
732.01	9.92
732.035	10.92
732.06	20.92
732.085	2.92
732.11	8.92
732.135	-2.08
732.16	-0.08
732.184	0.92
732.209	5.92
732.234	1.92
732.259	4.92
732.284	18.92
732.309	2.92
732.334	-0.08
732.358	-8.08
732.383	-18.08
732.408	-4.08
732.433	-1.08
732.458	15.92
732.482	4.92
732.507	3.92
732.532	-2.08
732.557	10.92
732.582	11.92
732.607	8.92
732.631	-6.08
732.656	-1.08
732.681	-2.08
732.706	1.92
732.73	1.92
732.755	4.92
732.78	-1.08
732.805	4.92
732.83	-3.08
732.854	0.92
732.879	13.92
732.904	0.92
732.929	8.92
732.953	17.92
732.978	0.92
733.003	-5.08
733.028	-8.08
733.052	23.92
733.077	-1.08
733.102	14.92
733.127	-10.08
733.151	14.92
733.176	7.92
733.201	-2.08
733.226	10.92
733.25	4.92
733.275	1.92
733.3	2.92
733.324	13.92
733.349	12.92
733.374	29.92
733.399	-15.08
733.423	13.92
733.448	8.92
733.473	-11.08
733.497	-5.08
733.522	6.92
733.547	11.92
733.571	24.92
733.596	12.92
733.621	10.92
733.646	11.92
733.67	11.92
733.695	-10.08
733.72	8.92
733.744	3.92
733.769	2.92
733.794	6.92
733.818	12.92
733.843	8.92
733.867	-5.08
733.892	-11.08
733.917	-6.08
733.941	-2.08
733.966	1.92
733.991	0.92
734.015	8.92
734.04	-3.08
734.065	17.92
734.089	17.92
734.114	-3.08
734.138	6.92
734.163	-10.08
734.188	7.92
734.212	23.92
734.237	8.92
734.261	3.92
734.286	-5.08
734.311	-3.08
734.335	6.92
734.36	-3.08
734.384	4.92
734.409	6.92
734.434	-8.08
734.458	22.92
734.483	8.92
734.507	-11.08
734.532	-0.08
734.556	-3.08
734.581	5.92
734.606	-1.08
734.63	-14.08
734.655	11.92
734.679	-0.08
734.704	-8.08
734.728	6.92
734.753	-6.08
734.777	7.92
734.802	7.92
734.826	4.92
734.851	0.92
734.876	15.92
734.9	5.92
734.925	4.92
734.949	1.92
734.974	-8.08
734.998	-0.08
735.023	-4.08
735.047	-7.08
735.072	15.92
735.096	6.92
735.121	-13.08
735.145	12.92
735.17	12.92
735.194	11.92
735.219	8.92
735.243	5.92
735.268	8.92
735.292	6.92
735.317	13.92
735.341	6.92
735.365	-0.08
735.39	3.92
735.414	6.92
735.439	3.92
735.463	-7.08
735.488	11.92
735.512	-9.08
735.537	-4.08
735.561	7.92
735.586	4.92
735.61	5.92
735.634	-3.08
735.659	5.92
735.683	24.92
735.708	-3.08
735.732	-5.08
735.757	-2.08
735.781	15.92
735.805	16.92
735.83	5.92
735.854	0.92
735.879	6.92
735.903	13.92
735.927	8.92
735.952	6.92
735.976	6.92
736.001	3.92
736.025	-8.08
736.049	-2.08
736.074	-7.08
736.098	-4.08
736.123	4.92
736.147	-3.08
736.171	-16.08
736.196	-0.08
736.22	-18.08
736.244	-4.08
736.269	14.92
736.293	7.92
736.317	-2.08
736.342	-1.08
736.366	15.92
736.39	21.92
736.415	19.92
736.439	-7.08
736.463	-4.08
736.488	6.92
736.512	0.92
736.536	11.92
736.561	8.92
736.585	0.92
736.609	2.92
736.634	3.92
736.658	0.92
736.682	-5.08
736.707	-10.08
736.731	-0.08
736.755	9.92
736.78	22.92
736.804	16.92
736.828	4.92
736.852	6.92
736.877	0.92
736.901	1.92
736.925	-3.08
736.949	0.92
736.974	4.92
736.998	-3.08
737.022	-0.08
737.047	-2.08
737.071	6.92
737.095	42.92
737.119	14.92
737.144	1.92
737.168	-6.08
737.192	-8.08
737.216	3.92
737.241	-2.08
737.265	8.92
737.289	10.92
737.313	15.92
737.337	7.92
737.362	13.92
737.386	0.92
737.41	-9.08
737.434	8.92
737.459	3.92
737.483	3.92
737.507	8.92
737.531	-2.08
737.555	0.92
737.58	11.92
737.604	10.92
737.628	-7.08
737.652	-8.08
737.676	5.92
737.701	4.92
737.725	0.92
737.749	1.92
737.773	5.92
737.797	7.92
737.821	13.92
737.846	3.92
737.87	26.92
737.894	-0.08
737.918	-0.08
737.942	-3.08
737.966	-1.08
737.99	12.92
738.015	14.92
738.039	-4.08
738.063	1.92
738.087	21.92
738.111	10.92
738.135	3.92
738.159	5.92
738.184	-2.08
738.208	3.92
738.232	-2.08
738.256	18.92
738.28	6.92
738.304	15.92
738.328	5.92
738.352	13.92
738.376	-4.08
738.4	3.92
738.425	10.92
738.449	-10.08
738.473	10.92
738.497	-3.08
738.521	11.92
738.545	15.92
738.569	1.92
738.593	11.92
738.617	-2.08
738.641	-8.08
738.665	-0.08
738.689	-0.08
738.713	12.92
738.737	3.92
738.762	29.92
738.786	0.92
738.81	-24.08
738.834	18.92
738.858	0.92
738.882	-12.08
738.906	-18.08
738.93	7.92
738.954	-7.08
738.978	12.92
739.002	-2.08
739.026	6.92
739.05	23.92
739.074	-14.08
739.098	44.92
739.122	16.92
739.146	12.92
739.17	22.92
739.194	9.92
739.218	-16.08
739.242	2.92
739.266	0.92
739.29	4.92
739.314	0.92
739.338	-1.08
739.362	0.92
739.386	7.92
739.41	-3.08
739.434	-7.08
739.458	17.92
739.482	1.92
739.506	-0.08
739.53	5.92
739.554	10.92
739.577	1.92
739.601	1.92
739.625	-0.08
739.649	-4.08
739.673	1.92
739.697	15.92
739.721	7.92
739.745	11.92
739.769	5.92
739.793	-0.08
739.817	21.92
739.841	-4.08
739.865	-3.08
739.889	-9.08
739.912	13.92
739.936	-1.08
739.96	13.92
739.984	23.92
740.008	-6.08
740.032	-8.08
740.056	-3.08
740.08	0.92
740.104	-18.08
740.127	17.92
740.151	27.92
740.175	15.92
740.199	1.92
740.223	48.92
740.247	11.92
740.271	4.92
740.295	3.92
740.318	-6.08
740.342	-3.08
740.366	12.92
740.39	11.92
740.414	8.92
740.438	6.92
740.461	17.92
740.485	-5.08
740.509	-7.08
740.533	-1.08
740.557	-11.08
740.581	-12.08
740.604	-19.08
740.628	10.92
740.652	16.92
740.676	1.92
740.7	5.92
740.723	-7.08
740.747	-3.08
740.771	11.92
740.795	-6.08
740.819	6.92
740.842	0.92
740.866	15.92
740.89	13.92
740.914	3.92
740.938	-6.08
740.961	4.92
740.985	-10.08
741.009	1.92
741.033	13.92
741.056	15.92
741.08	1.92
741.104	-5.08
741.128	0.92
741.151	20.92
741.175	14.92
741.199	15.92
741.223	7.92
741.246	-7.08
741.27	0.92
741.294	5.92
741.318	-4.08
741.341	11.92
741.365	1.92
741.389	11.92
741.413	21.92
741.436	27.92
741.46	8.92
741.484	12.92
741.507	-7.08
741.531	11.92
741.555	16.92
741.579	4.92
741.602	0.92
741.626	2.92
741.65	7.92
741.673	7.92
741.697	0.92
741.721	1.92
741.744	-16.08
741.768	-1.08
741.792	-5.08
741.815	-1.08
741.839	8.92
741.863	14.92
741.886	20.92
741.91	12.92
741.934	5.92
741.957	-10.08
741.981	16.92
742.005	5.92
742.028	-4.08
742.052	3.92
742.075	21.92
742.099	5.92
742.123	-1.08
742.146	5.92
742.17	5.92
742.194	-9.08
742.217	-18.08
742.241	-14.08
742.264	-0.08
742.288	9.92
742.312	19.92
742.335	0.92
742.359	6.92
742.382	4.92
742.406	10.92
742.43	0.92
742.453	-1.08
742.477	-7.08
742.5	1.92
742.524	0.92
742.548	-0.08
742.571	-1.08
742.595	-4.08
742.618	-0.08
742.642	-16.08
742.665	2.92
742.689	-5.08
742.712	13.92
742.736	0.92
742.76	0.92
742.783	-8.08
742.807	12.92
742.83	17.92
742.854	-1.08
742.877	-6.08
742.901	-1.08
742.924	4.92
742.948	8.92
742.971	-4.08
742.995	12.92
743.018	0.92
743.042	-3.08
743.065	17.92
743.089	4.92
743.112	1.92
743.136	-3.08
743.159	1.92
743.183	-6.08
743.206	18.92
743.23	-8.08
743.253	7.92
743.277	4.92
743.3	-5.08
743.324	-1.08
743.347	-6.08
743.371	12.92
743.394	16.92
743.418	21.92
743.441	6.92
743.465	1.92
743.488	10.92
743.512	-4.08
743.535	7.92
743.558	-6.08
743.582	6.92
743.605	3.92
743.629	-5.08
743.652	4.92
743.676	7.92
743.699	11.92
743.723	9.92
743.746	3.92
743.769	-11.08
743.793	12.92
743.816	-2.08
743.84	7.92
743.863	1.92
743.886	19.92
743.91	23.92
743.933	6.92
743.957	3.92
743.98	-8.08
744.003	8.92
744.027	22.92
744.05	-2.08
744.074	1.92
744.097	-25.08
744.12	1.92
744.144	-9.08
744.167	3.92
744.19	16.92
744.214	14.92
744.237	-10.08
744.26	13.92
744.284	-3.08
744.307	-11.08
744.331	-2.08
744.354	-3.08
744.377	-4.08
744.401	-9.08
744.424	-5.08
744.447	-9.08
744.471	-7.08
