Data from HighRes_H2D2_15_04_11_07_2024_HR4C61891__26__15-05-37-043.txt Node

Date: Thu Nov 07 15:05:37 EST 2024
User: crc00042
Spectrometer: HR4C6189
Trigger mode: 4
Integration Time (sec): 1.000000E-1
Scans to average: 1
Electric dark correction enabled: true
Nonlinearity correction enabled: false
Boxcar width: 0
XAxis mode: Wavelengths
Number of Pixels in Spectrum: 3648
>>>>>Begin Spectral Data<<<<<
639.567	-49.46
639.602	-49.46
639.636	-49.46
639.67	-48.46
639.704	-28.46
639.738	-6.46
639.773	4.54
639.807	-12.46
639.841	-9.46
639.875	4.54
639.909	10.54
639.943	-10.46
639.978	0.54
640.012	2.54
640.046	6.54
640.08	11.54
640.114	7.54
640.148	-9.46
640.182	-1.46
640.217	-4.46
640.251	0.54
640.285	6.54
640.319	-9.46
640.353	-3.46
640.387	-2.46
640.421	-0.46
640.455	-2.46
640.49	4.54
640.524	1.54
640.558	-5.46
640.592	-17.46
640.626	-3.46
640.66	9.54
640.694	-7.46
640.728	3.54
640.762	18.54
640.796	17.54
640.83	7.54
640.865	-5.46
640.899	13.54
640.933	8.54
640.967	-3.46
641.001	14.54
641.035	2.54
641.069	3.54
641.103	-13.46
641.137	-1.46
641.171	-10.46
641.205	3.54
641.239	-4.46
641.273	25.54
641.307	0.54
641.341	9.54
641.375	10.54
641.409	6.54
641.443	12.54
641.477	-2.46
641.511	-5.46
641.545	-5.46
641.579	-6.46
641.614	11.54
641.648	7.54
641.682	-9.46
641.716	7.54
641.75	4.54
641.784	-9.46
641.818	-7.46
641.852	20.54
641.886	10.54
641.919	30.54
641.953	2.54
641.987	-19.46
642.021	-14.46
642.055	6.54
642.089	6.54
642.123	-8.46
642.157	-10.46
642.191	0.54
642.225	7.54
642.259	-5.46
642.293	15.54
642.327	9.54
642.361	6.54
642.395	22.54
642.429	18.54
642.463	14.54
642.497	15.54
642.531	1.54
642.565	-8.46
642.599	14.54
642.633	-10.46
642.666	7.54
642.7	11.54
642.734	10.54
642.768	-0.46
642.802	18.54
642.836	7.54
642.87	0.54
642.904	-13.46
642.938	-1.46
642.972	-12.46
643.005	13.54
643.039	14.54
643.073	4.54
643.107	-0.46
643.141	6.54
643.175	-6.46
643.209	-3.46
643.243	-0.46
643.276	1.54
643.31	1.54
643.344	-1.46
643.378	8.54
643.412	4.54
643.446	7.54
643.48	-12.46
643.513	-2.46
643.547	-17.46
643.581	-6.46
643.615	20.54
643.649	7.54
643.683	6.54
643.716	-16.46
643.75	7.54
643.784	-12.46
643.818	10.54
643.852	9.54
643.886	-11.46
643.919	18.54
643.953	3.54
643.987	7.54
644.021	5.54
644.055	3.54
644.088	6.54
644.122	-14.46
644.156	-25.46
644.19	-16.46
644.224	-1.46
644.257	10.54
644.291	-7.46
644.325	5.54
644.359	9.54
644.392	18.54
644.426	15.54
644.46	-1.46
644.494	-2.46
644.527	-4.46
644.561	10.54
644.595	12.54
644.629	-6.46
644.662	-5.46
644.696	-1.46
644.73	-4.46
644.764	11.54
644.797	-10.46
644.831	-13.46
644.865	11.54
644.899	5.54
644.932	14.54
644.966	4.54
645	5.54
645.033	-5.46
645.067	2.54
645.101	-2.46
645.135	-2.46
645.168	8.54
645.202	5.54
645.236	-0.46
645.269	-0.46
645.303	-6.46
645.337	-8.46
645.37	-5.46
645.404	0.54
645.438	14.54
645.471	-5.46
645.505	-6.46
645.539	-6.46
645.572	-16.46
645.606	-16.46
645.64	7.54
645.673	3.54
645.707	15.54
645.741	-11.46
645.774	-9.46
645.808	11.54
645.842	-20.46
645.875	14.54
645.909	-5.46
645.943	10.54
645.976	-0.46
646.01	0.54
646.043	19.54
646.077	20.54
646.111	4.54
646.144	22.54
646.178	4.54
646.212	-7.46
646.245	-4.46
646.279	13.54
646.312	12.54
646.346	14.54
646.38	2.54
646.413	-8.46
646.447	1.54
646.48	-7.46
646.514	7.54
646.547	-8.46
646.581	-8.46
646.615	-13.46
646.648	-9.46
646.682	1.54
646.715	6.54
646.749	13.54
646.782	0.54
646.816	-0.46
646.85	10.54
646.883	-1.46
646.917	8.54
646.95	5.54
646.984	20.54
647.017	16.54
647.051	9.54
647.084	9.54
647.118	-5.46
647.151	-7.46
647.185	10.54
647.218	-16.46
647.252	9.54
647.285	-15.46
647.319	5.54
647.353	6.54
647.386	25.54
647.42	6.54
647.453	3.54
647.487	5.54
647.52	-2.46
647.553	2.54
647.587	-4.46
647.62	5.54
647.654	11.54
647.687	4.54
647.721	-6.46
647.754	-1.46
647.788	-1.46
647.821	-1.46
647.855	8.54
647.888	10.54
647.922	12.54
647.955	0.54
647.989	10.54
648.022	14.54
648.055	22.54
648.089	1.54
648.122	24.54
648.156	5.54
648.189	-3.46
648.223	-1.46
648.256	24.54
648.29	17.54
648.323	1.54
648.356	14.54
648.39	-5.46
648.423	3.54
648.457	-16.46
648.49	-8.46
648.523	5.54
648.557	11.54
648.59	-0.46
648.624	2.54
648.657	9.54
648.69	14.54
648.724	6.54
648.757	22.54
648.791	-6.46
648.824	7.54
648.857	30.54
648.891	1.54
648.924	13.54
648.957	11.54
648.991	-1.46
649.024	5.54
649.057	1.54
649.091	-12.46
649.124	3.54
649.158	18.54
649.191	24.54
649.224	0.54
649.258	8.54
649.291	12.54
649.324	5.54
649.358	-4.46
649.391	7.54
649.424	-3.46
649.458	12.54
649.491	-1.46
649.524	-8.46
649.557	0.54
649.591	-14.46
649.624	13.54
649.657	-17.46
649.691	-9.46
649.724	0.54
649.757	9.54
649.791	10.54
649.824	14.54
649.857	18.54
649.89	7.54
649.924	-9.46
649.957	-2.46
649.99	0.54
650.023	7.54
650.057	-18.46
650.09	-8.46
650.123	7.54
650.157	19.54
650.19	17.54
650.223	10.54
650.256	5.54
650.29	-3.46
650.323	-4.46
650.356	1.54
650.389	7.54
650.423	-12.46
650.456	11.54
650.489	27.54
650.522	11.54
650.555	33.54
650.589	16.54
650.622	2.54
650.655	3.54
650.688	16.54
650.721	0.54
650.755	-3.46
650.788	10.54
650.821	19.54
650.854	2.54
650.887	8.54
650.921	-18.46
650.954	0.54
650.987	11.54
651.02	-1.46
651.053	-5.46
651.087	-4.46
651.12	23.54
651.153	10.54
651.186	15.54
651.219	-12.46
651.252	9.54
651.286	6.54
651.319	6.54
651.352	-5.46
651.385	-4.46
651.418	-11.46
651.451	18.54
651.484	13.54
651.518	-10.46
651.551	23.54
651.584	-24.46
651.617	14.54
651.65	14.54
651.683	0.54
651.716	-21.46
651.749	-4.46
651.783	5.54
651.816	1.54
651.849	13.54
651.882	11.54
651.915	13.54
651.948	-0.46
651.981	-2.46
652.014	-23.46
652.047	-13.46
652.08	8.54
652.114	-6.46
652.147	6.54
652.18	-1.46
652.213	15.54
652.246	11.54
652.279	-16.46
652.312	-1.46
652.345	-7.46
652.378	7.54
652.411	1.54
652.444	5.54
652.477	5.54
652.51	12.54
652.543	3.54
652.576	2.54
652.609	11.54
652.642	6.54
652.675	12.54
652.709	4.54
652.742	-4.46
652.775	11.54
652.808	22.54
652.841	13.54
652.874	-11.46
652.907	-9.46
652.94	6.54
652.973	-5.46
653.006	-13.46
653.039	4.54
653.072	2.54
653.105	-2.46
653.138	-2.46
653.171	-0.46
653.204	6.54
653.237	-5.46
653.27	-4.46
653.303	17.54
653.336	11.54
653.368	-3.46
653.401	5.54
653.434	-2.46
653.467	7.54
653.5	-8.46
653.533	-4.46
653.566	0.54
653.599	-11.46
653.632	1.54
653.665	-8.46
653.698	-6.46
653.731	11.54
653.764	20.54
653.797	6.54
653.83	14.54
653.863	7.54
653.896	-4.46
653.929	12.54
653.961	1.54
653.994	6.54
654.027	-5.46
654.06	6.54
654.093	7.54
654.126	5.54
654.159	8.54
654.192	6.54
654.225	9.54
654.258	-16.46
654.29	5.54
654.323	-6.46
654.356	-3.46
654.389	-8.46
654.422	-3.46
654.455	1.54
654.488	-0.46
654.521	10.54
654.553	-4.46
654.586	-9.46
654.619	10.54
654.652	7.54
654.685	9.54
654.718	14.54
654.751	6.54
654.783	-4.46
654.816	15.54
654.849	16.54
654.882	-1.46
654.915	-8.46
654.948	-0.46
654.98	6.54
655.013	0.54
655.046	-20.46
655.079	4.54
655.112	8.54
655.144	-3.46
655.177	2.54
655.21	12.54
655.243	21.54
655.276	-4.46
655.308	-0.46
655.341	-1.46
655.374	13.54
655.407	7.54
655.44	-8.46
655.472	2.54
655.505	8.54
655.538	-3.46
655.571	17.54
655.603	3.54
655.636	2.54
655.669	7.54
655.702	-4.46
655.734	-12.46
655.767	-3.46
655.8	0.54
655.833	6.54
655.865	16.54
655.898	11.54
655.931	24.54
655.964	11.54
655.996	27.54
656.029	31.54
656.062	26.54
656.095	42.54
656.127	78.54
656.16	190.54
656.193	620.54
656.225	958.54
656.258	541.54
656.291	218.54
656.324	180.54
656.356	350.54
656.389	778.54
656.422	675.54
656.454	236.54
656.487	88.54
656.52	30.54
656.552	10.54
656.585	24.54
656.618	22.54
656.65	29.54
656.683	19.54
656.716	19.54
656.748	-0.46
656.781	-5.46
656.814	1.54
656.846	3.54
656.879	0.54
656.912	3.54
656.944	2.54
656.977	-9.46
657.01	1.54
657.042	4.54
657.075	15.54
657.108	11.54
657.14	11.54
657.173	17.54
657.205	29.54
657.238	19.54
657.271	-4.46
657.303	-8.46
657.336	10.54
657.369	-14.46
657.401	-3.46
657.434	4.54
657.466	11.54
657.499	-4.46
657.532	-11.46
657.564	10.54
657.597	12.54
657.629	9.54
657.662	8.54
657.694	10.54
657.727	-6.46
657.76	15.54
657.792	-8.46
657.825	0.54
657.857	-2.46
657.89	-3.46
657.922	3.54
657.955	-4.46
657.987	-0.46
658.02	-0.46
658.053	11.54
658.085	7.54
658.118	11.54
658.15	13.54
658.183	15.54
658.215	13.54
658.248	12.54
658.28	6.54
658.313	20.54
658.345	38.54
658.378	16.54
658.41	11.54
658.443	11.54
658.475	-5.46
658.508	1.54
658.54	6.54
658.573	7.54
658.605	5.54
658.638	-14.46
658.67	-5.46
658.703	-2.46
658.735	-8.46
658.768	-10.46
658.8	-17.46
658.833	14.54
658.865	14.54
658.898	-2.46
658.93	-1.46
658.963	12.54
658.995	-8.46
659.028	6.54
659.06	1.54
659.092	0.54
659.125	0.54
659.157	14.54
659.19	3.54
659.222	4.54
659.255	5.54
659.287	-5.46
659.32	-1.46
659.352	-5.46
659.384	10.54
659.417	-2.46
659.449	-4.46
659.482	4.54
659.514	-20.46
659.546	3.54
659.579	4.54
659.611	2.54
659.644	-12.46
659.676	-11.46
659.708	-10.46
659.741	-9.46
659.773	9.54
659.806	3.54
659.838	8.54
659.87	5.54
659.903	-1.46
659.935	-1.46
659.967	20.54
660	7.54
660.032	-17.46
660.065	18.54
660.097	12.54
660.129	18.54
660.162	-1.46
660.194	-0.46
660.226	11.54
660.259	6.54
660.291	-4.46
660.323	-7.46
660.356	3.54
660.388	3.54
660.42	-4.46
660.453	-6.46
660.485	7.54
660.517	1.54
660.55	15.54
660.582	10.54
660.614	18.54
660.647	-19.46
660.679	-13.46
660.711	2.54
660.743	0.54
660.776	-10.46
660.808	-3.46
660.84	-24.46
660.873	-5.46
660.905	-4.46
660.937	-1.46
660.969	8.54
661.002	6.54
661.034	12.54
661.066	5.54
661.099	16.54
661.131	26.54
661.163	10.54
661.195	3.54
661.228	8.54
661.26	-0.46
661.292	2.54
661.324	10.54
661.357	18.54
661.389	-3.46
661.421	-2.46
661.453	-16.46
661.485	-5.46
661.518	7.54
661.55	-10.46
661.582	-15.46
661.614	-8.46
661.647	-14.46
661.679	3.54
661.711	3.54
661.743	-2.46
661.775	5.54
661.808	31.54
661.84	0.54
661.872	-0.46
661.904	5.54
661.936	-16.46
661.969	-12.46
662.001	-13.46
662.033	-4.46
662.065	-3.46
662.097	2.54
662.129	22.54
662.162	-7.46
662.194	-6.46
662.226	4.54
662.258	3.54
662.29	2.54
662.322	1.54
662.355	-5.46
662.387	29.54
662.419	8.54
662.451	11.54
662.483	10.54
662.515	-6.46
662.547	-6.46
662.58	-3.46
662.612	-1.46
662.644	-21.46
662.676	-12.46
662.708	11.54
662.74	17.54
662.772	3.54
662.804	-1.46
662.836	2.54
662.869	11.54
662.901	15.54
662.933	0.54
662.965	17.54
662.997	11.54
663.029	0.54
663.061	-10.46
663.093	1.54
663.125	1.54
663.157	12.54
663.189	1.54
663.221	11.54
663.254	7.54
663.286	4.54
663.318	3.54
663.35	-12.46
663.382	-5.46
663.414	3.54
663.446	8.54
663.478	4.54
663.51	24.54
663.542	-24.46
663.574	-8.46
663.606	7.54
663.638	-16.46
663.67	-3.46
663.702	-13.46
663.734	-12.46
663.766	6.54
663.798	-4.46
663.83	-1.46
663.862	10.54
663.894	0.54
663.926	-2.46
663.958	18.54
663.99	11.54
664.022	-14.46
664.054	0.54
664.086	-3.46
664.118	-15.46
664.15	-11.46
664.182	8.54
664.214	11.54
664.246	9.54
664.278	3.54
664.31	11.54
664.342	2.54
664.374	10.54
664.406	5.54
664.438	3.54
664.47	22.54
664.502	-6.46
664.534	-8.46
664.566	-16.46
664.598	-0.46
664.63	-6.46
664.662	3.54
664.693	10.54
664.725	7.54
664.757	1.54
664.789	-2.46
664.821	4.54
664.853	20.54
664.885	4.54
664.917	-0.46
664.949	16.54
664.981	26.54
665.013	-3.46
665.045	-1.46
665.076	2.54
665.108	-1.46
665.14	8.54
665.172	-8.46
665.204	-20.46
665.236	3.54
665.268	-6.46
665.3	-13.46
665.331	-7.46
665.363	8.54
665.395	-14.46
665.427	-1.46
665.459	14.54
665.491	13.54
665.523	10.54
665.555	4.54
665.586	14.54
665.618	-4.46
665.65	-14.46
665.682	15.54
665.714	2.54
665.746	2.54
665.777	16.54
665.809	15.54
665.841	13.54
665.873	0.54
665.905	11.54
665.937	3.54
665.968	-6.46
666	8.54
666.032	10.54
666.064	2.54
666.096	-5.46
666.127	8.54
666.159	16.54
666.191	6.54
666.223	-1.46
666.255	7.54
666.286	13.54
666.318	-2.46
666.35	5.54
666.382	7.54
666.413	11.54
666.445	-3.46
666.477	1.54
666.509	2.54
666.54	14.54
666.572	8.54
666.604	-17.46
666.636	-1.46
666.667	5.54
666.699	12.54
666.731	-4.46
666.763	9.54
666.794	2.54
666.826	0.54
666.858	0.54
666.89	5.54
666.921	1.54
666.953	-3.46
666.985	21.54
667.017	11.54
667.048	14.54
667.08	-5.46
667.112	9.54
667.143	-10.46
667.175	-6.46
667.207	-8.46
667.238	3.54
667.27	-0.46
667.302	-2.46
667.334	10.54
667.365	16.54
667.397	22.54
667.429	13.54
667.46	14.54
667.492	-10.46
667.524	7.54
667.555	-7.46
667.587	1.54
667.619	-2.46
667.65	0.54
667.682	11.54
667.714	-2.46
667.745	8.54
667.777	-0.46
667.808	-1.46
667.84	12.54
667.872	12.54
667.903	15.54
667.935	2.54
667.967	0.54
667.998	-6.46
668.03	-4.46
668.061	12.54
668.093	0.54
668.125	10.54
668.156	5.54
668.188	11.54
668.22	0.54
668.251	16.54
668.283	18.54
668.314	14.54
668.346	-2.46
668.377	-3.46
668.409	11.54
668.441	17.54
668.472	-0.46
668.504	20.54
668.535	8.54
668.567	16.54
668.599	0.54
668.63	0.54
668.662	-0.46
668.693	11.54
668.725	-3.46
668.756	4.54
668.788	3.54
668.819	5.54
668.851	10.54
668.882	3.54
668.914	0.54
668.946	15.54
668.977	1.54
669.009	-6.46
669.04	-9.46
669.072	8.54
669.103	0.54
669.135	-3.46
669.166	-0.46
669.198	1.54
669.229	6.54
669.261	2.54
669.292	2.54
669.324	-4.46
669.355	12.54
669.387	6.54
669.418	14.54
669.45	9.54
669.481	-0.46
669.513	20.54
669.544	22.54
669.576	2.54
669.607	6.54
669.639	9.54
669.67	-12.46
669.701	9.54
669.733	-17.46
669.764	-3.46
669.796	-1.46
669.827	-14.46
669.859	-12.46
669.89	3.54
669.922	8.54
669.953	15.54
669.985	6.54
670.016	-7.46
670.047	-1.46
670.079	2.54
670.11	2.54
670.142	-4.46
670.173	-0.46
670.204	4.54
670.236	0.54
670.267	-3.46
670.299	7.54
670.33	2.54
670.362	2.54
670.393	-4.46
670.424	13.54
670.456	-6.46
670.487	1.54
670.518	-2.46
670.55	-2.46
670.581	9.54
670.613	3.54
670.644	-0.46
670.675	-10.46
670.707	-15.46
670.738	-5.46
670.769	-7.46
670.801	4.54
670.832	15.54
670.864	-12.46
670.895	11.54
670.926	7.54
670.958	-2.46
670.989	-7.46
671.02	-2.46
671.052	-6.46
671.083	10.54
671.114	2.54
671.146	27.54
671.177	1.54
671.208	2.54
671.24	-9.46
671.271	4.54
671.302	10.54
671.333	-2.46
671.365	-0.46
671.396	-0.46
671.427	9.54
671.459	-4.46
671.49	4.54
671.521	0.54
671.553	5.54
671.584	14.54
671.615	-0.46
671.646	3.54
671.678	13.54
671.709	-9.46
671.74	-16.46
671.771	-13.46
671.803	-21.46
671.834	5.54
671.865	-7.46
671.896	3.54
671.928	11.54
671.959	2.54
671.99	-0.46
672.021	-3.46
672.053	-8.46
672.084	23.54
672.115	-1.46
672.146	-7.46
672.178	-5.46
672.209	0.54
672.24	10.54
672.271	14.54
672.303	-1.46
672.334	14.54
672.365	-1.46
672.396	12.54
672.427	14.54
672.459	5.54
672.49	35.54
672.521	2.54
672.552	17.54
672.583	3.54
672.615	-0.46
672.646	13.54
672.677	20.54
672.708	6.54
672.739	5.54
672.77	11.54
672.802	3.54
672.833	-9.46
672.864	2.54
672.895	-5.46
672.926	-5.46
672.957	-2.46
672.989	3.54
673.02	-2.46
673.051	6.54
673.082	9.54
673.113	-6.46
673.144	0.54
673.175	14.54
673.206	-10.46
673.238	-14.46
673.269	-0.46
673.3	-9.46
673.331	8.54
673.362	-7.46
673.393	9.54
673.424	25.54
673.455	9.54
673.487	9.54
673.518	11.54
673.549	10.54
673.58	1.54
673.611	1.54
673.642	11.54
673.673	-6.46
673.704	5.54
673.735	10.54
673.766	-2.46
673.797	9.54
673.828	10.54
673.86	-8.46
673.891	-7.46
673.922	-3.46
673.953	4.54
673.984	-4.46
674.015	15.54
674.046	6.54
674.077	7.54
674.108	-11.46
674.139	1.54
674.17	1.54
674.201	2.54
674.232	3.54
674.263	-11.46
674.294	1.54
674.325	-4.46
674.356	6.54
674.387	12.54
674.418	14.54
674.449	1.54
674.48	-1.46
674.511	0.54
674.542	10.54
674.573	-12.46
674.604	10.54
674.635	11.54
674.666	7.54
674.697	-8.46
674.728	6.54
674.759	13.54
674.79	-12.46
674.821	-13.46
674.852	-0.46
674.883	-2.46
674.914	4.54
674.945	-2.46
674.976	1.54
675.007	-3.46
675.038	-6.46
675.069	-16.46
675.1	-1.46
675.131	-8.46
675.162	-13.46
675.193	5.54
675.224	-4.46
675.254	10.54
675.285	7.54
675.316	9.54
675.347	4.54
675.378	12.54
675.409	6.54
675.44	9.54
675.471	21.54
675.502	-24.46
675.533	0.54
675.564	14.54
675.595	-8.46
675.625	18.54
675.656	8.54
675.687	6.54
675.718	1.54
675.749	7.54
675.78	10.54
675.811	10.54
675.842	1.54
675.873	-1.46
675.903	-11.46
675.934	17.54
675.965	-0.46
675.996	-3.46
676.027	14.54
676.058	11.54
676.089	-13.46
676.119	14.54
676.15	-9.46
676.181	-1.46
676.212	2.54
676.243	2.54
676.274	2.54
676.304	14.54
676.335	-7.46
676.366	2.54
676.397	-5.46
676.428	-0.46
676.459	5.54
676.489	10.54
676.52	3.54
676.551	-0.46
676.582	-7.46
676.613	-2.46
676.643	-8.46
676.674	9.54
676.705	13.54
676.736	11.54
676.767	28.54
676.797	7.54
676.828	0.54
676.859	7.54
676.89	-8.46
676.92	8.54
676.951	14.54
676.982	20.54
677.013	7.54
677.044	6.54
677.074	-8.46
677.105	-13.46
677.136	-1.46
677.167	-9.46
677.197	1.54
677.228	2.54
677.259	9.54
677.289	17.54
677.32	7.54
677.351	-15.46
677.382	-6.46
677.412	-7.46
677.443	11.54
677.474	7.54
677.505	-6.46
677.535	8.54
677.566	-5.46
677.597	-7.46
677.627	-5.46
677.658	3.54
677.689	13.54
677.72	15.54
677.75	-0.46
677.781	3.54
677.812	-0.46
677.842	14.54
677.873	-3.46
677.904	-0.46
677.934	-13.46
677.965	5.54
677.996	-8.46
678.026	-4.46
678.057	-4.46
678.088	2.54
678.118	16.54
678.149	6.54
678.18	-16.46
678.21	5.54
678.241	-3.46
678.272	-5.46
678.302	7.54
678.333	1.54
678.363	12.54
678.394	2.54
678.425	2.54
678.455	-0.46
678.486	18.54
678.517	17.54
678.547	7.54
678.578	-4.46
678.608	-8.46
678.639	11.54
678.67	5.54
678.7	-5.46
678.731	9.54
678.761	14.54
678.792	18.54
678.823	15.54
678.853	-0.46
678.884	5.54
678.914	3.54
678.945	8.54
678.975	-17.46
679.006	3.54
679.037	8.54
679.067	22.54
679.098	11.54
679.128	-6.46
679.159	-29.46
679.189	2.54
679.22	7.54
679.25	10.54
679.281	1.54
679.312	-8.46
679.342	-9.46
679.373	27.54
679.403	8.54
679.434	17.54
679.464	18.54
679.495	8.54
679.525	15.54
679.556	11.54
679.586	9.54
679.617	17.54
679.647	22.54
679.678	10.54
679.708	0.54
679.739	1.54
679.769	-1.46
679.8	-9.46
679.83	-4.46
679.861	11.54
679.891	14.54
679.922	12.54
679.952	9.54
679.983	9.54
680.013	5.54
680.044	17.54
680.074	14.54
680.105	-0.46
680.135	-2.46
680.165	5.54
680.196	-7.46
680.226	-2.46
680.257	3.54
680.287	3.54
680.318	9.54
680.348	-15.46
680.379	16.54
680.409	25.54
680.439	7.54
680.47	9.54
680.5	4.54
680.531	-1.46
680.561	15.54
680.592	9.54
680.622	10.54
680.652	8.54
680.683	18.54
680.713	3.54
680.744	8.54
680.774	2.54
680.804	22.54
680.835	9.54
680.865	-13.46
680.896	21.54
680.926	14.54
680.956	0.54
680.987	7.54
681.017	-3.46
681.047	3.54
681.078	-5.46
681.108	2.54
681.139	0.54
681.169	-1.46
681.199	2.54
681.23	13.54
681.26	3.54
681.29	6.54
681.321	-5.46
681.351	2.54
681.381	-15.46
681.412	8.54
681.442	5.54
681.472	7.54
681.503	-0.46
681.533	9.54
681.563	-5.46
681.594	6.54
681.624	9.54
681.654	4.54
681.685	4.54
681.715	1.54
681.745	-3.46
681.775	7.54
681.806	23.54
681.836	7.54
681.866	-6.46
681.897	12.54
681.927	-8.46
681.957	-24.46
681.987	2.54
682.018	1.54
682.048	-6.46
682.078	6.54
682.109	28.54
682.139	14.54
682.169	2.54
682.199	10.54
682.23	2.54
682.26	6.54
682.29	1.54
682.32	1.54
682.351	-4.46
682.381	-2.46
682.411	0.54
682.441	-5.46
682.472	4.54
682.502	-10.46
682.532	-13.46
682.562	6.54
682.592	5.54
682.623	2.54
682.653	-0.46
682.683	-2.46
682.713	-2.46
682.743	8.54
682.774	13.54
682.804	3.54
682.834	11.54
682.864	0.54
682.894	9.54
682.925	0.54
682.955	3.54
682.985	-4.46
683.015	6.54
683.045	9.54
683.076	5.54
683.106	6.54
683.136	-4.46
683.166	-4.46
683.196	10.54
683.226	15.54
683.257	-5.46
683.287	3.54
683.317	6.54
683.347	-3.46
683.377	8.54
683.407	1.54
683.437	3.54
683.468	12.54
683.498	-2.46
683.528	2.54
683.558	-18.46
683.588	5.54
683.618	-0.46
683.648	-1.46
683.678	-5.46
683.708	10.54
683.739	-3.46
683.769	6.54
683.799	-2.46
683.829	6.54
683.859	-0.46
683.889	14.54
683.919	14.54
683.949	6.54
683.979	-1.46
684.009	0.54
684.039	5.54
684.07	3.54
684.1	5.54
684.13	-7.46
684.16	4.54
684.19	1.54
684.22	0.54
684.25	14.54
684.28	10.54
684.31	3.54
684.34	10.54
684.37	8.54
684.4	-11.46
684.43	7.54
684.46	-18.46
684.49	8.54
684.52	16.54
684.55	14.54
684.58	20.54
684.61	16.54
684.64	9.54
684.67	7.54
684.7	17.54
684.73	24.54
684.76	-7.46
684.79	17.54
684.82	12.54
684.85	-14.46
684.88	11.54
684.91	0.54
684.94	6.54
684.97	5.54
685	9.54
685.03	-6.46
685.06	-5.46
685.09	0.54
685.12	14.54
685.15	-9.46
685.18	-12.46
685.21	14.54
685.24	20.54
685.27	24.54
685.3	26.54
685.33	13.54
685.36	14.54
685.39	7.54
685.42	1.54
685.45	11.54
685.48	17.54
685.51	3.54
685.54	12.54
685.569	14.54
685.599	4.54
685.629	13.54
685.659	-1.46
685.689	8.54
685.719	0.54
685.749	-8.46
685.779	0.54
685.809	8.54
685.839	11.54
685.869	6.54
685.898	7.54
685.928	5.54
685.958	-7.46
685.988	9.54
686.018	5.54
686.048	18.54
686.078	19.54
686.108	15.54
686.137	7.54
686.167	13.54
686.197	0.54
686.227	-6.46
686.257	14.54
686.287	9.54
686.317	4.54
686.346	4.54
686.376	-4.46
686.406	-10.46
686.436	10.54
686.466	6.54
686.496	2.54
686.525	5.54
686.555	-1.46
686.585	16.54
686.615	25.54
686.645	11.54
686.675	3.54
686.704	12.54
686.734	7.54
686.764	11.54
686.794	0.54
686.824	2.54
686.853	16.54
686.883	25.54
686.913	5.54
686.943	1.54
686.973	-0.46
687.002	10.54
687.032	20.54
687.062	0.54
687.092	15.54
687.121	-7.46
687.151	14.54
687.181	3.54
687.211	11.54
687.24	-0.46
687.27	10.54
687.3	15.54
687.33	16.54
687.359	-20.46
687.389	10.54
687.419	14.54
687.449	1.54
687.478	1.54
687.508	9.54
687.538	22.54
687.568	13.54
687.597	2.54
687.627	9.54
687.657	4.54
687.686	14.54
687.716	21.54
687.746	-10.46
687.776	-5.46
687.805	9.54
687.835	-6.46
687.865	14.54
687.894	6.54
687.924	-0.46
687.954	9.54
687.983	5.54
688.013	10.54
688.043	10.54
688.072	7.54
688.102	12.54
688.132	5.54
688.161	3.54
688.191	10.54
688.221	20.54
688.25	-4.46
688.28	-0.46
688.31	7.54
688.339	12.54
688.369	-13.46
688.399	-8.46
688.428	-2.46
688.458	6.54
688.488	-3.46
688.517	6.54
688.547	0.54
688.576	27.54
688.606	22.54
688.636	-10.46
688.665	5.54
688.695	14.54
688.725	12.54
688.754	2.54
688.784	7.54
688.813	15.54
688.843	8.54
688.873	6.54
688.902	0.54
688.932	0.54
688.961	6.54
688.991	13.54
689.02	17.54
689.05	-6.46
689.08	21.54
689.109	13.54
689.139	-0.46
689.168	16.54
689.198	6.54
689.227	-2.46
689.257	17.54
689.287	25.54
689.316	1.54
689.346	-5.46
689.375	-4.46
689.405	1.54
689.434	9.54
689.464	6.54
689.493	-2.46
689.523	-10.46
689.552	0.54
689.582	-9.46
689.611	4.54
689.641	11.54
689.67	6.54
689.7	2.54
689.73	11.54
689.759	19.54
689.789	7.54
689.818	12.54
689.848	12.54
689.877	11.54
689.906	-10.46
689.936	-16.46
689.965	7.54
689.995	5.54
690.024	5.54
690.054	-3.46
690.083	0.54
690.113	-4.46
690.142	5.54
690.172	-7.46
690.201	-9.46
690.231	-10.46
690.26	-4.46
690.29	3.54
690.319	15.54
690.348	12.54
690.378	10.54
690.407	1.54
690.437	5.54
690.466	-15.46
690.496	1.54
690.525	15.54
690.555	0.54
690.584	-5.46
690.613	-7.46
690.643	19.54
690.672	11.54
690.702	16.54
690.731	5.54
690.76	6.54
690.79	-0.46
690.819	5.54
690.849	3.54
690.878	8.54
690.907	9.54
690.937	26.54
690.966	26.54
690.996	0.54
691.025	10.54
691.054	6.54
691.084	-3.46
691.113	9.54
691.142	15.54
691.172	18.54
691.201	20.54
691.23	5.54
691.26	30.54
691.289	9.54
691.319	3.54
691.348	-1.46
691.377	14.54
691.407	12.54
691.436	10.54
691.465	-5.46
691.495	9.54
691.524	-3.46
691.553	9.54
691.583	-2.46
691.612	20.54
691.641	14.54
691.67	-4.46
691.7	2.54
691.729	-6.46
691.758	6.54
691.788	5.54
691.817	-5.46
691.846	-5.46
691.876	-0.46
691.905	9.54
691.934	-7.46
691.963	13.54
691.993	2.54
692.022	-1.46
692.051	-4.46
692.081	7.54
692.11	12.54
692.139	8.54
692.168	8.54
692.198	21.54
692.227	5.54
692.256	10.54
692.285	9.54
692.315	-3.46
692.344	29.54
692.373	20.54
692.402	-6.46
692.432	-9.46
692.461	0.54
692.49	0.54
692.519	6.54
692.548	19.54
692.578	12.54
692.607	1.54
692.636	0.54
692.665	4.54
692.694	0.54
692.724	10.54
692.753	-3.46
692.782	2.54
692.811	-22.46
692.84	-4.46
692.87	16.54
692.899	4.54
692.928	14.54
692.957	-2.46
692.986	13.54
693.016	16.54
693.045	0.54
693.074	-0.46
693.103	-1.46
693.132	10.54
693.161	9.54
693.191	-0.46
693.22	-1.46
693.249	11.54
693.278	3.54
693.307	23.54
693.336	-4.46
693.365	-13.46
693.395	3.54
693.424	11.54
693.453	0.54
693.482	-15.46
693.511	11.54
693.54	-5.46
693.569	8.54
693.598	-1.46
693.628	12.54
693.657	5.54
693.686	13.54
693.715	35.54
693.744	10.54
693.773	4.54
693.802	1.54
693.831	-18.46
693.86	6.54
693.889	-19.46
693.919	7.54
693.948	10.54
693.977	1.54
694.006	-9.46
694.035	0.54
694.064	-3.46
694.093	-4.46
694.122	7.54
694.151	20.54
694.18	27.54
694.209	23.54
694.238	5.54
694.267	21.54
694.296	12.54
694.325	23.54
694.354	0.54
694.383	16.54
694.412	-0.46
694.441	13.54
694.471	-3.46
694.5	-7.46
694.529	6.54
694.558	16.54
694.587	6.54
694.616	-1.46
694.645	3.54
694.674	10.54
694.703	4.54
694.732	1.54
694.761	9.54
694.79	6.54
694.819	-12.46
694.848	0.54
694.877	18.54
694.906	30.54
694.935	8.54
694.963	24.54
694.992	4.54
695.021	-1.46
695.05	17.54
695.079	1.54
695.108	7.54
695.137	21.54
695.166	-11.46
695.195	-10.46
695.224	16.54
695.253	22.54
695.282	11.54
695.311	4.54
695.34	2.54
695.369	21.54
695.398	24.54
695.427	25.54
695.456	2.54
695.485	31.54
695.513	6.54
695.542	-7.46
695.571	1.54
695.6	8.54
695.629	20.54
695.658	19.54
695.687	12.54
695.716	14.54
695.745	19.54
695.774	-7.46
695.802	-0.46
695.831	-2.46
695.86	10.54
695.889	7.54
695.918	17.54
695.947	-4.46
695.976	-1.46
696.005	14.54
696.033	20.54
696.062	18.54
696.091	12.54
696.12	7.54
696.149	10.54
696.178	3.54
696.207	11.54
696.235	-6.46
696.264	3.54
696.293	3.54
696.322	-2.46
696.351	11.54
696.38	-3.46
696.408	5.54
696.437	1.54
696.466	7.54
696.495	17.54
696.524	4.54
696.553	9.54
696.581	16.54
696.61	8.54
696.639	8.54
696.668	-6.46
696.697	-0.46
696.725	10.54
696.754	21.54
696.783	13.54
696.812	-5.46
696.84	16.54
696.869	5.54
696.898	4.54
696.927	9.54
696.956	11.54
696.984	-4.46
697.013	7.54
697.042	16.54
697.071	18.54
697.099	-6.46
697.128	-9.46
697.157	5.54
697.186	-0.46
697.214	6.54
697.243	1.54
697.272	6.54
697.301	19.54
697.329	4.54
697.358	13.54
697.387	18.54
697.415	22.54
697.444	13.54
697.473	6.54
697.502	-7.46
697.53	4.54
697.559	8.54
697.588	19.54
697.616	6.54
697.645	6.54
697.674	19.54
697.703	-5.46
697.731	5.54
697.76	3.54
697.789	4.54
697.817	6.54
697.846	18.54
697.875	0.54
697.903	11.54
697.932	8.54
697.961	2.54
697.989	-6.46
698.018	23.54
698.047	17.54
698.075	3.54
698.104	-14.46
698.133	0.54
698.161	4.54
698.19	3.54
698.218	-10.46
698.247	9.54
698.276	4.54
698.304	21.54
698.333	18.54
698.362	13.54
698.39	0.54
698.419	-1.46
698.447	-8.46
698.476	-8.46
698.505	8.54
698.533	21.54
698.562	12.54
698.591	0.54
698.619	-0.46
698.648	3.54
698.676	-4.46
698.705	-14.46
698.733	-12.46
698.762	7.54
698.791	17.54
698.819	-8.46
698.848	2.54
698.876	17.54
698.905	18.54
698.933	7.54
698.962	10.54
698.991	-2.46
699.019	19.54
699.048	8.54
699.076	-1.46
699.105	-8.46
699.133	1.54
699.162	19.54
699.19	23.54
699.219	8.54
699.248	-1.46
699.276	14.54
699.305	11.54
699.333	3.54
699.362	-2.46
699.39	15.54
699.419	1.54
699.447	19.54
699.476	13.54
699.504	2.54
699.533	10.54
699.561	-4.46
699.59	13.54
699.618	2.54
699.647	11.54
699.675	7.54
699.704	13.54
699.732	-10.46
699.761	18.54
699.789	-5.46
699.818	13.54
699.846	6.54
699.874	1.54
699.903	2.54
699.931	5.54
699.96	18.54
699.988	-0.46
700.017	-8.46
700.045	7.54
700.074	2.54
700.102	-4.46
700.13	2.54
700.159	22.54
700.187	11.54
700.216	-0.46
700.244	1.54
700.273	-4.46
700.301	9.54
700.329	17.54
700.358	5.54
700.386	3.54
700.415	3.54
700.443	9.54
700.472	12.54
700.5	9.54
700.528	9.54
700.557	6.54
700.585	2.54
700.614	4.54
700.642	19.54
700.67	29.54
700.699	20.54
700.727	16.54
700.755	15.54
700.784	6.54
700.812	-0.46
700.841	21.54
700.869	7.54
700.897	-14.46
700.926	3.54
700.954	6.54
700.982	3.54
701.011	1.54
701.039	21.54
701.067	-2.46
701.096	-5.46
701.124	-11.46
701.152	5.54
701.181	3.54
701.209	4.54
701.237	-0.46
701.266	-16.46
701.294	5.54
701.322	5.54
701.351	7.54
701.379	1.54
701.407	-3.46
701.435	4.54
701.464	10.54
701.492	12.54
701.52	6.54
701.549	6.54
701.577	-4.46
701.605	9.54
701.634	11.54
701.662	14.54
701.69	-13.46
701.718	-27.46
701.747	-1.46
701.775	2.54
701.803	-3.46
701.831	6.54
701.86	2.54
701.888	3.54
701.916	6.54
701.944	14.54
701.973	-5.46
702.001	-4.46
702.029	-6.46
702.057	5.54
702.086	-7.46
702.114	-5.46
702.142	0.54
702.17	-3.46
702.199	-2.46
702.227	-10.46
702.255	1.54
702.283	1.54
702.311	10.54
702.34	-2.46
702.368	1.54
702.396	14.54
702.424	19.54
702.452	-0.46
702.481	6.54
702.509	-3.46
702.537	5.54
702.565	18.54
702.593	-10.46
702.621	4.54
702.65	12.54
702.678	9.54
702.706	17.54
702.734	5.54
702.762	7.54
702.79	-4.46
702.819	16.54
702.847	-0.46
702.875	-5.46
702.903	3.54
702.931	6.54
702.959	11.54
702.988	15.54
703.016	0.54
703.044	-5.46
703.072	-7.46
703.1	2.54
703.128	10.54
703.156	2.54
703.184	-1.46
703.212	9.54
703.241	1.54
703.269	12.54
703.297	-8.46
703.325	7.54
703.353	-6.46
703.381	-4.46
703.409	6.54
703.437	-10.46
703.465	-5.46
703.493	-3.46
703.522	18.54
703.55	23.54
703.578	11.54
703.606	-0.46
703.634	7.54
703.662	7.54
703.69	-2.46
703.718	-3.46
703.746	18.54
703.774	6.54
703.802	17.54
703.83	-8.46
703.858	7.54
703.886	6.54
703.914	9.54
703.942	4.54
703.97	-10.46
703.998	-1.46
704.027	13.54
704.055	-4.46
704.083	6.54
704.111	1.54
704.139	-2.46
704.167	-3.46
704.195	5.54
704.223	-10.46
704.251	2.54
704.279	18.54
704.307	-5.46
704.335	-13.46
704.363	12.54
704.391	2.54
704.419	5.54
704.447	5.54
704.475	6.54
704.503	-6.46
704.531	12.54
704.558	14.54
704.586	2.54
704.614	-6.46
704.642	2.54
704.67	-5.46
704.698	8.54
704.726	15.54
704.754	4.54
704.782	-0.46
704.81	1.54
704.838	23.54
704.866	6.54
704.894	-9.46
704.922	3.54
704.95	11.54
704.978	19.54
705.006	8.54
705.034	10.54
705.061	-2.46
705.089	1.54
705.117	-16.46
705.145	-6.46
705.173	-5.46
705.201	2.54
705.229	9.54
705.257	10.54
705.285	10.54
705.313	16.54
705.34	7.54
705.368	10.54
705.396	15.54
705.424	5.54
705.452	-1.46
705.48	-2.46
705.508	5.54
705.536	10.54
705.563	-9.46
705.591	4.54
705.619	-0.46
705.647	-10.46
705.675	9.54
705.703	17.54
705.731	14.54
705.758	15.54
705.786	-2.46
705.814	14.54
705.842	6.54
705.87	14.54
705.898	25.54
705.925	6.54
705.953	10.54
705.981	8.54
706.009	-0.46
706.037	11.54
706.065	4.54
706.092	-12.46
706.12	7.54
706.148	2.54
706.176	6.54
706.204	6.54
706.231	7.54
706.259	0.54
706.287	3.54
706.315	10.54
706.342	2.54
706.37	26.54
706.398	17.54
706.426	-10.46
706.454	9.54
706.481	-0.46
706.509	8.54
706.537	-6.46
706.565	-3.46
706.592	10.54
706.62	1.54
706.648	18.54
706.676	5.54
706.703	21.54
706.731	-12.46
706.759	-2.46
706.787	11.54
706.814	6.54
706.842	4.54
706.87	0.54
706.897	23.54
706.925	2.54
706.953	13.54
706.981	12.54
707.008	7.54
707.036	-1.46
707.064	11.54
707.091	-6.46
707.119	5.54
707.147	2.54
707.174	6.54
707.202	18.54
707.23	7.54
707.258	15.54
707.285	-1.46
707.313	-4.46
707.341	-5.46
707.368	19.54
707.396	17.54
707.424	28.54
707.451	-9.46
707.479	9.54
707.507	18.54
707.534	19.54
707.562	7.54
707.59	4.54
707.617	-3.46
707.645	4.54
707.672	-5.46
707.7	-0.46
707.728	19.54
707.755	8.54
707.783	1.54
707.811	-2.46
707.838	-0.46
707.866	-6.46
707.893	-4.46
707.921	-4.46
707.949	-1.46
707.976	5.54
708.004	7.54
708.031	17.54
708.059	0.54
708.087	11.54
708.114	-0.46
708.142	-4.46
708.169	-1.46
708.197	-4.46
708.225	-8.46
708.252	-14.46
708.28	1.54
708.307	-1.46
708.335	8.54
708.362	1.54
708.39	-22.46
708.418	-12.46
708.445	-15.46
708.473	-12.46
708.5	-6.46
708.528	0.54
708.555	-5.46
708.583	9.54
708.61	-4.46
708.638	6.54
708.665	2.54
708.693	-3.46
708.72	8.54
708.748	3.54
708.776	2.54
708.803	8.54
708.831	2.54
708.858	4.54
708.886	17.54
708.913	3.54
708.941	1.54
708.968	14.54
708.996	-3.46
709.023	15.54
709.051	-3.46
709.078	-17.46
709.105	17.54
709.133	0.54
709.16	-8.46
709.188	5.54
709.215	7.54
709.243	6.54
709.27	-2.46
709.298	-5.46
709.325	-7.46
709.353	-8.46
709.38	3.54
709.408	5.54
709.435	-3.46
709.462	2.54
709.49	-4.46
709.517	-12.46
709.545	-4.46
709.572	5.54
709.6	2.54
709.627	10.54
709.655	-3.46
709.682	0.54
709.709	2.54
709.737	-1.46
709.764	-1.46
709.792	-2.46
709.819	-0.46
709.846	-9.46
709.874	4.54
709.901	28.54
709.929	24.54
709.956	13.54
709.983	-11.46
710.011	5.54
710.038	15.54
710.066	10.54
710.093	11.54
710.12	7.54
710.148	3.54
710.175	-2.46
710.202	4.54
710.23	-3.46
710.257	3.54
710.284	15.54
710.312	14.54
710.339	9.54
710.366	16.54
710.394	-16.46
710.421	-1.46
710.448	11.54
710.476	-5.46
710.503	-1.46
710.53	22.54
710.558	15.54
710.585	18.54
710.612	-0.46
710.64	-0.46
710.667	1.54
710.694	-14.46
710.722	6.54
710.749	10.54
710.776	11.54
710.804	22.54
710.831	3.54
710.858	5.54
710.885	-8.46
710.913	1.54
710.94	13.54
710.967	1.54
710.995	13.54
711.022	11.54
711.049	-0.46
711.076	-10.46
711.104	11.54
711.131	-4.46
711.158	0.54
711.185	10.54
711.213	-8.46
711.24	0.54
711.267	9.54
711.294	6.54
711.322	7.54
711.349	-1.46
711.376	-12.46
711.403	7.54
711.431	-7.46
711.458	2.54
711.485	5.54
711.512	7.54
711.54	12.54
711.567	11.54
711.594	9.54
711.621	15.54
711.648	8.54
711.676	4.54
711.703	18.54
711.73	-10.46
711.757	14.54
711.784	-8.46
711.812	-3.46
711.839	6.54
711.866	-5.46
711.893	-2.46
711.92	10.54
711.947	9.54
711.975	20.54
712.002	-1.46
712.029	27.54
712.056	10.54
712.083	9.54
712.11	-3.46
712.138	12.54
712.165	15.54
712.192	-1.46
712.219	1.54
712.246	-3.46
712.273	-14.46
712.3	0.54
712.328	-0.46
712.355	11.54
712.382	-9.46
712.409	25.54
712.436	-2.46
712.463	4.54
712.49	-4.46
712.517	7.54
712.544	-4.46
712.572	11.54
712.599	-9.46
712.626	-3.46
712.653	-9.46
712.68	-3.46
712.707	4.54
712.734	5.54
712.761	6.54
712.788	18.54
712.815	7.54
712.842	-4.46
712.87	-2.46
712.897	-1.46
712.924	-10.46
712.951	6.54
712.978	30.54
713.005	19.54
713.032	1.54
713.059	0.54
713.086	11.54
713.113	1.54
713.14	-1.46
713.167	7.54
713.194	9.54
713.221	-0.46
713.248	1.54
713.275	-10.46
713.302	-13.46
713.329	15.54
713.356	19.54
713.383	9.54
713.41	3.54
713.437	2.54
713.464	1.54
713.491	-2.46
713.518	1.54
713.545	9.54
713.572	16.54
713.599	11.54
713.626	10.54
713.653	11.54
713.68	-8.46
713.707	5.54
713.734	1.54
713.761	-0.46
713.788	-3.46
713.815	16.54
713.842	-3.46
713.869	2.54
713.896	-7.46
713.923	-6.46
713.95	9.54
713.977	-7.46
714.004	13.54
714.031	-3.46
714.058	-12.46
714.085	-10.46
714.112	8.54
714.139	11.54
714.165	0.54
714.192	-0.46
714.219	6.54
714.246	19.54
714.273	6.54
714.3	6.54
714.327	2.54
714.354	5.54
714.381	-4.46
714.408	-11.46
714.435	3.54
714.461	10.54
714.488	14.54
714.515	0.54
714.542	2.54
714.569	-6.46
714.596	-9.46
714.623	-3.46
714.65	-1.46
714.677	10.54
714.703	6.54
714.73	11.54
714.757	11.54
714.784	16.54
714.811	-13.46
714.838	-0.46
714.865	5.54
714.891	10.54
714.918	1.54
714.945	-0.46
714.972	11.54
714.999	17.54
715.026	-1.46
715.052	14.54
715.079	22.54
715.106	4.54
715.133	6.54
715.16	-6.46
715.187	14.54
715.213	9.54
715.24	-0.46
715.267	-1.46
715.294	-15.46
715.321	1.54
715.347	2.54
715.374	-5.46
715.401	2.54
715.428	-4.46
715.455	19.54
715.481	-7.46
715.508	-3.46
715.535	5.54
715.562	14.54
715.588	17.54
715.615	-9.46
715.642	-1.46
715.669	-1.46
715.695	-2.46
715.722	1.54
715.749	10.54
715.776	14.54
715.802	-0.46
715.829	-2.46
715.856	-11.46
715.883	1.54
715.909	-12.46
715.936	14.54
715.963	14.54
715.99	0.54
716.016	12.54
716.043	5.54
716.07	-13.46
716.096	-9.46
716.123	-15.46
716.15	2.54
716.177	2.54
716.203	15.54
716.23	10.54
716.257	5.54
716.283	9.54
716.31	-3.46
716.337	-3.46
716.363	-11.46
716.39	7.54
716.417	13.54
716.443	10.54
716.47	13.54
716.497	22.54
716.523	13.54
716.55	8.54
716.577	-7.46
716.603	11.54
716.63	15.54
716.657	16.54
716.683	-1.46
716.71	-4.46
716.737	-6.46
716.763	-3.46
716.79	9.54
716.817	20.54
716.843	14.54
716.87	-5.46
716.897	0.54
716.923	17.54
716.95	-11.46
716.976	-7.46
717.003	-10.46
717.03	17.54
717.056	10.54
717.083	5.54
717.109	8.54
717.136	13.54
717.163	7.54
717.189	6.54
717.216	2.54
717.242	2.54
717.269	2.54
717.296	9.54
717.322	8.54
717.349	21.54
717.375	9.54
717.402	-9.46
717.428	0.54
717.455	-4.46
717.481	26.54
717.508	8.54
717.535	17.54
717.561	15.54
717.588	-7.46
717.614	7.54
717.641	7.54
717.667	5.54
717.694	0.54
717.72	18.54
717.747	10.54
717.773	0.54
717.8	11.54
717.826	9.54
717.853	5.54
717.88	18.54
717.906	14.54
717.933	0.54
717.959	5.54
717.986	-1.46
718.012	5.54
718.039	5.54
718.065	25.54
718.092	20.54
718.118	5.54
718.144	6.54
718.171	25.54
718.197	1.54
718.224	1.54
718.25	11.54
718.277	0.54
718.303	9.54
718.33	1.54
718.356	-3.46
718.383	-4.46
718.409	-0.46
718.436	13.54
718.462	2.54
718.489	0.54
718.515	24.54
718.541	10.54
718.568	-2.46
718.594	0.54
718.621	10.54
718.647	-7.46
718.674	23.54
718.7	17.54
718.726	8.54
718.753	6.54
718.779	9.54
718.806	-6.46
718.832	3.54
718.858	11.54
718.885	8.54
718.911	0.54
718.938	9.54
718.964	-10.46
718.99	14.54
719.017	5.54
719.043	10.54
719.07	28.54
719.096	1.54
719.122	15.54
719.149	0.54
719.175	6.54
719.201	23.54
719.228	10.54
719.254	0.54
719.281	-13.46
719.307	-2.46
719.333	-2.46
719.36	10.54
719.386	-7.46
719.412	5.54
719.439	-10.46
719.465	-3.46
719.491	-10.46
719.518	13.54
719.544	10.54
719.57	14.54
719.597	2.54
719.623	-5.46
719.649	17.54
719.675	2.54
719.702	9.54
719.728	13.54
719.754	-1.46
719.781	-5.46
719.807	9.54
719.833	-8.46
719.86	14.54
719.886	12.54
719.912	11.54
719.938	2.54
719.965	7.54
719.991	32.54
720.017	11.54
720.044	-8.46
720.07	0.54
720.096	5.54
720.122	9.54
720.149	15.54
720.175	6.54
720.201	3.54
720.227	-5.46
720.254	10.54
720.28	8.54
720.306	-7.46
720.332	-8.46
720.359	7.54
720.385	-4.46
720.411	8.54
720.437	5.54
720.463	9.54
720.49	8.54
720.516	-5.46
720.542	-3.46
720.568	5.54
720.595	8.54
720.621	11.54
720.647	9.54
720.673	6.54
720.699	4.54
720.725	-0.46
720.752	4.54
720.778	5.54
720.804	6.54
720.83	8.54
720.856	1.54
720.883	-2.46
720.909	10.54
720.935	14.54
720.961	13.54
720.987	0.54
721.013	-1.46
721.04	1.54
721.066	-1.46
721.092	18.54
721.118	13.54
721.144	9.54
721.17	2.54
721.196	-7.46
721.223	-8.46
721.249	7.54
721.275	1.54
721.301	-3.46
721.327	4.54
721.353	11.54
721.379	-9.46
721.405	12.54
721.432	5.54
721.458	-1.46
721.484	14.54
721.51	-17.46
721.536	4.54
721.562	3.54
721.588	10.54
721.614	-3.46
721.64	6.54
721.666	17.54
721.693	11.54
721.719	1.54
721.745	5.54
721.771	7.54
721.797	12.54
721.823	8.54
721.849	11.54
721.875	12.54
721.901	7.54
721.927	5.54
721.953	-9.46
721.979	-4.46
722.005	19.54
722.031	6.54
722.057	-10.46
722.083	2.54
722.109	8.54
722.135	8.54
722.161	7.54
722.187	-3.46
722.214	-5.46
722.24	13.54
722.266	-9.46
722.292	1.54
722.318	30.54
722.344	15.54
722.37	13.54
722.396	7.54
722.422	15.54
722.448	15.54
722.474	-4.46
722.5	15.54
722.526	1.54
722.552	12.54
722.578	2.54
722.603	17.54
722.629	-8.46
722.655	-4.46
722.681	-0.46
722.707	-2.46
722.733	-3.46
722.759	-5.46
722.785	-2.46
722.811	-1.46
722.837	16.54
722.863	-2.46
722.889	6.54
722.915	-1.46
722.941	-8.46
722.967	-3.46
722.993	1.54
723.019	14.54
723.045	9.54
723.071	-9.46
723.097	7.54
723.122	-5.46
723.148	-2.46
723.174	8.54
723.2	16.54
723.226	-1.46
723.252	14.54
723.278	-5.46
723.304	3.54
723.33	1.54
723.356	-12.46
723.381	-12.46
723.407	-0.46
723.433	3.54
723.459	0.54
723.485	6.54
723.511	14.54
723.537	-0.46
723.563	5.54
723.588	3.54
723.614	6.54
723.64	6.54
723.666	10.54
723.692	24.54
723.718	-1.46
723.744	2.54
723.769	-12.46
723.795	8.54
723.821	-6.46
723.847	-6.46
723.873	1.54
723.899	1.54
723.924	-1.46
723.95	11.54
723.976	-7.46
724.002	3.54
724.028	23.54
724.053	6.54
724.079	-7.46
724.105	18.54
724.131	17.54
724.157	1.54
724.182	9.54
724.208	8.54
724.234	-10.46
724.26	-10.46
724.286	-2.46
724.311	-3.46
724.337	-8.46
724.363	0.54
724.389	14.54
724.415	-3.46
724.44	13.54
724.466	5.54
724.492	11.54
724.518	13.54
724.543	17.54
724.569	27.54
724.595	8.54
724.621	-4.46
724.646	-0.46
724.672	-4.46
724.698	11.54
724.723	1.54
724.749	3.54
724.775	8.54
724.801	13.54
724.826	-12.46
724.852	-0.46
724.878	3.54
724.904	-8.46
724.929	3.54
724.955	-4.46
724.981	3.54
725.006	9.54
725.032	2.54
725.058	9.54
725.083	0.54
725.109	5.54
725.135	10.54
725.161	12.54
725.186	8.54
725.212	4.54
725.238	5.54
725.263	5.54
725.289	-19.46
725.315	0.54
725.34	4.54
725.366	13.54
725.392	3.54
725.417	9.54
725.443	2.54
725.468	10.54
725.494	7.54
725.52	14.54
725.545	-1.46
725.571	-6.46
725.597	8.54
725.622	-0.46
725.648	-0.46
725.674	21.54
725.699	-7.46
725.725	-2.46
725.75	24.54
725.776	5.54
725.802	-7.46
725.827	17.54
725.853	-7.46
725.878	9.54
725.904	1.54
725.93	10.54
725.955	-15.46
725.981	-1.46
726.006	-1.46
726.032	10.54
726.057	-3.46
726.083	-1.46
726.109	-8.46
726.134	9.54
726.16	-7.46
726.185	4.54
726.211	-16.46
726.236	14.54
726.262	13.54
726.288	19.54
726.313	26.54
726.339	15.54
726.364	1.54
726.39	22.54
726.415	1.54
726.441	13.54
726.466	3.54
726.492	-5.46
726.517	17.54
726.543	13.54
726.568	-15.46
726.594	6.54
726.619	8.54
726.645	16.54
726.67	17.54
726.696	10.54
726.721	2.54
726.747	5.54
726.772	3.54
726.798	11.54
726.823	13.54
726.849	7.54
726.874	19.54
726.9	27.54
726.925	12.54
726.951	-5.46
726.976	23.54
727.002	2.54
727.027	19.54
727.053	13.54
727.078	4.54
727.104	-2.46
727.129	-15.46
727.155	1.54
727.18	24.54
727.205	7.54
727.231	-6.46
727.256	1.54
727.282	7.54
727.307	9.54
727.333	7.54
727.358	2.54
727.383	-7.46
727.409	-4.46
727.434	1.54
727.46	-2.46
727.485	-8.46
727.511	6.54
727.536	-10.46
727.561	-3.46
727.587	-0.46
727.612	-8.46
727.637	3.54
727.663	-0.46
727.688	21.54
727.714	-3.46
727.739	-2.46
727.764	-1.46
727.79	14.54
727.815	6.54
727.841	10.54
727.866	6.54
727.891	3.54
727.917	-1.46
727.942	0.54
727.967	1.54
727.993	-13.46
728.018	-7.46
728.043	-2.46
728.069	24.54
728.094	27.54
728.119	6.54
728.145	19.54
728.17	10.54
728.195	10.54
728.221	10.54
728.246	-5.46
728.271	-12.46
728.297	-6.46
728.322	0.54
728.347	17.54
728.373	0.54
728.398	9.54
728.423	-1.46
728.448	11.54
728.474	10.54
728.499	9.54
728.524	6.54
728.55	9.54
728.575	2.54
728.6	2.54
728.625	5.54
728.651	7.54
728.676	-7.46
728.701	2.54
728.727	6.54
728.752	2.54
728.777	0.54
728.802	1.54
728.828	0.54
728.853	4.54
728.878	0.54
728.903	-1.46
728.929	-1.46
728.954	14.54
728.979	17.54
729.004	-1.46
729.03	-4.46
729.055	16.54
729.08	16.54
729.105	6.54
729.13	25.54
729.156	12.54
729.181	-0.46
729.206	-14.46
729.231	-0.46
729.256	4.54
729.282	11.54
729.307	-7.46
729.332	6.54
729.357	-8.46
729.382	2.54
729.408	1.54
729.433	0.54
729.458	17.54
729.483	5.54
729.508	20.54
729.533	5.54
729.559	14.54
729.584	-9.46
729.609	12.54
729.634	5.54
729.659	-0.46
729.684	-10.46
729.71	32.54
729.735	16.54
729.76	2.54
729.785	-0.46
729.81	6.54
729.835	-8.46
729.86	1.54
729.886	13.54
729.911	8.54
729.936	-2.46
729.961	-16.46
729.986	-9.46
730.011	2.54
730.036	14.54
730.061	-8.46
730.086	-5.46
730.112	8.54
730.137	11.54
730.162	1.54
730.187	-5.46
730.212	17.54
730.237	-9.46
730.262	13.54
730.287	12.54
730.312	22.54
730.337	-6.46
730.362	7.54
730.387	-8.46
730.413	-4.46
730.438	12.54
730.463	17.54
730.488	-7.46
730.513	6.54
730.538	6.54
730.563	22.54
730.588	12.54
730.613	21.54
730.638	-1.46
730.663	3.54
730.688	12.54
730.713	9.54
730.738	8.54
730.763	13.54
730.788	3.54
730.813	2.54
730.838	5.54
730.863	6.54
730.888	1.54
730.913	-7.46
730.938	-13.46
730.963	-10.46
730.988	12.54
731.013	22.54
731.038	-2.46
731.063	9.54
731.088	27.54
731.113	3.54
731.138	3.54
731.163	8.54
731.188	5.54
731.213	-3.46
731.238	17.54
731.263	5.54
731.288	2.54
731.313	25.54
731.338	11.54
731.363	9.54
731.388	14.54
731.413	15.54
731.438	17.54
731.463	3.54
731.487	-2.46
731.512	-6.46
731.537	-10.46
731.562	5.54
731.587	18.54
731.612	6.54
731.637	-20.46
731.662	3.54
731.687	-5.46
731.712	3.54
731.737	3.54
731.762	8.54
731.786	3.54
731.811	6.54
731.836	9.54
731.861	18.54
731.886	8.54
731.911	-0.46
731.936	13.54
731.961	-5.46
731.986	10.54
732.01	-2.46
732.035	0.54
732.06	19.54
732.085	9.54
732.11	5.54
732.135	-7.46
732.16	-0.46
732.184	12.54
732.209	29.54
732.234	14.54
732.259	-2.46
732.284	12.54
732.309	3.54
732.334	-2.46
732.358	-11.46
732.383	-1.46
732.408	9.54
732.433	2.54
732.458	10.54
732.482	5.54
732.507	7.54
732.532	6.54
732.557	5.54
732.582	5.54
732.607	14.54
732.631	-1.46
732.656	-6.46
732.681	0.54
732.706	1.54
732.73	-1.46
732.755	10.54
732.78	18.54
732.805	3.54
732.83	6.54
732.854	-1.46
732.879	-3.46
732.904	7.54
732.929	-7.46
732.953	14.54
732.978	2.54
733.003	-1.46
733.028	7.54
733.052	2.54
733.077	8.54
733.102	1.54
733.127	5.54
733.151	-11.46
733.176	8.54
733.201	1.54
733.226	-5.46
733.25	9.54
733.275	-0.46
733.3	6.54
733.324	7.54
733.349	-0.46
733.374	14.54
733.399	8.54
733.423	1.54
733.448	-6.46
733.473	-1.46
733.497	1.54
733.522	-5.46
733.547	11.54
733.571	26.54
733.596	2.54
733.621	3.54
733.646	4.54
733.67	11.54
733.695	8.54
733.72	8.54
733.744	8.54
733.769	9.54
733.794	23.54
733.818	9.54
733.843	-6.46
733.867	-3.46
733.892	5.54
733.917	-6.46
733.941	8.54
733.966	-13.46
733.991	5.54
734.015	12.54
734.04	10.54
734.065	7.54
734.089	20.54
734.114	-6.46
734.138	15.54
734.163	-1.46
734.188	5.54
734.212	28.54
734.237	17.54
734.261	10.54
734.286	3.54
734.311	-1.46
734.335	6.54
734.36	6.54
734.384	11.54
734.409	9.54
734.434	-2.46
734.458	13.54
734.483	7.54
734.507	0.54
734.532	3.54
734.556	3.54
734.581	7.54
734.606	16.54
734.63	-8.46
734.655	0.54
734.679	13.54
734.704	-8.46
734.728	3.54
734.753	-0.46
734.777	13.54
734.802	7.54
734.826	15.54
734.851	5.54
734.876	19.54
734.9	2.54
734.925	11.54
734.949	16.54
734.974	2.54
734.998	18.54
735.023	2.54
735.047	-16.46
735.072	4.54
735.096	2.54
735.121	14.54
735.145	-0.46
735.17	1.54
735.194	20.54
735.219	4.54
735.243	-3.46
735.268	6.54
735.292	16.54
735.317	12.54
735.341	13.54
735.365	-9.46
735.39	-4.46
735.414	14.54
735.439	0.54
735.463	9.54
735.488	15.54
735.512	24.54
735.537	5.54
735.561	1.54
735.586	-8.46
735.61	-5.46
735.634	-6.46
735.659	10.54
735.683	9.54
735.708	2.54
735.732	-3.46
735.757	1.54
735.781	2.54
735.805	6.54
735.83	2.54
735.854	-2.46
735.879	0.54
735.903	9.54
735.927	14.54
735.952	19.54
735.976	3.54
736.001	2.54
736.025	15.54
736.049	10.54
736.074	-2.46
736.098	1.54
736.123	10.54
736.147	0.54
736.171	-5.46
736.196	8.54
736.22	10.54
736.244	3.54
736.269	13.54
736.293	12.54
736.317	3.54
736.342	8.54
736.366	24.54
736.39	21.54
736.415	12.54
736.439	5.54
736.463	24.54
736.488	27.54
736.512	11.54
736.536	7.54
736.561	13.54
736.585	6.54
736.609	-2.46
736.634	5.54
736.658	1.54
736.682	-2.46
736.707	5.54
736.731	-7.46
736.755	1.54
736.78	-2.46
736.804	27.54
736.828	7.54
736.852	1.54
736.877	-1.46
736.901	17.54
736.925	10.54
736.949	-8.46
736.974	-4.46
736.998	-8.46
737.022	2.54
737.047	-9.46
737.071	-2.46
737.095	13.54
737.119	31.54
737.144	28.54
737.168	-0.46
737.192	13.54
737.216	-4.46
737.241	-0.46
737.265	13.54
737.289	7.54
737.313	-3.46
737.337	1.54
737.362	5.54
737.386	1.54
737.41	-6.46
737.434	17.54
737.459	0.54
737.483	29.54
737.507	16.54
737.531	12.54
737.555	2.54
737.58	5.54
737.604	14.54
737.628	-1.46
737.652	-5.46
737.676	-8.46
737.701	18.54
737.725	17.54
737.749	18.54
737.773	6.54
737.797	-1.46
737.821	4.54
737.846	15.54
737.87	18.54
737.894	-6.46
737.918	11.54
737.942	11.54
737.966	13.54
737.99	8.54
738.015	2.54
738.039	6.54
738.063	9.54
738.087	6.54
738.111	5.54
738.135	18.54
738.159	12.54
738.184	-2.46
738.208	6.54
738.232	21.54
738.256	3.54
738.28	2.54
738.304	13.54
738.328	8.54
738.352	17.54
738.376	2.54
738.4	7.54
738.425	6.54
738.449	-12.46
738.473	10.54
738.497	12.54
738.521	3.54
738.545	23.54
738.569	6.54
738.593	21.54
738.617	8.54
738.641	16.54
738.665	11.54
738.689	26.54
738.713	2.54
738.737	9.54
738.762	23.54
738.786	8.54
738.81	-9.46
738.834	5.54
738.858	-3.46
738.882	2.54
738.906	13.54
738.93	10.54
738.954	17.54
738.978	5.54
739.002	6.54
739.026	14.54
739.05	12.54
739.074	5.54
739.098	21.54
739.122	7.54
739.146	23.54
739.17	24.54
739.194	0.54
739.218	-6.46
739.242	-2.46
739.266	2.54
739.29	11.54
739.314	7.54
739.338	-4.46
739.362	3.54
739.386	23.54
739.41	-1.46
739.434	5.54
739.458	24.54
739.482	9.54
739.506	1.54
739.53	15.54
739.554	28.54
739.577	3.54
739.601	11.54
739.625	-8.46
739.649	-3.46
739.673	-10.46
739.697	4.54
739.721	10.54
739.745	18.54
739.769	12.54
739.793	6.54
739.817	19.54
739.841	1.54
739.865	20.54
739.889	-7.46
739.912	5.54
739.936	-1.46
739.96	3.54
739.984	18.54
740.008	10.54
740.032	5.54
740.056	-5.46
740.08	7.54
740.104	-5.46
740.127	1.54
740.151	2.54
740.175	6.54
740.199	13.54
740.223	42.54
740.247	9.54
740.271	3.54
740.295	9.54
740.318	-5.46
740.342	15.54
740.366	9.54
740.39	21.54
740.414	0.54
740.438	6.54
740.461	14.54
740.485	9.54
740.509	4.54
740.533	13.54
740.557	8.54
740.581	4.54
740.604	-5.46
740.628	-15.46
740.652	6.54
740.676	4.54
740.7	22.54
740.723	4.54
740.747	-7.46
740.771	5.54
740.795	-15.46
740.819	17.54
740.842	-3.46
740.866	4.54
740.89	-0.46
740.914	-0.46
740.938	-6.46
740.961	7.54
740.985	2.54
741.009	3.54
741.033	-0.46
741.056	2.54
741.08	-13.46
741.104	-4.46
741.128	-2.46
741.151	5.54
741.175	6.54
741.199	17.54
741.223	5.54
741.246	2.54
741.27	1.54
741.294	7.54
741.318	4.54
741.341	1.54
741.365	17.54
741.389	13.54
741.413	10.54
741.436	1.54
741.46	12.54
741.484	13.54
741.507	5.54
741.531	33.54
741.555	31.54
741.579	18.54
741.602	0.54
741.626	5.54
741.65	1.54
741.673	7.54
741.697	-7.46
741.721	4.54
741.744	2.54
741.768	0.54
741.792	6.54
741.815	14.54
741.839	10.54
741.863	14.54
741.886	13.54
741.91	15.54
741.934	2.54
741.957	-4.46
741.981	-6.46
742.005	2.54
742.028	-1.46
742.052	-4.46
742.075	5.54
742.099	-0.46
742.123	4.54
742.146	3.54
742.17	16.54
742.194	-14.46
742.217	5.54
742.241	6.54
742.264	-2.46
742.288	27.54
742.312	6.54
742.335	0.54
742.359	-2.46
742.382	18.54
742.406	16.54
742.43	6.54
742.453	1.54
742.477	-8.46
742.5	-1.46
742.524	-5.46
742.548	-2.46
742.571	6.54
742.595	-1.46
742.618	1.54
742.642	-2.46
742.665	-0.46
742.689	-10.46
742.712	17.54
742.736	6.54
742.76	16.54
742.783	-2.46
742.807	3.54
742.83	9.54
742.854	-0.46
742.877	3.54
742.901	-2.46
742.924	-3.46
742.948	5.54
742.971	2.54
742.995	-0.46
743.018	16.54
743.042	-2.46
743.065	-8.46
743.089	-4.46
743.112	0.54
743.136	-1.46
743.159	-5.46
743.183	-2.46
743.206	13.54
743.23	3.54
743.253	-6.46
743.277	2.54
743.3	-2.46
743.324	5.54
743.347	-0.46
743.371	14.54
743.394	19.54
743.418	24.54
743.441	13.54
743.465	5.54
743.488	-2.46
743.512	-4.46
743.535	14.54
743.558	4.54
743.582	-1.46
743.605	3.54
743.629	6.54
743.652	5.54
743.676	12.54
743.699	12.54
743.723	10.54
743.746	7.54
743.769	8.54
743.793	-0.46
743.816	-14.46
743.84	3.54
743.863	10.54
743.886	1.54
743.91	13.54
743.933	13.54
743.957	7.54
743.98	11.54
744.003	6.54
744.027	13.54
744.05	12.54
744.074	5.54
744.097	-26.46
744.12	-5.46
744.144	-14.46
744.167	3.54
744.19	1.54
744.214	-3.46
744.237	-12.46
744.26	14.54
744.284	6.54
744.307	-9.46
744.331	-1.46
744.354	-14.46
744.377	-7.46
744.401	3.54
744.424	2.54
744.447	-14.46
744.471	-10.46
