Data from HighRes_H2D2_15_04_11_07_2024_HR4C61891__28__15-05-37-243.txt Node

Date: Thu Nov 07 15:05:37 EST 2024
User: crc00042
Spectrometer: HR4C6189
Trigger mode: 4
Integration Time (sec): 1.000000E-1
Scans to average: 1
Electric dark correction enabled: true
Nonlinearity correction enabled: false
Boxcar width: 0
XAxis mode: Wavelengths
Number of Pixels in Spectrum: 3648
>>>>>Begin Spectral Data<<<<<
639.567	-108.77
639.602	-108.77
639.636	-108.77
639.67	-54.77
639.704	-21.77
639.738	-6.77
639.773	11.23
639.807	-6.77
639.841	-3.77
639.875	13.23
639.909	1.23
639.943	-0.77
639.978	-4.77
640.012	-4.77
640.046	10.23
640.08	-0.77
640.114	7.23
640.148	-14.77
640.182	-20.77
640.217	-2.77
640.251	25.23
640.285	7.23
640.319	-1.77
640.353	14.23
640.387	9.23
640.421	-0.77
640.455	10.23
640.49	-1.77
640.524	-4.77
640.558	-9.77
640.592	13.23
640.626	9.23
640.66	14.23
640.694	-2.77
640.728	1.23
640.762	10.23
640.796	11.23
640.83	9.23
640.865	-7.77
640.899	1.23
640.933	4.23
640.967	11.23
641.001	27.23
641.035	14.23
641.069	15.23
641.103	-10.77
641.137	-0.77
641.171	-19.77
641.205	11.23
641.239	3.23
641.273	1.23
641.307	8.23
641.341	-4.77
641.375	11.23
641.409	0.23
641.443	3.23
641.477	-0.77
641.511	16.23
641.545	1.23
641.579	0.23
641.614	6.23
641.648	5.23
641.682	-2.77
641.716	9.23
641.75	6.23
641.784	-0.77
641.818	4.23
641.852	9.23
641.886	-10.77
641.919	13.23
641.953	5.23
641.987	-4.77
642.021	8.23
642.055	19.23
642.089	-6.77
642.123	-11.77
642.157	-6.77
642.191	-5.77
642.225	4.23
642.259	-4.77
642.293	17.23
642.327	13.23
642.361	-9.77
642.395	15.23
642.429	3.23
642.463	15.23
642.497	13.23
642.531	14.23
642.565	4.23
642.599	-0.77
642.633	-9.77
642.666	11.23
642.7	11.23
642.734	26.23
642.768	-4.77
642.802	7.23
642.836	15.23
642.87	-7.77
642.904	16.23
642.938	-0.77
642.972	-0.77
643.005	-9.77
643.039	6.23
643.073	-0.77
643.107	-2.77
643.141	5.23
643.175	7.23
643.209	-3.77
643.243	4.23
643.276	29.23
643.31	3.23
643.344	-1.77
643.378	4.23
643.412	12.23
643.446	5.23
643.48	-0.77
643.513	12.23
643.547	12.23
643.581	-0.77
643.615	7.23
643.649	1.23
643.683	6.23
643.716	-2.77
643.75	12.23
643.784	-12.77
643.818	9.23
643.852	4.23
643.886	-12.77
643.919	0.23
643.953	-5.77
643.987	4.23
644.021	9.23
644.055	6.23
644.088	-13.77
644.122	0.23
644.156	-1.77
644.19	7.23
644.224	8.23
644.257	19.23
644.291	12.23
644.325	-18.77
644.359	-7.77
644.392	11.23
644.426	10.23
644.46	5.23
644.494	-15.77
644.527	-18.77
644.561	1.23
644.595	7.23
644.629	-4.77
644.662	2.23
644.696	-1.77
644.73	-2.77
644.764	6.23
644.797	-8.77
644.831	-0.77
644.865	-10.77
644.899	-9.77
644.932	7.23
644.966	8.23
645	-0.77
645.033	10.23
645.067	-1.77
645.101	4.23
645.135	-12.77
645.168	5.23
645.202	-13.77
645.236	-4.77
645.269	10.23
645.303	-15.77
645.337	-24.77
645.37	-13.77
645.404	-5.77
645.438	5.23
645.471	-8.77
645.505	1.23
645.539	-6.77
645.572	-18.77
645.606	-19.77
645.64	-2.77
645.673	0.23
645.707	16.23
645.741	-2.77
645.774	-9.77
645.808	10.23
645.842	-13.77
645.875	11.23
645.909	-4.77
645.943	-16.77
645.976	-13.77
646.01	13.23
646.043	18.23
646.077	6.23
646.111	14.23
646.144	-1.77
646.178	11.23
646.212	-34.77
646.245	-13.77
646.279	-1.77
646.312	15.23
646.346	10.23
646.38	12.23
646.413	4.23
646.447	3.23
646.48	-9.77
646.514	4.23
646.547	-1.77
646.581	-15.77
646.615	-6.77
646.648	10.23
646.682	7.23
646.715	-18.77
646.749	9.23
646.782	-0.77
646.816	12.23
646.85	1.23
646.883	3.23
646.917	-0.77
646.95	10.23
646.984	-1.77
647.017	-9.77
647.051	6.23
647.084	-2.77
647.118	-6.77
647.151	-0.77
647.185	0.23
647.218	-14.77
647.252	-9.77
647.285	-8.77
647.319	-5.77
647.353	1.23
647.386	5.23
647.42	-2.77
647.453	3.23
647.487	-5.77
647.52	8.23
647.553	16.23
647.587	-7.77
647.62	1.23
647.654	-4.77
647.687	4.23
647.721	4.23
647.754	15.23
647.788	14.23
647.821	-1.77
647.855	9.23
647.888	19.23
647.922	14.23
647.955	19.23
647.989	5.23
648.022	0.23
648.055	7.23
648.089	-0.77
648.122	14.23
648.156	12.23
648.189	14.23
648.223	10.23
648.256	5.23
648.29	6.23
648.323	-5.77
648.356	0.23
648.39	22.23
648.423	-2.77
648.457	-4.77
648.49	0.23
648.523	18.23
648.557	3.23
648.59	-1.77
648.624	-3.77
648.657	4.23
648.69	12.23
648.724	-5.77
648.757	28.23
648.791	6.23
648.824	-7.77
648.857	13.23
648.891	8.23
648.924	1.23
648.957	4.23
648.991	-3.77
649.024	8.23
649.057	-13.77
649.091	1.23
649.124	9.23
649.158	6.23
649.191	6.23
649.224	9.23
649.258	-4.77
649.291	-18.77
649.324	-3.77
649.358	-2.77
649.391	11.23
649.424	13.23
649.458	11.23
649.491	-6.77
649.524	-7.77
649.557	-2.77
649.591	-22.77
649.624	7.23
649.657	-21.77
649.691	-5.77
649.724	9.23
649.757	-1.77
649.791	2.23
649.824	29.23
649.857	6.23
649.89	4.23
649.924	-8.77
649.957	-6.77
649.99	-25.77
650.023	5.23
650.057	-0.77
650.09	-0.77
650.123	-1.77
650.157	7.23
650.19	1.23
650.223	-6.77
650.256	-20.77
650.29	-1.77
650.323	-1.77
650.356	-3.77
650.389	-2.77
650.423	-18.77
650.456	5.23
650.489	2.23
650.522	9.23
650.555	17.23
650.589	6.23
650.622	0.23
650.655	14.23
650.688	-13.77
650.721	8.23
650.755	-5.77
650.788	17.23
650.821	4.23
650.854	-0.77
650.887	10.23
650.921	2.23
650.954	11.23
650.987	-4.77
651.02	-2.77
651.053	-19.77
651.087	-1.77
651.12	15.23
651.153	2.23
651.186	3.23
651.219	-1.77
651.252	22.23
651.286	10.23
651.319	12.23
651.352	10.23
651.385	4.23
651.418	-12.77
651.451	1.23
651.484	5.23
651.518	1.23
651.551	7.23
651.584	-12.77
651.617	1.23
651.65	-10.77
651.683	10.23
651.716	13.23
651.749	-8.77
651.783	-2.77
651.816	12.23
651.849	-6.77
651.882	-1.77
651.915	-16.77
651.948	7.23
651.981	-0.77
652.014	-8.77
652.047	-5.77
652.08	-18.77
652.114	4.23
652.147	-1.77
652.18	3.23
652.213	12.23
652.246	14.23
652.279	10.23
652.312	14.23
652.345	0.23
652.378	8.23
652.411	3.23
652.444	-2.77
652.477	0.23
652.51	-5.77
652.543	-17.77
652.576	4.23
652.609	-3.77
652.642	21.23
652.675	2.23
652.709	-4.77
652.742	4.23
652.775	-13.77
652.808	-1.77
652.841	1.23
652.874	17.23
652.907	-5.77
652.94	-3.77
652.973	-9.77
653.006	-2.77
653.039	4.23
653.072	-16.77
653.105	4.23
653.138	-18.77
653.171	-2.77
653.204	-1.77
653.237	-5.77
653.27	-11.77
653.303	7.23
653.336	-1.77
653.368	1.23
653.401	5.23
653.434	-4.77
653.467	2.23
653.5	-8.77
653.533	-7.77
653.566	-7.77
653.599	9.23
653.632	-9.77
653.665	6.23
653.698	4.23
653.731	-3.77
653.764	4.23
653.797	14.23
653.83	22.23
653.863	7.23
653.896	4.23
653.929	2.23
653.961	2.23
653.994	4.23
654.027	-15.77
654.06	6.23
654.093	5.23
654.126	3.23
654.159	-21.77
654.192	6.23
654.225	2.23
654.258	-6.77
654.29	-0.77
654.323	6.23
654.356	1.23
654.389	-4.77
654.422	2.23
654.455	13.23
654.488	4.23
654.521	-5.77
654.553	5.23
654.586	1.23
654.619	-1.77
654.652	0.23
654.685	-5.77
654.718	2.23
654.751	9.23
654.783	-14.77
654.816	21.23
654.849	6.23
654.882	-9.77
654.915	-0.77
654.948	19.23
654.98	0.23
655.013	-0.77
655.046	-0.77
655.079	-3.77
655.112	-2.77
655.144	-11.77
655.177	10.23
655.21	3.23
655.243	15.23
655.276	-4.77
655.308	-10.77
655.341	-9.77
655.374	3.23
655.407	4.23
655.44	9.23
655.472	18.23
655.505	14.23
655.538	4.23
655.571	6.23
655.603	1.23
655.636	17.23
655.669	12.23
655.702	7.23
655.734	4.23
655.767	6.23
655.8	18.23
655.833	20.23
655.865	32.23
655.898	11.23
655.931	15.23
655.964	22.23
655.996	21.23
656.029	50.23
656.062	40.23
656.095	52.23
656.127	96.23
656.16	208.23
656.193	626.23
656.225	984.23
656.258	563.23
656.291	192.23
656.324	173.23
656.356	346.23
656.389	774.23
656.422	681.23
656.454	215.23
656.487	72.23
656.52	34.23
656.552	27.23
656.585	13.23
656.618	21.23
656.65	18.23
656.683	-6.77
656.716	13.23
656.748	14.23
656.781	4.23
656.814	-1.77
656.846	23.23
656.879	6.23
656.912	10.23
656.944	-25.77
656.977	10.23
657.01	8.23
657.042	4.23
657.075	1.23
657.108	-3.77
657.14	23.23
657.173	25.23
657.205	26.23
657.238	9.23
657.271	9.23
657.303	-2.77
657.336	-7.77
657.369	-0.77
657.401	-3.77
657.434	5.23
657.466	11.23
657.499	13.23
657.532	-0.77
657.564	-0.77
657.597	8.23
657.629	8.23
657.662	11.23
657.694	11.23
657.727	-2.77
657.76	-0.77
657.792	-15.77
657.825	-15.77
657.857	1.23
657.89	0.23
657.922	25.23
657.955	-0.77
657.987	-6.77
658.02	20.23
658.053	27.23
658.085	11.23
658.118	-1.77
658.15	6.23
658.183	11.23
658.215	3.23
658.248	4.23
658.28	-5.77
658.313	17.23
658.345	-2.77
658.378	-7.77
658.41	0.23
658.443	17.23
658.475	-7.77
658.508	0.23
658.54	-18.77
658.573	-17.77
658.605	2.23
658.638	-3.77
658.67	5.23
658.703	-1.77
658.735	-11.77
658.768	3.23
658.8	-8.77
658.833	15.23
658.865	4.23
658.898	-7.77
658.93	-15.77
658.963	4.23
658.995	-10.77
659.028	10.23
659.06	5.23
659.092	-5.77
659.125	2.23
659.157	16.23
659.19	4.23
659.222	6.23
659.255	-5.77
659.287	-3.77
659.32	-2.77
659.352	9.23
659.384	10.23
659.417	-5.77
659.449	10.23
659.482	27.23
659.514	-2.77
659.546	-5.77
659.579	2.23
659.611	0.23
659.644	2.23
659.676	12.23
659.708	5.23
659.741	10.23
659.773	1.23
659.806	5.23
659.838	-7.77
659.87	-8.77
659.903	9.23
659.935	15.23
659.967	10.23
660	9.23
660.032	-19.77
660.065	21.23
660.097	6.23
660.129	3.23
660.162	-11.77
660.194	3.23
660.226	14.23
660.259	11.23
660.291	-0.77
660.323	1.23
660.356	2.23
660.388	-3.77
660.42	-7.77
660.453	12.23
660.485	2.23
660.517	14.23
660.55	23.23
660.582	-2.77
660.614	17.23
660.647	-1.77
660.679	-3.77
660.711	11.23
660.743	-5.77
660.776	-21.77
660.808	8.23
660.84	-15.77
660.873	-10.77
660.905	-3.77
660.937	-9.77
660.969	-6.77
661.002	-6.77
661.034	6.23
661.066	22.23
661.099	-0.77
661.131	13.23
661.163	-3.77
661.195	5.23
661.228	1.23
661.26	-1.77
661.292	7.23
661.324	-0.77
661.357	10.23
661.389	1.23
661.421	2.23
661.453	14.23
661.485	5.23
661.518	-7.77
661.55	-4.77
661.582	1.23
661.614	-5.77
661.647	2.23
661.679	-1.77
661.711	6.23
661.743	-6.77
661.775	5.23
661.808	16.23
661.84	-15.77
661.872	-23.77
661.904	-5.77
661.936	6.23
661.969	-16.77
662.001	-7.77
662.033	3.23
662.065	-7.77
662.097	-6.77
662.129	-2.77
662.162	-15.77
662.194	-3.77
662.226	-3.77
662.258	11.23
662.29	-1.77
662.322	-12.77
662.355	-7.77
662.387	16.23
662.419	14.23
662.451	20.23
662.483	2.23
662.515	8.23
662.547	-20.77
662.58	-7.77
662.612	-0.77
662.644	-20.77
662.676	13.23
662.708	6.23
662.74	1.23
662.772	7.23
662.804	9.23
662.836	4.23
662.869	-0.77
662.901	19.23
662.933	5.23
662.965	9.23
662.997	10.23
663.029	5.23
663.061	8.23
663.093	1.23
663.125	-0.77
663.157	-1.77
663.189	-4.77
663.221	8.23
663.254	-5.77
663.286	6.23
663.318	-4.77
663.35	-1.77
663.382	-2.77
663.414	12.23
663.446	4.23
663.478	-1.77
663.51	11.23
663.542	5.23
663.574	6.23
663.606	12.23
663.638	-2.77
663.67	0.23
663.702	-17.77
663.734	-1.77
663.766	5.23
663.798	-21.77
663.83	-8.77
663.862	10.23
663.894	8.23
663.926	-18.77
663.958	7.23
663.99	-14.77
664.022	-0.77
664.054	17.23
664.086	-10.77
664.118	-28.77
664.15	-19.77
664.182	1.23
664.214	8.23
664.246	10.23
664.278	9.23
664.31	12.23
664.342	-5.77
664.374	-2.77
664.406	-6.77
664.438	-11.77
664.47	6.23
664.502	-7.77
664.534	-9.77
664.566	-1.77
664.598	10.23
664.63	-4.77
664.662	-1.77
664.693	-19.77
664.725	-15.77
664.757	13.23
664.789	-4.77
664.821	14.23
664.853	6.23
664.885	6.23
664.917	-5.77
664.949	28.23
664.981	9.23
665.013	-13.77
665.045	0.23
665.076	6.23
665.108	0.23
665.14	-9.77
665.172	11.23
665.204	-10.77
665.236	7.23
665.268	12.23
665.3	0.23
665.331	3.23
665.363	-5.77
665.395	7.23
665.427	1.23
665.459	1.23
665.491	-10.77
665.523	1.23
665.555	0.23
665.586	8.23
665.618	-7.77
665.65	-9.77
665.682	0.23
665.714	13.23
665.746	3.23
665.777	13.23
665.809	13.23
665.841	18.23
665.873	1.23
665.905	14.23
665.937	19.23
665.968	-1.77
666	10.23
666.032	-3.77
666.064	6.23
666.096	-12.77
666.127	8.23
666.159	17.23
666.191	13.23
666.223	13.23
666.255	11.23
666.286	17.23
666.318	7.23
666.35	3.23
666.382	0.23
666.413	-0.77
666.445	-15.77
666.477	-17.77
666.509	-12.77
666.54	2.23
666.572	5.23
666.604	-9.77
666.636	-4.77
666.667	15.23
666.699	18.23
666.731	3.23
666.763	5.23
666.794	5.23
666.826	-0.77
666.858	-16.77
666.89	1.23
666.921	-0.77
666.953	-1.77
666.985	-7.77
667.017	5.23
667.048	0.23
667.08	15.23
667.112	-13.77
667.143	-6.77
667.175	-2.77
667.207	17.23
667.238	5.23
667.27	-16.77
667.302	-0.77
667.334	-16.77
667.365	23.23
667.397	-2.77
667.429	-12.77
667.46	0.23
667.492	5.23
667.524	-9.77
667.555	-7.77
667.587	-5.77
667.619	9.23
667.65	-21.77
667.682	10.23
667.714	5.23
667.745	9.23
667.777	11.23
667.808	11.23
667.84	12.23
667.872	-12.77
667.903	19.23
667.935	10.23
667.967	6.23
667.998	11.23
668.03	-1.77
668.061	14.23
668.093	0.23
668.125	13.23
668.156	4.23
668.188	-14.77
668.22	-4.77
668.251	6.23
668.283	9.23
668.314	6.23
668.346	-3.77
668.377	-0.77
668.409	7.23
668.441	7.23
668.472	-3.77
668.504	7.23
668.535	0.23
668.567	9.23
668.599	15.23
668.63	-2.77
668.662	7.23
668.693	7.23
668.725	-16.77
668.756	3.23
668.788	-8.77
668.819	11.23
668.851	2.23
668.882	-0.77
668.914	-3.77
668.946	-3.77
668.977	6.23
669.009	-3.77
669.04	-29.77
669.072	8.23
669.103	17.23
669.135	8.23
669.166	5.23
669.198	5.23
669.229	13.23
669.261	6.23
669.292	-5.77
669.324	-13.77
669.355	5.23
669.387	-3.77
669.418	4.23
669.45	0.23
669.481	6.23
669.513	-6.77
669.544	-4.77
669.576	8.23
669.607	16.23
669.639	16.23
669.67	-4.77
669.701	7.23
669.733	-16.77
669.764	-6.77
669.796	7.23
669.827	-2.77
669.859	-10.77
669.89	-0.77
669.922	8.23
669.953	8.23
669.985	-0.77
670.016	15.23
670.047	16.23
670.079	5.23
670.11	0.23
670.142	-7.77
670.173	3.23
670.204	-0.77
670.236	0.23
670.267	-6.77
670.299	10.23
670.33	3.23
670.362	-8.77
670.393	-16.77
670.424	5.23
670.456	-1.77
670.487	-6.77
670.518	7.23
670.55	17.23
670.581	1.23
670.613	3.23
670.644	1.23
670.675	-9.77
670.707	-0.77
670.738	11.23
670.769	1.23
670.801	-23.77
670.832	1.23
670.864	-5.77
670.895	8.23
670.926	-3.77
670.958	1.23
670.989	-4.77
671.02	-9.77
671.052	7.23
671.083	-2.77
671.114	0.23
671.146	23.23
671.177	6.23
671.208	-17.77
671.24	-5.77
671.271	-20.77
671.302	-2.77
671.333	-3.77
671.365	-15.77
671.396	2.23
671.427	10.23
671.459	16.23
671.49	5.23
671.521	6.23
671.553	5.23
671.584	-3.77
671.615	-4.77
671.646	-1.77
671.678	-0.77
671.709	-1.77
671.74	-1.77
671.771	-20.77
671.803	-11.77
671.834	13.23
671.865	-2.77
671.896	10.23
671.928	10.23
671.959	9.23
671.99	1.23
672.021	1.23
672.053	-1.77
672.084	6.23
672.115	11.23
672.146	-0.77
672.178	-2.77
672.209	4.23
672.24	-2.77
672.271	6.23
672.303	-2.77
672.334	0.23
672.365	-21.77
672.396	4.23
672.427	5.23
672.459	16.23
672.49	21.23
672.521	8.23
672.552	8.23
672.583	4.23
672.615	-6.77
672.646	17.23
672.677	1.23
672.708	3.23
672.739	9.23
672.77	25.23
672.802	21.23
672.833	8.23
672.864	7.23
672.895	5.23
672.926	-2.77
672.957	-12.77
672.989	-6.77
673.02	9.23
673.051	-1.77
673.082	8.23
673.113	5.23
673.144	21.23
673.175	6.23
673.206	-4.77
673.238	1.23
673.269	11.23
673.3	-24.77
673.331	6.23
673.362	10.23
673.393	3.23
673.424	6.23
673.455	14.23
673.487	4.23
673.518	16.23
673.549	-7.77
673.58	-6.77
673.611	-2.77
673.642	-2.77
673.673	-20.77
673.704	-6.77
673.735	-7.77
673.766	-10.77
673.797	1.23
673.828	4.23
673.86	2.23
673.891	8.23
673.922	-2.77
673.953	-3.77
673.984	7.23
674.015	13.23
674.046	2.23
674.077	8.23
674.108	-6.77
674.139	1.23
674.17	-2.77
674.201	6.23
674.232	-10.77
674.263	-14.77
674.294	-3.77
674.325	-8.77
674.356	6.23
674.387	8.23
674.418	14.23
674.449	1.23
674.48	2.23
674.511	2.23
674.542	23.23
674.573	-3.77
674.604	14.23
674.635	-8.77
674.666	16.23
674.697	4.23
674.728	11.23
674.759	16.23
674.79	-9.77
674.821	-5.77
674.852	2.23
674.883	-5.77
674.914	-8.77
674.945	4.23
674.976	-9.77
675.007	-16.77
675.038	-20.77
675.069	-1.77
675.1	17.23
675.131	6.23
675.162	-1.77
675.193	-0.77
675.224	-17.77
675.254	9.23
675.285	21.23
675.316	23.23
675.347	15.23
675.378	-0.77
675.409	-4.77
675.44	25.23
675.471	-8.77
675.502	-15.77
675.533	5.23
675.564	9.23
675.595	6.23
675.625	18.23
675.656	7.23
675.687	3.23
675.718	-14.77
675.749	21.23
675.78	5.23
675.811	12.23
675.842	12.23
675.873	-18.77
675.903	-13.77
675.934	5.23
675.965	-2.77
675.996	-12.77
676.027	2.23
676.058	2.23
676.089	-21.77
676.119	-7.77
676.15	5.23
676.181	-12.77
676.212	-0.77
676.243	24.23
676.274	-8.77
676.304	12.23
676.335	-2.77
676.366	-0.77
676.397	2.23
676.428	3.23
676.459	-7.77
676.489	7.23
676.52	16.23
676.551	8.23
676.582	3.23
676.613	2.23
676.643	0.23
676.674	5.23
676.705	7.23
676.736	9.23
676.767	17.23
676.797	3.23
676.828	-3.77
676.859	-11.77
676.89	0.23
676.92	10.23
676.951	1.23
676.982	11.23
677.013	6.23
677.044	22.23
677.074	5.23
677.105	-7.77
677.136	4.23
677.167	6.23
677.197	11.23
677.228	3.23
677.259	0.23
677.289	-7.77
677.32	-19.77
677.351	-10.77
677.382	0.23
677.412	-7.77
677.443	16.23
677.474	10.23
677.505	-0.77
677.535	6.23
677.566	-10.77
677.597	-4.77
677.627	-17.77
677.658	7.23
677.689	-3.77
677.72	-2.77
677.75	-0.77
677.781	0.23
677.812	11.23
677.842	9.23
677.873	4.23
677.904	-2.77
677.934	-4.77
677.965	-7.77
677.996	-17.77
678.026	-0.77
678.057	3.23
678.088	-9.77
678.118	1.23
678.149	7.23
678.18	12.23
678.21	6.23
678.241	-1.77
678.272	-10.77
678.302	0.23
678.333	8.23
678.363	15.23
678.394	4.23
678.425	-3.77
678.455	9.23
678.486	10.23
678.517	6.23
678.547	3.23
678.578	9.23
678.608	-6.77
678.639	5.23
678.67	8.23
678.7	-3.77
678.731	-2.77
678.761	8.23
678.792	5.23
678.823	5.23
678.853	1.23
678.884	-10.77
678.914	-5.77
678.945	2.23
678.975	-16.77
679.006	21.23
679.037	19.23
679.067	1.23
679.098	1.23
679.128	-4.77
679.159	1.23
679.189	10.23
679.22	-1.77
679.25	10.23
679.281	2.23
679.312	7.23
679.342	6.23
679.373	15.23
679.403	-9.77
679.434	8.23
679.464	-3.77
679.495	-6.77
679.525	2.23
679.556	-14.77
679.586	7.23
679.617	14.23
679.647	11.23
679.678	8.23
679.708	-0.77
679.739	8.23
679.769	0.23
679.8	-10.77
679.83	7.23
679.861	10.23
679.891	-6.77
679.922	-19.77
679.952	-1.77
679.983	-7.77
680.013	6.23
680.044	-0.77
680.074	5.23
680.105	19.23
680.135	7.23
680.165	6.23
680.196	22.23
680.226	7.23
680.257	15.23
680.287	4.23
680.318	-10.77
680.348	-17.77
680.379	14.23
680.409	19.23
680.439	11.23
680.47	9.23
680.5	-11.77
680.531	6.23
680.561	13.23
680.592	13.23
680.622	21.23
680.652	-2.77
680.683	2.23
680.713	-1.77
680.744	-2.77
680.774	-5.77
680.804	8.23
680.835	-21.77
680.865	-23.77
680.896	12.23
680.926	21.23
680.956	-8.77
680.987	4.23
681.017	2.23
681.047	7.23
681.078	-9.77
681.108	-6.77
681.139	2.23
681.169	-2.77
681.199	1.23
681.23	2.23
681.26	6.23
681.29	8.23
681.321	2.23
681.351	8.23
681.381	-5.77
681.412	7.23
681.442	6.23
681.472	12.23
681.503	10.23
681.533	-8.77
681.563	2.23
681.594	-0.77
681.624	16.23
681.654	0.23
681.685	2.23
681.715	12.23
681.745	4.23
681.775	13.23
681.806	13.23
681.836	12.23
681.866	-3.77
681.897	10.23
681.927	4.23
681.957	-20.77
681.987	-10.77
682.018	-9.77
682.048	-2.77
682.078	-0.77
682.109	18.23
682.139	8.23
682.169	-3.77
682.199	-8.77
682.23	-9.77
682.26	10.23
682.29	-7.77
682.32	-6.77
682.351	-9.77
682.381	3.23
682.411	-0.77
682.441	-15.77
682.472	-0.77
682.502	-8.77
682.532	-6.77
682.562	15.23
682.592	17.23
682.623	26.23
682.653	-1.77
682.683	2.23
682.713	9.23
682.743	6.23
682.774	6.23
682.804	1.23
682.834	18.23
682.864	-14.77
682.894	-7.77
682.925	3.23
682.955	-0.77
682.985	8.23
683.015	3.23
683.045	10.23
683.076	0.23
683.106	-1.77
683.136	-1.77
683.166	-9.77
683.196	-3.77
683.226	6.23
683.257	6.23
683.287	-8.77
683.317	-2.77
683.347	12.23
683.377	-1.77
683.407	12.23
683.437	0.23
683.468	6.23
683.498	2.23
683.528	-2.77
683.558	1.23
683.588	-3.77
683.618	0.23
683.648	7.23
683.678	1.23
683.708	4.23
683.739	1.23
683.769	1.23
683.799	12.23
683.829	14.23
683.859	-4.77
683.889	15.23
683.919	6.23
683.949	11.23
683.979	-10.77
684.009	7.23
684.039	3.23
684.07	-11.77
684.1	24.23
684.13	9.23
684.16	-1.77
684.19	-0.77
684.22	6.23
684.25	14.23
684.28	9.23
684.31	2.23
684.34	18.23
684.37	17.23
684.4	9.23
684.43	13.23
684.46	-0.77
684.49	16.23
684.52	4.23
684.55	14.23
684.58	-5.77
684.61	12.23
684.64	10.23
684.67	11.23
684.7	4.23
684.73	3.23
684.76	-13.77
684.79	11.23
684.82	6.23
684.85	-8.77
684.88	7.23
684.91	3.23
684.94	6.23
684.97	-7.77
685	3.23
685.03	-7.77
685.06	-1.77
685.09	1.23
685.12	18.23
685.15	9.23
685.18	13.23
685.21	-4.77
685.24	1.23
685.27	5.23
685.3	-0.77
685.33	0.23
685.36	-8.77
685.39	1.23
685.42	1.23
685.45	1.23
685.48	10.23
685.51	1.23
685.54	-3.77
685.569	-3.77
685.599	8.23
685.629	2.23
685.659	-5.77
685.689	6.23
685.719	0.23
685.749	-18.77
685.779	4.23
685.809	10.23
685.839	11.23
685.869	7.23
685.898	18.23
685.928	3.23
685.958	-3.77
685.988	18.23
686.018	-4.77
686.048	9.23
686.078	18.23
686.108	7.23
686.137	-0.77
686.167	12.23
686.197	-9.77
686.227	-8.77
686.257	16.23
686.287	18.23
686.317	-1.77
686.346	4.23
686.376	5.23
686.406	-0.77
686.436	13.23
686.466	9.23
686.496	6.23
686.525	4.23
686.555	-1.77
686.585	10.23
686.615	23.23
686.645	17.23
686.675	-2.77
686.704	-1.77
686.734	6.23
686.764	-5.77
686.794	5.23
686.824	11.23
686.853	14.23
686.883	8.23
686.913	21.23
686.943	8.23
686.973	4.23
687.002	0.23
687.032	13.23
687.062	-2.77
687.092	6.23
687.121	2.23
687.151	0.23
687.181	4.23
687.211	24.23
687.24	12.23
687.27	-7.77
687.3	-3.77
687.33	6.23
687.359	-10.77
687.389	7.23
687.419	2.23
687.449	15.23
687.478	10.23
687.508	12.23
687.538	-2.77
687.568	5.23
687.597	-6.77
687.627	12.23
687.657	-3.77
687.686	8.23
687.716	13.23
687.746	12.23
687.776	1.23
687.805	15.23
687.835	4.23
687.865	25.23
687.894	10.23
687.924	-3.77
687.954	2.23
687.983	9.23
688.013	14.23
688.043	-0.77
688.072	-0.77
688.102	6.23
688.132	-0.77
688.161	-14.77
688.191	-2.77
688.221	-7.77
688.25	-6.77
688.28	16.23
688.31	10.23
688.339	-11.77
688.369	-10.77
688.399	-13.77
688.428	2.23
688.458	5.23
688.488	-2.77
688.517	7.23
688.547	11.23
688.576	44.23
688.606	11.23
688.636	-6.77
688.665	1.23
688.695	-4.77
688.725	15.23
688.754	17.23
688.784	12.23
688.813	11.23
688.843	-16.77
688.873	-4.77
688.902	-6.77
688.932	-2.77
688.961	1.23
688.991	1.23
689.02	19.23
689.05	9.23
689.08	13.23
689.109	2.23
689.139	4.23
689.168	12.23
689.198	5.23
689.227	-11.77
689.257	-13.77
689.287	14.23
689.316	-4.77
689.346	-10.77
689.375	3.23
689.405	9.23
689.434	8.23
689.464	0.23
689.493	-0.77
689.523	-10.77
689.552	-9.77
689.582	-0.77
689.611	-3.77
689.641	1.23
689.67	0.23
689.7	8.23
689.73	8.23
689.759	5.23
689.789	23.23
689.818	10.23
689.848	13.23
689.877	27.23
689.906	3.23
689.936	-3.77
689.965	18.23
689.995	7.23
690.024	5.23
690.054	2.23
690.083	6.23
690.113	-4.77
690.142	-2.77
690.172	1.23
690.201	6.23
690.231	5.23
690.26	-3.77
690.29	-5.77
690.319	6.23
690.348	3.23
690.378	-2.77
690.407	-2.77
690.437	-9.77
690.466	3.23
690.496	6.23
690.525	13.23
690.555	7.23
690.584	-1.77
690.613	-9.77
690.643	4.23
690.672	7.23
690.702	11.23
690.731	3.23
690.76	7.23
690.79	-11.77
690.819	-4.77
690.849	4.23
690.878	5.23
690.907	9.23
690.937	26.23
690.966	1.23
690.996	-0.77
691.025	8.23
691.054	-6.77
691.084	10.23
691.113	-0.77
691.142	29.23
691.172	24.23
691.201	11.23
691.23	0.23
691.26	4.23
691.289	0.23
691.319	-11.77
691.348	-2.77
691.377	1.23
691.407	-0.77
691.436	-3.77
691.465	-15.77
691.495	11.23
691.524	5.23
691.553	-7.77
691.583	2.23
691.612	24.23
691.641	7.23
691.67	-0.77
691.7	9.23
691.729	-11.77
691.758	4.23
691.788	11.23
691.817	9.23
691.846	7.23
691.876	-14.77
691.905	0.23
691.934	-3.77
691.963	5.23
691.993	8.23
692.022	-2.77
692.051	1.23
692.081	-6.77
692.11	14.23
692.139	4.23
692.168	10.23
692.198	9.23
692.227	20.23
692.256	2.23
692.285	1.23
692.315	-5.77
692.344	-1.77
692.373	3.23
692.402	-8.77
692.432	-0.77
692.461	-11.77
692.49	-4.77
692.519	-4.77
692.548	8.23
692.578	16.23
692.607	-3.77
692.636	-12.77
692.665	9.23
692.694	4.23
692.724	4.23
692.753	9.23
692.782	4.23
692.811	-3.77
692.84	4.23
692.87	7.23
692.899	13.23
692.928	-4.77
692.957	12.23
692.986	-3.77
693.016	-3.77
693.045	1.23
693.074	9.23
693.103	0.23
693.132	-6.77
693.161	8.23
693.191	0.23
693.22	-7.77
693.249	7.23
693.278	-2.77
693.307	15.23
693.336	-3.77
693.365	-6.77
693.395	-0.77
693.424	6.23
693.453	4.23
693.482	1.23
693.511	17.23
693.54	9.23
693.569	8.23
693.598	-0.77
693.628	6.23
693.657	11.23
693.686	24.23
693.715	3.23
693.744	5.23
693.773	13.23
693.802	-0.77
693.831	-6.77
693.86	2.23
693.889	-6.77
693.919	4.23
693.948	-3.77
693.977	7.23
694.006	17.23
694.035	4.23
694.064	-4.77
694.093	9.23
694.122	-14.77
694.151	4.23
694.18	12.23
694.209	19.23
694.238	10.23
694.267	17.23
694.296	5.23
694.325	12.23
694.354	2.23
694.383	5.23
694.412	1.23
694.441	5.23
694.471	-7.77
694.5	-29.77
694.529	-5.77
694.558	16.23
694.587	16.23
694.616	-16.77
694.645	4.23
694.674	7.23
694.703	13.23
694.732	-14.77
694.761	10.23
694.79	7.23
694.819	-13.77
694.848	4.23
694.877	30.23
694.906	37.23
694.935	-6.77
694.963	8.23
694.992	-4.77
695.021	9.23
695.05	6.23
695.079	10.23
695.108	-11.77
695.137	7.23
695.166	12.23
695.195	-5.77
695.224	10.23
695.253	12.23
695.282	0.23
695.311	1.23
695.34	4.23
695.369	8.23
695.398	4.23
695.427	16.23
695.456	11.23
695.485	6.23
695.513	17.23
695.542	13.23
695.571	-7.77
695.6	8.23
695.629	0.23
695.658	24.23
695.687	4.23
695.716	5.23
695.745	28.23
695.774	-4.77
695.802	-7.77
695.831	-1.77
695.86	-0.77
695.889	14.23
695.918	4.23
695.947	-0.77
695.976	8.23
696.005	7.23
696.033	10.23
696.062	20.23
696.091	-3.77
696.12	4.23
696.149	26.23
696.178	-6.77
696.207	16.23
696.235	-7.77
696.264	12.23
696.293	-1.77
696.322	4.23
696.351	12.23
696.38	-3.77
696.408	7.23
696.437	-1.77
696.466	7.23
696.495	15.23
696.524	24.23
696.553	17.23
696.581	18.23
696.61	0.23
696.639	-7.77
696.668	4.23
696.697	-2.77
696.725	9.23
696.754	12.23
696.783	1.23
696.812	7.23
696.84	4.23
696.869	3.23
696.898	-0.77
696.927	6.23
696.956	14.23
696.984	6.23
697.013	-0.77
697.042	5.23
697.071	0.23
697.099	6.23
697.128	1.23
697.157	16.23
697.186	8.23
697.214	2.23
697.243	9.23
697.272	10.23
697.301	6.23
697.329	2.23
697.358	9.23
697.387	31.23
697.415	8.23
697.444	-15.77
697.473	-15.77
697.502	-6.77
697.53	-0.77
697.559	8.23
697.588	11.23
697.616	8.23
697.645	-0.77
697.674	12.23
697.703	2.23
697.731	8.23
697.76	17.23
697.789	7.23
697.817	18.23
697.846	20.23
697.875	6.23
697.903	33.23
697.932	36.23
697.961	17.23
697.989	15.23
698.018	4.23
698.047	-2.77
698.075	10.23
698.104	-9.77
698.133	-11.77
698.161	-3.77
698.19	0.23
698.218	-2.77
698.247	10.23
698.276	-0.77
698.304	7.23
698.333	8.23
698.362	-7.77
698.39	2.23
698.419	6.23
698.447	9.23
698.476	-1.77
698.505	11.23
698.533	13.23
698.562	10.23
698.591	-5.77
698.619	-6.77
698.648	11.23
698.676	21.23
698.705	-10.77
698.733	-9.77
698.762	-4.77
698.791	6.23
698.819	-2.77
698.848	-3.77
698.876	11.23
698.905	9.23
698.933	-3.77
698.962	-7.77
698.991	10.23
699.019	26.23
699.048	7.23
699.076	5.23
699.105	0.23
699.133	-5.77
699.162	9.23
699.19	33.23
699.219	17.23
699.248	7.23
699.276	-2.77
699.305	2.23
699.333	0.23
699.362	5.23
699.39	13.23
699.419	4.23
699.447	-3.77
699.476	-1.77
699.504	-7.77
699.533	-4.77
699.561	-6.77
699.59	-5.77
699.618	12.23
699.647	0.23
699.675	7.23
699.704	-1.77
699.732	-0.77
699.761	22.23
699.789	-9.77
699.818	2.23
699.846	-6.77
699.874	-4.77
699.903	-3.77
699.931	-6.77
699.96	13.23
699.988	10.23
700.017	-4.77
700.045	6.23
700.074	1.23
700.102	-6.77
700.13	4.23
700.159	9.23
700.187	24.23
700.216	-1.77
700.244	0.23
700.273	4.23
700.301	-3.77
700.329	-2.77
700.358	-1.77
700.386	4.23
700.415	0.23
700.443	0.23
700.472	16.23
700.5	13.23
700.528	13.23
700.557	15.23
700.585	4.23
700.614	-0.77
700.642	13.23
700.67	25.23
700.699	8.23
700.727	4.23
700.755	4.23
700.784	-1.77
700.812	11.23
700.841	-1.77
700.869	8.23
700.897	-3.77
700.926	3.23
700.954	5.23
700.982	20.23
701.011	8.23
701.039	5.23
701.067	20.23
701.096	20.23
701.124	-9.77
701.152	0.23
701.181	15.23
701.209	-15.77
701.237	6.23
701.266	1.23
701.294	-5.77
701.322	-7.77
701.351	2.23
701.379	12.23
701.407	13.23
701.435	-3.77
701.464	4.23
701.492	11.23
701.52	2.23
701.549	-8.77
701.577	-3.77
701.605	-18.77
701.634	-7.77
701.662	8.23
701.69	-10.77
701.718	-10.77
701.747	11.23
701.775	5.23
701.803	2.23
701.831	3.23
701.86	-7.77
701.888	-6.77
701.916	-5.77
701.944	4.23
701.973	10.23
702.001	-4.77
702.029	-11.77
702.057	-24.77
702.086	-5.77
702.114	-1.77
702.142	-7.77
702.17	8.23
702.199	-9.77
702.227	22.23
702.255	-1.77
702.283	1.23
702.311	0.23
702.34	-6.77
702.368	-10.77
702.396	7.23
702.424	3.23
702.452	-2.77
702.481	-11.77
702.509	-7.77
702.537	16.23
702.565	-5.77
702.593	2.23
702.621	9.23
702.65	16.23
702.678	5.23
702.706	18.23
702.734	-3.77
702.762	1.23
702.79	-1.77
702.819	5.23
702.847	4.23
702.875	9.23
702.903	16.23
702.931	3.23
702.959	18.23
702.988	7.23
703.016	4.23
703.044	0.23
703.072	-4.77
703.1	-6.77
703.128	4.23
703.156	2.23
703.184	15.23
703.212	7.23
703.241	6.23
703.269	13.23
703.297	4.23
703.325	22.23
703.353	-20.77
703.381	-10.77
703.409	0.23
703.437	0.23
703.465	-1.77
703.493	-5.77
703.522	-7.77
703.55	22.23
703.578	10.23
703.606	-8.77
703.634	-2.77
703.662	-6.77
703.69	0.23
703.718	14.23
703.746	16.23
703.774	3.23
703.802	25.23
703.83	5.23
703.858	7.23
703.886	-8.77
703.914	0.23
703.942	15.23
703.97	-3.77
703.998	-5.77
704.027	9.23
704.055	7.23
704.083	-4.77
704.111	-0.77
704.139	4.23
704.167	11.23
704.195	2.23
704.223	-2.77
704.251	6.23
704.279	-1.77
704.307	9.23
704.335	-12.77
704.363	5.23
704.391	7.23
704.419	0.23
704.447	1.23
704.475	-9.77
704.503	-1.77
704.531	14.23
704.558	9.23
704.586	7.23
704.614	5.23
704.642	3.23
704.67	-6.77
704.698	16.23
704.726	25.23
704.754	11.23
704.782	0.23
704.81	4.23
704.838	25.23
704.866	-3.77
704.894	-14.77
704.922	-4.77
704.95	9.23
704.978	16.23
705.006	0.23
705.034	6.23
705.061	-2.77
705.089	10.23
705.117	-5.77
705.145	-6.77
705.173	4.23
705.201	-0.77
705.229	10.23
705.257	-2.77
705.285	28.23
705.313	4.23
705.34	-3.77
705.368	1.23
705.396	6.23
705.424	-0.77
705.452	-14.77
705.48	-3.77
705.508	8.23
705.536	6.23
705.563	8.23
705.591	3.23
705.619	-1.77
705.647	8.23
705.675	-0.77
705.703	-4.77
705.731	3.23
705.758	16.23
705.786	14.23
705.814	31.23
705.842	13.23
705.87	6.23
705.898	10.23
705.925	15.23
705.953	5.23
705.981	-6.77
706.009	2.23
706.037	10.23
706.065	1.23
706.092	-6.77
706.12	16.23
706.148	10.23
706.176	0.23
706.204	2.23
706.231	-1.77
706.259	0.23
706.287	-7.77
706.315	-1.77
706.342	-6.77
706.37	8.23
706.398	9.23
706.426	10.23
706.454	4.23
706.481	14.23
706.509	6.23
706.537	-7.77
706.565	-19.77
706.592	15.23
706.62	3.23
706.648	0.23
706.676	-8.77
706.703	-5.77
706.731	0.23
706.759	-6.77
706.787	12.23
706.814	-3.77
706.842	-3.77
706.87	23.23
706.897	20.23
706.925	-7.77
706.953	14.23
706.981	10.23
707.008	17.23
707.036	8.23
707.064	-1.77
707.091	-15.77
707.119	8.23
707.147	5.23
707.174	1.23
707.202	21.23
707.23	8.23
707.258	13.23
707.285	-10.77
707.313	0.23
707.341	8.23
707.368	-15.77
707.396	-11.77
707.424	16.23
707.451	9.23
707.479	6.23
707.507	9.23
707.534	4.23
707.562	9.23
707.59	-4.77
707.617	4.23
707.645	4.23
707.672	-5.77
707.7	8.23
707.728	18.23
707.755	13.23
707.783	-4.77
707.811	15.23
707.838	11.23
707.866	0.23
707.893	-15.77
707.921	-5.77
707.949	-2.77
707.976	7.23
708.004	3.23
708.031	6.23
708.059	10.23
708.087	-4.77
708.114	-4.77
708.142	-9.77
708.169	-1.77
708.197	-8.77
708.225	0.23
708.252	2.23
708.28	6.23
708.307	-6.77
708.335	-5.77
708.362	-3.77
708.39	-12.77
708.418	2.23
708.445	-5.77
708.473	-11.77
708.5	2.23
708.528	14.23
708.555	12.23
708.583	-1.77
708.61	-2.77
708.638	5.23
708.665	-5.77
708.693	2.23
708.72	-24.77
708.748	-4.77
708.776	-6.77
708.803	9.23
708.831	18.23
708.858	5.23
708.886	12.23
708.913	18.23
708.941	-2.77
708.968	5.23
708.996	4.23
709.023	40.23
709.051	-3.77
709.078	6.23
709.105	-1.77
709.133	-4.77
709.16	2.23
709.188	13.23
709.215	10.23
709.243	11.23
709.27	-5.77
709.298	-0.77
709.325	-9.77
709.353	-3.77
709.38	-0.77
709.408	3.23
709.435	4.23
709.462	7.23
709.49	10.23
709.517	-1.77
709.545	-0.77
709.572	-7.77
709.6	-8.77
709.627	6.23
709.655	-5.77
709.682	0.23
709.709	-2.77
709.737	6.23
709.764	-4.77
709.792	21.23
709.819	11.23
709.846	2.23
709.874	20.23
709.901	4.23
709.929	4.23
709.956	4.23
709.983	4.23
710.011	-5.77
710.038	-0.77
710.066	25.23
710.093	24.23
710.12	6.23
710.148	5.23
710.175	-8.77
710.202	2.23
710.23	21.23
710.257	-2.77
710.284	0.23
710.312	-2.77
710.339	0.23
710.366	10.23
710.394	10.23
710.421	7.23
710.448	16.23
710.476	-14.77
710.503	-8.77
710.53	13.23
710.558	13.23
710.585	22.23
710.612	-4.77
710.64	-7.77
710.667	-5.77
710.694	-6.77
710.722	5.23
710.749	2.23
710.776	6.23
710.804	10.23
710.831	-6.77
710.858	-11.77
710.885	-20.77
710.913	-6.77
710.94	21.23
710.967	6.23
710.995	4.23
711.022	-6.77
711.049	0.23
711.076	5.23
711.104	13.23
711.131	-5.77
711.158	17.23
711.185	18.23
711.213	-13.77
711.24	-6.77
711.267	-0.77
711.294	-7.77
711.322	8.23
711.349	-9.77
711.376	-7.77
711.403	-13.77
711.431	-22.77
711.458	-7.77
711.485	-9.77
711.512	10.23
711.54	-0.77
711.567	5.23
711.594	7.23
711.621	12.23
711.648	-0.77
711.676	0.23
711.703	16.23
711.73	-16.77
711.757	2.23
711.784	2.23
711.812	5.23
711.839	6.23
711.866	-5.77
711.893	-8.77
711.92	6.23
711.947	1.23
711.975	-8.77
712.002	-4.77
712.029	18.23
712.056	10.23
712.083	14.23
712.11	-3.77
712.138	15.23
712.165	1.23
712.192	-10.77
712.219	5.23
712.246	3.23
712.273	0.23
712.3	-14.77
712.328	1.23
712.355	18.23
712.382	0.23
712.409	14.23
712.436	-9.77
712.463	11.23
712.49	8.23
712.517	16.23
712.544	8.23
712.572	12.23
712.599	5.23
712.626	11.23
712.653	0.23
712.68	-3.77
712.707	5.23
712.734	8.23
712.761	-4.77
712.788	7.23
712.815	15.23
712.842	9.23
712.87	4.23
712.897	-1.77
712.924	4.23
712.951	2.23
712.978	4.23
713.005	18.23
713.032	14.23
713.059	9.23
713.086	-3.77
713.113	-1.77
713.14	-4.77
713.167	6.23
713.194	-2.77
713.221	4.23
713.248	24.23
713.275	0.23
713.302	-3.77
713.329	16.23
713.356	22.23
713.383	12.23
713.41	-1.77
713.437	-2.77
713.464	0.23
713.491	10.23
713.518	0.23
713.545	3.23
713.572	7.23
713.599	19.23
713.626	3.23
713.653	4.23
713.68	-2.77
713.707	17.23
713.734	19.23
713.761	-4.77
713.788	2.23
713.815	10.23
713.842	-6.77
713.869	0.23
713.896	3.23
713.923	12.23
713.95	7.23
713.977	5.23
714.004	7.23
714.031	2.23
714.058	7.23
714.085	-7.77
714.112	29.23
714.139	7.23
714.165	-3.77
714.192	3.23
714.219	9.23
714.246	-2.77
714.273	-2.77
714.3	20.23
714.327	11.23
714.354	5.23
714.381	7.23
714.408	-4.77
714.435	-9.77
714.461	-4.77
714.488	10.23
714.515	-8.77
714.542	-9.77
714.569	0.23
714.596	-3.77
714.623	10.23
714.65	-0.77
714.677	1.23
714.703	-4.77
714.73	1.23
714.757	17.23
714.784	9.23
714.811	-8.77
714.838	1.23
714.865	-2.77
714.891	2.23
714.918	2.23
714.945	-10.77
714.972	1.23
714.999	14.23
715.026	5.23
715.052	11.23
715.079	8.23
715.106	0.23
715.133	1.23
715.16	6.23
715.187	8.23
715.213	27.23
715.24	-11.77
715.267	-4.77
715.294	1.23
715.321	-3.77
715.347	1.23
715.374	-1.77
715.401	-7.77
715.428	-5.77
715.455	5.23
715.481	4.23
715.508	0.23
715.535	7.23
715.562	22.23
715.588	13.23
715.615	-0.77
715.642	1.23
715.669	-0.77
715.695	-8.77
715.722	-6.77
715.749	9.23
715.776	5.23
715.802	2.23
715.829	8.23
715.856	-3.77
715.883	11.23
715.909	1.23
715.936	-2.77
715.963	4.23
715.99	0.23
716.016	0.23
716.043	-2.77
716.07	-14.77
716.096	-21.77
716.123	9.23
716.15	4.23
716.177	-8.77
716.203	16.23
716.23	3.23
716.257	8.23
716.283	28.23
716.31	6.23
716.337	-7.77
716.363	-16.77
716.39	-1.77
716.417	-0.77
716.443	-5.77
716.47	7.23
716.497	5.23
716.523	17.23
716.55	7.23
716.577	-3.77
716.603	2.23
716.63	-7.77
716.657	16.23
716.683	0.23
716.71	2.23
716.737	-14.77
716.763	-7.77
716.79	-2.77
716.817	8.23
716.843	-10.77
716.87	-1.77
716.897	1.23
716.923	22.23
716.95	-0.77
716.976	5.23
717.003	4.23
717.03	4.23
717.056	21.23
717.083	8.23
717.109	-3.77
717.136	8.23
717.163	1.23
717.189	4.23
717.216	5.23
717.242	5.23
717.269	0.23
717.296	6.23
717.322	5.23
717.349	2.23
717.375	2.23
717.402	0.23
717.428	6.23
717.455	0.23
717.481	1.23
717.508	13.23
717.535	1.23
717.561	7.23
717.588	-7.77
717.614	-1.77
717.641	0.23
717.667	-1.77
717.694	-1.77
717.72	6.23
717.747	24.23
717.773	1.23
717.8	10.23
717.826	-5.77
717.853	9.23
717.88	4.23
717.906	2.23
717.933	17.23
717.959	3.23
717.986	16.23
718.012	-11.77
718.039	14.23
718.065	7.23
718.092	0.23
718.118	-5.77
718.144	-8.77
718.171	18.23
718.197	20.23
718.224	1.23
718.25	13.23
718.277	12.23
718.303	-2.77
718.33	-4.77
718.356	-15.77
718.383	-11.77
718.409	-0.77
718.436	-6.77
718.462	0.23
718.489	0.23
718.515	13.23
718.541	11.23
718.568	-3.77
718.594	10.23
718.621	-6.77
718.647	-3.77
718.674	4.23
718.7	3.23
718.726	1.23
718.753	4.23
718.779	12.23
718.806	5.23
718.832	-4.77
718.858	-1.77
718.885	4.23
718.911	12.23
718.938	-2.77
718.964	-18.77
718.99	15.23
719.017	7.23
719.043	14.23
719.07	9.23
719.096	1.23
719.122	6.23
719.149	17.23
719.175	4.23
719.201	11.23
719.228	-1.77
719.254	2.23
719.281	9.23
719.307	-0.77
719.333	-4.77
719.36	18.23
719.386	-10.77
719.412	2.23
719.439	-20.77
719.465	0.23
719.491	10.23
719.518	11.23
719.544	-3.77
719.57	5.23
719.597	4.23
719.623	4.23
719.649	14.23
719.675	10.23
719.702	17.23
719.728	17.23
719.754	-6.77
719.781	-11.77
719.807	3.23
719.833	-6.77
719.86	0.23
719.886	-3.77
719.912	2.23
719.938	-0.77
719.965	-4.77
719.991	10.23
720.017	4.23
720.044	-13.77
720.07	2.23
720.096	-7.77
720.122	1.23
720.149	6.23
720.175	16.23
720.201	21.23
720.227	1.23
720.254	6.23
720.28	1.23
720.306	-10.77
720.332	-2.77
720.359	9.23
720.385	17.23
720.411	-1.77
720.437	14.23
720.463	0.23
720.49	13.23
720.516	-2.77
720.542	-22.77
720.568	-7.77
720.595	7.23
720.621	3.23
720.647	2.23
720.673	-0.77
720.699	-12.77
720.725	-9.77
720.752	7.23
720.778	9.23
720.804	7.23
720.83	10.23
720.856	-6.77
720.883	2.23
720.909	19.23
720.935	7.23
720.961	11.23
720.987	4.23
721.013	2.23
721.04	-7.77
721.066	4.23
721.092	11.23
721.118	9.23
721.144	14.23
721.17	2.23
721.196	2.23
721.223	4.23
721.249	7.23
721.275	18.23
721.301	4.23
721.327	16.23
721.353	11.23
721.379	7.23
721.405	6.23
721.432	18.23
721.458	-3.77
721.484	8.23
721.51	-8.77
721.536	7.23
721.562	14.23
721.588	-0.77
721.614	-15.77
721.64	-0.77
721.666	1.23
721.693	-3.77
721.719	6.23
721.745	8.23
721.771	-14.77
721.797	-0.77
721.823	13.23
721.849	18.23
721.875	6.23
721.901	13.23
721.927	0.23
721.953	9.23
721.979	19.23
722.005	21.23
722.031	1.23
722.057	5.23
722.083	7.23
722.109	0.23
722.135	0.23
722.161	8.23
722.187	9.23
722.214	3.23
722.24	-0.77
722.266	1.23
722.292	10.23
722.318	13.23
722.344	2.23
722.37	5.23
722.396	12.23
722.422	6.23
722.448	15.23
722.474	-2.77
722.5	14.23
722.526	2.23
722.552	-3.77
722.578	17.23
722.603	2.23
722.629	5.23
722.655	6.23
722.681	-1.77
722.707	-5.77
722.733	7.23
722.759	-13.77
722.785	9.23
722.811	7.23
722.837	-2.77
722.863	3.23
722.889	3.23
722.915	8.23
722.941	-1.77
722.967	17.23
722.993	9.23
723.019	2.23
723.045	10.23
723.071	0.23
723.097	-1.77
723.122	5.23
723.148	0.23
723.174	-1.77
723.2	7.23
723.226	-0.77
723.252	1.23
723.278	-7.77
723.304	5.23
723.33	10.23
723.356	-3.77
723.381	4.23
723.407	7.23
723.433	26.23
723.459	8.23
723.485	-10.77
723.511	6.23
723.537	-0.77
723.563	8.23
723.588	4.23
723.614	22.23
723.64	11.23
723.666	8.23
723.692	19.23
723.718	10.23
723.744	2.23
723.769	2.23
723.795	-4.77
723.821	23.23
723.847	-1.77
723.873	10.23
723.899	10.23
723.924	-4.77
723.95	9.23
723.976	-17.77
724.002	22.23
724.028	2.23
724.053	-1.77
724.079	-7.77
724.105	5.23
724.131	10.23
724.157	8.23
724.182	11.23
724.208	-2.77
724.234	4.23
724.26	-5.77
724.286	17.23
724.311	6.23
724.337	-7.77
724.363	5.23
724.389	-0.77
724.415	-2.77
724.44	13.23
724.466	1.23
724.492	-10.77
724.518	9.23
724.543	7.23
724.569	9.23
724.595	13.23
724.621	-0.77
724.646	2.23
724.672	4.23
724.698	-6.77
724.723	1.23
724.749	-1.77
724.775	12.23
724.801	-0.77
724.826	-11.77
724.852	7.23
724.878	0.23
724.904	-19.77
724.929	-0.77
724.955	-6.77
724.981	8.23
725.006	-5.77
725.032	0.23
725.058	5.23
725.083	5.23
725.109	1.23
725.135	-3.77
725.161	12.23
725.186	9.23
725.212	-6.77
725.238	8.23
725.263	2.23
725.289	-6.77
725.315	-2.77
725.34	9.23
725.366	14.23
725.392	13.23
725.417	7.23
725.443	8.23
725.468	10.23
725.494	14.23
725.52	7.23
725.545	-7.77
725.571	-12.77
725.597	-9.77
725.622	13.23
725.648	8.23
725.674	1.23
725.699	12.23
725.725	6.23
725.75	17.23
725.776	-4.77
725.802	-0.77
725.827	15.23
725.853	6.23
725.878	5.23
725.904	4.23
725.93	-5.77
725.955	-11.77
725.981	-5.77
726.006	-6.77
726.032	5.23
726.057	-8.77
726.083	-1.77
726.109	2.23
726.134	2.23
726.16	2.23
726.185	-7.77
726.211	-3.77
726.236	5.23
726.262	12.23
726.288	21.23
726.313	13.23
726.339	5.23
726.364	5.23
726.39	11.23
726.415	8.23
726.441	0.23
726.466	-18.77
726.492	-5.77
726.517	21.23
726.543	9.23
726.568	-5.77
726.594	6.23
726.619	8.23
726.645	5.23
726.67	14.23
726.696	4.23
726.721	1.23
726.747	-15.77
726.772	8.23
726.798	4.23
726.823	16.23
726.849	5.23
726.874	-1.77
726.9	20.23
726.925	5.23
726.951	4.23
726.976	13.23
727.002	-7.77
727.027	1.23
727.053	6.23
727.078	6.23
727.104	-0.77
727.129	-4.77
727.155	16.23
727.18	5.23
727.205	1.23
727.231	0.23
727.256	-1.77
727.282	0.23
727.307	25.23
727.333	7.23
727.358	5.23
727.383	-1.77
727.409	-10.77
727.434	13.23
727.46	14.23
727.485	-2.77
727.511	3.23
727.536	-11.77
727.561	-13.77
727.587	-3.77
727.612	-3.77
727.637	-7.77
727.663	-7.77
727.688	20.23
727.714	4.23
727.739	-1.77
727.764	-9.77
727.79	1.23
727.815	22.23
727.841	14.23
727.866	16.23
727.891	6.23
727.917	-3.77
727.942	0.23
727.967	0.23
727.993	-10.77
728.018	-9.77
728.043	5.23
728.069	22.23
728.094	13.23
728.119	-6.77
728.145	15.23
728.17	6.23
728.195	8.23
728.221	13.23
728.246	-6.77
728.271	-0.77
728.297	5.23
728.322	-0.77
728.347	17.23
728.373	5.23
728.398	15.23
728.423	4.23
728.448	2.23
728.474	-6.77
728.499	-1.77
728.524	0.23
728.55	-7.77
728.575	5.23
728.6	5.23
728.625	-11.77
728.651	-0.77
728.676	0.23
728.701	-3.77
728.727	-2.77
728.752	10.23
728.777	-3.77
728.802	6.23
728.828	2.23
728.853	-1.77
728.878	5.23
728.903	-15.77
728.929	-15.77
728.954	5.23
728.979	17.23
729.004	6.23
729.03	0.23
729.055	25.23
729.08	-2.77
729.105	1.23
729.13	16.23
729.156	10.23
729.181	9.23
729.206	-1.77
729.231	10.23
729.256	18.23
729.282	5.23
729.307	-9.77
729.332	-5.77
729.357	-20.77
729.382	-16.77
729.408	5.23
729.433	6.23
729.458	10.23
729.483	16.23
729.508	17.23
729.533	21.23
729.559	7.23
729.584	-10.77
729.609	12.23
729.634	14.23
729.659	0.23
729.684	-1.77
729.71	10.23
729.735	-0.77
729.76	-6.77
729.785	-8.77
729.81	16.23
729.835	11.23
729.86	4.23
729.886	10.23
729.911	-7.77
729.936	5.23
729.961	2.23
729.986	-14.77
730.011	1.23
730.036	-6.77
730.061	-8.77
730.086	11.23
730.112	7.23
730.137	24.23
730.162	3.23
730.187	-18.77
730.212	14.23
730.237	-1.77
730.262	-3.77
730.287	1.23
730.312	15.23
730.337	0.23
730.362	21.23
730.387	6.23
730.413	-12.77
730.438	6.23
730.463	1.23
730.488	7.23
730.513	-2.77
730.538	1.23
730.563	5.23
730.588	15.23
730.613	-1.77
730.638	-0.77
730.663	1.23
730.688	17.23
730.713	13.23
730.738	-1.77
730.763	-0.77
730.788	-6.77
730.813	-3.77
730.838	-5.77
730.863	-8.77
730.888	-5.77
730.913	-8.77
730.938	-9.77
730.963	-7.77
730.988	9.23
731.013	18.23
731.038	15.23
731.063	11.23
731.088	2.23
731.113	5.23
731.138	0.23
731.163	-1.77
731.188	-19.77
731.213	9.23
731.238	26.23
731.263	-1.77
731.288	21.23
731.313	12.23
731.338	9.23
731.363	10.23
731.388	11.23
731.413	5.23
731.438	18.23
731.463	13.23
731.487	14.23
731.512	10.23
731.537	-2.77
731.562	-6.77
731.587	-3.77
731.612	-2.77
731.637	4.23
731.662	-1.77
731.687	5.23
731.712	-18.77
731.737	1.23
731.762	7.23
731.786	-1.77
731.811	5.23
731.836	-0.77
731.861	-2.77
731.886	-9.77
731.911	5.23
731.936	1.23
731.961	-5.77
731.986	5.23
732.01	-1.77
732.035	8.23
732.06	10.23
732.085	-6.77
732.11	8.23
732.135	-9.77
732.16	2.23
732.184	22.23
732.209	-7.77
732.234	10.23
732.259	-13.77
732.284	21.23
732.309	0.23
732.334	-0.77
732.358	-3.77
732.383	-1.77
732.408	-4.77
732.433	12.23
732.458	-3.77
732.482	-5.77
732.507	-5.77
732.532	-1.77
732.557	4.23
732.582	16.23
732.607	-0.77
732.631	-7.77
732.656	-16.77
732.681	7.23
732.706	13.23
732.73	0.23
732.755	-4.77
732.78	2.23
732.805	5.23
732.83	1.23
732.854	3.23
732.879	14.23
732.904	-1.77
732.929	6.23
732.953	10.23
732.978	13.23
733.003	-13.77
733.028	15.23
733.052	9.23
733.077	14.23
733.102	8.23
733.127	-11.77
733.151	-8.77
733.176	0.23
733.201	-3.77
733.226	0.23
733.25	-15.77
733.275	3.23
733.3	1.23
733.324	17.23
733.349	6.23
733.374	16.23
733.399	-21.77
733.423	-2.77
733.448	6.23
733.473	-7.77
733.497	8.23
733.522	-3.77
733.547	7.23
733.571	24.23
733.596	7.23
733.621	17.23
733.646	5.23
733.67	6.23
733.695	-18.77
733.72	6.23
733.744	14.23
733.769	9.23
733.794	2.23
733.818	7.23
733.843	8.23
733.867	-8.77
733.892	-17.77
733.917	0.23
733.941	-11.77
733.966	0.23
733.991	1.23
734.015	15.23
734.04	-2.77
734.065	6.23
734.089	11.23
734.114	-8.77
734.138	5.23
734.163	-1.77
734.188	6.23
734.212	9.23
734.237	13.23
734.261	1.23
734.286	-7.77
734.311	-0.77
734.335	9.23
734.36	4.23
734.384	13.23
734.409	1.23
734.434	8.23
734.458	13.23
734.483	-4.77
734.507	-10.77
734.532	1.23
734.556	5.23
734.581	5.23
734.606	-0.77
734.63	-11.77
734.655	0.23
734.679	0.23
734.704	11.23
734.728	4.23
734.753	1.23
734.777	13.23
734.802	7.23
734.826	1.23
734.851	-3.77
734.876	4.23
734.9	9.23
734.925	4.23
734.949	0.23
734.974	0.23
734.998	9.23
735.023	-2.77
735.047	5.23
735.072	18.23
735.096	16.23
735.121	10.23
735.145	9.23
735.17	16.23
735.194	21.23
735.219	4.23
735.243	10.23
735.268	4.23
735.292	1.23
735.317	-5.77
735.341	-6.77
735.365	-11.77
735.39	4.23
735.414	14.23
735.439	7.23
735.463	-7.77
735.488	10.23
735.512	9.23
735.537	-3.77
735.561	-8.77
735.586	-11.77
735.61	21.23
735.634	-4.77
735.659	24.23
735.683	20.23
735.708	-0.77
735.732	-8.77
735.757	-1.77
735.781	3.23
735.805	5.23
735.83	-2.77
735.854	3.23
735.879	2.23
735.903	20.23
735.927	6.23
735.952	10.23
735.976	12.23
736.001	-2.77
736.025	6.23
736.049	4.23
736.074	23.23
736.098	14.23
736.123	14.23
736.147	-6.77
736.171	-1.77
736.196	-0.77
736.22	-6.77
736.244	6.23
736.269	9.23
736.293	-1.77
736.317	-1.77
736.342	5.23
736.366	4.23
736.39	14.23
736.415	1.23
736.439	7.23
736.463	6.23
736.488	11.23
736.512	-7.77
736.536	10.23
736.561	15.23
736.585	2.23
736.609	18.23
736.634	-1.77
736.658	0.23
736.682	1.23
736.707	-5.77
736.731	-3.77
736.755	18.23
736.78	17.23
736.804	5.23
736.828	1.23
736.852	5.23
736.877	10.23
736.901	12.23
736.925	7.23
736.949	19.23
736.974	2.23
736.998	-1.77
737.022	-5.77
737.047	9.23
737.071	-6.77
737.095	13.23
737.119	18.23
737.144	10.23
737.168	5.23
737.192	11.23
737.216	6.23
737.241	0.23
737.265	-2.77
737.289	-9.77
737.313	-2.77
737.337	7.23
737.362	-2.77
737.386	0.23
737.41	-1.77
737.434	7.23
737.459	1.23
737.483	10.23
737.507	16.23
737.531	12.23
737.555	10.23
737.58	7.23
737.604	1.23
737.628	-2.77
737.652	-3.77
737.676	5.23
737.701	-3.77
737.725	-1.77
737.749	3.23
737.773	-11.77
737.797	-9.77
737.821	5.23
737.846	13.23
737.87	14.23
737.894	1.23
737.918	1.23
737.942	-15.77
737.966	14.23
737.99	5.23
738.015	-1.77
738.039	9.23
738.063	-8.77
738.087	13.23
738.111	-3.77
738.135	9.23
738.159	4.23
738.184	7.23
738.208	14.23
738.232	-0.77
738.256	17.23
738.28	12.23
738.304	29.23
738.328	-6.77
738.352	11.23
738.376	3.23
738.4	0.23
738.425	10.23
738.449	-2.77
738.473	16.23
738.497	-2.77
738.521	-0.77
738.545	-2.77
738.569	-1.77
738.593	11.23
738.617	0.23
738.641	8.23
738.665	12.23
738.689	8.23
738.713	0.23
738.737	-0.77
738.762	3.23
738.786	0.23
738.81	-18.77
738.834	4.23
738.858	-10.77
738.882	11.23
738.906	-4.77
738.93	7.23
738.954	13.23
738.978	6.23
739.002	0.23
739.026	5.23
739.05	8.23
739.074	-0.77
739.098	25.23
739.122	4.23
739.146	16.23
739.17	24.23
739.194	5.23
739.218	-15.77
739.242	-0.77
739.266	-10.77
739.29	-1.77
739.314	10.23
739.338	11.23
739.362	0.23
739.386	-1.77
739.41	-6.77
739.434	-17.77
739.458	2.23
739.482	8.23
739.506	28.23
739.53	5.23
739.554	12.23
739.577	2.23
739.601	14.23
739.625	-5.77
739.649	2.23
739.673	4.23
739.697	5.23
739.721	0.23
739.745	2.23
739.769	9.23
739.793	18.23
739.817	24.23
739.841	0.23
739.865	5.23
739.889	2.23
739.912	9.23
739.936	6.23
739.96	4.23
739.984	10.23
740.008	-5.77
740.032	-3.77
740.056	0.23
740.08	-2.77
740.104	-13.77
740.127	10.23
740.151	24.23
740.175	22.23
740.199	13.23
740.223	40.23
740.247	9.23
740.271	17.23
740.295	5.23
740.318	9.23
740.342	-2.77
740.366	21.23
740.39	2.23
740.414	-6.77
740.438	2.23
740.461	15.23
740.485	6.23
740.509	-6.77
740.533	5.23
740.557	7.23
740.581	0.23
740.604	-10.77
740.628	2.23
740.652	13.23
740.676	-3.77
740.7	14.23
740.723	-16.77
740.747	-4.77
740.771	-7.77
740.795	-4.77
740.819	4.23
740.842	1.23
740.866	9.23
740.89	18.23
740.914	2.23
740.938	-10.77
740.961	7.23
740.985	-0.77
741.009	0.23
741.033	0.23
741.056	-5.77
741.08	22.23
741.104	2.23
741.128	-3.77
741.151	16.23
741.175	-10.77
741.199	0.23
741.223	10.23
741.246	-0.77
741.27	15.23
741.294	12.23
741.318	9.23
741.341	-0.77
741.365	5.23
741.389	-4.77
741.413	27.23
741.436	12.23
741.46	-0.77
741.484	16.23
741.507	-6.77
741.531	16.23
741.555	15.23
741.579	5.23
741.602	9.23
741.626	14.23
741.65	0.23
741.673	-1.77
741.697	1.23
741.721	1.23
741.744	2.23
741.768	6.23
741.792	3.23
741.815	-1.77
741.839	20.23
741.863	23.23
741.886	15.23
741.91	9.23
741.934	-2.77
741.957	-15.77
741.981	10.23
742.005	12.23
742.028	-0.77
742.052	10.23
742.075	16.23
742.099	21.23
742.123	4.23
742.146	-1.77
742.17	-2.77
742.194	-5.77
742.217	-0.77
742.241	18.23
742.264	1.23
742.288	26.23
742.312	5.23
742.335	14.23
742.359	5.23
742.382	16.23
742.406	-1.77
742.43	-9.77
742.453	13.23
742.477	-8.77
742.5	1.23
742.524	1.23
742.548	-6.77
742.571	-8.77
742.595	-10.77
742.618	-10.77
742.642	2.23
742.665	11.23
742.689	-8.77
742.712	-0.77
742.736	-0.77
742.76	2.23
742.783	-1.77
742.807	-0.77
742.83	6.23
742.854	-1.77
742.877	-1.77
742.901	-0.77
742.924	-3.77
742.948	-4.77
742.971	8.23
742.995	-1.77
743.018	6.23
743.042	1.23
743.065	7.23
743.089	-4.77
743.112	12.23
743.136	-1.77
743.159	-6.77
743.183	-2.77
743.206	12.23
743.23	-8.77
743.253	-5.77
743.277	4.23
743.3	-3.77
743.324	-0.77
743.347	-6.77
743.371	21.23
743.394	19.23
743.418	16.23
743.441	19.23
743.465	6.23
743.488	6.23
743.512	11.23
743.535	13.23
743.558	0.23
743.582	-3.77
743.605	5.23
743.629	14.23
743.652	6.23
743.676	-4.77
743.699	9.23
743.723	0.23
743.746	7.23
743.769	7.23
743.793	6.23
743.816	12.23
743.84	16.23
743.863	-1.77
743.886	6.23
743.91	16.23
743.933	10.23
743.957	8.23
743.98	-2.77
744.003	13.23
744.027	7.23
744.05	-0.77
744.074	4.23
744.097	-13.77
744.12	13.23
744.144	-0.77
744.167	10.23
744.19	8.23
744.214	7.23
744.237	-3.77
744.26	16.23
744.284	5.23
744.307	1.23
744.331	5.23
744.354	-11.77
744.377	10.23
744.401	23.23
744.424	1.23
744.447	7.23
744.471	-3.77
