Data from HighRes_H2D2_15_04_11_07_2024_HR4C61891__95__15-05-43-942.txt Node

Date: Thu Nov 07 15:05:43 EST 2024
User: crc00042
Spectrometer: HR4C6189
Trigger mode: 4
Integration Time (sec): 1.000000E-1
Scans to average: 1
Electric dark correction enabled: true
Nonlinearity correction enabled: false
Boxcar width: 0
XAxis mode: Wavelengths
Number of Pixels in Spectrum: 3648
>>>>>Begin Spectral Data<<<<<
639.567	-39
639.602	-39
639.636	-39
639.67	-52
639.704	-25
639.738	-14
639.773	-5
639.807	-16
639.841	-3
639.875	24
639.909	11
639.943	12
639.978	2
640.012	-4
640.046	-3
640.08	4
640.114	0
640.148	-8
640.182	-11
640.217	0
640.251	14
640.285	18
640.319	-15
640.353	16
640.387	-7
640.421	12
640.455	1
640.49	0
640.524	3
640.558	6
640.592	15
640.626	0
640.66	4
640.694	4
640.728	-3
640.762	8
640.796	22
640.83	16
640.865	-8
640.899	-13
640.933	-7
640.967	6
641.001	0
641.035	-2
641.069	5
641.103	0
641.137	14
641.171	-14
641.205	25
641.239	3
641.273	13
641.307	-5
641.341	8
641.375	5
641.409	6
641.443	6
641.477	6
641.511	15
641.545	10
641.579	9
641.614	10
641.648	7
641.682	-5
641.716	12
641.75	-4
641.784	-3
641.818	11
641.852	-5
641.886	-7
641.919	20
641.953	15
641.987	-14
642.021	-5
642.055	10
642.089	4
642.123	-16
642.157	-2
642.191	-13
642.225	16
642.259	8
642.293	16
642.327	10
642.361	6
642.395	21
642.429	21
642.463	26
642.497	16
642.531	-3
642.565	7
642.599	-3
642.633	-6
642.666	13
642.7	17
642.734	16
642.768	-4
642.802	-4
642.836	-4
642.87	2
642.904	12
642.938	16
642.972	6
643.005	5
643.039	9
643.073	-1
643.107	10
643.141	-1
643.175	3
643.209	-1
643.243	-1
643.276	1
643.31	-5
643.344	12
643.378	-1
643.412	3
643.446	-8
643.48	-13
643.513	13
643.547	-5
643.581	-4
643.615	5
643.649	2
643.683	11
643.716	13
643.75	16
643.784	-7
643.818	3
643.852	0
643.886	3
643.919	17
643.953	14
643.987	8
644.021	3
644.055	4
644.088	8
644.122	16
644.156	-15
644.19	-1
644.224	4
644.257	9
644.291	12
644.325	4
644.359	-1
644.392	7
644.426	6
644.46	-7
644.494	10
644.527	-8
644.561	9
644.595	8
644.629	-6
644.662	-6
644.696	18
644.73	4
644.764	3
644.797	-3
644.831	-6
644.865	10
644.899	18
644.932	27
644.966	13
645	17
645.033	9
645.067	0
645.101	3
645.135	4
645.168	-2
645.202	0
645.236	13
645.269	-2
645.303	-2
645.337	-17
645.37	-9
645.404	0
645.438	9
645.471	5
645.505	-4
645.539	1
645.572	4
645.606	-2
645.64	3
645.673	3
645.707	21
645.741	-3
645.774	-16
645.808	1
645.842	-5
645.875	11
645.909	-9
645.943	-4
645.976	-6
646.01	15
646.043	-7
646.077	-4
646.111	-3
646.144	11
646.178	14
646.212	-8
646.245	0
646.279	-7
646.312	2
646.346	20
646.38	2
646.413	2
646.447	5
646.48	9
646.514	21
646.547	0
646.581	1
646.615	3
646.648	0
646.682	8
646.715	11
646.749	18
646.782	-5
646.816	-2
646.85	-2
646.883	-8
646.917	3
646.95	23
646.984	14
647.017	4
647.051	11
647.084	6
647.118	0
647.151	3
647.185	9
647.218	10
647.252	19
647.285	-19
647.319	-3
647.353	-10
647.386	4
647.42	-6
647.453	11
647.487	-4
647.52	3
647.553	3
647.587	5
647.62	10
647.654	8
647.687	3
647.721	1
647.754	3
647.788	16
647.821	-7
647.855	13
647.888	18
647.922	19
647.955	9
647.989	-12
648.022	3
648.055	15
648.089	11
648.122	11
648.156	6
648.189	10
648.223	7
648.256	12
648.29	8
648.323	8
648.356	13
648.39	13
648.423	13
648.457	6
648.49	19
648.523	20
648.557	6
648.59	7
648.624	6
648.657	-5
648.69	5
648.724	-11
648.757	8
648.791	12
648.824	11
648.857	16
648.891	-3
648.924	12
648.957	28
648.991	-13
649.024	14
649.057	-1
649.091	5
649.124	12
649.158	11
649.191	21
649.224	4
649.258	21
649.291	10
649.324	-8
649.358	2
649.391	1
649.424	-1
649.458	2
649.491	0
649.524	-3
649.557	5
649.591	-1
649.624	30
649.657	9
649.691	19
649.724	-3
649.757	1
649.791	-8
649.824	18
649.857	11
649.89	-10
649.924	-4
649.957	-3
649.99	9
650.023	7
650.057	-7
650.09	15
650.123	-9
650.157	-13
650.19	11
650.223	-4
650.256	-9
650.29	-3
650.323	8
650.356	2
650.389	11
650.423	-3
650.456	16
650.489	14
650.522	22
650.555	15
650.589	19
650.622	16
650.655	19
650.688	2
650.721	9
650.755	12
650.788	19
650.821	23
650.854	6
650.887	12
650.921	13
650.954	0
650.987	-6
651.02	-7
651.053	-6
651.087	0
651.12	22
651.153	19
651.186	13
651.219	-8
651.252	8
651.286	12
651.319	-7
651.352	14
651.385	17
651.418	4
651.451	12
651.484	-1
651.518	-6
651.551	17
651.584	-11
651.617	26
651.65	10
651.683	24
651.716	0
651.749	-8
651.783	0
651.816	-2
651.849	-1
651.882	0
651.915	2
651.948	5
651.981	5
652.014	-15
652.047	0
652.08	-2
652.114	-9
652.147	3
652.18	-9
652.213	16
652.246	10
652.279	1
652.312	26
652.345	3
652.378	7
652.411	15
652.444	2
652.477	11
652.51	9
652.543	-1
652.576	12
652.609	-8
652.642	-3
652.675	7
652.709	-4
652.742	7
652.775	0
652.808	2
652.841	11
652.874	7
652.907	14
652.94	-6
652.973	-1
653.006	-3
653.039	4
653.072	2
653.105	-18
653.138	-3
653.171	12
653.204	-7
653.237	17
653.27	-1
653.303	15
653.336	16
653.368	-6
653.401	4
653.434	4
653.467	9
653.5	-4
653.533	-10
653.566	-1
653.599	-5
653.632	11
653.665	5
653.698	5
653.731	-4
653.764	11
653.797	1
653.83	3
653.863	0
653.896	8
653.929	-10
653.961	-4
653.994	11
654.027	-19
654.06	-4
654.093	4
654.126	5
654.159	-9
654.192	-7
654.225	7
654.258	-3
654.29	10
654.323	19
654.356	5
654.389	15
654.422	-8
654.455	2
654.488	0
654.521	-17
654.553	-10
654.586	-1
654.619	8
654.652	-1
654.685	15
654.718	17
654.751	7
654.783	-1
654.816	13
654.849	9
654.882	-2
654.915	-21
654.948	-4
654.98	4
655.013	6
655.046	6
655.079	5
655.112	5
655.144	4
655.177	12
655.21	11
655.243	13
655.276	1
655.308	10
655.341	-15
655.374	7
655.407	-15
655.44	-14
655.472	18
655.505	8
655.538	9
655.571	8
655.603	7
655.636	5
655.669	11
655.702	13
655.734	12
655.767	10
655.8	13
655.833	20
655.865	20
655.898	-1
655.931	18
655.964	32
655.996	18
656.029	36
656.062	54
656.095	46
656.127	72
656.16	218
656.193	624
656.225	957
656.258	558
656.291	213
656.324	167
656.356	346
656.389	789
656.422	684
656.454	227
656.487	85
656.52	36
656.552	29
656.585	23
656.618	19
656.65	1
656.683	4
656.716	-2
656.748	-3
656.781	2
656.814	-13
656.846	2
656.879	-4
656.912	3
656.944	-28
656.977	-5
657.01	7
657.042	14
657.075	9
657.108	-5
657.14	13
657.173	35
657.205	25
657.238	15
657.271	12
657.303	-6
657.336	1
657.369	7
657.401	-3
657.434	9
657.466	8
657.499	2
657.532	-6
657.564	17
657.597	5
657.629	14
657.662	6
657.694	-15
657.727	-7
657.76	-3
657.792	-9
657.825	-6
657.857	-9
657.89	-5
657.922	18
657.955	14
657.987	6
658.02	4
658.053	24
658.085	3
658.118	5
658.15	13
658.183	24
658.215	-7
658.248	-5
658.28	4
658.313	4
658.345	14
658.378	0
658.41	-1
658.443	4
658.475	5
658.508	-4
658.54	-12
658.573	-2
658.605	8
658.638	-8
658.67	3
658.703	2
658.735	-15
658.768	4
658.8	-1
658.833	8
658.865	27
658.898	-5
658.93	11
658.963	7
658.995	-4
659.028	21
659.06	-4
659.092	8
659.125	7
659.157	3
659.19	-3
659.222	3
659.255	11
659.287	-6
659.32	1
659.352	8
659.384	20
659.417	-3
659.449	17
659.482	16
659.514	-9
659.546	13
659.579	-10
659.611	11
659.644	-5
659.676	-7
659.708	3
659.741	-6
659.773	8
659.806	16
659.838	3
659.87	1
659.903	-18
659.935	-1
659.967	-2
660	-4
660.032	-16
660.065	13
660.097	2
660.129	2
660.162	-6
660.194	-5
660.226	-4
660.259	7
660.291	6
660.323	-3
660.356	8
660.388	-1
660.42	-4
660.453	11
660.485	19
660.517	34
660.55	16
660.582	4
660.614	21
660.647	-1
660.679	-5
660.711	9
660.743	0
660.776	-8
660.808	1
660.84	-2
660.873	-13
660.905	0
660.937	4
660.969	12
661.002	5
661.034	16
661.066	-2
661.099	6
661.131	16
661.163	11
661.195	5
661.228	13
661.26	-8
661.292	-6
661.324	1
661.357	1
661.389	5
661.421	-8
661.453	-2
661.485	22
661.518	18
661.55	-14
661.582	3
661.614	-3
661.647	5
661.679	18
661.711	1
661.743	-18
661.775	-7
661.808	15
661.84	2
661.872	19
661.904	3
661.936	-2
661.969	-6
662.001	-9
662.033	17
662.065	-8
662.097	6
662.129	-2
662.162	-1
662.194	-5
662.226	-6
662.258	-1
662.29	-2
662.322	0
662.355	-3
662.387	17
662.419	5
662.451	10
662.483	10
662.515	7
662.547	-5
662.58	-5
662.612	-14
662.644	-1
662.676	3
662.708	3
662.74	-4
662.772	-5
662.804	12
662.836	12
662.869	8
662.901	2
662.933	-5
662.965	21
662.997	4
663.029	-12
663.061	-13
663.093	-2
663.125	27
663.157	12
663.189	3
663.221	20
663.254	2
663.286	-1
663.318	-6
663.35	-2
663.382	-4
663.414	11
663.446	2
663.478	-2
663.51	20
663.542	2
663.574	0
663.606	-2
663.638	-4
663.67	-7
663.702	-1
663.734	-5
663.766	13
663.798	-2
663.83	13
663.862	11
663.894	4
663.926	1
663.958	17
663.99	16
664.022	-5
664.054	-2
664.086	-14
664.118	-4
664.15	7
664.182	12
664.214	-4
664.246	9
664.278	1
664.31	15
664.342	6
664.374	14
664.406	9
664.438	-6
664.47	9
664.502	-8
664.534	-2
664.566	-7
664.598	11
664.63	4
664.662	7
664.693	-10
664.725	-7
664.757	12
664.789	-1
664.821	-3
664.853	9
664.885	13
664.917	13
664.949	11
664.981	12
665.013	-3
665.045	-7
665.076	3
665.108	-3
665.14	-12
665.172	11
665.204	6
665.236	9
665.268	25
665.3	-1
665.331	-9
665.363	6
665.395	-4
665.427	-8
665.459	3
665.491	5
665.523	21
665.555	10
665.586	11
665.618	-2
665.65	0
665.682	5
665.714	17
665.746	5
665.777	7
665.809	3
665.841	-8
665.873	2
665.905	9
665.937	18
665.968	11
666	6
666.032	2
666.064	1
666.096	-2
666.127	15
666.159	22
666.191	21
666.223	-5
666.255	6
666.286	11
666.318	-8
666.35	14
666.382	-1
666.413	9
666.445	-2
666.477	-22
666.509	-3
666.54	11
666.572	3
666.604	6
666.636	8
666.667	18
666.699	12
666.731	11
666.763	2
666.794	15
666.826	-2
666.858	-23
666.89	14
666.921	-2
666.953	-15
666.985	7
667.017	27
667.048	21
667.08	2
667.112	-8
667.143	-17
667.175	4
667.207	-6
667.238	8
667.27	7
667.302	2
667.334	-6
667.365	15
667.397	1
667.429	-1
667.46	20
667.492	9
667.524	4
667.555	5
667.587	4
667.619	-3
667.65	-15
667.682	5
667.714	-3
667.745	19
667.777	12
667.808	5
667.84	15
667.872	9
667.903	28
667.935	-3
667.967	-2
667.998	6
668.03	-17
668.061	1
668.093	11
668.125	16
668.156	-5
668.188	-14
668.22	0
668.251	10
668.283	8
668.314	22
668.346	-6
668.377	-2
668.409	-10
668.441	16
668.472	7
668.504	11
668.535	12
668.567	23
668.599	-3
668.63	7
668.662	1
668.693	19
668.725	-1
668.756	17
668.788	-3
668.819	16
668.851	1
668.882	7
668.914	-3
668.946	8
668.977	-3
669.009	0
669.04	-4
669.072	7
669.103	14
669.135	10
669.166	12
669.198	6
669.229	8
669.261	3
669.292	-10
669.324	4
669.355	21
669.387	15
669.418	37
669.45	-5
669.481	15
669.513	12
669.544	2
669.576	-14
669.607	8
669.639	12
669.67	-8
669.701	11
669.733	-7
669.764	9
669.796	-17
669.827	-6
669.859	-5
669.89	-12
669.922	3
669.953	6
669.985	3
670.016	8
670.047	15
670.079	-6
670.11	15
670.142	12
670.173	4
670.204	2
670.236	-9
670.267	-6
670.299	12
670.33	5
670.362	10
670.393	-5
670.424	14
670.456	-8
670.487	-4
670.518	-1
670.55	10
670.581	0
670.613	-10
670.644	2
670.675	-8
670.707	3
670.738	-2
670.769	12
670.801	1
670.832	9
670.864	-1
670.895	4
670.926	2
670.958	10
670.989	-10
671.02	1
671.052	3
671.083	1
671.114	6
671.146	-6
671.177	-4
671.208	18
671.24	-3
671.271	8
671.302	11
671.333	3
671.365	1
671.396	-1
671.427	14
671.459	12
671.49	7
671.521	3
671.553	-1
671.584	22
671.615	-13
671.646	6
671.678	2
671.709	-13
671.74	-11
671.771	-10
671.803	-1
671.834	-4
671.865	-17
671.896	15
671.928	4
671.959	-8
671.99	-3
672.021	11
672.053	-12
672.084	14
672.115	13
672.146	-12
672.178	-20
672.209	8
672.24	5
672.271	20
672.303	10
672.334	-7
672.365	-8
672.396	-4
672.427	12
672.459	11
672.49	34
672.521	22
672.552	4
672.583	11
672.615	8
672.646	18
672.677	5
672.708	6
672.739	-10
672.77	15
672.802	6
672.833	1
672.864	5
672.895	4
672.926	11
672.957	-11
672.989	7
673.02	-19
673.051	-3
673.082	4
673.113	3
673.144	7
673.175	16
673.206	7
673.238	0
673.269	15
673.3	5
673.331	20
673.362	8
673.393	2
673.424	8
673.455	29
673.487	16
673.518	14
673.549	-18
673.58	0
673.611	-3
673.642	8
673.673	1
673.704	-3
673.735	0
673.766	-6
673.797	4
673.828	7
673.86	-3
673.891	-9
673.922	-1
673.953	-3
673.984	7
674.015	11
674.046	4
674.077	-2
674.108	-12
674.139	-7
674.17	3
674.201	-10
674.232	0
674.263	10
674.294	-3
674.325	-10
674.356	6
674.387	11
674.418	16
674.449	3
674.48	-23
674.511	9
674.542	10
674.573	-9
674.604	21
674.635	11
674.666	5
674.697	13
674.728	17
674.759	7
674.79	-2
674.821	-4
674.852	7
674.883	-6
674.914	4
674.945	11
674.976	4
675.007	-4
675.038	0
675.069	-32
675.1	-12
675.131	12
675.162	2
675.193	0
675.224	-2
675.254	6
675.285	-2
675.316	7
675.347	13
675.378	-13
675.409	-12
675.44	-4
675.471	-3
675.502	-13
675.533	17
675.564	1
675.595	0
675.625	15
675.656	12
675.687	23
675.718	4
675.749	21
675.78	22
675.811	6
675.842	16
675.873	-14
675.903	-4
675.934	13
675.965	-6
675.996	-4
676.027	2
676.058	-12
676.089	-5
676.119	-6
676.15	-3
676.181	-12
676.212	-3
676.243	10
676.274	11
676.304	11
676.335	0
676.366	15
676.397	11
676.428	8
676.459	13
676.489	11
676.52	1
676.551	8
676.582	2
676.613	5
676.643	-5
676.674	10
676.705	10
676.736	-13
676.767	2
676.797	0
676.828	7
676.859	12
676.89	2
676.92	7
676.951	9
676.982	23
677.013	5
677.044	17
677.074	6
677.105	2
677.136	-1
677.167	11
677.197	12
677.228	-7
677.259	-8
677.289	3
677.32	-10
677.351	-7
677.382	9
677.412	5
677.443	4
677.474	-1
677.505	0
677.535	14
677.566	13
677.597	-14
677.627	4
677.658	-15
677.689	-4
677.72	15
677.75	2
677.781	6
677.812	18
677.842	25
677.873	6
677.904	5
677.934	1
677.965	-2
677.996	-15
678.026	10
678.057	19
678.088	-4
678.118	2
678.149	4
678.18	-6
678.21	-9
678.241	-10
678.272	-5
678.302	-5
678.333	7
678.363	7
678.394	4
678.425	2
678.455	13
678.486	22
678.517	-10
678.547	5
678.578	1
678.608	-5
678.639	15
678.67	6
678.7	-2
678.731	-2
678.761	2
678.792	15
678.823	3
678.853	10
678.884	6
678.914	-4
678.945	2
678.975	-10
679.006	-8
679.037	-8
679.067	9
679.098	14
679.128	3
679.159	0
679.189	10
679.22	-16
679.25	13
679.281	-9
679.312	3
679.342	6
679.373	36
679.403	-2
679.434	11
679.464	1
679.495	7
679.525	7
679.556	-8
679.586	11
679.617	13
679.647	0
679.678	6
679.708	7
679.739	14
679.769	-3
679.8	-5
679.83	-10
679.861	9
679.891	-3
679.922	-18
679.952	-2
679.983	13
680.013	11
680.044	3
680.074	13
680.105	16
680.135	3
680.165	23
680.196	12
680.226	0
680.257	8
680.287	19
680.318	-8
680.348	-20
680.379	21
680.409	9
680.439	9
680.47	-5
680.5	-7
680.531	-2
680.561	17
680.592	18
680.622	26
680.652	-6
680.683	16
680.713	9
680.744	3
680.774	-8
680.804	14
680.835	-7
680.865	-5
680.896	19
680.926	25
680.956	15
680.987	7
681.017	-2
681.047	15
681.078	-3
681.108	7
681.139	13
681.169	2
681.199	7
681.23	10
681.26	11
681.29	16
681.321	-2
681.351	13
681.381	-10
681.412	-1
681.442	5
681.472	11
681.503	2
681.533	-2
681.563	1
681.594	5
681.624	16
681.654	8
681.685	17
681.715	6
681.745	2
681.775	19
681.806	15
681.836	4
681.866	-7
681.897	7
681.927	1
681.957	-11
681.987	4
682.018	-2
682.048	14
682.078	8
682.109	27
682.139	14
682.169	16
682.199	-9
682.23	-6
682.26	6
682.29	-8
682.32	4
682.351	6
682.381	10
682.411	9
682.441	-2
682.472	-2
682.502	9
682.532	-10
682.562	6
682.592	1
682.623	11
682.653	10
682.683	4
682.713	25
682.743	12
682.774	-9
682.804	18
682.834	29
682.864	15
682.894	14
682.925	-4
682.955	2
682.985	-10
683.015	16
683.045	10
683.076	-7
683.106	-19
683.136	-9
683.166	-6
683.196	-4
683.226	-2
683.257	-1
683.287	10
683.317	-9
683.347	-14
683.377	-5
683.407	5
683.437	-2
683.468	-3
683.498	14
683.528	10
683.558	13
683.588	15
683.618	-9
683.648	-9
683.678	19
683.708	11
683.739	-3
683.769	1
683.799	3
683.829	-7
683.859	1
683.889	16
683.919	3
683.949	-1
683.979	-10
684.009	-6
684.039	17
684.07	6
684.1	9
684.13	6
684.16	5
684.19	-1
684.22	-4
684.25	11
684.28	-2
684.31	10
684.34	12
684.37	-4
684.4	-13
684.43	3
684.46	10
684.49	10
684.52	0
684.55	10
684.58	-2
684.61	10
684.64	23
684.67	13
684.7	12
684.73	2
684.76	-3
684.79	11
684.82	4
684.85	-15
684.88	-6
684.91	2
684.94	7
684.97	4
685	-4
685.03	-7
685.06	-6
685.09	-8
685.12	13
685.15	-13
685.18	8
685.21	15
685.24	24
685.27	27
685.3	-1
685.33	16
685.36	5
685.39	10
685.42	2
685.45	9
685.48	5
685.51	3
685.54	35
685.569	5
685.599	-11
685.629	12
685.659	16
685.689	24
685.719	14
685.749	-4
685.779	8
685.809	7
685.839	6
685.869	3
685.898	17
685.928	14
685.958	4
685.988	13
686.018	10
686.048	20
686.078	19
686.108	11
686.137	12
686.167	11
686.197	-14
686.227	15
686.257	42
686.287	23
686.317	2
686.346	-8
686.376	-3
686.406	11
686.436	16
686.466	8
686.496	12
686.525	2
686.555	-16
686.585	19
686.615	23
686.645	6
686.675	4
686.704	12
686.734	14
686.764	-10
686.794	3
686.824	2
686.853	8
686.883	11
686.913	16
686.943	13
686.973	11
687.002	-2
687.032	9
687.062	2
687.092	16
687.121	6
687.151	18
687.181	-4
687.211	14
687.24	10
687.27	5
687.3	1
687.33	2
687.359	-19
687.389	23
687.419	9
687.449	3
687.478	7
687.508	13
687.538	27
687.568	19
687.597	3
687.627	18
687.657	2
687.686	13
687.716	19
687.746	-3
687.776	5
687.805	9
687.835	0
687.865	5
687.894	11
687.924	-3
687.954	13
687.983	14
688.013	12
688.043	21
688.072	7
688.102	21
688.132	13
688.161	3
688.191	-2
688.221	46
688.25	-9
688.28	16
688.31	-4
688.339	-4
688.369	9
688.399	-5
688.428	6
688.458	16
688.488	2
688.517	9
688.547	5
688.576	28
688.606	18
688.636	2
688.665	0
688.695	10
688.725	10
688.754	10
688.784	-3
688.813	3
688.843	8
688.873	0
688.902	-6
688.932	5
688.961	4
688.991	25
689.02	26
689.05	-2
689.08	12
689.109	5
689.139	11
689.168	6
689.198	20
689.227	-9
689.257	-2
689.287	6
689.316	-4
689.346	-8
689.375	2
689.405	6
689.434	6
689.464	9
689.493	7
689.523	-9
689.552	-6
689.582	20
689.611	8
689.641	12
689.67	13
689.7	16
689.73	12
689.759	-4
689.789	13
689.818	6
689.848	2
689.877	10
689.906	7
689.936	11
689.965	17
689.995	12
690.024	10
690.054	4
690.083	12
690.113	12
690.142	8
690.172	12
690.201	17
690.231	2
690.26	9
690.29	9
690.319	3
690.348	-7
690.378	3
690.407	19
690.437	9
690.466	13
690.496	14
690.525	16
690.555	2
690.584	14
690.613	-1
690.643	12
690.672	17
690.702	18
690.731	8
690.76	12
690.79	8
690.819	0
690.849	-10
690.878	-11
690.907	-9
690.937	15
690.966	15
690.996	2
691.025	1
691.054	-4
691.084	-4
691.113	-7
691.142	2
691.172	3
691.201	16
691.23	-8
691.26	13
691.289	9
691.319	3
691.348	-1
691.377	8
691.407	5
691.436	15
691.465	-9
691.495	6
691.524	-2
691.553	3
691.583	-1
691.612	16
691.641	-1
691.67	8
691.7	22
691.729	-16
691.758	2
691.788	-6
691.817	1
691.846	-2
691.876	-4
691.905	9
691.934	6
691.963	15
691.993	11
692.022	9
692.051	-6
692.081	32
692.11	14
692.139	19
692.168	6
692.198	7
692.227	6
692.256	9
692.285	11
692.315	12
692.344	4
692.373	14
692.402	-5
692.432	1
692.461	-2
692.49	8
692.519	10
692.548	7
692.578	7
692.607	-5
692.636	3
692.665	18
692.694	10
692.724	11
692.753	9
692.782	26
692.811	2
692.84	-10
692.87	-1
692.899	9
692.928	3
692.957	-3
692.986	-4
693.016	1
693.045	9
693.074	23
693.103	0
693.132	18
693.161	8
693.191	8
693.22	-15
693.249	9
693.278	11
693.307	11
693.336	-2
693.365	-10
693.395	-16
693.424	15
693.453	26
693.482	5
693.511	20
693.54	6
693.569	8
693.598	16
693.628	9
693.657	24
693.686	24
693.715	17
693.744	6
693.773	3
693.802	-2
693.831	-7
693.86	15
693.889	-3
693.919	18
693.948	26
693.977	15
694.006	9
694.035	-5
694.064	-3
694.093	6
694.122	7
694.151	13
694.18	7
694.209	22
694.238	-1
694.267	32
694.296	1
694.325	24
694.354	14
694.383	11
694.412	0
694.441	-4
694.471	-4
694.5	-25
694.529	8
694.558	30
694.587	23
694.616	8
694.645	14
694.674	10
694.703	7
694.732	3
694.761	-2
694.79	12
694.819	-15
694.848	4
694.877	13
694.906	27
694.935	14
694.963	21
694.992	7
695.021	2
695.05	9
695.079	10
695.108	20
695.137	13
695.166	2
695.195	7
695.224	33
695.253	6
695.282	-5
695.311	5
695.34	-5
695.369	12
695.398	13
695.427	38
695.456	9
695.485	8
695.513	9
695.542	13
695.571	9
695.6	17
695.629	16
695.658	25
695.687	11
695.716	15
695.745	29
695.774	4
695.802	-5
695.831	18
695.86	20
695.889	18
695.918	-12
695.947	-5
695.976	6
696.005	2
696.033	13
696.062	14
696.091	-1
696.12	5
696.149	31
696.178	8
696.207	11
696.235	-5
696.264	12
696.293	13
696.322	-13
696.351	-1
696.38	4
696.408	7
696.437	10
696.466	32
696.495	12
696.524	13
696.553	8
696.581	9
696.61	-1
696.639	3
696.668	-4
696.697	4
696.725	12
696.754	8
696.783	2
696.812	6
696.84	13
696.869	12
696.898	-1
696.927	1
696.956	18
696.984	2
697.013	0
697.042	6
697.071	14
697.099	19
697.128	9
697.157	7
697.186	-2
697.214	9
697.243	12
697.272	3
697.301	21
697.329	9
697.358	11
697.387	27
697.415	1
697.444	10
697.473	2
697.502	-20
697.53	11
697.559	3
697.588	9
697.616	-3
697.645	20
697.674	14
697.703	12
697.731	14
697.76	-8
697.789	6
697.817	18
697.846	30
697.875	10
697.903	19
697.932	12
697.961	1
697.989	11
698.018	10
698.047	5
698.075	13
698.104	3
698.133	12
698.161	6
698.19	1
698.218	10
698.247	15
698.276	4
698.304	22
698.333	12
698.362	7
698.39	14
698.419	13
698.447	-6
698.476	-2
698.505	2
698.533	6
698.562	0
698.591	-5
698.619	-6
698.648	-1
698.676	-4
698.705	1
698.733	-2
698.762	4
698.791	16
698.819	2
698.848	-8
698.876	9
698.905	8
698.933	18
698.962	16
698.991	6
699.019	16
699.048	6
699.076	8
699.105	-1
699.133	6
699.162	11
699.19	18
699.219	17
699.248	2
699.276	-13
699.305	-1
699.333	5
699.362	11
699.39	3
699.419	-5
699.447	23
699.476	23
699.504	5
699.533	4
699.561	1
699.59	8
699.618	-8
699.647	-4
699.675	8
699.704	17
699.732	-2
699.761	26
699.789	2
699.818	19
699.846	10
699.874	-6
699.903	-3
699.931	-1
699.96	20
699.988	0
700.017	-8
700.045	5
700.074	5
700.102	-5
700.13	-12
700.159	2
700.187	7
700.216	15
700.244	6
700.273	-3
700.301	7
700.329	15
700.358	19
700.386	22
700.415	12
700.443	8
700.472	7
700.5	21
700.528	25
700.557	14
700.585	6
700.614	8
700.642	24
700.67	20
700.699	17
700.727	8
700.755	20
700.784	6
700.812	3
700.841	10
700.869	7
700.897	-13
700.926	3
700.954	16
700.982	8
701.011	9
701.039	15
701.067	-1
701.096	23
701.124	2
701.152	14
701.181	3
701.209	-12
701.237	-6
701.266	-4
701.294	-6
701.322	9
701.351	22
701.379	12
701.407	15
701.435	10
701.464	1
701.492	31
701.52	-6
701.549	-1
701.577	-22
701.605	-8
701.634	-1
701.662	13
701.69	-3
701.718	17
701.747	-9
701.775	-10
701.803	-10
701.831	27
701.86	8
701.888	11
701.916	3
701.944	7
701.973	9
702.001	-9
702.029	8
702.057	-3
702.086	-7
702.114	-9
702.142	0
702.17	1
702.199	3
702.227	4
702.255	-2
702.283	-3
702.311	1
702.34	-1
702.368	11
702.396	15
702.424	2
702.452	-5
702.481	-7
702.509	-3
702.537	19
702.565	7
702.593	-4
702.621	4
702.65	16
702.678	14
702.706	11
702.734	-5
702.762	16
702.79	20
702.819	3
702.847	9
702.875	0
702.903	4
702.931	1
702.959	9
702.988	12
703.016	-7
703.044	4
703.072	0
703.1	-4
703.128	13
703.156	19
703.184	19
703.212	2
703.241	5
703.269	0
703.297	12
703.325	8
703.353	-6
703.381	-13
703.409	-7
703.437	-9
703.465	14
703.493	-2
703.522	3
703.55	14
703.578	15
703.606	-14
703.634	10
703.662	3
703.69	-6
703.718	3
703.746	10
703.774	4
703.802	19
703.83	4
703.858	16
703.886	6
703.914	-7
703.942	18
703.97	-3
703.998	-2
704.027	22
704.055	5
704.083	8
704.111	11
704.139	5
704.167	10
704.195	14
704.223	-10
704.251	4
704.279	17
704.307	0
704.335	0
704.363	3
704.391	7
704.419	-13
704.447	-10
704.475	1
704.503	-4
704.531	15
704.558	3
704.586	14
704.614	-5
704.642	11
704.67	-2
704.698	1
704.726	8
704.754	-2
704.782	4
704.81	7
704.838	23
704.866	28
704.894	2
704.922	-9
704.95	11
704.978	19
705.006	-5
705.034	20
705.061	2
705.089	-4
705.117	-7
705.145	-9
705.173	2
705.201	5
705.229	7
705.257	9
705.285	12
705.313	7
705.34	-2
705.368	-7
705.396	23
705.424	0
705.452	-9
705.48	1
705.508	-3
705.536	8
705.563	-1
705.591	15
705.619	28
705.647	-3
705.675	2
705.703	14
705.731	8
705.758	17
705.786	11
705.814	29
705.842	-1
705.87	18
705.898	16
705.925	-7
705.953	11
705.981	1
706.009	10
706.037	19
706.065	-7
706.092	-6
706.12	-6
706.148	10
706.176	1
706.204	20
706.231	9
706.259	-8
706.287	-8
706.315	2
706.342	-2
706.37	21
706.398	7
706.426	-10
706.454	3
706.481	13
706.509	15
706.537	-10
706.565	-6
706.592	14
706.62	5
706.648	23
706.676	-1
706.703	10
706.731	-2
706.759	-10
706.787	10
706.814	-1
706.842	4
706.87	-8
706.897	3
706.925	18
706.953	13
706.981	16
707.008	11
707.036	-6
707.064	17
707.091	-10
707.119	12
707.147	3
707.174	-20
707.202	9
707.23	-8
707.258	28
707.285	-14
707.313	1
707.341	-4
707.368	-6
707.396	9
707.424	10
707.451	7
707.479	20
707.507	2
707.534	1
707.562	6
707.59	-11
707.617	-9
707.645	0
707.672	-7
707.7	3
707.728	16
707.755	7
707.783	-1
707.811	9
707.838	9
707.866	29
707.893	5
707.921	7
707.949	9
707.976	9
708.004	7
708.031	2
708.059	-15
708.087	3
708.114	-12
708.142	-6
708.169	0
708.197	-13
708.225	-2
708.252	10
708.28	15
708.307	-9
708.335	-8
708.362	-5
708.39	-1
708.418	-12
708.445	-14
708.473	-13
708.5	-2
708.528	-3
708.555	-9
708.583	-5
708.61	5
708.638	10
708.665	6
708.693	-9
708.72	4
708.748	6
708.776	14
708.803	19
708.831	23
708.858	7
708.886	2
708.913	18
708.941	5
708.968	13
708.996	2
709.023	28
709.051	15
709.078	-3
709.105	2
709.133	-2
709.16	17
709.188	3
709.215	10
709.243	18
709.27	10
709.298	1
709.325	0
709.353	-10
709.38	-2
709.408	17
709.435	5
709.462	-5
709.49	1
709.517	1
709.545	21
709.572	-1
709.6	14
709.627	5
709.655	-9
709.682	-8
709.709	6
709.737	7
709.764	-2
709.792	8
709.819	-7
709.846	-13
709.874	3
709.901	6
709.929	23
709.956	23
709.983	10
710.011	9
710.038	4
710.066	15
710.093	24
710.12	6
710.148	-7
710.175	-1
710.202	0
710.23	23
710.257	9
710.284	20
710.312	14
710.339	-4
710.366	4
710.394	-1
710.421	6
710.448	4
710.476	-29
710.503	2
710.53	9
710.558	1
710.585	3
710.612	-4
710.64	4
710.667	12
710.694	0
710.722	8
710.749	10
710.776	15
710.804	11
710.831	-8
710.858	8
710.885	2
710.913	-6
710.94	20
710.967	5
710.995	7
711.022	0
711.049	12
711.076	-2
711.104	2
711.131	-9
711.158	4
711.185	10
711.213	-1
711.24	-2
711.267	0
711.294	-9
711.322	1
711.349	1
711.376	-2
711.403	15
711.431	0
711.458	2
711.485	1
711.512	11
711.54	1
711.567	22
711.594	-21
711.621	5
711.648	8
711.676	2
711.703	12
711.73	-7
711.757	4
711.784	-25
711.812	1
711.839	-6
711.866	0
711.893	-10
711.92	12
711.947	8
711.975	8
712.002	7
712.029	21
712.056	11
712.083	-2
712.11	-3
712.138	21
712.165	16
712.192	3
712.219	-6
712.246	-7
712.273	-9
712.3	-6
712.328	-4
712.355	14
712.382	-1
712.409	14
712.436	-14
712.463	15
712.49	16
712.517	11
712.544	-17
712.572	-15
712.599	3
712.626	26
712.653	5
712.68	-1
712.707	20
712.734	16
712.761	0
712.788	5
712.815	15
712.842	16
712.87	8
712.897	9
712.924	-4
712.951	2
712.978	15
713.005	10
713.032	4
713.059	9
713.086	18
713.113	-6
713.14	-2
713.167	-3
713.194	7
713.221	-2
713.248	26
713.275	-2
713.302	-3
713.329	13
713.356	12
713.383	10
713.41	23
713.437	10
713.464	-1
713.491	27
713.518	4
713.545	8
713.572	8
713.599	34
713.626	21
713.653	23
713.68	0
713.707	13
713.734	11
713.761	4
713.788	14
713.815	12
713.842	4
713.869	-1
713.896	10
713.923	14
713.95	8
713.977	-3
714.004	2
714.031	-1
714.058	-16
714.085	0
714.112	20
714.139	6
714.165	-2
714.192	-5
714.219	13
714.246	14
714.273	-3
714.3	5
714.327	12
714.354	20
714.381	5
714.408	-2
714.435	1
714.461	7
714.488	22
714.515	8
714.542	-10
714.569	-6
714.596	-2
714.623	-3
714.65	-2
714.677	-6
714.703	19
714.73	9
714.757	6
714.784	6
714.811	1
714.838	0
714.865	1
714.891	16
714.918	3
714.945	-4
714.972	0
714.999	9
715.026	-8
715.052	17
715.079	-10
715.106	5
715.133	11
715.16	1
715.187	9
715.213	20
715.24	-5
715.267	11
715.294	4
715.321	5
715.347	5
715.374	-12
715.401	-8
715.428	5
715.455	10
715.481	4
715.508	19
715.535	11
715.562	43
715.588	5
715.615	13
715.642	-4
715.669	14
715.695	-10
715.722	-3
715.749	0
715.776	6
715.802	5
715.829	17
715.856	-5
715.883	13
715.909	10
715.936	12
715.963	-8
715.99	1
716.016	6
716.043	11
716.07	5
716.096	2
716.123	-2
716.15	-6
716.177	8
716.203	11
716.23	2
716.257	3
716.283	11
716.31	16
716.337	6
716.363	4
716.39	4
716.417	10
716.443	6
716.47	10
716.497	-1
716.523	25
716.55	0
716.577	15
716.603	7
716.63	1
716.657	17
716.683	4
716.71	23
716.737	10
716.763	7
716.79	17
716.817	29
716.843	10
716.87	6
716.897	8
716.923	20
716.95	7
716.976	8
717.003	-9
717.03	7
717.056	8
717.083	14
717.109	8
717.136	13
717.163	9
717.189	6
717.216	4
717.242	-9
717.269	1
717.296	8
717.322	-6
717.349	15
717.375	13
717.402	9
717.428	4
717.455	18
717.481	-7
717.508	6
717.535	-3
717.561	-10
717.588	-9
717.614	-7
717.641	-8
717.667	0
717.694	4
717.72	-20
717.747	-1
717.773	-1
717.8	16
717.826	17
717.853	4
717.88	7
717.906	-7
717.933	8
717.959	18
717.986	3
718.012	6
718.039	24
718.065	34
718.092	15
718.118	-5
718.144	7
718.171	12
718.197	26
718.224	6
718.25	10
718.277	2
718.303	3
718.33	11
718.356	10
718.383	-3
718.409	2
718.436	1
718.462	25
718.489	5
718.515	22
718.541	24
718.568	20
718.594	6
718.621	11
718.647	6
718.674	21
718.7	21
718.726	3
718.753	23
718.779	3
718.806	-8
718.832	6
718.858	22
718.885	24
718.911	1
718.938	12
718.964	-1
718.99	7
719.017	14
719.043	11
719.07	14
719.096	7
719.122	22
719.149	5
719.175	11
719.201	23
719.228	6
719.254	11
719.281	11
719.307	15
719.333	3
719.36	25
719.386	9
719.412	16
719.439	-5
719.465	8
719.491	-1
719.518	2
719.544	21
719.57	20
719.597	19
719.623	12
719.649	14
719.675	9
719.702	0
719.728	10
719.754	2
719.781	13
719.807	14
719.833	0
719.86	2
719.886	-2
719.912	-1
719.938	-1
719.965	0
719.991	6
720.017	16
720.044	10
720.07	2
720.096	14
720.122	21
720.149	4
720.175	27
720.201	27
720.227	13
720.254	8
720.28	5
720.306	-6
720.332	14
720.359	3
720.385	3
720.411	-3
720.437	3
720.463	-3
720.49	3
720.516	9
720.542	-5
720.568	14
720.595	3
720.621	-2
720.647	3
720.673	7
720.699	10
720.725	14
720.752	15
720.778	22
720.804	11
720.83	14
720.856	-12
720.883	-18
720.909	12
720.935	14
720.961	15
720.987	13
721.013	6
721.04	0
721.066	8
721.092	2
721.118	11
721.144	2
721.17	1
721.196	2
721.223	11
721.249	-1
721.275	24
721.301	4
721.327	17
721.353	14
721.379	5
721.405	6
721.432	3
721.458	-10
721.484	1
721.51	-19
721.536	7
721.562	3
721.588	1
721.614	6
721.64	11
721.666	6
721.693	-8
721.719	7
721.745	15
721.771	2
721.797	24
721.823	17
721.849	27
721.875	17
721.901	0
721.927	10
721.953	7
721.979	23
722.005	12
722.031	-5
722.057	6
722.083	14
722.109	15
722.135	18
722.161	8
722.187	0
722.214	13
722.24	6
722.266	3
722.292	7
722.318	-3
722.344	-6
722.37	12
722.396	19
722.422	7
722.448	6
722.474	13
722.5	18
722.526	4
722.552	1
722.578	2
722.603	11
722.629	0
722.655	10
722.681	10
722.707	15
722.733	-2
722.759	-6
722.785	1
722.811	-4
722.837	6
722.863	1
722.889	19
722.915	8
722.941	-1
722.967	-6
722.993	6
723.019	4
723.045	11
723.071	5
723.097	3
723.122	9
723.148	-2
723.174	2
723.2	12
723.226	-3
723.252	6
723.278	-1
723.304	5
723.33	-10
723.356	-9
723.381	2
723.407	1
723.433	12
723.459	3
723.485	6
723.511	14
723.537	2
723.563	4
723.588	10
723.614	6
723.64	5
723.666	2
723.692	18
723.718	6
723.744	8
723.769	-8
723.795	-2
723.821	14
723.847	6
723.873	10
723.899	21
723.924	5
723.95	6
723.976	-1
724.002	13
724.028	7
724.053	-4
724.079	-1
724.105	-1
724.131	0
724.157	-4
724.182	10
724.208	7
724.234	23
724.26	8
724.286	13
724.311	-2
724.337	-6
724.363	-13
724.389	6
724.415	-4
724.44	19
724.466	-1
724.492	1
724.518	4
724.543	0
724.569	8
724.595	2
724.621	0
724.646	-1
724.672	-14
724.698	-2
724.723	12
724.749	4
724.775	7
724.801	0
724.826	-23
724.852	-5
724.878	-5
724.904	-12
724.929	6
724.955	-1
724.981	11
725.006	2
725.032	15
725.058	9
725.083	-5
725.109	-3
725.135	2
725.161	6
725.186	2
725.212	12
725.238	12
725.263	-4
725.289	-7
725.315	-8
725.34	9
725.366	7
725.392	-1
725.417	3
725.443	9
725.468	6
725.494	4
725.52	18
725.545	2
725.571	-3
725.597	-1
725.622	17
725.648	3
725.674	23
725.699	11
725.725	0
725.75	27
725.776	1
725.802	27
725.827	18
725.853	-2
725.878	6
725.904	7
725.93	22
725.955	-5
725.981	5
726.006	-1
726.032	6
726.057	7
726.083	-5
726.109	-13
726.134	3
726.16	0
726.185	-6
726.211	-19
726.236	5
726.262	10
726.288	6
726.313	7
726.339	7
726.364	12
726.39	18
726.415	3
726.441	0
726.466	3
726.492	-3
726.517	20
726.543	18
726.568	-4
726.594	3
726.619	14
726.645	3
726.67	3
726.696	11
726.721	4
726.747	-8
726.772	16
726.798	3
726.823	11
726.849	8
726.874	6
726.9	22
726.925	15
726.951	-2
726.976	8
727.002	2
727.027	20
727.053	13
727.078	5
727.104	-2
727.129	2
727.155	0
727.18	10
727.205	16
727.231	-2
727.256	4
727.282	-2
727.307	15
727.333	15
727.358	-5
727.383	-7
727.409	-12
727.434	22
727.46	0
727.485	17
727.511	3
727.536	-1
727.561	-3
727.587	3
727.612	-1
727.637	12
727.663	-8
727.688	18
727.714	24
727.739	10
727.764	4
727.79	8
727.815	1
727.841	16
727.866	30
727.891	6
727.917	-9
727.942	4
727.967	-2
727.993	-5
728.018	6
728.043	1
728.069	8
728.094	18
728.119	7
728.145	13
728.17	29
728.195	13
728.221	16
728.246	12
728.271	-9
728.297	9
728.322	2
728.347	-12
728.373	25
728.398	14
728.423	-10
728.448	-1
728.474	9
728.499	19
728.524	1
728.55	6
728.575	-5
728.6	0
728.625	-8
728.651	1
728.676	9
728.701	8
728.727	17
728.752	-2
728.777	1
728.802	9
728.828	6
728.853	7
728.878	2
728.903	14
728.929	7
728.954	-2
728.979	2
729.004	10
729.03	3
729.055	13
729.08	2
729.105	6
729.13	3
729.156	8
729.181	11
729.206	-10
729.231	3
729.256	9
729.282	-2
729.307	-1
729.332	7
729.357	6
729.382	6
729.408	3
729.433	10
729.458	4
729.483	8
729.508	26
729.533	8
729.559	6
729.584	8
729.609	7
729.634	29
729.659	17
729.684	7
729.71	35
729.735	3
729.76	0
729.785	6
729.81	16
729.835	4
729.86	-6
729.886	0
729.911	2
729.936	9
729.961	10
729.986	-21
730.011	5
730.036	8
730.061	8
730.086	-5
730.112	3
730.137	23
730.162	2
730.187	1
730.212	7
730.237	-1
730.262	12
730.287	7
730.312	17
730.337	1
730.362	18
730.387	2
730.413	3
730.438	4
730.463	4
730.488	5
730.513	16
730.538	3
730.563	18
730.588	27
730.613	18
730.638	-1
730.663	-2
730.688	29
730.713	14
730.738	6
730.763	15
730.788	5
730.813	15
730.838	0
730.863	-6
730.888	4
730.913	-6
730.938	-21
730.963	-6
730.988	17
731.013	7
731.038	9
731.063	-5
731.088	3
731.113	8
731.138	0
731.163	-8
731.188	2
731.213	24
731.238	12
731.263	2
731.288	0
731.313	3
731.338	6
731.363	15
731.388	7
731.413	6
731.438	11
731.463	4
731.487	19
731.512	2
731.537	2
731.562	9
731.587	6
731.612	-6
731.637	-2
731.662	-3
731.687	-13
731.712	-4
731.737	1
731.762	6
731.786	18
731.811	10
731.836	7
731.861	-4
731.886	0
731.911	11
731.936	8
731.961	0
731.986	-7
732.01	6
732.035	15
732.06	16
732.085	-1
732.11	-1
732.135	-11
732.16	-9
732.184	-4
732.209	8
732.234	13
732.259	8
732.284	15
732.309	2
732.334	3
732.358	-9
732.383	3
732.408	-5
732.433	14
732.458	3
732.482	5
732.507	0
732.532	11
732.557	25
732.582	1
732.607	5
732.631	-3
732.656	0
732.681	-15
732.706	-1
732.73	3
732.755	-20
732.78	-4
732.805	9
732.83	2
732.854	8
732.879	14
732.904	5
732.929	-1
732.953	9
732.978	4
733.003	1
733.028	-1
733.052	14
733.077	11
733.102	7
733.127	-4
733.151	0
733.176	7
733.201	4
733.226	8
733.25	19
733.275	16
733.3	3
733.324	13
733.349	21
733.374	23
733.399	8
733.423	20
733.448	15
733.473	8
733.497	0
733.522	-2
733.547	21
733.571	13
733.596	2
733.621	3
733.646	2
733.67	1
733.695	-3
733.72	-1
733.744	13
733.769	3
733.794	11
733.818	1
733.843	-8
733.867	8
733.892	1
733.917	1
733.941	-4
733.966	-8
733.991	18
734.015	17
734.04	2
734.065	26
734.089	23
734.114	-4
734.138	12
734.163	3
734.188	11
734.212	21
734.237	7
734.261	20
734.286	2
734.311	4
734.335	6
734.36	2
734.384	11
734.409	8
734.434	0
734.458	20
734.483	15
734.507	6
734.532	-1
734.556	10
734.581	-2
734.606	10
734.63	10
734.655	12
734.679	3
734.704	3
734.728	8
734.753	6
734.777	9
734.802	2
734.826	7
734.851	6
734.876	18
734.9	1
734.925	18
734.949	16
734.974	27
734.998	16
735.023	-1
735.047	-9
735.072	31
735.096	17
735.121	6
735.145	4
735.17	-4
735.194	21
735.219	11
735.243	9
735.268	8
735.292	7
735.317	3
735.341	12
735.365	-1
735.39	19
735.414	8
735.439	13
735.463	8
735.488	9
735.512	0
735.537	16
735.561	10
735.586	-4
735.61	11
735.634	4
735.659	2
735.683	26
735.708	-1
735.732	2
735.757	5
735.781	22
735.805	14
735.83	-1
735.854	6
735.879	6
735.903	16
735.927	2
735.952	21
735.976	10
736.001	10
736.025	-2
736.049	3
736.074	6
736.098	-9
736.123	6
736.147	3
736.171	14
736.196	14
736.22	8
736.244	9
736.269	-2
736.293	-15
736.317	7
736.342	27
736.366	26
736.39	16
736.415	0
736.439	17
736.463	17
736.488	18
736.512	21
736.536	15
736.561	4
736.585	16
736.609	22
736.634	6
736.658	4
736.682	3
736.707	-1
736.731	8
736.755	16
736.78	18
736.804	13
736.828	22
736.852	4
736.877	7
736.901	-13
736.925	22
736.949	10
736.974	1
736.998	-3
737.022	10
737.047	0
737.071	-10
737.095	25
737.119	30
737.144	15
737.168	0
737.192	-5
737.216	17
737.241	12
737.265	12
737.289	10
737.313	6
737.337	-2
737.362	11
737.386	2
737.41	-7
737.434	26
737.459	20
737.483	6
737.507	13
737.531	16
737.555	-3
737.58	-7
737.604	10
737.628	-13
737.652	-12
737.676	-2
737.701	10
737.725	9
737.749	20
737.773	3
737.797	2
737.821	24
737.846	15
737.87	30
737.894	6
737.918	0
737.942	-1
737.966	11
737.99	3
738.015	5
738.039	11
738.063	7
738.087	18
738.111	-2
738.135	1
738.159	1
738.184	-1
738.208	13
738.232	15
738.256	12
738.28	4
738.304	11
738.328	1
738.352	-8
738.376	-6
738.4	19
738.425	17
738.449	11
738.473	6
738.497	2
738.521	5
738.545	16
738.569	27
738.593	21
738.617	6
738.641	3
738.665	8
738.689	11
738.713	-2
738.737	11
738.762	0
738.786	13
738.81	-2
738.834	3
738.858	-2
738.882	7
738.906	-4
738.93	14
738.954	9
738.978	7
739.002	18
739.026	34
739.05	0
739.074	6
739.098	31
739.122	24
739.146	16
739.17	16
739.194	21
739.218	-3
739.242	-9
739.266	0
739.29	21
739.314	6
739.338	7
739.362	4
739.386	10
739.41	2
739.434	-12
739.458	18
739.482	19
739.506	17
739.53	0
739.554	12
739.577	-1
739.601	20
739.625	-10
739.649	3
739.673	6
739.697	20
739.721	-1
739.745	14
739.769	24
739.793	24
739.817	9
739.841	-10
739.865	4
739.889	-6
739.912	2
739.936	-8
739.96	3
739.984	14
740.008	2
740.032	9
740.056	6
740.08	3
740.104	13
740.127	21
740.151	3
740.175	8
740.199	23
740.223	47
740.247	3
740.271	8
740.295	-9
740.318	-4
740.342	-5
740.366	9
740.39	5
740.414	15
740.438	28
740.461	16
740.485	3
740.509	-7
740.533	8
740.557	4
740.581	3
740.604	-8
740.628	16
740.652	14
740.676	3
740.7	15
740.723	12
740.747	-9
740.771	-9
740.795	-5
740.819	12
740.842	13
740.866	14
740.89	11
740.914	0
740.938	13
740.961	13
740.985	18
741.009	-6
741.033	6
741.056	19
741.08	12
741.104	19
741.128	2
741.151	19
741.175	5
741.199	8
741.223	9
741.246	-5
741.27	26
741.294	13
741.318	-2
741.341	2
741.365	8
741.389	-10
741.413	18
741.436	20
741.46	13
741.484	8
741.507	4
741.531	41
741.555	22
741.579	14
741.602	1
741.626	23
741.65	3
741.673	-8
741.697	3
741.721	17
741.744	2
741.768	-4
741.792	1
741.815	1
741.839	16
741.863	27
741.886	22
741.91	11
741.934	7
741.957	-6
741.981	32
742.005	-1
742.028	-8
742.052	6
742.075	17
742.099	26
742.123	5
742.146	6
742.17	-1
742.194	-14
742.217	-9
742.241	-1
742.264	-2
742.288	27
742.312	3
742.335	2
742.359	-7
742.382	19
742.406	15
742.43	3
742.453	4
742.477	-1
742.5	6
742.524	6
742.548	-2
742.571	5
742.595	-4
742.618	-12
742.642	11
742.665	4
742.689	-5
742.712	2
742.736	7
742.76	0
742.783	4
742.807	4
742.83	14
742.854	2
742.877	7
742.901	12
742.924	-13
742.948	0
742.971	1
742.995	3
743.018	-12
743.042	0
743.065	-7
743.089	-4
743.112	3
743.136	4
743.159	2
743.183	5
743.206	-4
743.23	-9
743.253	-11
743.277	10
743.3	3
743.324	11
743.347	-10
743.371	12
743.394	4
743.418	24
743.441	17
743.465	6
743.488	-1
743.512	-2
743.535	8
743.558	9
743.582	12
743.605	5
743.629	10
743.652	13
743.676	5
743.699	11
743.723	19
743.746	11
743.769	1
743.793	-9
743.816	-1
743.84	26
743.863	20
743.886	5
743.91	14
743.933	7
743.957	4
743.98	8
744.003	4
744.027	-1
744.05	-1
744.074	-2
744.097	-14
744.12	5
744.144	1
744.167	15
744.19	1
744.214	-2
744.237	2
744.26	19
744.284	0
744.307	-24
744.331	3
744.354	5
744.377	-3
744.401	8
744.424	6
744.447	1
744.471	-7
