Data from HighRes_H2D2_15_04_11_07_2024_HR4C61891__1__15-05-34-543.txt Node

Date: Thu Nov 07 15:05:34 EST 2024
User: crc00042
Spectrometer: HR4C6189
Trigger mode: 4
Integration Time (sec): 1.000000E-1
Scans to average: 1
Electric dark correction enabled: true
Nonlinearity correction enabled: false
Boxcar width: 0
XAxis mode: Wavelengths
Number of Pixels in Spectrum: 3648
>>>>>Begin Spectral Data<<<<<
639.567	-82.69
639.602	-82.69
639.636	-82.69
639.67	-38.69
639.704	-11.69
639.738	-0.69
639.773	8.31
639.807	-14.69
639.841	-2.69
639.875	11.31
639.909	7.31
639.943	-3.69
639.978	1.31
640.012	1.31
640.046	1.31
640.08	10.31
640.114	-9.69
640.148	-9.69
640.182	-8.69
640.217	-17.69
640.251	27.31
640.285	24.31
640.319	1.31
640.353	11.31
640.387	11.31
640.421	-5.69
640.455	0.31
640.49	16.31
640.524	9.31
640.558	14.31
640.592	12.31
640.626	1.31
640.66	-0.69
640.694	-6.69
640.728	6.31
640.762	-8.69
640.796	21.31
640.83	19.31
640.865	-4.69
640.899	7.31
640.933	7.31
640.967	8.31
641.001	13.31
641.035	0.31
641.069	-4.69
641.103	-0.69
641.137	1.31
641.171	-3.69
641.205	12.31
641.239	5.31
641.273	18.31
641.307	5.31
641.341	3.31
641.375	3.31
641.409	-12.69
641.443	3.31
641.477	-9.69
641.511	13.31
641.545	7.31
641.579	11.31
641.614	23.31
641.648	20.31
641.682	2.31
641.716	13.31
641.75	2.31
641.784	-13.69
641.818	0.31
641.852	17.31
641.886	11.31
641.919	23.31
641.953	2.31
641.987	-13.69
642.021	15.31
642.055	14.31
642.089	12.31
642.123	-17.69
642.157	9.31
642.191	-0.69
642.225	-0.69
642.259	1.31
642.293	13.31
642.327	0.31
642.361	1.31
642.395	6.31
642.429	23.31
642.463	3.31
642.497	0.31
642.531	-2.69
642.565	-5.69
642.599	10.31
642.633	-10.69
642.666	17.31
642.7	4.31
642.734	30.31
642.768	4.31
642.802	4.31
642.836	8.31
642.87	2.31
642.904	9.31
642.938	3.31
642.972	-1.69
643.005	12.31
643.039	11.31
643.073	16.31
643.107	12.31
643.141	12.31
643.175	14.31
643.209	-13.69
643.243	-3.69
643.276	13.31
643.31	8.31
643.344	-10.69
643.378	17.31
643.412	13.31
643.446	8.31
643.48	7.31
643.513	15.31
643.547	6.31
643.581	8.31
643.615	17.31
643.649	7.31
643.683	10.31
643.716	11.31
643.75	21.31
643.784	-1.69
643.818	2.31
643.852	9.31
643.886	-2.69
643.919	4.31
643.953	2.31
643.987	9.31
644.021	17.31
644.055	5.31
644.088	-3.69
644.122	-0.69
644.156	-0.69
644.19	14.31
644.224	10.31
644.257	2.31
644.291	21.31
644.325	-0.69
644.359	-6.69
644.392	40.31
644.426	18.31
644.46	22.31
644.494	-7.69
644.527	-6.69
644.561	1.31
644.595	-4.69
644.629	12.31
644.662	7.31
644.696	23.31
644.73	-0.69
644.764	17.31
644.797	-5.69
644.831	9.31
644.865	19.31
644.899	3.31
644.932	34.31
644.966	13.31
645	11.31
645.033	19.31
645.067	-5.69
645.101	6.31
645.135	11.31
645.168	8.31
645.202	-1.69
645.236	1.31
645.269	18.31
645.303	-0.69
645.337	1.31
645.37	8.31
645.404	9.31
645.438	17.31
645.471	8.31
645.505	2.31
645.539	8.31
645.572	2.31
645.606	10.31
645.64	3.31
645.673	11.31
645.707	16.31
645.741	3.31
645.774	4.31
645.808	-3.69
645.842	-16.69
645.875	17.31
645.909	-2.69
645.943	9.31
645.976	7.31
646.01	19.31
646.043	13.31
646.077	17.31
646.111	9.31
646.144	9.31
646.178	4.31
646.212	4.31
646.245	-5.69
646.279	-7.69
646.312	2.31
646.346	15.31
646.38	0.31
646.413	13.31
646.447	2.31
646.48	15.31
646.514	11.31
646.547	0.31
646.581	-4.69
646.615	14.31
646.648	-2.69
646.682	13.31
646.715	13.31
646.749	6.31
646.782	2.31
646.816	8.31
646.85	6.31
646.883	-4.69
646.917	23.31
646.95	8.31
646.984	5.31
647.017	12.31
647.051	13.31
647.084	9.31
647.118	6.31
647.151	6.31
647.185	2.31
647.218	-7.69
647.252	10.31
647.285	-3.69
647.319	11.31
647.353	11.31
647.386	17.31
647.42	0.31
647.453	7.31
647.487	-0.69
647.52	-12.69
647.553	11.31
647.587	-18.69
647.62	-11.69
647.654	-2.69
647.687	17.31
647.721	9.31
647.754	-1.69
647.788	9.31
647.821	-2.69
647.855	18.31
647.888	25.31
647.922	22.31
647.955	10.31
647.989	20.31
648.022	7.31
648.055	11.31
648.089	1.31
648.122	13.31
648.156	3.31
648.189	2.31
648.223	14.31
648.256	9.31
648.29	16.31
648.323	5.31
648.356	4.31
648.39	10.31
648.423	20.31
648.457	12.31
648.49	13.31
648.523	12.31
648.557	-12.69
648.59	3.31
648.624	7.31
648.657	16.31
648.69	16.31
648.724	16.31
648.757	22.31
648.791	14.31
648.824	19.31
648.857	37.31
648.891	-5.69
648.924	9.31
648.957	19.31
648.991	-12.69
649.024	23.31
649.057	3.31
649.091	-1.69
649.124	20.31
649.158	11.31
649.191	19.31
649.224	14.31
649.258	14.31
649.291	11.31
649.324	11.31
649.358	6.31
649.391	16.31
649.424	-1.69
649.458	5.31
649.491	18.31
649.524	11.31
649.557	-2.69
649.591	-3.69
649.624	13.31
649.657	-2.69
649.691	-8.69
649.724	10.31
649.757	11.31
649.791	-12.69
649.824	16.31
649.857	17.31
649.89	-5.69
649.924	-2.69
649.957	1.31
649.99	5.31
650.023	16.31
650.057	9.31
650.09	12.31
650.123	5.31
650.157	28.31
650.19	43.31
650.223	14.31
650.256	-7.69
650.29	-6.69
650.323	6.31
650.356	2.31
650.389	1.31
650.423	-5.69
650.456	13.31
650.489	4.31
650.522	25.31
650.555	24.31
650.589	9.31
650.622	0.31
650.655	17.31
650.688	6.31
650.721	19.31
650.755	30.31
650.788	36.31
650.821	6.31
650.854	14.31
650.887	21.31
650.921	-1.69
650.954	-10.69
650.987	6.31
651.02	7.31
651.053	-11.69
651.087	-4.69
651.12	12.31
651.153	1.31
651.186	5.31
651.219	-18.69
651.252	11.31
651.286	12.31
651.319	4.31
651.352	9.31
651.385	-0.69
651.418	4.31
651.451	11.31
651.484	2.31
651.518	-6.69
651.551	19.31
651.584	-10.69
651.617	13.31
651.65	17.31
651.683	8.31
651.716	-2.69
651.749	-11.69
651.783	1.31
651.816	6.31
651.849	14.31
651.882	12.31
651.915	3.31
651.948	15.31
651.981	17.31
652.014	-0.69
652.047	-15.69
652.08	-15.69
652.114	-1.69
652.147	11.31
652.18	15.31
652.213	42.31
652.246	24.31
652.279	20.31
652.312	7.31
652.345	1.31
652.378	10.31
652.411	17.31
652.444	13.31
652.477	11.31
652.51	1.31
652.543	-4.69
652.576	22.31
652.609	15.31
652.642	1.31
652.675	11.31
652.709	17.31
652.742	-1.69
652.775	4.31
652.808	15.31
652.841	0.31
652.874	-11.69
652.907	5.31
652.94	2.31
652.973	-3.69
653.006	-12.69
653.039	-0.69
653.072	17.31
653.105	-0.69
653.138	6.31
653.171	-18.69
653.204	21.31
653.237	21.31
653.27	10.31
653.303	0.31
653.336	-1.69
653.368	-14.69
653.401	19.31
653.434	-4.69
653.467	14.31
653.5	8.31
653.533	10.31
653.566	8.31
653.599	6.31
653.632	12.31
653.665	3.31
653.698	5.31
653.731	8.31
653.764	12.31
653.797	4.31
653.83	7.31
653.863	9.31
653.896	13.31
653.929	16.31
653.961	20.31
653.994	0.31
654.027	-18.69
654.06	12.31
654.093	11.31
654.126	23.31
654.159	13.31
654.192	12.31
654.225	4.31
654.258	5.31
654.29	9.31
654.323	7.31
654.356	6.31
654.389	4.31
654.422	0.31
654.455	0.31
654.488	-5.69
654.521	1.31
654.553	-7.69
654.586	9.31
654.619	9.31
654.652	6.31
654.685	16.31
654.718	7.31
654.751	-1.69
654.783	-3.69
654.816	6.31
654.849	1.31
654.882	-9.69
654.915	-9.69
654.948	-4.69
654.98	-3.69
655.013	6.31
655.046	0.31
655.079	6.31
655.112	1.31
655.144	-5.69
655.177	9.31
655.21	6.31
655.243	10.31
655.276	13.31
655.308	-1.69
655.341	-3.69
655.374	19.31
655.407	-6.69
655.44	8.31
655.472	12.31
655.505	20.31
655.538	-0.69
655.571	19.31
655.603	3.31
655.636	-3.69
655.669	10.31
655.702	7.31
655.734	-1.69
655.767	15.31
655.8	16.31
655.833	20.31
655.865	25.31
655.898	5.31
655.931	9.31
655.964	16.31
655.996	19.31
656.029	22.31
656.062	19.31
656.095	47.31
656.127	87.31
656.16	225.31
656.193	633.31
656.225	936.31
656.258	558.31
656.291	220.31
656.324	173.31
656.356	373.31
656.389	784.31
656.422	670.31
656.454	239.31
656.487	99.31
656.52	33.31
656.552	-3.69
656.585	4.31
656.618	14.31
656.65	15.31
656.683	14.31
656.716	4.31
656.748	1.31
656.781	-2.69
656.814	4.31
656.846	3.31
656.879	1.31
656.912	12.31
656.944	-19.69
656.977	-2.69
657.01	13.31
657.042	13.31
657.075	12.31
657.108	-3.69
657.14	10.31
657.173	20.31
657.205	26.31
657.238	17.31
657.271	12.31
657.303	7.31
657.336	6.31
657.369	0.31
657.401	0.31
657.434	14.31
657.466	22.31
657.499	13.31
657.532	9.31
657.564	13.31
657.597	6.31
657.629	7.31
657.662	11.31
657.694	-1.69
657.727	-17.69
657.76	18.31
657.792	-7.69
657.825	-0.69
657.857	1.31
657.89	13.31
657.922	29.31
657.955	-1.69
657.987	10.31
658.02	22.31
658.053	26.31
658.085	-1.69
658.118	28.31
658.15	15.31
658.183	11.31
658.215	15.31
658.248	2.31
658.28	-0.69
658.313	24.31
658.345	13.31
658.378	-0.69
658.41	13.31
658.443	27.31
658.475	3.31
658.508	10.31
658.54	0.31
658.573	-11.69
658.605	-0.69
658.638	3.31
658.67	0.31
658.703	10.31
658.735	6.31
658.768	18.31
658.8	-0.69
658.833	13.31
658.865	5.31
658.898	-6.69
658.93	-6.69
658.963	1.31
658.995	-0.69
659.028	13.31
659.06	0.31
659.092	-6.69
659.125	-8.69
659.157	12.31
659.19	1.31
659.222	4.31
659.255	2.31
659.287	-1.69
659.32	1.31
659.352	8.31
659.384	5.31
659.417	9.31
659.449	16.31
659.482	-1.69
659.514	6.31
659.546	-0.69
659.579	-3.69
659.611	8.31
659.644	9.31
659.676	3.31
659.708	-3.69
659.741	10.31
659.773	13.31
659.806	4.31
659.838	10.31
659.87	-0.69
659.903	-7.69
659.935	7.31
659.967	6.31
660	-5.69
660.032	-13.69
660.065	8.31
660.097	1.31
660.129	18.31
660.162	5.31
660.194	16.31
660.226	-0.69
660.259	13.31
660.291	-4.69
660.323	1.31
660.356	12.31
660.388	3.31
660.42	-0.69
660.453	-0.69
660.485	10.31
660.517	31.31
660.55	20.31
660.582	12.31
660.614	16.31
660.647	-6.69
660.679	-19.69
660.711	2.31
660.743	-0.69
660.776	-13.69
660.808	5.31
660.84	17.31
660.873	-0.69
660.905	-4.69
660.937	1.31
660.969	7.31
661.002	-2.69
661.034	17.31
661.066	7.31
661.099	19.31
661.131	21.31
661.163	-6.69
661.195	-9.69
661.228	12.31
661.26	4.31
661.292	-3.69
661.324	12.31
661.357	-4.69
661.389	13.31
661.421	19.31
661.453	10.31
661.485	3.31
661.518	20.31
661.55	0.31
661.582	-9.69
661.614	8.31
661.647	15.31
661.679	0.31
661.711	9.31
661.743	0.31
661.775	9.31
661.808	26.31
661.84	1.31
661.872	11.31
661.904	1.31
661.936	7.31
661.969	-4.69
662.001	4.31
662.033	5.31
662.065	11.31
662.097	5.31
662.129	12.31
662.162	-4.69
662.194	8.31
662.226	16.31
662.258	14.31
662.29	11.31
662.322	-9.69
662.355	2.31
662.387	13.31
662.419	20.31
662.451	9.31
662.483	18.31
662.515	-9.69
662.547	-0.69
662.58	-2.69
662.612	-9.69
662.644	-13.69
662.676	-7.69
662.708	17.31
662.74	4.31
662.772	17.31
662.804	9.31
662.836	5.31
662.869	0.31
662.901	11.31
662.933	8.31
662.965	8.31
662.997	10.31
663.029	-12.69
663.061	13.31
663.093	-0.69
663.125	13.31
663.157	12.31
663.189	14.31
663.221	22.31
663.254	-12.69
663.286	-6.69
663.318	-1.69
663.35	4.31
663.382	7.31
663.414	16.31
663.446	5.31
663.478	1.31
663.51	18.31
663.542	10.31
663.574	10.31
663.606	12.31
663.638	5.31
663.67	-5.69
663.702	-10.69
663.734	-0.69
663.766	12.31
663.798	-12.69
663.83	3.31
663.862	5.31
663.894	0.31
663.926	-3.69
663.958	-5.69
663.99	1.31
664.022	-6.69
664.054	21.31
664.086	2.31
664.118	-6.69
664.15	-9.69
664.182	1.31
664.214	-0.69
664.246	19.31
664.278	12.31
664.31	27.31
664.342	9.31
664.374	2.31
664.406	2.31
664.438	2.31
664.47	17.31
664.502	8.31
664.534	16.31
664.566	10.31
664.598	13.31
664.63	-2.69
664.662	7.31
664.693	7.31
664.725	-6.69
664.757	-2.69
664.789	-12.69
664.821	-3.69
664.853	1.31
664.885	13.31
664.917	11.31
664.949	16.31
664.981	15.31
665.013	3.31
665.045	-11.69
665.076	-1.69
665.108	3.31
665.14	2.31
665.172	10.31
665.204	5.31
665.236	1.31
665.268	11.31
665.3	7.31
665.331	-9.69
665.363	12.31
665.395	-5.69
665.427	5.31
665.459	0.31
665.491	5.31
665.523	8.31
665.555	1.31
665.586	8.31
665.618	7.31
665.65	-13.69
665.682	9.31
665.714	10.31
665.746	-4.69
665.777	11.31
665.809	-2.69
665.841	1.31
665.873	5.31
665.905	2.31
665.937	11.31
665.968	-5.69
666	4.31
666.032	10.31
666.064	9.31
666.096	20.31
666.127	23.31
666.159	17.31
666.191	17.31
666.223	5.31
666.255	-0.69
666.286	7.31
666.318	-1.69
666.35	7.31
666.382	11.31
666.413	-2.69
666.445	9.31
666.477	-11.69
666.509	3.31
666.54	6.31
666.572	-20.69
666.604	-3.69
666.636	10.31
666.667	20.31
666.699	1.31
666.731	9.31
666.763	-15.69
666.794	23.31
666.826	11.31
666.858	-18.69
666.89	21.31
666.921	6.31
666.953	-1.69
666.985	21.31
667.017	20.31
667.048	5.31
667.08	7.31
667.112	-6.69
667.143	14.31
667.175	24.31
667.207	22.31
667.238	19.31
667.27	-3.69
667.302	8.31
667.334	5.31
667.365	20.31
667.397	4.31
667.429	0.31
667.46	16.31
667.492	10.31
667.524	13.31
667.555	3.31
667.587	10.31
667.619	2.31
667.65	-13.69
667.682	6.31
667.714	9.31
667.745	15.31
667.777	13.31
667.808	-1.69
667.84	0.31
667.872	-6.69
667.903	19.31
667.935	1.31
667.967	13.31
667.998	3.31
668.03	0.31
668.061	13.31
668.093	-3.69
668.125	15.31
668.156	1.31
668.188	3.31
668.22	-3.69
668.251	2.31
668.283	6.31
668.314	8.31
668.346	-6.69
668.377	12.31
668.409	6.31
668.441	4.31
668.472	10.31
668.504	15.31
668.535	11.31
668.567	11.31
668.599	16.31
668.63	3.31
668.662	0.31
668.693	11.31
668.725	8.31
668.756	11.31
668.788	1.31
668.819	8.31
668.851	5.31
668.882	14.31
668.914	9.31
668.946	6.31
668.977	0.31
669.009	10.31
669.04	-12.69
669.072	14.31
669.103	1.31
669.135	-9.69
669.166	0.31
669.198	10.31
669.229	9.31
669.261	4.31
669.292	-9.69
669.324	13.31
669.355	15.31
669.387	-2.69
669.418	2.31
669.45	6.31
669.481	18.31
669.513	10.31
669.544	-2.69
669.576	-4.69
669.607	21.31
669.639	17.31
669.67	-21.69
669.701	4.31
669.733	7.31
669.764	14.31
669.796	2.31
669.827	-8.69
669.859	-6.69
669.89	6.31
669.922	12.31
669.953	33.31
669.985	14.31
670.016	9.31
670.047	12.31
670.079	4.31
670.11	18.31
670.142	8.31
670.173	-10.69
670.204	-16.69
670.236	1.31
670.267	11.31
670.299	7.31
670.33	2.31
670.362	16.31
670.393	-7.69
670.424	11.31
670.456	12.31
670.487	4.31
670.518	5.31
670.55	5.31
670.581	7.31
670.613	8.31
670.644	14.31
670.675	5.31
670.707	0.31
670.738	-4.69
670.769	1.31
670.801	-2.69
670.832	16.31
670.864	-5.69
670.895	1.31
670.926	8.31
670.958	8.31
670.989	9.31
671.02	-4.69
671.052	10.31
671.083	20.31
671.114	3.31
671.146	18.31
671.177	10.31
671.208	-11.69
671.24	-7.69
671.271	9.31
671.302	13.31
671.333	-1.69
671.365	5.31
671.396	-4.69
671.427	1.31
671.459	23.31
671.49	-1.69
671.521	-3.69
671.553	18.31
671.584	17.31
671.615	-6.69
671.646	1.31
671.678	-2.69
671.709	-5.69
671.74	-5.69
671.771	-1.69
671.803	-17.69
671.834	6.31
671.865	7.31
671.896	4.31
671.928	8.31
671.959	1.31
671.99	-2.69
672.021	-3.69
672.053	-1.69
672.084	5.31
672.115	6.31
672.146	3.31
672.178	-3.69
672.209	3.31
672.24	7.31
672.271	30.31
672.303	13.31
672.334	-13.69
672.365	0.31
672.396	7.31
672.427	9.31
672.459	8.31
672.49	21.31
672.521	4.31
672.552	20.31
672.583	15.31
672.615	10.31
672.646	13.31
672.677	13.31
672.708	14.31
672.739	-2.69
672.77	12.31
672.802	13.31
672.833	1.31
672.864	1.31
672.895	-2.69
672.926	13.31
672.957	0.31
672.989	3.31
673.02	13.31
673.051	-14.69
673.082	14.31
673.113	-2.69
673.144	1.31
673.175	3.31
673.206	-7.69
673.238	-16.69
673.269	12.31
673.3	8.31
673.331	15.31
673.362	5.31
673.393	12.31
673.424	15.31
673.455	26.31
673.487	13.31
673.518	14.31
673.549	7.31
673.58	-4.69
673.611	20.31
673.642	4.31
673.673	1.31
673.704	-2.69
673.735	-1.69
673.766	5.31
673.797	9.31
673.828	7.31
673.86	10.31
673.891	9.31
673.922	-3.69
673.953	10.31
673.984	15.31
674.015	14.31
674.046	1.31
674.077	5.31
674.108	-15.69
674.139	-7.69
674.17	5.31
674.201	-2.69
674.232	-15.69
674.263	-4.69
674.294	2.31
674.325	-13.69
674.356	12.31
674.387	10.31
674.418	3.31
674.449	6.31
674.48	-8.69
674.511	1.31
674.542	10.31
674.573	-3.69
674.604	23.31
674.635	12.31
674.666	22.31
674.697	8.31
674.728	20.31
674.759	12.31
674.79	2.31
674.821	-6.69
674.852	7.31
674.883	-6.69
674.914	-4.69
674.945	11.31
674.976	17.31
675.007	-11.69
675.038	-14.69
675.069	-6.69
675.1	2.31
675.131	10.31
675.162	0.31
675.193	-8.69
675.224	12.31
675.254	8.31
675.285	13.31
675.316	12.31
675.347	-11.69
675.378	5.31
675.409	5.31
675.44	6.31
675.471	11.31
675.502	-3.69
675.533	-2.69
675.564	16.31
675.595	10.31
675.625	21.31
675.656	17.31
675.687	12.31
675.718	-11.69
675.749	8.31
675.78	4.31
675.811	4.31
675.842	25.31
675.873	1.31
675.903	-2.69
675.934	1.31
675.965	1.31
675.996	0.31
676.027	-5.69
676.058	-7.69
676.089	-0.69
676.119	-2.69
676.15	1.31
676.181	-21.69
676.212	-9.69
676.243	9.31
676.274	0.31
676.304	9.31
676.335	-11.69
676.366	-5.69
676.397	13.31
676.428	6.31
676.459	5.31
676.489	3.31
676.52	14.31
676.551	-2.69
676.582	-4.69
676.613	14.31
676.643	-2.69
676.674	14.31
676.705	16.31
676.736	-4.69
676.767	24.31
676.797	8.31
676.828	21.31
676.859	-0.69
676.89	13.31
676.92	17.31
676.951	4.31
676.982	13.31
677.013	7.31
677.044	26.31
677.074	13.31
677.105	-0.69
677.136	10.31
677.167	15.31
677.197	12.31
677.228	-1.69
677.259	-12.69
677.289	10.31
677.32	12.31
677.351	6.31
677.382	-0.69
677.412	-6.69
677.443	16.31
677.474	0.31
677.505	-2.69
677.535	3.31
677.566	5.31
677.597	-18.69
677.627	-4.69
677.658	0.31
677.689	12.31
677.72	13.31
677.75	7.31
677.781	18.31
677.812	10.31
677.842	5.31
677.873	11.31
677.904	-15.69
677.934	-16.69
677.965	-5.69
677.996	-16.69
678.026	9.31
678.057	16.31
678.088	-5.69
678.118	-3.69
678.149	-12.69
678.18	1.31
678.21	11.31
678.241	4.31
678.272	-1.69
678.302	19.31
678.333	12.31
678.363	8.31
678.394	9.31
678.425	3.31
678.455	4.31
678.486	-9.69
678.517	3.31
678.547	11.31
678.578	6.31
678.608	-16.69
678.639	13.31
678.67	18.31
678.7	-11.69
678.731	6.31
678.761	4.31
678.792	7.31
678.823	20.31
678.853	-2.69
678.884	-2.69
678.914	17.31
678.945	3.31
678.975	-8.69
679.006	12.31
679.037	-2.69
679.067	14.31
679.098	-1.69
679.128	-12.69
679.159	-5.69
679.189	14.31
679.22	-4.69
679.25	6.31
679.281	9.31
679.312	-5.69
679.342	15.31
679.373	23.31
679.403	4.31
679.434	11.31
679.464	0.31
679.495	-8.69
679.525	5.31
679.556	-5.69
679.586	7.31
679.617	7.31
679.647	2.31
679.678	1.31
679.708	-14.69
679.739	0.31
679.769	6.31
679.8	12.31
679.83	10.31
679.861	23.31
679.891	0.31
679.922	-9.69
679.952	3.31
679.983	6.31
680.013	10.31
680.044	2.31
680.074	19.31
680.105	17.31
680.135	3.31
680.165	12.31
680.196	2.31
680.226	-0.69
680.257	14.31
680.287	6.31
680.318	12.31
680.348	-3.69
680.379	20.31
680.409	12.31
680.439	-10.69
680.47	-9.69
680.5	2.31
680.531	-3.69
680.561	20.31
680.592	9.31
680.622	26.31
680.652	16.31
680.683	8.31
680.713	0.31
680.744	18.31
680.774	-1.69
680.804	17.31
680.835	12.31
680.865	11.31
680.896	19.31
680.926	14.31
680.956	-0.69
680.987	9.31
681.017	-11.69
681.047	-4.69
681.078	5.31
681.108	4.31
681.139	6.31
681.169	10.31
681.199	-0.69
681.23	8.31
681.26	2.31
681.29	15.31
681.321	-0.69
681.351	12.31
681.381	-1.69
681.412	1.31
681.442	4.31
681.472	22.31
681.503	27.31
681.533	17.31
681.563	7.31
681.594	0.31
681.624	11.31
681.654	5.31
681.685	1.31
681.715	3.31
681.745	-7.69
681.775	-2.69
681.806	8.31
681.836	-4.69
681.866	5.31
681.897	11.31
681.927	-0.69
681.957	-9.69
681.987	11.31
682.018	12.31
682.048	21.31
682.078	12.31
682.109	15.31
682.139	23.31
682.169	-3.69
682.199	-11.69
682.23	5.31
682.26	16.31
682.29	-8.69
682.32	1.31
682.351	-5.69
682.381	9.31
682.411	-3.69
682.441	-13.69
682.472	5.31
682.502	2.31
682.532	-3.69
682.562	4.31
682.592	6.31
682.623	15.31
682.653	22.31
682.683	-0.69
682.713	29.31
682.743	-8.69
682.774	-24.69
682.804	12.31
682.834	23.31
682.864	9.31
682.894	8.31
682.925	17.31
682.955	18.31
682.985	11.31
683.015	3.31
683.045	15.31
683.076	1.31
683.106	10.31
683.136	7.31
683.166	-0.69
683.196	4.31
683.226	5.31
683.257	5.31
683.287	0.31
683.317	4.31
683.347	10.31
683.377	0.31
683.407	5.31
683.437	-1.69
683.468	16.31
683.498	-2.69
683.528	-0.69
683.558	4.31
683.588	-10.69
683.618	-16.69
683.648	-5.69
683.678	8.31
683.708	14.31
683.739	1.31
683.769	-0.69
683.799	-0.69
683.829	11.31
683.859	4.31
683.889	3.31
683.919	5.31
683.949	0.31
683.979	5.31
684.009	10.31
684.039	13.31
684.07	0.31
684.1	17.31
684.13	2.31
684.16	11.31
684.19	2.31
684.22	2.31
684.25	0.31
684.28	-11.69
684.31	27.31
684.34	13.31
684.37	-3.69
684.4	-9.69
684.43	11.31
684.46	13.31
684.49	13.31
684.52	25.31
684.55	27.31
684.58	9.31
684.61	14.31
684.64	17.31
684.67	23.31
684.7	15.31
684.73	12.31
684.76	10.31
684.79	19.31
684.82	5.31
684.85	-6.69
684.88	16.31
684.91	-10.69
684.94	11.31
684.97	4.31
685	-9.69
685.03	-7.69
685.06	0.31
685.09	12.31
685.12	20.31
685.15	7.31
685.18	9.31
685.21	12.31
685.24	14.31
685.27	13.31
685.3	2.31
685.33	15.31
685.36	-0.69
685.39	6.31
685.42	0.31
685.45	9.31
685.48	6.31
685.51	-4.69
685.54	-0.69
685.569	11.31
685.599	27.31
685.629	0.31
685.659	-1.69
685.689	10.31
685.719	0.31
685.749	3.31
685.779	21.31
685.809	16.31
685.839	9.31
685.869	16.31
685.898	-0.69
685.928	0.31
685.958	3.31
685.988	13.31
686.018	13.31
686.048	12.31
686.078	10.31
686.108	22.31
686.137	4.31
686.167	8.31
686.197	0.31
686.227	9.31
686.257	35.31
686.287	24.31
686.317	9.31
686.346	-6.69
686.376	-6.69
686.406	-2.69
686.436	32.31
686.466	2.31
686.496	3.31
686.525	1.31
686.555	5.31
686.585	9.31
686.615	12.31
686.645	-11.69
686.675	10.31
686.704	1.31
686.734	14.31
686.764	7.31
686.794	1.31
686.824	-1.69
686.853	16.31
686.883	4.31
686.913	6.31
686.943	1.31
686.973	13.31
687.002	9.31
687.032	14.31
687.062	1.31
687.092	10.31
687.121	-2.69
687.151	8.31
687.181	5.31
687.211	7.31
687.24	1.31
687.27	-1.69
687.3	3.31
687.33	5.31
687.359	-18.69
687.389	1.31
687.419	-15.69
687.449	13.31
687.478	11.31
687.508	12.31
687.538	-3.69
687.568	7.31
687.597	2.31
687.627	25.31
687.657	2.31
687.686	11.31
687.716	29.31
687.746	-10.69
687.776	9.31
687.805	8.31
687.835	-9.69
687.865	27.31
687.894	21.31
687.924	5.31
687.954	14.31
687.983	10.31
688.013	2.31
688.043	10.31
688.072	2.31
688.102	14.31
688.132	17.31
688.161	13.31
688.191	11.31
688.221	35.31
688.25	-5.69
688.28	9.31
688.31	-5.69
688.339	2.31
688.369	-6.69
688.399	1.31
688.428	3.31
688.458	11.31
688.488	-5.69
688.517	14.31
688.547	9.31
688.576	51.31
688.606	29.31
688.636	-10.69
688.665	8.31
688.695	28.31
688.725	24.31
688.754	11.31
688.784	6.31
688.813	29.31
688.843	11.31
688.873	1.31
688.902	2.31
688.932	16.31
688.961	16.31
688.991	21.31
689.02	14.31
689.05	-2.69
689.08	21.31
689.109	30.31
689.139	-5.69
689.168	12.31
689.198	0.31
689.227	2.31
689.257	8.31
689.287	16.31
689.316	-1.69
689.346	-11.69
689.375	-20.69
689.405	15.31
689.434	5.31
689.464	9.31
689.493	5.31
689.523	-2.69
689.552	11.31
689.582	8.31
689.611	6.31
689.641	10.31
689.67	12.31
689.7	0.31
689.73	7.31
689.759	15.31
689.789	14.31
689.818	3.31
689.848	11.31
689.877	22.31
689.906	5.31
689.936	-3.69
689.965	16.31
689.995	10.31
690.024	22.31
690.054	12.31
690.083	3.31
690.113	-5.69
690.142	1.31
690.172	-3.69
690.201	-5.69
690.231	-8.69
690.26	-5.69
690.29	4.31
690.319	12.31
690.348	4.31
690.378	11.31
690.407	12.31
690.437	8.31
690.466	1.31
690.496	1.31
690.525	18.31
690.555	-5.69
690.584	7.31
690.613	9.31
690.643	9.31
690.672	2.31
690.702	9.31
690.731	-8.69
690.76	-7.69
690.79	-0.69
690.819	-4.69
690.849	-2.69
690.878	-2.69
690.907	21.31
690.937	15.31
690.966	22.31
690.996	11.31
691.025	12.31
691.054	4.31
691.084	11.31
691.113	13.31
691.142	11.31
691.172	8.31
691.201	20.31
691.23	9.31
691.26	14.31
691.289	10.31
691.319	5.31
691.348	-0.69
691.377	19.31
691.407	10.31
691.436	29.31
691.465	20.31
691.495	14.31
691.524	1.31
691.553	0.31
691.583	-5.69
691.612	25.31
691.641	14.31
691.67	8.31
691.7	16.31
691.729	10.31
691.758	15.31
691.788	9.31
691.817	-3.69
691.846	-4.69
691.876	-2.69
691.905	7.31
691.934	-0.69
691.963	16.31
691.993	3.31
692.022	-11.69
692.051	-9.69
692.081	6.31
692.11	22.31
692.139	15.31
692.168	-0.69
692.198	18.31
692.227	6.31
692.256	7.31
692.285	8.31
692.315	12.31
692.344	-6.69
692.373	1.31
692.402	-25.69
692.432	-5.69
692.461	-0.69
692.49	-10.69
692.519	16.31
692.548	21.31
692.578	18.31
692.607	6.31
692.636	-13.69
692.665	1.31
692.694	10.31
692.724	9.31
692.753	21.31
692.782	18.31
692.811	10.31
692.84	7.31
692.87	6.31
692.899	9.31
692.928	13.31
692.957	6.31
692.986	18.31
693.016	23.31
693.045	19.31
693.074	27.31
693.103	7.31
693.132	-3.69
693.161	5.31
693.191	-1.69
693.22	-5.69
693.249	-0.69
693.278	1.31
693.307	6.31
693.336	8.31
693.365	-28.69
693.395	-9.69
693.424	-0.69
693.453	5.31
693.482	18.31
693.511	6.31
693.54	3.31
693.569	5.31
693.598	10.31
693.628	9.31
693.657	13.31
693.686	30.31
693.715	12.31
693.744	22.31
693.773	28.31
693.802	10.31
693.831	3.31
693.86	39.31
693.889	5.31
693.919	16.31
693.948	9.31
693.977	9.31
694.006	14.31
694.035	0.31
694.064	-1.69
694.093	13.31
694.122	15.31
694.151	13.31
694.18	24.31
694.209	21.31
694.238	13.31
694.267	23.31
694.296	15.31
694.325	13.31
694.354	9.31
694.383	1.31
694.412	-9.69
694.441	-13.69
694.471	-4.69
694.5	-4.69
694.529	3.31
694.558	27.31
694.587	20.31
694.616	18.31
694.645	9.31
694.674	15.31
694.703	24.31
694.732	6.31
694.761	11.31
694.79	8.31
694.819	11.31
694.848	6.31
694.877	30.31
694.906	31.31
694.935	16.31
694.963	15.31
694.992	16.31
695.021	12.31
695.05	9.31
695.079	8.31
695.108	17.31
695.137	18.31
695.166	17.31
695.195	-4.69
695.224	20.31
695.253	12.31
695.282	8.31
695.311	25.31
695.34	3.31
695.369	9.31
695.398	10.31
695.427	19.31
695.456	4.31
695.485	-2.69
695.513	11.31
695.542	7.31
695.571	-4.69
695.6	10.31
695.629	7.31
695.658	11.31
695.687	-11.69
695.716	-1.69
695.745	23.31
695.774	2.31
695.802	0.31
695.831	13.31
695.86	24.31
695.889	20.31
695.918	23.31
695.947	-2.69
695.976	17.31
696.005	14.31
696.033	13.31
696.062	6.31
696.091	1.31
696.12	12.31
696.149	17.31
696.178	4.31
696.207	7.31
696.235	-20.69
696.264	13.31
696.293	2.31
696.322	2.31
696.351	10.31
696.38	2.31
696.408	8.31
696.437	17.31
696.466	19.31
696.495	29.31
696.524	-4.69
696.553	2.31
696.581	11.31
696.61	-4.69
696.639	-1.69
696.668	15.31
696.697	5.31
696.725	15.31
696.754	5.31
696.783	1.31
696.812	9.31
696.84	13.31
696.869	15.31
696.898	7.31
696.927	25.31
696.956	31.31
696.984	9.31
697.013	9.31
697.042	9.31
697.071	17.31
697.099	10.31
697.128	23.31
697.157	20.31
697.186	-10.69
697.214	-11.69
697.243	8.31
697.272	17.31
697.301	5.31
697.329	14.31
697.358	3.31
697.387	34.31
697.415	14.31
697.444	4.31
697.473	13.31
697.502	6.31
697.53	-0.69
697.559	12.31
697.588	9.31
697.616	10.31
697.645	8.31
697.674	16.31
697.703	16.31
697.731	17.31
697.76	20.31
697.789	10.31
697.817	8.31
697.846	32.31
697.875	21.31
697.903	31.31
697.932	9.31
697.961	16.31
697.989	19.31
698.018	17.31
698.047	4.31
698.075	13.31
698.104	4.31
698.133	12.31
698.161	12.31
698.19	13.31
698.218	22.31
698.247	22.31
698.276	15.31
698.304	15.31
698.333	19.31
698.362	14.31
698.39	26.31
698.419	24.31
698.447	-4.69
698.476	-5.69
698.505	-1.69
698.533	15.31
698.562	26.31
698.591	4.31
698.619	-6.69
698.648	1.31
698.676	18.31
698.705	9.31
698.733	-1.69
698.762	20.31
698.791	15.31
698.819	7.31
698.848	1.31
698.876	20.31
698.905	6.31
698.933	3.31
698.962	-1.69
698.991	0.31
699.019	30.31
699.048	17.31
699.076	19.31
699.105	7.31
699.133	5.31
699.162	9.31
699.19	20.31
699.219	4.31
699.248	8.31
699.276	0.31
699.305	-8.69
699.333	4.31
699.362	5.31
699.39	18.31
699.419	5.31
699.447	10.31
699.476	22.31
699.504	7.31
699.533	3.31
699.561	-8.69
699.59	-11.69
699.618	0.31
699.647	16.31
699.675	11.31
699.704	27.31
699.732	1.31
699.761	20.31
699.789	6.31
699.818	12.31
699.846	-5.69
699.874	6.31
699.903	6.31
699.931	11.31
699.96	15.31
699.988	7.31
700.017	10.31
700.045	10.31
700.074	11.31
700.102	8.31
700.13	-1.69
700.159	4.31
700.187	17.31
700.216	14.31
700.244	0.31
700.273	6.31
700.301	5.31
700.329	6.31
700.358	9.31
700.386	-3.69
700.415	-4.69
700.443	5.31
700.472	-0.69
700.5	1.31
700.528	8.31
700.557	13.31
700.585	4.31
700.614	2.31
700.642	14.31
700.67	12.31
700.699	17.31
700.727	9.31
700.755	5.31
700.784	9.31
700.812	7.31
700.841	23.31
700.869	14.31
700.897	-9.69
700.926	-6.69
700.954	12.31
700.982	15.31
701.011	3.31
701.039	6.31
701.067	15.31
701.096	10.31
701.124	3.31
701.152	1.31
701.181	1.31
701.209	-0.69
701.237	14.31
701.266	0.31
701.294	-4.69
701.322	15.31
701.351	9.31
701.379	9.31
701.407	8.31
701.435	8.31
701.464	26.31
701.492	33.31
701.52	4.31
701.549	0.31
701.577	-10.69
701.605	3.31
701.634	13.31
701.662	19.31
701.69	0.31
701.718	-7.69
701.747	14.31
701.775	12.31
701.803	8.31
701.831	14.31
701.86	5.31
701.888	6.31
701.916	-1.69
701.944	-4.69
701.973	0.31
702.001	9.31
702.029	5.31
702.057	15.31
702.086	7.31
702.114	-16.69
702.142	-5.69
702.17	-1.69
702.199	16.31
702.227	8.31
702.255	6.31
702.283	9.31
702.311	21.31
702.34	0.31
702.368	0.31
702.396	-3.69
702.424	-6.69
702.452	13.31
702.481	15.31
702.509	0.31
702.537	29.31
702.565	6.31
702.593	5.31
702.621	7.31
702.65	9.31
702.678	2.31
702.706	21.31
702.734	-9.69
702.762	6.31
702.79	8.31
702.819	12.31
702.847	18.31
702.875	22.31
702.903	17.31
702.931	-9.69
702.959	-0.69
702.988	5.31
703.016	3.31
703.044	-4.69
703.072	1.31
703.1	2.31
703.128	8.31
703.156	6.31
703.184	16.31
703.212	14.31
703.241	8.31
703.269	6.31
703.297	14.31
703.325	9.31
703.353	-5.69
703.381	-5.69
703.409	-3.69
703.437	3.31
703.465	-8.69
703.493	11.31
703.522	9.31
703.55	19.31
703.578	3.31
703.606	2.31
703.634	5.31
703.662	-5.69
703.69	14.31
703.718	21.31
703.746	24.31
703.774	-2.69
703.802	11.31
703.83	4.31
703.858	5.31
703.886	-4.69
703.914	-1.69
703.942	5.31
703.97	15.31
703.998	6.31
704.027	13.31
704.055	30.31
704.083	-6.69
704.111	-9.69
704.139	4.31
704.167	-18.69
704.195	3.31
704.223	3.31
704.251	7.31
704.279	17.31
704.307	1.31
704.335	-2.69
704.363	5.31
704.391	9.31
704.419	6.31
704.447	-15.69
704.475	17.31
704.503	0.31
704.531	-0.69
704.558	15.31
704.586	17.31
704.614	12.31
704.642	10.31
704.67	-10.69
704.698	-2.69
704.726	19.31
704.754	11.31
704.782	10.31
704.81	9.31
704.838	24.31
704.866	9.31
704.894	5.31
704.922	5.31
704.95	4.31
704.978	9.31
705.006	13.31
705.034	9.31
705.061	4.31
705.089	14.31
705.117	0.31
705.145	3.31
705.173	1.31
705.201	0.31
705.229	29.31
705.257	1.31
705.285	9.31
705.313	9.31
705.34	16.31
705.368	-2.69
705.396	3.31
705.424	29.31
705.452	1.31
705.48	14.31
705.508	0.31
705.536	1.31
705.563	-3.69
705.591	5.31
705.619	2.31
705.647	-6.69
705.675	2.31
705.703	-8.69
705.731	-7.69
705.758	2.31
705.786	4.31
705.814	20.31
705.842	11.31
705.87	14.31
705.898	25.31
705.925	2.31
705.953	12.31
705.981	-6.69
706.009	9.31
706.037	9.31
706.065	13.31
706.092	-6.69
706.12	4.31
706.148	-8.69
706.176	12.31
706.204	14.31
706.231	24.31
706.259	-2.69
706.287	7.31
706.315	12.31
706.342	-11.69
706.37	13.31
706.398	-0.69
706.426	-6.69
706.454	9.31
706.481	31.31
706.509	6.31
706.537	-4.69
706.565	-15.69
706.592	19.31
706.62	8.31
706.648	17.31
706.676	1.31
706.703	8.31
706.731	20.31
706.759	13.31
706.787	10.31
706.814	17.31
706.842	-2.69
706.87	-0.69
706.897	5.31
706.925	2.31
706.953	14.31
706.981	18.31
707.008	-5.69
707.036	3.31
707.064	-5.69
707.091	2.31
707.119	24.31
707.147	12.31
707.174	-6.69
707.202	13.31
707.23	-9.69
707.258	8.31
707.285	7.31
707.313	-2.69
707.341	-12.69
707.368	2.31
707.396	9.31
707.424	10.31
707.451	12.31
707.479	11.31
707.507	17.31
707.534	14.31
707.562	17.31
707.59	9.31
707.617	-10.69
707.645	-2.69
707.672	12.31
707.7	8.31
707.728	15.31
707.755	21.31
707.783	-13.69
707.811	-7.69
707.838	-2.69
707.866	4.31
707.893	-7.69
707.921	0.31
707.949	6.31
707.976	4.31
708.004	22.31
708.031	-4.69
708.059	-1.69
708.087	1.31
708.114	-12.69
708.142	-10.69
708.169	9.31
708.197	-10.69
708.225	-1.69
708.252	-2.69
708.28	5.31
708.307	11.31
708.335	-11.69
708.362	5.31
708.39	-1.69
708.418	-6.69
708.445	-4.69
708.473	6.31
708.5	-0.69
708.528	10.31
708.555	6.31
708.583	4.31
708.61	-1.69
708.638	14.31
708.665	-2.69
708.693	8.31
708.72	1.31
708.748	2.31
708.776	3.31
708.803	27.31
708.831	16.31
708.858	21.31
708.886	3.31
708.913	3.31
708.941	-7.69
708.968	5.31
708.996	1.31
709.023	22.31
709.051	4.31
709.078	2.31
709.105	9.31
709.133	0.31
709.16	7.31
709.188	7.31
709.215	13.31
709.243	8.31
709.27	-12.69
709.298	0.31
709.325	-6.69
709.353	5.31
709.38	11.31
709.408	8.31
709.435	9.31
709.462	3.31
709.49	12.31
709.517	-6.69
709.545	0.31
709.572	4.31
709.6	3.31
709.627	-5.69
709.655	1.31
709.682	-13.69
709.709	4.31
709.737	12.31
709.764	5.31
709.792	26.31
709.819	9.31
709.846	2.31
709.874	10.31
709.901	14.31
709.929	9.31
709.956	11.31
709.983	11.31
710.011	1.31
710.038	-2.69
710.066	8.31
710.093	14.31
710.12	20.31
710.148	4.31
710.175	-2.69
710.202	-10.69
710.23	2.31
710.257	17.31
710.284	8.31
710.312	2.31
710.339	-6.69
710.366	-9.69
710.394	-3.69
710.421	-0.69
710.448	-2.69
710.476	-14.69
710.503	9.31
710.53	17.31
710.558	22.31
710.585	24.31
710.612	15.31
710.64	2.31
710.667	11.31
710.694	2.31
710.722	6.31
710.749	-1.69
710.776	4.31
710.804	9.31
710.831	3.31
710.858	5.31
710.885	-1.69
710.913	-6.69
710.94	12.31
710.967	5.31
710.995	8.31
711.022	5.31
711.049	5.31
711.076	-1.69
711.104	6.31
711.131	2.31
711.158	6.31
711.185	12.31
711.213	-13.69
711.24	-2.69
711.267	2.31
711.294	3.31
711.322	14.31
711.349	-2.69
711.376	10.31
711.403	17.31
711.431	-6.69
711.458	1.31
711.485	-7.69
711.512	10.31
711.54	-10.69
711.567	-6.69
711.594	-11.69
711.621	-6.69
711.648	-0.69
711.676	22.31
711.703	-4.69
711.73	-19.69
711.757	0.31
711.784	0.31
711.812	3.31
711.839	-5.69
711.866	-3.69
711.893	-2.69
711.92	16.31
711.947	7.31
711.975	10.31
712.002	5.31
712.029	3.31
712.056	-1.69
712.083	6.31
712.11	5.31
712.138	3.31
712.165	13.31
712.192	16.31
712.219	-4.69
712.246	4.31
712.273	-12.69
712.3	-0.69
712.328	4.31
712.355	0.31
712.382	-6.69
712.409	8.31
712.436	-5.69
712.463	10.31
712.49	5.31
712.517	8.31
712.544	6.31
712.572	4.31
712.599	-11.69
712.626	15.31
712.653	5.31
712.68	1.31
712.707	20.31
712.734	21.31
712.761	13.31
712.788	13.31
712.815	11.31
712.842	16.31
712.87	8.31
712.897	1.31
712.924	-23.69
712.951	6.31
712.978	15.31
713.005	9.31
713.032	13.31
713.059	9.31
713.086	3.31
713.113	-6.69
713.14	-15.69
713.167	12.31
713.194	10.31
713.221	1.31
713.248	15.31
713.275	5.31
713.302	2.31
713.329	11.31
713.356	1.31
713.383	12.31
713.41	13.31
713.437	2.31
713.464	-5.69
713.491	13.31
713.518	10.31
713.545	-6.69
713.572	-0.69
713.599	24.31
713.626	11.31
713.653	8.31
713.68	4.31
713.707	6.31
713.734	16.31
713.761	-11.69
713.788	-5.69
713.815	11.31
713.842	4.31
713.869	-2.69
713.896	13.31
713.923	4.31
713.95	7.31
713.977	15.31
714.004	5.31
714.031	10.31
714.058	1.31
714.085	10.31
714.112	28.31
714.139	9.31
714.165	1.31
714.192	7.31
714.219	-2.69
714.246	16.31
714.273	11.31
714.3	-0.69
714.327	6.31
714.354	10.31
714.381	-0.69
714.408	10.31
714.435	-16.69
714.461	-11.69
714.488	14.31
714.515	2.31
714.542	1.31
714.569	-6.69
714.596	-17.69
714.623	-10.69
714.65	0.31
714.677	7.31
714.703	-1.69
714.73	0.31
714.757	2.31
714.784	-2.69
714.811	-5.69
714.838	1.31
714.865	-7.69
714.891	5.31
714.918	3.31
714.945	10.31
714.972	5.31
714.999	6.31
715.026	-2.69
715.052	4.31
715.079	2.31
715.106	-5.69
715.133	12.31
715.16	-0.69
715.187	9.31
715.213	0.31
715.24	-2.69
715.267	-1.69
715.294	4.31
715.321	1.31
715.347	4.31
715.374	4.31
715.401	10.31
715.428	6.31
715.455	6.31
715.481	-12.69
715.508	14.31
715.535	1.31
715.562	17.31
715.588	10.31
715.615	-6.69
715.642	3.31
715.669	5.31
715.695	-5.69
715.722	7.31
715.749	-2.69
715.776	23.31
715.802	2.31
715.829	-3.69
715.856	1.31
715.883	13.31
715.909	-4.69
715.936	5.31
715.963	10.31
715.99	1.31
716.016	0.31
716.043	5.31
716.07	-5.69
716.096	-6.69
716.123	14.31
716.15	-4.69
716.177	19.31
716.203	20.31
716.23	20.31
716.257	20.31
716.283	23.31
716.31	9.31
716.337	22.31
716.363	9.31
716.39	8.31
716.417	8.31
716.443	12.31
716.47	18.31
716.497	10.31
716.523	17.31
716.55	10.31
716.577	15.31
716.603	0.31
716.63	-6.69
716.657	6.31
716.683	-7.69
716.71	-9.69
716.737	-5.69
716.763	8.31
716.79	26.31
716.817	14.31
716.843	1.31
716.87	13.31
716.897	21.31
716.923	17.31
716.95	-5.69
716.976	-9.69
717.003	9.31
717.03	20.31
717.056	16.31
717.083	8.31
717.109	12.31
717.136	2.31
717.163	-6.69
717.189	-5.69
717.216	-3.69
717.242	6.31
717.269	3.31
717.296	12.31
717.322	12.31
717.349	17.31
717.375	15.31
717.402	3.31
717.428	9.31
717.455	23.31
717.481	10.31
717.508	-1.69
717.535	10.31
717.561	8.31
717.588	-4.69
717.614	11.31
717.641	-4.69
717.667	-12.69
717.694	2.31
717.72	10.31
717.747	15.31
717.773	-0.69
717.8	5.31
717.826	9.31
717.853	4.31
717.88	14.31
717.906	2.31
717.933	11.31
717.959	19.31
717.986	16.31
718.012	-10.69
718.039	3.31
718.065	17.31
718.092	11.31
718.118	6.31
718.144	9.31
718.171	3.31
718.197	8.31
718.224	-4.69
718.25	17.31
718.277	4.31
718.303	-5.69
718.33	7.31
718.356	1.31
718.383	-10.69
718.409	1.31
718.436	3.31
718.462	14.31
718.489	-13.69
718.515	15.31
718.541	21.31
718.568	22.31
718.594	4.31
718.621	7.31
718.647	11.31
718.674	28.31
718.7	27.31
718.726	14.31
718.753	4.31
718.779	16.31
718.806	7.31
718.832	13.31
718.858	5.31
718.885	0.31
718.911	-2.69
718.938	16.31
718.964	9.31
718.99	10.31
719.017	16.31
719.043	9.31
719.07	10.31
719.096	8.31
719.122	25.31
719.149	15.31
719.175	8.31
719.201	4.31
719.228	1.31
719.254	14.31
719.281	8.31
719.307	3.31
719.333	13.31
719.36	23.31
719.386	8.31
719.412	4.31
719.439	-4.69
719.465	-1.69
719.491	-15.69
719.518	8.31
719.544	3.31
719.57	20.31
719.597	-13.69
719.623	-4.69
719.649	-3.69
719.675	14.31
719.702	17.31
719.728	36.31
719.754	-2.69
719.781	2.31
719.807	-0.69
719.833	-0.69
719.86	-6.69
719.886	4.31
719.912	15.31
719.938	5.31
719.965	12.31
719.991	23.31
720.017	1.31
720.044	0.31
720.07	13.31
720.096	4.31
720.122	5.31
720.149	-0.69
720.175	24.31
720.201	-7.69
720.227	-2.69
720.254	5.31
720.28	-5.69
720.306	2.31
720.332	8.31
720.359	4.31
720.385	-11.69
720.411	4.31
720.437	-2.69
720.463	-1.69
720.49	10.31
720.516	15.31
720.542	2.31
720.568	0.31
720.595	28.31
720.621	4.31
720.647	4.31
720.673	9.31
720.699	6.31
720.725	17.31
720.752	17.31
720.778	6.31
720.804	20.31
720.83	8.31
720.856	3.31
720.883	8.31
720.909	9.31
720.935	15.31
720.961	0.31
720.987	-0.69
721.013	3.31
721.04	2.31
721.066	-9.69
721.092	-1.69
721.118	12.31
721.144	0.31
721.17	2.31
721.196	16.31
721.223	1.31
721.249	-0.69
721.275	31.31
721.301	4.31
721.327	18.31
721.353	7.31
721.379	-0.69
721.405	14.31
721.432	16.31
721.458	-4.69
721.484	-3.69
721.51	-13.69
721.536	9.31
721.562	11.31
721.588	11.31
721.614	-5.69
721.64	0.31
721.666	-7.69
721.693	2.31
721.719	-2.69
721.745	-3.69
721.771	-3.69
721.797	-6.69
721.823	-2.69
721.849	30.31
721.875	19.31
721.901	10.31
721.927	-2.69
721.953	-0.69
721.979	7.31
722.005	4.31
722.031	3.31
722.057	13.31
722.083	17.31
722.109	16.31
722.135	19.31
722.161	8.31
722.187	9.31
722.214	18.31
722.24	2.31
722.266	8.31
722.292	12.31
722.318	13.31
722.344	8.31
722.37	17.31
722.396	12.31
722.422	4.31
722.448	9.31
722.474	-1.69
722.5	9.31
722.526	-0.69
722.552	2.31
722.578	-4.69
722.603	14.31
722.629	6.31
722.655	20.31
722.681	7.31
722.707	4.31
722.733	1.31
722.759	0.31
722.785	-1.69
722.811	9.31
722.837	5.31
722.863	22.31
722.889	13.31
722.915	-0.69
722.941	1.31
722.967	2.31
722.993	26.31
723.019	9.31
723.045	10.31
723.071	8.31
723.097	11.31
723.122	2.31
723.148	-4.69
723.174	-1.69
723.2	5.31
723.226	6.31
723.252	11.31
723.278	19.31
723.304	-7.69
723.33	22.31
723.356	1.31
723.381	6.31
723.407	8.31
723.433	13.31
723.459	20.31
723.485	-1.69
723.511	13.31
723.537	-9.69
723.563	1.31
723.588	12.31
723.614	16.31
723.64	10.31
723.666	-3.69
723.692	16.31
723.718	-0.69
723.744	-0.69
723.769	-4.69
723.795	5.31
723.821	-2.69
723.847	7.31
723.873	13.31
723.899	18.31
723.924	5.31
723.95	13.31
723.976	9.31
724.002	21.31
724.028	12.31
724.053	0.31
724.079	9.31
724.105	5.31
724.131	1.31
724.157	9.31
724.182	10.31
724.208	13.31
724.234	19.31
724.26	12.31
724.286	8.31
724.311	-2.69
724.337	-6.69
724.363	6.31
724.389	11.31
724.415	-1.69
724.44	35.31
724.466	9.31
724.492	3.31
724.518	-0.69
724.543	-1.69
724.569	11.31
724.595	9.31
724.621	5.31
724.646	11.31
724.672	-3.69
724.698	-4.69
724.723	2.31
724.749	2.31
724.775	26.31
724.801	11.31
724.826	8.31
724.852	11.31
724.878	9.31
724.904	2.31
724.929	-1.69
724.955	-2.69
724.981	23.31
725.006	12.31
725.032	3.31
725.058	28.31
725.083	7.31
725.109	6.31
725.135	28.31
725.161	14.31
725.186	6.31
725.212	12.31
725.238	17.31
725.263	10.31
725.289	3.31
725.315	11.31
725.34	7.31
725.366	13.31
725.392	-2.69
725.417	-9.69
725.443	-6.69
725.468	9.31
725.494	13.31
725.52	14.31
725.545	10.31
725.571	-5.69
725.597	12.31
725.622	17.31
725.648	14.31
725.674	4.31
725.699	2.31
725.725	-1.69
725.75	28.31
725.776	16.31
725.802	14.31
725.827	21.31
725.853	10.31
725.878	20.31
725.904	16.31
725.93	-1.69
725.955	-6.69
725.981	-4.69
726.006	2.31
726.032	10.31
726.057	-4.69
726.083	-9.69
726.109	-1.69
726.134	8.31
726.16	-9.69
726.185	-6.69
726.211	11.31
726.236	26.31
726.262	30.31
726.288	8.31
726.313	20.31
726.339	18.31
726.364	8.31
726.39	6.31
726.415	8.31
726.441	-0.69
726.466	5.31
726.492	10.31
726.517	10.31
726.543	-9.69
726.568	-17.69
726.594	5.31
726.619	8.31
726.645	16.31
726.67	9.31
726.696	9.31
726.721	18.31
726.747	-3.69
726.772	2.31
726.798	-0.69
726.823	17.31
726.849	4.31
726.874	-2.69
726.9	10.31
726.925	13.31
726.951	2.31
726.976	10.31
727.002	13.31
727.027	9.31
727.053	21.31
727.078	3.31
727.104	5.31
727.129	-5.69
727.155	8.31
727.18	1.31
727.205	9.31
727.231	3.31
727.256	20.31
727.282	5.31
727.307	9.31
727.333	8.31
727.358	-2.69
727.383	-3.69
727.409	0.31
727.434	12.31
727.46	5.31
727.485	4.31
727.511	5.31
727.536	-8.69
727.561	-2.69
727.587	-14.69
727.612	3.31
727.637	5.31
727.663	-5.69
727.688	22.31
727.714	-1.69
727.739	2.31
727.764	13.31
727.79	15.31
727.815	-5.69
727.841	5.31
727.866	-0.69
727.891	5.31
727.917	2.31
727.942	6.31
727.967	4.31
727.993	-3.69
728.018	-7.69
728.043	0.31
728.069	6.31
728.094	14.31
728.119	8.31
728.145	25.31
728.17	16.31
728.195	3.31
728.221	5.31
728.246	-10.69
728.271	-3.69
728.297	1.31
728.322	0.31
728.347	8.31
728.373	17.31
728.398	17.31
728.423	-2.69
728.448	9.31
728.474	4.31
728.499	9.31
728.524	-5.69
728.55	-5.69
728.575	16.31
728.6	9.31
728.625	2.31
728.651	-7.69
728.676	1.31
728.701	-10.69
728.727	-11.69
728.752	-2.69
728.777	2.31
728.802	1.31
728.828	9.31
728.853	1.31
728.878	-7.69
728.903	-1.69
728.929	0.31
728.954	7.31
728.979	9.31
729.004	5.31
729.03	-6.69
729.055	20.31
729.08	6.31
729.105	2.31
729.13	17.31
729.156	16.31
729.181	4.31
729.206	-7.69
729.231	4.31
729.256	13.31
729.282	11.31
729.307	-1.69
729.332	-14.69
729.357	-5.69
729.382	1.31
729.408	6.31
729.433	11.31
729.458	16.31
729.483	19.31
729.508	15.31
729.533	4.31
729.559	0.31
729.584	-8.69
729.609	11.31
729.634	10.31
729.659	3.31
729.684	-8.69
729.71	13.31
729.735	0.31
729.76	1.31
729.785	-5.69
729.81	15.31
729.835	-3.69
729.86	-23.69
729.886	13.31
729.911	-0.69
729.936	-3.69
729.961	4.31
729.986	-3.69
730.011	0.31
730.036	12.31
730.061	10.31
730.086	20.31
730.112	12.31
730.137	20.31
730.162	16.31
730.187	-0.69
730.212	2.31
730.237	10.31
730.262	-4.69
730.287	-9.69
730.312	26.31
730.337	11.31
730.362	24.31
730.387	12.31
730.413	0.31
730.438	-3.69
730.463	-9.69
730.488	-7.69
730.513	-4.69
730.538	-2.69
730.563	14.31
730.588	16.31
730.613	13.31
730.638	-4.69
730.663	-3.69
730.688	26.31
730.713	-5.69
730.738	11.31
730.763	5.31
730.788	2.31
730.813	9.31
730.838	15.31
730.863	6.31
730.888	8.31
730.913	-12.69
730.938	-10.69
730.963	6.31
730.988	7.31
731.013	18.31
731.038	4.31
731.063	7.31
731.088	8.31
731.113	-5.69
731.138	1.31
731.163	4.31
731.188	2.31
731.213	9.31
731.238	10.31
731.263	8.31
731.288	1.31
731.313	20.31
731.338	10.31
731.363	3.31
731.388	1.31
731.413	13.31
731.438	21.31
731.463	1.31
731.487	12.31
731.512	-3.69
731.537	8.31
731.562	5.31
731.587	6.31
731.612	-1.69
731.637	-11.69
731.662	-6.69
731.687	6.31
731.712	-11.69
731.737	2.31
731.762	9.31
731.786	-9.69
731.811	6.31
731.836	-2.69
731.861	0.31
731.886	-6.69
731.911	12.31
731.936	10.31
731.961	-3.69
731.986	13.31
732.01	1.31
732.035	10.31
732.06	14.31
732.085	16.31
732.11	-4.69
732.135	0.31
732.16	12.31
732.184	10.31
732.209	0.31
732.234	4.31
732.259	5.31
732.284	9.31
732.309	0.31
732.334	-7.69
732.358	4.31
732.383	-2.69
732.408	6.31
732.433	10.31
732.458	7.31
732.482	4.31
732.507	0.31
732.532	1.31
732.557	20.31
732.582	12.31
732.607	7.31
732.631	-18.69
732.656	-5.69
732.681	11.31
732.706	8.31
732.73	4.31
732.755	-9.69
732.78	8.31
732.805	-2.69
732.83	-2.69
732.854	5.31
732.879	4.31
732.904	1.31
732.929	1.31
732.953	4.31
732.978	1.31
733.003	-7.69
733.028	0.31
733.052	4.31
733.077	8.31
733.102	5.31
733.127	-5.69
733.151	-6.69
733.176	-1.69
733.201	-0.69
733.226	-5.69
733.25	9.31
733.275	-2.69
733.3	11.31
733.324	20.31
733.349	22.31
733.374	14.31
733.399	11.31
733.423	1.31
733.448	5.31
733.473	-0.69
733.497	-0.69
733.522	-10.69
733.547	9.31
733.571	5.31
733.596	0.31
733.621	6.31
733.646	3.31
733.67	20.31
733.695	1.31
733.72	19.31
733.744	11.31
733.769	10.31
733.794	0.31
733.818	-1.69
733.843	-4.69
733.867	-7.69
733.892	12.31
733.917	5.31
733.941	4.31
733.966	2.31
733.991	7.31
734.015	19.31
734.04	5.31
734.065	5.31
734.089	22.31
734.114	12.31
734.138	3.31
734.163	13.31
734.188	7.31
734.212	18.31
734.237	11.31
734.261	1.31
734.286	4.31
734.311	2.31
734.335	7.31
734.36	5.31
734.384	-1.69
734.409	4.31
734.434	-13.69
734.458	3.31
734.483	9.31
734.507	2.31
734.532	4.31
734.556	17.31
734.581	10.31
734.606	13.31
734.63	3.31
734.655	8.31
734.679	7.31
734.704	-7.69
734.728	13.31
734.753	3.31
734.777	6.31
734.802	-5.69
734.826	8.31
734.851	20.31
734.876	8.31
734.9	6.31
734.925	9.31
734.949	10.31
734.974	4.31
734.998	-9.69
735.023	-10.69
735.047	-10.69
735.072	20.31
735.096	3.31
735.121	4.31
735.145	-6.69
735.17	16.31
735.194	23.31
735.219	12.31
735.243	8.31
735.268	22.31
735.292	16.31
735.317	17.31
735.341	13.31
735.365	3.31
735.39	17.31
735.414	13.31
735.439	11.31
735.463	0.31
735.488	9.31
735.512	-4.69
735.537	8.31
735.561	-4.69
735.586	2.31
735.61	5.31
735.634	-3.69
735.659	5.31
735.683	18.31
735.708	11.31
735.732	-9.69
735.757	5.31
735.781	18.31
735.805	17.31
735.83	-7.69
735.854	-3.69
735.879	13.31
735.903	15.31
735.927	19.31
735.952	14.31
735.976	-1.69
736.001	9.31
736.025	17.31
736.049	11.31
736.074	-5.69
736.098	8.31
736.123	10.31
736.147	9.31
736.171	4.31
736.196	4.31
736.22	3.31
736.244	24.31
736.269	1.31
736.293	11.31
736.317	12.31
736.342	4.31
736.366	15.31
736.39	10.31
736.415	11.31
736.439	11.31
736.463	17.31
736.488	24.31
736.512	6.31
736.536	10.31
736.561	28.31
736.585	5.31
736.609	9.31
736.634	3.31
736.658	-0.69
736.682	7.31
736.707	4.31
736.731	4.31
736.755	6.31
736.78	24.31
736.804	14.31
736.828	12.31
736.852	4.31
736.877	9.31
736.901	9.31
736.925	14.31
736.949	4.31
736.974	17.31
736.998	-6.69
737.022	13.31
737.047	-6.69
737.071	9.31
737.095	11.31
737.119	22.31
737.144	17.31
737.168	2.31
737.192	10.31
737.216	27.31
737.241	1.31
737.265	8.31
737.289	-3.69
737.313	5.31
737.337	19.31
737.362	12.31
737.386	2.31
737.41	-7.69
737.434	27.31
737.459	1.31
737.483	12.31
737.507	1.31
737.531	15.31
737.555	13.31
737.58	3.31
737.604	8.31
737.628	1.31
737.652	3.31
737.676	3.31
737.701	9.31
737.725	-3.69
737.749	12.31
737.773	0.31
737.797	-4.69
737.821	15.31
737.846	5.31
737.87	12.31
737.894	11.31
737.918	9.31
737.942	3.31
737.966	2.31
737.99	9.31
738.015	20.31
738.039	16.31
738.063	0.31
738.087	21.31
738.111	-5.69
738.135	24.31
738.159	6.31
738.184	13.31
738.208	6.31
738.232	-0.69
738.256	20.31
738.28	12.31
738.304	10.31
738.328	12.31
738.352	15.31
738.376	1.31
738.4	4.31
738.425	14.31
738.449	4.31
738.473	17.31
738.497	4.31
738.521	13.31
738.545	16.31
738.569	1.31
738.593	12.31
738.617	12.31
738.641	6.31
738.665	3.31
738.689	10.31
738.713	5.31
738.737	0.31
738.762	24.31
738.786	4.31
738.81	-1.69
738.834	4.31
738.858	-12.69
738.882	-0.69
738.906	0.31
738.93	14.31
738.954	16.31
738.978	5.31
739.002	-6.69
739.026	15.31
739.05	22.31
739.074	-0.69
739.098	16.31
739.122	13.31
739.146	6.31
739.17	17.31
739.194	29.31
739.218	17.31
739.242	14.31
739.266	9.31
739.29	32.31
739.314	20.31
739.338	4.31
739.362	12.31
739.386	5.31
739.41	-4.69
739.434	3.31
739.458	14.31
739.482	9.31
739.506	14.31
739.53	10.31
739.554	14.31
739.577	21.31
739.601	27.31
739.625	-14.69
739.649	15.31
739.673	2.31
739.697	6.31
739.721	2.31
739.745	11.31
739.769	7.31
739.793	10.31
739.817	16.31
739.841	-0.69
739.865	1.31
739.889	-13.69
739.912	10.31
739.936	-12.69
739.96	-2.69
739.984	18.31
740.008	5.31
740.032	-6.69
740.056	7.31
740.08	13.31
740.104	0.31
740.127	-3.69
740.151	10.31
740.175	14.31
740.199	10.31
740.223	43.31
740.247	10.31
740.271	3.31
740.295	0.31
740.318	0.31
740.342	16.31
740.366	15.31
740.39	8.31
740.414	3.31
740.438	-11.69
740.461	18.31
740.485	20.31
740.509	5.31
740.533	13.31
740.557	23.31
740.581	2.31
740.604	-7.69
740.628	8.31
740.652	12.31
740.676	21.31
740.7	15.31
740.723	-1.69
740.747	-7.69
740.771	11.31
740.795	7.31
740.819	15.31
740.842	4.31
740.866	16.31
740.89	14.31
740.914	6.31
740.938	-1.69
740.961	5.31
740.985	14.31
741.009	-5.69
741.033	9.31
741.056	16.31
741.08	1.31
741.104	-4.69
741.128	11.31
741.151	20.31
741.175	8.31
741.199	5.31
741.223	8.31
741.246	1.31
741.27	12.31
741.294	17.31
741.318	15.31
741.341	14.31
741.365	16.31
741.389	12.31
741.413	13.31
741.436	20.31
741.46	4.31
741.484	25.31
741.507	11.31
741.531	37.31
741.555	16.31
741.579	5.31
741.602	14.31
741.626	29.31
741.65	16.31
741.673	5.31
741.697	13.31
741.721	13.31
741.744	0.31
741.768	11.31
741.792	9.31
741.815	4.31
741.839	24.31
741.863	5.31
741.886	7.31
741.91	2.31
741.934	5.31
741.957	-7.69
741.981	14.31
742.005	-0.69
742.028	3.31
742.052	-3.69
742.075	5.31
742.099	17.31
742.123	18.31
742.146	0.31
742.17	-1.69
742.194	-0.69
742.217	-3.69
742.241	17.31
742.264	1.31
742.288	21.31
742.312	9.31
742.335	8.31
742.359	22.31
742.382	29.31
742.406	15.31
742.43	-5.69
742.453	18.31
742.477	-1.69
742.5	9.31
742.524	0.31
742.548	-11.69
742.571	1.31
742.595	4.31
742.618	11.31
742.642	0.31
742.665	4.31
742.689	-2.69
742.712	5.31
742.736	14.31
742.76	0.31
742.783	1.31
742.807	12.31
742.83	19.31
742.854	7.31
742.877	5.31
742.901	8.31
742.924	-0.69
742.948	16.31
742.971	3.31
742.995	8.31
743.018	-12.69
743.042	5.31
743.065	-1.69
743.089	12.31
743.112	8.31
743.136	-3.69
743.159	-12.69
743.183	1.31
743.206	16.31
743.23	-1.69
743.253	12.31
743.277	28.31
743.3	8.31
743.324	8.31
743.347	-0.69
743.371	26.31
743.394	9.31
743.418	11.31
743.441	3.31
743.465	8.31
743.488	12.31
743.512	-2.69
743.535	5.31
743.558	17.31
743.582	4.31
743.605	24.31
743.629	11.31
743.652	9.31
743.676	-1.69
743.699	6.31
743.723	12.31
743.746	5.31
743.769	2.31
743.793	5.31
743.816	12.31
743.84	19.31
743.863	8.31
743.886	18.31
743.91	20.31
743.933	5.31
743.957	5.31
743.98	-3.69
744.003	19.31
744.027	10.31
744.05	1.31
744.074	3.31
744.097	-13.69
744.12	-2.69
744.144	1.31
744.167	18.31
744.19	9.31
744.214	16.31
744.237	-3.69
744.26	22.31
744.284	-3.69
744.307	-15.69
744.331	8.31
744.354	3.31
744.377	0.31
744.401	-1.69
744.424	-1.69
744.447	-18.69
744.471	0.31
