Data from HighRes_H2D2_15_04_11_07_2024_HR4C61891__75__15-05-41-942.txt Node

Date: Thu Nov 07 15:05:41 EST 2024
User: crc00042
Spectrometer: HR4C6189
Trigger mode: 4
Integration Time (sec): 1.000000E-1
Scans to average: 1
Electric dark correction enabled: true
Nonlinearity correction enabled: false
Boxcar width: 0
XAxis mode: Wavelengths
Number of Pixels in Spectrum: 3648
>>>>>Begin Spectral Data<<<<<
639.567	-8.15
639.602	-8.15
639.636	-8.15
639.67	-47.15
639.704	-10.15
639.738	-2.15
639.773	12.85
639.807	-5.15
639.841	4.85
639.875	7.85
639.909	-2.15
639.943	-11.15
639.978	1.85
640.012	0.85
640.046	10.85
640.08	-3.15
640.114	-3.15
640.148	-12.15
640.182	-8.15
640.217	-1.15
640.251	25.85
640.285	3.85
640.319	-4.15
640.353	10.85
640.387	9.85
640.421	0.85
640.455	-2.15
640.49	-4.15
640.524	-1.15
640.558	8.85
640.592	16.85
640.626	-0.15
640.66	13.85
640.694	-0.15
640.728	2.85
640.762	18.85
640.796	5.85
640.83	8.85
640.865	-15.15
640.899	-5.15
640.933	6.85
640.967	8.85
641.001	0.85
641.035	-15.15
641.069	-9.15
641.103	-1.15
641.137	-15.15
641.171	-6.15
641.205	8.85
641.239	9.85
641.273	12.85
641.307	3.85
641.341	1.85
641.375	-13.15
641.409	-3.15
641.443	-7.15
641.477	-3.15
641.511	15.85
641.545	7.85
641.579	-3.15
641.614	2.85
641.648	6.85
641.682	-5.15
641.716	14.85
641.75	22.85
641.784	3.85
641.818	0.85
641.852	-1.15
641.886	-3.15
641.919	7.85
641.953	2.85
641.987	-10.15
642.021	12.85
642.055	8.85
642.089	6.85
642.123	7.85
642.157	8.85
642.191	-0.15
642.225	7.85
642.259	-3.15
642.293	5.85
642.327	10.85
642.361	12.85
642.395	2.85
642.429	15.85
642.463	14.85
642.497	16.85
642.531	7.85
642.565	-8.15
642.599	21.85
642.633	-12.15
642.666	-5.15
642.7	6.85
642.734	20.85
642.768	8.85
642.802	9.85
642.836	6.85
642.87	-1.15
642.904	5.85
642.938	7.85
642.972	-11.15
643.005	17.85
643.039	21.85
643.073	-13.15
643.107	9.85
643.141	7.85
643.175	1.85
643.209	-7.15
643.243	7.85
643.276	-2.15
643.31	-3.15
643.344	13.85
643.378	16.85
643.412	14.85
643.446	16.85
643.48	-3.15
643.513	7.85
643.547	-3.15
643.581	-4.15
643.615	8.85
643.649	9.85
643.683	7.85
643.716	5.85
643.75	5.85
643.784	-16.15
643.818	3.85
643.852	-10.15
643.886	9.85
643.919	27.85
643.953	3.85
643.987	0.85
644.021	7.85
644.055	15.85
644.088	4.85
644.122	-18.15
644.156	-5.15
644.19	0.85
644.224	-4.15
644.257	-3.15
644.291	2.85
644.325	5.85
644.359	-0.15
644.392	19.85
644.426	20.85
644.46	14.85
644.494	14.85
644.527	-6.15
644.561	-6.15
644.595	11.85
644.629	-10.15
644.662	-3.15
644.696	12.85
644.73	-2.15
644.764	-8.15
644.797	7.85
644.831	-5.15
644.865	12.85
644.899	-4.15
644.932	9.85
644.966	12.85
645	7.85
645.033	12.85
645.067	6.85
645.101	12.85
645.135	3.85
645.168	8.85
645.202	-8.15
645.236	6.85
645.269	9.85
645.303	-8.15
645.337	-22.15
645.37	13.85
645.404	14.85
645.438	7.85
645.471	5.85
645.505	16.85
645.539	6.85
645.572	-11.15
645.606	-2.15
645.64	-8.15
645.673	9.85
645.707	19.85
645.741	-1.15
645.774	-7.15
645.808	5.85
645.842	-11.15
645.875	0.85
645.909	-18.15
645.943	0.85
645.976	-4.15
646.01	16.85
646.043	15.85
646.077	9.85
646.111	8.85
646.144	18.85
646.178	25.85
646.212	-23.15
646.245	-0.15
646.279	7.85
646.312	-1.15
646.346	5.85
646.38	7.85
646.413	23.85
646.447	4.85
646.48	1.85
646.514	4.85
646.547	-2.15
646.581	9.85
646.615	-4.15
646.648	-24.15
646.682	-4.15
646.715	-7.15
646.749	13.85
646.782	-6.15
646.816	-30.15
646.85	3.85
646.883	-7.15
646.917	8.85
646.95	-4.15
646.984	8.85
647.017	-5.15
647.051	0.85
647.084	-7.15
647.118	0.85
647.151	24.85
647.185	6.85
647.218	-5.15
647.252	10.85
647.285	-4.15
647.319	-15.15
647.353	7.85
647.386	19.85
647.42	-0.15
647.453	1.85
647.487	5.85
647.52	-2.15
647.553	-8.15
647.587	-7.15
647.62	-16.15
647.654	-13.15
647.687	7.85
647.721	18.85
647.754	12.85
647.788	4.85
647.821	-13.15
647.855	7.85
647.888	21.85
647.922	23.85
647.955	0.85
647.989	-0.15
648.022	2.85
648.055	-0.15
648.089	7.85
648.122	24.85
648.156	9.85
648.189	-9.15
648.223	5.85
648.256	22.85
648.29	0.85
648.323	3.85
648.356	11.85
648.39	-0.15
648.423	-3.15
648.457	10.85
648.49	-8.15
648.523	-6.15
648.557	5.85
648.59	-8.15
648.624	6.85
648.657	14.85
648.69	9.85
648.724	8.85
648.757	12.85
648.791	16.85
648.824	6.85
648.857	7.85
648.891	8.85
648.924	7.85
648.957	20.85
648.991	7.85
649.024	12.85
649.057	-15.15
649.091	-1.15
649.124	17.85
649.158	9.85
649.191	28.85
649.224	-10.15
649.258	1.85
649.291	5.85
649.324	11.85
649.358	5.85
649.391	24.85
649.424	6.85
649.458	1.85
649.491	1.85
649.524	-2.15
649.557	-0.15
649.591	-8.15
649.624	10.85
649.657	-3.15
649.691	3.85
649.724	2.85
649.757	13.85
649.791	-8.15
649.824	9.85
649.857	9.85
649.89	-2.15
649.924	-24.15
649.957	1.85
649.99	-10.15
650.023	-7.15
650.057	-13.15
650.09	-2.15
650.123	27.85
650.157	12.85
650.19	15.85
650.223	3.85
650.256	-8.15
650.29	2.85
650.323	4.85
650.356	6.85
650.389	16.85
650.423	5.85
650.456	7.85
650.489	8.85
650.522	12.85
650.555	15.85
650.589	19.85
650.622	13.85
650.655	15.85
650.688	-1.15
650.721	-18.15
650.755	13.85
650.788	3.85
650.821	5.85
650.854	5.85
650.887	14.85
650.921	-8.15
650.954	13.85
650.987	12.85
651.02	0.85
651.053	-16.15
651.087	7.85
651.12	29.85
651.153	5.85
651.186	1.85
651.219	-14.15
651.252	6.85
651.286	0.85
651.319	-21.15
651.352	-12.15
651.385	-2.15
651.418	3.85
651.451	19.85
651.484	20.85
651.518	-1.15
651.551	15.85
651.584	-7.15
651.617	11.85
651.65	-2.15
651.683	6.85
651.716	-9.15
651.749	-3.15
651.783	0.85
651.816	-5.15
651.849	13.85
651.882	-8.15
651.915	-8.15
651.948	9.85
651.981	-2.15
652.014	-16.15
652.047	-12.15
652.08	1.85
652.114	1.85
652.147	-15.15
652.18	2.85
652.213	33.85
652.246	11.85
652.279	0.85
652.312	6.85
652.345	-0.15
652.378	11.85
652.411	12.85
652.444	8.85
652.477	-3.15
652.51	3.85
652.543	-12.15
652.576	-2.15
652.609	-10.15
652.642	6.85
652.675	24.85
652.709	7.85
652.742	24.85
652.775	12.85
652.808	14.85
652.841	-2.15
652.874	12.85
652.907	1.85
652.94	7.85
652.973	-13.15
653.006	8.85
653.039	-3.15
653.072	14.85
653.105	3.85
653.138	-4.15
653.171	-7.15
653.204	-2.15
653.237	6.85
653.27	-3.15
653.303	20.85
653.336	-0.15
653.368	0.85
653.401	3.85
653.434	1.85
653.467	1.85
653.5	-25.15
653.533	-10.15
653.566	2.85
653.599	-8.15
653.632	8.85
653.665	18.85
653.698	5.85
653.731	7.85
653.764	12.85
653.797	-0.15
653.83	-8.15
653.863	-9.15
653.896	8.85
653.929	-1.15
653.961	9.85
653.994	-4.15
654.027	-8.15
654.06	4.85
654.093	4.85
654.126	8.85
654.159	-17.15
654.192	-11.15
654.225	-13.15
654.258	-3.15
654.29	10.85
654.323	7.85
654.356	-1.15
654.389	-8.15
654.422	-11.15
654.455	-0.15
654.488	7.85
654.521	-8.15
654.553	-0.15
654.586	-4.15
654.619	11.85
654.652	0.85
654.685	2.85
654.718	10.85
654.751	20.85
654.783	-1.15
654.816	14.85
654.849	9.85
654.882	4.85
654.915	-11.15
654.948	2.85
654.98	-9.15
655.013	1.85
655.046	-4.15
655.079	-9.15
655.112	3.85
655.144	-11.15
655.177	5.85
655.21	14.85
655.243	15.85
655.276	4.85
655.308	-16.15
655.341	-19.15
655.374	6.85
655.407	8.85
655.44	9.85
655.472	4.85
655.505	-2.15
655.538	7.85
655.571	7.85
655.603	9.85
655.636	6.85
655.669	9.85
655.702	-1.15
655.734	-4.15
655.767	1.85
655.8	-0.15
655.833	17.85
655.865	11.85
655.898	-5.15
655.931	12.85
655.964	31.85
655.996	23.85
656.029	40.85
656.062	31.85
656.095	49.85
656.127	82.85
656.16	200.85
656.193	639.85
656.225	958.85
656.258	557.85
656.291	209.85
656.324	184.85
656.356	314.85
656.389	745.85
656.422	682.85
656.454	236.85
656.487	81.85
656.52	50.85
656.552	17.85
656.585	21.85
656.618	11.85
656.65	11.85
656.683	6.85
656.716	-0.15
656.748	4.85
656.781	3.85
656.814	-0.15
656.846	9.85
656.879	5.85
656.912	2.85
656.944	-19.15
656.977	-1.15
657.01	-9.15
657.042	10.85
657.075	9.85
657.108	14.85
657.14	4.85
657.173	14.85
657.205	30.85
657.238	-4.15
657.271	2.85
657.303	-15.15
657.336	8.85
657.369	-0.15
657.401	5.85
657.434	-5.15
657.466	11.85
657.499	-0.15
657.532	-5.15
657.564	6.85
657.597	-1.15
657.629	0.85
657.662	2.85
657.694	7.85
657.727	-0.15
657.76	9.85
657.792	-15.15
657.825	-7.15
657.857	-6.15
657.89	-5.15
657.922	23.85
657.955	-0.15
657.987	4.85
658.02	20.85
658.053	11.85
658.085	15.85
658.118	17.85
658.15	14.85
658.183	26.85
658.215	15.85
658.248	10.85
658.28	-22.15
658.313	22.85
658.345	7.85
658.378	0.85
658.41	3.85
658.443	20.85
658.475	4.85
658.508	-17.15
658.54	5.85
658.573	4.85
658.605	6.85
658.638	1.85
658.67	-13.15
658.703	3.85
658.735	9.85
658.768	12.85
658.8	-2.15
658.833	22.85
658.865	10.85
658.898	10.85
658.93	-4.15
658.963	6.85
658.995	-11.15
659.028	0.85
659.06	-3.15
659.092	8.85
659.125	4.85
659.157	19.85
659.19	-8.15
659.222	-5.15
659.255	6.85
659.287	7.85
659.32	3.85
659.352	12.85
659.384	7.85
659.417	1.85
659.449	11.85
659.482	3.85
659.514	-1.15
659.546	-6.15
659.579	-22.15
659.611	13.85
659.644	-2.15
659.676	-5.15
659.708	-14.15
659.741	7.85
659.773	4.85
659.806	6.85
659.838	-8.15
659.87	0.85
659.903	-13.15
659.935	9.85
659.967	6.85
660	-1.15
660.032	-21.15
660.065	15.85
660.097	9.85
660.129	-1.15
660.162	-23.15
660.194	3.85
660.226	8.85
660.259	3.85
660.291	-4.15
660.323	5.85
660.356	7.85
660.388	-2.15
660.42	-6.15
660.453	7.85
660.485	10.85
660.517	4.85
660.55	14.85
660.582	8.85
660.614	2.85
660.647	-13.15
660.679	-16.15
660.711	7.85
660.743	-7.15
660.776	-5.15
660.808	-3.15
660.84	-9.15
660.873	4.85
660.905	-0.15
660.937	23.85
660.969	12.85
661.002	17.85
661.034	19.85
661.066	10.85
661.099	-3.15
661.131	7.85
661.163	6.85
661.195	5.85
661.228	17.85
661.26	5.85
661.292	-5.15
661.324	5.85
661.357	-7.15
661.389	12.85
661.421	7.85
661.453	6.85
661.485	-2.15
661.518	9.85
661.55	-1.15
661.582	-4.15
661.614	-9.15
661.647	1.85
661.679	-1.15
661.711	3.85
661.743	-9.15
661.775	12.85
661.808	15.85
661.84	2.85
661.872	-1.15
661.904	2.85
661.936	14.85
661.969	-0.15
662.001	11.85
662.033	-3.15
662.065	-7.15
662.097	3.85
662.129	19.85
662.162	2.85
662.194	-5.15
662.226	-0.15
662.258	5.85
662.29	2.85
662.322	1.85
662.355	-1.15
662.387	27.85
662.419	4.85
662.451	1.85
662.483	1.85
662.515	0.85
662.547	13.85
662.58	0.85
662.612	-5.15
662.644	-22.15
662.676	-9.15
662.708	13.85
662.74	3.85
662.772	-12.15
662.804	25.85
662.836	17.85
662.869	-1.15
662.901	-1.15
662.933	4.85
662.965	16.85
662.997	24.85
663.029	-5.15
663.061	7.85
663.093	-11.15
663.125	21.85
663.157	-0.15
663.189	13.85
663.221	6.85
663.254	-5.15
663.286	12.85
663.318	-9.15
663.35	-4.15
663.382	-0.15
663.414	8.85
663.446	14.85
663.478	9.85
663.51	20.85
663.542	-4.15
663.574	5.85
663.606	8.85
663.638	-0.15
663.67	-16.15
663.702	-17.15
663.734	4.85
663.766	13.85
663.798	6.85
663.83	5.85
663.862	8.85
663.894	14.85
663.926	9.85
663.958	13.85
663.99	2.85
664.022	-2.15
664.054	15.85
664.086	-8.15
664.118	-5.15
664.15	1.85
664.182	-11.15
664.214	6.85
664.246	21.85
664.278	15.85
664.31	12.85
664.342	5.85
664.374	-7.15
664.406	0.85
664.438	-13.15
664.47	21.85
664.502	-3.15
664.534	6.85
664.566	-12.15
664.598	9.85
664.63	-7.15
664.662	2.85
664.693	-4.15
664.725	-5.15
664.757	-13.15
664.789	-13.15
664.821	-5.15
664.853	11.85
664.885	-15.15
664.917	-1.15
664.949	17.85
664.981	26.85
665.013	14.85
665.045	1.85
665.076	8.85
665.108	11.85
665.14	14.85
665.172	3.85
665.204	-13.15
665.236	-5.15
665.268	32.85
665.3	9.85
665.331	-10.15
665.363	6.85
665.395	-1.15
665.427	-20.15
665.459	10.85
665.491	15.85
665.523	1.85
665.555	3.85
665.586	22.85
665.618	5.85
665.65	-15.15
665.682	4.85
665.714	2.85
665.746	-1.15
665.777	9.85
665.809	11.85
665.841	20.85
665.873	-3.15
665.905	-8.15
665.937	1.85
665.968	14.85
666	3.85
666.032	-7.15
666.064	2.85
666.096	10.85
666.127	14.85
666.159	14.85
666.191	13.85
666.223	-9.15
666.255	18.85
666.286	11.85
666.318	-18.15
666.35	29.85
666.382	10.85
666.413	-2.15
666.445	-8.15
666.477	-8.15
666.509	-3.15
666.54	1.85
666.572	-6.15
666.604	-14.15
666.636	-4.15
666.667	18.85
666.699	12.85
666.731	10.85
666.763	3.85
666.794	8.85
666.826	10.85
666.858	5.85
666.89	-2.15
666.921	1.85
666.953	-10.15
666.985	2.85
667.017	9.85
667.048	-3.15
667.08	6.85
667.112	-3.15
667.143	1.85
667.175	-1.15
667.207	-4.15
667.238	21.85
667.27	4.85
667.302	12.85
667.334	-1.15
667.365	24.85
667.397	5.85
667.429	-7.15
667.46	-0.15
667.492	16.85
667.524	15.85
667.555	5.85
667.587	11.85
667.619	-15.15
667.65	6.85
667.682	20.85
667.714	-1.15
667.745	-4.15
667.777	-10.15
667.808	15.85
667.84	0.85
667.872	-3.15
667.903	18.85
667.935	3.85
667.967	0.85
667.998	10.85
668.03	3.85
668.061	-16.15
668.093	6.85
668.125	5.85
668.156	19.85
668.188	7.85
668.22	9.85
668.251	10.85
668.283	17.85
668.314	5.85
668.346	-9.15
668.377	-3.15
668.409	-12.15
668.441	4.85
668.472	6.85
668.504	-6.15
668.535	11.85
668.567	12.85
668.599	9.85
668.63	8.85
668.662	6.85
668.693	13.85
668.725	-3.15
668.756	10.85
668.788	18.85
668.819	13.85
668.851	-2.15
668.882	-1.15
668.914	-8.15
668.946	3.85
668.977	-4.15
669.009	5.85
669.04	-11.15
669.072	-4.15
669.103	13.85
669.135	7.85
669.166	8.85
669.198	-4.15
669.229	20.85
669.261	11.85
669.292	1.85
669.324	14.85
669.355	9.85
669.387	-18.15
669.418	1.85
669.45	-5.15
669.481	13.85
669.513	15.85
669.544	20.85
669.576	-4.15
669.607	0.85
669.639	19.85
669.67	-18.15
669.701	12.85
669.733	-6.15
669.764	11.85
669.796	-6.15
669.827	-0.15
669.859	-20.15
669.89	-1.15
669.922	11.85
669.953	19.85
669.985	-1.15
670.016	10.85
670.047	-1.15
670.079	-8.15
670.11	1.85
670.142	11.85
670.173	9.85
670.204	-11.15
670.236	-3.15
670.267	2.85
670.299	-3.15
670.33	-0.15
670.362	2.85
670.393	-10.15
670.424	9.85
670.456	-2.15
670.487	14.85
670.518	16.85
670.55	9.85
670.581	7.85
670.613	-4.15
670.644	-4.15
670.675	-7.15
670.707	-17.15
670.738	-0.15
670.769	5.85
670.801	-2.15
670.832	14.85
670.864	2.85
670.895	10.85
670.926	1.85
670.958	-12.15
670.989	-1.15
671.02	-15.15
671.052	16.85
671.083	10.85
671.114	-8.15
671.146	-6.15
671.177	-1.15
671.208	-3.15
671.24	-2.15
671.271	-0.15
671.302	20.85
671.333	1.85
671.365	-18.15
671.396	-15.15
671.427	-5.15
671.459	8.85
671.49	6.85
671.521	21.85
671.553	12.85
671.584	9.85
671.615	-10.15
671.646	6.85
671.678	9.85
671.709	5.85
671.74	-7.15
671.771	-19.15
671.803	-24.15
671.834	-13.15
671.865	2.85
671.896	9.85
671.928	-3.15
671.959	0.85
671.99	1.85
672.021	-3.15
672.053	12.85
672.084	15.85
672.115	3.85
672.146	-10.15
672.178	-13.15
672.209	-2.15
672.24	-5.15
672.271	37.85
672.303	9.85
672.334	0.85
672.365	-6.15
672.396	9.85
672.427	-2.15
672.459	16.85
672.49	27.85
672.521	-7.15
672.552	14.85
672.583	4.85
672.615	-4.15
672.646	14.85
672.677	-1.15
672.708	-6.15
672.739	-14.15
672.77	10.85
672.802	-2.15
672.833	-7.15
672.864	-1.15
672.895	-2.15
672.926	-0.15
672.957	-2.15
672.989	1.85
673.02	0.85
673.051	6.85
673.082	12.85
673.113	7.85
673.144	11.85
673.175	8.85
673.206	-3.15
673.238	7.85
673.269	12.85
673.3	-8.15
673.331	6.85
673.362	-7.15
673.393	10.85
673.424	17.85
673.455	27.85
673.487	-8.15
673.518	-0.15
673.549	10.85
673.58	2.85
673.611	9.85
673.642	-3.15
673.673	-7.15
673.704	7.85
673.735	8.85
673.766	-14.15
673.797	-13.15
673.828	17.85
673.86	-6.15
673.891	-0.15
673.922	-23.15
673.953	-1.15
673.984	18.85
674.015	10.85
674.046	-12.15
674.077	-9.15
674.108	-27.15
674.139	2.85
674.17	3.85
674.201	-6.15
674.232	11.85
674.263	6.85
674.294	-16.15
674.325	2.85
674.356	12.85
674.387	18.85
674.418	9.85
674.449	-9.15
674.48	-6.15
674.511	6.85
674.542	8.85
674.573	7.85
674.604	24.85
674.635	-0.15
674.666	7.85
674.697	3.85
674.728	-15.15
674.759	-12.15
674.79	-1.15
674.821	7.85
674.852	7.85
674.883	-18.15
674.914	-3.15
674.945	-9.15
674.976	0.85
675.007	-4.15
675.038	-9.15
675.069	-9.15
675.1	-0.15
675.131	2.85
675.162	-1.15
675.193	-1.15
675.224	5.85
675.254	18.85
675.285	-1.15
675.316	16.85
675.347	1.85
675.378	5.85
675.409	-1.15
675.44	18.85
675.471	11.85
675.502	-6.15
675.533	17.85
675.564	14.85
675.595	6.85
675.625	14.85
675.656	19.85
675.687	8.85
675.718	-18.15
675.749	21.85
675.78	2.85
675.811	-9.15
675.842	3.85
675.873	3.85
675.903	-7.15
675.934	-7.15
675.965	-5.15
675.996	-2.15
676.027	12.85
676.058	-2.15
676.089	-24.15
676.119	-9.15
676.15	-5.15
676.181	2.85
676.212	-17.15
676.243	-3.15
676.274	-9.15
676.304	3.85
676.335	-5.15
676.366	0.85
676.397	3.85
676.428	5.85
676.459	10.85
676.489	23.85
676.52	20.85
676.551	3.85
676.582	-12.15
676.613	-3.15
676.643	-10.15
676.674	-0.15
676.705	-6.15
676.736	6.85
676.767	20.85
676.797	7.85
676.828	-2.15
676.859	-4.15
676.89	12.85
676.92	-0.15
676.951	7.85
676.982	10.85
677.013	-1.15
677.044	5.85
677.074	7.85
677.105	-17.15
677.136	10.85
677.167	3.85
677.197	11.85
677.228	8.85
677.259	-1.15
677.289	17.85
677.32	-0.15
677.351	-2.15
677.382	-7.15
677.412	-8.15
677.443	-2.15
677.474	1.85
677.505	-7.15
677.535	-15.15
677.566	-2.15
677.597	-5.15
677.627	1.85
677.658	3.85
677.689	6.85
677.72	2.85
677.75	-9.15
677.781	-13.15
677.812	3.85
677.842	4.85
677.873	10.85
677.904	-5.15
677.934	5.85
677.965	-4.15
677.996	9.85
678.026	6.85
678.057	19.85
678.088	10.85
678.118	-6.15
678.149	-32.15
678.18	2.85
678.21	15.85
678.241	1.85
678.272	19.85
678.302	7.85
678.333	-6.15
678.363	10.85
678.394	24.85
678.425	6.85
678.455	6.85
678.486	18.85
678.517	13.85
678.547	1.85
678.578	5.85
678.608	-8.15
678.639	10.85
678.67	0.85
678.7	-5.15
678.731	-9.15
678.761	7.85
678.792	-3.15
678.823	8.85
678.853	9.85
678.884	2.85
678.914	5.85
678.945	9.85
678.975	-4.15
679.006	14.85
679.037	-2.15
679.067	25.85
679.098	-5.15
679.128	2.85
679.159	0.85
679.189	17.85
679.22	-9.15
679.25	10.85
679.281	5.85
679.312	3.85
679.342	-1.15
679.373	26.85
679.403	2.85
679.434	-0.15
679.464	-3.15
679.495	10.85
679.525	9.85
679.556	1.85
679.586	30.85
679.617	18.85
679.647	7.85
679.678	4.85
679.708	2.85
679.739	1.85
679.769	9.85
679.8	0.85
679.83	4.85
679.861	22.85
679.891	2.85
679.922	-16.15
679.952	12.85
679.983	10.85
680.013	16.85
680.044	2.85
680.074	14.85
680.105	10.85
680.135	9.85
680.165	14.85
680.196	12.85
680.226	1.85
680.257	16.85
680.287	-3.15
680.318	-4.15
680.348	-0.15
680.379	4.85
680.409	-11.15
680.439	6.85
680.47	7.85
680.5	13.85
680.531	4.85
680.561	11.85
680.592	8.85
680.622	15.85
680.652	10.85
680.683	11.85
680.713	7.85
680.744	2.85
680.774	-14.15
680.804	23.85
680.835	-7.15
680.865	6.85
680.896	19.85
680.926	19.85
680.956	-1.15
680.987	7.85
681.017	-7.15
681.047	12.85
681.078	0.85
681.108	12.85
681.139	-3.15
681.169	5.85
681.199	10.85
681.23	3.85
681.26	1.85
681.29	3.85
681.321	-12.15
681.351	4.85
681.381	-14.15
681.412	-4.15
681.442	11.85
681.472	19.85
681.503	-1.15
681.533	8.85
681.563	-0.15
681.594	-5.15
681.624	3.85
681.654	-12.15
681.685	14.85
681.715	8.85
681.745	-7.15
681.775	-16.15
681.806	4.85
681.836	6.85
681.866	-17.15
681.897	16.85
681.927	3.85
681.957	-16.15
681.987	0.85
682.018	11.85
682.048	18.85
682.078	3.85
682.109	9.85
682.139	0.85
682.169	-2.15
682.199	-1.15
682.23	-2.15
682.26	11.85
682.29	-9.15
682.32	-10.15
682.351	6.85
682.381	-8.15
682.411	0.85
682.441	2.85
682.472	-5.15
682.502	-1.15
682.532	5.85
682.562	-6.15
682.592	6.85
682.623	11.85
682.653	13.85
682.683	8.85
682.713	-3.15
682.743	-7.15
682.774	0.85
682.804	10.85
682.834	10.85
682.864	0.85
682.894	-4.15
682.925	9.85
682.955	-9.15
682.985	-3.15
683.015	-0.15
683.045	11.85
683.076	0.85
683.106	-1.15
683.136	-5.15
683.166	-5.15
683.196	-6.15
683.226	7.85
683.257	1.85
683.287	-5.15
683.317	0.85
683.347	3.85
683.377	6.85
683.407	9.85
683.437	7.85
683.468	21.85
683.498	4.85
683.528	2.85
683.558	-17.15
683.588	-5.15
683.618	11.85
683.648	11.85
683.678	7.85
683.708	0.85
683.739	4.85
683.769	9.85
683.799	6.85
683.829	-10.15
683.859	-4.15
683.889	13.85
683.919	18.85
683.949	14.85
683.979	-4.15
684.009	-4.15
684.039	-5.15
684.07	-6.15
684.1	2.85
684.13	13.85
684.16	7.85
684.19	2.85
684.22	-1.15
684.25	1.85
684.28	-24.15
684.31	5.85
684.34	12.85
684.37	12.85
684.4	-7.15
684.43	7.85
684.46	-6.15
684.49	17.85
684.52	3.85
684.55	11.85
684.58	-2.15
684.61	2.85
684.64	12.85
684.67	12.85
684.7	0.85
684.73	10.85
684.76	7.85
684.79	18.85
684.82	1.85
684.85	-7.15
684.88	6.85
684.91	4.85
684.94	6.85
684.97	-8.15
685	-5.15
685.03	-5.15
685.06	-1.15
685.09	0.85
685.12	19.85
685.15	-4.15
685.18	11.85
685.21	5.85
685.24	7.85
685.27	20.85
685.3	8.85
685.33	11.85
685.36	-2.15
685.39	-0.15
685.42	5.85
685.45	-5.15
685.48	13.85
685.51	2.85
685.54	15.85
685.569	9.85
685.599	22.85
685.629	8.85
685.659	10.85
685.689	7.85
685.719	10.85
685.749	-6.15
685.779	-5.15
685.809	14.85
685.839	7.85
685.869	13.85
685.898	11.85
685.928	-0.15
685.958	-4.15
685.988	13.85
686.018	-6.15
686.048	-1.15
686.078	32.85
686.108	19.85
686.137	17.85
686.167	19.85
686.197	-3.15
686.227	10.85
686.257	41.85
686.287	16.85
686.317	-0.15
686.346	15.85
686.376	19.85
686.406	2.85
686.436	23.85
686.466	2.85
686.496	9.85
686.525	15.85
686.555	9.85
686.585	7.85
686.615	35.85
686.645	18.85
686.675	2.85
686.704	-4.15
686.734	3.85
686.764	-0.15
686.794	3.85
686.824	6.85
686.853	20.85
686.883	15.85
686.913	16.85
686.943	6.85
686.973	-4.15
687.002	12.85
687.032	18.85
687.062	-27.15
687.092	8.85
687.121	-5.15
687.151	-0.15
687.181	-1.15
687.211	29.85
687.24	4.85
687.27	-2.15
687.3	3.85
687.33	6.85
687.359	-2.15
687.389	8.85
687.419	6.85
687.449	-1.15
687.478	-4.15
687.508	-3.15
687.538	12.85
687.568	11.85
687.597	-6.15
687.627	4.85
687.657	15.85
687.686	-1.15
687.716	19.85
687.746	-5.15
687.776	0.85
687.805	1.85
687.835	4.85
687.865	14.85
687.894	7.85
687.924	-3.15
687.954	4.85
687.983	2.85
688.013	11.85
688.043	6.85
688.072	-2.15
688.102	14.85
688.132	3.85
688.161	5.85
688.191	5.85
688.221	33.85
688.25	-1.15
688.28	17.85
688.31	-0.15
688.339	1.85
688.369	-6.15
688.399	-1.15
688.428	-0.15
688.458	1.85
688.488	3.85
688.517	-2.15
688.547	15.85
688.576	30.85
688.606	5.85
688.636	-2.15
688.665	5.85
688.695	25.85
688.725	18.85
688.754	22.85
688.784	0.85
688.813	10.85
688.843	15.85
688.873	5.85
688.902	-5.15
688.932	0.85
688.961	-11.15
688.991	6.85
689.02	13.85
689.05	2.85
689.08	10.85
689.109	5.85
689.139	3.85
689.168	8.85
689.198	-12.15
689.227	3.85
689.257	13.85
689.287	26.85
689.316	-2.15
689.346	-15.15
689.375	-9.15
689.405	11.85
689.434	-23.15
689.464	18.85
689.493	4.85
689.523	-5.15
689.552	-19.15
689.582	9.85
689.611	-5.15
689.641	-7.15
689.67	12.85
689.7	11.85
689.73	5.85
689.759	-1.15
689.789	25.85
689.818	-5.15
689.848	14.85
689.877	17.85
689.906	7.85
689.936	7.85
689.965	7.85
689.995	7.85
690.024	4.85
690.054	-6.15
690.083	7.85
690.113	5.85
690.142	2.85
690.172	5.85
690.201	2.85
690.231	16.85
690.26	10.85
690.29	0.85
690.319	8.85
690.348	-2.15
690.378	11.85
690.407	4.85
690.437	-10.15
690.466	7.85
690.496	4.85
690.525	20.85
690.555	6.85
690.584	10.85
690.613	-4.15
690.643	4.85
690.672	10.85
690.702	0.85
690.731	7.85
690.76	10.85
690.79	-13.15
690.819	-20.15
690.849	11.85
690.878	17.85
690.907	2.85
690.937	14.85
690.966	10.85
690.996	6.85
691.025	-1.15
691.054	4.85
691.084	-5.15
691.113	16.85
691.142	23.85
691.172	13.85
691.201	25.85
691.23	0.85
691.26	5.85
691.289	5.85
691.319	-1.15
691.348	13.85
691.377	27.85
691.407	3.85
691.436	9.85
691.465	5.85
691.495	4.85
691.524	6.85
691.553	1.85
691.583	-13.15
691.612	14.85
691.641	6.85
691.67	6.85
691.7	10.85
691.729	-5.15
691.758	0.85
691.788	2.85
691.817	-1.15
691.846	-8.15
691.876	-2.15
691.905	9.85
691.934	-0.15
691.963	18.85
691.993	12.85
692.022	-4.15
692.051	-9.15
692.081	19.85
692.11	13.85
692.139	5.85
692.168	-5.15
692.198	14.85
692.227	10.85
692.256	8.85
692.285	7.85
692.315	7.85
692.344	7.85
692.373	-0.15
692.402	-2.15
692.432	3.85
692.461	1.85
692.49	2.85
692.519	3.85
692.548	9.85
692.578	11.85
692.607	-0.15
692.636	5.85
692.665	21.85
692.694	8.85
692.724	6.85
692.753	4.85
692.782	4.85
692.811	5.85
692.84	-6.15
692.87	13.85
692.899	-4.15
692.928	-0.15
692.957	20.85
692.986	11.85
693.016	6.85
693.045	20.85
693.074	19.85
693.103	-0.15
693.132	6.85
693.161	6.85
693.191	-2.15
693.22	-6.15
693.249	10.85
693.278	19.85
693.307	30.85
693.336	-10.15
693.365	-18.15
693.395	1.85
693.424	8.85
693.453	22.85
693.482	-5.15
693.511	22.85
693.54	26.85
693.569	29.85
693.598	-0.15
693.628	27.85
693.657	20.85
693.686	22.85
693.715	17.85
693.744	4.85
693.773	6.85
693.802	1.85
693.831	-8.15
693.86	16.85
693.889	3.85
693.919	11.85
693.948	0.85
693.977	13.85
694.006	-1.15
694.035	3.85
694.064	14.85
694.093	17.85
694.122	12.85
694.151	-13.15
694.18	16.85
694.209	18.85
694.238	-0.15
694.267	17.85
694.296	32.85
694.325	7.85
694.354	27.85
694.383	10.85
694.412	-3.15
694.441	-1.15
694.471	3.85
694.5	2.85
694.529	12.85
694.558	18.85
694.587	10.85
694.616	7.85
694.645	6.85
694.674	16.85
694.703	22.85
694.732	12.85
694.761	17.85
694.79	29.85
694.819	-9.15
694.848	6.85
694.877	34.85
694.906	21.85
694.935	14.85
694.963	30.85
694.992	16.85
695.021	25.85
695.05	14.85
695.079	6.85
695.108	7.85
695.137	14.85
695.166	5.85
695.195	9.85
695.224	19.85
695.253	8.85
695.282	15.85
695.311	15.85
695.34	5.85
695.369	6.85
695.398	26.85
695.427	15.85
695.456	2.85
695.485	6.85
695.513	10.85
695.542	1.85
695.571	-0.15
695.6	8.85
695.629	5.85
695.658	3.85
695.687	0.85
695.716	4.85
695.745	20.85
695.774	-1.15
695.802	14.85
695.831	6.85
695.86	25.85
695.889	18.85
695.918	9.85
695.947	-1.15
695.976	19.85
696.005	15.85
696.033	15.85
696.062	17.85
696.091	-2.15
696.12	10.85
696.149	11.85
696.178	2.85
696.207	9.85
696.235	3.85
696.264	17.85
696.293	3.85
696.322	22.85
696.351	19.85
696.38	11.85
696.408	14.85
696.437	-5.15
696.466	2.85
696.495	16.85
696.524	4.85
696.553	5.85
696.581	6.85
696.61	10.85
696.639	6.85
696.668	16.85
696.697	4.85
696.725	-1.15
696.754	0.85
696.783	11.85
696.812	9.85
696.84	13.85
696.869	-3.15
696.898	-13.15
696.927	2.85
696.956	24.85
696.984	3.85
697.013	8.85
697.042	8.85
697.071	11.85
697.099	18.85
697.128	19.85
697.157	26.85
697.186	10.85
697.214	5.85
697.243	4.85
697.272	1.85
697.301	23.85
697.329	22.85
697.358	22.85
697.387	22.85
697.415	9.85
697.444	1.85
697.473	9.85
697.502	-6.15
697.53	23.85
697.559	13.85
697.588	13.85
697.616	3.85
697.645	6.85
697.674	16.85
697.703	9.85
697.731	10.85
697.76	-3.15
697.789	10.85
697.817	19.85
697.846	22.85
697.875	4.85
697.903	17.85
697.932	2.85
697.961	5.85
697.989	8.85
698.018	9.85
698.047	15.85
698.075	23.85
698.104	9.85
698.133	6.85
698.161	-14.15
698.19	2.85
698.218	-2.15
698.247	8.85
698.276	2.85
698.304	5.85
698.333	5.85
698.362	13.85
698.39	11.85
698.419	16.85
698.447	-4.15
698.476	2.85
698.505	18.85
698.533	9.85
698.562	14.85
698.591	-12.15
698.619	-2.15
698.648	-0.15
698.676	0.85
698.705	2.85
698.733	-5.15
698.762	7.85
698.791	6.85
698.819	18.85
698.848	0.85
698.876	5.85
698.905	4.85
698.933	6.85
698.962	15.85
698.991	-1.15
699.019	19.85
699.048	3.85
699.076	11.85
699.105	-6.15
699.133	-4.15
699.162	6.85
699.19	18.85
699.219	22.85
699.248	-4.15
699.276	-1.15
699.305	12.85
699.333	17.85
699.362	3.85
699.39	4.85
699.419	2.85
699.447	-0.15
699.476	17.85
699.504	14.85
699.533	13.85
699.561	-13.15
699.59	10.85
699.618	-3.15
699.647	1.85
699.675	8.85
699.704	7.85
699.732	8.85
699.761	7.85
699.789	-3.15
699.818	13.85
699.846	-6.15
699.874	13.85
699.903	16.85
699.931	7.85
699.96	20.85
699.988	4.85
700.017	1.85
700.045	1.85
700.074	-1.15
700.102	1.85
700.13	0.85
700.159	-2.15
700.187	7.85
700.216	13.85
700.244	-0.15
700.273	6.85
700.301	6.85
700.329	18.85
700.358	15.85
700.386	13.85
700.415	-1.15
700.443	14.85
700.472	0.85
700.5	9.85
700.528	20.85
700.557	-5.15
700.585	-4.15
700.614	1.85
700.642	14.85
700.67	16.85
700.699	15.85
700.727	13.85
700.755	12.85
700.784	13.85
700.812	0.85
700.841	24.85
700.869	7.85
700.897	-5.15
700.926	-8.15
700.954	14.85
700.982	10.85
701.011	6.85
701.039	11.85
701.067	9.85
701.096	17.85
701.124	-8.15
701.152	-17.15
701.181	8.85
701.209	-10.15
701.237	-3.15
701.266	-6.15
701.294	-4.15
701.322	6.85
701.351	6.85
701.379	10.85
701.407	11.85
701.435	8.85
701.464	20.85
701.492	31.85
701.52	18.85
701.549	17.85
701.577	-9.15
701.605	-7.15
701.634	9.85
701.662	15.85
701.69	5.85
701.718	-13.15
701.747	-2.15
701.775	-6.15
701.803	5.85
701.831	14.85
701.86	-6.15
701.888	-11.15
701.916	0.85
701.944	7.85
701.973	8.85
702.001	-10.15
702.029	-7.15
702.057	-16.15
702.086	6.85
702.114	-5.15
702.142	-4.15
702.17	1.85
702.199	5.85
702.227	7.85
702.255	12.85
702.283	-4.15
702.311	0.85
702.34	11.85
702.368	1.85
702.396	9.85
702.424	10.85
702.452	5.85
702.481	8.85
702.509	-5.15
702.537	11.85
702.565	10.85
702.593	-12.15
702.621	9.85
702.65	9.85
702.678	17.85
702.706	13.85
702.734	-1.15
702.762	-7.15
702.79	15.85
702.819	11.85
702.847	-9.15
702.875	13.85
702.903	8.85
702.931	-15.15
702.959	4.85
702.988	7.85
703.016	-2.15
703.044	5.85
703.072	7.85
703.1	-2.15
703.128	7.85
703.156	11.85
703.184	11.85
703.212	24.85
703.241	-4.15
703.269	-5.15
703.297	3.85
703.325	4.85
703.353	-16.15
703.381	-1.15
703.409	17.85
703.437	5.85
703.465	9.85
703.493	2.85
703.522	9.85
703.55	2.85
703.578	13.85
703.606	2.85
703.634	0.85
703.662	3.85
703.69	5.85
703.718	-7.15
703.746	4.85
703.774	-4.15
703.802	3.85
703.83	0.85
703.858	7.85
703.886	-4.15
703.914	6.85
703.942	2.85
703.97	0.85
703.998	9.85
704.027	10.85
704.055	2.85
704.083	1.85
704.111	-3.15
704.139	4.85
704.167	9.85
704.195	12.85
704.223	-9.15
704.251	-4.15
704.279	0.85
704.307	11.85
704.335	-11.15
704.363	14.85
704.391	3.85
704.419	-1.15
704.447	1.85
704.475	6.85
704.503	3.85
704.531	7.85
704.558	6.85
704.586	9.85
704.614	7.85
704.642	6.85
704.67	-10.15
704.698	-4.15
704.726	5.85
704.754	3.85
704.782	2.85
704.81	10.85
704.838	26.85
704.866	3.85
704.894	-14.15
704.922	2.85
704.95	10.85
704.978	7.85
705.006	12.85
705.034	22.85
705.061	4.85
705.089	1.85
705.117	-1.15
705.145	-2.15
705.173	11.85
705.201	0.85
705.229	11.85
705.257	-2.15
705.285	19.85
705.313	7.85
705.34	12.85
705.368	7.85
705.396	7.85
705.424	12.85
705.452	-2.15
705.48	5.85
705.508	-18.15
705.536	3.85
705.563	-2.15
705.591	11.85
705.619	-1.15
705.647	-2.15
705.675	10.85
705.703	13.85
705.731	-20.15
705.758	14.85
705.786	3.85
705.814	12.85
705.842	7.85
705.87	3.85
705.898	30.85
705.925	3.85
705.953	8.85
705.981	-13.15
706.009	9.85
706.037	26.85
706.065	9.85
706.092	1.85
706.12	-3.15
706.148	-7.15
706.176	-2.15
706.204	3.85
706.231	-8.15
706.259	-19.15
706.287	6.85
706.315	10.85
706.342	5.85
706.37	30.85
706.398	8.85
706.426	2.85
706.454	8.85
706.481	0.85
706.509	-0.15
706.537	-7.15
706.565	-5.15
706.592	12.85
706.62	-6.15
706.648	15.85
706.676	-7.15
706.703	4.85
706.731	-4.15
706.759	-5.15
706.787	7.85
706.814	-3.15
706.842	-2.15
706.87	4.85
706.897	8.85
706.925	6.85
706.953	13.85
706.981	11.85
707.008	7.85
707.036	2.85
707.064	-7.15
707.091	-6.15
707.119	21.85
707.147	15.85
707.174	5.85
707.202	22.85
707.23	-20.15
707.258	6.85
707.285	-6.15
707.313	5.85
707.341	7.85
707.368	0.85
707.396	-12.15
707.424	19.85
707.451	-0.15
707.479	10.85
707.507	10.85
707.534	-1.15
707.562	9.85
707.59	3.85
707.617	-13.15
707.645	6.85
707.672	11.85
707.7	8.85
707.728	10.85
707.755	2.85
707.783	-0.15
707.811	4.85
707.838	-1.15
707.866	4.85
707.893	-5.15
707.921	-8.15
707.949	-8.15
707.976	2.85
708.004	6.85
708.031	3.85
708.059	-22.15
708.087	3.85
708.114	-14.15
708.142	3.85
708.169	-19.15
708.197	-5.15
708.225	-0.15
708.252	-9.15
708.28	6.85
708.307	12.85
708.335	1.85
708.362	5.85
708.39	-6.15
708.418	10.85
708.445	17.85
708.473	5.85
708.5	7.85
708.528	22.85
708.555	7.85
708.583	-6.15
708.61	-10.15
708.638	10.85
708.665	4.85
708.693	0.85
708.72	-6.15
708.748	6.85
708.776	-4.15
708.803	8.85
708.831	21.85
708.858	3.85
708.886	3.85
708.913	6.85
708.941	1.85
708.968	22.85
708.996	-2.15
709.023	35.85
709.051	6.85
709.078	-15.15
709.105	8.85
709.133	7.85
709.16	0.85
709.188	13.85
709.215	5.85
709.243	-0.15
709.27	-22.15
709.298	-2.15
709.325	-2.15
709.353	6.85
709.38	4.85
709.408	25.85
709.435	3.85
709.462	10.85
709.49	6.85
709.517	9.85
709.545	9.85
709.572	-5.15
709.6	-3.15
709.627	-15.15
709.655	-10.15
709.682	8.85
709.709	12.85
709.737	0.85
709.764	-13.15
709.792	5.85
709.819	5.85
709.846	7.85
709.874	23.85
709.901	7.85
709.929	18.85
709.956	6.85
709.983	-4.15
710.011	10.85
710.038	-7.15
710.066	2.85
710.093	19.85
710.12	7.85
710.148	-5.15
710.175	-2.15
710.202	9.85
710.23	13.85
710.257	3.85
710.284	-3.15
710.312	7.85
710.339	-4.15
710.366	0.85
710.394	21.85
710.421	18.85
710.448	17.85
710.476	-10.15
710.503	-1.15
710.53	-2.15
710.558	13.85
710.585	10.85
710.612	15.85
710.64	-9.15
710.667	-7.15
710.694	4.85
710.722	7.85
710.749	27.85
710.776	-0.15
710.804	17.85
710.831	-0.15
710.858	2.85
710.885	-4.15
710.913	-8.15
710.94	20.85
710.967	6.85
710.995	-2.15
711.022	17.85
711.049	20.85
711.076	2.85
711.104	-0.15
711.131	-16.15
711.158	2.85
711.185	6.85
711.213	-8.15
711.24	-10.15
711.267	3.85
711.294	18.85
711.322	18.85
711.349	8.85
711.376	7.85
711.403	12.85
711.431	-6.15
711.458	0.85
711.485	1.85
711.512	4.85
711.54	-4.15
711.567	21.85
711.594	11.85
711.621	-6.15
711.648	12.85
711.676	11.85
711.703	5.85
711.73	-4.15
711.757	10.85
711.784	-0.15
711.812	2.85
711.839	8.85
711.866	2.85
711.893	4.85
711.92	0.85
711.947	5.85
711.975	16.85
712.002	8.85
712.029	13.85
712.056	7.85
712.083	19.85
712.11	1.85
712.138	4.85
712.165	-14.15
712.192	4.85
712.219	-10.15
712.246	-15.15
712.273	-22.15
712.3	4.85
712.328	8.85
712.355	21.85
712.382	-1.15
712.409	25.85
712.436	0.85
712.463	8.85
712.49	18.85
712.517	10.85
712.544	-6.15
712.572	7.85
712.599	-6.15
712.626	15.85
712.653	-3.15
712.68	-17.15
712.707	0.85
712.734	21.85
712.761	-4.15
712.788	1.85
712.815	15.85
712.842	19.85
712.87	3.85
712.897	4.85
712.924	-1.15
712.951	9.85
712.978	24.85
713.005	22.85
713.032	18.85
713.059	13.85
713.086	3.85
713.113	-1.15
713.14	-14.15
713.167	0.85
713.194	15.85
713.221	19.85
713.248	10.85
713.275	-1.15
713.302	11.85
713.329	30.85
713.356	16.85
713.383	6.85
713.41	18.85
713.437	1.85
713.464	-0.15
713.491	14.85
713.518	11.85
713.545	5.85
713.572	-12.15
713.599	8.85
713.626	1.85
713.653	4.85
713.68	2.85
713.707	5.85
713.734	-0.15
713.761	-1.15
713.788	-5.15
713.815	5.85
713.842	12.85
713.869	13.85
713.896	0.85
713.923	-0.15
713.95	16.85
713.977	4.85
714.004	-3.15
714.031	-3.15
714.058	-4.15
714.085	-12.15
714.112	1.85
714.139	7.85
714.165	-8.15
714.192	-7.15
714.219	-0.15
714.246	15.85
714.273	11.85
714.3	-1.15
714.327	-0.15
714.354	15.85
714.381	10.85
714.408	3.85
714.435	-10.15
714.461	17.85
714.488	14.85
714.515	-5.15
714.542	1.85
714.569	-1.15
714.596	-12.15
714.623	0.85
714.65	-13.15
714.677	4.85
714.703	17.85
714.73	-0.15
714.757	-0.15
714.784	15.85
714.811	-2.15
714.838	1.85
714.865	16.85
714.891	19.85
714.918	17.85
714.945	3.85
714.972	7.85
714.999	-0.15
715.026	6.85
715.052	17.85
715.079	21.85
715.106	-0.15
715.133	14.85
715.16	1.85
715.187	10.85
715.213	20.85
715.24	6.85
715.267	20.85
715.294	-8.15
715.321	-12.15
715.347	-3.15
715.374	-0.15
715.401	6.85
715.428	11.85
715.455	13.85
715.481	-8.15
715.508	22.85
715.535	6.85
715.562	18.85
715.588	1.85
715.615	5.85
715.642	1.85
715.669	11.85
715.695	2.85
715.722	-14.15
715.749	2.85
715.776	18.85
715.802	7.85
715.829	22.85
715.856	-1.15
715.883	23.85
715.909	3.85
715.936	6.85
715.963	5.85
715.99	-4.15
716.016	3.85
716.043	0.85
716.07	10.85
716.096	-6.15
716.123	-15.15
716.15	5.85
716.177	13.85
716.203	8.85
716.23	11.85
716.257	3.85
716.283	14.85
716.31	17.85
716.337	15.85
716.363	1.85
716.39	6.85
716.417	25.85
716.443	-4.15
716.47	15.85
716.497	2.85
716.523	19.85
716.55	11.85
716.577	8.85
716.603	6.85
716.63	-0.15
716.657	9.85
716.683	-4.15
716.71	-4.15
716.737	-3.15
716.763	25.85
716.79	7.85
716.817	17.85
716.843	17.85
716.87	7.85
716.897	-7.15
716.923	5.85
716.95	17.85
716.976	8.85
717.003	-3.15
717.03	-15.15
717.056	11.85
717.083	5.85
717.109	6.85
717.136	14.85
717.163	7.85
717.189	1.85
717.216	-6.15
717.242	-6.15
717.269	5.85
717.296	6.85
717.322	5.85
717.349	9.85
717.375	15.85
717.402	16.85
717.428	11.85
717.455	8.85
717.481	2.85
717.508	14.85
717.535	3.85
717.561	10.85
717.588	5.85
717.614	-7.15
717.641	-0.15
717.667	23.85
717.694	3.85
717.72	13.85
717.747	3.85
717.773	-9.15
717.8	-5.15
717.826	0.85
717.853	11.85
717.88	16.85
717.906	10.85
717.933	9.85
717.959	8.85
717.986	-9.15
718.012	9.85
718.039	11.85
718.065	14.85
718.092	0.85
718.118	2.85
718.144	13.85
718.171	15.85
718.197	17.85
718.224	-2.15
718.25	2.85
718.277	9.85
718.303	10.85
718.33	-2.15
718.356	-15.15
718.383	-14.15
718.409	17.85
718.436	4.85
718.462	-9.15
718.489	2.85
718.515	-0.15
718.541	14.85
718.568	11.85
718.594	6.85
718.621	5.85
718.647	-1.15
718.674	18.85
718.7	23.85
718.726	-7.15
718.753	22.85
718.779	21.85
718.806	5.85
718.832	4.85
718.858	1.85
718.885	6.85
718.911	18.85
718.938	18.85
718.964	1.85
718.99	6.85
719.017	-2.15
719.043	10.85
719.07	15.85
719.096	-22.15
719.122	0.85
719.149	6.85
719.175	7.85
719.201	15.85
719.228	17.85
719.254	5.85
719.281	-2.15
719.307	-5.15
719.333	7.85
719.36	15.85
719.386	-2.15
719.412	15.85
719.439	-4.15
719.465	5.85
719.491	1.85
719.518	9.85
719.544	-2.15
719.57	17.85
719.597	12.85
719.623	-4.15
719.649	19.85
719.675	8.85
719.702	13.85
719.728	18.85
719.754	3.85
719.781	-1.15
719.807	-3.15
719.833	2.85
719.86	-4.15
719.886	-2.15
719.912	20.85
719.938	0.85
719.965	-5.15
719.991	3.85
720.017	10.85
720.044	2.85
720.07	0.85
720.096	-2.15
720.122	14.85
720.149	16.85
720.175	31.85
720.201	12.85
720.227	3.85
720.254	6.85
720.28	0.85
720.306	-0.15
720.332	0.85
720.359	9.85
720.385	11.85
720.411	6.85
720.437	-4.15
720.463	8.85
720.49	-4.15
720.516	-2.15
720.542	-12.15
720.568	15.85
720.595	11.85
720.621	6.85
720.647	10.85
720.673	15.85
720.699	9.85
720.725	0.85
720.752	-1.15
720.778	8.85
720.804	12.85
720.83	15.85
720.856	14.85
720.883	2.85
720.909	-5.15
720.935	7.85
720.961	8.85
720.987	11.85
721.013	1.85
721.04	1.85
721.066	-6.15
721.092	-1.15
721.118	5.85
721.144	6.85
721.17	-3.15
721.196	7.85
721.223	-9.15
721.249	2.85
721.275	21.85
721.301	-2.15
721.327	12.85
721.353	7.85
721.379	-3.15
721.405	-6.15
721.432	1.85
721.458	-2.15
721.484	-0.15
721.51	-8.15
721.536	-2.15
721.562	5.85
721.588	-1.15
721.614	-4.15
721.64	-3.15
721.666	-6.15
721.693	1.85
721.719	-3.15
721.745	1.85
721.771	-14.15
721.797	-2.15
721.823	9.85
721.849	7.85
721.875	16.85
721.901	9.85
721.927	-14.15
721.953	11.85
721.979	15.85
722.005	2.85
722.031	-6.15
722.057	-4.15
722.083	11.85
722.109	12.85
722.135	15.85
722.161	16.85
722.187	3.85
722.214	1.85
722.24	4.85
722.266	2.85
722.292	7.85
722.318	20.85
722.344	3.85
722.37	-2.15
722.396	11.85
722.422	3.85
722.448	-3.15
722.474	-7.15
722.5	10.85
722.526	8.85
722.552	10.85
722.578	2.85
722.603	5.85
722.629	0.85
722.655	24.85
722.681	6.85
722.707	-14.15
722.733	-5.15
722.759	-2.15
722.785	-4.15
722.811	5.85
722.837	7.85
722.863	-2.15
722.889	9.85
722.915	7.85
722.941	-4.15
722.967	-10.15
722.993	14.85
723.019	1.85
723.045	13.85
723.071	7.85
723.097	1.85
723.122	0.85
723.148	-10.15
723.174	1.85
723.2	12.85
723.226	8.85
723.252	13.85
723.278	-10.15
723.304	-2.15
723.33	0.85
723.356	-1.15
723.381	-2.15
723.407	-2.15
723.433	10.85
723.459	-0.15
723.485	1.85
723.511	6.85
723.537	9.85
723.563	1.85
723.588	9.85
723.614	14.85
723.64	-5.15
723.666	-5.15
723.692	12.85
723.718	14.85
723.744	6.85
723.769	-7.15
723.795	-4.15
723.821	-16.15
723.847	6.85
723.873	2.85
723.899	15.85
723.924	0.85
723.95	-4.15
723.976	-8.15
724.002	2.85
724.028	20.85
724.053	-8.15
724.079	14.85
724.105	1.85
724.131	6.85
724.157	5.85
724.182	5.85
724.208	9.85
724.234	1.85
724.26	12.85
724.286	10.85
724.311	-2.15
724.337	-10.15
724.363	-15.15
724.389	-3.15
724.415	4.85
724.44	11.85
724.466	-9.15
724.492	1.85
724.518	4.85
724.543	18.85
724.569	11.85
724.595	10.85
724.621	-12.15
724.646	-5.15
724.672	2.85
724.698	16.85
724.723	9.85
724.749	9.85
724.775	19.85
724.801	5.85
724.826	-18.15
724.852	2.85
724.878	5.85
724.904	1.85
724.929	11.85
724.955	-5.15
724.981	9.85
725.006	-7.15
725.032	11.85
725.058	21.85
725.083	-6.15
725.109	-1.15
725.135	-3.15
725.161	-1.15
725.186	-0.15
725.212	2.85
725.238	13.85
725.263	-2.15
725.289	-5.15
725.315	-1.15
725.34	5.85
725.366	23.85
725.392	7.85
725.417	-1.15
725.443	1.85
725.468	10.85
725.494	-3.15
725.52	1.85
725.545	-21.15
725.571	2.85
725.597	-3.15
725.622	-2.15
725.648	9.85
725.674	16.85
725.699	10.85
725.725	5.85
725.75	15.85
725.776	2.85
725.802	2.85
725.827	-4.15
725.853	-8.15
725.878	-0.15
725.904	7.85
725.93	4.85
725.955	1.85
725.981	-2.15
726.006	-0.15
726.032	26.85
726.057	-1.15
726.083	6.85
726.109	2.85
726.134	6.85
726.16	13.85
726.185	14.85
726.211	-6.15
726.236	10.85
726.262	-3.15
726.288	-7.15
726.313	15.85
726.339	21.85
726.364	6.85
726.39	20.85
726.415	0.85
726.441	-1.15
726.466	-0.15
726.492	7.85
726.517	2.85
726.543	3.85
726.568	-7.15
726.594	8.85
726.619	6.85
726.645	-0.15
726.67	18.85
726.696	12.85
726.721	5.85
726.747	-14.15
726.772	6.85
726.798	0.85
726.823	10.85
726.849	1.85
726.874	1.85
726.9	13.85
726.925	11.85
726.951	2.85
726.976	10.85
727.002	-7.15
727.027	7.85
727.053	10.85
727.078	24.85
727.104	15.85
727.129	-2.15
727.155	-0.15
727.18	8.85
727.205	3.85
727.231	1.85
727.256	6.85
727.282	1.85
727.307	-0.15
727.333	-4.15
727.358	-9.15
727.383	-0.15
727.409	-7.15
727.434	9.85
727.46	-2.15
727.485	-15.15
727.511	16.85
727.536	-0.15
727.561	-8.15
727.587	3.85
727.612	16.85
727.637	6.85
727.663	3.85
727.688	25.85
727.714	6.85
727.739	0.85
727.764	3.85
727.79	12.85
727.815	11.85
727.841	14.85
727.866	20.85
727.891	18.85
727.917	-0.15
727.942	-1.15
727.967	-2.15
727.993	0.85
728.018	-6.15
728.043	7.85
728.069	7.85
728.094	8.85
728.119	-4.15
728.145	18.85
728.17	14.85
728.195	17.85
728.221	8.85
728.246	5.85
728.271	-1.15
728.297	9.85
728.322	21.85
728.347	10.85
728.373	17.85
728.398	12.85
728.423	-7.15
728.448	4.85
728.474	5.85
728.499	11.85
728.524	-4.15
728.55	-4.15
728.575	2.85
728.6	8.85
728.625	-4.15
728.651	16.85
728.676	13.85
728.701	4.85
728.727	1.85
728.752	-7.15
728.777	-0.15
728.802	5.85
728.828	0.85
728.853	11.85
728.878	10.85
728.903	26.85
728.929	12.85
728.954	17.85
728.979	24.85
729.004	-6.15
729.03	-8.15
729.055	1.85
729.08	-7.15
729.105	-2.15
729.13	15.85
729.156	12.85
729.181	8.85
729.206	6.85
729.231	2.85
729.256	24.85
729.282	23.85
729.307	12.85
729.332	-11.15
729.357	-7.15
729.382	1.85
729.408	5.85
729.433	-0.15
729.458	-3.15
729.483	3.85
729.508	24.85
729.533	8.85
729.559	8.85
729.584	6.85
729.609	19.85
729.634	18.85
729.659	0.85
729.684	-5.15
729.71	20.85
729.735	7.85
729.76	3.85
729.785	-2.15
729.81	13.85
729.835	3.85
729.86	1.85
729.886	8.85
729.911	11.85
729.936	0.85
729.961	20.85
729.986	-7.15
730.011	-0.15
730.036	3.85
730.061	8.85
730.086	3.85
730.112	7.85
730.137	26.85
730.162	13.85
730.187	-18.15
730.212	5.85
730.237	-15.15
730.262	-12.15
730.287	-4.15
730.312	15.85
730.337	-0.15
730.362	12.85
730.387	-5.15
730.413	-6.15
730.438	-8.15
730.463	0.85
730.488	-5.15
730.513	9.85
730.538	5.85
730.563	14.85
730.588	17.85
730.613	18.85
730.638	6.85
730.663	5.85
730.688	32.85
730.713	8.85
730.738	-5.15
730.763	4.85
730.788	-1.15
730.813	8.85
730.838	-4.15
730.863	9.85
730.888	-3.15
730.913	-4.15
730.938	-20.15
730.963	8.85
730.988	5.85
731.013	28.85
731.038	6.85
731.063	6.85
731.088	9.85
731.113	5.85
731.138	15.85
731.163	22.85
731.188	6.85
731.213	5.85
731.238	13.85
731.263	19.85
731.288	8.85
731.313	13.85
731.338	6.85
731.363	5.85
731.388	10.85
731.413	8.85
731.438	8.85
731.463	6.85
731.487	5.85
731.512	-9.15
731.537	-0.15
731.562	9.85
731.587	0.85
731.612	0.85
731.637	1.85
731.662	3.85
731.687	2.85
731.712	-9.15
731.737	0.85
731.762	6.85
731.786	15.85
731.811	5.85
731.836	-1.15
731.861	16.85
731.886	11.85
731.911	4.85
731.936	-0.15
731.961	0.85
731.986	-1.15
732.01	6.85
732.035	9.85
732.06	9.85
732.085	-6.15
732.11	-3.15
732.135	-0.15
732.16	4.85
732.184	5.85
732.209	-10.15
732.234	15.85
732.259	12.85
732.284	21.85
732.309	0.85
732.334	2.85
732.358	-8.15
732.383	-20.15
732.408	-0.15
732.433	20.85
732.458	2.85
732.482	12.85
732.507	3.85
732.532	-15.15
732.557	17.85
732.582	11.85
732.607	-0.15
732.631	0.85
732.656	12.85
732.681	6.85
732.706	12.85
732.73	10.85
732.755	-3.15
732.78	7.85
732.805	9.85
732.83	-3.15
732.854	-6.15
732.879	10.85
732.904	4.85
732.929	14.85
732.953	9.85
732.978	5.85
733.003	-2.15
733.028	4.85
733.052	16.85
733.077	16.85
733.102	11.85
733.127	9.85
733.151	21.85
733.176	2.85
733.201	4.85
733.226	-4.15
733.25	-3.15
733.275	8.85
733.3	7.85
733.324	26.85
733.349	13.85
733.374	11.85
733.399	14.85
733.423	11.85
733.448	14.85
733.473	6.85
733.497	3.85
733.522	12.85
733.547	23.85
733.571	41.85
733.596	9.85
733.621	13.85
733.646	1.85
733.67	10.85
733.695	2.85
733.72	7.85
733.744	-1.15
733.769	1.85
733.794	15.85
733.818	2.85
733.843	-1.15
733.867	-18.15
733.892	13.85
733.917	6.85
733.941	5.85
733.966	-12.15
733.991	-13.15
734.015	9.85
734.04	16.85
734.065	13.85
734.089	19.85
734.114	-11.15
734.138	15.85
734.163	10.85
734.188	21.85
734.212	29.85
734.237	15.85
734.261	9.85
734.286	1.85
734.311	-0.15
734.335	-2.15
734.36	0.85
734.384	9.85
734.409	13.85
734.434	-6.15
734.458	1.85
734.483	-0.15
734.507	7.85
734.532	5.85
734.556	1.85
734.581	3.85
734.606	2.85
734.63	-2.15
734.655	-1.15
734.679	-2.15
734.704	-3.15
734.728	-4.15
734.753	-0.15
734.777	13.85
734.802	8.85
734.826	5.85
734.851	14.85
734.876	-0.15
734.9	6.85
734.925	11.85
734.949	4.85
734.974	-1.15
734.998	1.85
735.023	-2.15
735.047	-6.15
735.072	14.85
735.096	8.85
735.121	6.85
735.145	10.85
735.17	10.85
735.194	0.85
735.219	5.85
735.243	6.85
735.268	0.85
735.292	8.85
735.317	1.85
735.341	14.85
735.365	-2.15
735.39	19.85
735.414	16.85
735.439	5.85
735.463	12.85
735.488	-3.15
735.512	-1.15
735.537	19.85
735.561	14.85
735.586	5.85
735.61	7.85
735.634	10.85
735.659	15.85
735.683	24.85
735.708	-5.15
735.732	12.85
735.757	4.85
735.781	-1.15
735.805	6.85
735.83	-4.15
735.854	9.85
735.879	14.85
735.903	28.85
735.927	12.85
735.952	33.85
735.976	9.85
736.001	7.85
736.025	1.85
736.049	6.85
736.074	4.85
736.098	5.85
736.123	6.85
736.147	1.85
736.171	11.85
736.196	9.85
736.22	-4.15
736.244	7.85
736.269	5.85
736.293	8.85
736.317	8.85
736.342	12.85
736.366	20.85
736.39	8.85
736.415	6.85
736.439	-1.15
736.463	2.85
736.488	0.85
736.512	9.85
736.536	5.85
736.561	29.85
736.585	6.85
736.609	12.85
736.634	-1.15
736.658	-12.15
736.682	-14.15
736.707	-5.15
736.731	-11.15
736.755	-2.15
736.78	13.85
736.804	17.85
736.828	2.85
736.852	9.85
736.877	-0.15
736.901	11.85
736.925	5.85
736.949	-5.15
736.974	-4.15
736.998	7.85
737.022	16.85
737.047	5.85
737.071	0.85
737.095	17.85
737.119	9.85
737.144	-10.15
737.168	2.85
737.192	3.85
737.216	13.85
737.241	6.85
737.265	3.85
737.289	-1.15
737.313	0.85
737.337	13.85
737.362	13.85
737.386	-8.15
737.41	-10.15
737.434	14.85
737.459	-1.15
737.483	9.85
737.507	6.85
737.531	15.85
737.555	18.85
737.58	23.85
737.604	2.85
737.628	-2.15
737.652	-4.15
737.676	0.85
737.701	5.85
737.725	9.85
737.749	15.85
737.773	0.85
737.797	11.85
737.821	10.85
737.846	8.85
737.87	25.85
737.894	6.85
737.918	10.85
737.942	2.85
737.966	6.85
737.99	8.85
738.015	9.85
738.039	2.85
738.063	5.85
738.087	9.85
738.111	5.85
738.135	7.85
738.159	-14.15
738.184	0.85
738.208	0.85
738.232	11.85
738.256	3.85
738.28	4.85
738.304	13.85
738.328	0.85
738.352	-4.15
738.376	-5.15
738.4	23.85
738.425	12.85
738.449	0.85
738.473	26.85
738.497	13.85
738.521	6.85
738.545	2.85
738.569	14.85
738.593	13.85
738.617	9.85
738.641	5.85
738.665	3.85
738.689	15.85
738.713	4.85
738.737	15.85
738.762	16.85
738.786	7.85
738.81	-1.15
738.834	20.85
738.858	-9.15
738.882	-0.15
738.906	-10.15
738.93	4.85
738.954	13.85
738.978	17.85
739.002	-7.15
739.026	13.85
739.05	23.85
739.074	0.85
739.098	26.85
739.122	13.85
739.146	22.85
739.17	21.85
739.194	2.85
739.218	1.85
739.242	4.85
739.266	5.85
739.29	22.85
739.314	11.85
739.338	15.85
739.362	12.85
739.386	13.85
739.41	0.85
739.434	5.85
739.458	11.85
739.482	11.85
739.506	2.85
739.53	1.85
739.554	29.85
739.577	-2.15
739.601	15.85
739.625	11.85
739.649	6.85
739.673	-6.15
739.697	19.85
739.721	1.85
739.745	8.85
739.769	6.85
739.793	13.85
739.817	15.85
739.841	-1.15
739.865	-5.15
739.889	-5.15
739.912	12.85
739.936	6.85
739.96	-3.15
739.984	7.85
740.008	5.85
740.032	-8.15
740.056	-2.15
740.08	13.85
740.104	1.85
740.127	-0.15
740.151	10.85
740.175	14.85
740.199	11.85
740.223	45.85
740.247	18.85
740.271	7.85
740.295	1.85
740.318	3.85
740.342	2.85
740.366	15.85
740.39	10.85
740.414	-0.15
740.438	10.85
740.461	31.85
740.485	13.85
740.509	-2.15
740.533	17.85
740.557	5.85
740.581	3.85
740.604	-1.15
740.628	1.85
740.652	5.85
740.676	6.85
740.7	26.85
740.723	-1.15
740.747	-6.15
740.771	-2.15
740.795	-5.15
740.819	19.85
740.842	11.85
740.866	-1.15
740.89	-6.15
740.914	-1.15
740.938	1.85
740.961	7.85
740.985	9.85
741.009	1.85
741.033	11.85
741.056	9.85
741.08	6.85
741.104	-1.15
741.128	5.85
741.151	16.85
741.175	-9.15
741.199	14.85
741.223	1.85
741.246	-4.15
741.27	2.85
741.294	6.85
741.318	9.85
741.341	-4.15
741.365	3.85
741.389	-10.15
741.413	6.85
741.436	13.85
741.46	2.85
741.484	11.85
741.507	5.85
741.531	15.85
741.555	20.85
741.579	7.85
741.602	3.85
741.626	7.85
741.65	-4.15
741.673	1.85
741.697	15.85
741.721	5.85
741.744	-6.15
741.768	6.85
741.792	2.85
741.815	2.85
741.839	21.85
741.863	30.85
741.886	33.85
741.91	25.85
741.934	12.85
741.957	-20.15
741.981	6.85
742.005	3.85
742.028	-3.15
742.052	-5.15
742.075	14.85
742.099	14.85
742.123	7.85
742.146	10.85
742.17	12.85
742.194	-6.15
742.217	8.85
742.241	-6.15
742.264	12.85
742.288	18.85
742.312	17.85
742.335	-1.15
742.359	-0.15
742.382	27.85
742.406	14.85
742.43	-19.15
742.453	10.85
742.477	0.85
742.5	-2.15
742.524	7.85
742.548	-1.15
742.571	9.85
742.595	13.85
742.618	11.85
742.642	5.85
742.665	7.85
742.689	-3.15
742.712	6.85
742.736	7.85
742.76	2.85
742.783	5.85
742.807	14.85
742.83	5.85
742.854	-11.15
742.877	4.85
742.901	8.85
742.924	-2.15
742.948	0.85
742.971	21.85
742.995	9.85
743.018	-5.15
743.042	-8.15
743.065	-2.15
743.089	1.85
743.112	-0.15
743.136	-2.15
743.159	4.85
743.183	2.85
743.206	2.85
743.23	-4.15
743.253	-13.15
743.277	-2.15
743.3	-1.15
743.324	19.85
743.347	2.85
743.371	24.85
743.394	22.85
743.418	20.85
743.441	14.85
743.465	5.85
743.488	18.85
743.512	-8.15
743.535	-7.15
743.558	-9.15
743.582	2.85
743.605	19.85
743.629	21.85
743.652	17.85
743.676	8.85
743.699	13.85
743.723	-1.15
743.746	14.85
743.769	5.85
743.793	13.85
743.816	10.85
743.84	19.85
743.863	11.85
743.886	6.85
743.91	21.85
743.933	11.85
743.957	19.85
743.98	15.85
744.003	6.85
744.027	1.85
744.05	-20.15
744.074	-0.15
744.097	-8.15
744.12	2.85
744.144	-3.15
744.167	14.85
744.19	-1.15
744.214	5.85
744.237	8.85
744.26	25.85
744.284	-1.15
744.307	2.85
744.331	8.85
744.354	-4.15
744.377	2.85
744.401	14.85
744.424	-1.15
744.447	2.85
744.471	3.85
