Data from HighRes_H2D2_15_04_11_07_2024_HR4C61891__31__15-05-37-543.txt Node

Date: Thu Nov 07 15:05:37 EST 2024
User: crc00042
Spectrometer: HR4C6189
Trigger mode: 4
Integration Time (sec): 1.000000E-1
Scans to average: 1
Electric dark correction enabled: true
Nonlinearity correction enabled: false
Boxcar width: 0
XAxis mode: Wavelengths
Number of Pixels in Spectrum: 3648
>>>>>Begin Spectral Data<<<<<
639.567	-35.85
639.602	-35.85
639.636	-35.85
639.67	-39.85
639.704	-18.85
639.738	9.15
639.773	14.15
639.807	-29.85
639.841	-2.85
639.875	13.15
639.909	-5.85
639.943	-3.85
639.978	-8.85
640.012	0.15
640.046	8.15
640.08	7.15
640.114	6.15
640.148	-6.85
640.182	-3.85
640.217	-0.85
640.251	9.15
640.285	11.15
640.319	-2.85
640.353	7.15
640.387	-0.85
640.421	3.15
640.455	-9.85
640.49	1.15
640.524	-2.85
640.558	6.15
640.592	6.15
640.626	9.15
640.66	14.15
640.694	0.15
640.728	16.15
640.762	21.15
640.796	26.15
640.83	18.15
640.865	-4.85
640.899	-23.85
640.933	-17.85
640.967	23.15
641.001	22.15
641.035	16.15
641.069	-1.85
641.103	-11.85
641.137	-4.85
641.171	-14.85
641.205	-5.85
641.239	8.15
641.273	9.15
641.307	8.15
641.341	-6.85
641.375	-18.85
641.409	-17.85
641.443	-4.85
641.477	14.15
641.511	1.15
641.545	-4.85
641.579	-8.85
641.614	8.15
641.648	11.15
641.682	-6.85
641.716	14.15
641.75	31.15
641.784	6.15
641.818	7.15
641.852	-1.85
641.886	-15.85
641.919	23.15
641.953	-4.85
641.987	-7.85
642.021	8.15
642.055	20.15
642.089	10.15
642.123	-12.85
642.157	12.15
642.191	-8.85
642.225	-8.85
642.259	-5.85
642.293	9.15
642.327	2.15
642.361	-3.85
642.395	15.15
642.429	7.15
642.463	-3.85
642.497	2.15
642.531	-19.85
642.565	-14.85
642.599	0.15
642.633	6.15
642.666	1.15
642.7	10.15
642.734	14.15
642.768	-12.85
642.802	-5.85
642.836	4.15
642.87	-14.85
642.904	2.15
642.938	6.15
642.972	-9.85
643.005	6.15
643.039	21.15
643.073	4.15
643.107	28.15
643.141	14.15
643.175	14.15
643.209	8.15
643.243	-6.85
643.276	10.15
643.31	-0.85
643.344	2.15
643.378	-0.85
643.412	1.15
643.446	4.15
643.48	-10.85
643.513	6.15
643.547	-1.85
643.581	6.15
643.615	11.15
643.649	-14.85
643.683	-6.85
643.716	-13.85
643.75	-2.85
643.784	0.15
643.818	19.15
643.852	4.15
643.886	6.15
643.919	18.15
643.953	-12.85
643.987	0.15
644.021	9.15
644.055	22.15
644.088	5.15
644.122	-15.85
644.156	-22.85
644.19	-3.85
644.224	15.15
644.257	-9.85
644.291	9.15
644.325	-9.85
644.359	1.15
644.392	16.15
644.426	18.15
644.46	0.15
644.494	18.15
644.527	-10.85
644.561	-0.85
644.595	-7.85
644.629	-4.85
644.662	9.15
644.696	24.15
644.73	1.15
644.764	5.15
644.797	2.15
644.831	0.15
644.865	12.15
644.899	18.15
644.932	17.15
644.966	1.15
645	-3.85
645.033	6.15
645.067	-3.85
645.101	3.15
645.135	13.15
645.168	20.15
645.202	9.15
645.236	-2.85
645.269	19.15
645.303	9.15
645.337	1.15
645.37	-5.85
645.404	17.15
645.438	-3.85
645.471	7.15
645.505	9.15
645.539	14.15
645.572	-0.85
645.606	-3.85
645.64	-13.85
645.673	6.15
645.707	4.15
645.741	-10.85
645.774	-23.85
645.808	15.15
645.842	8.15
645.875	29.15
645.909	-6.85
645.943	3.15
645.976	-10.85
646.01	14.15
646.043	15.15
646.077	11.15
646.111	-14.85
646.144	6.15
646.178	7.15
646.212	5.15
646.245	9.15
646.279	5.15
646.312	13.15
646.346	26.15
646.38	10.15
646.413	1.15
646.447	6.15
646.48	10.15
646.514	3.15
646.547	5.15
646.581	-2.85
646.615	-12.85
646.648	-6.85
646.682	4.15
646.715	-1.85
646.749	1.15
646.782	2.15
646.816	-7.85
646.85	5.15
646.883	-9.85
646.917	30.15
646.95	10.15
646.984	1.15
647.017	-6.85
647.051	14.15
647.084	9.15
647.118	-14.85
647.151	-0.85
647.185	6.15
647.218	7.15
647.252	10.15
647.285	-2.85
647.319	-8.85
647.353	10.15
647.386	11.15
647.42	-3.85
647.453	7.15
647.487	11.15
647.52	-2.85
647.553	3.15
647.587	-14.85
647.62	-3.85
647.654	-0.85
647.687	-4.85
647.721	9.15
647.754	0.15
647.788	-1.85
647.821	10.15
647.855	1.15
647.888	21.15
647.922	16.15
647.955	11.15
647.989	12.15
648.022	2.15
648.055	3.15
648.089	3.15
648.122	22.15
648.156	9.15
648.189	7.15
648.223	2.15
648.256	14.15
648.29	14.15
648.323	-3.85
648.356	9.15
648.39	8.15
648.423	11.15
648.457	12.15
648.49	17.15
648.523	8.15
648.557	-13.85
648.59	-7.85
648.624	1.15
648.657	9.15
648.69	13.15
648.724	12.15
648.757	10.15
648.791	0.15
648.824	22.15
648.857	15.15
648.891	2.15
648.924	9.15
648.957	13.15
648.991	4.15
649.024	12.15
649.057	-11.85
649.091	16.15
649.124	-0.85
649.158	6.15
649.191	14.15
649.224	5.15
649.258	20.15
649.291	19.15
649.324	7.15
649.358	5.15
649.391	3.15
649.424	-6.85
649.458	0.15
649.491	17.15
649.524	-2.85
649.557	6.15
649.591	-4.85
649.624	13.15
649.657	0.15
649.691	-7.85
649.724	0.15
649.757	6.15
649.791	-17.85
649.824	12.15
649.857	19.15
649.89	14.15
649.924	0.15
649.957	7.15
649.99	-11.85
650.023	-9.85
650.057	19.15
650.09	8.15
650.123	3.15
650.157	10.15
650.19	15.15
650.223	10.15
650.256	2.15
650.29	-1.85
650.323	11.15
650.356	11.15
650.389	-12.85
650.423	-16.85
650.456	-8.85
650.489	2.15
650.522	12.15
650.555	9.15
650.589	5.15
650.622	6.15
650.655	22.15
650.688	17.15
650.721	7.15
650.755	11.15
650.788	1.15
650.821	-0.85
650.854	3.15
650.887	12.15
650.921	-5.85
650.954	4.15
650.987	-1.85
651.02	6.15
651.053	-9.85
651.087	-1.85
651.12	27.15
651.153	0.15
651.186	-9.85
651.219	-6.85
651.252	8.15
651.286	-1.85
651.319	3.15
651.352	-4.85
651.385	6.15
651.418	2.15
651.451	19.15
651.484	21.15
651.518	-1.85
651.551	28.15
651.584	0.15
651.617	24.15
651.65	14.15
651.683	7.15
651.716	-5.85
651.749	1.15
651.783	9.15
651.816	13.15
651.849	3.15
651.882	8.15
651.915	-2.85
651.948	10.15
651.981	0.15
652.014	-6.85
652.047	-21.85
652.08	-14.85
652.114	-1.85
652.147	-0.85
652.18	3.15
652.213	8.15
652.246	2.15
652.279	-8.85
652.312	5.15
652.345	3.15
652.378	-2.85
652.411	14.15
652.444	0.15
652.477	6.15
652.51	2.15
652.543	-10.85
652.576	2.15
652.609	1.15
652.642	12.15
652.675	26.15
652.709	-8.85
652.742	8.15
652.775	0.15
652.808	16.15
652.841	-2.85
652.874	1.15
652.907	1.15
652.94	-0.85
652.973	-1.85
653.006	-12.85
653.039	3.15
653.072	14.15
653.105	5.15
653.138	-2.85
653.171	-11.85
653.204	-12.85
653.237	1.15
653.27	-0.85
653.303	0.15
653.336	2.15
653.368	0.15
653.401	3.15
653.434	9.15
653.467	3.15
653.5	-5.85
653.533	-5.85
653.566	6.15
653.599	2.15
653.632	-0.85
653.665	8.15
653.698	-23.85
653.731	-16.85
653.764	14.15
653.797	17.15
653.83	11.15
653.863	15.15
653.896	12.15
653.929	-0.85
653.961	13.15
653.994	11.15
654.027	-23.85
654.06	7.15
654.093	3.15
654.126	-1.85
654.159	-1.85
654.192	14.15
654.225	-6.85
654.258	-17.85
654.29	4.15
654.323	11.15
654.356	-2.85
654.389	11.15
654.422	9.15
654.455	12.15
654.488	5.15
654.521	-22.85
654.553	-7.85
654.586	13.15
654.619	-3.85
654.652	2.15
654.685	-5.85
654.718	-4.85
654.751	6.15
654.783	13.15
654.816	12.15
654.849	6.15
654.882	-7.85
654.915	-15.85
654.948	-4.85
654.98	-4.85
655.013	7.15
655.046	5.15
655.079	-3.85
655.112	10.15
655.144	4.15
655.177	11.15
655.21	17.15
655.243	7.15
655.276	6.15
655.308	-4.85
655.341	-6.85
655.374	-6.85
655.407	-4.85
655.44	11.15
655.472	18.15
655.505	13.15
655.538	6.15
655.571	11.15
655.603	1.15
655.636	3.15
655.669	0.15
655.702	17.15
655.734	13.15
655.767	6.15
655.8	0.15
655.833	5.15
655.865	8.15
655.898	-0.85
655.931	4.15
655.964	14.15
655.996	27.15
656.029	35.15
656.062	24.15
656.095	49.15
656.127	79.15
656.16	222.15
656.193	617.15
656.225	954.15
656.258	552.15
656.291	209.15
656.324	179.15
656.356	375.15
656.389	774.15
656.422	678.15
656.454	242.15
656.487	94.15
656.52	33.15
656.552	16.15
656.585	13.15
656.618	11.15
656.65	7.15
656.683	2.15
656.716	13.15
656.748	-2.85
656.781	1.15
656.814	-18.85
656.846	6.15
656.879	-13.85
656.912	-9.85
656.944	-14.85
656.977	-10.85
657.01	0.15
657.042	1.15
657.075	8.15
657.108	22.15
657.14	14.15
657.173	7.15
657.205	41.15
657.238	11.15
657.271	11.15
657.303	7.15
657.336	-8.85
657.369	2.15
657.401	5.15
657.434	2.15
657.466	5.15
657.499	10.15
657.532	6.15
657.564	-6.85
657.597	-13.85
657.629	6.15
657.662	11.15
657.694	3.15
657.727	-0.85
657.76	11.15
657.792	-2.85
657.825	1.15
657.857	3.15
657.89	0.15
657.922	10.15
657.955	3.15
657.987	-0.85
658.02	-1.85
658.053	26.15
658.085	10.15
658.118	16.15
658.15	10.15
658.183	10.15
658.215	-6.85
658.248	7.15
658.28	-1.85
658.313	3.15
658.345	6.15
658.378	-0.85
658.41	-0.85
658.443	-6.85
658.475	2.15
658.508	3.15
658.54	-3.85
658.573	4.15
658.605	0.15
658.638	11.15
658.67	-2.85
658.703	-2.85
658.735	0.15
658.768	-2.85
658.8	-4.85
658.833	16.15
658.865	-3.85
658.898	6.15
658.93	-1.85
658.963	6.15
658.995	-12.85
659.028	9.15
659.06	-6.85
659.092	-8.85
659.125	-19.85
659.157	9.15
659.19	4.15
659.222	3.15
659.255	5.15
659.287	5.15
659.32	11.15
659.352	-4.85
659.384	9.15
659.417	-9.85
659.449	-3.85
659.482	8.15
659.514	-7.85
659.546	-1.85
659.579	3.15
659.611	0.15
659.644	3.15
659.676	-4.85
659.708	-14.85
659.741	-7.85
659.773	2.15
659.806	0.15
659.838	7.15
659.87	4.15
659.903	-13.85
659.935	12.15
659.967	13.15
660	-1.85
660.032	-20.85
660.065	5.15
660.097	7.15
660.129	-19.85
660.162	-17.85
660.194	26.15
660.226	5.15
660.259	10.15
660.291	6.15
660.323	-0.85
660.356	-7.85
660.388	-8.85
660.42	3.15
660.453	10.15
660.485	8.15
660.517	11.15
660.55	13.15
660.582	-9.85
660.614	10.15
660.647	5.15
660.679	-16.85
660.711	-7.85
660.743	-29.85
660.776	-6.85
660.808	-7.85
660.84	5.15
660.873	12.15
660.905	-16.85
660.937	13.15
660.969	14.15
661.002	1.15
661.034	12.15
661.066	10.15
661.099	13.15
661.131	12.15
661.163	12.15
661.195	7.15
661.228	-3.85
661.26	-9.85
661.292	6.15
661.324	2.15
661.357	7.15
661.389	-7.85
661.421	9.15
661.453	3.15
661.485	-0.85
661.518	-4.85
661.55	-12.85
661.582	-2.85
661.614	10.15
661.647	16.15
661.679	-12.85
661.711	14.15
661.743	-7.85
661.775	10.15
661.808	17.15
661.84	-15.85
661.872	-7.85
661.904	-3.85
661.936	7.15
661.969	-21.85
662.001	4.15
662.033	10.15
662.065	-18.85
662.097	18.15
662.129	11.15
662.162	5.15
662.194	11.15
662.226	-2.85
662.258	8.15
662.29	7.15
662.322	-5.85
662.355	-1.85
662.387	3.15
662.419	13.15
662.451	18.15
662.483	18.15
662.515	-2.85
662.547	-3.85
662.58	-2.85
662.612	3.15
662.644	-1.85
662.676	6.15
662.708	12.15
662.74	6.15
662.772	19.15
662.804	5.15
662.836	14.15
662.869	-6.85
662.901	8.15
662.933	-15.85
662.965	21.15
662.997	14.15
663.029	-15.85
663.061	-9.85
663.093	-16.85
663.125	8.15
663.157	15.15
663.189	2.15
663.221	14.15
663.254	-6.85
663.286	16.15
663.318	7.15
663.35	-6.85
663.382	11.15
663.414	23.15
663.446	15.15
663.478	6.15
663.51	24.15
663.542	-14.85
663.574	-5.85
663.606	-14.85
663.638	6.15
663.67	-11.85
663.702	3.15
663.734	10.15
663.766	8.15
663.798	-1.85
663.83	3.15
663.862	6.15
663.894	8.15
663.926	-10.85
663.958	-8.85
663.99	8.15
664.022	12.15
664.054	-1.85
664.086	-6.85
664.118	-2.85
664.15	-5.85
664.182	3.15
664.214	-1.85
664.246	20.15
664.278	15.15
664.31	20.15
664.342	7.15
664.374	5.15
664.406	-1.85
664.438	7.15
664.47	-8.85
664.502	-4.85
664.534	-1.85
664.566	-14.85
664.598	-4.85
664.63	-21.85
664.662	4.15
664.693	0.15
664.725	-6.85
664.757	-21.85
664.789	-6.85
664.821	9.15
664.853	9.15
664.885	-1.85
664.917	1.15
664.949	17.15
664.981	11.15
665.013	3.15
665.045	-0.85
665.076	-1.85
665.108	6.15
665.14	2.15
665.172	10.15
665.204	3.15
665.236	-1.85
665.268	13.15
665.3	3.15
665.331	-13.85
665.363	1.15
665.395	-10.85
665.427	-5.85
665.459	7.15
665.491	2.15
665.523	2.15
665.555	8.15
665.586	8.15
665.618	-13.85
665.65	-16.85
665.682	7.15
665.714	-7.85
665.746	-0.85
665.777	1.15
665.809	-0.85
665.841	3.15
665.873	-11.85
665.905	8.15
665.937	28.15
665.968	7.15
666	-13.85
666.032	6.15
666.064	2.15
666.096	-5.85
666.127	10.15
666.159	0.15
666.191	0.15
666.223	-2.85
666.255	-3.85
666.286	6.15
666.318	9.15
666.35	15.15
666.382	10.15
666.413	-9.85
666.445	-14.85
666.477	-14.85
666.509	-5.85
666.54	-0.85
666.572	-9.85
666.604	-3.85
666.636	6.15
666.667	7.15
666.699	21.15
666.731	10.15
666.763	-17.85
666.794	8.15
666.826	17.15
666.858	-10.85
666.89	0.15
666.921	7.15
666.953	-3.85
666.985	14.15
667.017	18.15
667.048	-2.85
667.08	-6.85
667.112	1.15
667.143	15.15
667.175	-0.85
667.207	10.15
667.238	12.15
667.27	13.15
667.302	15.15
667.334	2.15
667.365	16.15
667.397	17.15
667.429	-4.85
667.46	9.15
667.492	5.15
667.524	12.15
667.555	-3.85
667.587	4.15
667.619	-4.85
667.65	2.15
667.682	-3.85
667.714	8.15
667.745	5.15
667.777	0.15
667.808	14.15
667.84	17.15
667.872	7.15
667.903	32.15
667.935	-6.85
667.967	-7.85
667.998	-0.85
668.03	1.15
668.061	19.15
668.093	10.15
668.125	9.15
668.156	14.15
668.188	-2.85
668.22	-4.85
668.251	14.15
668.283	0.15
668.314	9.15
668.346	3.15
668.377	3.15
668.409	-9.85
668.441	0.15
668.472	3.15
668.504	20.15
668.535	12.15
668.567	6.15
668.599	-1.85
668.63	0.15
668.662	-2.85
668.693	15.15
668.725	16.15
668.756	14.15
668.788	5.15
668.819	5.15
668.851	-2.85
668.882	6.15
668.914	-3.85
668.946	11.15
668.977	-4.85
669.009	8.15
669.04	-15.85
669.072	-4.85
669.103	4.15
669.135	-4.85
669.166	16.15
669.198	22.15
669.229	16.15
669.261	6.15
669.292	6.15
669.324	3.15
669.355	12.15
669.387	-3.85
669.418	6.15
669.45	6.15
669.481	8.15
669.513	4.15
669.544	15.15
669.576	3.15
669.607	12.15
669.639	8.15
669.67	3.15
669.701	10.15
669.733	-3.85
669.764	7.15
669.796	-2.85
669.827	3.15
669.859	9.15
669.89	18.15
669.922	17.15
669.953	18.15
669.985	9.15
670.016	4.15
670.047	6.15
670.079	8.15
670.11	25.15
670.142	12.15
670.173	6.15
670.204	-7.85
670.236	-3.85
670.267	-15.85
670.299	-20.85
670.33	0.15
670.362	3.15
670.393	-5.85
670.424	25.15
670.456	-14.85
670.487	3.15
670.518	-2.85
670.55	-4.85
670.581	3.15
670.613	6.15
670.644	-15.85
670.675	-8.85
670.707	-0.85
670.738	6.15
670.769	8.15
670.801	-7.85
670.832	-1.85
670.864	-11.85
670.895	10.15
670.926	-1.85
670.958	-2.85
670.989	-10.85
671.02	-0.85
671.052	10.15
671.083	9.15
671.114	5.15
671.146	7.15
671.177	6.15
671.208	1.15
671.24	-6.85
671.271	9.15
671.302	10.15
671.333	1.15
671.365	6.15
671.396	4.15
671.427	18.15
671.459	15.15
671.49	-5.85
671.521	12.15
671.553	8.15
671.584	14.15
671.615	-16.85
671.646	20.15
671.678	-6.85
671.709	-8.85
671.74	-18.85
671.771	0.15
671.803	12.15
671.834	11.15
671.865	-0.85
671.896	13.15
671.928	1.15
671.959	-7.85
671.99	-5.85
672.021	-14.85
672.053	-12.85
672.084	19.15
672.115	2.15
672.146	3.15
672.178	-9.85
672.209	6.15
672.24	10.15
672.271	16.15
672.303	-8.85
672.334	-8.85
672.365	1.15
672.396	-2.85
672.427	-0.85
672.459	5.15
672.49	9.15
672.521	11.15
672.552	22.15
672.583	18.15
672.615	0.15
672.646	2.15
672.677	-13.85
672.708	0.15
672.739	-0.85
672.77	3.15
672.802	4.15
672.833	9.15
672.864	2.15
672.895	5.15
672.926	8.15
672.957	-2.85
672.989	1.15
673.02	7.15
673.051	9.15
673.082	32.15
673.113	11.15
673.144	0.15
673.175	7.15
673.206	1.15
673.238	-16.85
673.269	-2.85
673.3	-12.85
673.331	16.15
673.362	11.15
673.393	16.15
673.424	12.15
673.455	4.15
673.487	11.15
673.518	15.15
673.549	-2.85
673.58	4.15
673.611	8.15
673.642	9.15
673.673	-22.85
673.704	2.15
673.735	11.15
673.766	-2.85
673.797	1.15
673.828	9.15
673.86	-5.85
673.891	-1.85
673.922	-14.85
673.953	-14.85
673.984	-8.85
674.015	5.15
674.046	8.15
674.077	-10.85
674.108	-7.85
674.139	0.15
674.17	14.15
674.201	-7.85
674.232	-8.85
674.263	-13.85
674.294	3.15
674.325	-9.85
674.356	5.15
674.387	10.15
674.418	8.15
674.449	-12.85
674.48	-5.85
674.511	-5.85
674.542	5.15
674.573	-6.85
674.604	16.15
674.635	15.15
674.666	18.15
674.697	-0.85
674.728	11.15
674.759	22.15
674.79	0.15
674.821	-9.85
674.852	-13.85
674.883	2.15
674.914	-1.85
674.945	-3.85
674.976	-0.85
675.007	15.15
675.038	-14.85
675.069	-1.85
675.1	-2.85
675.131	6.15
675.162	-5.85
675.193	8.15
675.224	-24.85
675.254	4.15
675.285	3.15
675.316	8.15
675.347	13.15
675.378	3.15
675.409	-7.85
675.44	-6.85
675.471	22.15
675.502	1.15
675.533	-1.85
675.564	9.15
675.595	19.15
675.625	21.15
675.656	7.15
675.687	2.15
675.718	-13.85
675.749	7.15
675.78	0.15
675.811	-1.85
675.842	1.15
675.873	1.15
675.903	3.15
675.934	12.15
675.965	-3.85
675.996	-19.85
676.027	-0.85
676.058	-10.85
676.089	-15.85
676.119	-11.85
676.15	-20.85
676.181	1.15
676.212	11.15
676.243	-5.85
676.274	6.15
676.304	10.15
676.335	-7.85
676.366	-0.85
676.397	-1.85
676.428	3.15
676.459	-1.85
676.489	5.15
676.52	11.15
676.551	13.15
676.582	-6.85
676.613	5.15
676.643	-8.85
676.674	5.15
676.705	-4.85
676.736	-0.85
676.767	5.15
676.797	21.15
676.828	6.15
676.859	-0.85
676.89	0.15
676.92	-5.85
676.951	13.15
676.982	1.15
677.013	6.15
677.044	6.15
677.074	-5.85
677.105	-5.85
677.136	0.15
677.167	0.15
677.197	10.15
677.228	-1.85
677.259	-2.85
677.289	-3.85
677.32	-10.85
677.351	-13.85
677.382	-1.85
677.412	-10.85
677.443	6.15
677.474	-6.85
677.505	-10.85
677.535	5.15
677.566	4.15
677.597	-19.85
677.627	-17.85
677.658	-7.85
677.689	-10.85
677.72	8.15
677.75	-0.85
677.781	1.15
677.812	7.15
677.842	13.15
677.873	7.15
677.904	9.15
677.934	-17.85
677.965	7.15
677.996	-1.85
678.026	7.15
678.057	7.15
678.088	-2.85
678.118	6.15
678.149	-9.85
678.18	-6.85
678.21	-2.85
678.241	6.15
678.272	7.15
678.302	-6.85
678.333	4.15
678.363	12.15
678.394	10.15
678.425	-1.85
678.455	12.15
678.486	15.15
678.517	-4.85
678.547	-1.85
678.578	-1.85
678.608	-16.85
678.639	-4.85
678.67	14.15
678.7	0.15
678.731	11.15
678.761	6.15
678.792	6.15
678.823	9.15
678.853	6.15
678.884	-20.85
678.914	7.15
678.945	10.15
678.975	-9.85
679.006	6.15
679.037	12.15
679.067	20.15
679.098	-6.85
679.128	-5.85
679.159	-7.85
679.189	19.15
679.22	-7.85
679.25	1.15
679.281	5.15
679.312	-11.85
679.342	-2.85
679.373	32.15
679.403	0.15
679.434	10.15
679.464	-7.85
679.495	2.15
679.525	-6.85
679.556	-0.85
679.586	3.15
679.617	26.15
679.647	-7.85
679.678	9.15
679.708	10.15
679.739	5.15
679.769	17.15
679.8	10.15
679.83	15.15
679.861	10.15
679.891	-10.85
679.922	-7.85
679.952	23.15
679.983	20.15
680.013	-3.85
680.044	-9.85
680.074	6.15
680.105	26.15
680.135	14.15
680.165	13.15
680.196	9.15
680.226	18.15
680.257	30.15
680.287	-4.85
680.318	5.15
680.348	-10.85
680.379	17.15
680.409	8.15
680.439	-24.85
680.47	-5.85
680.5	-9.85
680.531	-9.85
680.561	5.15
680.592	-0.85
680.622	12.15
680.652	-2.85
680.683	-0.85
680.713	-1.85
680.744	-2.85
680.774	-4.85
680.804	12.15
680.835	14.15
680.865	-8.85
680.896	17.15
680.926	27.15
680.956	2.15
680.987	3.15
681.017	0.15
681.047	12.15
681.078	-6.85
681.108	10.15
681.139	9.15
681.169	6.15
681.199	13.15
681.23	15.15
681.26	-8.85
681.29	3.15
681.321	-14.85
681.351	6.15
681.381	-19.85
681.412	5.15
681.442	6.15
681.472	10.15
681.503	0.15
681.533	1.15
681.563	-15.85
681.594	-12.85
681.624	2.15
681.654	-6.85
681.685	-9.85
681.715	-3.85
681.745	-3.85
681.775	-3.85
681.806	12.15
681.836	-2.85
681.866	-15.85
681.897	14.15
681.927	11.15
681.957	-11.85
681.987	8.15
682.018	6.15
682.048	6.15
682.078	5.15
682.109	24.15
682.139	16.15
682.169	4.15
682.199	-0.85
682.23	10.15
682.26	10.15
682.29	9.15
682.32	13.15
682.351	-0.85
682.381	8.15
682.411	-9.85
682.441	1.15
682.472	-9.85
682.502	-14.85
682.532	-1.85
682.562	-3.85
682.592	8.15
682.623	7.15
682.653	-0.85
682.683	-8.85
682.713	-3.85
682.743	8.15
682.774	-2.85
682.804	8.15
682.834	23.15
682.864	9.15
682.894	6.15
682.925	5.15
682.955	20.15
682.985	7.15
683.015	15.15
683.045	16.15
683.076	0.15
683.106	3.15
683.136	9.15
683.166	9.15
683.196	-8.85
683.226	-2.85
683.257	-2.85
683.287	13.15
683.317	5.15
683.347	9.15
683.377	1.15
683.407	5.15
683.437	3.15
683.468	11.15
683.498	5.15
683.528	5.15
683.558	8.15
683.588	-2.85
683.618	-0.85
683.648	7.15
683.678	8.15
683.708	9.15
683.739	-6.85
683.769	11.15
683.799	-2.85
683.829	1.15
683.859	10.15
683.889	9.15
683.919	0.15
683.949	-6.85
683.979	5.15
684.009	9.15
684.039	1.15
684.07	-7.85
684.1	23.15
684.13	-3.85
684.16	-7.85
684.19	-0.85
684.22	18.15
684.25	12.15
684.28	4.15
684.31	17.15
684.34	9.15
684.37	9.15
684.4	17.15
684.43	23.15
684.46	12.15
684.49	1.15
684.52	13.15
684.55	10.15
684.58	19.15
684.61	6.15
684.64	24.15
684.67	18.15
684.7	-1.85
684.73	7.15
684.76	13.15
684.79	31.15
684.82	19.15
684.85	-11.85
684.88	9.15
684.91	-3.85
684.94	-1.85
684.97	-2.85
685	9.15
685.03	3.15
685.06	3.15
685.09	0.15
685.12	16.15
685.15	-2.85
685.18	17.15
685.21	3.15
685.24	11.15
685.27	16.15
685.3	-11.85
685.33	6.15
685.36	3.15
685.39	10.15
685.42	-4.85
685.45	2.15
685.48	-2.85
685.51	1.15
685.54	15.15
685.569	23.15
685.599	13.15
685.629	26.15
685.659	-8.85
685.689	3.15
685.719	-0.85
685.749	6.15
685.779	9.15
685.809	5.15
685.839	11.15
685.869	13.15
685.898	-0.85
685.928	11.15
685.958	5.15
685.988	1.15
686.018	3.15
686.048	-4.85
686.078	17.15
686.108	16.15
686.137	3.15
686.167	8.15
686.197	-12.85
686.227	16.15
686.257	28.15
686.287	25.15
686.317	5.15
686.346	-2.85
686.376	-7.85
686.406	-12.85
686.436	15.15
686.466	-2.85
686.496	13.15
686.525	12.15
686.555	-12.85
686.585	17.15
686.615	18.15
686.645	12.15
686.675	5.15
686.704	8.15
686.734	17.15
686.764	5.15
686.794	15.15
686.824	-10.85
686.853	0.15
686.883	-12.85
686.913	-1.85
686.943	-10.85
686.973	-5.85
687.002	-3.85
687.032	11.15
687.062	12.15
687.092	19.15
687.121	4.15
687.151	15.15
687.181	2.15
687.211	10.15
687.24	-4.85
687.27	4.15
687.3	3.15
687.33	8.15
687.359	-6.85
687.389	-2.85
687.419	10.15
687.449	16.15
687.478	5.15
687.508	13.15
687.538	28.15
687.568	18.15
687.597	-1.85
687.627	6.15
687.657	3.15
687.686	11.15
687.716	5.15
687.746	2.15
687.776	-3.85
687.805	8.15
687.835	-17.85
687.865	18.15
687.894	-6.85
687.924	-0.85
687.954	9.15
687.983	19.15
688.013	-6.85
688.043	5.15
688.072	4.15
688.102	10.15
688.132	-6.85
688.161	1.15
688.191	-8.85
688.221	26.15
688.25	-5.85
688.28	-5.85
688.31	-0.85
688.339	14.15
688.369	-5.85
688.399	2.15
688.428	-4.85
688.458	-13.85
688.488	-7.85
688.517	6.15
688.547	9.15
688.576	28.15
688.606	16.15
688.636	-9.85
688.665	19.15
688.695	15.15
688.725	16.15
688.754	9.15
688.784	4.15
688.813	14.15
688.843	-5.85
688.873	11.15
688.902	8.15
688.932	-1.85
688.961	9.15
688.991	22.15
689.02	9.15
689.05	1.15
689.08	25.15
689.109	26.15
689.139	3.15
689.168	9.15
689.198	6.15
689.227	2.15
689.257	10.15
689.287	24.15
689.316	0.15
689.346	-6.85
689.375	-17.85
689.405	3.15
689.434	9.15
689.464	2.15
689.493	-3.85
689.523	-2.85
689.552	5.15
689.582	5.15
689.611	3.15
689.641	16.15
689.67	-3.85
689.7	3.15
689.73	7.15
689.759	-8.85
689.789	15.15
689.818	7.15
689.848	-7.85
689.877	21.15
689.906	-6.85
689.936	-10.85
689.965	2.15
689.995	-3.85
690.024	4.15
690.054	14.15
690.083	7.15
690.113	2.15
690.142	5.15
690.172	11.15
690.201	6.15
690.231	-0.85
690.26	18.15
690.29	7.15
690.319	1.15
690.348	-4.85
690.378	30.15
690.407	7.15
690.437	7.15
690.466	10.15
690.496	1.15
690.525	26.15
690.555	-8.85
690.584	3.15
690.613	1.15
690.643	3.15
690.672	8.15
690.702	-8.85
690.731	-2.85
690.76	7.15
690.79	1.15
690.819	-4.85
690.849	3.15
690.878	-1.85
690.907	-3.85
690.937	7.15
690.966	13.15
690.996	10.15
691.025	7.15
691.054	-0.85
691.084	8.15
691.113	2.15
691.142	14.15
691.172	22.15
691.201	31.15
691.23	13.15
691.26	10.15
691.289	26.15
691.319	4.15
691.348	4.15
691.377	21.15
691.407	17.15
691.436	7.15
691.465	-2.85
691.495	3.15
691.524	-5.85
691.553	5.15
691.583	15.15
691.612	17.15
691.641	16.15
691.67	-0.85
691.7	14.15
691.729	-5.85
691.758	13.15
691.788	6.15
691.817	-13.85
691.846	-5.85
691.876	8.15
691.905	14.15
691.934	7.15
691.963	7.15
691.993	-0.85
692.022	-2.85
692.051	-2.85
692.081	13.15
692.11	0.15
692.139	14.15
692.168	5.15
692.198	23.15
692.227	14.15
692.256	6.15
692.285	10.15
692.315	1.15
692.344	29.15
692.373	12.15
692.402	-6.85
692.432	0.15
692.461	4.15
692.49	9.15
692.519	-9.85
692.548	21.15
692.578	11.15
692.607	-7.85
692.636	-9.85
692.665	10.15
692.694	3.15
692.724	5.15
692.753	18.15
692.782	33.15
692.811	2.15
692.84	12.15
692.87	11.15
692.899	-0.85
692.928	-5.85
692.957	23.15
692.986	6.15
693.016	9.15
693.045	18.15
693.074	22.15
693.103	12.15
693.132	6.15
693.161	18.15
693.191	13.15
693.22	-4.85
693.249	0.15
693.278	-3.85
693.307	7.15
693.336	-13.85
693.365	3.15
693.395	-9.85
693.424	9.15
693.453	29.15
693.482	-2.85
693.511	27.15
693.54	2.15
693.569	7.15
693.598	9.15
693.628	28.15
693.657	18.15
693.686	19.15
693.715	11.15
693.744	16.15
693.773	8.15
693.802	15.15
693.831	-8.85
693.86	17.15
693.889	-4.85
693.919	13.15
693.948	12.15
693.977	-0.85
694.006	-1.85
694.035	-4.85
694.064	-9.85
694.093	2.15
694.122	9.15
694.151	10.15
694.18	13.15
694.209	25.15
694.238	5.15
694.267	31.15
694.296	6.15
694.325	-0.85
694.354	4.15
694.383	6.15
694.412	3.15
694.441	-2.85
694.471	-9.85
694.5	-11.85
694.529	6.15
694.558	26.15
694.587	13.15
694.616	0.15
694.645	16.15
694.674	19.15
694.703	9.15
694.732	9.15
694.761	18.15
694.79	-0.85
694.819	5.15
694.848	10.15
694.877	23.15
694.906	19.15
694.935	3.15
694.963	14.15
694.992	4.15
695.021	22.15
695.05	8.15
695.079	23.15
695.108	14.15
695.137	13.15
695.166	5.15
695.195	-4.85
695.224	13.15
695.253	10.15
695.282	6.15
695.311	16.15
695.34	6.15
695.369	2.15
695.398	5.15
695.427	17.15
695.456	7.15
695.485	28.15
695.513	7.15
695.542	9.15
695.571	14.15
695.6	16.15
695.629	3.15
695.658	12.15
695.687	31.15
695.716	-0.85
695.745	19.15
695.774	-2.85
695.802	-3.85
695.831	3.15
695.86	12.15
695.889	17.15
695.918	20.15
695.947	-4.85
695.976	6.15
696.005	14.15
696.033	3.15
696.062	14.15
696.091	5.15
696.12	6.15
696.149	28.15
696.178	10.15
696.207	-1.85
696.235	-4.85
696.264	13.15
696.293	18.15
696.322	18.15
696.351	14.15
696.38	-4.85
696.408	-2.85
696.437	-1.85
696.466	4.15
696.495	16.15
696.524	19.15
696.553	10.15
696.581	22.15
696.61	-1.85
696.639	10.15
696.668	9.15
696.697	10.15
696.725	8.15
696.754	3.15
696.783	-15.85
696.812	-3.85
696.84	4.15
696.869	7.15
696.898	19.15
696.927	11.15
696.956	14.15
696.984	6.15
697.013	-2.85
697.042	8.15
697.071	7.15
697.099	27.15
697.128	21.15
697.157	16.15
697.186	4.15
697.214	-8.85
697.243	6.15
697.272	7.15
697.301	13.15
697.329	17.15
697.358	17.15
697.387	22.15
697.415	12.15
697.444	2.15
697.473	0.15
697.502	-4.85
697.53	3.15
697.559	5.15
697.588	22.15
697.616	-0.85
697.645	5.15
697.674	20.15
697.703	0.15
697.731	21.15
697.76	15.15
697.789	-4.85
697.817	22.15
697.846	6.15
697.875	2.15
697.903	31.15
697.932	26.15
697.961	7.15
697.989	14.15
698.018	19.15
698.047	21.15
698.075	13.15
698.104	14.15
698.133	-5.85
698.161	1.15
698.19	2.15
698.218	-13.85
698.247	11.15
698.276	10.15
698.304	10.15
698.333	0.15
698.362	-1.85
698.39	11.15
698.419	9.15
698.447	0.15
698.476	-6.85
698.505	18.15
698.533	22.15
698.562	5.15
698.591	-2.85
698.619	-3.85
698.648	5.15
698.676	4.15
698.705	0.15
698.733	3.15
698.762	19.15
698.791	7.15
698.819	3.15
698.848	6.15
698.876	13.15
698.905	12.15
698.933	1.15
698.962	0.15
698.991	-4.85
699.019	14.15
699.048	-1.85
699.076	15.15
699.105	0.15
699.133	1.15
699.162	16.15
699.19	14.15
699.219	15.15
699.248	-3.85
699.276	-1.85
699.305	4.15
699.333	12.15
699.362	5.15
699.39	20.15
699.419	6.15
699.447	22.15
699.476	15.15
699.504	-8.85
699.533	7.15
699.561	-5.85
699.59	4.15
699.618	3.15
699.647	8.15
699.675	6.15
699.704	3.15
699.732	-8.85
699.761	-4.85
699.789	-2.85
699.818	19.15
699.846	13.15
699.874	8.15
699.903	-0.85
699.931	1.15
699.96	29.15
699.988	10.15
700.017	0.15
700.045	-7.85
700.074	-3.85
700.102	5.15
700.13	12.15
700.159	13.15
700.187	8.15
700.216	-10.85
700.244	-4.85
700.273	3.15
700.301	6.15
700.329	27.15
700.358	25.15
700.386	1.15
700.415	2.15
700.443	-4.85
700.472	-8.85
700.5	9.15
700.528	3.15
700.557	7.15
700.585	-11.85
700.614	5.15
700.642	16.15
700.67	23.15
700.699	21.15
700.727	8.15
700.755	-4.85
700.784	1.15
700.812	5.15
700.841	7.15
700.869	2.15
700.897	-13.85
700.926	-7.85
700.954	-1.85
700.982	5.15
701.011	3.15
701.039	18.15
701.067	0.15
701.096	23.15
701.124	-0.85
701.152	1.15
701.181	-8.85
701.209	-1.85
701.237	-3.85
701.266	-9.85
701.294	-7.85
701.322	11.15
701.351	4.15
701.379	-6.85
701.407	-15.85
701.435	10.15
701.464	24.15
701.492	19.15
701.52	-2.85
701.549	6.15
701.577	-14.85
701.605	-8.85
701.634	2.15
701.662	17.15
701.69	2.15
701.718	5.15
701.747	29.15
701.775	-5.85
701.803	-13.85
701.831	8.15
701.86	-5.85
701.888	6.15
701.916	5.15
701.944	3.15
701.973	-15.85
702.001	-18.85
702.029	-4.85
702.057	0.15
702.086	10.15
702.114	-8.85
702.142	-4.85
702.17	-5.85
702.199	14.15
702.227	13.15
702.255	16.15
702.283	9.15
702.311	15.15
702.34	-9.85
702.368	-1.85
702.396	2.15
702.424	5.15
702.452	0.15
702.481	-6.85
702.509	-5.85
702.537	25.15
702.565	11.15
702.593	-18.85
702.621	13.15
702.65	17.15
702.678	5.15
702.706	20.15
702.734	8.15
702.762	6.15
702.79	0.15
702.819	-0.85
702.847	11.15
702.875	14.15
702.903	21.15
702.931	-2.85
702.959	0.15
702.988	9.15
703.016	-4.85
703.044	6.15
703.072	-12.85
703.1	-9.85
703.128	3.15
703.156	8.15
703.184	-3.85
703.212	-1.85
703.241	6.15
703.269	3.15
703.297	3.15
703.325	13.15
703.353	-2.85
703.381	-8.85
703.409	-2.85
703.437	-8.85
703.465	-3.85
703.493	-13.85
703.522	-8.85
703.55	9.15
703.578	10.15
703.606	-6.85
703.634	0.15
703.662	1.15
703.69	4.15
703.718	7.15
703.746	19.15
703.774	1.15
703.802	22.15
703.83	7.15
703.858	6.15
703.886	0.15
703.914	-6.85
703.942	12.15
703.97	-2.85
703.998	-8.85
704.027	23.15
704.055	8.15
704.083	0.15
704.111	-9.85
704.139	-0.85
704.167	19.15
704.195	2.15
704.223	-8.85
704.251	-4.85
704.279	8.15
704.307	3.15
704.335	-15.85
704.363	8.15
704.391	-5.85
704.419	-10.85
704.447	-16.85
704.475	-7.85
704.503	2.15
704.531	11.15
704.558	5.15
704.586	11.15
704.614	-2.85
704.642	11.15
704.67	-1.85
704.698	3.15
704.726	-0.85
704.754	-6.85
704.782	-1.85
704.81	-5.85
704.838	7.15
704.866	17.15
704.894	-8.85
704.922	-2.85
704.95	4.15
704.978	9.15
705.006	14.15
705.034	31.15
705.061	-0.85
705.089	-4.85
705.117	0.15
705.145	5.15
705.173	-0.85
705.201	13.15
705.229	11.15
705.257	8.15
705.285	3.15
705.313	10.15
705.34	0.15
705.368	-1.85
705.396	7.15
705.424	10.15
705.452	-0.85
705.48	-2.85
705.508	-9.85
705.536	1.15
705.563	-5.85
705.591	17.15
705.619	8.15
705.647	-3.85
705.675	-4.85
705.703	-4.85
705.731	-5.85
705.758	-2.85
705.786	4.15
705.814	18.15
705.842	7.15
705.87	13.15
705.898	6.15
705.925	-4.85
705.953	-1.85
705.981	1.15
706.009	11.15
706.037	6.15
706.065	9.15
706.092	-10.85
706.12	5.15
706.148	0.15
706.176	7.15
706.204	12.15
706.231	0.15
706.259	4.15
706.287	4.15
706.315	14.15
706.342	11.15
706.37	23.15
706.398	3.15
706.426	8.15
706.454	15.15
706.481	13.15
706.509	6.15
706.537	2.15
706.565	-5.85
706.592	18.15
706.62	8.15
706.648	6.15
706.676	-0.85
706.703	6.15
706.731	-2.85
706.759	-6.85
706.787	-0.85
706.814	7.15
706.842	-9.85
706.87	-0.85
706.897	0.15
706.925	-4.85
706.953	3.15
706.981	22.15
707.008	14.15
707.036	6.15
707.064	3.15
707.091	-24.85
707.119	10.15
707.147	10.15
707.174	0.15
707.202	2.15
707.23	-5.85
707.258	11.15
707.285	-23.85
707.313	10.15
707.341	1.15
707.368	-0.85
707.396	14.15
707.424	20.15
707.451	17.15
707.479	14.15
707.507	-1.85
707.534	-16.85
707.562	2.15
707.59	-7.85
707.617	-10.85
707.645	13.15
707.672	5.15
707.7	0.15
707.728	16.15
707.755	-1.85
707.783	7.15
707.811	4.15
707.838	7.15
707.866	5.15
707.893	6.15
707.921	9.15
707.949	-8.85
707.976	1.15
708.004	-5.85
708.031	16.15
708.059	13.15
708.087	9.15
708.114	-1.85
708.142	-6.85
708.169	-3.85
708.197	3.15
708.225	8.15
708.252	-9.85
708.28	15.15
708.307	10.15
708.335	7.15
708.362	0.15
708.39	-8.85
708.418	0.15
708.445	-1.85
708.473	-1.85
708.5	1.15
708.528	26.15
708.555	7.15
708.583	9.15
708.61	-10.85
708.638	10.15
708.665	-9.85
708.693	3.15
708.72	-6.85
708.748	-9.85
708.776	-8.85
708.803	10.15
708.831	-0.85
708.858	7.15
708.886	-2.85
708.913	-2.85
708.941	-10.85
708.968	16.15
708.996	-0.85
709.023	23.15
709.051	-8.85
709.078	-0.85
709.105	-7.85
709.133	6.15
709.16	-2.85
709.188	14.15
709.215	6.15
709.243	12.15
709.27	-5.85
709.298	1.15
709.325	-9.85
709.353	-6.85
709.38	4.15
709.408	2.15
709.435	5.15
709.462	6.15
709.49	7.15
709.517	-3.85
709.545	-7.85
709.572	9.15
709.6	1.15
709.627	12.15
709.655	5.15
709.682	0.15
709.709	5.15
709.737	0.15
709.764	-21.85
709.792	6.15
709.819	7.15
709.846	-3.85
709.874	9.15
709.901	21.15
709.929	37.15
709.956	1.15
709.983	4.15
710.011	-8.85
710.038	-0.85
710.066	-2.85
710.093	0.15
710.12	5.15
710.148	-7.85
710.175	-16.85
710.202	-8.85
710.23	10.15
710.257	15.15
710.284	5.15
710.312	-8.85
710.339	-8.85
710.366	-4.85
710.394	5.15
710.421	2.15
710.448	2.15
710.476	-18.85
710.503	8.15
710.53	13.15
710.558	16.15
710.585	15.15
710.612	-7.85
710.64	-12.85
710.667	-5.85
710.694	-7.85
710.722	-2.85
710.749	2.15
710.776	8.15
710.804	25.15
710.831	2.15
710.858	-3.85
710.885	-4.85
710.913	0.15
710.94	4.15
710.967	-5.85
710.995	20.15
711.022	-2.85
711.049	-4.85
711.076	-13.85
711.104	10.15
711.131	-9.85
711.158	2.15
711.185	0.15
711.213	7.15
711.24	7.15
711.267	-15.85
711.294	-0.85
711.322	8.15
711.349	6.15
711.376	-1.85
711.403	7.15
711.431	3.15
711.458	-10.85
711.485	-4.85
711.512	29.15
711.54	2.15
711.567	8.15
711.594	-6.85
711.621	-10.85
711.648	5.15
711.676	-0.85
711.703	-5.85
711.73	-2.85
711.757	1.15
711.784	-1.85
711.812	9.15
711.839	14.15
711.866	1.15
711.893	-5.85
711.92	-7.85
711.947	3.15
711.975	14.15
712.002	2.15
712.029	28.15
712.056	11.15
712.083	12.15
712.11	-14.85
712.138	8.15
712.165	13.15
712.192	6.15
712.219	-16.85
712.246	-4.85
712.273	-0.85
712.3	-8.85
712.328	-4.85
712.355	6.15
712.382	0.15
712.409	10.15
712.436	-7.85
712.463	-0.85
712.49	8.15
712.517	-3.85
712.544	11.15
712.572	10.15
712.599	-1.85
712.626	7.15
712.653	-10.85
712.68	-7.85
712.707	-1.85
712.734	13.15
712.761	3.15
712.788	0.15
712.815	-12.85
712.842	12.15
712.87	-7.85
712.897	-15.85
712.924	-5.85
712.951	0.15
712.978	19.15
713.005	24.15
713.032	6.15
713.059	0.15
713.086	8.15
713.113	-17.85
713.14	-3.85
713.167	-3.85
713.194	0.15
713.221	2.15
713.248	16.15
713.275	-5.85
713.302	9.15
713.329	5.15
713.356	4.15
713.383	10.15
713.41	2.15
713.437	-2.85
713.464	0.15
713.491	11.15
713.518	9.15
713.545	2.15
713.572	7.15
713.599	26.15
713.626	3.15
713.653	24.15
713.68	2.15
713.707	1.15
713.734	9.15
713.761	10.15
713.788	4.15
713.815	6.15
713.842	6.15
713.869	11.15
713.896	12.15
713.923	-1.85
713.95	12.15
713.977	3.15
714.004	0.15
714.031	-5.85
714.058	-3.85
714.085	-12.85
714.112	2.15
714.139	-9.85
714.165	3.15
714.192	5.15
714.219	14.15
714.246	2.15
714.273	2.15
714.3	4.15
714.327	3.15
714.354	13.15
714.381	10.15
714.408	2.15
714.435	2.15
714.461	17.15
714.488	6.15
714.515	5.15
714.542	8.15
714.569	-2.85
714.596	-13.85
714.623	-2.85
714.65	0.15
714.677	-6.85
714.703	0.15
714.73	8.15
714.757	9.15
714.784	18.15
714.811	9.15
714.838	6.15
714.865	-9.85
714.891	6.15
714.918	3.15
714.945	-6.85
714.972	-14.85
714.999	15.15
715.026	-13.85
715.052	4.15
715.079	-9.85
715.106	4.15
715.133	7.15
715.16	2.15
715.187	10.15
715.213	5.15
715.24	-0.85
715.267	-6.85
715.294	3.15
715.321	9.15
715.347	-9.85
715.374	6.15
715.401	1.15
715.428	10.15
715.455	3.15
715.481	11.15
715.508	12.15
715.535	20.15
715.562	28.15
715.588	3.15
715.615	7.15
715.642	-3.85
715.669	5.15
715.695	-12.85
715.722	-0.85
715.749	23.15
715.776	25.15
715.802	1.15
715.829	13.15
715.856	1.15
715.883	2.15
715.909	-6.85
715.936	1.15
715.963	11.15
715.99	6.15
716.016	6.15
716.043	-7.85
716.07	-6.85
716.096	-15.85
716.123	11.15
716.15	5.15
716.177	7.15
716.203	7.15
716.23	-2.85
716.257	-0.85
716.283	21.15
716.31	-1.85
716.337	5.15
716.363	-0.85
716.39	9.15
716.417	7.15
716.443	0.15
716.47	9.15
716.497	27.15
716.523	17.15
716.55	2.15
716.577	12.15
716.603	1.15
716.63	-1.85
716.657	22.15
716.683	-4.85
716.71	9.15
716.737	-0.85
716.763	16.15
716.79	15.15
716.817	1.15
716.843	-7.85
716.87	-4.85
716.897	5.15
716.923	25.15
716.95	5.15
716.976	-7.85
717.003	-0.85
717.03	6.15
717.056	1.15
717.083	-3.85
717.109	2.15
717.136	20.15
717.163	-0.85
717.189	5.15
717.216	-3.85
717.242	6.15
717.269	-0.85
717.296	1.15
717.322	3.15
717.349	15.15
717.375	14.15
717.402	8.15
717.428	12.15
717.455	16.15
717.481	-5.85
717.508	7.15
717.535	11.15
717.561	6.15
717.588	-8.85
717.614	2.15
717.641	-0.85
717.667	-2.85
717.694	1.15
717.72	7.15
717.747	6.15
717.773	-13.85
717.8	20.15
717.826	5.15
717.853	6.15
717.88	16.15
717.906	2.15
717.933	2.15
717.959	9.15
717.986	10.15
718.012	-4.85
718.039	8.15
718.065	12.15
718.092	0.15
718.118	3.15
718.144	-6.85
718.171	11.15
718.197	16.15
718.224	-2.85
718.25	4.15
718.277	8.15
718.303	6.15
718.33	10.15
718.356	-0.85
718.383	-8.85
718.409	-2.85
718.436	17.15
718.462	6.15
718.489	-3.85
718.515	9.15
718.541	28.15
718.568	16.15
718.594	7.15
718.621	13.15
718.647	-9.85
718.674	7.15
718.7	12.15
718.726	5.15
718.753	2.15
718.779	22.15
718.806	3.15
718.832	5.15
718.858	16.15
718.885	4.15
718.911	9.15
718.938	14.15
718.964	-8.85
718.99	10.15
719.017	13.15
719.043	3.15
719.07	11.15
719.096	-9.85
719.122	9.15
719.149	0.15
719.175	4.15
719.201	1.15
719.228	1.15
719.254	8.15
719.281	8.15
719.307	6.15
719.333	2.15
719.36	19.15
719.386	14.15
719.412	9.15
719.439	-2.85
719.465	6.15
719.491	-4.85
719.518	17.15
719.544	5.15
719.57	2.15
719.597	-1.85
719.623	-4.85
719.649	16.15
719.675	5.15
719.702	15.15
719.728	25.15
719.754	11.15
719.781	-3.85
719.807	-20.85
719.833	-2.85
719.86	18.15
719.886	-5.85
719.912	7.15
719.938	-2.85
719.965	18.15
719.991	25.15
720.017	19.15
720.044	5.15
720.07	8.15
720.096	7.15
720.122	14.15
720.149	3.15
720.175	24.15
720.201	9.15
720.227	-0.85
720.254	0.15
720.28	5.15
720.306	0.15
720.332	-1.85
720.359	-2.85
720.385	13.15
720.411	15.15
720.437	3.15
720.463	6.15
720.49	22.15
720.516	3.15
720.542	2.15
720.568	8.15
720.595	20.15
720.621	0.15
720.647	3.15
720.673	12.15
720.699	0.15
720.725	15.15
720.752	16.15
720.778	6.15
720.804	2.15
720.83	15.15
720.856	24.15
720.883	-4.85
720.909	1.15
720.935	12.15
720.961	10.15
720.987	5.15
721.013	2.15
721.04	10.15
721.066	-0.85
721.092	-4.85
721.118	8.15
721.144	6.15
721.17	-4.85
721.196	-5.85
721.223	-13.85
721.249	-2.85
721.275	29.15
721.301	23.15
721.327	16.15
721.353	7.15
721.379	-7.85
721.405	14.15
721.432	19.15
721.458	-9.85
721.484	3.15
721.51	0.15
721.536	5.15
721.562	8.15
721.588	-1.85
721.614	-14.85
721.64	-13.85
721.666	9.15
721.693	3.15
721.719	3.15
721.745	8.15
721.771	-4.85
721.797	-0.85
721.823	-0.85
721.849	10.15
721.875	7.15
721.901	14.15
721.927	2.15
721.953	11.15
721.979	15.15
722.005	14.15
722.031	-14.85
722.057	-2.85
722.083	4.15
722.109	5.15
722.135	-2.85
722.161	15.15
722.187	18.15
722.214	2.15
722.24	-2.85
722.266	-10.85
722.292	5.15
722.318	15.15
722.344	2.15
722.37	3.15
722.396	7.15
722.422	14.15
722.448	20.15
722.474	-6.85
722.5	10.15
722.526	19.15
722.552	-8.85
722.578	1.15
722.603	11.15
722.629	-3.85
722.655	-7.85
722.681	8.15
722.707	0.15
722.733	13.15
722.759	4.15
722.785	8.15
722.811	13.15
722.837	13.15
722.863	18.15
722.889	10.15
722.915	14.15
722.941	-4.85
722.967	-6.85
722.993	6.15
723.019	11.15
723.045	5.15
723.071	16.15
723.097	6.15
723.122	1.15
723.148	6.15
723.174	2.15
723.2	-0.85
723.226	3.15
723.252	6.15
723.278	-0.85
723.304	-14.85
723.33	-0.85
723.356	-2.85
723.381	-10.85
723.407	-10.85
723.433	19.15
723.459	-2.85
723.485	-1.85
723.511	8.15
723.537	3.15
723.563	8.15
723.588	15.15
723.614	14.15
723.64	2.15
723.666	6.15
723.692	13.15
723.718	7.15
723.744	9.15
723.769	-9.85
723.795	-8.85
723.821	6.15
723.847	9.15
723.873	22.15
723.899	17.15
723.924	1.15
723.95	-3.85
723.976	-0.85
724.002	9.15
724.028	16.15
724.053	5.15
724.079	-0.85
724.105	14.15
724.131	-1.85
724.157	-17.85
724.182	17.15
724.208	-0.85
724.234	18.15
724.26	0.15
724.286	-5.85
724.311	-1.85
724.337	3.15
724.363	6.15
724.389	11.15
724.415	-3.85
724.44	13.15
724.466	7.15
724.492	6.15
724.518	1.15
724.543	-0.85
724.569	1.15
724.595	11.15
724.621	5.15
724.646	-8.85
724.672	9.15
724.698	6.15
724.723	3.15
724.749	13.15
724.775	18.15
724.801	11.15
724.826	-4.85
724.852	-3.85
724.878	-9.85
724.904	-18.85
724.929	-0.85
724.955	8.15
724.981	1.15
725.006	-1.85
725.032	15.15
725.058	9.15
725.083	-4.85
725.109	-4.85
725.135	12.15
725.161	10.15
725.186	10.15
725.212	1.15
725.238	14.15
725.263	6.15
725.289	-16.85
725.315	-1.85
725.34	6.15
725.366	15.15
725.392	0.15
725.417	18.15
725.443	1.15
725.468	8.15
725.494	18.15
725.52	9.15
725.545	17.15
725.571	3.15
725.597	-0.85
725.622	15.15
725.648	1.15
725.674	13.15
725.699	6.15
725.725	-0.85
725.75	26.15
725.776	-13.85
725.802	-0.85
725.827	4.15
725.853	-3.85
725.878	7.15
725.904	3.15
725.93	3.15
725.955	-0.85
725.981	-10.85
726.006	3.15
726.032	9.15
726.057	-2.85
726.083	3.15
726.109	7.15
726.134	13.15
726.16	5.15
726.185	5.15
726.211	-7.85
726.236	1.15
726.262	2.15
726.288	2.15
726.313	19.15
726.339	3.15
726.364	15.15
726.39	19.15
726.415	4.15
726.441	-10.85
726.466	-12.85
726.492	3.15
726.517	1.15
726.543	-6.85
726.568	-1.85
726.594	5.15
726.619	13.15
726.645	0.15
726.67	17.15
726.696	21.15
726.721	-7.85
726.747	-10.85
726.772	-4.85
726.798	0.15
726.823	-3.85
726.849	20.15
726.874	10.15
726.9	22.15
726.925	15.15
726.951	-2.85
726.976	13.15
727.002	-3.85
727.027	12.15
727.053	17.15
727.078	6.15
727.104	9.15
727.129	-16.85
727.155	1.15
727.18	6.15
727.205	10.15
727.231	4.15
727.256	-4.85
727.282	-0.85
727.307	17.15
727.333	19.15
727.358	11.15
727.383	-7.85
727.409	14.15
727.434	9.15
727.46	5.15
727.485	10.15
727.511	-1.85
727.536	-13.85
727.561	-0.85
727.587	-7.85
727.612	-11.85
727.637	-9.85
727.663	-13.85
727.688	20.15
727.714	-2.85
727.739	-7.85
727.764	-10.85
727.79	5.15
727.815	19.15
727.841	3.15
727.866	17.15
727.891	-1.85
727.917	-6.85
727.942	-0.85
727.967	-4.85
727.993	-14.85
728.018	6.15
728.043	11.15
728.069	10.15
728.094	1.15
728.119	7.15
728.145	9.15
728.17	3.15
728.195	9.15
728.221	11.15
728.246	-3.85
728.271	-20.85
728.297	-14.85
728.322	1.15
728.347	14.15
728.373	6.15
728.398	16.15
728.423	2.15
728.448	8.15
728.474	2.15
728.499	15.15
728.524	-0.85
728.55	-2.85
728.575	1.15
728.6	-1.85
728.625	6.15
728.651	3.15
728.676	-9.85
728.701	-2.85
728.727	1.15
728.752	-13.85
728.777	14.15
728.802	5.15
728.828	18.15
728.853	4.15
728.878	0.15
728.903	-3.85
728.929	-9.85
728.954	-12.85
728.979	-1.85
729.004	-14.85
729.03	0.15
729.055	17.15
729.08	-6.85
729.105	-1.85
729.13	9.15
729.156	12.15
729.181	9.15
729.206	-21.85
729.231	-16.85
729.256	-1.85
729.282	10.15
729.307	1.15
729.332	3.15
729.357	-6.85
729.382	-2.85
729.408	15.15
729.433	3.15
729.458	16.15
729.483	11.15
729.508	26.15
729.533	20.15
729.559	3.15
729.584	-4.85
729.609	6.15
729.634	18.15
729.659	14.15
729.684	-0.85
729.71	19.15
729.735	-0.85
729.76	6.15
729.785	2.15
729.81	18.15
729.835	5.15
729.86	-2.85
729.886	16.15
729.911	5.15
729.936	-13.85
729.961	7.15
729.986	-5.85
730.011	-0.85
730.036	-1.85
730.061	1.15
730.086	14.15
730.112	2.15
730.137	16.15
730.162	14.15
730.187	-9.85
730.212	8.15
730.237	-7.85
730.262	6.15
730.287	-0.85
730.312	5.15
730.337	6.15
730.362	18.15
730.387	0.15
730.413	-10.85
730.438	-2.85
730.463	13.15
730.488	1.15
730.513	0.15
730.538	2.15
730.563	6.15
730.588	6.15
730.613	16.15
730.638	3.15
730.663	-14.85
730.688	16.15
730.713	20.15
730.738	3.15
730.763	1.15
730.788	-8.85
730.813	8.15
730.838	8.15
730.863	-6.85
730.888	-11.85
730.913	1.15
730.938	-21.85
730.963	2.15
730.988	11.15
731.013	31.15
731.038	2.15
731.063	-5.85
731.088	13.15
731.113	14.15
731.138	10.15
731.163	-2.85
731.188	-1.85
731.213	8.15
731.238	16.15
731.263	1.15
731.288	-1.85
731.313	-10.85
731.338	3.15
731.363	-2.85
731.388	12.15
731.413	8.15
731.438	15.15
731.463	10.15
731.487	6.15
731.512	1.15
731.537	6.15
731.562	-0.85
731.587	-3.85
731.612	0.15
731.637	-9.85
731.662	13.15
731.687	9.15
731.712	-3.85
731.737	18.15
731.762	6.15
731.786	12.15
731.811	6.15
731.836	5.15
731.861	-4.85
731.886	0.15
731.911	9.15
731.936	4.15
731.961	14.15
731.986	-2.85
732.01	6.15
732.035	19.15
732.06	17.15
732.085	8.15
732.11	7.15
732.135	0.15
732.16	-9.85
732.184	2.15
732.209	3.15
732.234	9.15
732.259	4.15
732.284	15.15
732.309	-6.85
732.334	2.15
732.358	-1.85
732.383	-14.85
732.408	-1.85
732.433	7.15
732.458	-9.85
732.482	2.15
732.507	-6.85
732.532	10.15
732.557	13.15
732.582	18.15
732.607	0.15
732.631	-5.85
732.656	-2.85
732.681	-13.85
732.706	6.15
732.73	12.15
732.755	-7.85
732.78	5.15
732.805	2.15
732.83	0.15
732.854	2.15
732.879	10.15
732.904	2.15
732.929	-0.85
732.953	2.15
732.978	7.15
733.003	8.15
733.028	4.15
733.052	2.15
733.077	5.15
733.102	18.15
733.127	-1.85
733.151	-3.85
733.176	19.15
733.201	11.15
733.226	3.15
733.25	3.15
733.275	3.15
733.3	12.15
733.324	21.15
733.349	-0.85
733.374	11.15
733.399	-6.85
733.423	-0.85
733.448	9.15
733.473	12.15
733.497	3.15
733.522	-9.85
733.547	11.15
733.571	24.15
733.596	9.15
733.621	9.15
733.646	7.15
733.67	4.15
733.695	1.15
733.72	16.15
733.744	7.15
733.769	1.15
733.794	27.15
733.818	22.15
733.843	9.15
733.867	-6.85
733.892	8.15
733.917	1.15
733.941	0.15
733.966	-5.85
733.991	-1.85
734.015	10.15
734.04	8.15
734.065	15.15
734.089	20.15
734.114	0.15
734.138	7.15
734.163	-5.85
734.188	0.15
734.212	23.15
734.237	19.15
734.261	16.15
734.286	3.15
734.311	-1.85
734.335	6.15
734.36	4.15
734.384	8.15
734.409	19.15
734.434	5.15
734.458	16.15
734.483	5.15
734.507	-2.85
734.532	7.15
734.556	23.15
734.581	13.15
734.606	4.15
734.63	-7.85
734.655	17.15
734.679	-2.85
734.704	9.15
734.728	-0.85
734.753	-5.85
734.777	10.15
734.802	13.15
734.826	1.15
734.851	11.15
734.876	24.15
734.9	23.15
734.925	24.15
734.949	10.15
734.974	-0.85
734.998	30.15
735.023	-6.85
735.047	-1.85
735.072	18.15
735.096	13.15
735.121	7.15
735.145	14.15
735.17	6.15
735.194	7.15
735.219	2.15
735.243	13.15
735.268	7.15
735.292	7.15
735.317	3.15
735.341	-6.85
735.365	-1.85
735.39	7.15
735.414	26.15
735.439	6.15
735.463	9.15
735.488	6.15
735.512	8.15
735.537	6.15
735.561	2.15
735.586	8.15
735.61	-0.85
735.634	4.15
735.659	6.15
735.683	29.15
735.708	3.15
735.732	-0.85
735.757	-1.85
735.781	13.15
735.805	14.15
735.83	-5.85
735.854	6.15
735.879	8.15
735.903	24.15
735.927	6.15
735.952	11.15
735.976	6.15
736.001	-2.85
736.025	-1.85
736.049	13.15
736.074	10.15
736.098	-9.85
736.123	17.15
736.147	21.15
736.171	18.15
736.196	-4.85
736.22	-7.85
736.244	-2.85
736.269	11.15
736.293	-0.85
736.317	7.15
736.342	11.15
736.366	12.15
736.39	21.15
736.415	-2.85
736.439	0.15
736.463	5.15
736.488	1.15
736.512	5.15
736.536	22.15
736.561	27.15
736.585	7.15
736.609	6.15
736.634	6.15
736.658	-1.85
736.682	-12.85
736.707	-10.85
736.731	-6.85
736.755	7.15
736.78	23.15
736.804	21.15
736.828	1.15
736.852	-2.85
736.877	6.15
736.901	-4.85
736.925	13.15
736.949	2.15
736.974	-4.85
736.998	-0.85
737.022	3.15
737.047	-6.85
737.071	-5.85
737.095	20.15
737.119	20.15
737.144	20.15
737.168	12.15
737.192	9.15
737.216	22.15
737.241	10.15
737.265	7.15
737.289	6.15
737.313	-4.85
737.337	14.15
737.362	5.15
737.386	-2.85
737.41	1.15
737.434	8.15
737.459	4.15
737.483	24.15
737.507	19.15
737.531	15.15
737.555	5.15
737.58	1.15
737.604	5.15
737.628	3.15
737.652	7.15
737.676	0.15
737.701	17.15
737.725	11.15
737.749	5.15
737.773	-3.85
737.797	-3.85
737.821	-2.85
737.846	11.15
737.87	30.15
737.894	-1.85
737.918	1.15
737.942	3.15
737.966	9.15
737.99	13.15
738.015	9.15
738.039	25.15
738.063	-13.85
738.087	-0.85
738.111	15.15
738.135	16.15
738.159	-12.85
738.184	2.15
738.208	8.15
738.232	16.15
738.256	9.15
738.28	19.15
738.304	20.15
738.328	6.15
738.352	23.15
738.376	7.15
738.4	5.15
738.425	11.15
738.449	2.15
738.473	24.15
738.497	5.15
738.521	15.15
738.545	8.15
738.569	5.15
738.593	2.15
738.617	2.15
738.641	9.15
738.665	14.15
738.689	22.15
738.713	1.15
738.737	14.15
738.762	30.15
738.786	7.15
738.81	-7.85
738.834	4.15
738.858	0.15
738.882	-6.85
738.906	4.15
738.93	9.15
738.954	8.15
738.978	11.15
739.002	3.15
739.026	17.15
739.05	25.15
739.074	15.15
739.098	18.15
739.122	31.15
739.146	6.15
739.17	14.15
739.194	6.15
739.218	7.15
739.242	-15.85
739.266	-0.85
739.29	16.15
739.314	5.15
739.338	-5.85
739.362	21.15
739.386	9.15
739.41	0.15
739.434	-5.85
739.458	16.15
739.482	9.15
739.506	0.15
739.53	3.15
739.554	16.15
739.577	3.15
739.601	11.15
739.625	-4.85
739.649	-3.85
739.673	-5.85
739.697	18.15
739.721	3.15
739.745	11.15
739.769	-2.85
739.793	9.15
739.817	5.15
739.841	-8.85
739.865	1.15
739.889	3.15
739.912	13.15
739.936	1.15
739.96	-1.85
739.984	9.15
740.008	13.15
740.032	-1.85
740.056	7.15
740.08	2.15
740.104	2.15
740.127	7.15
740.151	6.15
740.175	10.15
740.199	22.15
740.223	47.15
740.247	11.15
740.271	16.15
740.295	1.15
740.318	-4.85
740.342	9.15
740.366	11.15
740.39	19.15
740.414	5.15
740.438	3.15
740.461	24.15
740.485	1.15
740.509	6.15
740.533	15.15
740.557	-2.85
740.581	5.15
740.604	-1.85
740.628	11.15
740.652	13.15
740.676	9.15
740.7	14.15
740.723	-4.85
740.747	-5.85
740.771	-4.85
740.795	-5.85
740.819	3.15
740.842	-0.85
740.866	15.15
740.89	7.15
740.914	7.15
740.938	-6.85
740.961	28.15
740.985	7.15
741.009	-6.85
741.033	18.15
741.056	-0.85
741.08	-0.85
741.104	0.15
741.128	-0.85
741.151	10.15
741.175	-3.85
741.199	3.15
741.223	3.15
741.246	-8.85
741.27	2.15
741.294	2.15
741.318	5.15
741.341	-0.85
741.365	7.15
741.389	10.15
741.413	10.15
741.436	10.15
741.46	2.15
741.484	7.15
741.507	-4.85
741.531	22.15
741.555	14.15
741.579	12.15
741.602	9.15
741.626	23.15
741.65	17.15
741.673	-2.85
741.697	12.15
741.721	5.15
741.744	-9.85
741.768	-3.85
741.792	5.15
741.815	1.15
741.839	5.15
741.863	5.15
741.886	21.15
741.91	36.15
741.934	9.15
741.957	-17.85
741.981	9.15
742.005	5.15
742.028	2.15
742.052	6.15
742.075	7.15
742.099	17.15
742.123	4.15
742.146	-6.85
742.17	3.15
742.194	-4.85
742.217	-4.85
742.241	0.15
742.264	-1.85
742.288	17.15
742.312	-0.85
742.335	11.15
742.359	2.15
742.382	13.15
742.406	11.15
742.43	-3.85
742.453	0.15
742.477	-2.85
742.5	5.15
742.524	1.15
742.548	-6.85
742.571	6.15
742.595	6.15
742.618	-6.85
742.642	2.15
742.665	12.15
742.689	-8.85
742.712	14.15
742.736	14.15
742.76	9.15
742.783	-1.85
742.807	14.15
742.83	12.15
742.854	-15.85
742.877	-5.85
742.901	18.15
742.924	-1.85
742.948	7.15
742.971	3.15
742.995	10.15
743.018	-0.85
743.042	-16.85
743.065	-2.85
743.089	-15.85
743.112	-3.85
743.136	0.15
743.159	-8.85
743.183	11.15
743.206	10.15
743.23	-10.85
743.253	9.15
743.277	0.15
743.3	-10.85
743.324	5.15
743.347	-12.85
743.371	9.15
743.394	8.15
743.418	5.15
743.441	10.15
743.465	10.15
743.488	0.15
743.512	-2.85
743.535	-4.85
743.558	28.15
743.582	-5.85
743.605	1.15
743.629	-1.85
743.652	2.15
743.676	1.15
743.699	2.15
743.723	7.15
743.746	1.15
743.769	2.15
743.793	-6.85
743.816	-4.85
743.84	-3.85
743.863	-5.85
743.886	13.15
743.91	-5.85
743.933	5.15
743.957	10.15
743.98	5.15
744.003	11.15
744.027	16.15
744.05	19.15
744.074	4.15
744.097	-13.85
744.12	2.15
744.144	-10.85
744.167	-0.85
744.19	-7.85
744.214	-1.85
744.237	-3.85
744.26	18.15
744.284	2.15
744.307	-19.85
744.331	-5.85
744.354	-23.85
744.377	-9.85
744.401	-1.85
744.424	-7.85
744.447	-10.85
744.471	-3.85
