Data from HighRes_H2D2_15_04_11_07_2024_HR4C61891__16__15-05-36-043.txt Node

Date: Thu Nov 07 15:05:36 EST 2024
User: crc00042
Spectrometer: HR4C6189
Trigger mode: 4
Integration Time (sec): 1.000000E-1
Scans to average: 1
Electric dark correction enabled: true
Nonlinearity correction enabled: false
Boxcar width: 0
XAxis mode: Wavelengths
Number of Pixels in Spectrum: 3648
>>>>>Begin Spectral Data<<<<<
639.567	-91.46
639.602	-91.46
639.636	-91.46
639.67	-50.46
639.704	-28.46
639.738	9.54
639.773	-13.46
639.807	-18.46
639.841	10.54
639.875	11.54
639.909	-0.46
639.943	-13.46
639.978	-6.46
640.012	-14.46
640.046	18.54
640.08	-1.46
640.114	13.54
640.148	4.54
640.182	-1.46
640.217	-13.46
640.251	26.54
640.285	11.54
640.319	-1.46
640.353	7.54
640.387	-0.46
640.421	-2.46
640.455	-12.46
640.49	-0.46
640.524	0.54
640.558	5.54
640.592	16.54
640.626	2.54
640.66	6.54
640.694	-4.46
640.728	7.54
640.762	7.54
640.796	10.54
640.83	16.54
640.865	-9.46
640.899	5.54
640.933	10.54
640.967	-11.46
641.001	13.54
641.035	-14.46
641.069	-5.46
641.103	-10.46
641.137	-10.46
641.171	-14.46
641.205	16.54
641.239	3.54
641.273	15.54
641.307	11.54
641.341	-6.46
641.375	-16.46
641.409	-0.46
641.443	2.54
641.477	12.54
641.511	3.54
641.545	9.54
641.579	0.54
641.614	16.54
641.648	23.54
641.682	4.54
641.716	9.54
641.75	8.54
641.784	0.54
641.818	-1.46
641.852	3.54
641.886	9.54
641.919	13.54
641.953	2.54
641.987	-24.46
642.021	1.54
642.055	-18.46
642.089	-2.46
642.123	0.54
642.157	1.54
642.191	11.54
642.225	11.54
642.259	-8.46
642.293	29.54
642.327	-11.46
642.361	-12.46
642.395	7.54
642.429	25.54
642.463	23.54
642.497	23.54
642.531	4.54
642.565	8.54
642.599	7.54
642.633	-16.46
642.666	14.54
642.7	14.54
642.734	21.54
642.768	-1.46
642.802	-7.46
642.836	13.54
642.87	-1.46
642.904	6.54
642.938	16.54
642.972	9.54
643.005	-8.46
643.039	1.54
643.073	8.54
643.107	12.54
643.141	6.54
643.175	-1.46
643.209	-0.46
643.243	0.54
643.276	24.54
643.31	5.54
643.344	-3.46
643.378	-0.46
643.412	19.54
643.446	-0.46
643.48	-4.46
643.513	-12.46
643.547	4.54
643.581	-20.46
643.615	1.54
643.649	6.54
643.683	9.54
643.716	12.54
643.75	-9.46
643.784	-17.46
643.818	11.54
643.852	-2.46
643.886	-1.46
643.919	20.54
643.953	4.54
643.987	4.54
644.021	25.54
644.055	23.54
644.088	4.54
644.122	9.54
644.156	4.54
644.19	5.54
644.224	-6.46
644.257	18.54
644.291	21.54
644.325	16.54
644.359	11.54
644.392	46.54
644.426	19.54
644.46	12.54
644.494	10.54
644.527	4.54
644.561	-2.46
644.595	0.54
644.629	2.54
644.662	1.54
644.696	23.54
644.73	16.54
644.764	-12.46
644.797	-0.46
644.831	3.54
644.865	18.54
644.899	1.54
644.932	14.54
644.966	3.54
645	-0.46
645.033	14.54
645.067	5.54
645.101	9.54
645.135	8.54
645.168	13.54
645.202	-2.46
645.236	14.54
645.269	31.54
645.303	2.54
645.337	-11.46
645.37	-14.46
645.404	8.54
645.438	-0.46
645.471	-8.46
645.505	12.54
645.539	4.54
645.572	-15.46
645.606	7.54
645.64	7.54
645.673	-5.46
645.707	19.54
645.741	4.54
645.774	0.54
645.808	-8.46
645.842	4.54
645.875	-2.46
645.909	-8.46
645.943	-3.46
645.976	2.54
646.01	3.54
646.043	-4.46
646.077	9.54
646.111	14.54
646.144	13.54
646.178	9.54
646.212	2.54
646.245	0.54
646.279	17.54
646.312	-3.46
646.346	10.54
646.38	-0.46
646.413	16.54
646.447	11.54
646.48	12.54
646.514	11.54
646.547	1.54
646.581	-1.46
646.615	-12.46
646.648	-15.46
646.682	-1.46
646.715	-1.46
646.749	-16.46
646.782	-6.46
646.816	-18.46
646.85	21.54
646.883	-11.46
646.917	15.54
646.95	0.54
646.984	5.54
647.017	0.54
647.051	-0.46
647.084	-4.46
647.118	-7.46
647.151	12.54
647.185	6.54
647.218	-2.46
647.252	6.54
647.285	-8.46
647.319	-16.46
647.353	5.54
647.386	18.54
647.42	2.54
647.453	18.54
647.487	3.54
647.52	3.54
647.553	0.54
647.587	4.54
647.62	-2.46
647.654	12.54
647.687	8.54
647.721	21.54
647.754	-2.46
647.788	-2.46
647.821	11.54
647.855	0.54
647.888	-0.46
647.922	13.54
647.955	16.54
647.989	-11.46
648.022	-4.46
648.055	14.54
648.089	4.54
648.122	18.54
648.156	-3.46
648.189	6.54
648.223	13.54
648.256	19.54
648.29	4.54
648.323	-7.46
648.356	13.54
648.39	22.54
648.423	0.54
648.457	7.54
648.49	15.54
648.523	25.54
648.557	2.54
648.59	8.54
648.624	-0.46
648.657	7.54
648.69	6.54
648.724	10.54
648.757	17.54
648.791	25.54
648.824	-1.46
648.857	8.54
648.891	1.54
648.924	13.54
648.957	1.54
648.991	-10.46
649.024	19.54
649.057	5.54
649.091	2.54
649.124	11.54
649.158	19.54
649.191	22.54
649.224	18.54
649.258	15.54
649.291	19.54
649.324	10.54
649.358	3.54
649.391	13.54
649.424	11.54
649.458	6.54
649.491	16.54
649.524	-5.46
649.557	11.54
649.591	2.54
649.624	13.54
649.657	-14.46
649.691	3.54
649.724	2.54
649.757	-4.46
649.791	9.54
649.824	24.54
649.857	9.54
649.89	8.54
649.924	-18.46
649.957	3.54
649.99	-11.46
650.023	-5.46
650.057	-14.46
650.09	-1.46
650.123	-1.46
650.157	11.54
650.19	17.54
650.223	-14.46
650.256	4.54
650.29	3.54
650.323	-4.46
650.356	7.54
650.389	-4.46
650.423	-8.46
650.456	14.54
650.489	-1.46
650.522	9.54
650.555	10.54
650.589	9.54
650.622	13.54
650.655	2.54
650.688	2.54
650.721	3.54
650.755	1.54
650.788	3.54
650.821	10.54
650.854	8.54
650.887	10.54
650.921	6.54
650.954	-3.46
650.987	-0.46
651.02	-5.46
651.053	-19.46
651.087	-0.46
651.12	24.54
651.153	12.54
651.186	0.54
651.219	-4.46
651.252	17.54
651.286	9.54
651.319	3.54
651.352	5.54
651.385	-5.46
651.418	-4.46
651.451	5.54
651.484	5.54
651.518	-3.46
651.551	20.54
651.584	-1.46
651.617	18.54
651.65	3.54
651.683	8.54
651.716	7.54
651.749	-16.46
651.783	-3.46
651.816	-9.46
651.849	14.54
651.882	16.54
651.915	2.54
651.948	-6.46
651.981	-4.46
652.014	-18.46
652.047	-6.46
652.08	-4.46
652.114	7.54
652.147	5.54
652.18	13.54
652.213	30.54
652.246	13.54
652.279	-2.46
652.312	15.54
652.345	-7.46
652.378	11.54
652.411	-4.46
652.444	8.54
652.477	-12.46
652.51	7.54
652.543	-4.46
652.576	-8.46
652.609	-8.46
652.642	14.54
652.675	13.54
652.709	-3.46
652.742	16.54
652.775	6.54
652.808	11.54
652.841	-3.46
652.874	13.54
652.907	15.54
652.94	9.54
652.973	3.54
653.006	-9.46
653.039	10.54
653.072	2.54
653.105	-2.46
653.138	-14.46
653.171	-7.46
653.204	10.54
653.237	13.54
653.27	3.54
653.303	13.54
653.336	10.54
653.368	10.54
653.401	3.54
653.434	4.54
653.467	16.54
653.5	-15.46
653.533	8.54
653.566	-3.46
653.599	8.54
653.632	-2.46
653.665	3.54
653.698	-8.46
653.731	-5.46
653.764	-2.46
653.797	-0.46
653.83	-0.46
653.863	6.54
653.896	1.54
653.929	-2.46
653.961	15.54
653.994	13.54
654.027	-2.46
654.06	11.54
654.093	9.54
654.126	22.54
654.159	0.54
654.192	-7.46
654.225	1.54
654.258	3.54
654.29	-3.46
654.323	7.54
654.356	7.54
654.389	-1.46
654.422	4.54
654.455	19.54
654.488	17.54
654.521	4.54
654.553	-1.46
654.586	8.54
654.619	-5.46
654.652	3.54
654.685	10.54
654.718	15.54
654.751	14.54
654.783	5.54
654.816	27.54
654.849	11.54
654.882	4.54
654.915	-5.46
654.948	5.54
654.98	1.54
655.013	17.54
655.046	2.54
655.079	-11.46
655.112	5.54
655.144	-5.46
655.177	10.54
655.21	26.54
655.243	13.54
655.276	9.54
655.308	-10.46
655.341	-1.46
655.374	14.54
655.407	-8.46
655.44	-10.46
655.472	10.54
655.505	18.54
655.538	22.54
655.571	9.54
655.603	5.54
655.636	7.54
655.669	9.54
655.702	11.54
655.734	-1.46
655.767	5.54
655.8	18.54
655.833	15.54
655.865	14.54
655.898	-1.46
655.931	11.54
655.964	16.54
655.996	28.54
656.029	20.54
656.062	25.54
656.095	52.54
656.127	113.54
656.16	229.54
656.193	624.54
656.225	970.54
656.258	581.54
656.291	225.54
656.324	171.54
656.356	354.54
656.389	770.54
656.422	664.54
656.454	215.54
656.487	78.54
656.52	37.54
656.552	21.54
656.585	15.54
656.618	26.54
656.65	13.54
656.683	6.54
656.716	9.54
656.748	0.54
656.781	10.54
656.814	0.54
656.846	1.54
656.879	-4.46
656.912	8.54
656.944	7.54
656.977	-6.46
657.01	-0.46
657.042	5.54
657.075	13.54
657.108	3.54
657.14	4.54
657.173	7.54
657.205	27.54
657.238	23.54
657.271	12.54
657.303	-8.46
657.336	-2.46
657.369	-7.46
657.401	-10.46
657.434	1.54
657.466	4.54
657.499	9.54
657.532	9.54
657.564	-0.46
657.597	3.54
657.629	2.54
657.662	0.54
657.694	5.54
657.727	-22.46
657.76	12.54
657.792	-11.46
657.825	-15.46
657.857	17.54
657.89	-0.46
657.922	11.54
657.955	-9.46
657.987	7.54
658.02	10.54
658.053	9.54
658.085	-13.46
658.118	7.54
658.15	16.54
658.183	18.54
658.215	-5.46
658.248	0.54
658.28	15.54
658.313	26.54
658.345	19.54
658.378	3.54
658.41	8.54
658.443	28.54
658.475	-0.46
658.508	-2.46
658.54	-1.46
658.573	-8.46
658.605	11.54
658.638	0.54
658.67	7.54
658.703	3.54
658.735	2.54
658.768	6.54
658.8	-26.46
658.833	18.54
658.865	13.54
658.898	2.54
658.93	3.54
658.963	-7.46
658.995	-4.46
659.028	15.54
659.06	12.54
659.092	-7.46
659.125	-5.46
659.157	14.54
659.19	-1.46
659.222	10.54
659.255	4.54
659.287	-3.46
659.32	-8.46
659.352	11.54
659.384	25.54
659.417	9.54
659.449	20.54
659.482	14.54
659.514	-8.46
659.546	-19.46
659.579	0.54
659.611	-20.46
659.644	11.54
659.676	3.54
659.708	-13.46
659.741	-13.46
659.773	2.54
659.806	7.54
659.838	2.54
659.87	-0.46
659.903	-8.46
659.935	12.54
659.967	6.54
660	-0.46
660.032	-17.46
660.065	3.54
660.097	6.54
660.129	-7.46
660.162	-7.46
660.194	4.54
660.226	13.54
660.259	7.54
660.291	3.54
660.323	4.54
660.356	-0.46
660.388	-9.46
660.42	4.54
660.453	15.54
660.485	4.54
660.517	13.54
660.55	26.54
660.582	15.54
660.614	8.54
660.647	4.54
660.679	-12.46
660.711	7.54
660.743	-12.46
660.776	-2.46
660.808	-6.46
660.84	-13.46
660.873	0.54
660.905	16.54
660.937	3.54
660.969	-5.46
661.002	-4.46
661.034	8.54
661.066	-8.46
661.099	12.54
661.131	19.54
661.163	-2.46
661.195	9.54
661.228	38.54
661.26	25.54
661.292	-1.46
661.324	6.54
661.357	12.54
661.389	6.54
661.421	-5.46
661.453	11.54
661.485	7.54
661.518	-11.46
661.55	-16.46
661.582	-11.46
661.614	9.54
661.647	17.54
661.679	12.54
661.711	14.54
661.743	-1.46
661.775	1.54
661.808	23.54
661.84	4.54
661.872	10.54
661.904	-2.46
661.936	-2.46
661.969	-11.46
662.001	6.54
662.033	20.54
662.065	-4.46
662.097	12.54
662.129	7.54
662.162	-1.46
662.194	9.54
662.226	-1.46
662.258	10.54
662.29	12.54
662.322	-7.46
662.355	-14.46
662.387	17.54
662.419	-1.46
662.451	11.54
662.483	18.54
662.515	12.54
662.547	-4.46
662.58	-0.46
662.612	9.54
662.644	-16.46
662.676	6.54
662.708	13.54
662.74	5.54
662.772	1.54
662.804	-4.46
662.836	19.54
662.869	3.54
662.901	-3.46
662.933	3.54
662.965	23.54
662.997	13.54
663.029	-11.46
663.061	3.54
663.093	-0.46
663.125	19.54
663.157	0.54
663.189	7.54
663.221	15.54
663.254	-6.46
663.286	21.54
663.318	9.54
663.35	-6.46
663.382	-8.46
663.414	21.54
663.446	6.54
663.478	-4.46
663.51	10.54
663.542	-4.46
663.574	9.54
663.606	0.54
663.638	-1.46
663.67	9.54
663.702	0.54
663.734	-11.46
663.766	11.54
663.798	-13.46
663.83	2.54
663.862	19.54
663.894	16.54
663.926	12.54
663.958	20.54
663.99	17.54
664.022	9.54
664.054	8.54
664.086	-13.46
664.118	-3.46
664.15	-8.46
664.182	7.54
664.214	7.54
664.246	21.54
664.278	3.54
664.31	15.54
664.342	12.54
664.374	8.54
664.406	9.54
664.438	-0.46
664.47	17.54
664.502	3.54
664.534	2.54
664.566	-10.46
664.598	7.54
664.63	-7.46
664.662	-8.46
664.693	-0.46
664.725	-4.46
664.757	2.54
664.789	-11.46
664.821	13.54
664.853	16.54
664.885	10.54
664.917	-0.46
664.949	14.54
664.981	5.54
665.013	11.54
665.045	3.54
665.076	-5.46
665.108	2.54
665.14	-5.46
665.172	3.54
665.204	-7.46
665.236	-4.46
665.268	24.54
665.3	12.54
665.331	6.54
665.363	10.54
665.395	0.54
665.427	10.54
665.459	19.54
665.491	-1.46
665.523	25.54
665.555	12.54
665.586	-5.46
665.618	3.54
665.65	-12.46
665.682	13.54
665.714	26.54
665.746	6.54
665.777	17.54
665.809	15.54
665.841	20.54
665.873	19.54
665.905	3.54
665.937	11.54
665.968	-0.46
666	0.54
666.032	7.54
666.064	11.54
666.096	-1.46
666.127	15.54
666.159	8.54
666.191	11.54
666.223	6.54
666.255	7.54
666.286	13.54
666.318	0.54
666.35	14.54
666.382	1.54
666.413	-2.46
666.445	-22.46
666.477	-17.46
666.509	-0.46
666.54	-5.46
666.572	-5.46
666.604	-3.46
666.636	3.54
666.667	25.54
666.699	-1.46
666.731	17.54
666.763	-2.46
666.794	6.54
666.826	8.54
666.858	-6.46
666.89	20.54
666.921	16.54
666.953	-2.46
666.985	6.54
667.017	14.54
667.048	4.54
667.08	16.54
667.112	8.54
667.143	-12.46
667.175	3.54
667.207	3.54
667.238	-6.46
667.27	5.54
667.302	2.54
667.334	0.54
667.365	10.54
667.397	0.54
667.429	-8.46
667.46	29.54
667.492	10.54
667.524	-12.46
667.555	-0.46
667.587	17.54
667.619	-2.46
667.65	1.54
667.682	5.54
667.714	7.54
667.745	1.54
667.777	4.54
667.808	2.54
667.84	13.54
667.872	4.54
667.903	18.54
667.935	8.54
667.967	-2.46
667.998	16.54
668.03	15.54
668.061	7.54
668.093	2.54
668.125	11.54
668.156	10.54
668.188	-8.46
668.22	0.54
668.251	16.54
668.283	-1.46
668.314	21.54
668.346	2.54
668.377	3.54
668.409	-6.46
668.441	12.54
668.472	2.54
668.504	22.54
668.535	38.54
668.567	27.54
668.599	17.54
668.63	-14.46
668.662	-13.46
668.693	3.54
668.725	-2.46
668.756	5.54
668.788	10.54
668.819	8.54
668.851	2.54
668.882	15.54
668.914	1.54
668.946	-1.46
668.977	-5.46
669.009	7.54
669.04	-21.46
669.072	-3.46
669.103	20.54
669.135	22.54
669.166	21.54
669.198	5.54
669.229	9.54
669.261	1.54
669.292	16.54
669.324	14.54
669.355	3.54
669.387	-7.46
669.418	8.54
669.45	-3.46
669.481	0.54
669.513	13.54
669.544	12.54
669.576	7.54
669.607	29.54
669.639	11.54
669.67	4.54
669.701	4.54
669.733	-0.46
669.764	-7.46
669.796	-4.46
669.827	11.54
669.859	-18.46
669.89	2.54
669.922	3.54
669.953	0.54
669.985	4.54
670.016	6.54
670.047	-0.46
670.079	-2.46
670.11	12.54
670.142	-3.46
670.173	6.54
670.204	-7.46
670.236	-7.46
670.267	-17.46
670.299	1.54
670.33	0.54
670.362	8.54
670.393	-12.46
670.424	9.54
670.456	0.54
670.487	3.54
670.518	10.54
670.55	-3.46
670.581	9.54
670.613	-5.46
670.644	-5.46
670.675	-9.46
670.707	-7.46
670.738	2.54
670.769	9.54
670.801	3.54
670.832	14.54
670.864	-4.46
670.895	9.54
670.926	-0.46
670.958	-5.46
670.989	-5.46
671.02	-6.46
671.052	1.54
671.083	-4.46
671.114	-4.46
671.146	20.54
671.177	-3.46
671.208	-2.46
671.24	-5.46
671.271	-2.46
671.302	24.54
671.333	-1.46
671.365	-4.46
671.396	-1.46
671.427	-3.46
671.459	24.54
671.49	11.54
671.521	24.54
671.553	1.54
671.584	20.54
671.615	-4.46
671.646	5.54
671.678	1.54
671.709	2.54
671.74	-10.46
671.771	8.54
671.803	1.54
671.834	15.54
671.865	10.54
671.896	30.54
671.928	14.54
671.959	-1.46
671.99	-4.46
672.021	-15.46
672.053	-13.46
672.084	9.54
672.115	3.54
672.146	10.54
672.178	-12.46
672.209	-1.46
672.24	0.54
672.271	11.54
672.303	3.54
672.334	2.54
672.365	9.54
672.396	4.54
672.427	8.54
672.459	8.54
672.49	13.54
672.521	-4.46
672.552	17.54
672.583	2.54
672.615	8.54
672.646	20.54
672.677	9.54
672.708	9.54
672.739	13.54
672.77	25.54
672.802	1.54
672.833	1.54
672.864	9.54
672.895	7.54
672.926	-7.46
672.957	-9.46
672.989	-6.46
673.02	-2.46
673.051	6.54
673.082	16.54
673.113	-5.46
673.144	10.54
673.175	8.54
673.206	5.54
673.238	4.54
673.269	1.54
673.3	-0.46
673.331	3.54
673.362	2.54
673.393	7.54
673.424	11.54
673.455	24.54
673.487	7.54
673.518	6.54
673.549	8.54
673.58	7.54
673.611	1.54
673.642	-4.46
673.673	-2.46
673.704	10.54
673.735	1.54
673.766	12.54
673.797	10.54
673.828	9.54
673.86	-10.46
673.891	-2.46
673.922	4.54
673.953	-6.46
673.984	3.54
674.015	13.54
674.046	-3.46
674.077	6.54
674.108	-3.46
674.139	4.54
674.17	-13.46
674.201	1.54
674.232	-4.46
674.263	-7.46
674.294	5.54
674.325	-10.46
674.356	2.54
674.387	6.54
674.418	18.54
674.449	-14.46
674.48	-7.46
674.511	6.54
674.542	-2.46
674.573	-11.46
674.604	10.54
674.635	-0.46
674.666	7.54
674.697	12.54
674.728	-0.46
674.759	0.54
674.79	-10.46
674.821	-23.46
674.852	-4.46
674.883	-8.46
674.914	-8.46
674.945	-12.46
674.976	-4.46
675.007	-13.46
675.038	-19.46
675.069	-13.46
675.1	-18.46
675.131	6.54
675.162	-28.46
675.193	-13.46
675.224	1.54
675.254	-2.46
675.285	2.54
675.316	9.54
675.347	-3.46
675.378	-11.46
675.409	-11.46
675.44	10.54
675.471	-8.46
675.502	-5.46
675.533	8.54
675.564	5.54
675.595	7.54
675.625	27.54
675.656	5.54
675.687	6.54
675.718	8.54
675.749	-9.46
675.78	11.54
675.811	3.54
675.842	0.54
675.873	-0.46
675.903	-10.46
675.934	16.54
675.965	4.54
675.996	-3.46
676.027	-3.46
676.058	-0.46
676.089	-8.46
676.119	2.54
676.15	8.54
676.181	9.54
676.212	11.54
676.243	20.54
676.274	7.54
676.304	6.54
676.335	-2.46
676.366	11.54
676.397	11.54
676.428	-4.46
676.459	3.54
676.489	15.54
676.52	-0.46
676.551	-0.46
676.582	6.54
676.613	3.54
676.643	-5.46
676.674	28.54
676.705	9.54
676.736	2.54
676.767	9.54
676.797	3.54
676.828	7.54
676.859	0.54
676.89	9.54
676.92	6.54
676.951	8.54
676.982	8.54
677.013	11.54
677.044	8.54
677.074	9.54
677.105	-2.46
677.136	6.54
677.167	4.54
677.197	13.54
677.228	5.54
677.259	0.54
677.289	-0.46
677.32	-6.46
677.351	1.54
677.382	-4.46
677.412	-6.46
677.443	13.54
677.474	17.54
677.505	2.54
677.535	2.54
677.566	-5.46
677.597	-6.46
677.627	-13.46
677.658	-9.46
677.689	-4.46
677.72	-9.46
677.75	2.54
677.781	-0.46
677.812	11.54
677.842	19.54
677.873	5.54
677.904	6.54
677.934	4.54
677.965	9.54
677.996	-12.46
678.026	-5.46
678.057	-0.46
678.088	-2.46
678.118	-4.46
678.149	-15.46
678.18	-6.46
678.21	2.54
678.241	-4.46
678.272	3.54
678.302	-3.46
678.333	-5.46
678.363	2.54
678.394	-0.46
678.425	5.54
678.455	8.54
678.486	10.54
678.517	2.54
678.547	1.54
678.578	5.54
678.608	-10.46
678.639	2.54
678.67	-1.46
678.7	-2.46
678.731	-5.46
678.761	0.54
678.792	7.54
678.823	7.54
678.853	12.54
678.884	-19.46
678.914	-6.46
678.945	7.54
678.975	4.54
679.006	10.54
679.037	3.54
679.067	10.54
679.098	-0.46
679.128	11.54
679.159	-0.46
679.189	19.54
679.22	4.54
679.25	-0.46
679.281	-4.46
679.312	-20.46
679.342	2.54
679.373	23.54
679.403	-7.46
679.434	3.54
679.464	3.54
679.495	1.54
679.525	11.54
679.556	-2.46
679.586	4.54
679.617	12.54
679.647	6.54
679.678	3.54
679.708	-7.46
679.739	0.54
679.769	3.54
679.8	-3.46
679.83	-1.46
679.861	4.54
679.891	-7.46
679.922	-16.46
679.952	1.54
679.983	17.54
680.013	6.54
680.044	-8.46
680.074	10.54
680.105	13.54
680.135	-3.46
680.165	5.54
680.196	11.54
680.226	-2.46
680.257	-1.46
680.287	4.54
680.318	-1.46
680.348	-18.46
680.379	-0.46
680.409	0.54
680.439	0.54
680.47	2.54
680.5	2.54
680.531	8.54
680.561	4.54
680.592	7.54
680.622	18.54
680.652	12.54
680.683	11.54
680.713	-3.46
680.744	7.54
680.774	-11.46
680.804	17.54
680.835	0.54
680.865	-3.46
680.896	23.54
680.926	15.54
680.956	-6.46
680.987	0.54
681.017	12.54
681.047	7.54
681.078	-1.46
681.108	0.54
681.139	3.54
681.169	9.54
681.199	16.54
681.23	11.54
681.26	-0.46
681.29	13.54
681.321	-16.46
681.351	-10.46
681.381	4.54
681.412	-8.46
681.442	-5.46
681.472	11.54
681.503	7.54
681.533	16.54
681.563	-9.46
681.594	9.54
681.624	16.54
681.654	-4.46
681.685	-4.46
681.715	15.54
681.745	7.54
681.775	2.54
681.806	3.54
681.836	11.54
681.866	-3.46
681.897	-3.46
681.927	7.54
681.957	-19.46
681.987	-0.46
682.018	16.54
682.048	1.54
682.078	1.54
682.109	21.54
682.139	18.54
682.169	-8.46
682.199	-4.46
682.23	2.54
682.26	14.54
682.29	-6.46
682.32	-0.46
682.351	1.54
682.381	8.54
682.411	0.54
682.441	-19.46
682.472	-11.46
682.502	4.54
682.532	-0.46
682.562	9.54
682.592	4.54
682.623	8.54
682.653	10.54
682.683	-5.46
682.713	6.54
682.743	-1.46
682.774	0.54
682.804	-4.46
682.834	18.54
682.864	12.54
682.894	-5.46
682.925	-6.46
682.955	9.54
682.985	5.54
683.015	-4.46
683.045	15.54
683.076	-7.46
683.106	-4.46
683.136	-5.46
683.166	7.54
683.196	13.54
683.226	0.54
683.257	6.54
683.287	-3.46
683.317	-7.46
683.347	0.54
683.377	7.54
683.407	11.54
683.437	12.54
683.468	32.54
683.498	-6.46
683.528	-3.46
683.558	-1.46
683.588	-5.46
683.618	1.54
683.648	5.54
683.678	-0.46
683.708	17.54
683.739	8.54
683.769	3.54
683.799	4.54
683.829	-6.46
683.859	9.54
683.889	14.54
683.919	-5.46
683.949	9.54
683.979	10.54
684.009	0.54
684.039	6.54
684.07	-5.46
684.1	24.54
684.13	9.54
684.16	0.54
684.19	-3.46
684.22	-6.46
684.25	5.54
684.28	12.54
684.31	12.54
684.34	1.54
684.37	1.54
684.4	-0.46
684.43	8.54
684.46	1.54
684.49	8.54
684.52	-4.46
684.55	26.54
684.58	11.54
684.61	27.54
684.64	11.54
684.67	11.54
684.7	3.54
684.73	20.54
684.76	7.54
684.79	13.54
684.82	19.54
684.85	-7.46
684.88	0.54
684.91	15.54
684.94	0.54
684.97	5.54
685	8.54
685.03	-4.46
685.06	-11.46
685.09	9.54
685.12	10.54
685.15	1.54
685.18	-2.46
685.21	21.54
685.24	1.54
685.27	22.54
685.3	7.54
685.33	0.54
685.36	6.54
685.39	5.54
685.42	9.54
685.45	-1.46
685.48	17.54
685.51	-6.46
685.54	22.54
685.569	16.54
685.599	8.54
685.629	9.54
685.659	-0.46
685.689	6.54
685.719	-2.46
685.749	0.54
685.779	0.54
685.809	3.54
685.839	1.54
685.869	7.54
685.898	14.54
685.928	7.54
685.958	8.54
685.988	27.54
686.018	-11.46
686.048	7.54
686.078	20.54
686.108	13.54
686.137	16.54
686.167	15.54
686.197	-3.46
686.227	-8.46
686.257	16.54
686.287	26.54
686.317	8.54
686.346	-16.46
686.376	-0.46
686.406	-1.46
686.436	-1.46
686.466	-3.46
686.496	8.54
686.525	20.54
686.555	10.54
686.585	19.54
686.615	26.54
686.645	21.54
686.675	-3.46
686.704	11.54
686.734	9.54
686.764	0.54
686.794	9.54
686.824	-8.46
686.853	9.54
686.883	15.54
686.913	3.54
686.943	-4.46
686.973	-9.46
687.002	1.54
687.032	10.54
687.062	-0.46
687.092	15.54
687.121	8.54
687.151	1.54
687.181	8.54
687.211	10.54
687.24	0.54
687.27	5.54
687.3	1.54
687.33	-4.46
687.359	-11.46
687.389	2.54
687.419	8.54
687.449	12.54
687.478	15.54
687.508	-0.46
687.538	19.54
687.568	17.54
687.597	-2.46
687.627	8.54
687.657	0.54
687.686	6.54
687.716	26.54
687.746	-3.46
687.776	-8.46
687.805	1.54
687.835	2.54
687.865	10.54
687.894	9.54
687.924	-1.46
687.954	-2.46
687.983	-2.46
688.013	5.54
688.043	7.54
688.072	13.54
688.102	19.54
688.132	12.54
688.161	-1.46
688.191	-17.46
688.221	11.54
688.25	-0.46
688.28	15.54
688.31	8.54
688.339	-0.46
688.369	-1.46
688.399	-11.46
688.428	11.54
688.458	9.54
688.488	0.54
688.517	26.54
688.547	-11.46
688.576	25.54
688.606	15.54
688.636	-9.46
688.665	9.54
688.695	5.54
688.725	20.54
688.754	19.54
688.784	9.54
688.813	7.54
688.843	3.54
688.873	3.54
688.902	-7.46
688.932	4.54
688.961	3.54
688.991	11.54
689.02	20.54
689.05	13.54
689.08	17.54
689.109	16.54
689.139	6.54
689.168	21.54
689.198	15.54
689.227	5.54
689.257	1.54
689.287	24.54
689.316	2.54
689.346	-7.46
689.375	-14.46
689.405	26.54
689.434	13.54
689.464	10.54
689.493	3.54
689.523	-4.46
689.552	6.54
689.582	1.54
689.611	0.54
689.641	11.54
689.67	0.54
689.7	11.54
689.73	19.54
689.759	3.54
689.789	16.54
689.818	6.54
689.848	-12.46
689.877	18.54
689.906	12.54
689.936	1.54
689.965	9.54
689.995	28.54
690.024	27.54
690.054	3.54
690.083	12.54
690.113	12.54
690.142	8.54
690.172	10.54
690.201	15.54
690.231	10.54
690.26	14.54
690.29	10.54
690.319	8.54
690.348	18.54
690.378	5.54
690.407	9.54
690.437	7.54
690.466	-1.46
690.496	3.54
690.525	4.54
690.555	-6.46
690.584	-0.46
690.613	9.54
690.643	14.54
690.672	12.54
690.702	14.54
690.731	-1.46
690.76	1.54
690.79	-1.46
690.819	0.54
690.849	5.54
690.878	9.54
690.907	-1.46
690.937	13.54
690.966	24.54
690.996	11.54
691.025	10.54
691.054	1.54
691.084	16.54
691.113	13.54
691.142	1.54
691.172	8.54
691.201	14.54
691.23	-5.46
691.26	11.54
691.289	6.54
691.319	3.54
691.348	9.54
691.377	14.54
691.407	13.54
691.436	27.54
691.465	3.54
691.495	16.54
691.524	0.54
691.553	4.54
691.583	1.54
691.612	14.54
691.641	6.54
691.67	-1.46
691.7	11.54
691.729	0.54
691.758	14.54
691.788	0.54
691.817	-4.46
691.846	-16.46
691.876	1.54
691.905	9.54
691.934	7.54
691.963	19.54
691.993	-2.46
692.022	10.54
692.051	-5.46
692.081	18.54
692.11	11.54
692.139	20.54
692.168	15.54
692.198	26.54
692.227	16.54
692.256	8.54
692.285	6.54
692.315	2.54
692.344	15.54
692.373	7.54
692.402	-12.46
692.432	3.54
692.461	6.54
692.49	-0.46
692.519	13.54
692.548	16.54
692.578	15.54
692.607	10.54
692.636	-5.46
692.665	18.54
692.694	7.54
692.724	1.54
692.753	-7.46
692.782	18.54
692.811	0.54
692.84	19.54
692.87	9.54
692.899	14.54
692.928	-3.46
692.957	6.54
692.986	2.54
693.016	12.54
693.045	12.54
693.074	10.54
693.103	8.54
693.132	-3.46
693.161	2.54
693.191	-8.46
693.22	-8.46
693.249	-1.46
693.278	-2.46
693.307	4.54
693.336	-1.46
693.365	-12.46
693.395	1.54
693.424	1.54
693.453	17.54
693.482	12.54
693.511	9.54
693.54	-2.46
693.569	9.54
693.598	13.54
693.628	9.54
693.657	17.54
693.686	24.54
693.715	11.54
693.744	11.54
693.773	31.54
693.802	17.54
693.831	0.54
693.86	14.54
693.889	-7.46
693.919	-1.46
693.948	5.54
693.977	10.54
694.006	0.54
694.035	6.54
694.064	-1.46
694.093	3.54
694.122	5.54
694.151	3.54
694.18	11.54
694.209	28.54
694.238	-8.46
694.267	15.54
694.296	19.54
694.325	2.54
694.354	8.54
694.383	10.54
694.412	4.54
694.441	-0.46
694.471	-5.46
694.5	10.54
694.529	-4.46
694.558	22.54
694.587	13.54
694.616	9.54
694.645	4.54
694.674	31.54
694.703	23.54
694.732	3.54
694.761	22.54
694.79	14.54
694.819	-13.46
694.848	8.54
694.877	38.54
694.906	10.54
694.935	8.54
694.963	27.54
694.992	3.54
695.021	7.54
695.05	10.54
695.079	7.54
695.108	12.54
695.137	24.54
695.166	10.54
695.195	-4.46
695.224	2.54
695.253	-6.46
695.282	7.54
695.311	12.54
695.34	6.54
695.369	4.54
695.398	6.54
695.427	7.54
695.456	8.54
695.485	12.54
695.513	17.54
695.542	1.54
695.571	1.54
695.6	17.54
695.629	12.54
695.658	25.54
695.687	6.54
695.716	3.54
695.745	29.54
695.774	-14.46
695.802	1.54
695.831	14.54
695.86	12.54
695.889	4.54
695.918	6.54
695.947	15.54
695.976	15.54
696.005	7.54
696.033	16.54
696.062	8.54
696.091	-12.46
696.12	11.54
696.149	21.54
696.178	5.54
696.207	14.54
696.235	-8.46
696.264	-3.46
696.293	11.54
696.322	7.54
696.351	8.54
696.38	8.54
696.408	12.54
696.437	9.54
696.466	2.54
696.495	12.54
696.524	7.54
696.553	10.54
696.581	20.54
696.61	8.54
696.639	-2.46
696.668	6.54
696.697	-3.46
696.725	10.54
696.754	-2.46
696.783	13.54
696.812	14.54
696.84	8.54
696.869	3.54
696.898	-5.46
696.927	14.54
696.956	7.54
696.984	2.54
697.013	9.54
697.042	-2.46
697.071	13.54
697.099	6.54
697.128	24.54
697.157	10.54
697.186	10.54
697.214	12.54
697.243	-0.46
697.272	7.54
697.301	25.54
697.329	6.54
697.358	7.54
697.387	26.54
697.415	14.54
697.444	15.54
697.473	7.54
697.502	5.54
697.53	0.54
697.559	-8.46
697.588	3.54
697.616	7.54
697.645	13.54
697.674	13.54
697.703	3.54
697.731	16.54
697.76	19.54
697.789	8.54
697.817	4.54
697.846	17.54
697.875	10.54
697.903	30.54
697.932	15.54
697.961	14.54
697.989	16.54
698.018	7.54
698.047	5.54
698.075	22.54
698.104	-4.46
698.133	-4.46
698.161	-11.46
698.19	9.54
698.218	6.54
698.247	11.54
698.276	3.54
698.304	10.54
698.333	27.54
698.362	3.54
698.39	9.54
698.419	17.54
698.447	-0.46
698.476	-0.46
698.505	11.54
698.533	10.54
698.562	8.54
698.591	7.54
698.619	-7.46
698.648	22.54
698.676	11.54
698.705	10.54
698.733	-0.46
698.762	25.54
698.791	-3.46
698.819	6.54
698.848	4.54
698.876	10.54
698.905	14.54
698.933	9.54
698.962	-0.46
698.991	8.54
699.019	37.54
699.048	12.54
699.076	0.54
699.105	-6.46
699.133	-6.46
699.162	9.54
699.19	19.54
699.219	26.54
699.248	-8.46
699.276	-3.46
699.305	2.54
699.333	3.54
699.362	5.54
699.39	23.54
699.419	2.54
699.447	0.54
699.476	3.54
699.504	-2.46
699.533	0.54
699.561	-25.46
699.59	17.54
699.618	15.54
699.647	-0.46
699.675	15.54
699.704	19.54
699.732	7.54
699.761	15.54
699.789	-5.46
699.818	10.54
699.846	-3.46
699.874	-6.46
699.903	15.54
699.931	-5.46
699.96	14.54
699.988	-4.46
700.017	-5.46
700.045	7.54
700.074	0.54
700.102	8.54
700.13	-2.46
700.159	8.54
700.187	7.54
700.216	6.54
700.244	-1.46
700.273	0.54
700.301	7.54
700.329	22.54
700.358	16.54
700.386	-3.46
700.415	24.54
700.443	8.54
700.472	11.54
700.5	16.54
700.528	15.54
700.557	0.54
700.585	-3.46
700.614	15.54
700.642	29.54
700.67	14.54
700.699	10.54
700.727	11.54
700.755	14.54
700.784	15.54
700.812	2.54
700.841	7.54
700.869	7.54
700.897	2.54
700.926	7.54
700.954	11.54
700.982	33.54
701.011	9.54
701.039	18.54
701.067	14.54
701.096	-3.46
701.124	-4.46
701.152	8.54
701.181	5.54
701.209	8.54
701.237	3.54
701.266	-9.46
701.294	10.54
701.322	0.54
701.351	10.54
701.379	5.54
701.407	0.54
701.435	11.54
701.464	29.54
701.492	21.54
701.52	-2.46
701.549	-1.46
701.577	3.54
701.605	5.54
701.634	13.54
701.662	16.54
701.69	-5.46
701.718	-6.46
701.747	15.54
701.775	3.54
701.803	8.54
701.831	1.54
701.86	-12.46
701.888	10.54
701.916	-6.46
701.944	3.54
701.973	17.54
702.001	-7.46
702.029	-14.46
702.057	-0.46
702.086	-5.46
702.114	-2.46
702.142	2.54
702.17	8.54
702.199	10.54
702.227	-3.46
702.255	7.54
702.283	11.54
702.311	18.54
702.34	12.54
702.368	8.54
702.396	4.54
702.424	1.54
702.452	-9.46
702.481	-1.46
702.509	3.54
702.537	-2.46
702.565	9.54
702.593	-15.46
702.621	-1.46
702.65	-3.46
702.678	0.54
702.706	11.54
702.734	-4.46
702.762	2.54
702.79	-3.46
702.819	-0.46
702.847	-0.46
702.875	16.54
702.903	15.54
702.931	0.54
702.959	12.54
702.988	7.54
703.016	-10.46
703.044	-7.46
703.072	5.54
703.1	-2.46
703.128	4.54
703.156	1.54
703.184	5.54
703.212	20.54
703.241	7.54
703.269	12.54
703.297	15.54
703.325	1.54
703.353	-14.46
703.381	1.54
703.409	12.54
703.437	-10.46
703.465	-13.46
703.493	7.54
703.522	7.54
703.55	20.54
703.578	11.54
703.606	-8.46
703.634	11.54
703.662	11.54
703.69	7.54
703.718	5.54
703.746	24.54
703.774	-0.46
703.802	10.54
703.83	-10.46
703.858	-5.46
703.886	4.54
703.914	-6.46
703.942	16.54
703.97	1.54
703.998	-2.46
704.027	6.54
704.055	21.54
704.083	-0.46
704.111	-1.46
704.139	3.54
704.167	-0.46
704.195	0.54
704.223	2.54
704.251	-1.46
704.279	4.54
704.307	12.54
704.335	1.54
704.363	3.54
704.391	-8.46
704.419	-0.46
704.447	-4.46
704.475	3.54
704.503	-14.46
704.531	20.54
704.558	14.54
704.586	21.54
704.614	3.54
704.642	12.54
704.67	-2.46
704.698	3.54
704.726	-2.46
704.754	-0.46
704.782	0.54
704.81	-11.46
704.838	35.54
704.866	7.54
704.894	-7.46
704.922	-8.46
704.95	0.54
704.978	3.54
705.006	5.54
705.034	17.54
705.061	5.54
705.089	7.54
705.117	-1.46
705.145	10.54
705.173	16.54
705.201	16.54
705.229	4.54
705.257	1.54
705.285	-1.46
705.313	4.54
705.34	2.54
705.368	7.54
705.396	6.54
705.424	-3.46
705.452	9.54
705.48	4.54
705.508	8.54
705.536	-4.46
705.563	3.54
705.591	10.54
705.619	-4.46
705.647	-5.46
705.675	2.54
705.703	18.54
705.731	4.54
705.758	-3.46
705.786	4.54
705.814	32.54
705.842	22.54
705.87	5.54
705.898	6.54
705.925	-4.46
705.953	7.54
705.981	-11.46
706.009	-1.46
706.037	5.54
706.065	8.54
706.092	-12.46
706.12	4.54
706.148	-8.46
706.176	7.54
706.204	14.54
706.231	-4.46
706.259	-8.46
706.287	19.54
706.315	4.54
706.342	-4.46
706.37	18.54
706.398	17.54
706.426	7.54
706.454	2.54
706.481	21.54
706.509	3.54
706.537	-6.46
706.565	-8.46
706.592	1.54
706.62	11.54
706.648	15.54
706.676	1.54
706.703	0.54
706.731	1.54
706.759	5.54
706.787	-19.46
706.814	8.54
706.842	-2.46
706.87	-12.46
706.897	1.54
706.925	0.54
706.953	4.54
706.981	25.54
707.008	15.54
707.036	-2.46
707.064	-2.46
707.091	1.54
707.119	18.54
707.147	-0.46
707.174	-0.46
707.202	13.54
707.23	-5.46
707.258	-3.46
707.285	-10.46
707.313	10.54
707.341	-17.46
707.368	-4.46
707.396	15.54
707.424	7.54
707.451	15.54
707.479	2.54
707.507	4.54
707.534	1.54
707.562	8.54
707.59	-4.46
707.617	-11.46
707.645	-7.46
707.672	-2.46
707.7	2.54
707.728	4.54
707.755	12.54
707.783	23.54
707.811	-0.46
707.838	9.54
707.866	5.54
707.893	6.54
707.921	-5.46
707.949	-5.46
707.976	6.54
708.004	11.54
708.031	-7.46
708.059	-4.46
708.087	3.54
708.114	1.54
708.142	1.54
708.169	-0.46
708.197	-3.46
708.225	7.54
708.252	-5.46
708.28	7.54
708.307	-8.46
708.335	-0.46
708.362	15.54
708.39	-0.46
708.418	-8.46
708.445	-0.46
708.473	-6.46
708.5	-13.46
708.528	15.54
708.555	0.54
708.583	13.54
708.61	4.54
708.638	-4.46
708.665	-8.46
708.693	-6.46
708.72	-0.46
708.748	-8.46
708.776	5.54
708.803	26.54
708.831	15.54
708.858	7.54
708.886	2.54
708.913	11.54
708.941	4.54
708.968	20.54
708.996	3.54
709.023	21.54
709.051	10.54
709.078	8.54
709.105	6.54
709.133	7.54
709.16	11.54
709.188	20.54
709.215	20.54
709.243	3.54
709.27	-12.46
709.298	-1.46
709.325	-9.46
709.353	-1.46
709.38	8.54
709.408	21.54
709.435	17.54
709.462	-5.46
709.49	21.54
709.517	-3.46
709.545	-2.46
709.572	0.54
709.6	-2.46
709.627	9.54
709.655	10.54
709.682	8.54
709.709	0.54
709.737	0.54
709.764	-4.46
709.792	11.54
709.819	-0.46
709.846	3.54
709.874	11.54
709.901	-1.46
709.929	25.54
709.956	18.54
709.983	12.54
710.011	16.54
710.038	4.54
710.066	5.54
710.093	18.54
710.12	10.54
710.148	8.54
710.175	-8.46
710.202	-9.46
710.23	-4.46
710.257	9.54
710.284	11.54
710.312	1.54
710.339	4.54
710.366	12.54
710.394	-2.46
710.421	-1.46
710.448	3.54
710.476	-16.46
710.503	-1.46
710.53	4.54
710.558	24.54
710.585	16.54
710.612	7.54
710.64	12.54
710.667	7.54
710.694	2.54
710.722	-0.46
710.749	-1.46
710.776	12.54
710.804	31.54
710.831	8.54
710.858	3.54
710.885	-14.46
710.913	-3.46
710.94	10.54
710.967	-4.46
710.995	-7.46
711.022	6.54
711.049	3.54
711.076	4.54
711.104	15.54
711.131	-13.46
711.158	-3.46
711.185	19.54
711.213	-9.46
711.24	-3.46
711.267	-8.46
711.294	1.54
711.322	9.54
711.349	-6.46
711.376	13.54
711.403	1.54
711.431	-0.46
711.458	16.54
711.485	3.54
711.512	9.54
711.54	-5.46
711.567	-8.46
711.594	-8.46
711.621	2.54
711.648	11.54
711.676	7.54
711.703	13.54
711.73	-3.46
711.757	10.54
711.784	-2.46
711.812	0.54
711.839	6.54
711.866	8.54
711.893	4.54
711.92	0.54
711.947	-8.46
711.975	16.54
712.002	22.54
712.029	24.54
712.056	6.54
712.083	15.54
712.11	11.54
712.138	8.54
712.165	9.54
712.192	-6.46
712.219	8.54
712.246	-0.46
712.273	-25.46
712.3	-5.46
712.328	-9.46
712.355	-3.46
712.382	-8.46
712.409	18.54
712.436	-9.46
712.463	2.54
712.49	20.54
712.517	17.54
712.544	-1.46
712.572	-4.46
712.599	5.54
712.626	16.54
712.653	1.54
712.68	2.54
712.707	15.54
712.734	11.54
712.761	6.54
712.788	10.54
712.815	11.54
712.842	7.54
712.87	-8.46
712.897	11.54
712.924	2.54
712.951	4.54
712.978	18.54
713.005	7.54
713.032	6.54
713.059	1.54
713.086	-9.46
713.113	2.54
713.14	1.54
713.167	-0.46
713.194	6.54
713.221	-6.46
713.248	23.54
713.275	7.54
713.302	2.54
713.329	8.54
713.356	5.54
713.383	11.54
713.41	2.54
713.437	-1.46
713.464	4.54
713.491	0.54
713.518	-4.46
713.545	0.54
713.572	4.54
713.599	11.54
713.626	12.54
713.653	3.54
713.68	-12.46
713.707	2.54
713.734	0.54
713.761	7.54
713.788	15.54
713.815	16.54
713.842	15.54
713.869	-1.46
713.896	8.54
713.923	-0.46
713.95	-5.46
713.977	-4.46
714.004	-4.46
714.031	-8.46
714.058	6.54
714.085	-5.46
714.112	10.54
714.139	-0.46
714.165	-10.46
714.192	4.54
714.219	10.54
714.246	-9.46
714.273	8.54
714.3	2.54
714.327	10.54
714.354	15.54
714.381	-10.46
714.408	10.54
714.435	3.54
714.461	2.54
714.488	-1.46
714.515	-4.46
714.542	-15.46
714.569	-11.46
714.596	-6.46
714.623	-2.46
714.65	6.54
714.677	21.54
714.703	-16.46
714.73	-0.46
714.757	10.54
714.784	19.54
714.811	-1.46
714.838	-9.46
714.865	-0.46
714.891	15.54
714.918	10.54
714.945	-3.46
714.972	-9.46
714.999	12.54
715.026	2.54
715.052	18.54
715.079	-8.46
715.106	7.54
715.133	12.54
715.16	-1.46
715.187	17.54
715.213	19.54
715.24	-1.46
715.267	-6.46
715.294	11.54
715.321	10.54
715.347	-6.46
715.374	-6.46
715.401	-3.46
715.428	-0.46
715.455	4.54
715.481	-7.46
715.508	8.54
715.535	-2.46
715.562	12.54
715.588	17.54
715.615	-4.46
715.642	0.54
715.669	12.54
715.695	1.54
715.722	8.54
715.749	11.54
715.776	9.54
715.802	7.54
715.829	11.54
715.856	0.54
715.883	25.54
715.909	5.54
715.936	3.54
715.963	16.54
715.99	-9.46
716.016	-8.46
716.043	1.54
716.07	-5.46
716.096	-5.46
716.123	16.54
716.15	-4.46
716.177	0.54
716.203	15.54
716.23	17.54
716.257	0.54
716.283	8.54
716.31	7.54
716.337	18.54
716.363	0.54
716.39	20.54
716.417	11.54
716.443	2.54
716.47	20.54
716.497	0.54
716.523	10.54
716.55	9.54
716.577	-2.46
716.603	7.54
716.63	10.54
716.657	11.54
716.683	-6.46
716.71	-12.46
716.737	1.54
716.763	8.54
716.79	2.54
716.817	22.54
716.843	21.54
716.87	0.54
716.897	7.54
716.923	-0.46
716.95	-5.46
716.976	2.54
717.003	3.54
717.03	-3.46
717.056	7.54
717.083	-4.46
717.109	10.54
717.136	14.54
717.163	-8.46
717.189	16.54
717.216	-0.46
717.242	-12.46
717.269	2.54
717.296	10.54
717.322	16.54
717.349	22.54
717.375	9.54
717.402	0.54
717.428	16.54
717.455	9.54
717.481	3.54
717.508	17.54
717.535	7.54
717.561	9.54
717.588	4.54
717.614	-0.46
717.641	-4.46
717.667	11.54
717.694	8.54
717.72	6.54
717.747	2.54
717.773	-17.46
717.8	11.54
717.826	6.54
717.853	0.54
717.88	0.54
717.906	-1.46
717.933	23.54
717.959	8.54
717.986	-1.46
718.012	-1.46
718.039	25.54
718.065	20.54
718.092	19.54
718.118	-0.46
718.144	-6.46
718.171	12.54
718.197	9.54
718.224	-1.46
718.25	8.54
718.277	20.54
718.303	-0.46
718.33	10.54
718.356	4.54
718.383	-6.46
718.409	-13.46
718.436	9.54
718.462	3.54
718.489	10.54
718.515	19.54
718.541	22.54
718.568	27.54
718.594	16.54
718.621	12.54
718.647	7.54
718.674	12.54
718.7	17.54
718.726	11.54
718.753	0.54
718.779	12.54
718.806	6.54
718.832	20.54
718.858	4.54
718.885	-3.46
718.911	1.54
718.938	10.54
718.964	-5.46
718.99	14.54
719.017	10.54
719.043	7.54
719.07	15.54
719.096	2.54
719.122	9.54
719.149	13.54
719.175	7.54
719.201	18.54
719.228	4.54
719.254	3.54
719.281	4.54
719.307	-3.46
719.333	-5.46
719.36	15.54
719.386	0.54
719.412	11.54
719.439	-0.46
719.465	1.54
719.491	7.54
719.518	11.54
719.544	19.54
719.57	13.54
719.597	9.54
719.623	7.54
719.649	0.54
719.675	0.54
719.702	1.54
719.728	26.54
719.754	9.54
719.781	7.54
719.807	3.54
719.833	6.54
719.86	5.54
719.886	8.54
719.912	6.54
719.938	-8.46
719.965	6.54
719.991	11.54
720.017	11.54
720.044	-1.46
720.07	1.54
720.096	5.54
720.122	6.54
720.149	11.54
720.175	14.54
720.201	-2.46
720.227	8.54
720.254	6.54
720.28	2.54
720.306	-4.46
720.332	-6.46
720.359	-1.46
720.385	23.54
720.411	2.54
720.437	11.54
720.463	1.54
720.49	19.54
720.516	-3.46
720.542	0.54
720.568	4.54
720.595	20.54
720.621	5.54
720.647	0.54
720.673	-0.46
720.699	15.54
720.725	2.54
720.752	11.54
720.778	4.54
720.804	8.54
720.83	4.54
720.856	18.54
720.883	-4.46
720.909	10.54
720.935	12.54
720.961	19.54
720.987	9.54
721.013	3.54
721.04	-12.46
721.066	-4.46
721.092	4.54
721.118	12.54
721.144	8.54
721.17	-0.46
721.196	-4.46
721.223	4.54
721.249	6.54
721.275	14.54
721.301	5.54
721.327	21.54
721.353	1.54
721.379	-0.46
721.405	4.54
721.432	12.54
721.458	-5.46
721.484	5.54
721.51	-8.46
721.536	11.54
721.562	20.54
721.588	14.54
721.614	-9.46
721.64	2.54
721.666	0.54
721.693	0.54
721.719	-3.46
721.745	4.54
721.771	14.54
721.797	-5.46
721.823	6.54
721.849	14.54
721.875	7.54
721.901	-7.46
721.927	7.54
721.953	10.54
721.979	26.54
722.005	2.54
722.031	-14.46
722.057	2.54
722.083	21.54
722.109	18.54
722.135	12.54
722.161	21.54
722.187	1.54
722.214	-3.46
722.24	10.54
722.266	-5.46
722.292	11.54
722.318	26.54
722.344	8.54
722.37	7.54
722.396	-0.46
722.422	3.54
722.448	21.54
722.474	-4.46
722.5	14.54
722.526	10.54
722.552	2.54
722.578	-2.46
722.603	12.54
722.629	6.54
722.655	2.54
722.681	6.54
722.707	-4.46
722.733	-0.46
722.759	-4.46
722.785	5.54
722.811	13.54
722.837	8.54
722.863	11.54
722.889	39.54
722.915	2.54
722.941	2.54
722.967	-1.46
722.993	-2.46
723.019	-6.46
723.045	0.54
723.071	0.54
723.097	1.54
723.122	8.54
723.148	3.54
723.174	15.54
723.2	11.54
723.226	10.54
723.252	7.54
723.278	-1.46
723.304	-1.46
723.33	12.54
723.356	-5.46
723.381	1.54
723.407	-6.46
723.433	21.54
723.459	10.54
723.485	11.54
723.511	17.54
723.537	-9.46
723.563	16.54
723.588	14.54
723.614	16.54
723.64	12.54
723.666	0.54
723.692	4.54
723.718	4.54
723.744	-0.46
723.769	12.54
723.795	-3.46
723.821	13.54
723.847	9.54
723.873	2.54
723.899	5.54
723.924	1.54
723.95	4.54
723.976	-3.46
724.002	-4.46
724.028	19.54
724.053	-1.46
724.079	8.54
724.105	13.54
724.131	-14.46
724.157	7.54
724.182	15.54
724.208	11.54
724.234	2.54
724.26	-11.46
724.286	13.54
724.311	-9.46
724.337	-6.46
724.363	-9.46
724.389	19.54
724.415	-1.46
724.44	12.54
724.466	5.54
724.492	-19.46
724.518	1.54
724.543	-8.46
724.569	18.54
724.595	11.54
724.621	-1.46
724.646	-0.46
724.672	3.54
724.698	-3.46
724.723	-8.46
724.749	0.54
724.775	24.54
724.801	18.54
724.826	-2.46
724.852	13.54
724.878	4.54
724.904	-5.46
724.929	4.54
724.955	4.54
724.981	13.54
725.006	7.54
725.032	7.54
725.058	22.54
725.083	-5.46
725.109	15.54
725.135	3.54
725.161	9.54
725.186	8.54
725.212	13.54
725.238	22.54
725.263	9.54
725.289	-9.46
725.315	-1.46
725.34	9.54
725.366	16.54
725.392	1.54
725.417	8.54
725.443	20.54
725.468	2.54
725.494	19.54
725.52	16.54
725.545	8.54
725.571	4.54
725.597	10.54
725.622	10.54
725.648	10.54
725.674	16.54
725.699	7.54
725.725	2.54
725.75	34.54
725.776	7.54
725.802	6.54
725.827	-1.46
725.853	2.54
725.878	2.54
725.904	-14.46
725.93	2.54
725.955	-5.46
725.981	0.54
726.006	4.54
726.032	12.54
726.057	-9.46
726.083	-8.46
726.109	-7.46
726.134	3.54
726.16	32.54
726.185	4.54
726.211	-2.46
726.236	7.54
726.262	14.54
726.288	-9.46
726.313	19.54
726.339	16.54
726.364	15.54
726.39	4.54
726.415	-2.46
726.441	-5.46
726.466	-18.46
726.492	-8.46
726.517	-9.46
726.543	-0.46
726.568	2.54
726.594	0.54
726.619	-0.46
726.645	6.54
726.67	-11.46
726.696	3.54
726.721	2.54
726.747	-12.46
726.772	-6.46
726.798	-0.46
726.823	6.54
726.849	-9.46
726.874	3.54
726.9	4.54
726.925	10.54
726.951	10.54
726.976	21.54
727.002	20.54
727.027	11.54
727.053	5.54
727.078	18.54
727.104	7.54
727.129	2.54
727.155	2.54
727.18	10.54
727.205	-3.46
727.231	-1.46
727.256	4.54
727.282	5.54
727.307	4.54
727.333	7.54
727.358	10.54
727.383	4.54
727.409	2.54
727.434	18.54
727.46	21.54
727.485	0.54
727.511	-0.46
727.536	-1.46
727.561	-6.46
727.587	-7.46
727.612	-19.46
727.637	-0.46
727.663	4.54
727.688	30.54
727.714	1.54
727.739	-5.46
727.764	-5.46
727.79	9.54
727.815	10.54
727.841	21.54
727.866	-2.46
727.891	2.54
727.917	0.54
727.942	-7.46
727.967	-7.46
727.993	-12.46
728.018	6.54
728.043	1.54
728.069	16.54
728.094	15.54
728.119	14.54
728.145	28.54
728.17	6.54
728.195	4.54
728.221	25.54
728.246	7.54
728.271	-0.46
728.297	3.54
728.322	9.54
728.347	3.54
728.373	21.54
728.398	25.54
728.423	-2.46
728.448	0.54
728.474	13.54
728.499	15.54
728.524	-8.46
728.55	1.54
728.575	13.54
728.6	4.54
728.625	5.54
728.651	-8.46
728.676	-8.46
728.701	3.54
728.727	-0.46
728.752	-6.46
728.777	6.54
728.802	-2.46
728.828	4.54
728.853	8.54
728.878	-6.46
728.903	-7.46
728.929	-8.46
728.954	6.54
728.979	10.54
729.004	18.54
729.03	-8.46
729.055	16.54
729.08	-6.46
729.105	-8.46
729.13	12.54
729.156	0.54
729.181	2.54
729.206	-14.46
729.231	6.54
729.256	9.54
729.282	2.54
729.307	-3.46
729.332	7.54
729.357	-5.46
729.382	-9.46
729.408	1.54
729.433	14.54
729.458	8.54
729.483	5.54
729.508	12.54
729.533	-13.46
729.559	-5.46
729.584	-12.46
729.609	9.54
729.634	8.54
729.659	-2.46
729.684	-5.46
729.71	24.54
729.735	-5.46
729.76	5.54
729.785	8.54
729.81	25.54
729.835	-3.46
729.86	9.54
729.886	21.54
729.911	12.54
729.936	1.54
729.961	11.54
729.986	-14.46
730.011	7.54
730.036	9.54
730.061	19.54
730.086	25.54
730.112	15.54
730.137	20.54
730.162	11.54
730.187	-9.46
730.212	1.54
730.237	-4.46
730.262	2.54
730.287	1.54
730.312	12.54
730.337	9.54
730.362	16.54
730.387	1.54
730.413	-21.46
730.438	-9.46
730.463	-3.46
730.488	-15.46
730.513	0.54
730.538	-7.46
730.563	8.54
730.588	-4.46
730.613	8.54
730.638	8.54
730.663	1.54
730.688	13.54
730.713	-4.46
730.738	14.54
730.763	-1.46
730.788	-5.46
730.813	9.54
730.838	1.54
730.863	10.54
730.888	5.54
730.913	-4.46
730.938	-7.46
730.963	10.54
730.988	-8.46
731.013	11.54
731.038	3.54
731.063	-3.46
731.088	14.54
731.113	-0.46
731.138	0.54
731.163	4.54
731.188	4.54
731.213	24.54
731.238	19.54
731.263	-3.46
731.288	2.54
731.313	2.54
731.338	-7.46
731.363	9.54
731.388	10.54
731.413	3.54
731.438	23.54
731.463	12.54
731.487	0.54
731.512	9.54
731.537	-2.46
731.562	-4.46
731.587	8.54
731.612	4.54
731.637	-4.46
731.662	0.54
731.687	0.54
731.712	-4.46
731.737	-0.46
731.762	16.54
731.786	18.54
731.811	0.54
731.836	1.54
731.861	4.54
731.886	0.54
731.911	3.54
731.936	13.54
731.961	4.54
731.986	-0.46
732.01	2.54
732.035	18.54
732.06	25.54
732.085	2.54
732.11	10.54
732.135	-1.46
732.16	7.54
732.184	6.54
732.209	10.54
732.234	20.54
732.259	3.54
732.284	14.54
732.309	2.54
732.334	-9.46
732.358	-8.46
732.383	-11.46
732.408	4.54
732.433	10.54
732.458	2.54
732.482	12.54
732.507	9.54
732.532	-7.46
732.557	11.54
732.582	-3.46
732.607	0.54
732.631	1.54
732.656	0.54
732.681	-13.46
732.706	1.54
732.73	9.54
732.755	-4.46
732.78	7.54
732.805	20.54
732.83	7.54
732.854	7.54
732.879	14.54
732.904	3.54
732.929	11.54
732.953	3.54
732.978	0.54
733.003	-4.46
733.028	-2.46
733.052	1.54
733.077	-2.46
733.102	6.54
733.127	-3.46
733.151	1.54
733.176	14.54
733.201	2.54
733.226	0.54
733.25	11.54
733.275	6.54
733.3	-8.46
733.324	0.54
733.349	3.54
733.374	12.54
733.399	-0.46
733.423	12.54
733.448	2.54
733.473	1.54
733.497	7.54
733.522	11.54
733.547	24.54
733.571	17.54
733.596	-0.46
733.621	5.54
733.646	6.54
733.67	3.54
733.695	-5.46
733.72	0.54
733.744	14.54
733.769	18.54
733.794	18.54
733.818	-4.46
733.843	10.54
733.867	6.54
733.892	8.54
733.917	4.54
733.941	14.54
733.966	2.54
733.991	7.54
734.015	26.54
734.04	15.54
734.065	19.54
734.089	18.54
734.114	7.54
734.138	5.54
734.163	7.54
734.188	7.54
734.212	13.54
734.237	18.54
734.261	15.54
734.286	1.54
734.311	-0.46
734.335	2.54
734.36	3.54
734.384	12.54
734.409	9.54
734.434	3.54
734.458	10.54
734.483	2.54
734.507	-9.46
734.532	-2.46
734.556	12.54
734.581	7.54
734.606	-2.46
734.63	4.54
734.655	11.54
734.679	14.54
734.704	8.54
734.728	-8.46
734.753	-7.46
734.777	0.54
734.802	-14.46
734.826	6.54
734.851	3.54
734.876	3.54
734.9	0.54
734.925	6.54
734.949	17.54
734.974	2.54
734.998	1.54
735.023	-4.46
735.047	1.54
735.072	24.54
735.096	2.54
735.121	10.54
735.145	9.54
735.17	3.54
735.194	14.54
735.219	1.54
735.243	20.54
735.268	-6.46
735.292	16.54
735.317	4.54
735.341	5.54
735.365	-11.46
735.39	13.54
735.414	17.54
735.439	11.54
735.463	5.54
735.488	20.54
735.512	2.54
735.537	2.54
735.561	9.54
735.586	2.54
735.61	13.54
735.634	12.54
735.659	-1.46
735.683	17.54
735.708	15.54
735.732	12.54
735.757	-12.46
735.781	-0.46
735.805	12.54
735.83	10.54
735.854	8.54
735.879	19.54
735.903	28.54
735.927	29.54
735.952	12.54
735.976	18.54
736.001	11.54
736.025	-3.46
736.049	17.54
736.074	11.54
736.098	4.54
736.123	-0.46
736.147	2.54
736.171	13.54
736.196	15.54
736.22	-0.46
736.244	1.54
736.269	6.54
736.293	4.54
736.317	20.54
736.342	14.54
736.366	24.54
736.39	27.54
736.415	16.54
736.439	11.54
736.463	2.54
736.488	-4.46
736.512	5.54
736.536	4.54
736.561	28.54
736.585	6.54
736.609	11.54
736.634	-4.46
736.658	18.54
736.682	7.54
736.707	-2.46
736.731	5.54
736.755	0.54
736.78	21.54
736.804	20.54
736.828	21.54
736.852	7.54
736.877	9.54
736.901	11.54
736.925	8.54
736.949	6.54
736.974	9.54
736.998	-1.46
737.022	11.54
737.047	-1.46
737.071	0.54
737.095	12.54
737.119	20.54
737.144	10.54
737.168	7.54
737.192	6.54
737.216	4.54
737.241	-3.46
737.265	-3.46
737.289	9.54
737.313	5.54
737.337	11.54
737.362	7.54
737.386	6.54
737.41	-1.46
737.434	12.54
737.459	17.54
737.483	14.54
737.507	17.54
737.531	6.54
737.555	14.54
737.58	14.54
737.604	17.54
737.628	2.54
737.652	4.54
737.676	-3.46
737.701	6.54
737.725	2.54
737.749	-0.46
737.773	15.54
737.797	10.54
737.821	11.54
737.846	16.54
737.87	27.54
737.894	14.54
737.918	17.54
737.942	14.54
737.966	12.54
737.99	7.54
738.015	12.54
738.039	1.54
738.063	-2.46
738.087	10.54
738.111	7.54
738.135	12.54
738.159	0.54
738.184	4.54
738.208	15.54
738.232	12.54
738.256	23.54
738.28	3.54
738.304	17.54
738.328	-1.46
738.352	13.54
738.376	-19.46
738.4	3.54
738.425	12.54
738.449	2.54
738.473	8.54
738.497	6.54
738.521	22.54
738.545	8.54
738.569	15.54
738.593	23.54
738.617	12.54
738.641	11.54
738.665	1.54
738.689	6.54
738.713	2.54
738.737	7.54
738.762	24.54
738.786	18.54
738.81	4.54
738.834	18.54
738.858	15.54
738.882	16.54
738.906	-6.46
738.93	23.54
738.954	11.54
738.978	16.54
739.002	3.54
739.026	26.54
739.05	23.54
739.074	8.54
739.098	28.54
739.122	3.54
739.146	3.54
739.17	0.54
739.194	6.54
739.218	0.54
739.242	-1.46
739.266	7.54
739.29	2.54
739.314	7.54
739.338	4.54
739.362	9.54
739.386	6.54
739.41	-20.46
739.434	7.54
739.458	14.54
739.482	15.54
739.506	6.54
739.53	2.54
739.554	14.54
739.577	-2.46
739.601	23.54
739.625	14.54
739.649	16.54
739.673	-9.46
739.697	25.54
739.721	2.54
739.745	19.54
739.769	13.54
739.793	28.54
739.817	19.54
739.841	-5.46
739.865	-0.46
739.889	-8.46
739.912	8.54
739.936	5.54
739.96	1.54
739.984	12.54
740.008	3.54
740.032	-16.46
740.056	4.54
740.08	10.54
740.104	-5.46
740.127	15.54
740.151	22.54
740.175	9.54
740.199	3.54
740.223	46.54
740.247	1.54
740.271	26.54
740.295	18.54
740.318	0.54
740.342	3.54
740.366	9.54
740.39	13.54
740.414	1.54
740.438	2.54
740.461	7.54
740.485	7.54
740.509	-5.46
740.533	16.54
740.557	-5.46
740.581	2.54
740.604	-7.46
740.628	2.54
740.652	18.54
740.676	11.54
740.7	8.54
740.723	9.54
740.747	13.54
740.771	3.54
740.795	-1.46
740.819	-3.46
740.842	7.54
740.866	11.54
740.89	8.54
740.914	6.54
740.938	-1.46
740.961	10.54
740.985	16.54
741.009	3.54
741.033	23.54
741.056	10.54
741.08	0.54
741.104	0.54
741.128	1.54
741.151	6.54
741.175	2.54
741.199	12.54
741.223	15.54
741.246	-0.46
741.27	13.54
741.294	15.54
741.318	-8.46
741.341	12.54
741.365	-3.46
741.389	2.54
741.413	20.54
741.436	12.54
741.46	30.54
741.484	33.54
741.507	11.54
741.531	25.54
741.555	6.54
741.579	9.54
741.602	15.54
741.626	6.54
741.65	15.54
741.673	8.54
741.697	28.54
741.721	21.54
741.744	-0.46
741.768	0.54
741.792	17.54
741.815	-1.46
741.839	15.54
741.863	17.54
741.886	19.54
741.91	23.54
741.934	15.54
741.957	-1.46
741.981	18.54
742.005	24.54
742.028	-0.46
742.052	0.54
742.075	14.54
742.099	12.54
742.123	6.54
742.146	5.54
742.17	2.54
742.194	-0.46
742.217	-11.46
742.241	-1.46
742.264	2.54
742.288	18.54
742.312	15.54
742.335	14.54
742.359	12.54
742.382	17.54
742.406	23.54
742.43	1.54
742.453	11.54
742.477	-6.46
742.5	6.54
742.524	20.54
742.548	6.54
742.571	-2.46
742.595	8.54
742.618	0.54
742.642	1.54
742.665	9.54
742.689	-3.46
742.712	15.54
742.736	13.54
742.76	21.54
742.783	3.54
742.807	20.54
742.83	11.54
742.854	-13.46
742.877	-1.46
742.901	7.54
742.924	0.54
742.948	20.54
742.971	12.54
742.995	6.54
743.018	-8.46
743.042	-4.46
743.065	6.54
743.089	-2.46
743.112	7.54
743.136	-1.46
743.159	15.54
743.183	8.54
743.206	7.54
743.23	-4.46
743.253	14.54
743.277	4.54
743.3	-0.46
743.324	4.54
743.347	-8.46
743.371	14.54
743.394	4.54
743.418	26.54
743.441	3.54
743.465	3.54
743.488	3.54
743.512	-14.46
743.535	7.54
743.558	6.54
743.582	8.54
743.605	3.54
743.629	8.54
743.652	0.54
743.676	10.54
743.699	10.54
743.723	-0.46
743.746	11.54
743.769	0.54
743.793	1.54
743.816	4.54
743.84	21.54
743.863	14.54
743.886	20.54
743.91	8.54
743.933	18.54
743.957	13.54
743.98	11.54
744.003	-0.46
744.027	8.54
744.05	-0.46
744.074	7.54
744.097	-4.46
744.12	8.54
744.144	2.54
744.167	20.54
744.19	-3.46
744.214	1.54
744.237	-9.46
744.26	15.54
744.284	7.54
744.307	-6.46
744.331	12.54
744.354	10.54
744.377	-0.46
744.401	11.54
744.424	-13.46
744.447	-16.46
744.471	-7.46
