Data from HighRes_H2D2_15_04_11_07_2024_HR4C61891__84__15-05-42-843.txt Node

Date: Thu Nov 07 15:05:42 EST 2024
User: crc00042
Spectrometer: HR4C6189
Trigger mode: 4
Integration Time (sec): 1.000000E-1
Scans to average: 1
Electric dark correction enabled: true
Nonlinearity correction enabled: false
Boxcar width: 0
XAxis mode: Wavelengths
Number of Pixels in Spectrum: 3648
>>>>>Begin Spectral Data<<<<<
639.567	-89.85
639.602	-89.85
639.636	-89.85
639.67	-25.85
639.704	-12.85
639.738	-0.85
639.773	11.15
639.807	-10.85
639.841	-4.85
639.875	18.15
639.909	5.15
639.943	-17.85
639.978	0.15
640.012	5.15
640.046	7.15
640.08	9.15
640.114	1.15
640.148	-22.85
640.182	-17.85
640.217	-19.85
640.251	6.15
640.285	-5.85
640.319	-11.85
640.353	-8.85
640.387	-7.85
640.421	-8.85
640.455	-12.85
640.49	8.15
640.524	-9.85
640.558	7.15
640.592	-2.85
640.626	-1.85
640.66	-1.85
640.694	2.15
640.728	3.15
640.762	10.15
640.796	3.15
640.83	-6.85
640.865	-4.85
640.899	-12.85
640.933	-10.85
640.967	8.15
641.001	4.15
641.035	5.15
641.069	-7.85
641.103	-21.85
641.137	0.15
641.171	-8.85
641.205	-18.85
641.239	-6.85
641.273	9.15
641.307	18.15
641.341	5.15
641.375	-3.85
641.409	-6.85
641.443	-3.85
641.477	-4.85
641.511	-0.85
641.545	1.15
641.579	-7.85
641.614	4.15
641.648	-10.85
641.682	-21.85
641.716	9.15
641.75	24.15
641.784	14.15
641.818	-10.85
641.852	-6.85
641.886	3.15
641.919	22.15
641.953	2.15
641.987	-7.85
642.021	-3.85
642.055	-5.85
642.089	-13.85
642.123	-8.85
642.157	-6.85
642.191	-17.85
642.225	7.15
642.259	-14.85
642.293	-4.85
642.327	-2.85
642.361	-13.85
642.395	1.15
642.429	15.15
642.463	9.15
642.497	9.15
642.531	2.15
642.565	2.15
642.599	6.15
642.633	-17.85
642.666	21.15
642.7	17.15
642.734	2.15
642.768	-8.85
642.802	0.15
642.836	8.15
642.87	3.15
642.904	5.15
642.938	-8.85
642.972	-3.85
643.005	-6.85
643.039	1.15
643.073	4.15
643.107	0.15
643.141	-2.85
643.175	2.15
643.209	-18.85
643.243	3.15
643.276	-5.85
643.31	-8.85
643.344	-13.85
643.378	-13.85
643.412	2.15
643.446	3.15
643.48	-18.85
643.513	9.15
643.547	5.15
643.581	0.15
643.615	-4.85
643.649	-11.85
643.683	-4.85
643.716	-15.85
643.75	-6.85
643.784	-3.85
643.818	-5.85
643.852	5.15
643.886	2.15
643.919	5.15
643.953	10.15
643.987	10.15
644.021	0.15
644.055	2.15
644.088	0.15
644.122	3.15
644.156	5.15
644.19	-2.85
644.224	-19.85
644.257	-6.85
644.291	3.15
644.325	-3.85
644.359	-0.85
644.392	28.15
644.426	1.15
644.46	-6.85
644.494	-1.85
644.527	-15.85
644.561	-6.85
644.595	4.15
644.629	-12.85
644.662	-0.85
644.696	11.15
644.73	0.15
644.764	-0.85
644.797	4.15
644.831	-2.85
644.865	9.15
644.899	5.15
644.932	6.15
644.966	-9.85
645	11.15
645.033	-1.85
645.067	-7.85
645.101	-0.85
645.135	-5.85
645.168	-10.85
645.202	3.15
645.236	-5.85
645.269	9.15
645.303	-6.85
645.337	-11.85
645.37	-23.85
645.404	-22.85
645.438	15.15
645.471	2.15
645.505	5.15
645.539	-2.85
645.572	-8.85
645.606	-11.85
645.64	7.15
645.673	2.15
645.707	12.15
645.741	5.15
645.774	5.15
645.808	3.15
645.842	-4.85
645.875	-1.85
645.909	6.15
645.943	-1.85
645.976	4.15
646.01	-1.85
646.043	15.15
646.077	-3.85
646.111	-9.85
646.144	5.15
646.178	30.15
646.212	-18.85
646.245	-10.85
646.279	9.15
646.312	-4.85
646.346	6.15
646.38	-5.85
646.413	2.15
646.447	-8.85
646.48	-19.85
646.514	-2.85
646.547	-10.85
646.581	-7.85
646.615	3.15
646.648	-18.85
646.682	-0.85
646.715	1.15
646.749	13.15
646.782	15.15
646.816	-5.85
646.85	1.15
646.883	-5.85
646.917	5.15
646.95	-3.85
646.984	-1.85
647.017	-1.85
647.051	-17.85
647.084	5.15
647.118	4.15
647.151	5.15
647.185	-5.85
647.218	-12.85
647.252	11.15
647.285	-18.85
647.319	-12.85
647.353	5.15
647.386	17.15
647.42	0.15
647.453	-21.85
647.487	0.15
647.52	-7.85
647.553	-8.85
647.587	11.15
647.62	-2.85
647.654	6.15
647.687	7.15
647.721	19.15
647.754	0.15
647.788	-5.85
647.821	-8.85
647.855	3.15
647.888	1.15
647.922	8.15
647.955	10.15
647.989	-7.85
648.022	-13.85
648.055	1.15
648.089	-10.85
648.122	14.15
648.156	-12.85
648.189	-4.85
648.223	5.15
648.256	18.15
648.29	-1.85
648.323	0.15
648.356	-1.85
648.39	1.15
648.423	2.15
648.457	-17.85
648.49	9.15
648.523	4.15
648.557	4.15
648.59	-1.85
648.624	6.15
648.657	16.15
648.69	6.15
648.724	-0.85
648.757	7.15
648.791	9.15
648.824	1.15
648.857	16.15
648.891	14.15
648.924	1.15
648.957	4.15
648.991	-5.85
649.024	-10.85
649.057	-24.85
649.091	9.15
649.124	29.15
649.158	1.15
649.191	18.15
649.224	0.15
649.258	3.15
649.291	14.15
649.324	-7.85
649.358	-9.85
649.391	6.15
649.424	10.15
649.458	-6.85
649.491	2.15
649.524	-4.85
649.557	-11.85
649.591	-6.85
649.624	10.15
649.657	-1.85
649.691	-5.85
649.724	11.15
649.757	4.15
649.791	9.15
649.824	7.15
649.857	-10.85
649.89	-1.85
649.924	-14.85
649.957	-8.85
649.99	-19.85
650.023	-9.85
650.057	-12.85
650.09	6.15
650.123	-4.85
650.157	3.15
650.19	9.15
650.223	-19.85
650.256	-22.85
650.29	2.15
650.323	-17.85
650.356	15.15
650.389	1.15
650.423	2.15
650.456	-0.85
650.489	-1.85
650.522	-11.85
650.555	17.15
650.589	18.15
650.622	-4.85
650.655	8.15
650.688	-5.85
650.721	-6.85
650.755	3.15
650.788	30.15
650.821	1.15
650.854	2.15
650.887	-6.85
650.921	7.15
650.954	3.15
650.987	5.15
651.02	-7.85
651.053	-9.85
651.087	-2.85
651.12	24.15
651.153	-13.85
651.186	12.15
651.219	-17.85
651.252	-5.85
651.286	7.15
651.319	-2.85
651.352	-2.85
651.385	2.15
651.418	-3.85
651.451	3.15
651.484	2.15
651.518	-0.85
651.551	14.15
651.584	8.15
651.617	7.15
651.65	2.15
651.683	-3.85
651.716	-6.85
651.749	-28.85
651.783	-6.85
651.816	-17.85
651.849	-1.85
651.882	-3.85
651.915	-18.85
651.948	-6.85
651.981	-1.85
652.014	-11.85
652.047	-13.85
652.08	7.15
652.114	-7.85
652.147	-4.85
652.18	4.15
652.213	13.15
652.246	-9.85
652.279	-6.85
652.312	1.15
652.345	8.15
652.378	-0.85
652.411	5.15
652.444	7.15
652.477	-4.85
652.51	11.15
652.543	-9.85
652.576	-9.85
652.609	-4.85
652.642	-12.85
652.675	8.15
652.709	-4.85
652.742	27.15
652.775	8.15
652.808	10.15
652.841	-10.85
652.874	-2.85
652.907	-1.85
652.94	-2.85
652.973	-25.85
653.006	-6.85
653.039	-11.85
653.072	1.15
653.105	-3.85
653.138	-7.85
653.171	-1.85
653.204	-2.85
653.237	1.15
653.27	1.15
653.303	-4.85
653.336	21.15
653.368	-3.85
653.401	-10.85
653.434	0.15
653.467	-6.85
653.5	-21.85
653.533	-10.85
653.566	-4.85
653.599	-2.85
653.632	8.15
653.665	10.15
653.698	-31.85
653.731	-7.85
653.764	-6.85
653.797	-7.85
653.83	3.15
653.863	-18.85
653.896	-5.85
653.929	-2.85
653.961	6.15
653.994	-4.85
654.027	1.15
654.06	1.15
654.093	3.15
654.126	-0.85
654.159	-4.85
654.192	13.15
654.225	-18.85
654.258	4.15
654.29	-1.85
654.323	18.15
654.356	-10.85
654.389	-3.85
654.422	-1.85
654.455	2.15
654.488	4.15
654.521	-6.85
654.553	-19.85
654.586	12.15
654.619	-7.85
654.652	-9.85
654.685	10.15
654.718	14.15
654.751	-4.85
654.783	-5.85
654.816	9.15
654.849	-18.85
654.882	-6.85
654.915	-17.85
654.948	-8.85
654.98	-8.85
655.013	-17.85
655.046	-17.85
655.079	-4.85
655.112	-4.85
655.144	-16.85
655.177	-4.85
655.21	16.15
655.243	11.15
655.276	7.15
655.308	5.15
655.341	-3.85
655.374	14.15
655.407	9.15
655.44	3.15
655.472	4.15
655.505	-3.85
655.538	5.15
655.571	21.15
655.603	7.15
655.636	-1.85
655.669	8.15
655.702	27.15
655.734	-3.85
655.767	0.15
655.8	12.15
655.833	4.15
655.865	14.15
655.898	6.15
655.931	10.15
655.964	10.15
655.996	19.15
656.029	42.15
656.062	33.15
656.095	39.15
656.127	62.15
656.16	219.15
656.193	621.15
656.225	955.15
656.258	552.15
656.291	214.15
656.324	178.15
656.356	372.15
656.389	769.15
656.422	663.15
656.454	227.15
656.487	85.15
656.52	37.15
656.552	13.15
656.585	12.15
656.618	-2.85
656.65	-0.85
656.683	1.15
656.716	4.15
656.748	-12.85
656.781	-15.85
656.814	-6.85
656.846	9.15
656.879	-5.85
656.912	0.15
656.944	-25.85
656.977	-9.85
657.01	-2.85
657.042	17.15
657.075	15.15
657.108	-5.85
657.14	-2.85
657.173	-11.85
657.205	18.15
657.238	4.15
657.271	-2.85
657.303	-9.85
657.336	5.15
657.369	9.15
657.401	-10.85
657.434	9.15
657.466	15.15
657.499	-3.85
657.532	2.15
657.564	19.15
657.597	3.15
657.629	5.15
657.662	-10.85
657.694	-4.85
657.727	-8.85
657.76	0.15
657.792	-12.85
657.825	-2.85
657.857	9.15
657.89	-7.85
657.922	-0.85
657.955	-16.85
657.987	2.15
658.02	6.15
658.053	13.15
658.085	8.15
658.118	4.15
658.15	15.15
658.183	8.15
658.215	-3.85
658.248	6.15
658.28	-5.85
658.313	22.15
658.345	11.15
658.378	10.15
658.41	-9.85
658.443	-2.85
658.475	-1.85
658.508	3.15
658.54	1.15
658.573	-11.85
658.605	-6.85
658.638	-17.85
658.67	-7.85
658.703	-1.85
658.735	-6.85
658.768	-3.85
658.8	-4.85
658.833	6.15
658.865	-12.85
658.898	-12.85
658.93	2.15
658.963	-1.85
658.995	-14.85
659.028	-4.85
659.06	-2.85
659.092	-1.85
659.125	6.15
659.157	-9.85
659.19	-10.85
659.222	-7.85
659.255	4.15
659.287	7.15
659.32	-6.85
659.352	4.15
659.384	21.15
659.417	-3.85
659.449	-0.85
659.482	1.15
659.514	-15.85
659.546	-19.85
659.579	-2.85
659.611	-5.85
659.644	-6.85
659.676	-1.85
659.708	-9.85
659.741	-18.85
659.773	4.15
659.806	-5.85
659.838	-6.85
659.87	-22.85
659.903	-10.85
659.935	17.15
659.967	13.15
660	10.15
660.032	-18.85
660.065	-0.85
660.097	-10.85
660.129	-3.85
660.162	-19.85
660.194	3.15
660.226	-2.85
660.259	7.15
660.291	-9.85
660.323	-9.85
660.356	-4.85
660.388	-6.85
660.42	-14.85
660.453	-2.85
660.485	13.15
660.517	14.15
660.55	10.15
660.582	-2.85
660.614	4.15
660.647	-5.85
660.679	-9.85
660.711	-10.85
660.743	-20.85
660.776	-12.85
660.808	-18.85
660.84	-6.85
660.873	-9.85
660.905	-17.85
660.937	3.15
660.969	-0.85
661.002	-7.85
661.034	19.15
661.066	2.15
661.099	7.15
661.131	-4.85
661.163	1.15
661.195	1.15
661.228	21.15
661.26	-1.85
661.292	-9.85
661.324	7.15
661.357	8.15
661.389	6.15
661.421	-5.85
661.453	-4.85
661.485	12.15
661.518	0.15
661.55	-24.85
661.582	-10.85
661.614	12.15
661.647	3.15
661.679	14.15
661.711	-6.85
661.743	-6.85
661.775	15.15
661.808	24.15
661.84	-14.85
661.872	0.15
661.904	-9.85
661.936	-1.85
661.969	3.15
662.001	-7.85
662.033	12.15
662.065	-25.85
662.097	5.15
662.129	1.15
662.162	-14.85
662.194	-10.85
662.226	-0.85
662.258	13.15
662.29	0.15
662.322	-14.85
662.355	-24.85
662.387	-0.85
662.419	3.15
662.451	16.15
662.483	6.15
662.515	-2.85
662.547	0.15
662.58	-19.85
662.612	-12.85
662.644	-24.85
662.676	1.15
662.708	9.15
662.74	-0.85
662.772	-4.85
662.804	5.15
662.836	9.15
662.869	-13.85
662.901	6.15
662.933	-18.85
662.965	10.15
662.997	-5.85
663.029	-23.85
663.061	-10.85
663.093	0.15
663.125	-9.85
663.157	9.15
663.189	-8.85
663.221	17.15
663.254	6.15
663.286	5.15
663.318	-22.85
663.35	-15.85
663.382	-8.85
663.414	12.15
663.446	21.15
663.478	-2.85
663.51	11.15
663.542	-8.85
663.574	3.15
663.606	-11.85
663.638	-25.85
663.67	-9.85
663.702	-11.85
663.734	-14.85
663.766	-9.85
663.798	-21.85
663.83	6.15
663.862	9.15
663.894	1.15
663.926	13.15
663.958	6.15
663.99	-7.85
664.022	-7.85
664.054	-2.85
664.086	-5.85
664.118	-3.85
664.15	-21.85
664.182	1.15
664.214	-6.85
664.246	10.15
664.278	7.15
664.31	4.15
664.342	9.15
664.374	-2.85
664.406	3.15
664.438	-6.85
664.47	1.15
664.502	-1.85
664.534	-5.85
664.566	-10.85
664.598	-0.85
664.63	-12.85
664.662	-7.85
664.693	-11.85
664.725	-4.85
664.757	-1.85
664.789	-12.85
664.821	-11.85
664.853	7.15
664.885	-0.85
664.917	2.15
664.949	10.15
664.981	8.15
665.013	-14.85
665.045	-17.85
665.076	-6.85
665.108	-11.85
665.14	-11.85
665.172	-2.85
665.204	-27.85
665.236	-11.85
665.268	16.15
665.3	8.15
665.331	-3.85
665.363	-6.85
665.395	-26.85
665.427	-14.85
665.459	-7.85
665.491	-16.85
665.523	-22.85
665.555	-14.85
665.586	2.15
665.618	-2.85
665.65	-9.85
665.682	9.15
665.714	4.15
665.746	-2.85
665.777	-4.85
665.809	-13.85
665.841	5.15
665.873	-5.85
665.905	3.15
665.937	14.15
665.968	5.15
666	-2.85
666.032	6.15
666.064	-8.85
666.096	-5.85
666.127	-8.85
666.159	4.15
666.191	0.15
666.223	6.15
666.255	17.15
666.286	21.15
666.318	-1.85
666.35	23.15
666.382	-0.85
666.413	-4.85
666.445	-18.85
666.477	-22.85
666.509	-6.85
666.54	-9.85
666.572	-9.85
666.604	4.15
666.636	-7.85
666.667	-4.85
666.699	-3.85
666.731	5.15
666.763	-2.85
666.794	4.15
666.826	-1.85
666.858	5.15
666.89	13.15
666.921	-6.85
666.953	-0.85
666.985	5.15
667.017	8.15
667.048	2.15
667.08	-5.85
667.112	-10.85
667.143	-13.85
667.175	-6.85
667.207	1.15
667.238	10.15
667.27	-17.85
667.302	-6.85
667.334	-6.85
667.365	9.15
667.397	-2.85
667.429	-14.85
667.46	5.15
667.492	0.15
667.524	-10.85
667.555	1.15
667.587	12.15
667.619	-5.85
667.65	8.15
667.682	-5.85
667.714	-0.85
667.745	-2.85
667.777	17.15
667.808	5.15
667.84	5.15
667.872	-3.85
667.903	25.15
667.935	8.15
667.967	-9.85
667.998	-4.85
668.03	1.15
668.061	-0.85
668.093	-5.85
668.125	9.15
668.156	17.15
668.188	-3.85
668.22	-10.85
668.251	-0.85
668.283	-7.85
668.314	1.15
668.346	-2.85
668.377	1.15
668.409	-9.85
668.441	-6.85
668.472	9.15
668.504	-5.85
668.535	-0.85
668.567	-3.85
668.599	2.15
668.63	-4.85
668.662	-8.85
668.693	8.15
668.725	-8.85
668.756	2.15
668.788	0.15
668.819	-6.85
668.851	0.15
668.882	4.15
668.914	-9.85
668.946	-3.85
668.977	-10.85
669.009	-6.85
669.04	-24.85
669.072	-1.85
669.103	3.15
669.135	8.15
669.166	-9.85
669.198	5.15
669.229	-4.85
669.261	-14.85
669.292	1.15
669.324	1.15
669.355	0.15
669.387	-24.85
669.418	-10.85
669.45	-1.85
669.481	-9.85
669.513	-0.85
669.544	15.15
669.576	-1.85
669.607	18.15
669.639	14.15
669.67	-9.85
669.701	5.15
669.733	-12.85
669.764	0.15
669.796	4.15
669.827	5.15
669.859	-10.85
669.89	-4.85
669.922	-0.85
669.953	1.15
669.985	-0.85
670.016	9.15
670.047	11.15
670.079	5.15
670.11	3.15
670.142	-9.85
670.173	-4.85
670.204	-7.85
670.236	1.15
670.267	-13.85
670.299	-3.85
670.33	-3.85
670.362	10.15
670.393	-6.85
670.424	-5.85
670.456	-17.85
670.487	3.15
670.518	-8.85
670.55	-19.85
670.581	-7.85
670.613	2.15
670.644	-23.85
670.675	-19.85
670.707	-16.85
670.738	-2.85
670.769	-18.85
670.801	-16.85
670.832	-13.85
670.864	-21.85
670.895	12.15
670.926	9.15
670.958	-5.85
670.989	-11.85
671.02	-12.85
671.052	-8.85
671.083	-4.85
671.114	-7.85
671.146	-3.85
671.177	-25.85
671.208	-3.85
671.24	-8.85
671.271	-5.85
671.302	9.15
671.333	-18.85
671.365	-21.85
671.396	-8.85
671.427	-8.85
671.459	14.15
671.49	-8.85
671.521	7.15
671.553	-0.85
671.584	-2.85
671.615	-13.85
671.646	-19.85
671.678	-3.85
671.709	-11.85
671.74	-19.85
671.771	-20.85
671.803	-5.85
671.834	3.15
671.865	-4.85
671.896	-9.85
671.928	-4.85
671.959	-8.85
671.99	-23.85
672.021	-1.85
672.053	-6.85
672.084	13.15
672.115	7.15
672.146	3.15
672.178	-2.85
672.209	-3.85
672.24	-9.85
672.271	20.15
672.303	5.15
672.334	-1.85
672.365	-11.85
672.396	13.15
672.427	1.15
672.459	4.15
672.49	9.15
672.521	2.15
672.552	4.15
672.583	6.15
672.615	3.15
672.646	0.15
672.677	-9.85
672.708	-16.85
672.739	-9.85
672.77	-2.85
672.802	-3.85
672.833	9.15
672.864	-3.85
672.895	-24.85
672.926	2.15
672.957	-14.85
672.989	-0.85
673.02	13.15
673.051	-11.85
673.082	23.15
673.113	0.15
673.144	-4.85
673.175	-15.85
673.206	-7.85
673.238	-12.85
673.269	-10.85
673.3	-13.85
673.331	4.15
673.362	-8.85
673.393	-21.85
673.424	10.15
673.455	10.15
673.487	4.15
673.518	10.15
673.549	-5.85
673.58	-10.85
673.611	-11.85
673.642	-9.85
673.673	-19.85
673.704	-22.85
673.735	-11.85
673.766	-3.85
673.797	-1.85
673.828	6.15
673.86	-1.85
673.891	-19.85
673.922	-8.85
673.953	-3.85
673.984	16.15
674.015	7.15
674.046	0.15
674.077	-3.85
674.108	-18.85
674.139	-5.85
674.17	6.15
674.201	-4.85
674.232	-5.85
674.263	-4.85
674.294	-5.85
674.325	-13.85
674.356	-19.85
674.387	9.15
674.418	5.15
674.449	-3.85
674.48	-6.85
674.511	-5.85
674.542	-7.85
674.573	-12.85
674.604	4.15
674.635	-19.85
674.666	6.15
674.697	6.15
674.728	-3.85
674.759	-10.85
674.79	-13.85
674.821	-13.85
674.852	2.15
674.883	-10.85
674.914	-11.85
674.945	2.15
674.976	-4.85
675.007	-19.85
675.038	-16.85
675.069	-12.85
675.1	-2.85
675.131	-14.85
675.162	-24.85
675.193	-9.85
675.224	-16.85
675.254	9.15
675.285	-3.85
675.316	13.15
675.347	1.15
675.378	-10.85
675.409	-2.85
675.44	15.15
675.471	11.15
675.502	1.15
675.533	-12.85
675.564	-0.85
675.595	-3.85
675.625	13.15
675.656	12.15
675.687	17.15
675.718	-1.85
675.749	13.15
675.78	-2.85
675.811	-10.85
675.842	3.15
675.873	-21.85
675.903	-15.85
675.934	5.15
675.965	3.15
675.996	-6.85
676.027	-3.85
676.058	-6.85
676.089	-12.85
676.119	-10.85
676.15	-17.85
676.181	-2.85
676.212	-7.85
676.243	4.15
676.274	3.15
676.304	-0.85
676.335	-3.85
676.366	-7.85
676.397	-10.85
676.428	-3.85
676.459	0.15
676.489	21.15
676.52	3.15
676.551	10.15
676.582	-2.85
676.613	-0.85
676.643	-7.85
676.674	2.15
676.705	-12.85
676.736	15.15
676.767	18.15
676.797	8.15
676.828	-3.85
676.859	-2.85
676.89	-12.85
676.92	2.15
676.951	1.15
676.982	15.15
677.013	-23.85
677.044	0.15
677.074	-4.85
677.105	-8.85
677.136	13.15
677.167	1.15
677.197	2.15
677.228	-13.85
677.259	0.15
677.289	-10.85
677.32	-13.85
677.351	-13.85
677.382	-18.85
677.412	-6.85
677.443	-9.85
677.474	-3.85
677.505	4.15
677.535	10.15
677.566	-27.85
677.597	-4.85
677.627	-6.85
677.658	-7.85
677.689	-6.85
677.72	-14.85
677.75	-3.85
677.781	4.15
677.812	7.15
677.842	7.15
677.873	0.15
677.904	11.15
677.934	-1.85
677.965	-2.85
677.996	-14.85
678.026	-5.85
678.057	12.15
678.088	-14.85
678.118	-17.85
678.149	-12.85
678.18	-5.85
678.21	3.15
678.241	2.15
678.272	-20.85
678.302	4.15
678.333	-1.85
678.363	6.15
678.394	1.15
678.425	8.15
678.455	1.15
678.486	20.15
678.517	-6.85
678.547	-8.85
678.578	-4.85
678.608	-30.85
678.639	-9.85
678.67	13.15
678.7	-14.85
678.731	2.15
678.761	-3.85
678.792	8.15
678.823	7.15
678.853	-3.85
678.884	-14.85
678.914	10.15
678.945	7.15
678.975	-14.85
679.006	-3.85
679.037	-9.85
679.067	20.15
679.098	-9.85
679.128	-19.85
679.159	-6.85
679.189	-6.85
679.22	-7.85
679.25	-3.85
679.281	0.15
679.312	-18.85
679.342	9.15
679.373	24.15
679.403	3.15
679.434	5.15
679.464	5.15
679.495	10.15
679.525	-7.85
679.556	-16.85
679.586	10.15
679.617	4.15
679.647	1.15
679.678	13.15
679.708	14.15
679.739	-3.85
679.769	-9.85
679.8	4.15
679.83	6.15
679.861	16.15
679.891	-17.85
679.922	-18.85
679.952	-10.85
679.983	9.15
680.013	-13.85
680.044	-2.85
680.074	15.15
680.105	-19.85
680.135	0.15
680.165	2.15
680.196	17.15
680.226	9.15
680.257	-12.85
680.287	0.15
680.318	6.15
680.348	-12.85
680.379	16.15
680.409	14.15
680.439	5.15
680.47	-3.85
680.5	-12.85
680.531	4.15
680.561	9.15
680.592	11.15
680.622	24.15
680.652	-3.85
680.683	-5.85
680.713	-15.85
680.744	-11.85
680.774	-10.85
680.804	4.15
680.835	2.15
680.865	-8.85
680.896	15.15
680.926	6.15
680.956	-11.85
680.987	-2.85
681.017	6.15
681.047	5.15
681.078	-19.85
681.108	-0.85
681.139	-9.85
681.169	-6.85
681.199	0.15
681.23	6.15
681.26	-4.85
681.29	-4.85
681.321	-19.85
681.351	0.15
681.381	-18.85
681.412	-0.85
681.442	2.15
681.472	6.15
681.503	-6.85
681.533	-22.85
681.563	-18.85
681.594	-18.85
681.624	-5.85
681.654	-16.85
681.685	-9.85
681.715	-0.85
681.745	-6.85
681.775	-9.85
681.806	-7.85
681.836	-1.85
681.866	-5.85
681.897	-2.85
681.927	-6.85
681.957	-23.85
681.987	-12.85
682.018	6.15
682.048	2.15
682.078	0.15
682.109	16.15
682.139	2.15
682.169	12.15
682.199	-9.85
682.23	-2.85
682.26	5.15
682.29	-9.85
682.32	4.15
682.351	-11.85
682.381	-4.85
682.411	-5.85
682.441	-6.85
682.472	-9.85
682.502	-10.85
682.532	8.15
682.562	-2.85
682.592	-0.85
682.623	19.15
682.653	6.15
682.683	-13.85
682.713	2.15
682.743	-1.85
682.774	-8.85
682.804	-0.85
682.834	10.15
682.864	-10.85
682.894	3.15
682.925	-18.85
682.955	-1.85
682.985	-11.85
683.015	8.15
683.045	5.15
683.076	-9.85
683.106	5.15
683.136	-5.85
683.166	-5.85
683.196	-3.85
683.226	-18.85
683.257	-11.85
683.287	-10.85
683.317	-22.85
683.347	-6.85
683.377	-9.85
683.407	-6.85
683.437	2.15
683.468	20.15
683.498	-1.85
683.528	-1.85
683.558	9.15
683.588	7.15
683.618	-12.85
683.648	-4.85
683.678	7.15
683.708	5.15
683.739	-3.85
683.769	2.15
683.799	-6.85
683.829	-1.85
683.859	6.15
683.889	8.15
683.919	-0.85
683.949	6.15
683.979	-2.85
684.009	3.15
684.039	-9.85
684.07	-18.85
684.1	1.15
684.13	-1.85
684.16	-1.85
684.19	-15.85
684.22	-4.85
684.25	-4.85
684.28	-13.85
684.31	-4.85
684.34	2.15
684.37	-9.85
684.4	-28.85
684.43	1.15
684.46	-21.85
684.49	2.15
684.52	5.15
684.55	15.15
684.58	-0.85
684.61	7.15
684.64	7.15
684.67	10.15
684.7	2.15
684.73	4.15
684.76	3.15
684.79	7.15
684.82	7.15
684.85	-20.85
684.88	7.15
684.91	-0.85
684.94	-0.85
684.97	0.15
685	-2.85
685.03	-19.85
685.06	-15.85
685.09	-1.85
685.12	8.15
685.15	-23.85
685.18	9.15
685.21	8.15
685.24	4.15
685.27	4.15
685.3	-5.85
685.33	0.15
685.36	-5.85
685.39	10.15
685.42	-14.85
685.45	9.15
685.48	-11.85
685.51	-6.85
685.54	11.15
685.569	3.15
685.599	9.15
685.629	4.15
685.659	-6.85
685.689	-8.85
685.719	3.15
685.749	-5.85
685.779	7.15
685.809	10.15
685.839	5.15
685.869	1.15
685.898	-0.85
685.928	-2.85
685.958	1.15
685.988	9.15
686.018	-1.85
686.048	-5.85
686.078	10.15
686.108	8.15
686.137	1.15
686.167	1.15
686.197	-7.85
686.227	5.15
686.257	27.15
686.287	17.15
686.317	6.15
686.346	-11.85
686.376	-7.85
686.406	-26.85
686.436	-4.85
686.466	-4.85
686.496	-11.85
686.525	1.15
686.555	-8.85
686.585	6.15
686.615	20.15
686.645	9.15
686.675	14.15
686.704	12.15
686.734	3.15
686.764	-14.85
686.794	0.15
686.824	5.15
686.853	1.15
686.883	2.15
686.913	-0.85
686.943	3.15
686.973	-3.85
687.002	8.15
687.032	6.15
687.062	-5.85
687.092	24.15
687.121	-9.85
687.151	1.15
687.181	-2.85
687.211	12.15
687.24	-1.85
687.27	8.15
687.3	3.15
687.33	-5.85
687.359	-17.85
687.389	5.15
687.419	-21.85
687.449	5.15
687.478	8.15
687.508	4.15
687.538	1.15
687.568	-5.85
687.597	-8.85
687.627	-9.85
687.657	0.15
687.686	17.15
687.716	12.15
687.746	-2.85
687.776	-9.85
687.805	3.15
687.835	-3.85
687.865	12.15
687.894	4.15
687.924	2.15
687.954	5.15
687.983	-1.85
688.013	-0.85
688.043	8.15
688.072	-9.85
688.102	3.15
688.132	4.15
688.161	-9.85
688.191	-3.85
688.221	26.15
688.25	-3.85
688.28	2.15
688.31	-1.85
688.339	13.15
688.369	-9.85
688.399	-0.85
688.428	-19.85
688.458	3.15
688.488	-8.85
688.517	17.15
688.547	0.15
688.576	30.15
688.606	4.15
688.636	-8.85
688.665	-8.85
688.695	19.15
688.725	9.15
688.754	15.15
688.784	-2.85
688.813	19.15
688.843	15.15
688.873	-1.85
688.902	3.15
688.932	-15.85
688.961	-18.85
688.991	1.15
689.02	-3.85
689.05	-22.85
689.08	9.15
689.109	15.15
689.139	0.15
689.168	-14.85
689.198	-19.85
689.227	3.15
689.257	7.15
689.287	9.15
689.316	-2.85
689.346	-11.85
689.375	-6.85
689.405	-10.85
689.434	7.15
689.464	9.15
689.493	-3.85
689.523	-9.85
689.552	-19.85
689.582	-2.85
689.611	-8.85
689.641	3.15
689.67	3.15
689.7	2.15
689.73	2.15
689.759	10.15
689.789	24.15
689.818	4.15
689.848	19.15
689.877	21.15
689.906	3.15
689.936	9.15
689.965	5.15
689.995	-8.85
690.024	0.15
690.054	-8.85
690.083	9.15
690.113	-1.85
690.142	-1.85
690.172	-10.85
690.201	-1.85
690.231	10.15
690.26	5.15
690.29	-14.85
690.319	-1.85
690.348	-5.85
690.378	5.15
690.407	4.15
690.437	12.15
690.466	-6.85
690.496	-11.85
690.525	5.15
690.555	-20.85
690.584	0.15
690.613	-7.85
690.643	2.15
690.672	10.15
690.702	8.15
690.731	-1.85
690.76	-6.85
690.79	-16.85
690.819	-7.85
690.849	1.15
690.878	7.15
690.907	3.15
690.937	8.15
690.966	5.15
690.996	-3.85
691.025	-10.85
691.054	4.15
691.084	1.15
691.113	-1.85
691.142	1.15
691.172	-1.85
691.201	11.15
691.23	4.15
691.26	-1.85
691.289	7.15
691.319	-6.85
691.348	4.15
691.377	22.15
691.407	3.15
691.436	6.15
691.465	1.15
691.495	6.15
691.524	-14.85
691.553	-3.85
691.583	4.15
691.612	4.15
691.641	-19.85
691.67	-7.85
691.7	7.15
691.729	-7.85
691.758	3.15
691.788	1.15
691.817	-17.85
691.846	-13.85
691.876	1.15
691.905	8.15
691.934	-4.85
691.963	11.15
691.993	14.15
692.022	1.15
692.051	-8.85
692.081	6.15
692.11	20.15
692.139	-1.85
692.168	6.15
692.198	13.15
692.227	-1.85
692.256	6.15
692.285	18.15
692.315	-10.85
692.344	10.15
692.373	6.15
692.402	-28.85
692.432	-15.85
692.461	1.15
692.49	-4.85
692.519	-3.85
692.548	12.15
692.578	17.15
692.607	-0.85
692.636	-4.85
692.665	2.15
692.694	-6.85
692.724	-1.85
692.753	2.15
692.782	6.15
692.811	0.15
692.84	-10.85
692.87	2.15
692.899	-11.85
692.928	3.15
692.957	7.15
692.986	2.15
693.016	6.15
693.045	4.15
693.074	9.15
693.103	-7.85
693.132	0.15
693.161	9.15
693.191	4.15
693.22	4.15
693.249	9.15
693.278	-19.85
693.307	7.15
693.336	-9.85
693.365	-8.85
693.395	-12.85
693.424	-9.85
693.453	7.15
693.482	-1.85
693.511	3.15
693.54	-3.85
693.569	7.15
693.598	-10.85
693.628	8.15
693.657	4.15
693.686	14.15
693.715	19.15
693.744	4.15
693.773	9.15
693.802	7.15
693.831	-3.85
693.86	17.15
693.889	2.15
693.919	2.15
693.948	9.15
693.977	14.15
694.006	-3.85
694.035	-6.85
694.064	-11.85
694.093	1.15
694.122	-15.85
694.151	0.15
694.18	1.15
694.209	23.15
694.238	0.15
694.267	21.15
694.296	1.15
694.325	9.15
694.354	-2.85
694.383	5.15
694.412	-6.85
694.441	-18.85
694.471	-15.85
694.5	-18.85
694.529	4.15
694.558	9.15
694.587	12.15
694.616	0.15
694.645	-2.85
694.674	3.15
694.703	11.15
694.732	1.15
694.761	9.15
694.79	13.15
694.819	-6.85
694.848	-10.85
694.877	8.15
694.906	19.15
694.935	0.15
694.963	13.15
694.992	7.15
695.021	11.15
695.05	2.15
695.079	-2.85
695.108	-1.85
695.137	17.15
695.166	14.15
695.195	0.15
695.224	6.15
695.253	5.15
695.282	6.15
695.311	4.15
695.34	2.15
695.369	15.15
695.398	22.15
695.427	13.15
695.456	10.15
695.485	-12.85
695.513	-2.85
695.542	9.15
695.571	6.15
695.6	8.15
695.629	0.15
695.658	-3.85
695.687	10.15
695.716	10.15
695.745	2.15
695.774	-12.85
695.802	1.15
695.831	16.15
695.86	12.15
695.889	-1.85
695.918	7.15
695.947	-2.85
695.976	1.15
696.005	10.15
696.033	-2.85
696.062	12.15
696.091	10.15
696.12	1.15
696.149	9.15
696.178	-8.85
696.207	-3.85
696.235	-7.85
696.264	16.15
696.293	8.15
696.322	20.15
696.351	-2.85
696.38	3.15
696.408	10.15
696.437	-3.85
696.466	9.15
696.495	8.15
696.524	6.15
696.553	19.15
696.581	0.15
696.61	-5.85
696.639	3.15
696.668	11.15
696.697	15.15
696.725	11.15
696.754	0.15
696.783	4.15
696.812	-1.85
696.84	4.15
696.869	0.15
696.898	-15.85
696.927	0.15
696.956	16.15
696.984	-8.85
697.013	-10.85
697.042	-1.85
697.071	1.15
697.099	21.15
697.128	-5.85
697.157	3.15
697.186	-14.85
697.214	0.15
697.243	7.15
697.272	6.15
697.301	5.15
697.329	6.15
697.358	4.15
697.387	13.15
697.415	20.15
697.444	1.15
697.473	-4.85
697.502	-9.85
697.53	10.15
697.559	-3.85
697.588	-2.85
697.616	-3.85
697.645	0.15
697.674	16.15
697.703	0.15
697.731	5.15
697.76	7.15
697.789	1.15
697.817	21.15
697.846	10.15
697.875	-3.85
697.903	27.15
697.932	9.15
697.961	1.15
697.989	18.15
698.018	10.15
698.047	20.15
698.075	12.15
698.104	-9.85
698.133	-1.85
698.161	1.15
698.19	-1.85
698.218	0.15
698.247	5.15
698.276	-17.85
698.304	-1.85
698.333	-3.85
698.362	9.15
698.39	25.15
698.419	9.15
698.447	-1.85
698.476	-3.85
698.505	23.15
698.533	0.15
698.562	2.15
698.591	-0.85
698.619	-12.85
698.648	1.15
698.676	-4.85
698.705	4.15
698.733	-14.85
698.762	8.15
698.791	0.15
698.819	4.15
698.848	7.15
698.876	6.15
698.905	0.15
698.933	-2.85
698.962	-2.85
698.991	-1.85
699.019	6.15
699.048	8.15
699.076	13.15
699.105	-13.85
699.133	-2.85
699.162	15.15
699.19	24.15
699.219	17.15
699.248	2.15
699.276	-3.85
699.305	-5.85
699.333	10.15
699.362	-8.85
699.39	-4.85
699.419	-1.85
699.447	18.15
699.476	10.15
699.504	6.15
699.533	0.15
699.561	-3.85
699.59	0.15
699.618	14.15
699.647	15.15
699.675	14.15
699.704	15.15
699.732	-6.85
699.761	1.15
699.789	0.15
699.818	5.15
699.846	-3.85
699.874	1.15
699.903	-5.85
699.931	-18.85
699.96	7.15
699.988	-1.85
700.017	-13.85
700.045	-2.85
700.074	2.15
700.102	-10.85
700.13	4.15
700.159	17.15
700.187	12.15
700.216	0.15
700.244	-3.85
700.273	-1.85
700.301	-2.85
700.329	2.15
700.358	-0.85
700.386	-8.85
700.415	-10.85
700.443	1.15
700.472	-5.85
700.5	-8.85
700.528	1.15
700.557	-3.85
700.585	-5.85
700.614	3.15
700.642	12.15
700.67	26.15
700.699	18.15
700.727	6.15
700.755	-7.85
700.784	-2.85
700.812	-8.85
700.841	-3.85
700.869	-4.85
700.897	-8.85
700.926	-2.85
700.954	13.15
700.982	5.15
701.011	4.15
701.039	2.15
701.067	9.15
701.096	21.15
701.124	-6.85
701.152	5.15
701.181	0.15
701.209	-2.85
701.237	-5.85
701.266	-6.85
701.294	3.15
701.322	11.15
701.351	7.15
701.379	-4.85
701.407	0.15
701.435	2.15
701.464	-2.85
701.492	6.15
701.52	-6.85
701.549	-4.85
701.577	-8.85
701.605	-15.85
701.634	5.15
701.662	6.15
701.69	-23.85
701.718	2.15
701.747	1.15
701.775	7.15
701.803	-3.85
701.831	-1.85
701.86	-10.85
701.888	15.15
701.916	5.15
701.944	-17.85
701.973	2.15
702.001	-11.85
702.029	2.15
702.057	0.15
702.086	-2.85
702.114	-8.85
702.142	-7.85
702.17	-14.85
702.199	0.15
702.227	-0.85
702.255	2.15
702.283	0.15
702.311	-0.85
702.34	-15.85
702.368	-11.85
702.396	-0.85
702.424	-7.85
702.452	5.15
702.481	4.15
702.509	-5.85
702.537	1.15
702.565	-1.85
702.593	-10.85
702.621	1.15
702.65	8.15
702.678	-5.85
702.706	16.15
702.734	-13.85
702.762	1.15
702.79	-3.85
702.819	9.15
702.847	0.15
702.875	8.15
702.903	12.15
702.931	10.15
702.959	20.15
702.988	-7.85
703.016	0.15
703.044	-9.85
703.072	-1.85
703.1	1.15
703.128	-14.85
703.156	-2.85
703.184	-6.85
703.212	-1.85
703.241	11.15
703.269	-5.85
703.297	-1.85
703.325	4.15
703.353	-1.85
703.381	-11.85
703.409	-1.85
703.437	0.15
703.465	-2.85
703.493	-9.85
703.522	7.15
703.55	12.15
703.578	13.15
703.606	-7.85
703.634	-13.85
703.662	-4.85
703.69	-4.85
703.718	2.15
703.746	15.15
703.774	-6.85
703.802	14.15
703.83	0.15
703.858	12.15
703.886	-13.85
703.914	-1.85
703.942	22.15
703.97	2.15
703.998	9.15
704.027	18.15
704.055	27.15
704.083	-0.85
704.111	0.15
704.139	2.15
704.167	-10.85
704.195	15.15
704.223	-0.85
704.251	-11.85
704.279	20.15
704.307	5.15
704.335	-8.85
704.363	2.15
704.391	-9.85
704.419	-9.85
704.447	-2.85
704.475	0.15
704.503	-23.85
704.531	12.15
704.558	17.15
704.586	5.15
704.614	-11.85
704.642	7.15
704.67	-24.85
704.698	-14.85
704.726	9.15
704.754	-1.85
704.782	-6.85
704.81	-0.85
704.838	15.15
704.866	11.15
704.894	-13.85
704.922	-7.85
704.95	-0.85
704.978	11.15
705.006	-4.85
705.034	31.15
705.061	-8.85
705.089	-12.85
705.117	-18.85
705.145	-6.85
705.173	7.15
705.201	12.15
705.229	16.15
705.257	3.15
705.285	15.15
705.313	11.15
705.34	-2.85
705.368	-1.85
705.396	-7.85
705.424	1.15
705.452	-1.85
705.48	-2.85
705.508	3.15
705.536	0.15
705.563	3.15
705.591	5.15
705.619	4.15
705.647	-26.85
705.675	9.15
705.703	7.15
705.731	4.15
705.758	4.15
705.786	1.15
705.814	16.15
705.842	1.15
705.87	11.15
705.898	-3.85
705.925	-7.85
705.953	-4.85
705.981	-1.85
706.009	-5.85
706.037	0.15
706.065	-6.85
706.092	-7.85
706.12	4.15
706.148	1.15
706.176	-19.85
706.204	3.15
706.231	-2.85
706.259	-3.85
706.287	1.15
706.315	-10.85
706.342	-7.85
706.37	6.15
706.398	-2.85
706.426	-25.85
706.454	2.15
706.481	27.15
706.509	6.15
706.537	-19.85
706.565	-26.85
706.592	4.15
706.62	-10.85
706.648	17.15
706.676	-6.85
706.703	2.15
706.731	-5.85
706.759	-3.85
706.787	9.15
706.814	0.15
706.842	1.15
706.87	9.15
706.897	-4.85
706.925	-13.85
706.953	2.15
706.981	11.15
707.008	4.15
707.036	7.15
707.064	-12.85
707.091	-10.85
707.119	15.15
707.147	9.15
707.174	-12.85
707.202	16.15
707.23	3.15
707.258	9.15
707.285	-37.85
707.313	-6.85
707.341	-23.85
707.368	-14.85
707.396	8.15
707.424	17.15
707.451	3.15
707.479	-5.85
707.507	1.15
707.534	-10.85
707.562	11.15
707.59	-23.85
707.617	-3.85
707.645	-15.85
707.672	1.15
707.7	12.15
707.728	17.15
707.755	15.15
707.783	2.15
707.811	10.15
707.838	4.15
707.866	-6.85
707.893	-6.85
707.921	-12.85
707.949	-17.85
707.976	-8.85
708.004	-3.85
708.031	-18.85
708.059	-13.85
708.087	3.15
708.114	3.15
708.142	-7.85
708.169	-8.85
708.197	-3.85
708.225	-2.85
708.252	-10.85
708.28	12.15
708.307	-6.85
708.335	-22.85
708.362	-2.85
708.39	-7.85
708.418	-10.85
708.445	-23.85
708.473	-11.85
708.5	-15.85
708.528	7.15
708.555	0.15
708.583	4.15
708.61	-2.85
708.638	1.15
708.665	-15.85
708.693	-8.85
708.72	-17.85
708.748	0.15
708.776	5.15
708.803	10.15
708.831	8.15
708.858	4.15
708.886	-6.85
708.913	2.15
708.941	-7.85
708.968	10.15
708.996	7.15
709.023	20.15
709.051	-17.85
709.078	-21.85
709.105	-7.85
709.133	-7.85
709.16	-11.85
709.188	17.15
709.215	5.15
709.243	-1.85
709.27	-14.85
709.298	-1.85
709.325	-2.85
709.353	7.15
709.38	2.15
709.408	8.15
709.435	-16.85
709.462	-1.85
709.49	-0.85
709.517	-5.85
709.545	-11.85
709.572	6.15
709.6	1.15
709.627	2.15
709.655	-0.85
709.682	-7.85
709.709	7.15
709.737	2.15
709.764	-5.85
709.792	9.15
709.819	5.15
709.846	-10.85
709.874	-6.85
709.901	13.15
709.929	13.15
709.956	0.15
709.983	-7.85
710.011	-12.85
710.038	-5.85
710.066	5.15
710.093	5.15
710.12	7.15
710.148	-22.85
710.175	-28.85
710.202	-23.85
710.23	-19.85
710.257	-21.85
710.284	1.15
710.312	-3.85
710.339	2.15
710.366	-10.85
710.394	-14.85
710.421	-7.85
710.448	-5.85
710.476	-14.85
710.503	-7.85
710.53	11.15
710.558	7.15
710.585	12.15
710.612	0.15
710.64	1.15
710.667	-5.85
710.694	-1.85
710.722	6.15
710.749	-5.85
710.776	-3.85
710.804	-2.85
710.831	5.15
710.858	8.15
710.885	1.15
710.913	-0.85
710.94	5.15
710.967	-0.85
710.995	-7.85
711.022	0.15
711.049	29.15
711.076	11.15
711.104	-2.85
711.131	-15.85
711.158	0.15
711.185	-4.85
711.213	1.15
711.24	3.15
711.267	-6.85
711.294	-8.85
711.322	8.15
711.349	-2.85
711.376	2.15
711.403	-7.85
711.431	-13.85
711.458	-4.85
711.485	1.15
711.512	-6.85
711.54	-5.85
711.567	-2.85
711.594	1.15
711.621	-9.85
711.648	-3.85
711.676	-11.85
711.703	-6.85
711.73	-9.85
711.757	-8.85
711.784	0.15
711.812	14.15
711.839	-13.85
711.866	-4.85
711.893	0.15
711.92	21.15
711.947	3.15
711.975	8.15
712.002	4.15
712.029	12.15
712.056	3.15
712.083	5.15
712.11	-26.85
712.138	-5.85
712.165	15.15
712.192	0.15
712.219	-5.85
712.246	-3.85
712.273	-8.85
712.3	-15.85
712.328	3.15
712.355	-1.85
712.382	-5.85
712.409	4.15
712.436	-12.85
712.463	6.15
712.49	2.15
712.517	-12.85
712.544	-12.85
712.572	-1.85
712.599	-10.85
712.626	8.15
712.653	-15.85
712.68	-13.85
712.707	-3.85
712.734	-6.85
712.761	-3.85
712.788	-6.85
712.815	-4.85
712.842	1.15
712.87	-5.85
712.897	-21.85
712.924	-14.85
712.951	8.15
712.978	9.15
713.005	12.15
713.032	4.15
713.059	1.15
713.086	-18.85
713.113	-13.85
713.14	-8.85
713.167	4.15
713.194	2.15
713.221	5.15
713.248	7.15
713.275	-5.85
713.302	-4.85
713.329	5.15
713.356	-9.85
713.383	9.15
713.41	5.15
713.437	-7.85
713.464	-5.85
713.491	-2.85
713.518	-8.85
713.545	6.15
713.572	-2.85
713.599	2.15
713.626	3.15
713.653	6.15
713.68	-9.85
713.707	-3.85
713.734	12.15
713.761	-9.85
713.788	1.15
713.815	2.15
713.842	-9.85
713.869	-11.85
713.896	-5.85
713.923	-2.85
713.95	-9.85
713.977	-14.85
714.004	4.15
714.031	-6.85
714.058	-22.85
714.085	-3.85
714.112	1.15
714.139	0.15
714.165	-3.85
714.192	-7.85
714.219	-13.85
714.246	-6.85
714.273	0.15
714.3	3.15
714.327	-10.85
714.354	3.15
714.381	-11.85
714.408	-4.85
714.435	-12.85
714.461	-6.85
714.488	-2.85
714.515	-0.85
714.542	-16.85
714.569	-6.85
714.596	-9.85
714.623	-5.85
714.65	-4.85
714.677	-0.85
714.703	-1.85
714.73	2.15
714.757	-2.85
714.784	1.15
714.811	-12.85
714.838	-2.85
714.865	9.15
714.891	6.15
714.918	4.15
714.945	-20.85
714.972	-5.85
714.999	8.15
715.026	-11.85
715.052	0.15
715.079	8.15
715.106	-2.85
715.133	-2.85
715.16	-18.85
715.187	-5.85
715.213	2.15
715.24	-13.85
715.267	-6.85
715.294	-3.85
715.321	-9.85
715.347	1.15
715.374	11.15
715.401	3.15
715.428	-8.85
715.455	12.15
715.481	-19.85
715.508	10.15
715.535	1.15
715.562	10.15
715.588	23.15
715.615	0.15
715.642	-2.85
715.669	2.15
715.695	-6.85
715.722	-8.85
715.749	14.15
715.776	19.15
715.802	-11.85
715.829	0.15
715.856	-4.85
715.883	17.15
715.909	-10.85
715.936	-3.85
715.963	7.15
715.99	-15.85
716.016	-2.85
716.043	2.15
716.07	-14.85
716.096	-9.85
716.123	2.15
716.15	-9.85
716.177	-4.85
716.203	23.15
716.23	9.15
716.257	21.15
716.283	6.15
716.31	-5.85
716.337	-2.85
716.363	4.15
716.39	-5.85
716.417	8.15
716.443	5.15
716.47	25.15
716.497	9.15
716.523	2.15
716.55	-4.85
716.577	21.15
716.603	-4.85
716.63	7.15
716.657	20.15
716.683	0.15
716.71	-5.85
716.737	-6.85
716.763	3.15
716.79	3.15
716.817	1.15
716.843	-1.85
716.87	-20.85
716.897	-4.85
716.923	10.15
716.95	-11.85
716.976	-12.85
717.003	-4.85
717.03	-0.85
717.056	7.15
717.083	-13.85
717.109	1.15
717.136	3.15
717.163	11.15
717.189	0.15
717.216	-8.85
717.242	-7.85
717.269	-7.85
717.296	3.15
717.322	4.15
717.349	17.15
717.375	1.15
717.402	-14.85
717.428	-3.85
717.455	12.15
717.481	-8.85
717.508	5.15
717.535	0.15
717.561	-8.85
717.588	-2.85
717.614	-1.85
717.641	-0.85
717.667	-6.85
717.694	-6.85
717.72	-7.85
717.747	-6.85
717.773	-3.85
717.8	6.15
717.826	2.15
717.853	-3.85
717.88	1.15
717.906	6.15
717.933	9.15
717.959	-7.85
717.986	10.15
718.012	4.15
718.039	8.15
718.065	13.15
718.092	1.15
718.118	-7.85
718.144	-7.85
718.171	8.15
718.197	23.15
718.224	3.15
718.25	-3.85
718.277	-4.85
718.303	17.15
718.33	-9.85
718.356	-20.85
718.383	-10.85
718.409	5.15
718.436	1.15
718.462	0.15
718.489	-5.85
718.515	25.15
718.541	13.15
718.568	-2.85
718.594	8.15
718.621	-2.85
718.647	1.15
718.674	2.15
718.7	8.15
718.726	-4.85
718.753	14.15
718.779	0.15
718.806	-2.85
718.832	-11.85
718.858	-7.85
718.885	-6.85
718.911	-7.85
718.938	12.15
718.964	7.15
718.99	-8.85
719.017	1.15
719.043	1.15
719.07	12.15
719.096	-2.85
719.122	6.15
719.149	-4.85
719.175	4.15
719.201	14.15
719.228	-11.85
719.254	-1.85
719.281	4.15
719.307	3.15
719.333	18.15
719.36	8.15
719.386	0.15
719.412	-3.85
719.439	-12.85
719.465	-5.85
719.491	-11.85
719.518	24.15
719.544	2.15
719.57	9.15
719.597	0.15
719.623	-0.85
719.649	18.15
719.675	-2.85
719.702	-6.85
719.728	4.15
719.754	-1.85
719.781	5.15
719.807	0.15
719.833	-3.85
719.86	-10.85
719.886	-0.85
719.912	8.15
719.938	7.15
719.965	6.15
719.991	4.15
720.017	10.15
720.044	-9.85
720.07	14.15
720.096	3.15
720.122	-2.85
720.149	8.15
720.175	18.15
720.201	3.15
720.227	0.15
720.254	5.15
720.28	5.15
720.306	-5.85
720.332	-2.85
720.359	7.15
720.385	3.15
720.411	11.15
720.437	9.15
720.463	1.15
720.49	1.15
720.516	-3.85
720.542	-11.85
720.568	-7.85
720.595	5.15
720.621	2.15
720.647	5.15
720.673	14.15
720.699	5.15
720.725	10.15
720.752	2.15
720.778	5.15
720.804	12.15
720.83	-3.85
720.856	-6.85
720.883	1.15
720.909	0.15
720.935	-5.85
720.961	5.15
720.987	-9.85
721.013	1.15
721.04	-4.85
721.066	-1.85
721.092	2.15
721.118	23.15
721.144	2.15
721.17	0.15
721.196	-8.85
721.223	-6.85
721.249	-1.85
721.275	16.15
721.301	-4.85
721.327	6.15
721.353	25.15
721.379	3.15
721.405	10.15
721.432	12.15
721.458	-7.85
721.484	2.15
721.51	-10.85
721.536	-8.85
721.562	5.15
721.588	2.15
721.614	-12.85
721.64	-3.85
721.666	-5.85
721.693	-4.85
721.719	-8.85
721.745	-6.85
721.771	-8.85
721.797	-6.85
721.823	5.15
721.849	22.15
721.875	15.15
721.901	16.15
721.927	12.15
721.953	15.15
721.979	14.15
722.005	0.15
722.031	-10.85
722.057	15.15
722.083	-0.85
722.109	6.15
722.135	8.15
722.161	16.15
722.187	-0.85
722.214	-11.85
722.24	0.15
722.266	-11.85
722.292	-3.85
722.318	5.15
722.344	2.15
722.37	13.15
722.396	2.15
722.422	6.15
722.448	-14.85
722.474	-13.85
722.5	3.15
722.526	-1.85
722.552	-6.85
722.578	-1.85
722.603	18.15
722.629	9.15
722.655	-2.85
722.681	-13.85
722.707	-6.85
722.733	-8.85
722.759	-13.85
722.785	-9.85
722.811	5.15
722.837	11.15
722.863	9.15
722.889	-0.85
722.915	-10.85
722.941	-4.85
722.967	5.15
722.993	12.15
723.019	2.15
723.045	16.15
723.071	8.15
723.097	19.15
723.122	5.15
723.148	7.15
723.174	-3.85
723.2	10.15
723.226	4.15
723.252	15.15
723.278	3.15
723.304	-4.85
723.33	4.15
723.356	-15.85
723.381	3.15
723.407	-11.85
723.433	8.15
723.459	-13.85
723.485	-10.85
723.511	15.15
723.537	9.15
723.563	16.15
723.588	4.15
723.614	11.15
723.64	8.15
723.666	5.15
723.692	8.15
723.718	7.15
723.744	-2.85
723.769	-4.85
723.795	-14.85
723.821	3.15
723.847	4.15
723.873	21.15
723.899	7.15
723.924	2.15
723.95	-1.85
723.976	-18.85
724.002	9.15
724.028	4.15
724.053	15.15
724.079	-1.85
724.105	3.15
724.131	-8.85
724.157	5.15
724.182	2.15
724.208	-4.85
724.234	-13.85
724.26	2.15
724.286	8.15
724.311	-12.85
724.337	-20.85
724.363	-19.85
724.389	-1.85
724.415	-7.85
724.44	21.15
724.466	-1.85
724.492	-6.85
724.518	-2.85
724.543	3.15
724.569	12.15
724.595	-2.85
724.621	-11.85
724.646	-5.85
724.672	-11.85
724.698	12.15
724.723	-8.85
724.749	4.15
724.775	14.15
724.801	4.15
724.826	-14.85
724.852	-8.85
724.878	-20.85
724.904	-10.85
724.929	0.15
724.955	-14.85
724.981	-5.85
725.006	3.15
725.032	-0.85
725.058	-11.85
725.083	-16.85
725.109	8.15
725.135	10.15
725.161	11.15
725.186	-7.85
725.212	-9.85
725.238	3.15
725.263	2.15
725.289	-4.85
725.315	-12.85
725.34	12.15
725.366	9.15
725.392	-12.85
725.417	-4.85
725.443	5.15
725.468	0.15
725.494	10.15
725.52	5.15
725.545	-5.85
725.571	-16.85
725.597	0.15
725.622	13.15
725.648	2.15
725.674	0.15
725.699	-10.85
725.725	-18.85
725.75	29.15
725.776	-3.85
725.802	-3.85
725.827	13.15
725.853	-9.85
725.878	4.15
725.904	-0.85
725.93	-9.85
725.955	-6.85
725.981	-8.85
726.006	-1.85
726.032	13.15
726.057	-0.85
726.083	-10.85
726.109	3.15
726.134	8.15
726.16	-0.85
726.185	-13.85
726.211	1.15
726.236	5.15
726.262	-3.85
726.288	9.15
726.313	8.15
726.339	11.15
726.364	-10.85
726.39	-1.85
726.415	-2.85
726.441	-2.85
726.466	-6.85
726.492	-17.85
726.517	-2.85
726.543	-8.85
726.568	-10.85
726.594	9.15
726.619	5.15
726.645	-7.85
726.67	0.15
726.696	5.15
726.721	-8.85
726.747	-12.85
726.772	-5.85
726.798	-1.85
726.823	3.15
726.849	-7.85
726.874	2.15
726.9	12.15
726.925	10.15
726.951	-3.85
726.976	4.15
727.002	-2.85
727.027	-7.85
727.053	0.15
727.078	18.15
727.104	1.15
727.129	-6.85
727.155	-13.85
727.18	-11.85
727.205	-7.85
727.231	3.15
727.256	-3.85
727.282	4.15
727.307	5.15
727.333	1.15
727.358	-18.85
727.383	-7.85
727.409	-14.85
727.434	2.15
727.46	-10.85
727.485	-1.85
727.511	9.15
727.536	-11.85
727.561	-7.85
727.587	-7.85
727.612	0.15
727.637	-2.85
727.663	-11.85
727.688	14.15
727.714	-4.85
727.739	4.15
727.764	8.15
727.79	-3.85
727.815	7.15
727.841	-1.85
727.866	6.15
727.891	2.15
727.917	-18.85
727.942	-14.85
727.967	-3.85
727.993	-11.85
728.018	1.15
728.043	6.15
728.069	9.15
728.094	8.15
728.119	-2.85
728.145	20.15
728.17	-6.85
728.195	4.15
728.221	9.15
728.246	5.15
728.271	-23.85
728.297	-11.85
728.322	4.15
728.347	-4.85
728.373	8.15
728.398	12.15
728.423	4.15
728.448	9.15
728.474	0.15
728.499	3.15
728.524	-7.85
728.55	-4.85
728.575	0.15
728.6	3.15
728.625	0.15
728.651	9.15
728.676	-3.85
728.701	0.15
728.727	-2.85
728.752	-8.85
728.777	-3.85
728.802	1.15
728.828	-6.85
728.853	-7.85
728.878	-21.85
728.903	-1.85
728.929	-7.85
728.954	-14.85
728.979	8.15
729.004	10.15
729.03	-2.85
729.055	22.15
729.08	-11.85
729.105	3.15
729.13	4.15
729.156	2.15
729.181	0.15
729.206	-9.85
729.231	-7.85
729.256	-2.85
729.282	3.15
729.307	-5.85
729.332	-7.85
729.357	-7.85
729.382	-5.85
729.408	-1.85
729.433	-9.85
729.458	0.15
729.483	2.15
729.508	18.15
729.533	-2.85
729.559	-5.85
729.584	-2.85
729.609	0.15
729.634	15.15
729.659	10.15
729.684	0.15
729.71	21.15
729.735	0.15
729.76	-7.85
729.785	-10.85
729.81	-2.85
729.835	-4.85
729.86	-7.85
729.886	0.15
729.911	26.15
729.936	0.15
729.961	0.15
729.986	-20.85
730.011	0.15
730.036	-10.85
730.061	-5.85
730.086	-7.85
730.112	-5.85
730.137	9.15
730.162	7.15
730.187	-4.85
730.212	4.15
730.237	0.15
730.262	-2.85
730.287	-3.85
730.312	18.15
730.337	-4.85
730.362	13.15
730.387	13.15
730.413	-7.85
730.438	-1.85
730.463	-5.85
730.488	-2.85
730.513	9.15
730.538	5.15
730.563	4.15
730.588	0.15
730.613	16.15
730.638	5.15
730.663	-17.85
730.688	14.15
730.713	2.15
730.738	-10.85
730.763	5.15
730.788	-8.85
730.813	6.15
730.838	3.15
730.863	-3.85
730.888	3.15
730.913	-3.85
730.938	-18.85
730.963	11.15
730.988	-2.85
731.013	26.15
731.038	8.15
731.063	7.15
731.088	16.15
731.113	-9.85
731.138	1.15
731.163	-5.85
731.188	-3.85
731.213	4.15
731.238	5.15
731.263	-9.85
731.288	-6.85
731.313	11.15
731.338	8.15
731.363	-1.85
731.388	3.15
731.413	1.15
731.438	16.15
731.463	11.15
731.487	12.15
731.512	-0.85
731.537	-8.85
731.562	5.15
731.587	9.15
731.612	-4.85
731.637	1.15
731.662	6.15
731.687	-14.85
731.712	-10.85
731.737	10.15
731.762	7.15
731.786	8.15
731.811	10.15
731.836	9.15
731.861	3.15
731.886	-21.85
731.911	5.15
731.936	15.15
731.961	-3.85
731.986	-8.85
732.01	14.15
732.035	-1.85
732.06	7.15
732.085	-8.85
732.11	-4.85
732.135	-14.85
732.16	-7.85
732.184	11.15
732.209	-6.85
732.234	-3.85
732.259	2.15
732.284	3.15
732.309	-5.85
732.334	2.15
732.358	-11.85
732.383	-22.85
732.408	5.15
732.433	1.15
732.458	5.15
732.482	-4.85
732.507	-11.85
732.532	3.15
732.557	0.15
732.582	-3.85
732.607	-5.85
732.631	-5.85
732.656	6.15
732.681	-3.85
732.706	-13.85
732.73	-6.85
732.755	-9.85
732.78	-1.85
732.805	1.15
732.83	-1.85
732.854	2.15
732.879	4.15
732.904	-7.85
732.929	-7.85
732.953	1.15
732.978	8.15
733.003	0.15
733.028	-7.85
733.052	-2.85
733.077	-6.85
733.102	15.15
733.127	0.15
733.151	-3.85
733.176	0.15
733.201	-11.85
733.226	-17.85
733.25	-1.85
733.275	4.15
733.3	-7.85
733.324	8.15
733.349	9.15
733.374	1.15
733.399	9.15
733.423	-7.85
733.448	-5.85
733.473	-3.85
733.497	0.15
733.522	-16.85
733.547	5.15
733.571	15.15
733.596	-3.85
733.621	6.15
733.646	-6.85
733.67	-7.85
733.695	-7.85
733.72	2.15
733.744	14.15
733.769	7.15
733.794	12.15
733.818	20.15
733.843	-5.85
733.867	-19.85
733.892	-1.85
733.917	1.15
733.941	-5.85
733.966	-0.85
733.991	-11.85
734.015	8.15
734.04	1.15
734.065	14.15
734.089	10.15
734.114	6.15
734.138	13.15
734.163	-2.85
734.188	6.15
734.212	2.15
734.237	4.15
734.261	5.15
734.286	1.15
734.311	-4.85
734.335	17.15
734.36	-4.85
734.384	2.15
734.409	0.15
734.434	-24.85
734.458	-9.85
734.483	5.15
734.507	-1.85
734.532	-11.85
734.556	-6.85
734.581	0.15
734.606	-0.85
734.63	-13.85
734.655	-9.85
734.679	-8.85
734.704	-11.85
734.728	-8.85
734.753	-3.85
734.777	-6.85
734.802	-0.85
734.826	7.15
734.851	-4.85
734.876	11.15
734.9	14.15
734.925	6.15
734.949	0.15
734.974	-0.85
734.998	-2.85
735.023	-7.85
735.047	-20.85
735.072	17.15
735.096	0.15
735.121	1.15
735.145	3.15
735.17	3.15
735.194	-0.85
735.219	7.15
735.243	-2.85
735.268	2.15
735.292	4.15
735.317	1.15
735.341	-4.85
735.365	-10.85
735.39	-5.85
735.414	4.15
735.439	4.15
735.463	5.15
735.488	1.15
735.512	3.15
735.537	7.15
735.561	-6.85
735.586	-2.85
735.61	11.15
735.634	-1.85
735.659	9.15
735.683	34.15
735.708	10.15
735.732	-3.85
735.757	-6.85
735.781	2.15
735.805	-1.85
735.83	-7.85
735.854	-9.85
735.879	2.15
735.903	14.15
735.927	6.15
735.952	1.15
735.976	-4.85
736.001	-2.85
736.025	-1.85
736.049	6.15
736.074	3.15
736.098	1.15
736.123	2.15
736.147	-6.85
736.171	-1.85
736.196	11.15
736.22	-14.85
736.244	-7.85
736.269	8.15
736.293	-2.85
736.317	-11.85
736.342	-1.85
736.366	9.15
736.39	-1.85
736.415	5.15
736.439	3.15
736.463	3.15
736.488	16.15
736.512	7.15
736.536	12.15
736.561	6.15
736.585	-6.85
736.609	3.15
736.634	-7.85
736.658	-6.85
736.682	-7.85
736.707	-4.85
736.731	-10.85
736.755	-10.85
736.78	20.15
736.804	27.15
736.828	5.15
736.852	-2.85
736.877	6.15
736.901	4.15
736.925	-9.85
736.949	5.15
736.974	-9.85
736.998	-9.85
737.022	5.15
737.047	-2.85
737.071	0.15
737.095	6.15
737.119	16.15
737.144	16.15
737.168	-1.85
737.192	-3.85
737.216	11.15
737.241	-9.85
737.265	-10.85
737.289	-9.85
737.313	-9.85
737.337	15.15
737.362	-2.85
737.386	-3.85
737.41	-9.85
737.434	-10.85
737.459	1.15
737.483	18.15
737.507	22.15
737.531	7.15
737.555	-3.85
737.58	-0.85
737.604	14.15
737.628	-26.85
737.652	-10.85
737.676	-3.85
737.701	-0.85
737.725	0.15
737.749	19.15
737.773	-5.85
737.797	-9.85
737.821	-1.85
737.846	2.15
737.87	28.15
737.894	-12.85
737.918	-2.85
737.942	-8.85
737.966	18.15
737.99	-0.85
738.015	0.15
738.039	-4.85
738.063	-15.85
738.087	9.15
738.111	6.15
738.135	14.15
738.159	4.15
738.184	4.15
738.208	17.15
738.232	3.15
738.256	20.15
738.28	-1.85
738.304	-2.85
738.328	-3.85
738.352	14.15
738.376	12.15
738.4	6.15
738.425	9.15
738.449	3.15
738.473	15.15
738.497	16.15
738.521	3.15
738.545	8.15
738.569	-2.85
738.593	10.15
738.617	-1.85
738.641	-13.85
738.665	-2.85
738.689	16.15
738.713	-4.85
738.737	1.15
738.762	14.15
738.786	7.15
738.81	-19.85
738.834	8.15
738.858	10.15
738.882	14.15
738.906	-6.85
738.93	7.15
738.954	-12.85
738.978	1.15
739.002	0.15
739.026	10.15
739.05	13.15
739.074	-12.85
739.098	32.15
739.122	10.15
739.146	-7.85
739.17	9.15
739.194	9.15
739.218	-10.85
739.242	4.15
739.266	8.15
739.29	-2.85
739.314	8.15
739.338	7.15
739.362	4.15
739.386	14.15
739.41	-5.85
739.434	-5.85
739.458	24.15
739.482	4.15
739.506	4.15
739.53	0.15
739.554	2.15
739.577	6.15
739.601	12.15
739.625	-2.85
739.649	8.15
739.673	-0.85
739.697	16.15
739.721	0.15
739.745	-2.85
739.769	9.15
739.793	15.15
739.817	10.15
739.841	1.15
739.865	3.15
739.889	-13.85
739.912	1.15
739.936	-1.85
739.96	-6.85
739.984	11.15
740.008	5.15
740.032	-12.85
740.056	13.15
740.08	-6.85
740.104	-6.85
740.127	-3.85
740.151	8.15
740.175	4.15
740.199	6.15
740.223	29.15
740.247	5.15
740.271	2.15
740.295	7.15
740.318	-14.85
740.342	0.15
740.366	3.15
740.39	15.15
740.414	6.15
740.438	5.15
740.461	9.15
740.485	5.15
740.509	-6.85
740.533	20.15
740.557	-7.85
740.581	-5.85
740.604	-2.85
740.628	11.15
740.652	25.15
740.676	10.15
740.7	5.15
740.723	-6.85
740.747	-6.85
740.771	-5.85
740.795	-7.85
740.819	20.15
740.842	8.15
740.866	2.15
740.89	-1.85
740.914	-9.85
740.938	-19.85
740.961	4.15
740.985	-2.85
741.009	8.15
741.033	6.15
741.056	10.15
741.08	-11.85
741.104	-4.85
741.128	-8.85
741.151	5.15
741.175	-1.85
741.199	-4.85
741.223	4.15
741.246	-4.85
741.27	4.15
741.294	13.15
741.318	1.15
741.341	0.15
741.365	-7.85
741.389	2.15
741.413	5.15
741.436	10.15
741.46	10.15
741.484	11.15
741.507	-3.85
741.531	25.15
741.555	2.15
741.579	-3.85
741.602	-2.85
741.626	-4.85
741.65	-4.85
741.673	10.15
741.697	6.15
741.721	-1.85
741.744	-17.85
741.768	8.15
741.792	4.15
741.815	-3.85
741.839	6.15
741.863	3.15
741.886	6.15
741.91	6.15
741.934	3.15
741.957	-13.85
741.981	-4.85
742.005	-5.85
742.028	-9.85
742.052	-1.85
742.075	-1.85
742.099	15.15
742.123	-5.85
742.146	-0.85
742.17	1.15
742.194	0.15
742.217	-11.85
742.241	-15.85
742.264	-1.85
742.288	9.15
742.312	10.15
742.335	-4.85
742.359	-4.85
742.382	10.15
742.406	3.15
742.43	4.15
742.453	-1.85
742.477	-14.85
742.5	-5.85
742.524	-6.85
742.548	-6.85
742.571	1.15
742.595	8.15
742.618	-7.85
742.642	4.15
742.665	14.15
742.689	-9.85
742.712	17.15
742.736	-2.85
742.76	1.15
742.783	5.15
742.807	10.15
742.83	3.15
742.854	-10.85
742.877	4.15
742.901	8.15
742.924	-8.85
742.948	1.15
742.971	12.15
742.995	6.15
743.018	-15.85
743.042	-4.85
743.065	-11.85
743.089	1.15
743.112	-1.85
743.136	8.15
743.159	4.15
743.183	-21.85
743.206	-6.85
743.23	-2.85
743.253	-2.85
743.277	0.15
743.3	7.15
743.324	-4.85
743.347	-2.85
743.371	17.15
743.394	10.15
743.418	13.15
743.441	8.15
743.465	9.15
743.488	2.15
743.512	-14.85
743.535	5.15
743.558	24.15
743.582	-3.85
743.605	1.15
743.629	4.15
743.652	4.15
743.676	6.15
743.699	0.15
743.723	-5.85
743.746	12.15
743.769	-12.85
743.793	6.15
743.816	0.15
743.84	19.15
743.863	4.15
743.886	-7.85
743.91	1.15
743.933	-3.85
743.957	15.15
743.98	-7.85
744.003	0.15
744.027	17.15
744.05	-3.85
744.074	4.15
744.097	-12.85
744.12	-4.85
744.144	-8.85
744.167	-3.85
744.19	-6.85
744.214	-10.85
744.237	-13.85
744.26	7.15
744.284	-7.85
744.307	-15.85
744.331	0.15
744.354	-6.85
744.377	3.15
744.401	4.15
744.424	4.15
744.447	-6.85
744.471	-0.85
