Data from HighRes_H2D2_15_04_11_07_2024_HR4C61891__72__15-05-41-643.txt Node

Date: Thu Nov 07 15:05:41 EST 2024
User: crc00042
Spectrometer: HR4C6189
Trigger mode: 4
Integration Time (sec): 1.000000E-1
Scans to average: 1
Electric dark correction enabled: true
Nonlinearity correction enabled: false
Boxcar width: 0
XAxis mode: Wavelengths
Number of Pixels in Spectrum: 3648
>>>>>Begin Spectral Data<<<<<
639.567	-74
639.602	-74
639.636	-74
639.67	-44
639.704	-32
639.738	4
639.773	-13
639.807	-19
639.841	-3
639.875	15
639.909	-1
639.943	-12
639.978	3
640.012	9
640.046	8
640.08	6
640.114	4
640.148	-1
640.182	5
640.217	-2
640.251	12
640.285	1
640.319	-12
640.353	-4
640.387	2
640.421	2
640.455	-2
640.49	-8
640.524	3
640.558	15
640.592	0
640.626	-7
640.66	0
640.694	5
640.728	17
640.762	-2
640.796	24
640.83	7
640.865	-9
640.899	17
640.933	6
640.967	-5
641.001	10
641.035	-5
641.069	-6
641.103	-6
641.137	7
641.171	-14
641.205	20
641.239	13
641.273	18
641.307	9
641.341	13
641.375	14
641.409	-6
641.443	-8
641.477	2
641.511	6
641.545	14
641.579	-2
641.614	-1
641.648	10
641.682	-20
641.716	9
641.75	28
641.784	1
641.818	1
641.852	10
641.886	0
641.919	16
641.953	13
641.987	-8
642.021	-10
642.055	2
642.089	1
642.123	-9
642.157	-18
642.191	0
642.225	4
642.259	-10
642.293	20
642.327	10
642.361	3
642.395	13
642.429	15
642.463	10
642.497	36
642.531	-3
642.565	10
642.599	16
642.633	-1
642.666	13
642.7	6
642.734	9
642.768	-4
642.802	16
642.836	6
642.87	0
642.904	10
642.938	7
642.972	-4
643.005	-4
643.039	22
643.073	5
643.107	4
643.141	11
643.175	6
643.209	-5
643.243	-4
643.276	-17
643.31	13
643.344	-1
643.378	12
643.412	7
643.446	1
643.48	-5
643.513	10
643.547	-10
643.581	-2
643.615	8
643.649	9
643.683	-1
643.716	3
643.75	-1
643.784	-4
643.818	10
643.852	-15
643.886	6
643.919	2
643.953	4
643.987	7
644.021	25
644.055	18
644.088	0
644.122	-7
644.156	5
644.19	15
644.224	19
644.257	-1
644.291	23
644.325	4
644.359	10
644.392	23
644.426	11
644.46	12
644.494	15
644.527	-2
644.561	-1
644.595	12
644.629	9
644.662	2
644.696	4
644.73	14
644.764	0
644.797	13
644.831	4
644.865	7
644.899	2
644.932	32
644.966	11
645	7
645.033	11
645.067	1
645.101	5
645.135	-25
645.168	-4
645.202	-18
645.236	16
645.269	14
645.303	1
645.337	-15
645.37	-7
645.404	1
645.438	-5
645.471	-13
645.505	12
645.539	6
645.572	-23
645.606	-7
645.64	13
645.673	6
645.707	30
645.741	4
645.774	-8
645.808	5
645.842	-7
645.875	13
645.909	-1
645.943	-1
645.976	-6
646.01	10
646.043	3
646.077	12
646.111	16
646.144	12
646.178	-3
646.212	-1
646.245	-4
646.279	-1
646.312	17
646.346	28
646.38	-3
646.413	13
646.447	-6
646.48	-3
646.514	7
646.547	7
646.581	-2
646.615	-4
646.648	-17
646.682	-7
646.715	6
646.749	-1
646.782	-9
646.816	-25
646.85	9
646.883	-14
646.917	7
646.95	3
646.984	-15
647.017	0
647.051	-4
647.084	8
647.118	-8
647.151	-5
647.185	2
647.218	-4
647.252	4
647.285	-18
647.319	-11
647.353	12
647.386	10
647.42	-3
647.453	-12
647.487	-6
647.52	18
647.553	6
647.587	0
647.62	-14
647.654	7
647.687	15
647.721	6
647.754	4
647.788	3
647.821	-17
647.855	9
647.888	3
647.922	18
647.955	-5
647.989	-11
648.022	18
648.055	14
648.089	10
648.122	17
648.156	7
648.189	-6
648.223	10
648.256	15
648.29	20
648.323	13
648.356	11
648.39	3
648.423	4
648.457	-2
648.49	4
648.523	4
648.557	0
648.59	-4
648.624	-3
648.657	3
648.69	17
648.724	0
648.757	19
648.791	13
648.824	8
648.857	25
648.891	-5
648.924	7
648.957	15
648.991	6
649.024	11
649.057	5
649.091	-1
649.124	-1
649.158	7
649.191	21
649.224	12
649.258	12
649.291	20
649.324	7
649.358	8
649.391	9
649.424	1
649.458	-4
649.491	17
649.524	8
649.557	-5
649.591	-18
649.624	9
649.657	0
649.691	-3
649.724	1
649.757	6
649.791	-3
649.824	15
649.857	26
649.89	-2
649.924	-2
649.957	1
649.99	-9
650.023	-2
650.057	0
650.09	11
650.123	1
650.157	22
650.19	10
650.223	1
650.256	-2
650.29	-2
650.323	4
650.356	7
650.389	-6
650.423	-17
650.456	2
650.489	3
650.522	13
650.555	14
650.589	11
650.622	8
650.655	16
650.688	-1
650.721	4
650.755	1
650.788	13
650.821	3
650.854	8
650.887	8
650.921	-3
650.954	-3
650.987	12
651.02	8
651.053	4
651.087	-12
651.12	12
651.153	4
651.186	-1
651.219	-16
651.252	0
651.286	-5
651.319	-15
651.352	-2
651.385	6
651.418	7
651.451	13
651.484	12
651.518	1
651.551	19
651.584	-7
651.617	12
651.65	-16
651.683	14
651.716	-17
651.749	-8
651.783	-3
651.816	14
651.849	17
651.882	8
651.915	9
651.948	6
651.981	-6
652.014	-14
652.047	-14
652.08	-1
652.114	12
652.147	-8
652.18	1
652.213	21
652.246	0
652.279	-6
652.312	21
652.345	20
652.378	-3
652.411	16
652.444	25
652.477	13
652.51	-3
652.543	-12
652.576	-14
652.609	-14
652.642	6
652.675	9
652.709	11
652.742	10
652.775	2
652.808	9
652.841	7
652.874	13
652.907	8
652.94	2
652.973	-12
653.006	3
653.039	-13
653.072	1
653.105	0
653.138	-24
653.171	16
653.204	-3
653.237	8
653.27	-1
653.303	7
653.336	-2
653.368	1
653.401	17
653.434	0
653.467	8
653.5	-9
653.533	2
653.566	6
653.599	16
653.632	11
653.665	11
653.698	-9
653.731	-12
653.764	5
653.797	14
653.83	18
653.863	15
653.896	24
653.929	4
653.961	11
653.994	8
654.027	-19
654.06	0
654.093	13
654.126	17
654.159	8
654.192	15
654.225	6
654.258	-6
654.29	-3
654.323	8
654.356	-17
654.389	-3
654.422	-7
654.455	20
654.488	9
654.521	-5
654.553	-23
654.586	17
654.619	6
654.652	1
654.685	15
654.718	-2
654.751	11
654.783	17
654.816	22
654.849	7
654.882	10
654.915	-19
654.948	5
654.98	2
655.013	-5
655.046	-9
655.079	1
655.112	-2
655.144	-3
655.177	-1
655.21	14
655.243	10
655.276	8
655.308	2
655.341	-1
655.374	2
655.407	2
655.44	-10
655.472	-2
655.505	1
655.538	-2
655.571	13
655.603	17
655.636	-7
655.669	12
655.702	12
655.734	-1
655.767	-4
655.8	6
655.833	5
655.865	28
655.898	-2
655.931	1
655.964	23
655.996	12
656.029	29
656.062	22
656.095	52
656.127	71
656.16	189
656.193	627
656.225	954
656.258	532
656.291	218
656.324	169
656.356	353
656.389	769
656.422	687
656.454	241
656.487	71
656.52	49
656.552	8
656.585	14
656.618	14
656.65	18
656.683	6
656.716	-3
656.748	8
656.781	6
656.814	-13
656.846	6
656.879	4
656.912	2
656.944	2
656.977	3
657.01	3
657.042	10
657.075	11
657.108	8
657.14	7
657.173	29
657.205	38
657.238	2
657.271	21
657.303	8
657.336	4
657.369	13
657.401	14
657.434	5
657.466	-5
657.499	7
657.532	-11
657.564	0
657.597	-3
657.629	11
657.662	9
657.694	10
657.727	-9
657.76	-7
657.792	-18
657.825	-7
657.857	9
657.89	-1
657.922	5
657.955	-9
657.987	-7
658.02	19
658.053	19
658.085	11
658.118	20
658.15	25
658.183	21
658.215	5
658.248	-3
658.28	-1
658.313	15
658.345	-9
658.378	6
658.41	-8
658.443	8
658.475	0
658.508	6
658.54	22
658.573	2
658.605	-4
658.638	-10
658.67	-11
658.703	-9
658.735	-22
658.768	14
658.8	-8
658.833	15
658.865	0
658.898	2
658.93	-5
658.963	7
658.995	-13
659.028	2
659.06	-4
659.092	-4
659.125	7
659.157	28
659.19	1
659.222	-16
659.255	-3
659.287	6
659.32	7
659.352	14
659.384	9
659.417	2
659.449	-1
659.482	-4
659.514	-3
659.546	4
659.579	-4
659.611	13
659.644	-9
659.676	-7
659.708	-8
659.741	-2
659.773	16
659.806	2
659.838	11
659.87	9
659.903	4
659.935	11
659.967	19
660	17
660.032	-2
660.065	23
660.097	-1
660.129	3
660.162	-12
660.194	10
660.226	7
660.259	3
660.291	-4
660.323	-3
660.356	10
660.388	0
660.42	-1
660.453	-1
660.485	8
660.517	13
660.55	30
660.582	14
660.614	4
660.647	5
660.679	-13
660.711	3
660.743	-7
660.776	-5
660.808	3
660.84	-6
660.873	2
660.905	-7
660.937	-15
660.969	-9
661.002	6
661.034	20
661.066	-6
661.099	9
661.131	16
661.163	7
661.195	-3
661.228	22
661.26	7
661.292	-15
661.324	23
661.357	15
661.389	6
661.421	9
661.453	1
661.485	-13
661.518	18
661.55	-7
661.582	-13
661.614	3
661.647	4
661.679	7
661.711	15
661.743	-14
661.775	10
661.808	10
661.84	-5
661.872	7
661.904	-6
661.936	6
661.969	-8
662.001	-1
662.033	-23
662.065	0
662.097	17
662.129	8
662.162	-24
662.194	3
662.226	5
662.258	18
662.29	-1
662.322	-14
662.355	-11
662.387	17
662.419	9
662.451	21
662.483	17
662.515	3
662.547	3
662.58	-2
662.612	-3
662.644	-14
662.676	7
662.708	8
662.74	5
662.772	3
662.804	8
662.836	0
662.869	4
662.901	13
662.933	1
662.965	27
662.997	13
663.029	-10
663.061	2
663.093	-5
663.125	9
663.157	2
663.189	13
663.221	18
663.254	-1
663.286	6
663.318	-15
663.35	-5
663.382	25
663.414	0
663.446	7
663.478	9
663.51	39
663.542	-11
663.574	-4
663.606	-6
663.638	-1
663.67	4
663.702	8
663.734	-4
663.766	11
663.798	0
663.83	1
663.862	-5
663.894	-5
663.926	7
663.958	10
663.99	5
664.022	-9
664.054	9
664.086	-10
664.118	-12
664.15	-1
664.182	13
664.214	10
664.246	14
664.278	11
664.31	17
664.342	11
664.374	12
664.406	-7
664.438	5
664.47	18
664.502	4
664.534	5
664.566	-2
664.598	21
664.63	5
664.662	8
664.693	8
664.725	-7
664.757	6
664.789	-11
664.821	7
664.853	8
664.885	1
664.917	-4
664.949	27
664.981	19
665.013	2
665.045	-14
665.076	3
665.108	16
665.14	5
665.172	7
665.204	11
665.236	-4
665.268	16
665.3	-5
665.331	-19
665.363	-8
665.395	-14
665.427	-2
665.459	15
665.491	0
665.523	-10
665.555	-18
665.586	9
665.618	5
665.65	-12
665.682	3
665.714	-5
665.746	4
665.777	-3
665.809	-10
665.841	12
665.873	-2
665.905	-3
665.937	13
665.968	5
666	5
666.032	1
666.064	-18
666.096	-9
666.127	6
666.159	7
666.191	2
666.223	-1
666.255	-4
666.286	5
666.318	-8
666.35	17
666.382	7
666.413	-7
666.445	-4
666.477	-16
666.509	-9
666.54	-6
666.572	-1
666.604	-2
666.636	3
666.667	7
666.699	9
666.731	6
666.763	-12
666.794	4
666.826	7
666.858	1
666.89	27
666.921	-1
666.953	-12
666.985	16
667.017	4
667.048	8
667.08	-11
667.112	-15
667.143	3
667.175	6
667.207	3
667.238	8
667.27	-3
667.302	11
667.334	8
667.365	11
667.397	5
667.429	-10
667.46	16
667.492	13
667.524	10
667.555	-10
667.587	8
667.619	10
667.65	12
667.682	17
667.714	10
667.745	4
667.777	0
667.808	4
667.84	10
667.872	2
667.903	13
667.935	-5
667.967	-7
667.998	5
668.03	8
668.061	13
668.093	-1
668.125	9
668.156	7
668.188	-8
668.22	-12
668.251	6
668.283	11
668.314	18
668.346	-1
668.377	5
668.409	-3
668.441	4
668.472	30
668.504	6
668.535	-7
668.567	8
668.599	4
668.63	5
668.662	11
668.693	19
668.725	16
668.756	7
668.788	12
668.819	-5
668.851	10
668.882	-1
668.914	5
668.946	9
668.977	5
669.009	-6
669.04	3
669.072	-16
669.103	-6
669.135	1
669.166	-16
669.198	3
669.229	20
669.261	3
669.292	-14
669.324	10
669.355	15
669.387	1
669.418	1
669.45	-4
669.481	7
669.513	4
669.544	18
669.576	13
669.607	13
669.639	13
669.67	-4
669.701	23
669.733	2
669.764	2
669.796	2
669.827	2
669.859	3
669.89	5
669.922	19
669.953	11
669.985	6
670.016	14
670.047	5
670.079	13
670.11	11
670.142	10
670.173	-1
670.204	-3
670.236	3
670.267	-4
670.299	2
670.33	9
670.362	16
670.393	3
670.424	13
670.456	-8
670.487	10
670.518	4
670.55	1
670.581	-1
670.613	13
670.644	-3
670.675	-1
670.707	-1
670.738	7
670.769	-2
670.801	-2
670.832	1
670.864	-1
670.895	18
670.926	-1
670.958	13
670.989	3
671.02	-4
671.052	-2
671.083	-5
671.114	-12
671.146	16
671.177	3
671.208	-3
671.24	4
671.271	-1
671.302	25
671.333	0
671.365	-22
671.396	-9
671.427	7
671.459	-1
671.49	12
671.521	16
671.553	11
671.584	7
671.615	8
671.646	11
671.678	9
671.709	-20
671.74	-9
671.771	-1
671.803	-7
671.834	7
671.865	9
671.896	8
671.928	-2
671.959	-10
671.99	0
672.021	-5
672.053	5
672.084	7
672.115	1
672.146	9
672.178	14
672.209	-13
672.24	13
672.271	35
672.303	10
672.334	8
672.365	12
672.396	3
672.427	3
672.459	8
672.49	15
672.521	18
672.552	26
672.583	16
672.615	5
672.646	11
672.677	9
672.708	5
672.739	-1
672.77	22
672.802	6
672.833	7
672.864	-2
672.895	8
672.926	-5
672.957	-2
672.989	4
673.02	8
673.051	-1
673.082	18
673.113	8
673.144	1
673.175	19
673.206	-4
673.238	-12
673.269	-7
673.3	-10
673.331	9
673.362	12
673.393	19
673.424	8
673.455	24
673.487	13
673.518	0
673.549	-2
673.58	0
673.611	13
673.642	2
673.673	-12
673.704	2
673.735	4
673.766	-3
673.797	2
673.828	-6
673.86	-5
673.891	-22
673.922	-19
673.953	-13
673.984	12
674.015	17
674.046	-2
674.077	1
674.108	-7
674.139	7
674.17	3
674.201	-2
674.232	2
674.263	-3
674.294	6
674.325	-26
674.356	10
674.387	10
674.418	13
674.449	-8
674.48	-13
674.511	0
674.542	10
674.573	-6
674.604	20
674.635	7
674.666	12
674.697	-9
674.728	1
674.759	6
674.79	-14
674.821	-9
674.852	19
674.883	2
674.914	12
674.945	-12
674.976	6
675.007	-12
675.038	-14
675.069	-8
675.1	-21
675.131	23
675.162	-14
675.193	2
675.224	1
675.254	16
675.285	11
675.316	6
675.347	7
675.378	-18
675.409	-5
675.44	15
675.471	-5
675.502	-12
675.533	10
675.564	3
675.595	-6
675.625	24
675.656	13
675.687	4
675.718	-14
675.749	1
675.78	14
675.811	7
675.842	-1
675.873	1
675.903	3
675.934	12
675.965	-4
675.996	2
676.027	11
676.058	0
676.089	-16
676.119	20
676.15	-2
676.181	19
676.212	8
676.243	18
676.274	7
676.304	25
676.335	9
676.366	10
676.397	3
676.428	6
676.459	5
676.489	9
676.52	2
676.551	-9
676.582	-5
676.613	-15
676.643	7
676.674	20
676.705	3
676.736	-6
676.767	8
676.797	10
676.828	-5
676.859	-3
676.89	-13
676.92	6
676.951	-10
676.982	-5
677.013	-1
677.044	15
677.074	-2
677.105	0
677.136	19
677.167	-3
677.197	-3
677.228	-1
677.259	-11
677.289	17
677.32	-19
677.351	-1
677.382	-6
677.412	-12
677.443	3
677.474	1
677.505	-14
677.535	5
677.566	15
677.597	-8
677.627	8
677.658	8
677.689	-3
677.72	-6
677.75	-3
677.781	3
677.812	17
677.842	7
677.873	8
677.904	13
677.934	3
677.965	-2
677.996	-12
678.026	4
678.057	1
678.088	-2
678.118	6
678.149	-5
678.18	-9
678.21	-5
678.241	-2
678.272	10
678.302	5
678.333	-2
678.363	11
678.394	-1
678.425	-6
678.455	0
678.486	14
678.517	11
678.547	12
678.578	11
678.608	6
678.639	16
678.67	9
678.7	11
678.731	5
678.761	-1
678.792	5
678.823	13
678.853	7
678.884	-2
678.914	14
678.945	25
678.975	0
679.006	12
679.037	-7
679.067	27
679.098	14
679.128	11
679.159	7
679.189	14
679.22	-11
679.25	-7
679.281	1
679.312	-9
679.342	-12
679.373	25
679.403	4
679.434	-2
679.464	5
679.495	-2
679.525	0
679.556	15
679.586	16
679.617	11
679.647	4
679.678	19
679.708	2
679.739	-1
679.769	1
679.8	21
679.83	-4
679.861	20
679.891	11
679.922	9
679.952	0
679.983	14
680.013	5
680.044	-1
680.074	19
680.105	9
680.135	14
680.165	17
680.196	15
680.226	-2
680.257	16
680.287	4
680.318	1
680.348	3
680.379	0
680.409	12
680.439	-8
680.47	9
680.5	7
680.531	-1
680.561	3
680.592	8
680.622	29
680.652	9
680.683	15
680.713	10
680.744	-15
680.774	-6
680.804	8
680.835	2
680.865	-4
680.896	23
680.926	15
680.956	6
680.987	17
681.017	6
681.047	14
681.078	-3
681.108	-5
681.139	2
681.169	0
681.199	-9
681.23	2
681.26	-1
681.29	11
681.321	-11
681.351	2
681.381	-17
681.412	2
681.442	7
681.472	13
681.503	1
681.533	1
681.563	-7
681.594	-5
681.624	6
681.654	-5
681.685	-6
681.715	13
681.745	10
681.775	2
681.806	-1
681.836	3
681.866	-4
681.897	14
681.927	6
681.957	-10
681.987	0
682.018	11
682.048	8
682.078	0
682.109	6
682.139	14
682.169	10
682.199	-4
682.23	10
682.26	7
682.29	-2
682.32	12
682.351	-9
682.381	21
682.411	4
682.441	-6
682.472	4
682.502	-5
682.532	-17
682.562	4
682.592	26
682.623	13
682.653	13
682.683	-5
682.713	3
682.743	4
682.774	16
682.804	12
682.834	15
682.864	11
682.894	-1
682.925	-2
682.955	5
682.985	-10
683.015	2
683.045	8
683.076	-14
683.106	12
683.136	-2
683.166	8
683.196	2
683.226	-8
683.257	-1
683.287	6
683.317	4
683.347	-13
683.377	9
683.407	4
683.437	11
683.468	18
683.498	-8
683.528	2
683.558	15
683.588	-9
683.618	-3
683.648	-10
683.678	5
683.708	8
683.739	25
683.769	2
683.799	-4
683.829	-2
683.859	12
683.889	30
683.919	6
683.949	7
683.979	3
684.009	-1
684.039	11
684.07	-6
684.1	17
684.13	11
684.16	-4
684.19	-9
684.22	5
684.25	7
684.28	9
684.31	18
684.34	10
684.37	2
684.4	-7
684.43	3
684.46	12
684.49	5
684.52	15
684.55	0
684.58	3
684.61	5
684.64	9
684.67	18
684.7	0
684.73	15
684.76	1
684.79	10
684.82	-10
684.85	3
684.88	21
684.91	10
684.94	6
684.97	-3
685	-2
685.03	-18
685.06	1
685.09	9
685.12	23
685.15	-8
685.18	0
685.21	-6
685.24	10
685.27	7
685.3	26
685.33	17
685.36	4
685.39	-19
685.42	-2
685.45	6
685.48	9
685.51	-5
685.54	13
685.569	11
685.599	37
685.629	4
685.659	15
685.689	1
685.719	7
685.749	9
685.779	4
685.809	12
685.839	23
685.869	11
685.898	20
685.928	1
685.958	12
685.988	35
686.018	5
686.048	6
686.078	18
686.108	6
686.137	10
686.167	31
686.197	-14
686.227	-7
686.257	20
686.287	13
686.317	4
686.346	-12
686.376	-5
686.406	-1
686.436	14
686.466	0
686.496	4
686.525	7
686.555	-3
686.585	8
686.615	18
686.645	12
686.675	19
686.704	5
686.734	17
686.764	2
686.794	18
686.824	-2
686.853	26
686.883	20
686.913	11
686.943	4
686.973	7
687.002	9
687.032	13
687.062	6
687.092	11
687.121	-8
687.151	6
687.181	5
687.211	7
687.24	8
687.27	15
687.3	6
687.33	6
687.359	-6
687.389	17
687.419	7
687.449	11
687.478	6
687.508	15
687.538	12
687.568	-1
687.597	-8
687.627	12
687.657	9
687.686	9
687.716	29
687.746	-4
687.776	3
687.805	6
687.835	1
687.865	31
687.894	16
687.924	-6
687.954	-15
687.983	-5
688.013	2
688.043	20
688.072	4
688.102	-5
688.132	7
688.161	6
688.191	9
688.221	27
688.25	4
688.28	5
688.31	-6
688.339	4
688.369	2
688.399	-15
688.428	-22
688.458	8
688.488	7
688.517	7
688.547	-8
688.576	24
688.606	19
688.636	-4
688.665	9
688.695	7
688.725	19
688.754	24
688.784	31
688.813	21
688.843	9
688.873	-1
688.902	1
688.932	5
688.961	1
688.991	27
689.02	25
689.05	8
689.08	9
689.109	4
689.139	4
689.168	11
689.198	18
689.227	-8
689.257	11
689.287	14
689.316	5
689.346	-7
689.375	6
689.405	12
689.434	11
689.464	-1
689.493	-8
689.523	-2
689.552	-8
689.582	-5
689.611	-3
689.641	3
689.67	0
689.7	18
689.73	7
689.759	-2
689.789	22
689.818	4
689.848	-6
689.877	15
689.906	10
689.936	5
689.965	12
689.995	9
690.024	4
690.054	-4
690.083	14
690.113	3
690.142	5
690.172	4
690.201	-4
690.231	3
690.26	11
690.29	5
690.319	7
690.348	-7
690.378	19
690.407	11
690.437	4
690.466	-11
690.496	-6
690.525	2
690.555	2
690.584	-8
690.613	4
690.643	14
690.672	12
690.702	12
690.731	-6
690.76	8
690.79	-14
690.819	-2
690.849	0
690.878	-1
690.907	-1
690.937	12
690.966	13
690.996	8
691.025	8
691.054	-4
691.084	10
691.113	6
691.142	17
691.172	4
691.201	13
691.23	2
691.26	8
691.289	8
691.319	2
691.348	3
691.377	11
691.407	-6
691.436	-3
691.465	10
691.495	-1
691.524	-2
691.553	2
691.583	4
691.612	26
691.641	9
691.67	19
691.7	21
691.729	-5
691.758	4
691.788	8
691.817	0
691.846	10
691.876	11
691.905	4
691.934	7
691.963	13
691.993	10
692.022	2
692.051	5
692.081	10
692.11	18
692.139	15
692.168	14
692.198	7
692.227	9
692.256	-4
692.285	7
692.315	4
692.344	4
692.373	16
692.402	-7
692.432	-7
692.461	2
692.49	9
692.519	0
692.548	16
692.578	9
692.607	-5
692.636	-6
692.665	3
692.694	16
692.724	4
692.753	28
692.782	21
692.811	8
692.84	23
692.87	6
692.899	-17
692.928	-5
692.957	17
692.986	14
693.016	15
693.045	8
693.074	-7
693.103	6
693.132	14
693.161	14
693.191	-6
693.22	-13
693.249	7
693.278	6
693.307	13
693.336	-14
693.365	-25
693.395	3
693.424	10
693.453	10
693.482	-7
693.511	21
693.54	13
693.569	11
693.598	15
693.628	19
693.657	22
693.686	19
693.715	9
693.744	10
693.773	8
693.802	13
693.831	-14
693.86	19
693.889	-12
693.919	2
693.948	-2
693.977	4
694.006	13
694.035	-4
694.064	5
694.093	-2
694.122	10
694.151	4
694.18	12
694.209	17
694.238	-2
694.267	30
694.296	21
694.325	10
694.354	20
694.383	11
694.412	-9
694.441	2
694.471	-12
694.5	-7
694.529	19
694.558	26
694.587	34
694.616	-1
694.645	7
694.674	6
694.703	15
694.732	4
694.761	20
694.79	21
694.819	-8
694.848	9
694.877	19
694.906	32
694.935	15
694.963	5
694.992	0
695.021	-6
695.05	8
695.079	10
695.108	4
695.137	31
695.166	10
695.195	5
695.224	30
695.253	-7
695.282	2
695.311	-2
695.34	6
695.369	5
695.398	3
695.427	28
695.456	8
695.485	20
695.513	0
695.542	-8
695.571	-2
695.6	41
695.629	9
695.658	15
695.687	10
695.716	0
695.745	15
695.774	7
695.802	4
695.831	1
695.86	8
695.889	8
695.918	30
695.947	1
695.976	7
696.005	10
696.033	1
696.062	9
696.091	8
696.12	-5
696.149	18
696.178	2
696.207	4
696.235	-22
696.264	16
696.293	0
696.322	25
696.351	18
696.38	-5
696.408	-6
696.437	7
696.466	11
696.495	19
696.524	14
696.553	15
696.581	14
696.61	0
696.639	-1
696.668	6
696.697	16
696.725	20
696.754	13
696.783	8
696.812	7
696.84	2
696.869	14
696.898	10
696.927	6
696.956	5
696.984	6
697.013	10
697.042	4
697.071	0
697.099	8
697.128	20
697.157	23
697.186	-1
697.214	-17
697.243	9
697.272	2
697.301	20
697.329	18
697.358	2
697.387	14
697.415	8
697.444	3
697.473	14
697.502	0
697.53	9
697.559	2
697.588	13
697.616	14
697.645	0
697.674	11
697.703	16
697.731	27
697.76	16
697.789	-1
697.817	7
697.846	32
697.875	22
697.903	21
697.932	19
697.961	6
697.989	6
698.018	11
698.047	4
698.075	9
698.104	-5
698.133	-7
698.161	-6
698.19	10
698.218	11
698.247	8
698.276	-1
698.304	9
698.333	9
698.362	16
698.39	2
698.419	6
698.447	7
698.476	4
698.505	9
698.533	-2
698.562	6
698.591	-14
698.619	5
698.648	7
698.676	18
698.705	-11
698.733	-6
698.762	8
698.791	2
698.819	-1
698.848	12
698.876	12
698.905	6
698.933	4
698.962	9
698.991	11
699.019	32
699.048	6
699.076	0
699.105	-1
699.133	1
699.162	22
699.19	22
699.219	10
699.248	4
699.276	3
699.305	-7
699.333	21
699.362	12
699.39	4
699.419	2
699.447	-9
699.476	18
699.504	-4
699.533	10
699.561	7
699.59	-6
699.618	22
699.647	18
699.675	23
699.704	15
699.732	-13
699.761	13
699.789	6
699.818	5
699.846	0
699.874	-4
699.903	5
699.931	-4
699.96	5
699.988	4
700.017	2
700.045	10
700.074	1
700.102	1
700.13	-12
700.159	11
700.187	19
700.216	12
700.244	-8
700.273	-1
700.301	11
700.329	20
700.358	16
700.386	-5
700.415	5
700.443	2
700.472	13
700.5	13
700.528	12
700.557	-1
700.585	13
700.614	-4
700.642	26
700.67	38
700.699	7
700.727	-9
700.755	-2
700.784	3
700.812	-8
700.841	15
700.869	-2
700.897	-21
700.926	3
700.954	12
700.982	9
701.011	2
701.039	3
701.067	12
701.096	11
701.124	-10
701.152	17
701.181	14
701.209	-1
701.237	5
701.266	-5
701.294	10
701.322	8
701.351	9
701.379	11
701.407	-7
701.435	8
701.464	15
701.492	30
701.52	-4
701.549	-2
701.577	0
701.605	1
701.634	10
701.662	15
701.69	7
701.718	-9
701.747	14
701.775	14
701.803	-6
701.831	8
701.86	-5
701.888	24
701.916	3
701.944	3
701.973	-4
702.001	-23
702.029	-10
702.057	-2
702.086	-3
702.114	-8
702.142	4
702.17	9
702.199	11
702.227	-2
702.255	-11
702.283	8
702.311	16
702.34	11
702.368	1
702.396	11
702.424	10
702.452	0
702.481	3
702.509	-4
702.537	21
702.565	9
702.593	-10
702.621	14
702.65	24
702.678	2
702.706	6
702.734	2
702.762	8
702.79	19
702.819	10
702.847	4
702.875	23
702.903	23
702.931	9
702.959	23
702.988	27
703.016	-6
703.044	6
703.072	-7
703.1	-9
703.128	14
703.156	21
703.184	5
703.212	11
703.241	12
703.269	4
703.297	10
703.325	14
703.353	10
703.381	13
703.409	11
703.437	-5
703.465	2
703.493	-2
703.522	8
703.55	15
703.578	11
703.606	-8
703.634	3
703.662	-1
703.69	-12
703.718	-1
703.746	10
703.774	6
703.802	18
703.83	-8
703.858	0
703.886	-4
703.914	12
703.942	12
703.97	5
703.998	9
704.027	22
704.055	15
704.083	6
704.111	-4
704.139	-3
704.167	4
704.195	17
704.223	0
704.251	-18
704.279	7
704.307	12
704.335	-20
704.363	4
704.391	-5
704.419	5
704.447	-13
704.475	7
704.503	2
704.531	-5
704.558	4
704.586	-5
704.614	-4
704.642	-11
704.67	-8
704.698	-1
704.726	13
704.754	4
704.782	3
704.81	0
704.838	10
704.866	3
704.894	-21
704.922	-7
704.95	12
704.978	19
705.006	5
705.034	11
705.061	-5
705.089	7
705.117	-17
705.145	-16
705.173	-5
705.201	14
705.229	10
705.257	8
705.285	15
705.313	11
705.34	10
705.368	3
705.396	8
705.424	1
705.452	-5
705.48	8
705.508	-1
705.536	-1
705.563	15
705.591	11
705.619	-4
705.647	4
705.675	1
705.703	16
705.731	19
705.758	19
705.786	7
705.814	16
705.842	11
705.87	23
705.898	7
705.925	-3
705.953	16
705.981	2
706.009	0
706.037	12
706.065	8
706.092	-4
706.12	-1
706.148	-1
706.176	-4
706.204	13
706.231	-1
706.259	-6
706.287	1
706.315	12
706.342	12
706.37	8
706.398	8
706.426	1
706.454	3
706.481	4
706.509	10
706.537	-11
706.565	5
706.592	12
706.62	13
706.648	18
706.676	3
706.703	8
706.731	-8
706.759	-2
706.787	12
706.814	9
706.842	12
706.87	1
706.897	6
706.925	13
706.953	16
706.981	14
707.008	17
707.036	-4
707.064	4
707.091	-10
707.119	7
707.147	3
707.174	-14
707.202	15
707.23	6
707.258	-4
707.285	-7
707.313	13
707.341	6
707.368	-2
707.396	-4
707.424	6
707.451	-5
707.479	-6
707.507	-8
707.534	-14
707.562	4
707.59	3
707.617	-14
707.645	-7
707.672	-14
707.7	6
707.728	18
707.755	16
707.783	-10
707.811	21
707.838	9
707.866	3
707.893	12
707.921	5
707.949	-3
707.976	-8
708.004	1
708.031	0
708.059	5
708.087	10
708.114	13
708.142	2
708.169	-9
708.197	-17
708.225	0
708.252	11
708.28	8
708.307	-17
708.335	3
708.362	-4
708.39	-18
708.418	9
708.445	3
708.473	15
708.5	4
708.528	-1
708.555	4
708.583	0
708.61	-3
708.638	20
708.665	4
708.693	8
708.72	-10
708.748	-5
708.776	-13
708.803	14
708.831	18
708.858	12
708.886	15
708.913	-6
708.941	3
708.968	22
708.996	3
709.023	22
709.051	-3
709.078	-6
709.105	5
709.133	-3
709.16	21
709.188	19
709.215	8
709.243	6
709.27	2
709.298	6
709.325	1
709.353	8
709.38	4
709.408	7
709.435	7
709.462	0
709.49	-7
709.517	-2
709.545	-4
709.572	0
709.6	4
709.627	10
709.655	21
709.682	5
709.709	1
709.737	21
709.764	0
709.792	6
709.819	-5
709.846	3
709.874	11
709.901	15
709.929	24
709.956	13
709.983	-7
710.011	3
710.038	5
710.066	30
710.093	19
710.12	6
710.148	-14
710.175	-4
710.202	-1
710.23	12
710.257	12
710.284	10
710.312	20
710.339	14
710.366	12
710.394	4
710.421	18
710.448	3
710.476	-18
710.503	11
710.53	-3
710.558	24
710.585	10
710.612	6
710.64	0
710.667	-1
710.694	5
710.722	16
710.749	18
710.776	10
710.804	32
710.831	3
710.858	-1
710.885	3
710.913	-9
710.94	8
710.967	7
710.995	-4
711.022	-5
711.049	19
711.076	0
711.104	2
711.131	-8
711.158	-6
711.185	21
711.213	-10
711.24	-2
711.267	3
711.294	2
711.322	22
711.349	6
711.376	11
711.403	11
711.431	-2
711.458	4
711.485	4
711.512	8
711.54	-4
711.567	-8
711.594	-13
711.621	-1
711.648	12
711.676	0
711.703	7
711.73	-12
711.757	-4
711.784	6
711.812	-10
711.839	11
711.866	6
711.893	-7
711.92	18
711.947	-4
711.975	3
712.002	-5
712.029	8
712.056	-1
712.083	10
712.11	5
712.138	6
712.165	13
712.192	9
712.219	-1
712.246	5
712.273	10
712.3	8
712.328	0
712.355	15
712.382	-14
712.409	8
712.436	-3
712.463	14
712.49	6
712.517	11
712.544	1
712.572	25
712.599	-5
712.626	4
712.653	2
712.68	-11
712.707	18
712.734	7
712.761	4
712.788	7
712.815	-9
712.842	-2
712.87	2
712.897	9
712.924	-8
712.951	9
712.978	26
713.005	18
713.032	19
713.059	3
713.086	8
713.113	4
713.14	-2
713.167	11
713.194	7
713.221	7
713.248	20
713.275	1
713.302	6
713.329	19
713.356	17
713.383	7
713.41	21
713.437	-4
713.464	-7
713.491	28
713.518	10
713.545	4
713.572	-2
713.599	22
713.626	5
713.653	12
713.68	5
713.707	1
713.734	1
713.761	7
713.788	3
713.815	-1
713.842	1
713.869	-4
713.896	-2
713.923	-8
713.95	-6
713.977	-2
714.004	-3
714.031	3
714.058	-12
714.085	3
714.112	20
714.139	14
714.165	1
714.192	-8
714.219	18
714.246	0
714.273	-7
714.3	3
714.327	1
714.354	6
714.381	10
714.408	-3
714.435	2
714.461	7
714.488	-12
714.515	-4
714.542	10
714.569	10
714.596	7
714.623	-2
714.65	-7
714.677	-5
714.703	2
714.73	13
714.757	7
714.784	2
714.811	-7
714.838	18
714.865	3
714.891	10
714.918	12
714.945	-17
714.972	-13
714.999	3
715.026	-18
715.052	6
715.079	0
715.106	-6
715.133	15
715.16	15
715.187	-1
715.213	6
715.24	2
715.267	1
715.294	-8
715.321	-8
715.347	0
715.374	-15
715.401	3
715.428	3
715.455	10
715.481	5
715.508	10
715.535	7
715.562	38
715.588	8
715.615	11
715.642	1
715.669	18
715.695	-8
715.722	11
715.749	1
715.776	13
715.802	-2
715.829	1
715.856	-2
715.883	1
715.909	0
715.936	10
715.963	24
715.99	-12
716.016	3
716.043	3
716.07	-13
716.096	-5
716.123	7
716.15	-2
716.177	-3
716.203	23
716.23	19
716.257	0
716.283	9
716.31	10
716.337	11
716.363	3
716.39	-3
716.417	9
716.443	1
716.47	15
716.497	15
716.523	0
716.55	-2
716.577	10
716.603	1
716.63	3
716.657	3
716.683	-16
716.71	2
716.737	15
716.763	4
716.79	15
716.817	10
716.843	8
716.87	-4
716.897	4
716.923	15
716.95	14
716.976	1
717.003	-1
717.03	9
717.056	15
717.083	4
717.109	10
717.136	0
717.163	7
717.189	16
717.216	8
717.242	3
717.269	-2
717.296	11
717.322	18
717.349	9
717.375	6
717.402	-8
717.428	-3
717.455	-4
717.481	15
717.508	16
717.535	24
717.561	12
717.588	5
717.614	0
717.641	10
717.667	3
717.694	18
717.72	10
717.747	0
717.773	-7
717.8	12
717.826	-1
717.853	14
717.88	30
717.906	15
717.933	4
717.959	2
717.986	10
718.012	-4
718.039	22
718.065	19
718.092	17
718.118	-2
718.144	0
718.171	9
718.197	17
718.224	31
718.25	4
718.277	4
718.303	3
718.33	6
718.356	-12
718.383	-18
718.409	3
718.436	-4
718.462	-12
718.489	2
718.515	4
718.541	13
718.568	4
718.594	9
718.621	9
718.647	8
718.674	19
718.7	12
718.726	24
718.753	7
718.779	13
718.806	9
718.832	-8
718.858	-17
718.885	7
718.911	11
718.938	24
718.964	-10
718.99	7
719.017	10
719.043	16
719.07	15
719.096	12
719.122	13
719.149	2
719.175	11
719.201	14
719.228	3
719.254	-3
719.281	-10
719.307	-2
719.333	11
719.36	19
719.386	6
719.412	5
719.439	-2
719.465	9
719.491	-5
719.518	9
719.544	4
719.57	9
719.597	6
719.623	-2
719.649	12
719.675	6
719.702	14
719.728	17
719.754	0
719.781	-9
719.807	1
719.833	-9
719.86	-5
719.886	-2
719.912	4
719.938	-2
719.965	-1
719.991	14
720.017	2
720.044	5
720.07	3
720.096	3
720.122	2
720.149	4
720.175	22
720.201	5
720.227	4
720.254	24
720.28	14
720.306	3
720.332	7
720.359	-6
720.385	4
720.411	10
720.437	11
720.463	17
720.49	16
720.516	0
720.542	-10
720.568	-5
720.595	6
720.621	-15
720.647	3
720.673	14
720.699	3
720.725	10
720.752	24
720.778	25
720.804	6
720.83	37
720.856	3
720.883	-10
720.909	9
720.935	13
720.961	12
720.987	10
721.013	9
721.04	6
721.066	-7
721.092	-3
721.118	11
721.144	0
721.17	-2
721.196	-6
721.223	0
721.249	9
721.275	23
721.301	-2
721.327	7
721.353	15
721.379	2
721.405	17
721.432	10
721.458	1
721.484	-4
721.51	-17
721.536	9
721.562	3
721.588	8
721.614	12
721.64	10
721.666	4
721.693	-2
721.719	-6
721.745	0
721.771	2
721.797	8
721.823	0
721.849	7
721.875	11
721.901	3
721.927	0
721.953	-1
721.979	11
722.005	10
722.031	8
722.057	4
722.083	8
722.109	3
722.135	13
722.161	14
722.187	-3
722.214	-9
722.24	-8
722.266	-8
722.292	2
722.318	-10
722.344	2
722.37	-1
722.396	14
722.422	-2
722.448	5
722.474	-6
722.5	14
722.526	1
722.552	6
722.578	0
722.603	2
722.629	-5
722.655	11
722.681	7
722.707	2
722.733	3
722.759	0
722.785	-7
722.811	-1
722.837	6
722.863	6
722.889	-3
722.915	-8
722.941	2
722.967	6
722.993	2
723.019	-1
723.045	-9
723.071	13
723.097	7
723.122	2
723.148	7
723.174	10
723.2	12
723.226	0
723.252	6
723.278	1
723.304	8
723.33	8
723.356	-2
723.381	1
723.407	-1
723.433	22
723.459	1
723.485	-2
723.511	15
723.537	-1
723.563	0
723.588	15
723.614	19
723.64	-11
723.666	-2
723.692	3
723.718	-2
723.744	0
723.769	12
723.795	2
723.821	0
723.847	5
723.873	13
723.899	6
723.924	-1
723.95	3
723.976	-9
724.002	0
724.028	18
724.053	7
724.079	2
724.105	5
724.131	-10
724.157	0
724.182	3
724.208	6
724.234	9
724.26	1
724.286	6
724.311	14
724.337	4
724.363	0
724.389	-1
724.415	19
724.44	18
724.466	-2
724.492	4
724.518	9
724.543	13
724.569	20
724.595	10
724.621	2
724.646	-13
724.672	-4
724.698	-7
724.723	3
724.749	-2
724.775	20
724.801	7
724.826	-6
724.852	-7
724.878	-4
724.904	-16
724.929	1
724.955	-4
724.981	4
725.006	-8
725.032	-4
725.058	1
725.083	-12
725.109	3
725.135	9
725.161	3
725.186	6
725.212	-6
725.238	9
725.263	3
725.289	0
725.315	-7
725.34	-15
725.366	11
725.392	1
725.417	12
725.443	11
725.468	2
725.494	9
725.52	4
725.545	-6
725.571	4
725.597	6
725.622	12
725.648	8
725.674	18
725.699	12
725.725	12
725.75	26
725.776	-3
725.802	11
725.827	6
725.853	-18
725.878	-5
725.904	5
725.93	14
725.955	-1
725.981	-1
726.006	-1
726.032	0
726.057	-7
726.083	2
726.109	-2
726.134	3
726.16	9
726.185	2
726.211	12
726.236	8
726.262	7
726.288	11
726.313	14
726.339	21
726.364	15
726.39	15
726.415	-4
726.441	11
726.466	1
726.492	3
726.517	14
726.543	4
726.568	-6
726.594	-1
726.619	16
726.645	17
726.67	4
726.696	-9
726.721	-8
726.747	3
726.772	7
726.798	8
726.823	15
726.849	11
726.874	4
726.9	18
726.925	15
726.951	4
726.976	21
727.002	16
727.027	5
727.053	16
727.078	7
727.104	11
727.129	-9
727.155	7
727.18	12
727.205	14
727.231	-4
727.256	7
727.282	8
727.307	10
727.333	4
727.358	6
727.383	-8
727.409	2
727.434	7
727.46	1
727.485	6
727.511	7
727.536	-9
727.561	7
727.587	0
727.612	8
727.637	28
727.663	1
727.688	30
727.714	-5
727.739	-2
727.764	11
727.79	10
727.815	-6
727.841	10
727.866	7
727.891	1
727.917	-9
727.942	-10
727.967	3
727.993	-8
728.018	8
728.043	4
728.069	4
728.094	7
728.119	5
728.145	30
728.17	2
728.195	3
728.221	23
728.246	0
728.271	-16
728.297	18
728.322	9
728.347	-5
728.373	8
728.398	17
728.423	6
728.448	4
728.474	-1
728.499	10
728.524	0
728.55	2
728.575	-8
728.6	0
728.625	3
728.651	-3
728.676	1
728.701	14
728.727	4
728.752	-9
728.777	-4
728.802	19
728.828	6
728.853	3
728.878	1
728.903	-10
728.929	14
728.954	2
728.979	18
729.004	-1
729.03	-7
729.055	-4
729.08	-13
729.105	2
729.13	3
729.156	0
729.181	0
729.206	-21
729.231	-14
729.256	14
729.282	6
729.307	-4
729.332	-10
729.357	-8
729.382	13
729.408	3
729.433	13
729.458	6
729.483	6
729.508	21
729.533	20
729.559	-1
729.584	-13
729.609	17
729.634	3
729.659	7
729.684	-1
729.71	18
729.735	15
729.76	6
729.785	2
729.81	-1
729.835	-1
729.86	9
729.886	10
729.911	8
729.936	-4
729.961	11
729.986	-7
730.011	-10
730.036	2
730.061	5
730.086	15
730.112	1
730.137	22
730.162	10
730.187	4
730.212	20
730.237	11
730.262	7
730.287	6
730.312	15
730.337	-6
730.362	4
730.387	1
730.413	-12
730.438	-8
730.463	1
730.488	-5
730.513	2
730.538	-4
730.563	11
730.588	8
730.613	26
730.638	17
730.663	11
730.688	12
730.713	3
730.738	10
730.763	-9
730.788	-5
730.813	2
730.838	0
730.863	8
730.888	6
730.913	-8
730.938	-14
730.963	18
730.988	2
731.013	10
731.038	19
731.063	3
731.088	11
731.113	5
731.138	-6
731.163	9
731.188	11
731.213	18
731.238	24
731.263	-2
731.288	0
731.313	10
731.338	21
731.363	7
731.388	9
731.413	9
731.438	16
731.463	15
731.487	4
731.512	7
731.537	10
731.562	7
731.587	2
731.612	-3
731.637	-21
731.662	5
731.687	10
731.712	-4
731.737	1
731.762	-9
731.786	22
731.811	14
731.836	6
731.861	8
731.886	-8
731.911	11
731.936	19
731.961	6
731.986	-8
732.01	6
732.035	4
732.06	29
732.085	-3
732.11	-2
732.135	-8
732.16	10
732.184	3
732.209	-3
732.234	-8
732.259	-9
732.284	4
732.309	-1
732.334	4
732.358	-3
732.383	-16
732.408	-6
732.433	-5
732.458	4
732.482	6
732.507	4
732.532	4
732.557	18
732.582	12
732.607	5
732.631	6
732.656	14
732.681	-1
732.706	1
732.73	9
732.755	-5
732.78	-8
732.805	11
732.83	6
732.854	14
732.879	18
732.904	12
732.929	2
732.953	6
732.978	4
733.003	0
733.028	10
733.052	14
733.077	2
733.102	27
733.127	9
733.151	-1
733.176	14
733.201	-8
733.226	-4
733.25	11
733.275	-1
733.3	11
733.324	6
733.349	25
733.374	14
733.399	-2
733.423	7
733.448	2
733.473	6
733.497	-1
733.522	3
733.547	20
733.571	12
733.596	12
733.621	13
733.646	-2
733.67	-13
733.695	-10
733.72	3
733.744	18
733.769	3
733.794	19
733.818	12
733.843	4
733.867	6
733.892	7
733.917	10
733.941	2
733.966	-10
733.991	-2
734.015	13
734.04	27
734.065	18
734.089	13
734.114	-5
734.138	30
734.163	8
734.188	6
734.212	15
734.237	24
734.261	20
734.286	8
734.311	4
734.335	11
734.36	2
734.384	10
734.409	-2
734.434	-13
734.458	14
734.483	17
734.507	16
734.532	17
734.556	8
734.581	4
734.606	1
734.63	-15
734.655	11
734.679	0
734.704	4
734.728	-2
734.753	7
734.777	12
734.802	10
734.826	18
734.851	15
734.876	6
734.9	14
734.925	24
734.949	2
734.974	18
734.998	11
735.023	-2
735.047	-23
735.072	10
735.096	11
735.121	19
735.145	18
735.17	17
735.194	13
735.219	4
735.243	14
735.268	2
735.292	0
735.317	10
735.341	11
735.365	-7
735.39	13
735.414	26
735.439	16
735.463	12
735.488	4
735.512	26
735.537	4
735.561	19
735.586	15
735.61	-2
735.634	0
735.659	4
735.683	26
735.708	19
735.732	2
735.757	16
735.781	8
735.805	18
735.83	14
735.854	7
735.879	-4
735.903	27
735.927	8
735.952	19
735.976	-4
736.001	4
736.025	11
736.049	3
736.074	-1
736.098	6
736.123	27
736.147	15
736.171	8
736.196	11
736.22	3
736.244	14
736.269	-3
736.293	4
736.317	7
736.342	5
736.366	12
736.39	6
736.415	-7
736.439	-16
736.463	-2
736.488	1
736.512	-1
736.536	12
736.561	36
736.585	9
736.609	13
736.634	6
736.658	13
736.682	0
736.707	-5
736.731	1
736.755	0
736.78	13
736.804	8
736.828	12
736.852	2
736.877	-13
736.901	4
736.925	-2
736.949	-1
736.974	4
736.998	-3
737.022	4
737.047	2
737.071	-1
737.095	16
737.119	34
737.144	16
737.168	1
737.192	0
737.216	12
737.241	-6
737.265	6
737.289	6
737.313	2
737.337	10
737.362	8
737.386	11
737.41	-4
737.434	8
737.459	9
737.483	19
737.507	13
737.531	4
737.555	4
737.58	12
737.604	14
737.628	-5
737.652	14
737.676	-18
737.701	15
737.725	12
737.749	19
737.773	3
737.797	-10
737.821	-11
737.846	0
737.87	28
737.894	14
737.918	-5
737.942	4
737.966	7
737.99	6
738.015	0
738.039	14
738.063	11
738.087	18
738.111	18
738.135	16
738.159	0
738.184	0
738.208	2
738.232	3
738.256	19
738.28	19
738.304	8
738.328	1
738.352	0
738.376	-1
738.4	16
738.425	7
738.449	-5
738.473	11
738.497	13
738.521	7
738.545	1
738.569	17
738.593	25
738.617	14
738.641	8
738.665	7
738.689	10
738.713	-5
738.737	4
738.762	5
738.786	12
738.81	-5
738.834	6
738.858	0
738.882	3
738.906	-6
738.93	8
738.954	-1
738.978	9
739.002	3
739.026	14
739.05	16
739.074	11
739.098	26
739.122	34
739.146	16
739.17	9
739.194	1
739.218	2
739.242	6
739.266	8
739.29	22
739.314	18
739.338	2
739.362	12
739.386	16
739.41	-6
739.434	-15
739.458	17
739.482	23
739.506	16
739.53	13
739.554	23
739.577	20
739.601	12
739.625	-2
739.649	13
739.673	11
739.697	16
739.721	14
739.745	9
739.769	23
739.793	8
739.817	22
739.841	10
739.865	16
739.889	-1
739.912	1
739.936	-1
739.96	-15
739.984	23
740.008	-2
740.032	-2
740.056	10
740.08	9
740.104	-7
740.127	16
740.151	-1
740.175	15
740.199	6
740.223	47
740.247	19
740.271	25
740.295	22
740.318	2
740.342	-6
740.366	10
740.39	15
740.414	18
740.438	6
740.461	32
740.485	7
740.509	-1
740.533	8
740.557	3
740.581	-1
740.604	-1
740.628	1
740.652	6
740.676	-18
740.7	-11
740.723	-6
740.747	-7
740.771	-1
740.795	4
740.819	13
740.842	-1
740.866	18
740.89	9
740.914	-3
740.938	-1
740.961	29
740.985	8
741.009	-2
741.033	9
741.056	22
741.08	8
741.104	7
741.128	9
741.151	1
741.175	3
741.199	9
741.223	0
741.246	-6
741.27	7
741.294	6
741.318	-9
741.341	6
741.365	6
741.389	7
741.413	16
741.436	12
741.46	20
741.484	9
741.507	14
741.531	13
741.555	16
741.579	15
741.602	3
741.626	14
741.65	6
741.673	9
741.697	10
741.721	4
741.744	-2
741.768	1
741.792	10
741.815	0
741.839	1
741.863	20
741.886	17
741.91	22
741.934	0
741.957	-7
741.981	20
742.005	0
742.028	-6
742.052	-7
742.075	10
742.099	3
742.123	1
742.146	13
742.17	3
742.194	-5
742.217	-3
742.241	-4
742.264	1
742.288	10
742.312	12
742.335	4
742.359	16
742.382	24
742.406	23
742.43	-4
742.453	5
742.477	-10
742.5	9
742.524	6
742.548	-10
742.571	-1
742.595	8
742.618	6
742.642	-10
742.665	11
742.689	-9
742.712	-2
742.736	-4
742.76	2
742.783	-5
742.807	0
742.83	11
742.854	6
742.877	6
742.901	12
742.924	4
742.948	10
742.971	7
742.995	3
743.018	4
743.042	-10
743.065	-2
743.089	-14
743.112	-7
743.136	16
743.159	-4
743.183	10
743.206	6
743.23	7
743.253	22
743.277	-3
743.3	-3
743.324	-4
743.347	-5
743.371	15
743.394	9
743.418	27
743.441	2
743.465	4
743.488	-4
743.512	-16
743.535	1
743.558	0
743.582	10
743.605	7
743.629	7
743.652	7
743.676	4
743.699	7
743.723	8
743.746	1
743.769	-7
743.793	5
743.816	-1
743.84	18
743.863	11
743.886	8
743.91	9
743.933	18
743.957	6
743.98	6
744.003	11
744.027	13
744.05	-8
744.074	-1
744.097	-16
744.12	7
744.144	-2
744.167	16
744.19	3
744.214	8
744.237	3
744.26	16
744.284	5
744.307	0
744.331	0
744.354	-26
744.377	-19
744.401	9
744.424	-3
744.447	-12
744.471	8
