Data from HighRes_H2D2_15_04_11_07_2024_HR4C61891__69__15-05-41-343.txt Node

Date: Thu Nov 07 15:05:41 EST 2024
User: crc00042
Spectrometer: HR4C6189
Trigger mode: 4
Integration Time (sec): 1.000000E-1
Scans to average: 1
Electric dark correction enabled: true
Nonlinearity correction enabled: false
Boxcar width: 0
XAxis mode: Wavelengths
Number of Pixels in Spectrum: 3648
>>>>>Begin Spectral Data<<<<<
639.567	-73.85
639.602	-73.85
639.636	-73.85
639.67	-38.85
639.704	-17.85
639.738	-5.85
639.773	11.15
639.807	-12.85
639.841	6.15
639.875	-0.85
639.909	-3.85
639.943	-17.85
639.978	-12.85
640.012	11.15
640.046	4.15
640.08	15.15
640.114	9.15
640.148	-2.85
640.182	3.15
640.217	-8.85
640.251	36.15
640.285	22.15
640.319	-3.85
640.353	7.15
640.387	9.15
640.421	-3.85
640.455	2.15
640.49	1.15
640.524	-11.85
640.558	15.15
640.592	18.15
640.626	15.15
640.66	-1.85
640.694	-9.85
640.728	6.15
640.762	11.15
640.796	9.15
640.83	25.15
640.865	-1.85
640.899	11.15
640.933	4.15
640.967	5.15
641.001	3.15
641.035	4.15
641.069	4.15
641.103	-4.85
641.137	4.15
641.171	2.15
641.205	-4.85
641.239	-12.85
641.273	13.15
641.307	16.15
641.341	-1.85
641.375	-0.85
641.409	-19.85
641.443	-4.85
641.477	-3.85
641.511	8.15
641.545	-1.85
641.579	-8.85
641.614	-3.85
641.648	-12.85
641.682	-8.85
641.716	14.15
641.75	9.15
641.784	0.15
641.818	12.15
641.852	3.15
641.886	-12.85
641.919	23.15
641.953	10.15
641.987	-9.85
642.021	8.15
642.055	8.15
642.089	4.15
642.123	-14.85
642.157	6.15
642.191	-7.85
642.225	-11.85
642.259	-4.85
642.293	19.15
642.327	-4.85
642.361	-0.85
642.395	9.15
642.429	6.15
642.463	-14.85
642.497	30.15
642.531	-4.85
642.565	1.15
642.599	11.15
642.633	-18.85
642.666	8.15
642.7	15.15
642.734	10.15
642.768	-3.85
642.802	0.15
642.836	12.15
642.87	7.15
642.904	14.15
642.938	9.15
642.972	-4.85
643.005	2.15
643.039	14.15
643.073	14.15
643.107	12.15
643.141	-1.85
643.175	-1.85
643.209	10.15
643.243	1.15
643.276	-1.85
643.31	-0.85
643.344	8.15
643.378	-4.85
643.412	7.15
643.446	18.15
643.48	0.15
643.513	-3.85
643.547	11.15
643.581	-11.85
643.615	11.15
643.649	7.15
643.683	14.15
643.716	-1.85
643.75	-2.85
643.784	-11.85
643.818	4.15
643.852	-10.85
643.886	-6.85
643.919	-0.85
643.953	-9.85
643.987	17.15
644.021	-8.85
644.055	22.15
644.088	1.15
644.122	-11.85
644.156	-8.85
644.19	5.15
644.224	5.15
644.257	6.15
644.291	3.15
644.325	11.15
644.359	-6.85
644.392	16.15
644.426	21.15
644.46	0.15
644.494	5.15
644.527	-0.85
644.561	19.15
644.595	13.15
644.629	11.15
644.662	4.15
644.696	15.15
644.73	18.15
644.764	14.15
644.797	-7.85
644.831	-2.85
644.865	12.15
644.899	-0.85
644.932	22.15
644.966	-0.85
645	9.15
645.033	5.15
645.067	0.15
645.101	6.15
645.135	1.15
645.168	11.15
645.202	5.15
645.236	2.15
645.269	0.15
645.303	-3.85
645.337	-17.85
645.37	0.15
645.404	-3.85
645.438	-12.85
645.471	-13.85
645.505	4.15
645.539	5.15
645.572	4.15
645.606	-0.85
645.64	-0.85
645.673	11.15
645.707	26.15
645.741	-4.85
645.774	-10.85
645.808	4.15
645.842	1.15
645.875	11.15
645.909	4.15
645.943	-7.85
645.976	9.15
646.01	16.15
646.043	-4.85
646.077	8.15
646.111	6.15
646.144	26.15
646.178	25.15
646.212	0.15
646.245	2.15
646.279	-3.85
646.312	11.15
646.346	7.15
646.38	4.15
646.413	11.15
646.447	14.15
646.48	-1.85
646.514	13.15
646.547	-22.85
646.581	-6.85
646.615	-29.85
646.648	-3.85
646.682	-6.85
646.715	-5.85
646.749	3.15
646.782	5.15
646.816	4.15
646.85	12.15
646.883	-2.85
646.917	11.15
646.95	-2.85
646.984	5.15
647.017	-0.85
647.051	21.15
647.084	16.15
647.118	7.15
647.151	3.15
647.185	6.15
647.218	8.15
647.252	26.15
647.285	-1.85
647.319	1.15
647.353	6.15
647.386	19.15
647.42	-4.85
647.453	0.15
647.487	7.15
647.52	-4.85
647.553	-6.85
647.587	-10.85
647.62	1.15
647.654	-5.85
647.687	18.15
647.721	11.15
647.754	3.15
647.788	8.15
647.821	-13.85
647.855	-4.85
647.888	7.15
647.922	7.15
647.955	3.15
647.989	15.15
648.022	7.15
648.055	3.15
648.089	-6.85
648.122	31.15
648.156	-15.85
648.189	3.15
648.223	2.15
648.256	11.15
648.29	11.15
648.323	28.15
648.356	15.15
648.39	9.15
648.423	-5.85
648.457	5.15
648.49	12.15
648.523	11.15
648.557	-6.85
648.59	-7.85
648.624	0.15
648.657	0.15
648.69	9.15
648.724	-0.85
648.757	21.15
648.791	8.15
648.824	33.15
648.857	22.15
648.891	7.15
648.924	2.15
648.957	26.15
648.991	-6.85
649.024	17.15
649.057	-4.85
649.091	-9.85
649.124	15.15
649.158	19.15
649.191	21.15
649.224	10.15
649.258	22.15
649.291	18.15
649.324	1.15
649.358	4.15
649.391	12.15
649.424	8.15
649.458	11.15
649.491	1.15
649.524	-1.85
649.557	-9.85
649.591	-17.85
649.624	9.15
649.657	-16.85
649.691	-1.85
649.724	-0.85
649.757	0.15
649.791	-3.85
649.824	15.15
649.857	32.15
649.89	-0.85
649.924	-22.85
649.957	-2.85
649.99	-3.85
650.023	7.15
650.057	3.15
650.09	3.15
650.123	-5.85
650.157	21.15
650.19	12.15
650.223	-10.85
650.256	-2.85
650.29	-0.85
650.323	-4.85
650.356	17.15
650.389	3.15
650.423	-14.85
650.456	3.15
650.489	3.15
650.522	8.15
650.555	25.15
650.589	15.15
650.622	8.15
650.655	13.15
650.688	7.15
650.721	-11.85
650.755	3.15
650.788	19.15
650.821	13.15
650.854	1.15
650.887	24.15
650.921	8.15
650.954	-9.85
650.987	0.15
651.02	10.15
651.053	-5.85
651.087	2.15
651.12	16.15
651.153	4.15
651.186	7.15
651.219	-12.85
651.252	18.15
651.286	16.15
651.319	7.15
651.352	13.15
651.385	22.15
651.418	2.15
651.451	24.15
651.484	7.15
651.518	-27.85
651.551	22.15
651.584	-6.85
651.617	30.15
651.65	-2.85
651.683	16.15
651.716	1.15
651.749	-9.85
651.783	3.15
651.816	-3.85
651.849	-2.85
651.882	7.15
651.915	6.15
651.948	21.15
651.981	3.15
652.014	-9.85
652.047	-12.85
652.08	-12.85
652.114	10.15
652.147	5.15
652.18	16.15
652.213	39.15
652.246	4.15
652.279	-10.85
652.312	20.15
652.345	-9.85
652.378	-0.85
652.411	18.15
652.444	20.15
652.477	-3.85
652.51	9.15
652.543	-4.85
652.576	-8.85
652.609	4.15
652.642	25.15
652.675	33.15
652.709	12.15
652.742	1.15
652.775	-0.85
652.808	10.15
652.841	10.15
652.874	7.15
652.907	6.15
652.94	3.15
652.973	1.15
653.006	6.15
653.039	3.15
653.072	14.15
653.105	-13.85
653.138	-4.85
653.171	0.15
653.204	7.15
653.237	-6.85
653.27	1.15
653.303	4.15
653.336	5.15
653.368	-2.85
653.401	2.15
653.434	5.15
653.467	14.15
653.5	0.15
653.533	-3.85
653.566	-7.85
653.599	2.15
653.632	12.15
653.665	11.15
653.698	-6.85
653.731	-12.85
653.764	6.15
653.797	2.15
653.83	10.15
653.863	7.15
653.896	9.15
653.929	8.15
653.961	22.15
653.994	-2.85
654.027	-17.85
654.06	21.15
654.093	-0.85
654.126	12.15
654.159	-10.85
654.192	21.15
654.225	-4.85
654.258	-11.85
654.29	9.15
654.323	6.15
654.356	-0.85
654.389	8.15
654.422	9.15
654.455	9.15
654.488	4.15
654.521	-7.85
654.553	2.15
654.586	16.15
654.619	-4.85
654.652	1.15
654.685	31.15
654.718	6.15
654.751	10.15
654.783	14.15
654.816	18.15
654.849	1.15
654.882	3.15
654.915	-4.85
654.948	9.15
654.98	-2.85
655.013	-5.85
655.046	-12.85
655.079	-9.85
655.112	13.15
655.144	-23.85
655.177	2.15
655.21	9.15
655.243	5.15
655.276	-7.85
655.308	2.15
655.341	-13.85
655.374	12.15
655.407	11.15
655.44	5.15
655.472	23.15
655.505	12.15
655.538	9.15
655.571	27.15
655.603	11.15
655.636	32.15
655.669	31.15
655.702	21.15
655.734	-21.85
655.767	-8.85
655.8	6.15
655.833	2.15
655.865	12.15
655.898	3.15
655.931	22.15
655.964	17.15
655.996	13.15
656.029	43.15
656.062	20.15
656.095	61.15
656.127	79.15
656.16	208.15
656.193	635.15
656.225	963.15
656.258	554.15
656.291	216.15
656.324	176.15
656.356	366.15
656.389	737.15
656.422	669.15
656.454	230.15
656.487	81.15
656.52	34.15
656.552	17.15
656.585	10.15
656.618	31.15
656.65	24.15
656.683	-2.85
656.716	7.15
656.748	7.15
656.781	-0.85
656.814	-12.85
656.846	-0.85
656.879	16.15
656.912	7.15
656.944	-4.85
656.977	6.15
657.01	3.15
657.042	5.15
657.075	9.15
657.108	-1.85
657.14	5.15
657.173	9.15
657.205	23.15
657.238	23.15
657.271	3.15
657.303	-17.85
657.336	7.15
657.369	-3.85
657.401	14.15
657.434	14.15
657.466	14.15
657.499	-4.85
657.532	-7.85
657.564	-4.85
657.597	1.15
657.629	6.15
657.662	1.15
657.694	14.15
657.727	-13.85
657.76	10.15
657.792	-6.85
657.825	-5.85
657.857	-8.85
657.89	3.15
657.922	11.15
657.955	-4.85
657.987	-5.85
658.02	12.15
658.053	23.15
658.085	9.15
658.118	8.15
658.15	6.15
658.183	16.15
658.215	-20.85
658.248	-15.85
658.28	-4.85
658.313	16.15
658.345	2.15
658.378	12.15
658.41	10.15
658.443	17.15
658.475	-0.85
658.508	4.15
658.54	7.15
658.573	15.15
658.605	12.15
658.638	-8.85
658.67	7.15
658.703	-3.85
658.735	-8.85
658.768	7.15
658.8	1.15
658.833	17.15
658.865	15.15
658.898	8.15
658.93	9.15
658.963	7.15
658.995	-11.85
659.028	9.15
659.06	-14.85
659.092	-15.85
659.125	-6.85
659.157	-1.85
659.19	11.15
659.222	3.15
659.255	7.15
659.287	7.15
659.32	15.15
659.352	17.15
659.384	-0.85
659.417	1.15
659.449	18.15
659.482	9.15
659.514	-1.85
659.546	-16.85
659.579	1.15
659.611	11.15
659.644	-8.85
659.676	2.15
659.708	-33.85
659.741	-18.85
659.773	-4.85
659.806	-7.85
659.838	-2.85
659.87	-0.85
659.903	-2.85
659.935	6.15
659.967	10.15
660	1.15
660.032	-25.85
660.065	17.15
660.097	-3.85
660.129	13.15
660.162	-9.85
660.194	2.15
660.226	-7.85
660.259	14.15
660.291	6.15
660.323	1.15
660.356	0.15
660.388	-8.85
660.42	4.15
660.453	14.15
660.485	12.15
660.517	4.15
660.55	12.15
660.582	2.15
660.614	18.15
660.647	-6.85
660.679	-7.85
660.711	16.15
660.743	2.15
660.776	-20.85
660.808	-3.85
660.84	-14.85
660.873	-0.85
660.905	-4.85
660.937	-4.85
660.969	1.15
661.002	10.15
661.034	15.15
661.066	1.15
661.099	-0.85
661.131	1.15
661.163	1.15
661.195	0.15
661.228	7.15
661.26	12.15
661.292	-6.85
661.324	8.15
661.357	18.15
661.389	20.15
661.421	2.15
661.453	11.15
661.485	11.15
661.518	11.15
661.55	-8.85
661.582	-5.85
661.614	-11.85
661.647	8.15
661.679	7.15
661.711	-4.85
661.743	-11.85
661.775	1.15
661.808	11.15
661.84	-4.85
661.872	2.15
661.904	12.15
661.936	7.15
661.969	-15.85
662.001	-22.85
662.033	8.15
662.065	-22.85
662.097	6.15
662.129	15.15
662.162	-6.85
662.194	-2.85
662.226	-0.85
662.258	12.15
662.29	15.15
662.322	-15.85
662.355	-12.85
662.387	5.15
662.419	-0.85
662.451	17.15
662.483	4.15
662.515	11.15
662.547	-7.85
662.58	-0.85
662.612	-0.85
662.644	-10.85
662.676	3.15
662.708	20.15
662.74	1.15
662.772	8.15
662.804	11.15
662.836	8.15
662.869	-0.85
662.901	18.15
662.933	0.15
662.965	7.15
662.997	8.15
663.029	-7.85
663.061	-10.85
663.093	7.15
663.125	10.15
663.157	10.15
663.189	13.15
663.221	15.15
663.254	15.15
663.286	12.15
663.318	2.15
663.35	0.15
663.382	1.15
663.414	-0.85
663.446	-4.85
663.478	2.15
663.51	19.15
663.542	-4.85
663.574	-3.85
663.606	3.15
663.638	-8.85
663.67	10.15
663.702	10.15
663.734	10.15
663.766	12.15
663.798	-11.85
663.83	8.15
663.862	7.15
663.894	19.15
663.926	18.15
663.958	19.15
663.99	16.15
664.022	10.15
664.054	8.15
664.086	-3.85
664.118	-2.85
664.15	-3.85
664.182	11.15
664.214	19.15
664.246	9.15
664.278	3.15
664.31	26.15
664.342	4.15
664.374	-3.85
664.406	5.15
664.438	8.15
664.47	21.15
664.502	-1.85
664.534	-1.85
664.566	-7.85
664.598	-0.85
664.63	-6.85
664.662	9.15
664.693	6.15
664.725	-6.85
664.757	20.15
664.789	-17.85
664.821	15.15
664.853	28.15
664.885	3.15
664.917	-6.85
664.949	10.15
664.981	11.15
665.013	5.15
665.045	-15.85
665.076	-2.85
665.108	11.15
665.14	0.15
665.172	4.15
665.204	-13.85
665.236	2.15
665.268	14.15
665.3	-6.85
665.331	-15.85
665.363	-6.85
665.395	-8.85
665.427	-12.85
665.459	14.15
665.491	-5.85
665.523	-6.85
665.555	15.15
665.586	2.15
665.618	4.15
665.65	-12.85
665.682	17.15
665.714	11.15
665.746	13.15
665.777	15.15
665.809	-3.85
665.841	17.15
665.873	-0.85
665.905	-2.85
665.937	24.15
665.968	4.15
666	-3.85
666.032	10.15
666.064	4.15
666.096	-13.85
666.127	0.15
666.159	2.15
666.191	8.15
666.223	-3.85
666.255	-3.85
666.286	5.15
666.318	-4.85
666.35	7.15
666.382	1.15
666.413	-1.85
666.445	-11.85
666.477	-24.85
666.509	-5.85
666.54	-4.85
666.572	-7.85
666.604	11.15
666.636	4.15
666.667	10.15
666.699	6.15
666.731	12.15
666.763	-5.85
666.794	0.15
666.826	1.15
666.858	-8.85
666.89	3.15
666.921	4.15
666.953	3.15
666.985	13.15
667.017	20.15
667.048	17.15
667.08	2.15
667.112	-5.85
667.143	-9.85
667.175	8.15
667.207	-1.85
667.238	4.15
667.27	-8.85
667.302	11.15
667.334	-0.85
667.365	12.15
667.397	2.15
667.429	-9.85
667.46	14.15
667.492	7.15
667.524	11.15
667.555	-4.85
667.587	7.15
667.619	5.15
667.65	-6.85
667.682	13.15
667.714	18.15
667.745	9.15
667.777	3.15
667.808	14.15
667.84	7.15
667.872	10.15
667.903	20.15
667.935	2.15
667.967	-7.85
667.998	-5.85
668.03	-3.85
668.061	5.15
668.093	-0.85
668.125	10.15
668.156	-1.85
668.188	-12.85
668.22	7.15
668.251	11.15
668.283	17.15
668.314	5.15
668.346	-1.85
668.377	9.15
668.409	-2.85
668.441	11.15
668.472	11.15
668.504	24.15
668.535	15.15
668.567	16.15
668.599	5.15
668.63	0.15
668.662	2.15
668.693	23.15
668.725	-3.85
668.756	7.15
668.788	1.15
668.819	-0.85
668.851	9.15
668.882	1.15
668.914	3.15
668.946	9.15
668.977	-12.85
669.009	2.15
669.04	1.15
669.072	4.15
669.103	0.15
669.135	12.15
669.166	-1.85
669.198	16.15
669.229	16.15
669.261	13.15
669.292	-2.85
669.324	4.15
669.355	14.15
669.387	-7.85
669.418	10.15
669.45	0.15
669.481	11.15
669.513	11.15
669.544	3.15
669.576	8.15
669.607	35.15
669.639	17.15
669.67	-0.85
669.701	14.15
669.733	0.15
669.764	4.15
669.796	1.15
669.827	-7.85
669.859	-6.85
669.89	2.15
669.922	3.15
669.953	8.15
669.985	8.15
670.016	8.15
670.047	5.15
670.079	-3.85
670.11	-8.85
670.142	-6.85
670.173	9.15
670.204	-4.85
670.236	-0.85
670.267	-3.85
670.299	11.15
670.33	-0.85
670.362	3.15
670.393	3.15
670.424	15.15
670.456	-18.85
670.487	-3.85
670.518	-4.85
670.55	-7.85
670.581	10.15
670.613	6.15
670.644	11.15
670.675	7.15
670.707	6.15
670.738	-8.85
670.769	2.15
670.801	-0.85
670.832	16.15
670.864	-3.85
670.895	18.15
670.926	3.15
670.958	11.15
670.989	-3.85
671.02	4.15
671.052	14.15
671.083	8.15
671.114	-14.85
671.146	10.15
671.177	0.15
671.208	-0.85
671.24	0.15
671.271	11.15
671.302	-1.85
671.333	-20.85
671.365	-11.85
671.396	-4.85
671.427	8.15
671.459	5.15
671.49	8.15
671.521	8.15
671.553	0.15
671.584	20.15
671.615	-6.85
671.646	0.15
671.678	-3.85
671.709	0.15
671.74	-17.85
671.771	8.15
671.803	-0.85
671.834	2.15
671.865	2.15
671.896	14.15
671.928	9.15
671.959	2.15
671.99	2.15
672.021	-0.85
672.053	-9.85
672.084	-2.85
672.115	7.15
672.146	-19.85
672.178	-2.85
672.209	-12.85
672.24	7.15
672.271	27.15
672.303	9.15
672.334	8.15
672.365	11.15
672.396	-5.85
672.427	8.15
672.459	10.15
672.49	25.15
672.521	11.15
672.552	-1.85
672.583	-12.85
672.615	11.15
672.646	16.15
672.677	-16.85
672.708	-4.85
672.739	5.15
672.77	3.15
672.802	-0.85
672.833	0.15
672.864	11.15
672.895	-5.85
672.926	-17.85
672.957	-3.85
672.989	-1.85
673.02	-0.85
673.051	4.15
673.082	4.15
673.113	0.15
673.144	3.15
673.175	10.15
673.206	-7.85
673.238	3.15
673.269	0.15
673.3	-5.85
673.331	13.15
673.362	6.15
673.393	-18.85
673.424	11.15
673.455	14.15
673.487	4.15
673.518	20.15
673.549	13.15
673.58	9.15
673.611	8.15
673.642	-0.85
673.673	-17.85
673.704	4.15
673.735	2.15
673.766	0.15
673.797	-1.85
673.828	3.15
673.86	-12.85
673.891	-15.85
673.922	8.15
673.953	2.15
673.984	8.15
674.015	15.15
674.046	8.15
674.077	7.15
674.108	6.15
674.139	0.15
674.17	5.15
674.201	2.15
674.232	-7.85
674.263	12.15
674.294	16.15
674.325	-11.85
674.356	1.15
674.387	13.15
674.418	11.15
674.449	-3.85
674.48	12.15
674.511	10.15
674.542	15.15
674.573	-6.85
674.604	9.15
674.635	10.15
674.666	0.15
674.697	-1.85
674.728	12.15
674.759	12.15
674.79	-1.85
674.821	0.15
674.852	-8.85
674.883	-8.85
674.914	4.15
674.945	11.15
674.976	6.15
675.007	1.15
675.038	-0.85
675.069	-13.85
675.1	-8.85
675.131	9.15
675.162	-9.85
675.193	-14.85
675.224	-4.85
675.254	12.15
675.285	3.15
675.316	16.15
675.347	4.15
675.378	-8.85
675.409	-11.85
675.44	28.15
675.471	9.15
675.502	-6.85
675.533	5.15
675.564	3.15
675.595	4.15
675.625	10.15
675.656	8.15
675.687	7.15
675.718	-4.85
675.749	9.15
675.78	4.15
675.811	7.15
675.842	4.15
675.873	16.15
675.903	9.15
675.934	4.15
675.965	0.15
675.996	-0.85
676.027	-6.85
676.058	3.15
676.089	-7.85
676.119	11.15
676.15	28.15
676.181	16.15
676.212	9.15
676.243	11.15
676.274	-5.85
676.304	26.15
676.335	-3.85
676.366	11.15
676.397	0.15
676.428	4.15
676.459	31.15
676.489	-4.85
676.52	-0.85
676.551	2.15
676.582	-16.85
676.613	10.15
676.643	-0.85
676.674	14.15
676.705	1.15
676.736	12.15
676.767	11.15
676.797	16.15
676.828	8.15
676.859	3.15
676.89	12.15
676.92	13.15
676.951	2.15
676.982	13.15
677.013	7.15
677.044	16.15
677.074	10.15
677.105	4.15
677.136	1.15
677.167	4.15
677.197	10.15
677.228	-6.85
677.259	-1.85
677.289	5.15
677.32	9.15
677.351	-6.85
677.382	-6.85
677.412	6.15
677.443	25.15
677.474	15.15
677.505	-12.85
677.535	1.15
677.566	1.15
677.597	1.15
677.627	-12.85
677.658	-10.85
677.689	0.15
677.72	9.15
677.75	9.15
677.781	14.15
677.812	9.15
677.842	7.15
677.873	7.15
677.904	11.15
677.934	0.15
677.965	-4.85
677.996	-7.85
678.026	3.15
678.057	19.15
678.088	-8.85
678.118	-13.85
678.149	-6.85
678.18	9.15
678.21	-8.85
678.241	11.15
678.272	1.15
678.302	-6.85
678.333	8.15
678.363	0.15
678.394	-2.85
678.425	8.15
678.455	-6.85
678.486	9.15
678.517	1.15
678.547	4.15
678.578	-12.85
678.608	-7.85
678.639	7.15
678.67	-2.85
678.7	1.15
678.731	6.15
678.761	-2.85
678.792	8.15
678.823	15.15
678.853	11.15
678.884	-2.85
678.914	5.15
678.945	-1.85
678.975	-6.85
679.006	-12.85
679.037	-13.85
679.067	25.15
679.098	-1.85
679.128	9.15
679.159	-0.85
679.189	-0.85
679.22	-15.85
679.25	9.15
679.281	2.15
679.312	10.15
679.342	-0.85
679.373	23.15
679.403	13.15
679.434	5.15
679.464	8.15
679.495	8.15
679.525	9.15
679.556	-5.85
679.586	12.15
679.617	13.15
679.647	26.15
679.678	3.15
679.708	6.15
679.739	-14.85
679.769	4.15
679.8	5.15
679.83	1.15
679.861	13.15
679.891	-4.85
679.922	-4.85
679.952	0.15
679.983	5.15
680.013	-2.85
680.044	6.15
680.074	18.15
680.105	31.15
680.135	4.15
680.165	4.15
680.196	3.15
680.226	-13.85
680.257	-4.85
680.287	7.15
680.318	4.15
680.348	-8.85
680.379	9.15
680.409	2.15
680.439	2.15
680.47	6.15
680.5	1.15
680.531	-0.85
680.561	6.15
680.592	4.15
680.622	38.15
680.652	0.15
680.683	30.15
680.713	-2.85
680.744	4.15
680.774	-3.85
680.804	19.15
680.835	11.15
680.865	-5.85
680.896	13.15
680.926	13.15
680.956	-8.85
680.987	3.15
681.017	-6.85
681.047	-0.85
681.078	-9.85
681.108	0.15
681.139	1.15
681.169	-0.85
681.199	1.15
681.23	-2.85
681.26	2.15
681.29	8.15
681.321	-21.85
681.351	-0.85
681.381	-4.85
681.412	12.15
681.442	3.15
681.472	13.15
681.503	-14.85
681.533	-2.85
681.563	-1.85
681.594	14.15
681.624	5.15
681.654	-4.85
681.685	6.15
681.715	-4.85
681.745	8.15
681.775	10.15
681.806	7.15
681.836	-11.85
681.866	-2.85
681.897	8.15
681.927	2.15
681.957	-12.85
681.987	14.15
682.018	-9.85
682.048	-3.85
682.078	4.15
682.109	11.15
682.139	13.15
682.169	-0.85
682.199	20.15
682.23	-4.85
682.26	3.15
682.29	-0.85
682.32	-15.85
682.351	-4.85
682.381	-6.85
682.411	-4.85
682.441	9.15
682.472	4.15
682.502	1.15
682.532	-15.85
682.562	2.15
682.592	19.15
682.623	22.15
682.653	0.15
682.683	-2.85
682.713	-12.85
682.743	4.15
682.774	13.15
682.804	10.15
682.834	14.15
682.864	1.15
682.894	18.15
682.925	-1.85
682.955	4.15
682.985	10.15
683.015	4.15
683.045	18.15
683.076	-20.85
683.106	13.15
683.136	6.15
683.166	-10.85
683.196	-16.85
683.226	-6.85
683.257	-0.85
683.287	-4.85
683.317	-5.85
683.347	-9.85
683.377	-23.85
683.407	7.15
683.437	15.15
683.468	23.15
683.498	-0.85
683.528	-1.85
683.558	11.15
683.588	3.15
683.618	3.15
683.648	-2.85
683.678	1.15
683.708	8.15
683.739	-9.85
683.769	4.15
683.799	2.15
683.829	16.15
683.859	18.15
683.889	9.15
683.919	11.15
683.949	7.15
683.979	-1.85
684.009	11.15
684.039	5.15
684.07	-2.85
684.1	18.15
684.13	3.15
684.16	8.15
684.19	9.15
684.22	10.15
684.25	6.15
684.28	-4.85
684.31	26.15
684.34	23.15
684.37	10.15
684.4	3.15
684.43	7.15
684.46	8.15
684.49	11.15
684.52	18.15
684.55	13.15
684.58	4.15
684.61	19.15
684.64	17.15
684.67	20.15
684.7	14.15
684.73	15.15
684.76	8.15
684.79	24.15
684.82	-9.85
684.85	-3.85
684.88	15.15
684.91	-3.85
684.94	14.15
684.97	-7.85
685	-9.85
685.03	-3.85
685.06	-5.85
685.09	-5.85
685.12	20.15
685.15	-10.85
685.18	18.15
685.21	8.15
685.24	14.15
685.27	3.15
685.3	1.15
685.33	11.15
685.36	8.15
685.39	20.15
685.42	-7.85
685.45	11.15
685.48	13.15
685.51	-9.85
685.54	5.15
685.569	11.15
685.599	23.15
685.629	8.15
685.659	9.15
685.689	2.15
685.719	5.15
685.749	-4.85
685.779	-2.85
685.809	-1.85
685.839	8.15
685.869	22.15
685.898	19.15
685.928	18.15
685.958	-0.85
685.988	11.15
686.018	12.15
686.048	16.15
686.078	11.15
686.108	27.15
686.137	12.15
686.167	27.15
686.197	-7.85
686.227	10.15
686.257	24.15
686.287	16.15
686.317	7.15
686.346	14.15
686.376	-2.85
686.406	12.15
686.436	11.15
686.466	-11.85
686.496	14.15
686.525	10.15
686.555	1.15
686.585	24.15
686.615	16.15
686.645	5.15
686.675	7.15
686.704	3.15
686.734	8.15
686.764	0.15
686.794	0.15
686.824	-3.85
686.853	19.15
686.883	12.15
686.913	8.15
686.943	14.15
686.973	3.15
687.002	10.15
687.032	4.15
687.062	2.15
687.092	27.15
687.121	10.15
687.151	-4.85
687.181	0.15
687.211	13.15
687.24	-4.85
687.27	4.15
687.3	-8.85
687.33	10.15
687.359	1.15
687.389	4.15
687.419	3.15
687.449	3.15
687.478	1.15
687.508	7.15
687.538	-1.85
687.568	4.15
687.597	-4.85
687.627	10.15
687.657	22.15
687.686	20.15
687.716	31.15
687.746	-8.85
687.776	-12.85
687.805	11.15
687.835	8.15
687.865	1.15
687.894	8.15
687.924	-2.85
687.954	2.15
687.983	18.15
688.013	21.15
688.043	16.15
688.072	2.15
688.102	8.15
688.132	-6.85
688.161	2.15
688.191	10.15
688.221	10.15
688.25	-3.85
688.28	8.15
688.31	3.15
688.339	-1.85
688.369	-6.85
688.399	-9.85
688.428	-12.85
688.458	7.15
688.488	-16.85
688.517	11.15
688.547	17.15
688.576	46.15
688.606	19.15
688.636	-4.85
688.665	10.15
688.695	2.15
688.725	1.15
688.754	6.15
688.784	2.15
688.813	22.15
688.843	8.15
688.873	5.15
688.902	-3.85
688.932	-15.85
688.961	18.15
688.991	27.15
689.02	19.15
689.05	-1.85
689.08	5.15
689.109	23.15
689.139	9.15
689.168	26.15
689.198	4.15
689.227	-5.85
689.257	7.15
689.287	23.15
689.316	9.15
689.346	-15.85
689.375	-8.85
689.405	-4.85
689.434	0.15
689.464	8.15
689.493	12.15
689.523	8.15
689.552	-11.85
689.582	4.15
689.611	-1.85
689.641	10.15
689.67	1.15
689.7	18.15
689.73	29.15
689.759	11.15
689.789	39.15
689.818	-3.85
689.848	-0.85
689.877	30.15
689.906	13.15
689.936	-8.85
689.965	20.15
689.995	3.15
690.024	0.15
690.054	19.15
690.083	19.15
690.113	-0.85
690.142	-5.85
690.172	4.15
690.201	4.15
690.231	10.15
690.26	11.15
690.29	-1.85
690.319	18.15
690.348	0.15
690.378	7.15
690.407	7.15
690.437	6.15
690.466	-3.85
690.496	-1.85
690.525	10.15
690.555	-3.85
690.584	3.15
690.613	5.15
690.643	13.15
690.672	5.15
690.702	3.15
690.731	6.15
690.76	-2.85
690.79	-0.85
690.819	4.15
690.849	2.15
690.878	9.15
690.907	12.15
690.937	14.15
690.966	24.15
690.996	11.15
691.025	-0.85
691.054	9.15
691.084	5.15
691.113	12.15
691.142	23.15
691.172	23.15
691.201	25.15
691.23	3.15
691.26	19.15
691.289	-1.85
691.319	-11.85
691.348	-5.85
691.377	21.15
691.407	2.15
691.436	14.15
691.465	10.15
691.495	3.15
691.524	-17.85
691.553	3.15
691.583	7.15
691.612	21.15
691.641	14.15
691.67	7.15
691.7	6.15
691.729	-19.85
691.758	9.15
691.788	-4.85
691.817	8.15
691.846	7.15
691.876	17.15
691.905	12.15
691.934	8.15
691.963	24.15
691.993	7.15
692.022	6.15
692.051	-4.85
692.081	3.15
692.11	12.15
692.139	16.15
692.168	15.15
692.198	22.15
692.227	4.15
692.256	12.15
692.285	19.15
692.315	22.15
692.344	23.15
692.373	22.15
692.402	-6.85
692.432	-4.85
692.461	12.15
692.49	-0.85
692.519	6.15
692.548	16.15
692.578	11.15
692.607	10.15
692.636	3.15
692.665	4.15
692.694	-8.85
692.724	-2.85
692.753	18.15
692.782	10.15
692.811	13.15
692.84	-0.85
692.87	11.15
692.899	13.15
692.928	7.15
692.957	1.15
692.986	1.15
693.016	8.15
693.045	3.15
693.074	12.15
693.103	14.15
693.132	10.15
693.161	9.15
693.191	9.15
693.22	-6.85
693.249	2.15
693.278	7.15
693.307	21.15
693.336	-14.85
693.365	-5.85
693.395	11.15
693.424	9.15
693.453	28.15
693.482	8.15
693.511	12.15
693.54	-1.85
693.569	4.15
693.598	1.15
693.628	34.15
693.657	22.15
693.686	19.15
693.715	34.15
693.744	38.15
693.773	26.15
693.802	3.15
693.831	-0.85
693.86	12.15
693.889	4.15
693.919	20.15
693.948	-7.85
693.977	2.15
694.006	-3.85
694.035	-14.85
694.064	5.15
694.093	-6.85
694.122	-2.85
694.151	13.15
694.18	8.15
694.209	20.15
694.238	1.15
694.267	15.15
694.296	19.15
694.325	17.15
694.354	14.15
694.383	24.15
694.412	5.15
694.441	2.15
694.471	9.15
694.5	-1.85
694.529	5.15
694.558	9.15
694.587	13.15
694.616	2.15
694.645	-0.85
694.674	11.15
694.703	10.15
694.732	0.15
694.761	19.15
694.79	19.15
694.819	8.15
694.848	-1.85
694.877	27.15
694.906	20.15
694.935	1.15
694.963	17.15
694.992	4.15
695.021	9.15
695.05	22.15
695.079	13.15
695.108	5.15
695.137	29.15
695.166	12.15
695.195	-1.85
695.224	14.15
695.253	3.15
695.282	18.15
695.311	-2.85
695.34	4.15
695.369	19.15
695.398	15.15
695.427	17.15
695.456	10.15
695.485	13.15
695.513	11.15
695.542	0.15
695.571	5.15
695.6	27.15
695.629	-1.85
695.658	6.15
695.687	27.15
695.716	18.15
695.745	38.15
695.774	0.15
695.802	10.15
695.831	17.15
695.86	7.15
695.889	19.15
695.918	11.15
695.947	-18.85
695.976	-1.85
696.005	16.15
696.033	9.15
696.062	25.15
696.091	14.15
696.12	1.15
696.149	21.15
696.178	15.15
696.207	11.15
696.235	-4.85
696.264	13.15
696.293	16.15
696.322	9.15
696.351	24.15
696.38	9.15
696.408	6.15
696.437	-3.85
696.466	-4.85
696.495	11.15
696.524	20.15
696.553	-0.85
696.581	15.15
696.61	7.15
696.639	1.15
696.668	11.15
696.697	-2.85
696.725	16.15
696.754	6.15
696.783	15.15
696.812	3.15
696.84	8.15
696.869	-2.85
696.898	3.15
696.927	2.15
696.956	18.15
696.984	8.15
697.013	7.15
697.042	-3.85
697.071	18.15
697.099	15.15
697.128	8.15
697.157	9.15
697.186	-2.85
697.214	2.15
697.243	-2.85
697.272	-0.85
697.301	9.15
697.329	15.15
697.358	10.15
697.387	7.15
697.415	10.15
697.444	12.15
697.473	0.15
697.502	10.15
697.53	13.15
697.559	-5.85
697.588	-6.85
697.616	-0.85
697.645	-3.85
697.674	7.15
697.703	7.15
697.731	19.15
697.76	9.15
697.789	3.15
697.817	10.15
697.846	17.15
697.875	18.15
697.903	31.15
697.932	20.15
697.961	11.15
697.989	18.15
698.018	9.15
698.047	5.15
698.075	14.15
698.104	3.15
698.133	-1.85
698.161	1.15
698.19	18.15
698.218	7.15
698.247	3.15
698.276	3.15
698.304	23.15
698.333	11.15
698.362	2.15
698.39	10.15
698.419	14.15
698.447	-5.85
698.476	1.15
698.505	28.15
698.533	20.15
698.562	15.15
698.591	13.15
698.619	6.15
698.648	4.15
698.676	-2.85
698.705	-15.85
698.733	-3.85
698.762	4.15
698.791	8.15
698.819	6.15
698.848	-0.85
698.876	-0.85
698.905	17.15
698.933	4.15
698.962	3.15
698.991	29.15
699.019	9.15
699.048	4.15
699.076	9.15
699.105	9.15
699.133	0.15
699.162	11.15
699.19	16.15
699.219	4.15
699.248	-2.85
699.276	-6.85
699.305	-14.85
699.333	-4.85
699.362	3.15
699.39	7.15
699.419	-5.85
699.447	12.15
699.476	4.15
699.504	7.15
699.533	2.15
699.561	-13.85
699.59	2.15
699.618	6.15
699.647	15.15
699.675	15.15
699.704	18.15
699.732	6.15
699.761	1.15
699.789	-0.85
699.818	7.15
699.846	-16.85
699.874	1.15
699.903	-5.85
699.931	9.15
699.96	5.15
699.988	0.15
700.017	-5.85
700.045	-1.85
700.074	10.15
700.102	15.15
700.13	6.15
700.159	6.15
700.187	16.15
700.216	-4.85
700.244	5.15
700.273	14.15
700.301	24.15
700.329	12.15
700.358	12.15
700.386	9.15
700.415	12.15
700.443	24.15
700.472	29.15
700.5	8.15
700.528	15.15
700.557	11.15
700.585	-3.85
700.614	-5.85
700.642	18.15
700.67	7.15
700.699	20.15
700.727	5.15
700.755	12.15
700.784	3.15
700.812	-4.85
700.841	9.15
700.869	9.15
700.897	-22.85
700.926	15.15
700.954	19.15
700.982	13.15
701.011	0.15
701.039	19.15
701.067	6.15
701.096	3.15
701.124	-6.85
701.152	12.15
701.181	0.15
701.209	-8.85
701.237	1.15
701.266	2.15
701.294	4.15
701.322	-6.85
701.351	14.15
701.379	4.15
701.407	-4.85
701.435	10.15
701.464	25.15
701.492	21.15
701.52	8.15
701.549	-4.85
701.577	3.15
701.605	-11.85
701.634	1.15
701.662	28.15
701.69	2.15
701.718	5.15
701.747	6.15
701.775	8.15
701.803	-1.85
701.831	1.15
701.86	8.15
701.888	18.15
701.916	8.15
701.944	9.15
701.973	-19.85
702.001	-4.85
702.029	14.15
702.057	9.15
702.086	-2.85
702.114	0.15
702.142	8.15
702.17	-7.85
702.199	-4.85
702.227	-0.85
702.255	11.15
702.283	2.15
702.311	10.15
702.34	5.15
702.368	-7.85
702.396	15.15
702.424	-8.85
702.452	5.15
702.481	-5.85
702.509	-12.85
702.537	6.15
702.565	18.15
702.593	7.15
702.621	7.15
702.65	-1.85
702.678	-1.85
702.706	3.15
702.734	0.15
702.762	-0.85
702.79	-0.85
702.819	-4.85
702.847	0.15
702.875	19.15
702.903	15.15
702.931	1.15
702.959	7.15
702.988	25.15
703.016	1.15
703.044	6.15
703.072	8.15
703.1	-10.85
703.128	1.15
703.156	0.15
703.184	10.15
703.212	6.15
703.241	-2.85
703.269	-5.85
703.297	0.15
703.325	11.15
703.353	0.15
703.381	-10.85
703.409	2.15
703.437	-9.85
703.465	-6.85
703.493	1.15
703.522	-5.85
703.55	3.15
703.578	35.15
703.606	-0.85
703.634	0.15
703.662	-6.85
703.69	-1.85
703.718	6.15
703.746	25.15
703.774	-10.85
703.802	16.15
703.83	9.15
703.858	-0.85
703.886	-16.85
703.914	0.15
703.942	6.15
703.97	-2.85
703.998	-0.85
704.027	22.15
704.055	9.15
704.083	-2.85
704.111	-8.85
704.139	-2.85
704.167	1.15
704.195	3.15
704.223	12.15
704.251	11.15
704.279	16.15
704.307	0.15
704.335	-2.85
704.363	10.15
704.391	-0.85
704.419	6.15
704.447	-7.85
704.475	-9.85
704.503	7.15
704.531	8.15
704.558	11.15
704.586	9.15
704.614	11.15
704.642	13.15
704.67	-9.85
704.698	12.15
704.726	9.15
704.754	4.15
704.782	-20.85
704.81	-11.85
704.838	22.15
704.866	23.15
704.894	-8.85
704.922	-4.85
704.95	10.15
704.978	15.15
705.006	17.15
705.034	18.15
705.061	-0.85
705.089	14.15
705.117	-6.85
705.145	1.15
705.173	1.15
705.201	-2.85
705.229	12.15
705.257	15.15
705.285	2.15
705.313	2.15
705.34	9.15
705.368	6.15
705.396	18.15
705.424	11.15
705.452	6.15
705.48	16.15
705.508	12.15
705.536	-0.85
705.563	4.15
705.591	12.15
705.619	12.15
705.647	0.15
705.675	10.15
705.703	16.15
705.731	-4.85
705.758	12.15
705.786	6.15
705.814	17.15
705.842	26.15
705.87	17.15
705.898	16.15
705.925	-2.85
705.953	4.15
705.981	9.15
706.009	-7.85
706.037	26.15
706.065	4.15
706.092	-3.85
706.12	7.15
706.148	-1.85
706.176	-3.85
706.204	13.15
706.231	6.15
706.259	-8.85
706.287	-18.85
706.315	3.15
706.342	6.15
706.37	7.15
706.398	10.15
706.426	-4.85
706.454	-1.85
706.481	19.15
706.509	7.15
706.537	-3.85
706.565	-4.85
706.592	4.15
706.62	4.15
706.648	-0.85
706.676	-13.85
706.703	14.15
706.731	0.15
706.759	7.15
706.787	12.15
706.814	7.15
706.842	1.15
706.87	10.15
706.897	10.15
706.925	-2.85
706.953	6.15
706.981	19.15
707.008	6.15
707.036	1.15
707.064	2.15
707.091	0.15
707.119	5.15
707.147	-4.85
707.174	15.15
707.202	19.15
707.23	8.15
707.258	2.15
707.285	0.15
707.313	7.15
707.341	-7.85
707.368	-1.85
707.396	-1.85
707.424	6.15
707.451	0.15
707.479	13.15
707.507	14.15
707.534	-0.85
707.562	-7.85
707.59	-15.85
707.617	2.15
707.645	7.15
707.672	4.15
707.7	3.15
707.728	10.15
707.755	-0.85
707.783	-5.85
707.811	1.15
707.838	5.15
707.866	0.15
707.893	2.15
707.921	2.15
707.949	1.15
707.976	12.15
708.004	-9.85
708.031	-0.85
708.059	8.15
708.087	8.15
708.114	-2.85
708.142	2.15
708.169	-0.85
708.197	9.15
708.225	0.15
708.252	3.15
708.28	8.15
708.307	-1.85
708.335	1.15
708.362	-7.85
708.39	-2.85
708.418	0.15
708.445	-13.85
708.473	-11.85
708.5	-11.85
708.528	20.15
708.555	4.15
708.583	2.15
708.61	-5.85
708.638	18.15
708.665	-3.85
708.693	-1.85
708.72	-1.85
708.748	-2.85
708.776	2.15
708.803	25.15
708.831	20.15
708.858	14.15
708.886	15.15
708.913	5.15
708.941	13.15
708.968	5.15
708.996	4.15
709.023	24.15
709.051	6.15
709.078	-2.85
709.105	1.15
709.133	8.15
709.16	5.15
709.188	11.15
709.215	6.15
709.243	18.15
709.27	-8.85
709.298	4.15
709.325	-1.85
709.353	4.15
709.38	4.15
709.408	4.15
709.435	-5.85
709.462	-4.85
709.49	18.15
709.517	3.15
709.545	-4.85
709.572	6.15
709.6	7.15
709.627	10.15
709.655	-1.85
709.682	15.15
709.709	5.15
709.737	14.15
709.764	-3.85
709.792	14.15
709.819	5.15
709.846	4.15
709.874	15.15
709.901	20.15
709.929	24.15
709.956	-3.85
709.983	3.15
710.011	6.15
710.038	1.15
710.066	22.15
710.093	16.15
710.12	11.15
710.148	-7.85
710.175	-8.85
710.202	0.15
710.23	0.15
710.257	10.15
710.284	13.15
710.312	4.15
710.339	6.15
710.366	19.15
710.394	2.15
710.421	-4.85
710.448	7.15
710.476	-12.85
710.503	9.15
710.53	14.15
710.558	20.15
710.585	20.15
710.612	10.15
710.64	14.15
710.667	14.15
710.694	-3.85
710.722	-3.85
710.749	8.15
710.776	4.15
710.804	21.15
710.831	1.15
710.858	14.15
710.885	-2.85
710.913	-6.85
710.94	15.15
710.967	10.15
710.995	12.15
711.022	6.15
711.049	18.15
711.076	-1.85
711.104	14.15
711.131	-0.85
711.158	5.15
711.185	11.15
711.213	-11.85
711.24	8.15
711.267	4.15
711.294	4.15
711.322	11.15
711.349	4.15
711.376	-1.85
711.403	16.15
711.431	4.15
711.458	-11.85
711.485	7.15
711.512	-3.85
711.54	13.15
711.567	-1.85
711.594	11.15
711.621	5.15
711.648	13.15
711.676	7.15
711.703	10.15
711.73	-11.85
711.757	3.15
711.784	0.15
711.812	-3.85
711.839	-3.85
711.866	4.15
711.893	-12.85
711.92	20.15
711.947	18.15
711.975	5.15
712.002	-7.85
712.029	10.15
712.056	15.15
712.083	10.15
712.11	-8.85
712.138	27.15
712.165	-2.85
712.192	-6.85
712.219	-6.85
712.246	-2.85
712.273	6.15
712.3	0.15
712.328	5.15
712.355	7.15
712.382	-15.85
712.409	11.15
712.436	0.15
712.463	10.15
712.49	19.15
712.517	-3.85
712.544	1.15
712.572	1.15
712.599	8.15
712.626	8.15
712.653	-5.85
712.68	6.15
712.707	0.15
712.734	22.15
712.761	-4.85
712.788	-1.85
712.815	-8.85
712.842	15.15
712.87	8.15
712.897	-10.85
712.924	-0.85
712.951	-3.85
712.978	1.15
713.005	6.15
713.032	8.15
713.059	3.15
713.086	-3.85
713.113	-13.85
713.14	-15.85
713.167	-6.85
713.194	16.15
713.221	15.15
713.248	-0.85
713.275	-1.85
713.302	1.15
713.329	12.15
713.356	8.15
713.383	8.15
713.41	7.15
713.437	4.15
713.464	8.15
713.491	4.15
713.518	-1.85
713.545	11.15
713.572	6.15
713.599	20.15
713.626	2.15
713.653	7.15
713.68	6.15
713.707	3.15
713.734	3.15
713.761	-8.85
713.788	-5.85
713.815	1.15
713.842	7.15
713.869	-2.85
713.896	-1.85
713.923	0.15
713.95	-13.85
713.977	7.15
714.004	2.15
714.031	-6.85
714.058	4.15
714.085	-12.85
714.112	12.15
714.139	9.15
714.165	-9.85
714.192	-7.85
714.219	0.15
714.246	8.15
714.273	14.15
714.3	7.15
714.327	5.15
714.354	19.15
714.381	2.15
714.408	4.15
714.435	1.15
714.461	11.15
714.488	16.15
714.515	-2.85
714.542	-10.85
714.569	-9.85
714.596	-22.85
714.623	4.15
714.65	2.15
714.677	14.15
714.703	-4.85
714.73	-0.85
714.757	-1.85
714.784	22.15
714.811	-2.85
714.838	6.15
714.865	-5.85
714.891	6.15
714.918	-1.85
714.945	-8.85
714.972	-17.85
714.999	3.15
715.026	5.15
715.052	22.15
715.079	-0.85
715.106	12.15
715.133	-6.85
715.16	4.15
715.187	12.15
715.213	18.15
715.24	11.15
715.267	7.15
715.294	1.15
715.321	-12.85
715.347	-4.85
715.374	6.15
715.401	-4.85
715.428	-4.85
715.455	10.15
715.481	-5.85
715.508	14.15
715.535	9.15
715.562	25.15
715.588	33.15
715.615	11.15
715.642	19.15
715.669	17.15
715.695	-4.85
715.722	2.15
715.749	19.15
715.776	25.15
715.802	6.15
715.829	7.15
715.856	0.15
715.883	7.15
715.909	12.15
715.936	4.15
715.963	4.15
715.99	-12.85
716.016	-7.85
716.043	0.15
716.07	-1.85
716.096	-0.85
716.123	6.15
716.15	7.15
716.177	3.15
716.203	2.15
716.23	15.15
716.257	-3.85
716.283	6.15
716.31	4.15
716.337	9.15
716.363	-2.85
716.39	14.15
716.417	6.15
716.443	-2.85
716.47	8.15
716.497	19.15
716.523	15.15
716.55	1.15
716.577	16.15
716.603	5.15
716.63	9.15
716.657	15.15
716.683	-9.85
716.71	0.15
716.737	9.15
716.763	5.15
716.79	7.15
716.817	7.15
716.843	-7.85
716.87	-1.85
716.897	17.15
716.923	16.15
716.95	3.15
716.976	1.15
717.003	-2.85
717.03	3.15
717.056	4.15
717.083	1.15
717.109	15.15
717.136	4.15
717.163	2.15
717.189	10.15
717.216	0.15
717.242	-0.85
717.269	3.15
717.296	-3.85
717.322	6.15
717.349	7.15
717.375	10.15
717.402	6.15
717.428	12.15
717.455	6.15
717.481	5.15
717.508	14.15
717.535	0.15
717.561	-1.85
717.588	3.15
717.614	5.15
717.641	8.15
717.667	3.15
717.694	6.15
717.72	2.15
717.747	7.15
717.773	-7.85
717.8	12.15
717.826	8.15
717.853	6.15
717.88	0.15
717.906	5.15
717.933	18.15
717.959	6.15
717.986	6.15
718.012	1.15
718.039	17.15
718.065	15.15
718.092	18.15
718.118	-6.85
718.144	12.15
718.171	21.15
718.197	25.15
718.224	-3.85
718.25	9.15
718.277	6.15
718.303	2.15
718.33	0.15
718.356	-4.85
718.383	-7.85
718.409	6.15
718.436	-4.85
718.462	-7.85
718.489	19.15
718.515	20.15
718.541	20.15
718.568	30.15
718.594	1.15
718.621	18.15
718.647	11.15
718.674	18.15
718.7	23.15
718.726	-3.85
718.753	6.15
718.779	14.15
718.806	-0.85
718.832	0.15
718.858	-14.85
718.885	-5.85
718.911	1.15
718.938	8.15
718.964	-0.85
718.99	2.15
719.017	4.15
719.043	-3.85
719.07	22.15
719.096	2.15
719.122	3.15
719.149	2.15
719.175	-4.85
719.201	4.15
719.228	15.15
719.254	8.15
719.281	-15.85
719.307	0.15
719.333	3.15
719.36	5.15
719.386	2.15
719.412	-1.85
719.439	6.15
719.465	1.15
719.491	-5.85
719.518	6.15
719.544	17.15
719.57	12.15
719.597	7.15
719.623	14.15
719.649	14.15
719.675	6.15
719.702	15.15
719.728	20.15
719.754	-1.85
719.781	6.15
719.807	9.15
719.833	7.15
719.86	6.15
719.886	11.15
719.912	19.15
719.938	3.15
719.965	12.15
719.991	4.15
720.017	0.15
720.044	-1.85
720.07	3.15
720.096	11.15
720.122	8.15
720.149	22.15
720.175	26.15
720.201	12.15
720.227	-1.85
720.254	9.15
720.28	7.15
720.306	-14.85
720.332	0.15
720.359	2.15
720.385	10.15
720.411	-3.85
720.437	18.15
720.463	7.15
720.49	9.15
720.516	3.15
720.542	3.15
720.568	0.15
720.595	9.15
720.621	-0.85
720.647	13.15
720.673	3.15
720.699	-4.85
720.725	13.15
720.752	-1.85
720.778	8.15
720.804	6.15
720.83	7.15
720.856	10.15
720.883	-2.85
720.909	1.15
720.935	12.15
720.961	21.15
720.987	13.15
721.013	13.15
721.04	-2.85
721.066	-2.85
721.092	-16.85
721.118	11.15
721.144	6.15
721.17	13.15
721.196	8.15
721.223	0.15
721.249	-4.85
721.275	14.15
721.301	2.15
721.327	8.15
721.353	13.15
721.379	18.15
721.405	17.15
721.432	19.15
721.458	-0.85
721.484	17.15
721.51	9.15
721.536	14.15
721.562	16.15
721.588	0.15
721.614	5.15
721.64	-10.85
721.666	2.15
721.693	7.15
721.719	-2.85
721.745	-1.85
721.771	-4.85
721.797	3.15
721.823	2.15
721.849	22.15
721.875	12.15
721.901	5.15
721.927	12.15
721.953	9.15
721.979	6.15
722.005	12.15
722.031	-6.85
722.057	17.15
722.083	15.15
722.109	3.15
722.135	2.15
722.161	4.15
722.187	-7.85
722.214	-5.85
722.24	1.15
722.266	-3.85
722.292	7.15
722.318	6.15
722.344	16.15
722.37	8.15
722.396	18.15
722.422	5.15
722.448	10.15
722.474	3.15
722.5	14.15
722.526	-3.85
722.552	-4.85
722.578	15.15
722.603	22.15
722.629	10.15
722.655	6.15
722.681	-6.85
722.707	6.15
722.733	4.15
722.759	-9.85
722.785	5.15
722.811	6.15
722.837	6.15
722.863	19.15
722.889	11.15
722.915	1.15
722.941	-0.85
722.967	4.15
722.993	11.15
723.019	2.15
723.045	4.15
723.071	16.15
723.097	5.15
723.122	14.15
723.148	9.15
723.174	14.15
723.2	6.15
723.226	0.15
723.252	3.15
723.278	16.15
723.304	3.15
723.33	6.15
723.356	1.15
723.381	11.15
723.407	-15.85
723.433	14.15
723.459	-1.85
723.485	3.15
723.511	1.15
723.537	8.15
723.563	10.15
723.588	12.15
723.614	17.15
723.64	4.15
723.666	15.15
723.692	8.15
723.718	-2.85
723.744	0.15
723.769	-6.85
723.795	-0.85
723.821	8.15
723.847	0.15
723.873	1.15
723.899	10.15
723.924	-3.85
723.95	20.15
723.976	-9.85
724.002	7.15
724.028	16.15
724.053	1.15
724.079	3.15
724.105	11.15
724.131	9.15
724.157	5.15
724.182	17.15
724.208	-0.85
724.234	15.15
724.26	4.15
724.286	14.15
724.311	3.15
724.337	-23.85
724.363	2.15
724.389	9.15
724.415	0.15
724.44	18.15
724.466	6.15
724.492	6.15
724.518	5.15
724.543	9.15
724.569	9.15
724.595	11.15
724.621	-3.85
724.646	-4.85
724.672	-2.85
724.698	2.15
724.723	-1.85
724.749	2.15
724.775	2.15
724.801	0.15
724.826	15.15
724.852	11.15
724.878	8.15
724.904	-13.85
724.929	10.15
724.955	-7.85
724.981	7.15
725.006	19.15
725.032	2.15
725.058	8.15
725.083	2.15
725.109	-0.85
725.135	6.15
725.161	8.15
725.186	4.15
725.212	5.15
725.238	8.15
725.263	-5.85
725.289	3.15
725.315	5.15
725.34	3.15
725.366	4.15
725.392	4.15
725.417	15.15
725.443	8.15
725.468	9.15
725.494	27.15
725.52	4.15
725.545	6.15
725.571	-12.85
725.597	-4.85
725.622	10.15
725.648	3.15
725.674	11.15
725.699	10.15
725.725	13.15
725.75	14.15
725.776	-6.85
725.802	3.15
725.827	5.15
725.853	1.15
725.878	9.15
725.904	13.15
725.93	10.15
725.955	-6.85
725.981	-7.85
726.006	-2.85
726.032	16.15
726.057	0.15
726.083	8.15
726.109	4.15
726.134	-2.85
726.16	12.15
726.185	11.15
726.211	2.15
726.236	8.15
726.262	10.15
726.288	9.15
726.313	12.15
726.339	19.15
726.364	7.15
726.39	9.15
726.415	8.15
726.441	4.15
726.466	3.15
726.492	-16.85
726.517	4.15
726.543	12.15
726.568	10.15
726.594	12.15
726.619	0.15
726.645	13.15
726.67	5.15
726.696	8.15
726.721	7.15
726.747	-5.85
726.772	1.15
726.798	14.15
726.823	18.15
726.849	6.15
726.874	10.15
726.9	31.15
726.925	11.15
726.951	8.15
726.976	16.15
727.002	-8.85
727.027	10.15
727.053	33.15
727.078	13.15
727.104	7.15
727.129	-8.85
727.155	-1.85
727.18	11.15
727.205	5.15
727.231	-1.85
727.256	-3.85
727.282	2.15
727.307	6.15
727.333	-4.85
727.358	9.15
727.383	-8.85
727.409	-1.85
727.434	0.15
727.46	-13.85
727.485	9.15
727.511	12.15
727.536	-2.85
727.561	-10.85
727.587	-9.85
727.612	-9.85
727.637	2.15
727.663	10.15
727.688	32.15
727.714	-0.85
727.739	-1.85
727.764	1.15
727.79	4.15
727.815	9.15
727.841	12.15
727.866	10.15
727.891	-0.85
727.917	-10.85
727.942	-5.85
727.967	9.15
727.993	-12.85
728.018	12.15
728.043	14.15
728.069	17.15
728.094	0.15
728.119	6.15
728.145	20.15
728.17	21.15
728.195	21.15
728.221	21.15
728.246	3.15
728.271	8.15
728.297	8.15
728.322	2.15
728.347	2.15
728.373	6.15
728.398	6.15
728.423	5.15
728.448	8.15
728.474	6.15
728.499	19.15
728.524	-20.85
728.55	-8.85
728.575	13.15
728.6	14.15
728.625	17.15
728.651	15.15
728.676	-5.85
728.701	9.15
728.727	10.15
728.752	3.15
728.777	2.15
728.802	26.15
728.828	0.15
728.853	31.15
728.878	12.15
728.903	-13.85
728.929	0.15
728.954	10.15
728.979	29.15
729.004	12.15
729.03	-7.85
729.055	16.15
729.08	5.15
729.105	-2.85
729.13	27.15
729.156	15.15
729.181	-3.85
729.206	-16.85
729.231	-1.85
729.256	3.15
729.282	10.15
729.307	-13.85
729.332	8.15
729.357	-4.85
729.382	8.15
729.408	6.15
729.433	-6.85
729.458	2.15
729.483	23.15
729.508	26.15
729.533	6.15
729.559	21.15
729.584	-6.85
729.609	14.15
729.634	23.15
729.659	5.15
729.684	4.15
729.71	20.15
729.735	2.15
729.76	-3.85
729.785	3.15
729.81	14.15
729.835	-8.85
729.86	-5.85
729.886	19.15
729.911	7.15
729.936	-1.85
729.961	15.15
729.986	-9.85
730.011	2.15
730.036	1.15
730.061	11.15
730.086	6.15
730.112	2.15
730.137	10.15
730.162	-2.85
730.187	-8.85
730.212	14.15
730.237	5.15
730.262	8.15
730.287	-0.85
730.312	3.15
730.337	-1.85
730.362	22.15
730.387	8.15
730.413	-16.85
730.438	5.15
730.463	12.15
730.488	-1.85
730.513	0.15
730.538	2.15
730.563	15.15
730.588	15.15
730.613	4.15
730.638	-2.85
730.663	-12.85
730.688	17.15
730.713	10.15
730.738	1.15
730.763	7.15
730.788	-9.85
730.813	15.15
730.838	1.15
730.863	-5.85
730.888	4.15
730.913	-8.85
730.938	-27.85
730.963	1.15
730.988	6.15
731.013	7.15
731.038	6.15
731.063	-1.85
731.088	19.15
731.113	14.15
731.138	8.15
731.163	3.15
731.188	4.15
731.213	15.15
731.238	10.15
731.263	3.15
731.288	10.15
731.313	23.15
731.338	11.15
731.363	10.15
731.388	8.15
731.413	-3.85
731.438	31.15
731.463	12.15
731.487	3.15
731.512	-7.85
731.537	-5.85
731.562	-9.85
731.587	6.15
731.612	-1.85
731.637	-6.85
731.662	2.15
731.687	-1.85
731.712	-12.85
731.737	14.15
731.762	-1.85
731.786	0.15
731.811	6.15
731.836	16.15
731.861	0.15
731.886	-6.85
731.911	8.15
731.936	20.15
731.961	2.15
731.986	2.15
732.01	15.15
732.035	3.15
732.06	4.15
732.085	5.15
732.11	11.15
732.135	-1.85
732.16	6.15
732.184	-4.85
732.209	-3.85
732.234	2.15
732.259	3.15
732.284	30.15
732.309	9.15
732.334	-4.85
732.358	-5.85
732.383	-8.85
732.408	6.15
732.433	-7.85
732.458	0.15
732.482	11.15
732.507	10.15
732.532	1.15
732.557	15.15
732.582	13.15
732.607	-1.85
732.631	-12.85
732.656	-7.85
732.681	13.15
732.706	12.15
732.73	7.15
732.755	-7.85
732.78	9.15
732.805	6.15
732.83	1.15
732.854	0.15
732.879	16.15
732.904	-4.85
732.929	19.15
732.953	16.15
732.978	2.15
733.003	-13.85
733.028	-17.85
733.052	0.15
733.077	9.15
733.102	17.15
733.127	14.15
733.151	10.15
733.176	-2.85
733.201	-1.85
733.226	2.15
733.25	7.15
733.275	-0.85
733.3	7.15
733.324	7.15
733.349	5.15
733.374	1.15
733.399	1.15
733.423	12.15
733.448	3.15
733.473	6.15
733.497	-0.85
733.522	6.15
733.547	17.15
733.571	25.15
733.596	11.15
733.621	6.15
733.646	12.15
733.67	3.15
733.695	14.15
733.72	-5.85
733.744	19.15
733.769	6.15
733.794	10.15
733.818	3.15
733.843	1.15
733.867	1.15
733.892	2.15
733.917	16.15
733.941	16.15
733.966	4.15
733.991	6.15
734.015	19.15
734.04	15.15
734.065	23.15
734.089	12.15
734.114	-1.85
734.138	16.15
734.163	9.15
734.188	11.15
734.212	15.15
734.237	12.15
734.261	-7.85
734.286	-17.85
734.311	7.15
734.335	-11.85
734.36	15.15
734.384	14.15
734.409	24.15
734.434	9.15
734.458	21.15
734.483	15.15
734.507	-1.85
734.532	17.15
734.556	15.15
734.581	14.15
734.606	9.15
734.63	3.15
734.655	10.15
734.679	5.15
734.704	12.15
734.728	-1.85
734.753	14.15
734.777	14.15
734.802	12.15
734.826	-2.85
734.851	-5.85
734.876	16.15
734.9	6.15
734.925	14.15
734.949	16.15
734.974	4.15
734.998	17.15
735.023	16.15
735.047	-9.85
735.072	32.15
735.096	7.15
735.121	13.15
735.145	1.15
735.17	12.15
735.194	20.15
735.219	13.15
735.243	15.15
735.268	23.15
735.292	11.15
735.317	8.15
735.341	8.15
735.365	-7.85
735.39	10.15
735.414	8.15
735.439	-0.85
735.463	1.15
735.488	10.15
735.512	2.15
735.537	-0.85
735.561	10.15
735.586	1.15
735.61	1.15
735.634	-7.85
735.659	9.15
735.683	11.15
735.708	23.15
735.732	9.15
735.757	9.15
735.781	13.15
735.805	11.15
735.83	4.15
735.854	17.15
735.879	24.15
735.903	11.15
735.927	7.15
735.952	18.15
735.976	6.15
736.001	6.15
736.025	7.15
736.049	-0.85
736.074	-1.85
736.098	4.15
736.123	14.15
736.147	2.15
736.171	21.15
736.196	12.15
736.22	-6.85
736.244	-5.85
736.269	6.15
736.293	4.15
736.317	14.15
736.342	-6.85
736.366	6.15
736.39	17.15
736.415	3.15
736.439	7.15
736.463	12.15
736.488	10.15
736.512	20.15
736.536	2.15
736.561	16.15
736.585	-6.85
736.609	4.15
736.634	-2.85
736.658	9.15
736.682	-5.85
736.707	-2.85
736.731	-13.85
736.755	6.15
736.78	25.15
736.804	0.15
736.828	3.15
736.852	6.15
736.877	3.15
736.901	7.15
736.925	-1.85
736.949	-3.85
736.974	-4.85
736.998	-0.85
737.022	9.15
737.047	14.15
737.071	6.15
737.095	20.15
737.119	27.15
737.144	16.15
737.168	11.15
737.192	-2.85
737.216	16.15
737.241	-2.85
737.265	11.15
737.289	-0.85
737.313	14.15
737.337	22.15
737.362	7.15
737.386	-1.85
737.41	-15.85
737.434	13.15
737.459	14.15
737.483	24.15
737.507	31.15
737.531	3.15
737.555	27.15
737.58	27.15
737.604	9.15
737.628	-8.85
737.652	4.15
737.676	3.15
737.701	26.15
737.725	12.15
737.749	15.15
737.773	4.15
737.797	-4.85
737.821	9.15
737.846	-11.85
737.87	21.15
737.894	7.15
737.918	18.15
737.942	4.15
737.966	18.15
737.99	5.15
738.015	14.15
738.039	15.15
738.063	7.15
738.087	8.15
738.111	6.15
738.135	23.15
738.159	-4.85
738.184	-7.85
738.208	2.15
738.232	1.15
738.256	34.15
738.28	20.15
738.304	22.15
738.328	6.15
738.352	16.15
738.376	11.15
738.4	3.15
738.425	10.15
738.449	-14.85
738.473	23.15
738.497	4.15
738.521	9.15
738.545	24.15
738.569	17.15
738.593	3.15
738.617	15.15
738.641	19.15
738.665	-1.85
738.689	19.15
738.713	1.15
738.737	18.15
738.762	10.15
738.786	10.15
738.81	-15.85
738.834	24.15
738.858	0.15
738.882	8.15
738.906	-3.85
738.93	-11.85
738.954	5.15
738.978	4.15
739.002	-3.85
739.026	6.15
739.05	15.15
739.074	6.15
739.098	16.15
739.122	16.15
739.146	11.15
739.17	18.15
739.194	24.15
739.218	4.15
739.242	2.15
739.266	0.15
739.29	15.15
739.314	10.15
739.338	-9.85
739.362	0.15
739.386	-1.85
739.41	-7.85
739.434	0.15
739.458	15.15
739.482	10.15
739.506	3.15
739.53	-1.85
739.554	13.15
739.577	15.15
739.601	16.15
739.625	-1.85
739.649	19.15
739.673	7.15
739.697	11.15
739.721	2.15
739.745	3.15
739.769	17.15
739.793	12.15
739.817	19.15
739.841	-7.85
739.865	-7.85
739.889	-6.85
739.912	8.15
739.936	0.15
739.96	8.15
739.984	27.15
740.008	5.15
740.032	-0.85
740.056	4.15
740.08	3.15
740.104	3.15
740.127	23.15
740.151	14.15
740.175	2.15
740.199	22.15
740.223	48.15
740.247	20.15
740.271	4.15
740.295	3.15
740.318	-11.85
740.342	-5.85
740.366	19.15
740.39	12.15
740.414	6.15
740.438	4.15
740.461	20.15
740.485	12.15
740.509	1.15
740.533	10.15
740.557	7.15
740.581	10.15
740.604	0.15
740.628	4.15
740.652	6.15
740.676	4.15
740.7	12.15
740.723	-5.85
740.747	3.15
740.771	-11.85
740.795	-9.85
740.819	13.15
740.842	4.15
740.866	23.15
740.89	-0.85
740.914	-11.85
740.938	13.15
740.961	14.15
740.985	7.15
741.009	2.15
741.033	15.15
741.056	8.15
741.08	18.15
741.104	9.15
741.128	4.15
741.151	13.15
741.175	3.15
741.199	4.15
741.223	12.15
741.246	-2.85
741.27	17.15
741.294	7.15
741.318	-1.85
741.341	13.15
741.365	3.15
741.389	15.15
741.413	27.15
741.436	14.15
741.46	7.15
741.484	25.15
741.507	8.15
741.531	12.15
741.555	24.15
741.579	1.15
741.602	11.15
741.626	20.15
741.65	10.15
741.673	4.15
741.697	25.15
741.721	13.15
741.744	-15.85
741.768	-0.85
741.792	6.15
741.815	-6.85
741.839	14.15
741.863	12.15
741.886	6.15
741.91	14.15
741.934	6.15
741.957	11.15
741.981	14.15
742.005	-5.85
742.028	-8.85
742.052	3.15
742.075	13.15
742.099	18.15
742.123	4.15
742.146	3.15
742.17	9.15
742.194	-8.85
742.217	-7.85
742.241	-0.85
742.264	-13.85
742.288	8.15
742.312	23.15
742.335	7.15
742.359	11.15
742.382	10.15
742.406	15.15
742.43	-1.85
742.453	10.15
742.477	-1.85
742.5	4.15
742.524	0.15
742.548	0.15
742.571	2.15
742.595	15.15
742.618	2.15
742.642	6.15
742.665	15.15
742.689	-0.85
742.712	22.15
742.736	1.15
742.76	2.15
742.783	4.15
742.807	19.15
742.83	15.15
742.854	4.15
742.877	8.15
742.901	2.15
742.924	3.15
742.948	16.15
742.971	1.15
742.995	10.15
743.018	-6.85
743.042	-4.85
743.065	7.15
743.089	7.15
743.112	-12.85
743.136	-4.85
743.159	-0.85
743.183	13.15
743.206	12.15
743.23	-0.85
743.253	6.15
743.277	22.15
743.3	-4.85
743.324	-1.85
743.347	0.15
743.371	28.15
743.394	-0.85
743.418	17.15
743.441	16.15
743.465	3.15
743.488	-17.85
743.512	1.15
743.535	5.15
743.558	-0.85
743.582	4.15
743.605	4.15
743.629	1.15
743.652	10.15
743.676	6.15
743.699	13.15
743.723	1.15
743.746	1.15
743.769	12.15
743.793	24.15
743.816	0.15
743.84	16.15
743.863	6.15
743.886	10.15
743.91	17.15
743.933	14.15
743.957	2.15
743.98	2.15
744.003	3.15
744.027	21.15
744.05	8.15
744.074	11.15
744.097	-16.85
744.12	3.15
744.144	-8.85
744.167	22.15
744.19	-1.85
744.214	0.15
744.237	5.15
744.26	10.15
744.284	4.15
744.307	-16.85
744.331	7.15
744.354	-1.85
744.377	-13.85
744.401	1.15
744.424	4.15
744.447	-13.85
744.471	-7.85
