Data from HighRes_H2D2_15_04_11_07_2024_HR4C61891__34__15-05-37-843.txt Node

Date: Thu Nov 07 15:05:37 EST 2024
User: crc00042
Spectrometer: HR4C6189
Trigger mode: 4
Integration Time (sec): 1.000000E-1
Scans to average: 1
Electric dark correction enabled: true
Nonlinearity correction enabled: false
Boxcar width: 0
XAxis mode: Wavelengths
Number of Pixels in Spectrum: 3648
>>>>>Begin Spectral Data<<<<<
639.567	-68.15
639.602	-68.15
639.636	-68.15
639.67	-29.15
639.704	-18.15
639.738	3.85
639.773	9.85
639.807	-24.15
639.841	-9.15
639.875	9.85
639.909	-0.15
639.943	-6.15
639.978	5.85
640.012	6.85
640.046	1.85
640.08	-2.15
640.114	3.85
640.148	-0.15
640.182	-2.15
640.217	-10.15
640.251	9.85
640.285	2.85
640.319	-4.15
640.353	8.85
640.387	-0.15
640.421	-4.15
640.455	-7.15
640.49	10.85
640.524	15.85
640.558	15.85
640.592	-5.15
640.626	8.85
640.66	28.85
640.694	2.85
640.728	1.85
640.762	9.85
640.796	19.85
640.83	19.85
640.865	-7.15
640.899	1.85
640.933	-0.15
640.967	-1.15
641.001	-1.15
641.035	5.85
641.069	-9.15
641.103	-10.15
641.137	1.85
641.171	-10.15
641.205	9.85
641.239	-1.15
641.273	8.85
641.307	18.85
641.341	0.85
641.375	-2.15
641.409	-6.15
641.443	-2.15
641.477	-4.15
641.511	5.85
641.545	8.85
641.579	5.85
641.614	9.85
641.648	21.85
641.682	8.85
641.716	13.85
641.75	11.85
641.784	1.85
641.818	19.85
641.852	4.85
641.886	-5.15
641.919	23.85
641.953	-2.15
641.987	-25.15
642.021	-7.15
642.055	7.85
642.089	3.85
642.123	-18.15
642.157	-5.15
642.191	-11.15
642.225	10.85
642.259	-5.15
642.293	18.85
642.327	1.85
642.361	-8.15
642.395	-0.15
642.429	2.85
642.463	0.85
642.497	21.85
642.531	0.85
642.565	-5.15
642.599	8.85
642.633	-0.15
642.666	11.85
642.7	1.85
642.734	2.85
642.768	0.85
642.802	12.85
642.836	12.85
642.87	-1.15
642.904	15.85
642.938	17.85
642.972	6.85
643.005	-2.15
643.039	14.85
643.073	4.85
643.107	9.85
643.141	10.85
643.175	10.85
643.209	8.85
643.243	5.85
643.276	15.85
643.31	-11.15
643.344	-4.15
643.378	8.85
643.412	-1.15
643.446	10.85
643.48	-8.15
643.513	-0.15
643.547	-0.15
643.581	-18.15
643.615	6.85
643.649	7.85
643.683	10.85
643.716	-16.15
643.75	13.85
643.784	6.85
643.818	16.85
643.852	-4.15
643.886	8.85
643.919	5.85
643.953	-0.15
643.987	3.85
644.021	18.85
644.055	11.85
644.088	-4.15
644.122	-1.15
644.156	-2.15
644.19	0.85
644.224	10.85
644.257	-17.15
644.291	-0.15
644.325	-0.15
644.359	-0.15
644.392	9.85
644.426	28.85
644.46	9.85
644.494	2.85
644.527	5.85
644.561	-3.15
644.595	-3.15
644.629	-18.15
644.662	-8.15
644.696	3.85
644.73	0.85
644.764	-4.15
644.797	-19.15
644.831	-3.15
644.865	2.85
644.899	3.85
644.932	1.85
644.966	-22.15
645	-1.15
645.033	5.85
645.067	4.85
645.101	7.85
645.135	0.85
645.168	-17.15
645.202	-7.15
645.236	0.85
645.269	-3.15
645.303	-1.15
645.337	-1.15
645.37	3.85
645.404	8.85
645.438	-3.15
645.471	-6.15
645.505	8.85
645.539	-0.15
645.572	-14.15
645.606	-10.15
645.64	-1.15
645.673	2.85
645.707	16.85
645.741	-2.15
645.774	-15.15
645.808	-4.15
645.842	-10.15
645.875	8.85
645.909	-8.15
645.943	-3.15
645.976	12.85
646.01	-6.15
646.043	-1.15
646.077	11.85
646.111	-2.15
646.144	-3.15
646.178	9.85
646.212	-11.15
646.245	-5.15
646.279	8.85
646.312	13.85
646.346	21.85
646.38	-5.15
646.413	14.85
646.447	6.85
646.48	-5.15
646.514	13.85
646.547	10.85
646.581	0.85
646.615	-3.15
646.648	3.85
646.682	-4.15
646.715	-6.15
646.749	10.85
646.782	6.85
646.816	0.85
646.85	-1.15
646.883	3.85
646.917	4.85
646.95	14.85
646.984	13.85
647.017	11.85
647.051	15.85
647.084	5.85
647.118	-4.15
647.151	-14.15
647.185	4.85
647.218	-8.15
647.252	3.85
647.285	-1.15
647.319	-21.15
647.353	0.85
647.386	0.85
647.42	-3.15
647.453	0.85
647.487	-13.15
647.52	0.85
647.553	5.85
647.587	8.85
647.62	-5.15
647.654	-3.15
647.687	16.85
647.721	0.85
647.754	10.85
647.788	-7.15
647.821	-9.15
647.855	3.85
647.888	10.85
647.922	8.85
647.955	2.85
647.989	9.85
648.022	5.85
648.055	12.85
648.089	0.85
648.122	13.85
648.156	6.85
648.189	-3.15
648.223	14.85
648.256	16.85
648.29	18.85
648.323	-3.15
648.356	10.85
648.39	10.85
648.423	10.85
648.457	-10.15
648.49	-6.15
648.523	12.85
648.557	8.85
648.59	-5.15
648.624	13.85
648.657	-13.15
648.69	28.85
648.724	-1.15
648.757	14.85
648.791	11.85
648.824	2.85
648.857	19.85
648.891	5.85
648.924	0.85
648.957	3.85
648.991	-10.15
649.024	-1.15
649.057	-13.15
649.091	-0.15
649.124	27.85
649.158	14.85
649.191	25.85
649.224	-13.15
649.258	-6.15
649.291	11.85
649.324	-6.15
649.358	-5.15
649.391	0.85
649.424	10.85
649.458	9.85
649.491	-1.15
649.524	-19.15
649.557	-19.15
649.591	-10.15
649.624	6.85
649.657	2.85
649.691	-0.15
649.724	-6.15
649.757	-8.15
649.791	-8.15
649.824	8.85
649.857	8.85
649.89	2.85
649.924	0.85
649.957	2.85
649.99	-17.15
650.023	2.85
650.057	0.85
650.09	3.85
650.123	-11.15
650.157	0.85
650.19	3.85
650.223	-4.15
650.256	-10.15
650.29	-4.15
650.323	-9.15
650.356	12.85
650.389	15.85
650.423	-17.15
650.456	1.85
650.489	21.85
650.522	13.85
650.555	17.85
650.589	12.85
650.622	6.85
650.655	-8.15
650.688	5.85
650.721	0.85
650.755	-6.15
650.788	21.85
650.821	8.85
650.854	2.85
650.887	7.85
650.921	2.85
650.954	11.85
650.987	-0.15
651.02	-2.15
651.053	-14.15
651.087	-4.15
651.12	-0.15
651.153	8.85
651.186	10.85
651.219	-12.15
651.252	-4.15
651.286	7.85
651.319	-8.15
651.352	4.85
651.385	11.85
651.418	-8.15
651.451	22.85
651.484	15.85
651.518	7.85
651.551	33.85
651.584	-13.15
651.617	19.85
651.65	-5.15
651.683	11.85
651.716	17.85
651.749	-11.15
651.783	8.85
651.816	-2.15
651.849	-3.15
651.882	-3.15
651.915	2.85
651.948	-3.15
651.981	-4.15
652.014	-9.15
652.047	-10.15
652.08	-6.15
652.114	-3.15
652.147	5.85
652.18	2.85
652.213	21.85
652.246	-9.15
652.279	-6.15
652.312	7.85
652.345	5.85
652.378	9.85
652.411	11.85
652.444	20.85
652.477	26.85
652.51	8.85
652.543	-10.15
652.576	-4.15
652.609	0.85
652.642	1.85
652.675	0.85
652.709	-4.15
652.742	6.85
652.775	9.85
652.808	15.85
652.841	-9.15
652.874	10.85
652.907	-11.15
652.94	-15.15
652.973	-29.15
653.006	-7.15
653.039	3.85
653.072	8.85
653.105	1.85
653.138	-6.15
653.171	-0.15
653.204	1.85
653.237	-7.15
653.27	-5.15
653.303	22.85
653.336	18.85
653.368	4.85
653.401	5.85
653.434	-3.15
653.467	8.85
653.5	-15.15
653.533	-14.15
653.566	-5.15
653.599	15.85
653.632	-3.15
653.665	2.85
653.698	-13.15
653.731	-0.15
653.764	9.85
653.797	15.85
653.83	12.85
653.863	7.85
653.896	-3.15
653.929	1.85
653.961	4.85
653.994	15.85
654.027	3.85
654.06	-1.15
654.093	7.85
654.126	7.85
654.159	1.85
654.192	4.85
654.225	-5.15
654.258	-6.15
654.29	3.85
654.323	0.85
654.356	-3.15
654.389	0.85
654.422	-1.15
654.455	-1.15
654.488	1.85
654.521	-7.15
654.553	5.85
654.586	8.85
654.619	3.85
654.652	-0.15
654.685	10.85
654.718	1.85
654.751	8.85
654.783	12.85
654.816	13.85
654.849	1.85
654.882	-17.15
654.915	-2.15
654.948	5.85
654.98	-14.15
655.013	-2.15
655.046	8.85
655.079	8.85
655.112	22.85
655.144	8.85
655.177	8.85
655.21	13.85
655.243	16.85
655.276	9.85
655.308	2.85
655.341	-5.15
655.374	9.85
655.407	9.85
655.44	9.85
655.472	12.85
655.505	4.85
655.538	3.85
655.571	13.85
655.603	-8.15
655.636	6.85
655.669	23.85
655.702	12.85
655.734	-2.15
655.767	5.85
655.8	1.85
655.833	8.85
655.865	17.85
655.898	5.85
655.931	5.85
655.964	13.85
655.996	23.85
656.029	38.85
656.062	23.85
656.095	40.85
656.127	69.85
656.16	204.85
656.193	638.85
656.225	983.85
656.258	574.85
656.291	227.85
656.324	179.85
656.356	383.85
656.389	794.85
656.422	701.85
656.454	232.85
656.487	93.85
656.52	39.85
656.552	24.85
656.585	18.85
656.618	2.85
656.65	20.85
656.683	0.85
656.716	8.85
656.748	16.85
656.781	-7.15
656.814	-3.15
656.846	-0.15
656.879	-3.15
656.912	4.85
656.944	-1.15
656.977	-9.15
657.01	1.85
657.042	6.85
657.075	19.85
657.108	3.85
657.14	8.85
657.173	0.85
657.205	36.85
657.238	23.85
657.271	1.85
657.303	0.85
657.336	20.85
657.369	-0.15
657.401	-6.15
657.434	0.85
657.466	21.85
657.499	0.85
657.532	-4.15
657.564	5.85
657.597	0.85
657.629	9.85
657.662	10.85
657.694	-1.15
657.727	-1.15
657.76	11.85
657.792	7.85
657.825	-0.15
657.857	-7.15
657.89	-1.15
657.922	12.85
657.955	-8.15
657.987	6.85
658.02	23.85
658.053	18.85
658.085	2.85
658.118	-2.15
658.15	-15.15
658.183	15.85
658.215	4.85
658.248	-4.15
658.28	17.85
658.313	23.85
658.345	11.85
658.378	-0.15
658.41	-7.15
658.443	-2.15
658.475	2.85
658.508	7.85
658.54	3.85
658.573	-14.15
658.605	-13.15
658.638	-14.15
658.67	-1.15
658.703	-1.15
658.735	-3.15
658.768	0.85
658.8	-1.15
658.833	16.85
658.865	2.85
658.898	12.85
658.93	4.85
658.963	8.85
658.995	-18.15
659.028	-10.15
659.06	-2.15
659.092	-5.15
659.125	-3.15
659.157	12.85
659.19	-21.15
659.222	2.85
659.255	13.85
659.287	-8.15
659.32	2.85
659.352	15.85
659.384	18.85
659.417	-5.15
659.449	0.85
659.482	15.85
659.514	10.85
659.546	-17.15
659.579	-11.15
659.611	-0.15
659.644	7.85
659.676	-18.15
659.708	-3.15
659.741	19.85
659.773	14.85
659.806	-6.15
659.838	2.85
659.87	10.85
659.903	-6.15
659.935	4.85
659.967	-3.15
660	10.85
660.032	-22.15
660.065	10.85
660.097	-1.15
660.129	-0.15
660.162	-6.15
660.194	10.85
660.226	10.85
660.259	7.85
660.291	-8.15
660.323	-11.15
660.356	-3.15
660.388	-14.15
660.42	-3.15
660.453	-0.15
660.485	-2.15
660.517	7.85
660.55	10.85
660.582	9.85
660.614	7.85
660.647	-0.15
660.679	-22.15
660.711	5.85
660.743	4.85
660.776	-4.15
660.808	7.85
660.84	7.85
660.873	6.85
660.905	0.85
660.937	7.85
660.969	-7.15
661.002	5.85
661.034	4.85
661.066	-5.15
661.099	12.85
661.131	19.85
661.163	4.85
661.195	9.85
661.228	6.85
661.26	3.85
661.292	-4.15
661.324	2.85
661.357	7.85
661.389	-3.15
661.421	22.85
661.453	3.85
661.485	24.85
661.518	-9.15
661.55	-7.15
661.582	-17.15
661.614	-15.15
661.647	8.85
661.679	-10.15
661.711	6.85
661.743	4.85
661.775	-1.15
661.808	13.85
661.84	-13.15
661.872	4.85
661.904	-2.15
661.936	0.85
661.969	-2.15
662.001	-16.15
662.033	-5.15
662.065	1.85
662.097	5.85
662.129	-9.15
662.162	-7.15
662.194	18.85
662.226	-2.15
662.258	0.85
662.29	-4.15
662.322	4.85
662.355	-9.15
662.387	30.85
662.419	6.85
662.451	5.85
662.483	13.85
662.515	7.85
662.547	-5.15
662.58	0.85
662.612	4.85
662.644	-11.15
662.676	-10.15
662.708	10.85
662.74	-8.15
662.772	13.85
662.804	31.85
662.836	6.85
662.869	-18.15
662.901	-9.15
662.933	-2.15
662.965	25.85
662.997	4.85
663.029	2.85
663.061	2.85
663.093	3.85
663.125	20.85
663.157	1.85
663.189	-7.15
663.221	16.85
663.254	11.85
663.286	11.85
663.318	2.85
663.35	-8.15
663.382	-5.15
663.414	0.85
663.446	-5.15
663.478	-3.15
663.51	26.85
663.542	0.85
663.574	5.85
663.606	20.85
663.638	-4.15
663.67	-5.15
663.702	-9.15
663.734	1.85
663.766	19.85
663.798	4.85
663.83	0.85
663.862	20.85
663.894	19.85
663.926	4.85
663.958	3.85
663.99	18.85
664.022	-2.15
664.054	2.85
664.086	-6.15
664.118	-18.15
664.15	-16.15
664.182	-6.15
664.214	-1.15
664.246	6.85
664.278	-1.15
664.31	4.85
664.342	1.85
664.374	-9.15
664.406	-13.15
664.438	-5.15
664.47	18.85
664.502	0.85
664.534	5.85
664.566	-8.15
664.598	8.85
664.63	-7.15
664.662	-6.15
664.693	-3.15
664.725	-5.15
664.757	-4.15
664.789	-10.15
664.821	3.85
664.853	6.85
664.885	0.85
664.917	-7.15
664.949	27.85
664.981	22.85
665.013	-0.15
665.045	-15.15
665.076	-15.15
665.108	-1.15
665.14	-6.15
665.172	-13.15
665.204	-20.15
665.236	-2.15
665.268	8.85
665.3	-3.15
665.331	9.85
665.363	12.85
665.395	-4.15
665.427	1.85
665.459	14.85
665.491	-7.15
665.523	-2.15
665.555	1.85
665.586	2.85
665.618	-10.15
665.65	-21.15
665.682	17.85
665.714	10.85
665.746	9.85
665.777	2.85
665.809	-18.15
665.841	-6.15
665.873	7.85
665.905	-1.15
665.937	7.85
665.968	12.85
666	7.85
666.032	-12.15
666.064	-9.15
666.096	-20.15
666.127	9.85
666.159	3.85
666.191	12.85
666.223	2.85
666.255	0.85
666.286	-2.15
666.318	-9.15
666.35	16.85
666.382	3.85
666.413	-13.15
666.445	-17.15
666.477	-17.15
666.509	-7.15
666.54	2.85
666.572	2.85
666.604	4.85
666.636	18.85
666.667	15.85
666.699	23.85
666.731	-1.15
666.763	-18.15
666.794	-11.15
666.826	-1.15
666.858	-6.15
666.89	9.85
666.921	-2.15
666.953	-0.15
666.985	17.85
667.017	18.85
667.048	26.85
667.08	-4.15
667.112	3.85
667.143	-15.15
667.175	5.85
667.207	-4.15
667.238	1.85
667.27	10.85
667.302	14.85
667.334	-6.15
667.365	15.85
667.397	10.85
667.429	-3.15
667.46	5.85
667.492	5.85
667.524	-3.15
667.555	-10.15
667.587	-3.15
667.619	2.85
667.65	-2.15
667.682	-20.15
667.714	9.85
667.745	1.85
667.777	4.85
667.808	14.85
667.84	0.85
667.872	18.85
667.903	24.85
667.935	0.85
667.967	1.85
667.998	-1.15
668.03	-6.15
668.061	5.85
668.093	-3.15
668.125	2.85
668.156	-8.15
668.188	-10.15
668.22	-14.15
668.251	5.85
668.283	-0.15
668.314	6.85
668.346	-8.15
668.377	2.85
668.409	-12.15
668.441	12.85
668.472	6.85
668.504	8.85
668.535	-1.15
668.567	14.85
668.599	12.85
668.63	-9.15
668.662	8.85
668.693	-0.15
668.725	1.85
668.756	12.85
668.788	-5.15
668.819	-4.15
668.851	0.85
668.882	-1.15
668.914	-24.15
668.946	-20.15
668.977	1.85
669.009	8.85
669.04	4.85
669.072	-1.15
669.103	5.85
669.135	-7.15
669.166	3.85
669.198	13.85
669.229	9.85
669.261	-0.15
669.292	2.85
669.324	9.85
669.355	-2.15
669.387	2.85
669.418	-5.15
669.45	6.85
669.481	8.85
669.513	1.85
669.544	-7.15
669.576	2.85
669.607	13.85
669.639	9.85
669.67	-6.15
669.701	8.85
669.733	-7.15
669.764	-7.15
669.796	13.85
669.827	-3.15
669.859	3.85
669.89	1.85
669.922	17.85
669.953	9.85
669.985	-13.15
670.016	3.85
670.047	3.85
670.079	-3.15
670.11	7.85
670.142	13.85
670.173	10.85
670.204	-5.15
670.236	2.85
670.267	3.85
670.299	14.85
670.33	-20.15
670.362	6.85
670.393	3.85
670.424	12.85
670.456	-5.15
670.487	0.85
670.518	-0.15
670.55	16.85
670.581	-9.15
670.613	3.85
670.644	-6.15
670.675	-8.15
670.707	4.85
670.738	2.85
670.769	-8.15
670.801	-5.15
670.832	20.85
670.864	2.85
670.895	14.85
670.926	2.85
670.958	-1.15
670.989	-9.15
671.02	-19.15
671.052	8.85
671.083	9.85
671.114	-0.15
671.146	10.85
671.177	-3.15
671.208	-1.15
671.24	-11.15
671.271	18.85
671.302	23.85
671.333	1.85
671.365	-2.15
671.396	-10.15
671.427	5.85
671.459	8.85
671.49	0.85
671.521	12.85
671.553	-4.15
671.584	10.85
671.615	4.85
671.646	18.85
671.678	7.85
671.709	1.85
671.74	-19.15
671.771	-1.15
671.803	-1.15
671.834	10.85
671.865	2.85
671.896	5.85
671.928	-0.15
671.959	-7.15
671.99	5.85
672.021	14.85
672.053	-5.15
672.084	15.85
672.115	2.85
672.146	-11.15
672.178	-2.15
672.209	-12.15
672.24	5.85
672.271	28.85
672.303	-6.15
672.334	7.85
672.365	-9.15
672.396	10.85
672.427	12.85
672.459	19.85
672.49	17.85
672.521	7.85
672.552	16.85
672.583	19.85
672.615	15.85
672.646	14.85
672.677	0.85
672.708	-1.15
672.739	2.85
672.77	9.85
672.802	-3.15
672.833	-8.15
672.864	-0.15
672.895	-10.15
672.926	6.85
672.957	-7.15
672.989	-6.15
673.02	11.85
673.051	-5.15
673.082	12.85
673.113	10.85
673.144	4.85
673.175	1.85
673.206	-9.15
673.238	-21.15
673.269	11.85
673.3	-2.15
673.331	11.85
673.362	5.85
673.393	11.85
673.424	17.85
673.455	12.85
673.487	3.85
673.518	10.85
673.549	12.85
673.58	-5.15
673.611	6.85
673.642	0.85
673.673	-14.15
673.704	1.85
673.735	-16.15
673.766	-2.15
673.797	-1.15
673.828	-0.15
673.86	-2.15
673.891	-18.15
673.922	-13.15
673.953	1.85
673.984	9.85
674.015	8.85
674.046	6.85
674.077	19.85
674.108	1.85
674.139	-16.15
674.17	-8.15
674.201	-2.15
674.232	7.85
674.263	-1.15
674.294	8.85
674.325	-17.15
674.356	-2.15
674.387	6.85
674.418	2.85
674.449	5.85
674.48	-6.15
674.511	0.85
674.542	12.85
674.573	2.85
674.604	19.85
674.635	10.85
674.666	1.85
674.697	-15.15
674.728	4.85
674.759	6.85
674.79	2.85
674.821	3.85
674.852	-4.15
674.883	-14.15
674.914	3.85
674.945	2.85
674.976	10.85
675.007	-11.15
675.038	-6.15
675.069	-3.15
675.1	-25.15
675.131	-22.15
675.162	-9.15
675.193	-3.15
675.224	-18.15
675.254	4.85
675.285	-4.15
675.316	11.85
675.347	0.85
675.378	11.85
675.409	15.85
675.44	10.85
675.471	6.85
675.502	-23.15
675.533	-11.15
675.564	-1.15
675.595	-4.15
675.625	26.85
675.656	4.85
675.687	10.85
675.718	0.85
675.749	-3.15
675.78	-0.15
675.811	2.85
675.842	14.85
675.873	6.85
675.903	0.85
675.934	3.85
675.965	-3.15
675.996	-16.15
676.027	1.85
676.058	-14.15
676.089	-21.15
676.119	-13.15
676.15	-14.15
676.181	10.85
676.212	4.85
676.243	14.85
676.274	-11.15
676.304	21.85
676.335	-2.15
676.366	-9.15
676.397	-8.15
676.428	2.85
676.459	5.85
676.489	11.85
676.52	4.85
676.551	8.85
676.582	-5.15
676.613	18.85
676.643	6.85
676.674	19.85
676.705	0.85
676.736	2.85
676.767	13.85
676.797	-0.15
676.828	-1.15
676.859	18.85
676.89	-19.15
676.92	-6.15
676.951	6.85
676.982	8.85
677.013	-5.15
677.044	24.85
677.074	5.85
677.105	-5.15
677.136	14.85
677.167	-2.15
677.197	23.85
677.228	3.85
677.259	8.85
677.289	20.85
677.32	0.85
677.351	9.85
677.382	0.85
677.412	3.85
677.443	14.85
677.474	-8.15
677.505	-4.15
677.535	0.85
677.566	12.85
677.597	6.85
677.627	-2.15
677.658	-4.15
677.689	3.85
677.72	7.85
677.75	4.85
677.781	12.85
677.812	12.85
677.842	5.85
677.873	9.85
677.904	6.85
677.934	-6.15
677.965	-2.15
677.996	-2.15
678.026	-8.15
678.057	4.85
678.088	-3.15
678.118	5.85
678.149	-0.15
678.18	9.85
678.21	0.85
678.241	0.85
678.272	-3.15
678.302	-7.15
678.333	16.85
678.363	8.85
678.394	-12.15
678.425	-3.15
678.455	11.85
678.486	19.85
678.517	6.85
678.547	1.85
678.578	-9.15
678.608	-12.15
678.639	-4.15
678.67	7.85
678.7	-12.15
678.731	2.85
678.761	16.85
678.792	1.85
678.823	6.85
678.853	13.85
678.884	-11.15
678.914	8.85
678.945	2.85
678.975	4.85
679.006	8.85
679.037	-0.15
679.067	37.85
679.098	10.85
679.128	-6.15
679.159	-5.15
679.189	0.85
679.22	-12.15
679.25	4.85
679.281	7.85
679.312	3.85
679.342	11.85
679.373	37.85
679.403	9.85
679.434	7.85
679.464	2.85
679.495	7.85
679.525	2.85
679.556	-8.15
679.586	17.85
679.617	10.85
679.647	-2.15
679.678	9.85
679.708	13.85
679.739	7.85
679.769	-4.15
679.8	3.85
679.83	-14.15
679.861	6.85
679.891	6.85
679.922	-13.15
679.952	0.85
679.983	14.85
680.013	-10.15
680.044	-6.15
680.074	15.85
680.105	16.85
680.135	-2.15
680.165	8.85
680.196	-0.15
680.226	7.85
680.257	21.85
680.287	2.85
680.318	-0.15
680.348	-7.15
680.379	15.85
680.409	12.85
680.439	-7.15
680.47	2.85
680.5	2.85
680.531	-2.15
680.561	13.85
680.592	7.85
680.622	10.85
680.652	10.85
680.683	2.85
680.713	-7.15
680.744	2.85
680.774	0.85
680.804	25.85
680.835	-5.15
680.865	-4.15
680.896	16.85
680.926	21.85
680.956	8.85
680.987	1.85
681.017	1.85
681.047	11.85
681.078	-8.15
681.108	0.85
681.139	-1.15
681.169	-3.15
681.199	-5.15
681.23	9.85
681.26	8.85
681.29	12.85
681.321	-21.15
681.351	0.85
681.381	0.85
681.412	12.85
681.442	6.85
681.472	10.85
681.503	-1.15
681.533	5.85
681.563	14.85
681.594	-2.15
681.624	22.85
681.654	0.85
681.685	-14.15
681.715	9.85
681.745	11.85
681.775	1.85
681.806	1.85
681.836	5.85
681.866	6.85
681.897	0.85
681.927	4.85
681.957	-3.15
681.987	11.85
682.018	-5.15
682.048	2.85
682.078	-2.15
682.109	18.85
682.139	17.85
682.169	8.85
682.199	13.85
682.23	-11.15
682.26	-8.15
682.29	-1.15
682.32	-2.15
682.351	-2.15
682.381	4.85
682.411	4.85
682.441	-14.15
682.472	-3.15
682.502	4.85
682.532	-21.15
682.562	-9.15
682.592	12.85
682.623	11.85
682.653	2.85
682.683	-2.15
682.713	5.85
682.743	9.85
682.774	0.85
682.804	7.85
682.834	17.85
682.864	3.85
682.894	-7.15
682.925	5.85
682.955	5.85
682.985	4.85
683.015	-5.15
683.045	-4.15
683.076	-9.15
683.106	10.85
683.136	-3.15
683.166	-1.15
683.196	1.85
683.226	-7.15
683.257	3.85
683.287	-0.15
683.317	-3.15
683.347	-9.15
683.377	-3.15
683.407	6.85
683.437	6.85
683.468	11.85
683.498	12.85
683.528	5.85
683.558	-6.15
683.588	-2.15
683.618	-0.15
683.648	-0.15
683.678	5.85
683.708	-6.15
683.739	-7.15
683.769	5.85
683.799	-3.15
683.829	13.85
683.859	6.85
683.889	19.85
683.919	-8.15
683.949	-0.15
683.979	7.85
684.009	-20.15
684.039	-4.15
684.07	-6.15
684.1	-5.15
684.13	-10.15
684.16	14.85
684.19	-0.15
684.22	-0.15
684.25	-1.15
684.28	-17.15
684.31	6.85
684.34	19.85
684.37	6.85
684.4	-3.15
684.43	-1.15
684.46	2.85
684.49	8.85
684.52	9.85
684.55	17.85
684.58	0.85
684.61	7.85
684.64	17.85
684.67	12.85
684.7	4.85
684.73	9.85
684.76	10.85
684.79	11.85
684.82	7.85
684.85	-6.15
684.88	18.85
684.91	4.85
684.94	-3.15
684.97	-8.15
685	-0.15
685.03	4.85
685.06	7.85
685.09	4.85
685.12	21.85
685.15	-3.15
685.18	16.85
685.21	9.85
685.24	16.85
685.27	6.85
685.3	6.85
685.33	6.85
685.36	5.85
685.39	-2.15
685.42	-4.15
685.45	6.85
685.48	-7.15
685.51	6.85
685.54	15.85
685.569	-2.15
685.599	-0.15
685.629	10.85
685.659	6.85
685.689	0.85
685.719	-11.15
685.749	-15.15
685.779	2.85
685.809	8.85
685.839	16.85
685.869	1.85
685.898	13.85
685.928	1.85
685.958	-12.15
685.988	6.85
686.018	-15.15
686.048	-8.15
686.078	7.85
686.108	24.85
686.137	12.85
686.167	6.85
686.197	-10.15
686.227	3.85
686.257	33.85
686.287	11.85
686.317	0.85
686.346	-0.15
686.376	-6.15
686.406	-11.15
686.436	-0.15
686.466	-9.15
686.496	-0.15
686.525	6.85
686.555	-2.15
686.585	30.85
686.615	19.85
686.645	9.85
686.675	4.85
686.704	7.85
686.734	-1.15
686.764	-1.15
686.794	3.85
686.824	8.85
686.853	13.85
686.883	22.85
686.913	8.85
686.943	7.85
686.973	-5.15
687.002	4.85
687.032	11.85
687.062	-7.15
687.092	20.85
687.121	4.85
687.151	0.85
687.181	-6.15
687.211	-8.15
687.24	-8.15
687.27	2.85
687.3	1.85
687.33	6.85
687.359	1.85
687.389	11.85
687.419	6.85
687.449	7.85
687.478	12.85
687.508	-5.15
687.538	5.85
687.568	5.85
687.597	3.85
687.627	8.85
687.657	2.85
687.686	14.85
687.716	22.85
687.746	2.85
687.776	-0.15
687.805	15.85
687.835	-4.15
687.865	10.85
687.894	9.85
687.924	-3.15
687.954	0.85
687.983	7.85
688.013	-4.15
688.043	6.85
688.072	3.85
688.102	18.85
688.132	0.85
688.161	21.85
688.191	0.85
688.221	-1.15
688.25	-8.15
688.28	1.85
688.31	-8.15
688.339	-14.15
688.369	-5.15
688.399	-4.15
688.428	8.85
688.458	-10.15
688.488	1.85
688.517	6.85
688.547	3.85
688.576	45.85
688.606	14.85
688.636	-13.15
688.665	0.85
688.695	18.85
688.725	17.85
688.754	12.85
688.784	-7.15
688.813	27.85
688.843	17.85
688.873	3.85
688.902	-7.15
688.932	-5.15
688.961	0.85
688.991	8.85
689.02	19.85
689.05	1.85
689.08	6.85
689.109	11.85
689.139	4.85
689.168	13.85
689.198	3.85
689.227	-6.15
689.257	7.85
689.287	-6.15
689.316	2.85
689.346	0.85
689.375	15.85
689.405	-1.15
689.434	-1.15
689.464	10.85
689.493	14.85
689.523	-6.15
689.552	-1.15
689.582	-2.15
689.611	3.85
689.641	17.85
689.67	11.85
689.7	15.85
689.73	-1.15
689.759	4.85
689.789	16.85
689.818	-0.15
689.848	-5.15
689.877	9.85
689.906	9.85
689.936	-18.15
689.965	0.85
689.995	6.85
690.024	0.85
690.054	-11.15
690.083	-1.15
690.113	-4.15
690.142	-4.15
690.172	5.85
690.201	7.85
690.231	9.85
690.26	9.85
690.29	11.85
690.319	14.85
690.348	-14.15
690.378	-4.15
690.407	9.85
690.437	-3.15
690.466	-9.15
690.496	11.85
690.525	-0.15
690.555	-3.15
690.584	-0.15
690.613	-4.15
690.643	6.85
690.672	9.85
690.702	5.85
690.731	7.85
690.76	6.85
690.79	-14.15
690.819	-8.15
690.849	5.85
690.878	3.85
690.907	14.85
690.937	18.85
690.966	10.85
690.996	9.85
691.025	10.85
691.054	6.85
691.084	-5.15
691.113	12.85
691.142	7.85
691.172	-0.15
691.201	25.85
691.23	6.85
691.26	7.85
691.289	5.85
691.319	-8.15
691.348	11.85
691.377	20.85
691.407	10.85
691.436	11.85
691.465	7.85
691.495	-2.15
691.524	-16.15
691.553	9.85
691.583	-2.15
691.612	10.85
691.641	-4.15
691.67	-5.15
691.7	19.85
691.729	-8.15
691.758	2.85
691.788	8.85
691.817	6.85
691.846	4.85
691.876	19.85
691.905	-0.15
691.934	0.85
691.963	17.85
691.993	-5.15
692.022	-3.15
692.051	-5.15
692.081	16.85
692.11	21.85
692.139	5.85
692.168	10.85
692.198	15.85
692.227	0.85
692.256	-5.15
692.285	-7.15
692.315	6.85
692.344	6.85
692.373	11.85
692.402	-6.15
692.432	-22.15
692.461	-4.15
692.49	3.85
692.519	-2.15
692.548	2.85
692.578	15.85
692.607	-5.15
692.636	-10.15
692.665	0.85
692.694	-13.15
692.724	-5.15
692.753	-0.15
692.782	17.85
692.811	-9.15
692.84	-2.15
692.87	8.85
692.899	-4.15
692.928	-6.15
692.957	-3.15
692.986	-1.15
693.016	11.85
693.045	1.85
693.074	-7.15
693.103	-27.15
693.132	5.85
693.161	4.85
693.191	-8.15
693.22	-15.15
693.249	-1.15
693.278	-3.15
693.307	20.85
693.336	-14.15
693.365	-19.15
693.395	-5.15
693.424	-3.15
693.453	12.85
693.482	10.85
693.511	12.85
693.54	14.85
693.569	5.85
693.598	7.85
693.628	11.85
693.657	7.85
693.686	28.85
693.715	2.85
693.744	3.85
693.773	13.85
693.802	11.85
693.831	-7.15
693.86	21.85
693.889	6.85
693.919	8.85
693.948	-2.15
693.977	5.85
694.006	2.85
694.035	-7.15
694.064	7.85
694.093	4.85
694.122	7.85
694.151	-1.15
694.18	-2.15
694.209	4.85
694.238	6.85
694.267	24.85
694.296	22.85
694.325	9.85
694.354	8.85
694.383	11.85
694.412	-7.15
694.441	6.85
694.471	1.85
694.5	-10.15
694.529	-3.15
694.558	22.85
694.587	17.85
694.616	0.85
694.645	5.85
694.674	11.85
694.703	20.85
694.732	6.85
694.761	-1.15
694.79	7.85
694.819	-1.15
694.848	-5.15
694.877	19.85
694.906	16.85
694.935	-3.15
694.963	10.85
694.992	5.85
695.021	4.85
695.05	-4.15
695.079	-9.15
695.108	-1.15
695.137	20.85
695.166	20.85
695.195	-5.15
695.224	12.85
695.253	4.85
695.282	17.85
695.311	11.85
695.34	-3.15
695.369	9.85
695.398	2.85
695.427	17.85
695.456	1.85
695.485	12.85
695.513	3.85
695.542	10.85
695.571	-13.15
695.6	7.85
695.629	15.85
695.658	5.85
695.687	2.85
695.716	3.85
695.745	18.85
695.774	-9.15
695.802	-12.15
695.831	-4.15
695.86	7.85
695.889	17.85
695.918	9.85
695.947	7.85
695.976	2.85
696.005	6.85
696.033	6.85
696.062	30.85
696.091	9.85
696.12	-0.15
696.149	19.85
696.178	15.85
696.207	15.85
696.235	-13.15
696.264	4.85
696.293	11.85
696.322	16.85
696.351	15.85
696.38	-9.15
696.408	19.85
696.437	-5.15
696.466	6.85
696.495	18.85
696.524	-0.15
696.553	14.85
696.581	8.85
696.61	15.85
696.639	-4.15
696.668	21.85
696.697	5.85
696.725	7.85
696.754	6.85
696.783	6.85
696.812	-3.15
696.84	3.85
696.869	6.85
696.898	-20.15
696.927	1.85
696.956	17.85
696.984	5.85
697.013	-2.15
697.042	-6.15
697.071	5.85
697.099	25.85
697.128	6.85
697.157	2.85
697.186	8.85
697.214	-3.15
697.243	-4.15
697.272	-1.15
697.301	21.85
697.329	10.85
697.358	27.85
697.387	23.85
697.415	13.85
697.444	7.85
697.473	7.85
697.502	4.85
697.53	3.85
697.559	0.85
697.588	10.85
697.616	-0.15
697.645	-11.15
697.674	18.85
697.703	-5.15
697.731	8.85
697.76	21.85
697.789	10.85
697.817	16.85
697.846	16.85
697.875	10.85
697.903	30.85
697.932	24.85
697.961	6.85
697.989	13.85
698.018	9.85
698.047	4.85
698.075	1.85
698.104	3.85
698.133	-1.15
698.161	-8.15
698.19	5.85
698.218	23.85
698.247	6.85
698.276	6.85
698.304	15.85
698.333	8.85
698.362	8.85
698.39	-10.15
698.419	4.85
698.447	-10.15
698.476	7.85
698.505	12.85
698.533	15.85
698.562	10.85
698.591	-8.15
698.619	-11.15
698.648	5.85
698.676	19.85
698.705	7.85
698.733	-8.15
698.762	6.85
698.791	24.85
698.819	12.85
698.848	6.85
698.876	8.85
698.905	18.85
698.933	17.85
698.962	6.85
698.991	1.85
699.019	28.85
699.048	8.85
699.076	6.85
699.105	-22.15
699.133	-3.15
699.162	3.85
699.19	12.85
699.219	11.85
699.248	4.85
699.276	15.85
699.305	5.85
699.333	4.85
699.362	-3.15
699.39	1.85
699.419	4.85
699.447	-6.15
699.476	0.85
699.504	4.85
699.533	3.85
699.561	-3.15
699.59	0.85
699.618	1.85
699.647	10.85
699.675	13.85
699.704	11.85
699.732	-1.15
699.761	6.85
699.789	3.85
699.818	-3.15
699.846	9.85
699.874	-1.15
699.903	-0.15
699.931	5.85
699.96	17.85
699.988	5.85
700.017	10.85
700.045	23.85
700.074	11.85
700.102	-5.15
700.13	4.85
700.159	0.85
700.187	3.85
700.216	-7.15
700.244	14.85
700.273	-3.15
700.301	7.85
700.329	-4.15
700.358	-0.15
700.386	1.85
700.415	9.85
700.443	13.85
700.472	-9.15
700.5	1.85
700.528	14.85
700.557	8.85
700.585	13.85
700.614	5.85
700.642	11.85
700.67	24.85
700.699	14.85
700.727	11.85
700.755	14.85
700.784	-1.15
700.812	5.85
700.841	25.85
700.869	6.85
700.897	1.85
700.926	-0.15
700.954	8.85
700.982	8.85
701.011	4.85
701.039	7.85
701.067	8.85
701.096	15.85
701.124	3.85
701.152	1.85
701.181	-11.15
701.209	-8.15
701.237	-5.15
701.266	2.85
701.294	1.85
701.322	-3.15
701.351	3.85
701.379	14.85
701.407	-7.15
701.435	18.85
701.464	11.85
701.492	30.85
701.52	-1.15
701.549	12.85
701.577	-1.15
701.605	-16.15
701.634	-3.15
701.662	5.85
701.69	2.85
701.718	-5.15
701.747	-3.15
701.775	18.85
701.803	1.85
701.831	16.85
701.86	0.85
701.888	15.85
701.916	2.85
701.944	0.85
701.973	12.85
702.001	-6.15
702.029	-3.15
702.057	-0.15
702.086	5.85
702.114	-8.15
702.142	0.85
702.17	9.85
702.199	6.85
702.227	2.85
702.255	0.85
702.283	0.85
702.311	10.85
702.34	13.85
702.368	5.85
702.396	20.85
702.424	-1.15
702.452	-2.15
702.481	6.85
702.509	-6.15
702.537	2.85
702.565	9.85
702.593	-18.15
702.621	7.85
702.65	7.85
702.678	10.85
702.706	12.85
702.734	-5.15
702.762	9.85
702.79	2.85
702.819	7.85
702.847	16.85
702.875	5.85
702.903	8.85
702.931	-0.15
702.959	12.85
702.988	22.85
703.016	-11.15
703.044	0.85
703.072	15.85
703.1	-7.15
703.128	-10.15
703.156	1.85
703.184	5.85
703.212	19.85
703.241	12.85
703.269	13.85
703.297	7.85
703.325	12.85
703.353	-13.15
703.381	6.85
703.409	-3.15
703.437	-19.15
703.465	-2.15
703.493	-13.15
703.522	8.85
703.55	14.85
703.578	4.85
703.606	0.85
703.634	4.85
703.662	0.85
703.69	-0.15
703.718	9.85
703.746	12.85
703.774	8.85
703.802	28.85
703.83	0.85
703.858	3.85
703.886	-5.15
703.914	-6.15
703.942	-8.15
703.97	0.85
703.998	0.85
704.027	25.85
704.055	15.85
704.083	6.85
704.111	-0.15
704.139	10.85
704.167	-2.15
704.195	7.85
704.223	-9.15
704.251	-2.15
704.279	11.85
704.307	1.85
704.335	0.85
704.363	-1.15
704.391	-0.15
704.419	-18.15
704.447	14.85
704.475	7.85
704.503	-1.15
704.531	8.85
704.558	5.85
704.586	-2.15
704.614	5.85
704.642	5.85
704.67	-18.15
704.698	2.85
704.726	3.85
704.754	-0.15
704.782	6.85
704.81	-3.15
704.838	25.85
704.866	20.85
704.894	1.85
704.922	13.85
704.95	9.85
704.978	7.85
705.006	-4.15
705.034	18.85
705.061	-0.15
705.089	-3.15
705.117	-16.15
705.145	-1.15
705.173	7.85
705.201	1.85
705.229	21.85
705.257	9.85
705.285	22.85
705.313	11.85
705.34	8.85
705.368	-1.15
705.396	18.85
705.424	5.85
705.452	-9.15
705.48	6.85
705.508	-14.15
705.536	7.85
705.563	0.85
705.591	3.85
705.619	5.85
705.647	0.85
705.675	0.85
705.703	10.85
705.731	-0.15
705.758	-6.15
705.786	-1.15
705.814	21.85
705.842	16.85
705.87	9.85
705.898	24.85
705.925	-5.15
705.953	11.85
705.981	1.85
706.009	7.85
706.037	13.85
706.065	3.85
706.092	3.85
706.12	16.85
706.148	-6.15
706.176	2.85
706.204	9.85
706.231	16.85
706.259	1.85
706.287	1.85
706.315	0.85
706.342	-0.15
706.37	20.85
706.398	13.85
706.426	-3.15
706.454	-0.15
706.481	10.85
706.509	3.85
706.537	0.85
706.565	6.85
706.592	8.85
706.62	1.85
706.648	4.85
706.676	-3.15
706.703	4.85
706.731	2.85
706.759	9.85
706.787	7.85
706.814	13.85
706.842	-3.15
706.87	13.85
706.897	8.85
706.925	5.85
706.953	13.85
706.981	12.85
707.008	6.85
707.036	8.85
707.064	-2.15
707.091	-8.15
707.119	19.85
707.147	8.85
707.174	5.85
707.202	15.85
707.23	6.85
707.258	17.85
707.285	-4.15
707.313	-6.15
707.341	-17.15
707.368	-6.15
707.396	-0.15
707.424	24.85
707.451	8.85
707.479	2.85
707.507	-5.15
707.534	-2.15
707.562	13.85
707.59	5.85
707.617	2.85
707.645	0.85
707.672	-6.15
707.7	-7.15
707.728	31.85
707.755	7.85
707.783	4.85
707.811	3.85
707.838	1.85
707.866	7.85
707.893	10.85
707.921	4.85
707.949	1.85
707.976	4.85
708.004	14.85
708.031	-5.15
708.059	-15.15
708.087	-3.15
708.114	-2.15
708.142	9.85
708.169	2.85
708.197	-6.15
708.225	6.85
708.252	-3.15
708.28	10.85
708.307	-17.15
708.335	1.85
708.362	1.85
708.39	1.85
708.418	1.85
708.445	-2.15
708.473	0.85
708.5	1.85
708.528	16.85
708.555	-6.15
708.583	4.85
708.61	2.85
708.638	20.85
708.665	1.85
708.693	-5.15
708.72	4.85
708.748	-5.15
708.776	0.85
708.803	-1.15
708.831	12.85
708.858	8.85
708.886	19.85
708.913	8.85
708.941	-11.15
708.968	2.85
708.996	-1.15
709.023	41.85
709.051	3.85
709.078	-2.15
709.105	9.85
709.133	17.85
709.16	5.85
709.188	10.85
709.215	6.85
709.243	10.85
709.27	-1.15
709.298	-2.15
709.325	-5.15
709.353	0.85
709.38	8.85
709.408	10.85
709.435	14.85
709.462	-8.15
709.49	1.85
709.517	-5.15
709.545	0.85
709.572	6.85
709.6	-5.15
709.627	-0.15
709.655	0.85
709.682	1.85
709.709	9.85
709.737	12.85
709.764	-7.15
709.792	15.85
709.819	6.85
709.846	-3.15
709.874	6.85
709.901	5.85
709.929	24.85
709.956	15.85
709.983	13.85
710.011	4.85
710.038	-6.15
710.066	1.85
710.093	13.85
710.12	6.85
710.148	-2.15
710.175	-19.15
710.202	-16.15
710.23	13.85
710.257	12.85
710.284	-6.15
710.312	7.85
710.339	-8.15
710.366	4.85
710.394	-7.15
710.421	-7.15
710.448	0.85
710.476	-6.15
710.503	4.85
710.53	18.85
710.558	26.85
710.585	7.85
710.612	5.85
710.64	4.85
710.667	0.85
710.694	-13.15
710.722	-5.15
710.749	7.85
710.776	3.85
710.804	28.85
710.831	-3.15
710.858	21.85
710.885	7.85
710.913	-3.15
710.94	-7.15
710.967	4.85
710.995	13.85
711.022	-2.15
711.049	14.85
711.076	-5.15
711.104	-2.15
711.131	-13.15
711.158	1.85
711.185	10.85
711.213	-8.15
711.24	4.85
711.267	9.85
711.294	5.85
711.322	10.85
711.349	4.85
711.376	0.85
711.403	3.85
711.431	11.85
711.458	12.85
711.485	2.85
711.512	-18.15
711.54	12.85
711.567	1.85
711.594	2.85
711.621	-3.15
711.648	11.85
711.676	25.85
711.703	24.85
711.73	-20.15
711.757	-1.15
711.784	-1.15
711.812	2.85
711.839	-0.15
711.866	-14.15
711.893	-9.15
711.92	2.85
711.947	14.85
711.975	19.85
712.002	7.85
712.029	9.85
712.056	6.85
712.083	17.85
712.11	-7.15
712.138	-0.15
712.165	4.85
712.192	1.85
712.219	-12.15
712.246	-22.15
712.273	-2.15
712.3	-6.15
712.328	10.85
712.355	0.85
712.382	1.85
712.409	24.85
712.436	10.85
712.463	11.85
712.49	12.85
712.517	10.85
712.544	2.85
712.572	-6.15
712.599	-19.15
712.626	17.85
712.653	4.85
712.68	-12.15
712.707	5.85
712.734	8.85
712.761	4.85
712.788	5.85
712.815	11.85
712.842	14.85
712.87	1.85
712.897	-4.15
712.924	5.85
712.951	13.85
712.978	18.85
713.005	9.85
713.032	2.85
713.059	8.85
713.086	6.85
713.113	-9.15
713.14	-7.15
713.167	18.85
713.194	8.85
713.221	1.85
713.248	15.85
713.275	6.85
713.302	-22.15
713.329	11.85
713.356	12.85
713.383	9.85
713.41	25.85
713.437	-0.15
713.464	4.85
713.491	11.85
713.518	8.85
713.545	8.85
713.572	-0.15
713.599	18.85
713.626	1.85
713.653	14.85
713.68	5.85
713.707	5.85
713.734	12.85
713.761	7.85
713.788	6.85
713.815	16.85
713.842	-2.15
713.869	4.85
713.896	13.85
713.923	10.85
713.95	6.85
713.977	-1.15
714.004	-13.15
714.031	-4.15
714.058	9.85
714.085	4.85
714.112	3.85
714.139	-0.15
714.165	-1.15
714.192	-0.15
714.219	1.85
714.246	9.85
714.273	18.85
714.3	-1.15
714.327	11.85
714.354	12.85
714.381	2.85
714.408	12.85
714.435	5.85
714.461	2.85
714.488	12.85
714.515	2.85
714.542	-0.15
714.569	1.85
714.596	-3.15
714.623	-7.15
714.65	-1.15
714.677	8.85
714.703	8.85
714.73	7.85
714.757	6.85
714.784	7.85
714.811	-0.15
714.838	6.85
714.865	-6.15
714.891	4.85
714.918	-3.15
714.945	-5.15
714.972	-5.15
714.999	11.85
715.026	2.85
715.052	19.85
715.079	-6.15
715.106	13.85
715.133	8.85
715.16	-8.15
715.187	13.85
715.213	24.85
715.24	0.85
715.267	-9.15
715.294	-0.15
715.321	0.85
715.347	4.85
715.374	3.85
715.401	13.85
715.428	6.85
715.455	-2.15
715.481	-4.15
715.508	4.85
715.535	1.85
715.562	30.85
715.588	8.85
715.615	3.85
715.642	-7.15
715.669	1.85
715.695	1.85
715.722	-6.15
715.749	-1.15
715.776	10.85
715.802	5.85
715.829	9.85
715.856	-16.15
715.883	4.85
715.909	2.85
715.936	9.85
715.963	0.85
715.99	-8.15
716.016	10.85
716.043	-9.15
716.07	2.85
716.096	-9.15
716.123	0.85
716.15	0.85
716.177	6.85
716.203	2.85
716.23	1.85
716.257	41.85
716.283	20.85
716.31	8.85
716.337	24.85
716.363	1.85
716.39	1.85
716.417	22.85
716.443	2.85
716.47	4.85
716.497	0.85
716.523	21.85
716.55	30.85
716.577	29.85
716.603	1.85
716.63	2.85
716.657	10.85
716.683	-1.15
716.71	-20.15
716.737	1.85
716.763	2.85
716.79	9.85
716.817	8.85
716.843	8.85
716.87	1.85
716.897	-10.15
716.923	-1.15
716.95	-6.15
716.976	6.85
717.003	-5.15
717.03	0.85
717.056	8.85
717.083	-1.15
717.109	12.85
717.136	16.85
717.163	9.85
717.189	7.85
717.216	1.85
717.242	11.85
717.269	12.85
717.296	9.85
717.322	9.85
717.349	5.85
717.375	12.85
717.402	6.85
717.428	12.85
717.455	11.85
717.481	-1.15
717.508	8.85
717.535	13.85
717.561	-7.15
717.588	-4.15
717.614	-5.15
717.641	0.85
717.667	0.85
717.694	-0.15
717.72	4.85
717.747	0.85
717.773	-14.15
717.8	16.85
717.826	12.85
717.853	1.85
717.88	3.85
717.906	12.85
717.933	14.85
717.959	9.85
717.986	16.85
718.012	-1.15
718.039	16.85
718.065	23.85
718.092	17.85
718.118	2.85
718.144	-3.15
718.171	21.85
718.197	22.85
718.224	1.85
718.25	13.85
718.277	27.85
718.303	14.85
718.33	-0.15
718.356	-1.15
718.383	-14.15
718.409	-7.15
718.436	4.85
718.462	11.85
718.489	4.85
718.515	9.85
718.541	11.85
718.568	5.85
718.594	3.85
718.621	10.85
718.647	-1.15
718.674	17.85
718.7	1.85
718.726	1.85
718.753	-12.15
718.779	5.85
718.806	-0.15
718.832	0.85
718.858	5.85
718.885	3.85
718.911	11.85
718.938	1.85
718.964	-9.15
718.99	9.85
719.017	-0.15
719.043	15.85
719.07	18.85
719.096	8.85
719.122	6.85
719.149	-2.15
719.175	4.85
719.201	-0.15
719.228	3.85
719.254	17.85
719.281	5.85
719.307	3.85
719.333	1.85
719.36	11.85
719.386	6.85
719.412	16.85
719.439	0.85
719.465	2.85
719.491	-6.15
719.518	1.85
719.544	18.85
719.57	6.85
719.597	24.85
719.623	-1.15
719.649	18.85
719.675	12.85
719.702	5.85
719.728	6.85
719.754	2.85
719.781	2.85
719.807	5.85
719.833	3.85
719.86	8.85
719.886	0.85
719.912	4.85
719.938	-0.15
719.965	-3.15
719.991	11.85
720.017	25.85
720.044	5.85
720.07	12.85
720.096	-1.15
720.122	1.85
720.149	11.85
720.175	-2.15
720.201	4.85
720.227	2.85
720.254	11.85
720.28	0.85
720.306	-2.15
720.332	15.85
720.359	11.85
720.385	5.85
720.411	6.85
720.437	1.85
720.463	0.85
720.49	5.85
720.516	-14.15
720.542	-1.15
720.568	-2.15
720.595	9.85
720.621	-0.15
720.647	9.85
720.673	5.85
720.699	0.85
720.725	11.85
720.752	9.85
720.778	18.85
720.804	2.85
720.83	4.85
720.856	0.85
720.883	-13.15
720.909	4.85
720.935	-8.15
720.961	6.85
720.987	15.85
721.013	-0.15
721.04	0.85
721.066	2.85
721.092	5.85
721.118	3.85
721.144	0.85
721.17	1.85
721.196	-4.15
721.223	-9.15
721.249	-16.15
721.275	4.85
721.301	-6.15
721.327	-6.15
721.353	7.85
721.379	18.85
721.405	2.85
721.432	17.85
721.458	4.85
721.484	11.85
721.51	0.85
721.536	15.85
721.562	6.85
721.588	22.85
721.614	-3.15
721.64	-3.15
721.666	-5.15
721.693	-7.15
721.719	5.85
721.745	-7.15
721.771	-10.15
721.797	-3.15
721.823	4.85
721.849	20.85
721.875	-0.15
721.901	12.85
721.927	5.85
721.953	4.85
721.979	35.85
722.005	13.85
722.031	11.85
722.057	4.85
722.083	8.85
722.109	0.85
722.135	2.85
722.161	8.85
722.187	-8.15
722.214	-2.15
722.24	10.85
722.266	0.85
722.292	7.85
722.318	6.85
722.344	9.85
722.37	4.85
722.396	-1.15
722.422	-6.15
722.448	8.85
722.474	-4.15
722.5	15.85
722.526	5.85
722.552	-6.15
722.578	-15.15
722.603	11.85
722.629	-0.15
722.655	-1.15
722.681	2.85
722.707	3.85
722.733	-3.15
722.759	0.85
722.785	7.85
722.811	-6.15
722.837	-4.15
722.863	12.85
722.889	-1.15
722.915	5.85
722.941	-5.15
722.967	-5.15
722.993	19.85
723.019	5.85
723.045	5.85
723.071	13.85
723.097	3.85
723.122	1.85
723.148	-16.15
723.174	-1.15
723.2	11.85
723.226	4.85
723.252	7.85
723.278	-2.15
723.304	-6.15
723.33	-1.15
723.356	-10.15
723.381	-9.15
723.407	-2.15
723.433	8.85
723.459	-2.15
723.485	-0.15
723.511	4.85
723.537	9.85
723.563	7.85
723.588	-6.15
723.614	7.85
723.64	-1.15
723.666	-0.15
723.692	-5.15
723.718	8.85
723.744	-6.15
723.769	-11.15
723.795	2.85
723.821	5.85
723.847	-0.15
723.873	15.85
723.899	6.85
723.924	-2.15
723.95	-5.15
723.976	-7.15
724.002	-3.15
724.028	-1.15
724.053	1.85
724.079	-10.15
724.105	4.85
724.131	1.85
724.157	2.85
724.182	1.85
724.208	0.85
724.234	-4.15
724.26	-3.15
724.286	6.85
724.311	0.85
724.337	-12.15
724.363	8.85
724.389	7.85
724.415	-3.15
724.44	33.85
724.466	11.85
724.492	0.85
724.518	-3.15
724.543	-4.15
724.569	5.85
724.595	2.85
724.621	-0.15
724.646	-6.15
724.672	-4.15
724.698	-9.15
724.723	17.85
724.749	15.85
724.775	20.85
724.801	12.85
724.826	-2.15
724.852	-10.15
724.878	9.85
724.904	-6.15
724.929	12.85
724.955	0.85
724.981	2.85
725.006	11.85
725.032	4.85
725.058	14.85
725.083	6.85
725.109	-6.15
725.135	11.85
725.161	21.85
725.186	1.85
725.212	3.85
725.238	11.85
725.263	6.85
725.289	-7.15
725.315	-5.15
725.34	6.85
725.366	15.85
725.392	-3.15
725.417	12.85
725.443	7.85
725.468	8.85
725.494	6.85
725.52	5.85
725.545	0.85
725.571	0.85
725.597	1.85
725.622	13.85
725.648	-3.15
725.674	11.85
725.699	11.85
725.725	6.85
725.75	13.85
725.776	0.85
725.802	13.85
725.827	9.85
725.853	-3.15
725.878	5.85
725.904	9.85
725.93	5.85
725.955	6.85
725.981	-11.15
726.006	-0.15
726.032	10.85
726.057	-20.15
726.083	-5.15
726.109	-4.15
726.134	0.85
726.16	3.85
726.185	0.85
726.211	-1.15
726.236	18.85
726.262	7.85
726.288	11.85
726.313	21.85
726.339	18.85
726.364	1.85
726.39	11.85
726.415	5.85
726.441	-2.15
726.466	-15.15
726.492	-5.15
726.517	2.85
726.543	1.85
726.568	-7.15
726.594	-7.15
726.619	0.85
726.645	4.85
726.67	5.85
726.696	14.85
726.721	9.85
726.747	-8.15
726.772	2.85
726.798	3.85
726.823	9.85
726.849	-6.15
726.874	7.85
726.9	19.85
726.925	5.85
726.951	-6.15
726.976	-3.15
727.002	-5.15
727.027	10.85
727.053	11.85
727.078	18.85
727.104	3.85
727.129	-12.15
727.155	-3.15
727.18	14.85
727.205	2.85
727.231	0.85
727.256	5.85
727.282	-4.15
727.307	26.85
727.333	-5.15
727.358	-19.15
727.383	6.85
727.409	-15.15
727.434	21.85
727.46	9.85
727.485	-2.15
727.511	1.85
727.536	-19.15
727.561	-3.15
727.587	10.85
727.612	8.85
727.637	-4.15
727.663	7.85
727.688	29.85
727.714	1.85
727.739	-2.15
727.764	-0.15
727.79	12.85
727.815	14.85
727.841	0.85
727.866	2.85
727.891	14.85
727.917	-2.15
727.942	-1.15
727.967	-0.15
727.993	-1.15
728.018	17.85
728.043	-3.15
728.069	9.85
728.094	10.85
728.119	7.85
728.145	12.85
728.17	1.85
728.195	13.85
728.221	16.85
728.246	1.85
728.271	-15.15
728.297	10.85
728.322	1.85
728.347	11.85
728.373	8.85
728.398	4.85
728.423	-0.15
728.448	22.85
728.474	20.85
728.499	11.85
728.524	-1.15
728.55	-3.15
728.575	8.85
728.6	-16.15
728.625	-4.15
728.651	14.85
728.676	13.85
728.701	-2.15
728.727	6.85
728.752	-9.15
728.777	-25.15
728.802	-9.15
728.828	5.85
728.853	-2.15
728.878	-0.15
728.903	-9.15
728.929	-6.15
728.954	2.85
728.979	27.85
729.004	1.85
729.03	-2.15
729.055	-0.15
729.08	4.85
729.105	0.85
729.13	16.85
729.156	16.85
729.181	6.85
729.206	-2.15
729.231	-7.15
729.256	0.85
729.282	3.85
729.307	-1.15
729.332	0.85
729.357	2.85
729.382	-3.15
729.408	1.85
729.433	5.85
729.458	12.85
729.483	9.85
729.508	11.85
729.533	8.85
729.559	3.85
729.584	-3.15
729.609	3.85
729.634	6.85
729.659	9.85
729.684	-6.15
729.71	22.85
729.735	6.85
729.76	-1.15
729.785	10.85
729.81	14.85
729.835	7.85
729.86	-2.15
729.886	12.85
729.911	5.85
729.936	5.85
729.961	11.85
729.986	-16.15
730.011	7.85
730.036	2.85
730.061	7.85
730.086	7.85
730.112	-1.15
730.137	18.85
730.162	7.85
730.187	5.85
730.212	5.85
730.237	-5.15
730.262	9.85
730.287	16.85
730.312	25.85
730.337	-8.15
730.362	16.85
730.387	8.85
730.413	-1.15
730.438	7.85
730.463	16.85
730.488	2.85
730.513	5.85
730.538	12.85
730.563	6.85
730.588	21.85
730.613	13.85
730.638	-7.15
730.663	-10.15
730.688	14.85
730.713	6.85
730.738	12.85
730.763	-10.15
730.788	-3.15
730.813	2.85
730.838	-2.15
730.863	15.85
730.888	-14.15
730.913	-12.15
730.938	-14.15
730.963	-10.15
730.988	5.85
731.013	16.85
731.038	-5.15
731.063	2.85
731.088	13.85
731.113	0.85
731.138	7.85
731.163	1.85
731.188	4.85
731.213	4.85
731.238	25.85
731.263	5.85
731.288	-8.15
731.313	21.85
731.338	7.85
731.363	-5.15
731.388	6.85
731.413	12.85
731.438	14.85
731.463	11.85
731.487	4.85
731.512	-10.15
731.537	11.85
731.562	4.85
731.587	-6.15
731.612	-6.15
731.637	11.85
731.662	17.85
731.687	-5.15
731.712	-3.15
731.737	9.85
731.762	8.85
731.786	12.85
731.811	14.85
731.836	15.85
731.861	17.85
731.886	-1.15
731.911	6.85
731.936	20.85
731.961	-7.15
731.986	4.85
732.01	2.85
732.035	5.85
732.06	17.85
732.085	5.85
732.11	-2.15
732.135	-28.15
732.16	0.85
732.184	-10.15
732.209	6.85
732.234	5.85
732.259	-14.15
732.284	21.85
732.309	12.85
732.334	4.85
732.358	-6.15
732.383	-9.15
732.408	2.85
732.433	13.85
732.458	8.85
732.482	12.85
732.507	7.85
732.532	5.85
732.557	1.85
732.582	1.85
732.607	-4.15
732.631	-2.15
732.656	-9.15
732.681	-4.15
732.706	-2.15
732.73	1.85
732.755	-1.15
732.78	9.85
732.805	-1.15
732.83	12.85
732.854	5.85
732.879	16.85
732.904	5.85
732.929	9.85
732.953	-3.15
732.978	1.85
733.003	4.85
733.028	-2.15
733.052	23.85
733.077	14.85
733.102	9.85
733.127	-10.15
733.151	3.85
733.176	10.85
733.201	-15.15
733.226	-9.15
733.25	-4.15
733.275	-0.15
733.3	12.85
733.324	17.85
733.349	1.85
733.374	22.85
733.399	5.85
733.423	9.85
733.448	-9.15
733.473	2.85
733.497	5.85
733.522	-7.15
733.547	5.85
733.571	10.85
733.596	19.85
733.621	4.85
733.646	11.85
733.67	2.85
733.695	-0.15
733.72	1.85
733.744	17.85
733.769	5.85
733.794	12.85
733.818	-6.15
733.843	-6.15
733.867	-4.15
733.892	11.85
733.917	4.85
733.941	-11.15
733.966	0.85
733.991	7.85
734.015	14.85
734.04	9.85
734.065	10.85
734.089	12.85
734.114	-0.15
734.138	7.85
734.163	-2.15
734.188	8.85
734.212	35.85
734.237	14.85
734.261	4.85
734.286	3.85
734.311	5.85
734.335	11.85
734.36	-8.15
734.384	-4.15
734.409	6.85
734.434	-1.15
734.458	16.85
734.483	5.85
734.507	-3.15
734.532	9.85
734.556	9.85
734.581	-4.15
734.606	6.85
734.63	-7.15
734.655	-5.15
734.679	6.85
734.704	-5.15
734.728	4.85
734.753	-6.15
734.777	12.85
734.802	5.85
734.826	2.85
734.851	-3.15
734.876	17.85
734.9	22.85
734.925	0.85
734.949	-20.15
734.974	-2.15
734.998	8.85
735.023	-5.15
735.047	-7.15
735.072	16.85
735.096	7.85
735.121	9.85
735.145	1.85
735.17	2.85
735.194	10.85
735.219	7.85
735.243	14.85
735.268	10.85
735.292	25.85
735.317	-5.15
735.341	1.85
735.365	-19.15
735.39	0.85
735.414	6.85
735.439	9.85
735.463	2.85
735.488	6.85
735.512	9.85
735.537	8.85
735.561	4.85
735.586	0.85
735.61	12.85
735.634	-4.15
735.659	4.85
735.683	5.85
735.708	-3.15
735.732	-1.15
735.757	8.85
735.781	-11.15
735.805	4.85
735.83	-2.15
735.854	6.85
735.879	15.85
735.903	14.85
735.927	2.85
735.952	10.85
735.976	-0.15
736.001	4.85
736.025	-7.15
736.049	-5.15
736.074	10.85
736.098	-7.15
736.123	2.85
736.147	5.85
736.171	6.85
736.196	13.85
736.22	16.85
736.244	10.85
736.269	-5.15
736.293	9.85
736.317	0.85
736.342	4.85
736.366	5.85
736.39	9.85
736.415	3.85
736.439	3.85
736.463	6.85
736.488	-2.15
736.512	0.85
736.536	-6.15
736.561	12.85
736.585	1.85
736.609	7.85
736.634	-9.15
736.658	-0.15
736.682	-5.15
736.707	-19.15
736.731	0.85
736.755	-0.15
736.78	17.85
736.804	13.85
736.828	1.85
736.852	-0.15
736.877	-0.15
736.901	5.85
736.925	6.85
736.949	-1.15
736.974	-5.15
736.998	-31.15
737.022	-1.15
737.047	-9.15
737.071	7.85
737.095	17.85
737.119	17.85
737.144	2.85
737.168	5.85
737.192	-6.15
737.216	-5.15
737.241	3.85
737.265	9.85
737.289	31.85
737.313	5.85
737.337	8.85
737.362	-1.15
737.386	0.85
737.41	-2.15
737.434	1.85
737.459	6.85
737.483	20.85
737.507	5.85
737.531	3.85
737.555	7.85
737.58	4.85
737.604	12.85
737.628	10.85
737.652	-11.15
737.676	5.85
737.701	16.85
737.725	9.85
737.749	11.85
737.773	2.85
737.797	-4.15
737.821	-5.15
737.846	12.85
737.87	21.85
737.894	6.85
737.918	2.85
737.942	-9.15
737.966	18.85
737.99	12.85
738.015	16.85
738.039	10.85
738.063	1.85
738.087	14.85
738.111	0.85
738.135	11.85
738.159	2.85
738.184	4.85
738.208	7.85
738.232	18.85
738.256	29.85
738.28	14.85
738.304	20.85
738.328	-6.15
738.352	0.85
738.376	-2.15
738.4	10.85
738.425	6.85
738.449	-3.15
738.473	7.85
738.497	-1.15
738.521	7.85
738.545	13.85
738.569	11.85
738.593	12.85
738.617	12.85
738.641	5.85
738.665	-8.15
738.689	2.85
738.713	-6.15
738.737	-5.15
738.762	10.85
738.786	4.85
738.81	-11.15
738.834	6.85
738.858	-5.15
738.882	7.85
738.906	9.85
738.93	11.85
738.954	-2.15
738.978	-0.15
739.002	4.85
739.026	8.85
739.05	1.85
739.074	9.85
739.098	17.85
739.122	9.85
739.146	7.85
739.17	18.85
739.194	2.85
739.218	-6.15
739.242	8.85
739.266	0.85
739.29	18.85
739.314	11.85
739.338	5.85
739.362	9.85
739.386	13.85
739.41	-14.15
739.434	4.85
739.458	8.85
739.482	-4.15
739.506	-0.15
739.53	4.85
739.554	10.85
739.577	4.85
739.601	17.85
739.625	-18.15
739.649	-0.15
739.673	-6.15
739.697	-2.15
739.721	-10.15
739.745	7.85
739.769	9.85
739.793	15.85
739.817	9.85
739.841	0.85
739.865	1.85
739.889	-29.15
739.912	7.85
739.936	-7.15
739.96	-19.15
739.984	-4.15
740.008	4.85
740.032	2.85
740.056	10.85
740.08	7.85
740.104	-3.15
740.127	-2.15
740.151	-7.15
740.175	-0.15
740.199	20.85
740.223	39.85
740.247	9.85
740.271	8.85
740.295	-1.15
740.318	12.85
740.342	12.85
740.366	13.85
740.39	13.85
740.414	-1.15
740.438	-6.15
740.461	21.85
740.485	7.85
740.509	-6.15
740.533	6.85
740.557	-2.15
740.581	1.85
740.604	-0.15
740.628	1.85
740.652	12.85
740.676	15.85
740.7	14.85
740.723	-5.15
740.747	0.85
740.771	5.85
740.795	3.85
740.819	6.85
740.842	9.85
740.866	6.85
740.89	0.85
740.914	-5.15
740.938	-2.15
740.961	10.85
740.985	-1.15
741.009	0.85
741.033	19.85
741.056	-1.15
741.08	-1.15
741.104	1.85
741.128	4.85
741.151	17.85
741.175	9.85
741.199	15.85
741.223	2.85
741.246	-3.15
741.27	12.85
741.294	7.85
741.318	-10.15
741.341	9.85
741.365	21.85
741.389	13.85
741.413	8.85
741.436	9.85
741.46	14.85
741.484	15.85
741.507	10.85
741.531	9.85
741.555	4.85
741.579	18.85
741.602	24.85
741.626	4.85
741.65	4.85
741.673	18.85
741.697	5.85
741.721	-2.15
741.744	1.85
741.768	-9.15
741.792	-1.15
741.815	-5.15
741.839	17.85
741.863	21.85
741.886	20.85
741.91	5.85
741.934	-1.15
741.957	9.85
741.981	13.85
742.005	2.85
742.028	4.85
742.052	-14.15
742.075	0.85
742.099	7.85
742.123	2.85
742.146	8.85
742.17	-0.15
742.194	-10.15
742.217	6.85
742.241	6.85
742.264	10.85
742.288	24.85
742.312	9.85
742.335	-5.15
742.359	6.85
742.382	10.85
742.406	14.85
742.43	-5.15
742.453	7.85
742.477	5.85
742.5	-4.15
742.524	-2.15
742.548	-4.15
742.571	7.85
742.595	0.85
742.618	-2.15
742.642	-5.15
742.665	-1.15
742.689	-10.15
742.712	16.85
742.736	12.85
742.76	0.85
742.783	2.85
742.807	10.85
742.83	21.85
742.854	-6.15
742.877	-7.15
742.901	-3.15
742.924	-1.15
742.948	12.85
742.971	1.85
742.995	2.85
743.018	-11.15
743.042	2.85
743.065	6.85
743.089	2.85
743.112	19.85
743.136	-0.15
743.159	-5.15
743.183	11.85
743.206	15.85
743.23	2.85
743.253	9.85
743.277	11.85
743.3	-7.15
743.324	-12.15
743.347	-2.15
743.371	15.85
743.394	13.85
743.418	12.85
743.441	17.85
743.465	9.85
743.488	9.85
743.512	-12.15
743.535	-9.15
743.558	-1.15
743.582	6.85
743.605	4.85
743.629	23.85
743.652	9.85
743.676	0.85
743.699	6.85
743.723	4.85
743.746	-3.15
743.769	-3.15
743.793	12.85
743.816	-1.15
743.84	9.85
743.863	0.85
743.886	8.85
743.91	9.85
743.933	8.85
743.957	1.85
743.98	1.85
744.003	4.85
744.027	6.85
744.05	-6.15
744.074	1.85
744.097	0.85
744.12	-6.15
744.144	6.85
744.167	6.85
744.19	1.85
744.214	-0.15
744.237	-4.15
744.26	18.85
744.284	-0.15
744.307	-2.15
744.331	8.85
744.354	-17.15
744.377	-13.15
744.401	0.85
744.424	-6.15
744.447	-20.15
744.471	-17.15
