Data from HighRes_H2D2_15_04_11_07_2024_HR4C61891__10__15-05-35-443.txt Node

Date: Thu Nov 07 15:05:35 EST 2024
User: crc00042
Spectrometer: HR4C6189
Trigger mode: 4
Integration Time (sec): 1.000000E-1
Scans to average: 1
Electric dark correction enabled: true
Nonlinearity correction enabled: false
Boxcar width: 0
XAxis mode: Wavelengths
Number of Pixels in Spectrum: 3648
>>>>>Begin Spectral Data<<<<<
639.567	-93.77
639.602	-93.77
639.636	-93.77
639.67	-50.77
639.704	-17.77
639.738	-11.77
639.773	11.23
639.807	-16.77
639.841	-3.77
639.875	10.23
639.909	-3.77
639.943	-23.77
639.978	7.23
640.012	7.23
640.046	14.23
640.08	13.23
640.114	4.23
640.148	-7.77
640.182	-1.77
640.217	-3.77
640.251	9.23
640.285	11.23
640.319	-10.77
640.353	1.23
640.387	7.23
640.421	6.23
640.455	13.23
640.49	3.23
640.524	-14.77
640.558	3.23
640.592	-0.77
640.626	8.23
640.66	3.23
640.694	7.23
640.728	15.23
640.762	13.23
640.796	25.23
640.83	-3.77
640.865	13.23
640.899	0.23
640.933	-11.77
640.967	4.23
641.001	-0.77
641.035	-3.77
641.069	-6.77
641.103	-2.77
641.137	6.23
641.171	-12.77
641.205	12.23
641.239	-8.77
641.273	15.23
641.307	16.23
641.341	-6.77
641.375	0.23
641.409	7.23
641.443	2.23
641.477	9.23
641.511	14.23
641.545	-6.77
641.579	-4.77
641.614	-3.77
641.648	8.23
641.682	-5.77
641.716	12.23
641.75	6.23
641.784	-0.77
641.818	5.23
641.852	-5.77
641.886	0.23
641.919	40.23
641.953	2.23
641.987	-7.77
642.021	0.23
642.055	0.23
642.089	-14.77
642.123	-5.77
642.157	1.23
642.191	10.23
642.225	2.23
642.259	7.23
642.293	16.23
642.327	0.23
642.361	2.23
642.395	-1.77
642.429	21.23
642.463	1.23
642.497	31.23
642.531	-1.77
642.565	0.23
642.599	-1.77
642.633	-19.77
642.666	16.23
642.7	22.23
642.734	8.23
642.768	-12.77
642.802	1.23
642.836	0.23
642.87	-0.77
642.904	15.23
642.938	10.23
642.972	-0.77
643.005	5.23
643.039	21.23
643.073	5.23
643.107	2.23
643.141	0.23
643.175	1.23
643.209	10.23
643.243	-12.77
643.276	-2.77
643.31	3.23
643.344	9.23
643.378	15.23
643.412	10.23
643.446	3.23
643.48	-1.77
643.513	10.23
643.547	2.23
643.581	-9.77
643.615	2.23
643.649	-4.77
643.683	9.23
643.716	-10.77
643.75	5.23
643.784	3.23
643.818	11.23
643.852	15.23
643.886	-18.77
643.919	-4.77
643.953	-6.77
643.987	-11.77
644.021	8.23
644.055	2.23
644.088	-1.77
644.122	-10.77
644.156	-3.77
644.19	-4.77
644.224	9.23
644.257	3.23
644.291	13.23
644.325	12.23
644.359	5.23
644.392	10.23
644.426	9.23
644.46	-1.77
644.494	1.23
644.527	4.23
644.561	-2.77
644.595	-9.77
644.629	-11.77
644.662	-14.77
644.696	3.23
644.73	-8.77
644.764	14.23
644.797	1.23
644.831	10.23
644.865	-10.77
644.899	3.23
644.932	9.23
644.966	-12.77
645	18.23
645.033	4.23
645.067	-6.77
645.101	20.23
645.135	-2.77
645.168	-2.77
645.202	-2.77
645.236	-3.77
645.269	10.23
645.303	-0.77
645.337	-12.77
645.37	-13.77
645.404	-8.77
645.438	-0.77
645.471	-12.77
645.505	-8.77
645.539	1.23
645.572	-10.77
645.606	5.23
645.64	0.23
645.673	2.23
645.707	8.23
645.741	0.23
645.774	-9.77
645.808	5.23
645.842	-5.77
645.875	9.23
645.909	-9.77
645.943	-11.77
645.976	5.23
646.01	8.23
646.043	11.23
646.077	10.23
646.111	6.23
646.144	12.23
646.178	4.23
646.212	-25.77
646.245	-4.77
646.279	-1.77
646.312	17.23
646.346	15.23
646.38	-1.77
646.413	3.23
646.447	0.23
646.48	0.23
646.514	30.23
646.547	10.23
646.581	19.23
646.615	10.23
646.648	-13.77
646.682	10.23
646.715	-13.77
646.749	8.23
646.782	-1.77
646.816	9.23
646.85	-3.77
646.883	-4.77
646.917	5.23
646.95	12.23
646.984	8.23
647.017	3.23
647.051	-6.77
647.084	16.23
647.118	-6.77
647.151	-16.77
647.185	6.23
647.218	-8.77
647.252	8.23
647.285	-0.77
647.319	-11.77
647.353	-4.77
647.386	17.23
647.42	-1.77
647.453	1.23
647.487	9.23
647.52	10.23
647.553	7.23
647.587	-3.77
647.62	5.23
647.654	0.23
647.687	-0.77
647.721	2.23
647.754	13.23
647.788	3.23
647.821	-10.77
647.855	8.23
647.888	11.23
647.922	26.23
647.955	16.23
647.989	17.23
648.022	4.23
648.055	28.23
648.089	4.23
648.122	17.23
648.156	23.23
648.189	4.23
648.223	9.23
648.256	17.23
648.29	16.23
648.323	4.23
648.356	4.23
648.39	5.23
648.423	6.23
648.457	12.23
648.49	8.23
648.523	3.23
648.557	1.23
648.59	-7.77
648.624	18.23
648.657	-9.77
648.69	9.23
648.724	-2.77
648.757	14.23
648.791	-1.77
648.824	9.23
648.857	-0.77
648.891	6.23
648.924	11.23
648.957	18.23
648.991	-4.77
649.024	16.23
649.057	15.23
649.091	-2.77
649.124	7.23
649.158	2.23
649.191	33.23
649.224	12.23
649.258	9.23
649.291	9.23
649.324	-4.77
649.358	3.23
649.391	10.23
649.424	16.23
649.458	-1.77
649.491	13.23
649.524	-0.77
649.557	-14.77
649.591	-18.77
649.624	12.23
649.657	0.23
649.691	2.23
649.724	4.23
649.757	5.23
649.791	-9.77
649.824	12.23
649.857	-6.77
649.89	3.23
649.924	-18.77
649.957	-3.77
649.99	-11.77
650.023	-14.77
650.057	-19.77
650.09	1.23
650.123	19.23
650.157	8.23
650.19	19.23
650.223	1.23
650.256	-7.77
650.29	6.23
650.323	-16.77
650.356	19.23
650.389	2.23
650.423	-6.77
650.456	-3.77
650.489	-8.77
650.522	24.23
650.555	4.23
650.589	25.23
650.622	8.23
650.655	22.23
650.688	10.23
650.721	-11.77
650.755	7.23
650.788	15.23
650.821	0.23
650.854	6.23
650.887	6.23
650.921	0.23
650.954	-9.77
650.987	2.23
651.02	7.23
651.053	0.23
651.087	-6.77
651.12	17.23
651.153	-2.77
651.186	-5.77
651.219	10.23
651.252	25.23
651.286	9.23
651.319	14.23
651.352	-3.77
651.385	10.23
651.418	14.23
651.451	-4.77
651.484	9.23
651.518	2.23
651.551	24.23
651.584	-14.77
651.617	14.23
651.65	11.23
651.683	19.23
651.716	28.23
651.749	0.23
651.783	2.23
651.816	6.23
651.849	17.23
651.882	17.23
651.915	6.23
651.948	2.23
651.981	-3.77
652.014	-15.77
652.047	-10.77
652.08	-11.77
652.114	-3.77
652.147	-5.77
652.18	-1.77
652.213	24.23
652.246	5.23
652.279	9.23
652.312	16.23
652.345	-7.77
652.378	11.23
652.411	26.23
652.444	2.23
652.477	18.23
652.51	14.23
652.543	1.23
652.576	3.23
652.609	-6.77
652.642	14.23
652.675	21.23
652.709	0.23
652.742	21.23
652.775	21.23
652.808	20.23
652.841	4.23
652.874	16.23
652.907	14.23
652.94	-0.77
652.973	-14.77
653.006	-21.77
653.039	1.23
653.072	6.23
653.105	21.23
653.138	-14.77
653.171	1.23
653.204	4.23
653.237	23.23
653.27	-7.77
653.303	19.23
653.336	9.23
653.368	-7.77
653.401	6.23
653.434	7.23
653.467	8.23
653.5	3.23
653.533	-4.77
653.566	-12.77
653.599	0.23
653.632	11.23
653.665	3.23
653.698	-0.77
653.731	-1.77
653.764	6.23
653.797	1.23
653.83	19.23
653.863	9.23
653.896	-0.77
653.929	-0.77
653.961	31.23
653.994	7.23
654.027	-14.77
654.06	3.23
654.093	-2.77
654.126	13.23
654.159	-11.77
654.192	7.23
654.225	2.23
654.258	1.23
654.29	3.23
654.323	5.23
654.356	-4.77
654.389	15.23
654.422	-4.77
654.455	-4.77
654.488	12.23
654.521	-12.77
654.553	-14.77
654.586	18.23
654.619	-3.77
654.652	6.23
654.685	13.23
654.718	-0.77
654.751	7.23
654.783	-8.77
654.816	16.23
654.849	1.23
654.882	-12.77
654.915	-6.77
654.948	-7.77
654.98	-9.77
655.013	3.23
655.046	-14.77
655.079	7.23
655.112	7.23
655.144	-11.77
655.177	10.23
655.21	26.23
655.243	8.23
655.276	3.23
655.308	4.23
655.341	13.23
655.374	8.23
655.407	-3.77
655.44	-16.77
655.472	17.23
655.505	-4.77
655.538	1.23
655.571	5.23
655.603	7.23
655.636	5.23
655.669	11.23
655.702	-2.77
655.734	-5.77
655.767	-15.77
655.8	0.23
655.833	13.23
655.865	6.23
655.898	-19.77
655.931	-0.77
655.964	22.23
655.996	23.23
656.029	46.23
656.062	26.23
656.095	33.23
656.127	82.23
656.16	226.23
656.193	615.23
656.225	960.23
656.258	574.23
656.291	219.23
656.324	176.23
656.356	356.23
656.389	783.23
656.422	689.23
656.454	241.23
656.487	93.23
656.52	31.23
656.552	13.23
656.585	7.23
656.618	13.23
656.65	8.23
656.683	-8.77
656.716	-9.77
656.748	9.23
656.781	5.23
656.814	-14.77
656.846	7.23
656.879	11.23
656.912	17.23
656.944	-22.77
656.977	-7.77
657.01	-0.77
657.042	12.23
657.075	-6.77
657.108	-5.77
657.14	15.23
657.173	22.23
657.205	33.23
657.238	13.23
657.271	-0.77
657.303	-13.77
657.336	0.23
657.369	7.23
657.401	10.23
657.434	-3.77
657.466	11.23
657.499	2.23
657.532	-18.77
657.564	-8.77
657.597	-13.77
657.629	17.23
657.662	2.23
657.694	8.23
657.727	-3.77
657.76	7.23
657.792	-0.77
657.825	-9.77
657.857	9.23
657.89	-8.77
657.922	14.23
657.955	-11.77
657.987	-0.77
658.02	23.23
658.053	23.23
658.085	0.23
658.118	-6.77
658.15	12.23
658.183	15.23
658.215	5.23
658.248	12.23
658.28	-6.77
658.313	19.23
658.345	4.23
658.378	7.23
658.41	10.23
658.443	17.23
658.475	5.23
658.508	0.23
658.54	4.23
658.573	0.23
658.605	30.23
658.638	-17.77
658.67	0.23
658.703	3.23
658.735	3.23
658.768	4.23
658.8	7.23
658.833	26.23
658.865	7.23
658.898	7.23
658.93	7.23
658.963	10.23
658.995	-11.77
659.028	-1.77
659.06	14.23
659.092	-0.77
659.125	-7.77
659.157	1.23
659.19	-14.77
659.222	9.23
659.255	3.23
659.287	4.23
659.32	8.23
659.352	6.23
659.384	17.23
659.417	14.23
659.449	17.23
659.482	-0.77
659.514	-12.77
659.546	2.23
659.579	0.23
659.611	-0.77
659.644	14.23
659.676	-19.77
659.708	-4.77
659.741	-0.77
659.773	10.23
659.806	-2.77
659.838	16.23
659.87	11.23
659.903	-4.77
659.935	12.23
659.967	7.23
660	11.23
660.032	-13.77
660.065	2.23
660.097	0.23
660.129	2.23
660.162	-17.77
660.194	-1.77
660.226	3.23
660.259	10.23
660.291	-8.77
660.323	14.23
660.356	4.23
660.388	8.23
660.42	-0.77
660.453	2.23
660.485	15.23
660.517	18.23
660.55	19.23
660.582	2.23
660.614	13.23
660.647	-1.77
660.679	-3.77
660.711	1.23
660.743	-32.77
660.776	-10.77
660.808	-13.77
660.84	-23.77
660.873	-3.77
660.905	-2.77
660.937	0.23
660.969	-4.77
661.002	-6.77
661.034	15.23
661.066	13.23
661.099	-2.77
661.131	9.23
661.163	12.23
661.195	2.23
661.228	9.23
661.26	-0.77
661.292	7.23
661.324	6.23
661.357	1.23
661.389	13.23
661.421	1.23
661.453	8.23
661.485	8.23
661.518	14.23
661.55	-7.77
661.582	-20.77
661.614	-0.77
661.647	21.23
661.679	12.23
661.711	5.23
661.743	-3.77
661.775	-5.77
661.808	36.23
661.84	-7.77
661.872	9.23
661.904	4.23
661.936	2.23
661.969	-7.77
662.001	-12.77
662.033	7.23
662.065	-4.77
662.097	6.23
662.129	17.23
662.162	-12.77
662.194	-0.77
662.226	8.23
662.258	4.23
662.29	3.23
662.322	-10.77
662.355	-14.77
662.387	7.23
662.419	15.23
662.451	15.23
662.483	4.23
662.515	-3.77
662.547	-0.77
662.58	-11.77
662.612	-3.77
662.644	-12.77
662.676	-0.77
662.708	31.23
662.74	-2.77
662.772	9.23
662.804	13.23
662.836	6.23
662.869	-11.77
662.901	14.23
662.933	-1.77
662.965	9.23
662.997	22.23
663.029	-17.77
663.061	4.23
663.093	-1.77
663.125	-8.77
663.157	4.23
663.189	-5.77
663.221	17.23
663.254	6.23
663.286	12.23
663.318	10.23
663.35	3.23
663.382	-3.77
663.414	-9.77
663.446	10.23
663.478	9.23
663.51	32.23
663.542	-4.77
663.574	0.23
663.606	2.23
663.638	1.23
663.67	-12.77
663.702	-6.77
663.734	5.23
663.766	5.23
663.798	-0.77
663.83	3.23
663.862	19.23
663.894	18.23
663.926	-1.77
663.958	8.23
663.99	-0.77
664.022	-3.77
664.054	10.23
664.086	2.23
664.118	13.23
664.15	1.23
664.182	2.23
664.214	2.23
664.246	18.23
664.278	19.23
664.31	24.23
664.342	-1.77
664.374	-12.77
664.406	4.23
664.438	3.23
664.47	0.23
664.502	4.23
664.534	-13.77
664.566	-22.77
664.598	12.23
664.63	8.23
664.662	3.23
664.693	-0.77
664.725	-1.77
664.757	-4.77
664.789	-4.77
664.821	-8.77
664.853	5.23
664.885	5.23
664.917	-4.77
664.949	12.23
664.981	28.23
665.013	-4.77
665.045	-16.77
665.076	3.23
665.108	-5.77
665.14	-11.77
665.172	-3.77
665.204	10.23
665.236	2.23
665.268	-0.77
665.3	18.23
665.331	4.23
665.363	8.23
665.395	-4.77
665.427	2.23
665.459	7.23
665.491	8.23
665.523	2.23
665.555	-8.77
665.586	-0.77
665.618	-6.77
665.65	-3.77
665.682	8.23
665.714	11.23
665.746	-14.77
665.777	3.23
665.809	-8.77
665.841	15.23
665.873	2.23
665.905	0.23
665.937	13.23
665.968	-0.77
666	0.23
666.032	-5.77
666.064	-12.77
666.096	-21.77
666.127	19.23
666.159	16.23
666.191	17.23
666.223	11.23
666.255	7.23
666.286	0.23
666.318	-4.77
666.35	14.23
666.382	8.23
666.413	-7.77
666.445	-11.77
666.477	-6.77
666.509	0.23
666.54	4.23
666.572	9.23
666.604	4.23
666.636	-6.77
666.667	13.23
666.699	17.23
666.731	0.23
666.763	-4.77
666.794	4.23
666.826	8.23
666.858	-16.77
666.89	5.23
666.921	4.23
666.953	3.23
666.985	14.23
667.017	10.23
667.048	23.23
667.08	2.23
667.112	3.23
667.143	2.23
667.175	20.23
667.207	8.23
667.238	-4.77
667.27	8.23
667.302	0.23
667.334	-9.77
667.365	19.23
667.397	-4.77
667.429	-4.77
667.46	18.23
667.492	17.23
667.524	4.23
667.555	-2.77
667.587	5.23
667.619	5.23
667.65	5.23
667.682	2.23
667.714	18.23
667.745	16.23
667.777	4.23
667.808	3.23
667.84	13.23
667.872	7.23
667.903	19.23
667.935	-12.77
667.967	-1.77
667.998	6.23
668.03	7.23
668.061	17.23
668.093	16.23
668.125	7.23
668.156	-2.77
668.188	-12.77
668.22	-6.77
668.251	4.23
668.283	14.23
668.314	5.23
668.346	9.23
668.377	4.23
668.409	-0.77
668.441	8.23
668.472	2.23
668.504	13.23
668.535	7.23
668.567	12.23
668.599	-8.77
668.63	4.23
668.662	2.23
668.693	19.23
668.725	14.23
668.756	16.23
668.788	-6.77
668.819	8.23
668.851	7.23
668.882	9.23
668.914	0.23
668.946	8.23
668.977	-12.77
669.009	-2.77
669.04	-12.77
669.072	10.23
669.103	4.23
669.135	17.23
669.166	18.23
669.198	16.23
669.229	18.23
669.261	7.23
669.292	4.23
669.324	4.23
669.355	12.23
669.387	-13.77
669.418	13.23
669.45	-14.77
669.481	-7.77
669.513	4.23
669.544	10.23
669.576	10.23
669.607	26.23
669.639	24.23
669.67	-5.77
669.701	18.23
669.733	15.23
669.764	-0.77
669.796	9.23
669.827	1.23
669.859	-0.77
669.89	3.23
669.922	21.23
669.953	21.23
669.985	8.23
670.016	14.23
670.047	7.23
670.079	-0.77
670.11	-3.77
670.142	-4.77
670.173	5.23
670.204	14.23
670.236	1.23
670.267	-6.77
670.299	-8.77
670.33	-6.77
670.362	12.23
670.393	-0.77
670.424	4.23
670.456	-20.77
670.487	-13.77
670.518	12.23
670.55	10.23
670.581	14.23
670.613	8.23
670.644	-1.77
670.675	-0.77
670.707	1.23
670.738	-0.77
670.769	-6.77
670.801	-19.77
670.832	13.23
670.864	-0.77
670.895	18.23
670.926	7.23
670.958	6.23
670.989	-7.77
671.02	-6.77
671.052	8.23
671.083	6.23
671.114	-13.77
671.146	16.23
671.177	17.23
671.208	-3.77
671.24	1.23
671.271	12.23
671.302	13.23
671.333	-3.77
671.365	-2.77
671.396	17.23
671.427	2.23
671.459	4.23
671.49	26.23
671.521	5.23
671.553	13.23
671.584	11.23
671.615	-5.77
671.646	9.23
671.678	2.23
671.709	-0.77
671.74	-17.77
671.771	2.23
671.803	11.23
671.834	12.23
671.865	8.23
671.896	16.23
671.928	0.23
671.959	2.23
671.99	-4.77
672.021	-1.77
672.053	-21.77
672.084	31.23
672.115	19.23
672.146	-2.77
672.178	-0.77
672.209	9.23
672.24	8.23
672.271	27.23
672.303	3.23
672.334	6.23
672.365	-14.77
672.396	19.23
672.427	13.23
672.459	18.23
672.49	17.23
672.521	9.23
672.552	11.23
672.583	-3.77
672.615	8.23
672.646	24.23
672.677	1.23
672.708	-5.77
672.739	-1.77
672.77	4.23
672.802	11.23
672.833	0.23
672.864	-1.77
672.895	6.23
672.926	10.23
672.957	-5.77
672.989	15.23
673.02	12.23
673.051	-7.77
673.082	13.23
673.113	6.23
673.144	-1.77
673.175	13.23
673.206	-5.77
673.238	3.23
673.269	12.23
673.3	-0.77
673.331	10.23
673.362	13.23
673.393	4.23
673.424	8.23
673.455	12.23
673.487	10.23
673.518	20.23
673.549	3.23
673.58	-1.77
673.611	1.23
673.642	-5.77
673.673	-22.77
673.704	11.23
673.735	2.23
673.766	-31.77
673.797	5.23
673.828	-0.77
673.86	-11.77
673.891	-0.77
673.922	-0.77
673.953	3.23
673.984	6.23
674.015	16.23
674.046	-2.77
674.077	5.23
674.108	1.23
674.139	14.23
674.17	-4.77
674.201	-18.77
674.232	-13.77
674.263	0.23
674.294	-12.77
674.325	6.23
674.356	7.23
674.387	4.23
674.418	8.23
674.449	-9.77
674.48	-13.77
674.511	23.23
674.542	14.23
674.573	0.23
674.604	7.23
674.635	-11.77
674.666	8.23
674.697	0.23
674.728	-0.77
674.759	8.23
674.79	-1.77
674.821	-10.77
674.852	3.23
674.883	-6.77
674.914	-4.77
674.945	7.23
674.976	8.23
675.007	-0.77
675.038	-9.77
675.069	-5.77
675.1	1.23
675.131	21.23
675.162	-19.77
675.193	-12.77
675.224	-4.77
675.254	-8.77
675.285	6.23
675.316	19.23
675.347	12.23
675.378	3.23
675.409	-14.77
675.44	10.23
675.471	2.23
675.502	3.23
675.533	-13.77
675.564	6.23
675.595	3.23
675.625	21.23
675.656	11.23
675.687	11.23
675.718	-15.77
675.749	15.23
675.78	6.23
675.811	8.23
675.842	-1.77
675.873	10.23
675.903	6.23
675.934	6.23
675.965	-3.77
675.996	-0.77
676.027	7.23
676.058	3.23
676.089	-9.77
676.119	3.23
676.15	6.23
676.181	1.23
676.212	-1.77
676.243	12.23
676.274	6.23
676.304	20.23
676.335	-9.77
676.366	-14.77
676.397	-9.77
676.428	6.23
676.459	-7.77
676.489	16.23
676.52	10.23
676.551	-3.77
676.582	-3.77
676.613	1.23
676.643	-2.77
676.674	12.23
676.705	-5.77
676.736	4.23
676.767	21.23
676.797	9.23
676.828	-1.77
676.859	13.23
676.89	4.23
676.92	0.23
676.951	-0.77
676.982	-3.77
677.013	-3.77
677.044	11.23
677.074	-2.77
677.105	-15.77
677.136	7.23
677.167	10.23
677.197	26.23
677.228	11.23
677.259	4.23
677.289	7.23
677.32	1.23
677.351	3.23
677.382	-3.77
677.412	-9.77
677.443	-10.77
677.474	-12.77
677.505	-3.77
677.535	10.23
677.566	-3.77
677.597	-7.77
677.627	-3.77
677.658	8.23
677.689	2.23
677.72	11.23
677.75	-4.77
677.781	0.23
677.812	8.23
677.842	15.23
677.873	9.23
677.904	17.23
677.934	3.23
677.965	10.23
677.996	-5.77
678.026	5.23
678.057	-0.77
678.088	2.23
678.118	-6.77
678.149	-3.77
678.18	-0.77
678.21	3.23
678.241	-1.77
678.272	1.23
678.302	-4.77
678.333	11.23
678.363	8.23
678.394	8.23
678.425	10.23
678.455	7.23
678.486	23.23
678.517	-5.77
678.547	-6.77
678.578	-9.77
678.608	-14.77
678.639	9.23
678.67	14.23
678.7	9.23
678.731	-4.77
678.761	-18.77
678.792	-14.77
678.823	-0.77
678.853	11.23
678.884	-8.77
678.914	26.23
678.945	4.23
678.975	-11.77
679.006	4.23
679.037	-4.77
679.067	12.23
679.098	4.23
679.128	-10.77
679.159	-18.77
679.189	16.23
679.22	-8.77
679.25	-7.77
679.281	-2.77
679.312	7.23
679.342	3.23
679.373	28.23
679.403	12.23
679.434	-0.77
679.464	-6.77
679.495	-4.77
679.525	7.23
679.556	4.23
679.586	26.23
679.617	7.23
679.647	12.23
679.678	6.23
679.708	-8.77
679.739	1.23
679.769	-5.77
679.8	16.23
679.83	2.23
679.861	8.23
679.891	2.23
679.922	-15.77
679.952	-1.77
679.983	0.23
680.013	-11.77
680.044	4.23
680.074	21.23
680.105	5.23
680.135	13.23
680.165	22.23
680.196	3.23
680.226	2.23
680.257	-2.77
680.287	-1.77
680.318	7.23
680.348	1.23
680.379	4.23
680.409	16.23
680.439	10.23
680.47	-0.77
680.5	-8.77
680.531	5.23
680.561	6.23
680.592	1.23
680.622	24.23
680.652	2.23
680.683	0.23
680.713	-3.77
680.744	0.23
680.774	-5.77
680.804	16.23
680.835	-1.77
680.865	-9.77
680.896	21.23
680.926	26.23
680.956	-3.77
680.987	-17.77
681.017	-15.77
681.047	10.23
681.078	-19.77
681.108	6.23
681.139	4.23
681.169	5.23
681.199	-3.77
681.23	26.23
681.26	14.23
681.29	20.23
681.321	1.23
681.351	6.23
681.381	-13.77
681.412	-3.77
681.442	5.23
681.472	19.23
681.503	25.23
681.533	2.23
681.563	-8.77
681.594	-1.77
681.624	14.23
681.654	-11.77
681.685	0.23
681.715	6.23
681.745	-1.77
681.775	-6.77
681.806	2.23
681.836	-1.77
681.866	1.23
681.897	5.23
681.927	-2.77
681.957	-17.77
681.987	3.23
682.018	-2.77
682.048	16.23
682.078	10.23
682.109	27.23
682.139	16.23
682.169	-3.77
682.199	3.23
682.23	-7.77
682.26	10.23
682.29	-1.77
682.32	-16.77
682.351	5.23
682.381	7.23
682.411	-9.77
682.441	-12.77
682.472	4.23
682.502	5.23
682.532	-13.77
682.562	3.23
682.592	11.23
682.623	24.23
682.653	-6.77
682.683	-24.77
682.713	-1.77
682.743	5.23
682.774	9.23
682.804	19.23
682.834	20.23
682.864	0.23
682.894	10.23
682.925	0.23
682.955	-3.77
682.985	-2.77
683.015	10.23
683.045	15.23
683.076	7.23
683.106	8.23
683.136	0.23
683.166	-3.77
683.196	-17.77
683.226	-0.77
683.257	-3.77
683.287	9.23
683.317	-11.77
683.347	-8.77
683.377	-14.77
683.407	13.23
683.437	10.23
683.468	15.23
683.498	-1.77
683.528	9.23
683.558	9.23
683.588	5.23
683.618	-10.77
683.648	-0.77
683.678	2.23
683.708	3.23
683.739	4.23
683.769	-10.77
683.799	-3.77
683.829	3.23
683.859	-0.77
683.889	16.23
683.919	-4.77
683.949	5.23
683.979	1.23
684.009	4.23
684.039	2.23
684.07	-6.77
684.1	21.23
684.13	-5.77
684.16	3.23
684.19	-11.77
684.22	7.23
684.25	-0.77
684.28	3.23
684.31	21.23
684.34	16.23
684.37	19.23
684.4	-7.77
684.43	0.23
684.46	15.23
684.49	-3.77
684.52	4.23
684.55	11.23
684.58	0.23
684.61	4.23
684.64	24.23
684.67	8.23
684.7	6.23
684.73	7.23
684.76	2.23
684.79	5.23
684.82	9.23
684.85	-6.77
684.88	-0.77
684.91	2.23
684.94	3.23
684.97	3.23
685	-3.77
685.03	2.23
685.06	-5.77
685.09	4.23
685.12	20.23
685.15	-6.77
685.18	11.23
685.21	1.23
685.24	7.23
685.27	7.23
685.3	4.23
685.33	15.23
685.36	-0.77
685.39	4.23
685.42	8.23
685.45	2.23
685.48	16.23
685.51	5.23
685.54	-2.77
685.569	8.23
685.599	14.23
685.629	16.23
685.659	-3.77
685.689	0.23
685.719	3.23
685.749	-1.77
685.779	10.23
685.809	0.23
685.839	-3.77
685.869	1.23
685.898	5.23
685.928	-4.77
685.958	8.23
685.988	26.23
686.018	0.23
686.048	1.23
686.078	28.23
686.108	13.23
686.137	24.23
686.167	19.23
686.197	-14.77
686.227	7.23
686.257	31.23
686.287	9.23
686.317	-0.77
686.346	-4.77
686.376	6.23
686.406	6.23
686.436	11.23
686.466	0.23
686.496	-10.77
686.525	7.23
686.555	-0.77
686.585	19.23
686.615	43.23
686.645	24.23
686.675	-5.77
686.704	11.23
686.734	0.23
686.764	-1.77
686.794	22.23
686.824	9.23
686.853	17.23
686.883	11.23
686.913	5.23
686.943	-5.77
686.973	18.23
687.002	-14.77
687.032	8.23
687.062	-14.77
687.092	6.23
687.121	-4.77
687.151	6.23
687.181	-2.77
687.211	17.23
687.24	6.23
687.27	3.23
687.3	6.23
687.33	7.23
687.359	-5.77
687.389	8.23
687.419	-0.77
687.449	23.23
687.478	12.23
687.508	1.23
687.538	18.23
687.568	7.23
687.597	14.23
687.627	5.23
687.657	11.23
687.686	19.23
687.716	17.23
687.746	-2.77
687.776	-6.77
687.805	15.23
687.835	11.23
687.865	23.23
687.894	-0.77
687.924	-8.77
687.954	3.23
687.983	1.23
688.013	21.23
688.043	14.23
688.072	0.23
688.102	18.23
688.132	1.23
688.161	-16.77
688.191	-4.77
688.221	23.23
688.25	-13.77
688.28	5.23
688.31	-8.77
688.339	3.23
688.369	-8.77
688.399	-19.77
688.428	-4.77
688.458	16.23
688.488	-1.77
688.517	15.23
688.547	1.23
688.576	30.23
688.606	24.23
688.636	9.23
688.665	-1.77
688.695	14.23
688.725	28.23
688.754	4.23
688.784	4.23
688.813	20.23
688.843	12.23
688.873	12.23
688.902	17.23
688.932	-10.77
688.961	1.23
688.991	23.23
689.02	20.23
689.05	-6.77
689.08	10.23
689.109	12.23
689.139	4.23
689.168	14.23
689.198	7.23
689.227	0.23
689.257	11.23
689.287	30.23
689.316	5.23
689.346	-11.77
689.375	-2.77
689.405	1.23
689.434	-9.77
689.464	6.23
689.493	-6.77
689.523	-7.77
689.552	10.23
689.582	19.23
689.611	2.23
689.641	8.23
689.67	3.23
689.7	3.23
689.73	32.23
689.759	18.23
689.789	13.23
689.818	-4.77
689.848	9.23
689.877	8.23
689.906	-9.77
689.936	3.23
689.965	-8.77
689.995	15.23
690.024	18.23
690.054	11.23
690.083	-7.77
690.113	13.23
690.142	10.23
690.172	8.23
690.201	4.23
690.231	2.23
690.26	4.23
690.29	3.23
690.319	4.23
690.348	3.23
690.378	-2.77
690.407	18.23
690.437	2.23
690.466	4.23
690.496	8.23
690.525	6.23
690.555	-6.77
690.584	-13.77
690.613	3.23
690.643	12.23
690.672	10.23
690.702	13.23
690.731	17.23
690.76	3.23
690.79	4.23
690.819	-1.77
690.849	15.23
690.878	4.23
690.907	3.23
690.937	19.23
690.966	11.23
690.996	-6.77
691.025	-2.77
691.054	0.23
691.084	8.23
691.113	3.23
691.142	-2.77
691.172	4.23
691.201	13.23
691.23	7.23
691.26	13.23
691.289	6.23
691.319	19.23
691.348	10.23
691.377	13.23
691.407	14.23
691.436	17.23
691.465	5.23
691.495	9.23
691.524	-14.77
691.553	-3.77
691.583	10.23
691.612	25.23
691.641	0.23
691.67	0.23
691.7	9.23
691.729	-12.77
691.758	2.23
691.788	-6.77
691.817	-1.77
691.846	8.23
691.876	-0.77
691.905	-0.77
691.934	-8.77
691.963	13.23
691.993	-6.77
692.022	-1.77
692.051	-4.77
692.081	25.23
692.11	28.23
692.139	15.23
692.168	7.23
692.198	31.23
692.227	10.23
692.256	-0.77
692.285	4.23
692.315	17.23
692.344	13.23
692.373	6.23
692.402	0.23
692.432	-4.77
692.461	3.23
692.49	11.23
692.519	18.23
692.548	16.23
692.578	21.23
692.607	5.23
692.636	4.23
692.665	14.23
692.694	6.23
692.724	6.23
692.753	8.23
692.782	2.23
692.811	-16.77
692.84	4.23
692.87	1.23
692.899	12.23
692.928	9.23
692.957	6.23
692.986	15.23
693.016	8.23
693.045	3.23
693.074	13.23
693.103	2.23
693.132	0.23
693.161	9.23
693.191	-10.77
693.22	-17.77
693.249	10.23
693.278	12.23
693.307	15.23
693.336	-8.77
693.365	-14.77
693.395	2.23
693.424	-4.77
693.453	13.23
693.482	-3.77
693.511	-4.77
693.54	12.23
693.569	10.23
693.598	10.23
693.628	20.23
693.657	16.23
693.686	25.23
693.715	13.23
693.744	7.23
693.773	26.23
693.802	6.23
693.831	-4.77
693.86	15.23
693.889	5.23
693.919	12.23
693.948	11.23
693.977	11.23
694.006	9.23
694.035	3.23
694.064	-1.77
694.093	-6.77
694.122	-1.77
694.151	-4.77
694.18	4.23
694.209	29.23
694.238	25.23
694.267	25.23
694.296	14.23
694.325	16.23
694.354	21.23
694.383	11.23
694.412	-4.77
694.441	4.23
694.471	-0.77
694.5	-9.77
694.529	17.23
694.558	23.23
694.587	27.23
694.616	8.23
694.645	1.23
694.674	3.23
694.703	2.23
694.732	11.23
694.761	24.23
694.79	16.23
694.819	6.23
694.848	3.23
694.877	8.23
694.906	16.23
694.935	25.23
694.963	19.23
694.992	0.23
695.021	7.23
695.05	15.23
695.079	-3.77
695.108	11.23
695.137	9.23
695.166	8.23
695.195	3.23
695.224	14.23
695.253	12.23
695.282	-0.77
695.311	-2.77
695.34	2.23
695.369	3.23
695.398	27.23
695.427	28.23
695.456	19.23
695.485	18.23
695.513	11.23
695.542	-1.77
695.571	13.23
695.6	16.23
695.629	5.23
695.658	13.23
695.687	25.23
695.716	0.23
695.745	25.23
695.774	1.23
695.802	-10.77
695.831	7.23
695.86	11.23
695.889	16.23
695.918	6.23
695.947	20.23
695.976	11.23
696.005	0.23
696.033	1.23
696.062	6.23
696.091	6.23
696.12	-0.77
696.149	20.23
696.178	8.23
696.207	14.23
696.235	-5.77
696.264	9.23
696.293	2.23
696.322	10.23
696.351	8.23
696.38	4.23
696.408	-12.77
696.437	-11.77
696.466	-5.77
696.495	20.23
696.524	17.23
696.553	11.23
696.581	3.23
696.61	6.23
696.639	5.23
696.668	5.23
696.697	-8.77
696.725	0.23
696.754	2.23
696.783	-0.77
696.812	11.23
696.84	8.23
696.869	0.23
696.898	-11.77
696.927	9.23
696.956	30.23
696.984	0.23
697.013	7.23
697.042	1.23
697.071	20.23
697.099	31.23
697.128	9.23
697.157	17.23
697.186	4.23
697.214	6.23
697.243	-5.77
697.272	-3.77
697.301	12.23
697.329	12.23
697.358	14.23
697.387	16.23
697.415	18.23
697.444	8.23
697.473	10.23
697.502	-5.77
697.53	16.23
697.559	25.23
697.588	10.23
697.616	-4.77
697.645	11.23
697.674	14.23
697.703	0.23
697.731	13.23
697.76	24.23
697.789	10.23
697.817	5.23
697.846	26.23
697.875	-4.77
697.903	20.23
697.932	-1.77
697.961	8.23
697.989	7.23
698.018	3.23
698.047	8.23
698.075	13.23
698.104	12.23
698.133	17.23
698.161	-0.77
698.19	2.23
698.218	4.23
698.247	13.23
698.276	3.23
698.304	12.23
698.333	2.23
698.362	-1.77
698.39	7.23
698.419	15.23
698.447	-4.77
698.476	-1.77
698.505	17.23
698.533	12.23
698.562	0.23
698.591	2.23
698.619	12.23
698.648	11.23
698.676	8.23
698.705	-4.77
698.733	-6.77
698.762	2.23
698.791	-5.77
698.819	3.23
698.848	7.23
698.876	13.23
698.905	2.23
698.933	17.23
698.962	4.23
698.991	9.23
699.019	7.23
699.048	3.23
699.076	9.23
699.105	-8.77
699.133	-0.77
699.162	9.23
699.19	8.23
699.219	12.23
699.248	-3.77
699.276	10.23
699.305	-4.77
699.333	2.23
699.362	-9.77
699.39	9.23
699.419	7.23
699.447	13.23
699.476	6.23
699.504	2.23
699.533	17.23
699.561	-6.77
699.59	7.23
699.618	17.23
699.647	10.23
699.675	0.23
699.704	8.23
699.732	-0.77
699.761	10.23
699.789	-1.77
699.818	33.23
699.846	9.23
699.874	7.23
699.903	-1.77
699.931	-5.77
699.96	3.23
699.988	-2.77
700.017	12.23
700.045	9.23
700.074	-5.77
700.102	-6.77
700.13	-6.77
700.159	6.23
700.187	6.23
700.216	-13.77
700.244	-4.77
700.273	-3.77
700.301	11.23
700.329	5.23
700.358	20.23
700.386	-3.77
700.415	8.23
700.443	9.23
700.472	4.23
700.5	23.23
700.528	14.23
700.557	16.23
700.585	4.23
700.614	14.23
700.642	28.23
700.67	16.23
700.699	9.23
700.727	-6.77
700.755	17.23
700.784	18.23
700.812	5.23
700.841	1.23
700.869	2.23
700.897	6.23
700.926	13.23
700.954	20.23
700.982	5.23
701.011	4.23
701.039	16.23
701.067	8.23
701.096	14.23
701.124	-5.77
701.152	12.23
701.181	2.23
701.209	1.23
701.237	14.23
701.266	-3.77
701.294	-0.77
701.322	12.23
701.351	11.23
701.379	8.23
701.407	4.23
701.435	15.23
701.464	11.23
701.492	27.23
701.52	-7.77
701.549	1.23
701.577	-5.77
701.605	-11.77
701.634	7.23
701.662	28.23
701.69	-2.77
701.718	-3.77
701.747	13.23
701.775	19.23
701.803	-1.77
701.831	-1.77
701.86	-3.77
701.888	22.23
701.916	4.23
701.944	-1.77
701.973	-4.77
702.001	-3.77
702.029	-7.77
702.057	1.23
702.086	-7.77
702.114	-14.77
702.142	8.23
702.17	4.23
702.199	2.23
702.227	-0.77
702.255	-15.77
702.283	-3.77
702.311	19.23
702.34	5.23
702.368	-5.77
702.396	-3.77
702.424	4.23
702.452	-8.77
702.481	0.23
702.509	6.23
702.537	-1.77
702.565	-6.77
702.593	11.23
702.621	6.23
702.65	-1.77
702.678	8.23
702.706	11.23
702.734	-4.77
702.762	-3.77
702.79	-2.77
702.819	8.23
702.847	9.23
702.875	16.23
702.903	7.23
702.931	4.23
702.959	6.23
702.988	19.23
703.016	-13.77
703.044	2.23
703.072	3.23
703.1	-11.77
703.128	-20.77
703.156	-2.77
703.184	-8.77
703.212	12.23
703.241	6.23
703.269	1.23
703.297	-0.77
703.325	-2.77
703.353	6.23
703.381	-7.77
703.409	4.23
703.437	3.23
703.465	-1.77
703.493	-14.77
703.522	5.23
703.55	7.23
703.578	9.23
703.606	14.23
703.634	9.23
703.662	7.23
703.69	11.23
703.718	13.23
703.746	21.23
703.774	10.23
703.802	10.23
703.83	0.23
703.858	12.23
703.886	-7.77
703.914	2.23
703.942	7.23
703.97	15.23
703.998	-5.77
704.027	16.23
704.055	12.23
704.083	-5.77
704.111	-1.77
704.139	-5.77
704.167	-12.77
704.195	11.23
704.223	-4.77
704.251	1.23
704.279	16.23
704.307	-0.77
704.335	3.23
704.363	-4.77
704.391	-2.77
704.419	1.23
704.447	12.23
704.475	8.23
704.503	-4.77
704.531	5.23
704.558	4.23
704.586	-3.77
704.614	1.23
704.642	-1.77
704.67	11.23
704.698	-1.77
704.726	3.23
704.754	6.23
704.782	-7.77
704.81	-6.77
704.838	3.23
704.866	11.23
704.894	-17.77
704.922	4.23
704.95	12.23
704.978	4.23
705.006	6.23
705.034	12.23
705.061	-8.77
705.089	-2.77
705.117	-6.77
705.145	7.23
705.173	4.23
705.201	10.23
705.229	9.23
705.257	6.23
705.285	5.23
705.313	3.23
705.34	9.23
705.368	-7.77
705.396	8.23
705.424	12.23
705.452	-5.77
705.48	4.23
705.508	-1.77
705.536	-9.77
705.563	-5.77
705.591	10.23
705.619	-14.77
705.647	-7.77
705.675	0.23
705.703	12.23
705.731	-3.77
705.758	15.23
705.786	2.23
705.814	18.23
705.842	3.23
705.87	18.23
705.898	5.23
705.925	3.23
705.953	8.23
705.981	-6.77
706.009	9.23
706.037	-3.77
706.065	-3.77
706.092	1.23
706.12	1.23
706.148	-1.77
706.176	-6.77
706.204	23.23
706.231	6.23
706.259	-6.77
706.287	2.23
706.315	9.23
706.342	5.23
706.37	6.23
706.398	12.23
706.426	9.23
706.454	0.23
706.481	7.23
706.509	3.23
706.537	13.23
706.565	6.23
706.592	17.23
706.62	5.23
706.648	22.23
706.676	-7.77
706.703	-3.77
706.731	-5.77
706.759	-20.77
706.787	-2.77
706.814	-0.77
706.842	-1.77
706.87	-4.77
706.897	-3.77
706.925	6.23
706.953	-1.77
706.981	19.23
707.008	17.23
707.036	7.23
707.064	-5.77
707.091	-8.77
707.119	12.23
707.147	-2.77
707.174	-8.77
707.202	4.23
707.23	-30.77
707.258	10.23
707.285	0.23
707.313	-12.77
707.341	2.23
707.368	5.23
707.396	16.23
707.424	21.23
707.451	8.23
707.479	4.23
707.507	0.23
707.534	-4.77
707.562	3.23
707.59	-8.77
707.617	-0.77
707.645	-8.77
707.672	-3.77
707.7	7.23
707.728	7.23
707.755	4.23
707.783	-3.77
707.811	4.23
707.838	-4.77
707.866	17.23
707.893	-4.77
707.921	3.23
707.949	0.23
707.976	-7.77
708.004	3.23
708.031	-5.77
708.059	-2.77
708.087	8.23
708.114	3.23
708.142	5.23
708.169	-5.77
708.197	-14.77
708.225	2.23
708.252	3.23
708.28	12.23
708.307	-1.77
708.335	9.23
708.362	6.23
708.39	-17.77
708.418	4.23
708.445	0.23
708.473	-6.77
708.5	-17.77
708.528	13.23
708.555	6.23
708.583	-11.77
708.61	-13.77
708.638	14.23
708.665	-9.77
708.693	24.23
708.72	0.23
708.748	-9.77
708.776	3.23
708.803	16.23
708.831	11.23
708.858	14.23
708.886	21.23
708.913	6.23
708.941	6.23
708.968	16.23
708.996	5.23
709.023	22.23
709.051	2.23
709.078	-16.77
709.105	15.23
709.133	6.23
709.16	11.23
709.188	6.23
709.215	-6.77
709.243	7.23
709.27	6.23
709.298	12.23
709.325	0.23
709.353	6.23
709.38	12.23
709.408	2.23
709.435	14.23
709.462	-7.77
709.49	-6.77
709.517	2.23
709.545	-4.77
709.572	13.23
709.6	10.23
709.627	3.23
709.655	1.23
709.682	0.23
709.709	18.23
709.737	0.23
709.764	-7.77
709.792	10.23
709.819	1.23
709.846	6.23
709.874	10.23
709.901	13.23
709.929	24.23
709.956	18.23
709.983	0.23
710.011	4.23
710.038	13.23
710.066	20.23
710.093	19.23
710.12	3.23
710.148	-7.77
710.175	-2.77
710.202	-8.77
710.23	0.23
710.257	-4.77
710.284	14.23
710.312	5.23
710.339	14.23
710.366	-4.77
710.394	6.23
710.421	5.23
710.448	-5.77
710.476	-13.77
710.503	2.23
710.53	6.23
710.558	20.23
710.585	13.23
710.612	-0.77
710.64	-4.77
710.667	11.23
710.694	2.23
710.722	3.23
710.749	6.23
710.776	3.23
710.804	12.23
710.831	6.23
710.858	16.23
710.885	1.23
710.913	1.23
710.94	24.23
710.967	1.23
710.995	9.23
711.022	-2.77
711.049	10.23
711.076	-4.77
711.104	-1.77
711.131	-9.77
711.158	-4.77
711.185	14.23
711.213	-7.77
711.24	-0.77
711.267	12.23
711.294	-0.77
711.322	4.23
711.349	-5.77
711.376	-0.77
711.403	10.23
711.431	-8.77
711.458	-0.77
711.485	-8.77
711.512	5.23
711.54	12.23
711.567	7.23
711.594	-3.77
711.621	8.23
711.648	15.23
711.676	-1.77
711.703	17.23
711.73	-4.77
711.757	8.23
711.784	-0.77
711.812	12.23
711.839	8.23
711.866	4.23
711.893	-14.77
711.92	2.23
711.947	9.23
711.975	17.23
712.002	5.23
712.029	7.23
712.056	2.23
712.083	11.23
712.11	-7.77
712.138	11.23
712.165	2.23
712.192	15.23
712.219	6.23
712.246	1.23
712.273	-2.77
712.3	-6.77
712.328	3.23
712.355	10.23
712.382	-18.77
712.409	2.23
712.436	3.23
712.463	24.23
712.49	9.23
712.517	4.23
712.544	-4.77
712.572	-0.77
712.599	-9.77
712.626	9.23
712.653	-8.77
712.68	0.23
712.707	4.23
712.734	12.23
712.761	0.23
712.788	7.23
712.815	-3.77
712.842	6.23
712.87	3.23
712.897	1.23
712.924	-0.77
712.951	12.23
712.978	3.23
713.005	12.23
713.032	16.23
713.059	-9.77
713.086	-12.77
713.113	-12.77
713.14	-9.77
713.167	12.23
713.194	16.23
713.221	14.23
713.248	-2.77
713.275	-2.77
713.302	-4.77
713.329	6.23
713.356	3.23
713.383	4.23
713.41	-3.77
713.437	-1.77
713.464	3.23
713.491	3.23
713.518	-9.77
713.545	-17.77
713.572	0.23
713.599	14.23
713.626	7.23
713.653	0.23
713.68	25.23
713.707	8.23
713.734	17.23
713.761	7.23
713.788	0.23
713.815	17.23
713.842	-0.77
713.869	5.23
713.896	9.23
713.923	13.23
713.95	4.23
713.977	-10.77
714.004	-0.77
714.031	9.23
714.058	3.23
714.085	1.23
714.112	14.23
714.139	7.23
714.165	4.23
714.192	8.23
714.219	8.23
714.246	7.23
714.273	18.23
714.3	3.23
714.327	-8.77
714.354	11.23
714.381	-1.77
714.408	3.23
714.435	-0.77
714.461	3.23
714.488	-3.77
714.515	-0.77
714.542	4.23
714.569	3.23
714.596	7.23
714.623	13.23
714.65	2.23
714.677	2.23
714.703	-7.77
714.73	-3.77
714.757	10.23
714.784	-12.77
714.811	0.23
714.838	10.23
714.865	10.23
714.891	22.23
714.918	-4.77
714.945	-3.77
714.972	-9.77
714.999	14.23
715.026	4.23
715.052	18.23
715.079	5.23
715.106	-1.77
715.133	-4.77
715.16	2.23
715.187	4.23
715.213	8.23
715.24	3.23
715.267	-7.77
715.294	1.23
715.321	8.23
715.347	-0.77
715.374	3.23
715.401	10.23
715.428	28.23
715.455	12.23
715.481	-5.77
715.508	4.23
715.535	-0.77
715.562	19.23
715.588	12.23
715.615	2.23
715.642	1.23
715.669	-0.77
715.695	-14.77
715.722	-13.77
715.749	13.23
715.776	25.23
715.802	14.23
715.829	-4.77
715.856	-0.77
715.883	8.23
715.909	-0.77
715.936	-12.77
715.963	7.23
715.99	14.23
716.016	6.23
716.043	8.23
716.07	-6.77
716.096	-12.77
716.123	7.23
716.15	-0.77
716.177	8.23
716.203	10.23
716.23	20.23
716.257	14.23
716.283	1.23
716.31	-0.77
716.337	-3.77
716.363	0.23
716.39	11.23
716.417	8.23
716.443	5.23
716.47	13.23
716.497	10.23
716.523	13.23
716.55	17.23
716.577	14.23
716.603	0.23
716.63	10.23
716.657	21.23
716.683	-5.77
716.71	-8.77
716.737	3.23
716.763	-6.77
716.79	8.23
716.817	18.23
716.843	4.23
716.87	-1.77
716.897	-0.77
716.923	24.23
716.95	-0.77
716.976	-9.77
717.003	-8.77
717.03	2.23
717.056	14.23
717.083	-0.77
717.109	14.23
717.136	22.23
717.163	9.23
717.189	6.23
717.216	-2.77
717.242	0.23
717.269	6.23
717.296	3.23
717.322	10.23
717.349	2.23
717.375	16.23
717.402	5.23
717.428	11.23
717.455	16.23
717.481	4.23
717.508	10.23
717.535	19.23
717.561	11.23
717.588	10.23
717.614	0.23
717.641	-1.77
717.667	10.23
717.694	7.23
717.72	3.23
717.747	15.23
717.773	3.23
717.8	-1.77
717.826	-3.77
717.853	0.23
717.88	10.23
717.906	7.23
717.933	15.23
717.959	24.23
717.986	9.23
718.012	-0.77
718.039	18.23
718.065	8.23
718.092	6.23
718.118	0.23
718.144	-1.77
718.171	17.23
718.197	25.23
718.224	2.23
718.25	14.23
718.277	19.23
718.303	17.23
718.33	6.23
718.356	-7.77
718.383	-4.77
718.409	4.23
718.436	-3.77
718.462	-8.77
718.489	3.23
718.515	22.23
718.541	10.23
718.568	20.23
718.594	12.23
718.621	0.23
718.647	4.23
718.674	11.23
718.7	12.23
718.726	8.23
718.753	7.23
718.779	4.23
718.806	10.23
718.832	3.23
718.858	0.23
718.885	6.23
718.911	-1.77
718.938	16.23
718.964	-0.77
718.99	15.23
719.017	-2.77
719.043	-12.77
719.07	9.23
719.096	-4.77
719.122	12.23
719.149	9.23
719.175	17.23
719.201	3.23
719.228	-2.77
719.254	-1.77
719.281	-2.77
719.307	4.23
719.333	5.23
719.36	9.23
719.386	15.23
719.412	2.23
719.439	-8.77
719.465	8.23
719.491	-0.77
719.518	-0.77
719.544	11.23
719.57	6.23
719.597	11.23
719.623	-4.77
719.649	6.23
719.675	-7.77
719.702	7.23
719.728	7.23
719.754	4.23
719.781	5.23
719.807	8.23
719.833	2.23
719.86	-12.77
719.886	-9.77
719.912	7.23
719.938	-4.77
719.965	7.23
719.991	7.23
720.017	5.23
720.044	3.23
720.07	7.23
720.096	2.23
720.122	8.23
720.149	18.23
720.175	9.23
720.201	25.23
720.227	8.23
720.254	19.23
720.28	10.23
720.306	-7.77
720.332	-0.77
720.359	11.23
720.385	16.23
720.411	-4.77
720.437	13.23
720.463	16.23
720.49	17.23
720.516	-5.77
720.542	-18.77
720.568	3.23
720.595	14.23
720.621	3.23
720.647	6.23
720.673	14.23
720.699	1.23
720.725	4.23
720.752	14.23
720.778	11.23
720.804	8.23
720.83	9.23
720.856	-12.77
720.883	-7.77
720.909	4.23
720.935	10.23
720.961	18.23
720.987	6.23
721.013	15.23
721.04	-4.77
721.066	0.23
721.092	-6.77
721.118	0.23
721.144	7.23
721.17	1.23
721.196	3.23
721.223	-6.77
721.249	0.23
721.275	15.23
721.301	-1.77
721.327	14.23
721.353	8.23
721.379	6.23
721.405	33.23
721.432	26.23
721.458	3.23
721.484	3.23
721.51	-6.77
721.536	4.23
721.562	4.23
721.588	-0.77
721.614	9.23
721.64	-4.77
721.666	2.23
721.693	-0.77
721.719	18.23
721.745	-3.77
721.771	0.23
721.797	8.23
721.823	6.23
721.849	4.23
721.875	12.23
721.901	6.23
721.927	6.23
721.953	20.23
721.979	19.23
722.005	12.23
722.031	4.23
722.057	6.23
722.083	-11.77
722.109	-2.77
722.135	9.23
722.161	18.23
722.187	-0.77
722.214	-13.77
722.24	10.23
722.266	-1.77
722.292	5.23
722.318	10.23
722.344	4.23
722.37	4.23
722.396	1.23
722.422	3.23
722.448	5.23
722.474	-13.77
722.5	7.23
722.526	6.23
722.552	0.23
722.578	3.23
722.603	13.23
722.629	2.23
722.655	2.23
722.681	-9.77
722.707	2.23
722.733	0.23
722.759	0.23
722.785	1.23
722.811	2.23
722.837	2.23
722.863	12.23
722.889	14.23
722.915	-3.77
722.941	-14.77
722.967	2.23
722.993	21.23
723.019	7.23
723.045	6.23
723.071	0.23
723.097	2.23
723.122	-9.77
723.148	3.23
723.174	8.23
723.2	11.23
723.226	6.23
723.252	2.23
723.278	2.23
723.304	-7.77
723.33	1.23
723.356	-5.77
723.381	-2.77
723.407	-17.77
723.433	7.23
723.459	-5.77
723.485	-2.77
723.511	6.23
723.537	1.23
723.563	-7.77
723.588	13.23
723.614	18.23
723.64	2.23
723.666	12.23
723.692	11.23
723.718	4.23
723.744	-2.77
723.769	8.23
723.795	17.23
723.821	12.23
723.847	-9.77
723.873	7.23
723.899	12.23
723.924	15.23
723.95	15.23
723.976	5.23
724.002	6.23
724.028	2.23
724.053	6.23
724.079	12.23
724.105	17.23
724.131	-11.77
724.157	8.23
724.182	11.23
724.208	20.23
724.234	9.23
724.26	7.23
724.286	11.23
724.311	-0.77
724.337	-6.77
724.363	3.23
724.389	5.23
724.415	7.23
724.44	31.23
724.466	-6.77
724.492	-5.77
724.518	12.23
724.543	-4.77
724.569	11.23
724.595	22.23
724.621	-3.77
724.646	3.23
724.672	-9.77
724.698	2.23
724.723	6.23
724.749	-0.77
724.775	3.23
724.801	13.23
724.826	1.23
724.852	4.23
724.878	1.23
724.904	-6.77
724.929	0.23
724.955	-4.77
724.981	6.23
725.006	6.23
725.032	11.23
725.058	8.23
725.083	-8.77
725.109	2.23
725.135	6.23
725.161	3.23
725.186	17.23
725.212	15.23
725.238	2.23
725.263	1.23
725.289	3.23
725.315	-14.77
725.34	-3.77
725.366	9.23
725.392	-4.77
725.417	11.23
725.443	10.23
725.468	17.23
725.494	8.23
725.52	10.23
725.545	0.23
725.571	-0.77
725.597	1.23
725.622	9.23
725.648	-1.77
725.674	13.23
725.699	21.23
725.725	18.23
725.75	24.23
725.776	-2.77
725.802	17.23
725.827	16.23
725.853	7.23
725.878	2.23
725.904	2.23
725.93	0.23
725.955	-7.77
725.981	4.23
726.006	10.23
726.032	18.23
726.057	-7.77
726.083	-1.77
726.109	-2.77
726.134	3.23
726.16	10.23
726.185	-3.77
726.211	11.23
726.236	15.23
726.262	11.23
726.288	7.23
726.313	32.23
726.339	11.23
726.364	15.23
726.39	2.23
726.415	3.23
726.441	0.23
726.466	-1.77
726.492	0.23
726.517	30.23
726.543	9.23
726.568	9.23
726.594	5.23
726.619	11.23
726.645	11.23
726.67	8.23
726.696	10.23
726.721	10.23
726.747	2.23
726.772	10.23
726.798	-2.77
726.823	3.23
726.849	7.23
726.874	10.23
726.9	18.23
726.925	25.23
726.951	10.23
726.976	6.23
727.002	-2.77
727.027	5.23
727.053	23.23
727.078	7.23
727.104	0.23
727.129	-12.77
727.155	2.23
727.18	12.23
727.205	2.23
727.231	6.23
727.256	-2.77
727.282	-0.77
727.307	6.23
727.333	7.23
727.358	-5.77
727.383	-1.77
727.409	7.23
727.434	8.23
727.46	-4.77
727.485	-0.77
727.511	-0.77
727.536	-25.77
727.561	-7.77
727.587	-3.77
727.612	3.23
727.637	-7.77
727.663	-8.77
727.688	11.23
727.714	4.23
727.739	17.23
727.764	-0.77
727.79	9.23
727.815	10.23
727.841	4.23
727.866	14.23
727.891	1.23
727.917	-7.77
727.942	-3.77
727.967	10.23
727.993	-9.77
728.018	-5.77
728.043	-8.77
728.069	12.23
728.094	13.23
728.119	10.23
728.145	18.23
728.17	17.23
728.195	-6.77
728.221	18.23
728.246	2.23
728.271	-9.77
728.297	3.23
728.322	1.23
728.347	8.23
728.373	12.23
728.398	7.23
728.423	8.23
728.448	25.23
728.474	20.23
728.499	4.23
728.524	6.23
728.55	1.23
728.575	4.23
728.6	0.23
728.625	-17.77
728.651	3.23
728.676	-6.77
728.701	-1.77
728.727	0.23
728.752	-9.77
728.777	-9.77
728.802	1.23
728.828	11.23
728.853	6.23
728.878	1.23
728.903	5.23
728.929	-13.77
728.954	15.23
728.979	23.23
729.004	3.23
729.03	4.23
729.055	5.23
729.08	-5.77
729.105	-4.77
729.13	20.23
729.156	2.23
729.181	-1.77
729.206	6.23
729.231	-1.77
729.256	4.23
729.282	4.23
729.307	-3.77
729.332	3.23
729.357	-5.77
729.382	-0.77
729.408	9.23
729.433	21.23
729.458	-4.77
729.483	-2.77
729.508	7.23
729.533	11.23
729.559	-4.77
729.584	-4.77
729.609	12.23
729.634	22.23
729.659	-3.77
729.684	2.23
729.71	27.23
729.735	14.23
729.76	8.23
729.785	5.23
729.81	2.23
729.835	-0.77
729.86	3.23
729.886	7.23
729.911	-4.77
729.936	-3.77
729.961	-4.77
729.986	3.23
730.011	2.23
730.036	7.23
730.061	7.23
730.086	8.23
730.112	4.23
730.137	19.23
730.162	23.23
730.187	-8.77
730.212	-0.77
730.237	3.23
730.262	-11.77
730.287	-4.77
730.312	21.23
730.337	2.23
730.362	2.23
730.387	8.23
730.413	-12.77
730.438	-15.77
730.463	-5.77
730.488	8.23
730.513	11.23
730.538	1.23
730.563	7.23
730.588	6.23
730.613	-1.77
730.638	0.23
730.663	-4.77
730.688	16.23
730.713	7.23
730.738	6.23
730.763	0.23
730.788	-9.77
730.813	-8.77
730.838	6.23
730.863	6.23
730.888	-4.77
730.913	-8.77
730.938	-10.77
730.963	-1.77
730.988	-3.77
731.013	14.23
731.038	2.23
731.063	6.23
731.088	10.23
731.113	-10.77
731.138	-8.77
731.163	-6.77
731.188	-5.77
731.213	-2.77
731.238	10.23
731.263	7.23
731.288	10.23
731.313	9.23
731.338	-0.77
731.363	-6.77
731.388	-11.77
731.413	5.23
731.438	19.23
731.463	15.23
731.487	11.23
731.512	3.23
731.537	-7.77
731.562	0.23
731.587	7.23
731.612	-3.77
731.637	-7.77
731.662	2.23
731.687	-6.77
731.712	-23.77
731.737	1.23
731.762	4.23
731.786	12.23
731.811	1.23
731.836	16.23
731.861	-4.77
731.886	6.23
731.911	20.23
731.936	9.23
731.961	-0.77
731.986	1.23
732.01	10.23
732.035	-0.77
732.06	18.23
732.085	12.23
732.11	16.23
732.135	4.23
732.16	2.23
732.184	0.23
732.209	-3.77
732.234	10.23
732.259	7.23
732.284	18.23
732.309	-9.77
732.334	1.23
732.358	-3.77
732.383	-13.77
732.408	-14.77
732.433	-4.77
732.458	6.23
732.482	14.23
732.507	11.23
732.532	8.23
732.557	17.23
732.582	16.23
732.607	6.23
732.631	-12.77
732.656	5.23
732.681	0.23
732.706	-3.77
732.73	12.23
732.755	3.23
732.78	-8.77
732.805	18.23
732.83	10.23
732.854	-2.77
732.879	14.23
732.904	19.23
732.929	7.23
732.953	14.23
732.978	1.23
733.003	-12.77
733.028	4.23
733.052	19.23
733.077	10.23
733.102	16.23
733.127	-7.77
733.151	4.23
733.176	1.23
733.201	6.23
733.226	-2.77
733.25	8.23
733.275	11.23
733.3	9.23
733.324	18.23
733.349	8.23
733.374	21.23
733.399	4.23
733.423	0.23
733.448	13.23
733.473	-0.77
733.497	-4.77
733.522	-3.77
733.547	16.23
733.571	16.23
733.596	20.23
733.621	11.23
733.646	-0.77
733.67	5.23
733.695	-0.77
733.72	20.23
733.744	11.23
733.769	11.23
733.794	6.23
733.818	7.23
733.843	1.23
733.867	-5.77
733.892	7.23
733.917	7.23
733.941	12.23
733.966	-11.77
733.991	-0.77
734.015	17.23
734.04	18.23
734.065	17.23
734.089	11.23
734.114	-13.77
734.138	6.23
734.163	7.23
734.188	21.23
734.212	14.23
734.237	23.23
734.261	4.23
734.286	-6.77
734.311	-1.77
734.335	-1.77
734.36	-4.77
734.384	17.23
734.409	7.23
734.434	2.23
734.458	12.23
734.483	8.23
734.507	-10.77
734.532	-2.77
734.556	3.23
734.581	-1.77
734.606	8.23
734.63	-9.77
734.655	1.23
734.679	20.23
734.704	4.23
734.728	6.23
734.753	8.23
734.777	-0.77
734.802	1.23
734.826	14.23
734.851	17.23
734.876	-2.77
734.9	1.23
734.925	24.23
734.949	14.23
734.974	0.23
734.998	25.23
735.023	-3.77
735.047	7.23
735.072	17.23
735.096	3.23
735.121	12.23
735.145	6.23
735.17	13.23
735.194	9.23
735.219	-5.77
735.243	7.23
735.268	13.23
735.292	7.23
735.317	-9.77
735.341	1.23
735.365	-12.77
735.39	25.23
735.414	31.23
735.439	0.23
735.463	4.23
735.488	4.23
735.512	11.23
735.537	15.23
735.561	-3.77
735.586	9.23
735.61	11.23
735.634	-1.77
735.659	11.23
735.683	21.23
735.708	12.23
735.732	-3.77
735.757	-8.77
735.781	-2.77
735.805	2.23
735.83	3.23
735.854	-0.77
735.879	-8.77
735.903	15.23
735.927	19.23
735.952	-3.77
735.976	-5.77
736.001	-5.77
736.025	-7.77
736.049	12.23
736.074	10.23
736.098	6.23
736.123	9.23
736.147	-0.77
736.171	19.23
736.196	15.23
736.22	-14.77
736.244	4.23
736.269	-4.77
736.293	2.23
736.317	8.23
736.342	16.23
736.366	9.23
736.39	7.23
736.415	8.23
736.439	5.23
736.463	11.23
736.488	-0.77
736.512	9.23
736.536	-5.77
736.561	31.23
736.585	6.23
736.609	16.23
736.634	3.23
736.658	2.23
736.682	-4.77
736.707	-0.77
736.731	2.23
736.755	3.23
736.78	10.23
736.804	2.23
736.828	6.23
736.852	8.23
736.877	-0.77
736.901	18.23
736.925	8.23
736.949	11.23
736.974	7.23
736.998	-13.77
737.022	3.23
737.047	1.23
737.071	3.23
737.095	18.23
737.119	25.23
737.144	18.23
737.168	-4.77
737.192	2.23
737.216	0.23
737.241	-10.77
737.265	14.23
737.289	11.23
737.313	3.23
737.337	11.23
737.362	16.23
737.386	8.23
737.41	-2.77
737.434	14.23
737.459	11.23
737.483	7.23
737.507	11.23
737.531	8.23
737.555	17.23
737.58	19.23
737.604	6.23
737.628	-0.77
737.652	8.23
737.676	5.23
737.701	-8.77
737.725	2.23
737.749	10.23
737.773	-3.77
737.797	8.23
737.821	30.23
737.846	1.23
737.87	36.23
737.894	4.23
737.918	6.23
737.942	8.23
737.966	25.23
737.99	11.23
738.015	10.23
738.039	5.23
738.063	14.23
738.087	15.23
738.111	7.23
738.135	8.23
738.159	6.23
738.184	8.23
738.208	1.23
738.232	3.23
738.256	13.23
738.28	16.23
738.304	18.23
738.328	1.23
738.352	3.23
738.376	1.23
738.4	5.23
738.425	3.23
738.449	2.23
738.473	15.23
738.497	7.23
738.521	1.23
738.545	3.23
738.569	6.23
738.593	20.23
738.617	7.23
738.641	4.23
738.665	8.23
738.689	7.23
738.713	2.23
738.737	16.23
738.762	20.23
738.786	11.23
738.81	-2.77
738.834	9.23
738.858	-5.77
738.882	6.23
738.906	2.23
738.93	12.23
738.954	10.23
738.978	8.23
739.002	8.23
739.026	10.23
739.05	10.23
739.074	-3.77
739.098	30.23
739.122	18.23
739.146	11.23
739.17	19.23
739.194	24.23
739.218	0.23
739.242	0.23
739.266	-6.77
739.29	-0.77
739.314	5.23
739.338	10.23
739.362	6.23
739.386	13.23
739.41	-5.77
739.434	-6.77
739.458	20.23
739.482	23.23
739.506	10.23
739.53	-1.77
739.554	15.23
739.577	15.23
739.601	2.23
739.625	-5.77
739.649	4.23
739.673	4.23
739.697	0.23
739.721	8.23
739.745	-3.77
739.769	-3.77
739.793	8.23
739.817	23.23
739.841	0.23
739.865	11.23
739.889	11.23
739.912	13.23
739.936	-20.77
739.96	11.23
739.984	28.23
740.008	11.23
740.032	-1.77
740.056	4.23
740.08	15.23
740.104	6.23
740.127	0.23
740.151	19.23
740.175	16.23
740.199	15.23
740.223	54.23
740.247	7.23
740.271	3.23
740.295	-13.77
740.318	-1.77
740.342	10.23
740.366	3.23
740.39	7.23
740.414	-5.77
740.438	-2.77
740.461	7.23
740.485	0.23
740.509	0.23
740.533	9.23
740.557	-1.77
740.581	6.23
740.604	-4.77
740.628	0.23
740.652	-0.77
740.676	3.23
740.7	0.23
740.723	9.23
740.747	-8.77
740.771	15.23
740.795	-0.77
740.819	21.23
740.842	3.23
740.866	11.23
740.89	3.23
740.914	2.23
740.938	-5.77
740.961	14.23
740.985	1.23
741.009	-3.77
741.033	2.23
741.056	4.23
741.08	12.23
741.104	3.23
741.128	17.23
741.151	19.23
741.175	7.23
741.199	19.23
741.223	19.23
741.246	-0.77
741.27	-3.77
741.294	11.23
741.318	1.23
741.341	-4.77
741.365	2.23
741.389	17.23
741.413	6.23
741.436	27.23
741.46	19.23
741.484	15.23
741.507	11.23
741.531	34.23
741.555	11.23
741.579	15.23
741.602	-4.77
741.626	4.23
741.65	-2.77
741.673	14.23
741.697	-8.77
741.721	8.23
741.744	-5.77
741.768	-0.77
741.792	-5.77
741.815	-1.77
741.839	22.23
741.863	12.23
741.886	16.23
741.91	19.23
741.934	12.23
741.957	-5.77
741.981	12.23
742.005	8.23
742.028	2.23
742.052	-0.77
742.075	2.23
742.099	8.23
742.123	6.23
742.146	12.23
742.17	5.23
742.194	10.23
742.217	-5.77
742.241	-11.77
742.264	7.23
742.288	34.23
742.312	6.23
742.335	-0.77
742.359	4.23
742.382	17.23
742.406	28.23
742.43	-1.77
742.453	-5.77
742.477	-5.77
742.5	-1.77
742.524	6.23
742.548	6.23
742.571	7.23
742.595	12.23
742.618	-5.77
742.642	3.23
742.665	23.23
742.689	1.23
742.712	7.23
742.736	11.23
742.76	1.23
742.783	17.23
742.807	13.23
742.83	-0.77
742.854	3.23
742.877	-0.77
742.901	-3.77
742.924	-10.77
742.948	1.23
742.971	-6.77
742.995	7.23
743.018	-8.77
743.042	-8.77
743.065	-15.77
743.089	-9.77
743.112	-6.77
743.136	-6.77
743.159	1.23
743.183	7.23
743.206	4.23
743.23	-3.77
743.253	9.23
743.277	-0.77
743.3	4.23
743.324	18.23
743.347	0.23
743.371	20.23
743.394	20.23
743.418	20.23
743.441	26.23
743.465	6.23
743.488	-5.77
743.512	-0.77
743.535	4.23
743.558	-17.77
743.582	8.23
743.605	11.23
743.629	10.23
743.652	8.23
743.676	13.23
743.699	6.23
743.723	10.23
743.746	2.23
743.769	-7.77
743.793	15.23
743.816	-10.77
743.84	4.23
743.863	7.23
743.886	0.23
743.91	13.23
743.933	1.23
743.957	10.23
743.98	2.23
744.003	0.23
744.027	14.23
744.05	1.23
744.074	1.23
744.097	-14.77
744.12	3.23
744.144	-4.77
744.167	0.23
744.19	6.23
744.214	14.23
744.237	-11.77
744.26	19.23
744.284	-6.77
744.307	-16.77
744.331	-5.77
744.354	3.23
744.377	6.23
744.401	4.23
744.424	3.23
744.447	-2.77
744.471	-8.77
