Data from HighRes_H2D2_15_04_11_07_2024_HR4C61891__92__15-05-43-642.txt Node

Date: Thu Nov 07 15:05:43 EST 2024
User: crc00042
Spectrometer: HR4C6189
Trigger mode: 4
Integration Time (sec): 1.000000E-1
Scans to average: 1
Electric dark correction enabled: true
Nonlinearity correction enabled: false
Boxcar width: 0
XAxis mode: Wavelengths
Number of Pixels in Spectrum: 3648
>>>>>Begin Spectral Data<<<<<
639.567	-107.15
639.602	-107.15
639.636	-107.15
639.67	-41.15
639.704	-4.15
639.738	-0.15
639.773	2.85
639.807	-17.15
639.841	-0.15
639.875	9.85
639.909	-3.15
639.943	-9.15
639.978	-20.15
640.012	9.85
640.046	19.85
640.08	3.85
640.114	5.85
640.148	-2.15
640.182	6.85
640.217	3.85
640.251	-5.15
640.285	10.85
640.319	-13.15
640.353	-2.15
640.387	18.85
640.421	7.85
640.455	6.85
640.49	-14.15
640.524	1.85
640.558	7.85
640.592	-17.15
640.626	1.85
640.66	11.85
640.694	-4.15
640.728	9.85
640.762	20.85
640.796	26.85
640.83	14.85
640.865	0.85
640.899	-5.15
640.933	9.85
640.967	4.85
641.001	-5.15
641.035	4.85
641.069	-12.15
641.103	-6.15
641.137	-0.15
641.171	-8.15
641.205	15.85
641.239	3.85
641.273	11.85
641.307	11.85
641.341	-5.15
641.375	-4.15
641.409	-12.15
641.443	-9.15
641.477	9.85
641.511	10.85
641.545	0.85
641.579	-5.15
641.614	-4.15
641.648	9.85
641.682	-6.15
641.716	0.85
641.75	20.85
641.784	-14.15
641.818	4.85
641.852	-4.15
641.886	-2.15
641.919	16.85
641.953	-0.15
641.987	-3.15
642.021	7.85
642.055	3.85
642.089	-4.15
642.123	-9.15
642.157	-0.15
642.191	-18.15
642.225	5.85
642.259	2.85
642.293	8.85
642.327	2.85
642.361	-13.15
642.395	4.85
642.429	15.85
642.463	12.85
642.497	16.85
642.531	15.85
642.565	-2.15
642.599	4.85
642.633	9.85
642.666	21.85
642.7	6.85
642.734	11.85
642.768	-0.15
642.802	12.85
642.836	2.85
642.87	2.85
642.904	-0.15
642.938	8.85
642.972	-3.15
643.005	5.85
643.039	14.85
643.073	-10.15
643.107	5.85
643.141	13.85
643.175	8.85
643.209	6.85
643.243	-0.15
643.276	1.85
643.31	-0.15
643.344	-4.15
643.378	-5.15
643.412	16.85
643.446	9.85
643.48	-5.15
643.513	10.85
643.547	-0.15
643.581	-11.15
643.615	9.85
643.649	-2.15
643.683	8.85
643.716	1.85
643.75	21.85
643.784	-21.15
643.818	11.85
643.852	15.85
643.886	15.85
643.919	0.85
643.953	-0.15
643.987	-3.15
644.021	4.85
644.055	-2.15
644.088	-4.15
644.122	-1.15
644.156	-5.15
644.19	-2.15
644.224	-7.15
644.257	0.85
644.291	4.85
644.325	-12.15
644.359	-8.15
644.392	8.85
644.426	10.85
644.46	-1.15
644.494	12.85
644.527	-2.15
644.561	14.85
644.595	-6.15
644.629	10.85
644.662	4.85
644.696	12.85
644.73	23.85
644.764	13.85
644.797	-2.15
644.831	-3.15
644.865	5.85
644.899	8.85
644.932	17.85
644.966	2.85
645	13.85
645.033	5.85
645.067	-2.15
645.101	3.85
645.135	12.85
645.168	9.85
645.202	4.85
645.236	-4.15
645.269	13.85
645.303	7.85
645.337	-5.15
645.37	2.85
645.404	0.85
645.438	-1.15
645.471	6.85
645.505	8.85
645.539	-9.15
645.572	-18.15
645.606	-15.15
645.64	-2.15
645.673	-1.15
645.707	17.85
645.741	11.85
645.774	-9.15
645.808	4.85
645.842	-16.15
645.875	4.85
645.909	-6.15
645.943	-7.15
645.976	12.85
646.01	12.85
646.043	20.85
646.077	14.85
646.111	11.85
646.144	11.85
646.178	25.85
646.212	-24.15
646.245	-4.15
646.279	7.85
646.312	0.85
646.346	20.85
646.38	14.85
646.413	27.85
646.447	15.85
646.48	8.85
646.514	14.85
646.547	25.85
646.581	8.85
646.615	7.85
646.648	-6.15
646.682	7.85
646.715	5.85
646.749	15.85
646.782	8.85
646.816	-11.15
646.85	-0.15
646.883	-2.15
646.917	0.85
646.95	1.85
646.984	2.85
647.017	-16.15
647.051	7.85
647.084	-1.15
647.118	-13.15
647.151	7.85
647.185	8.85
647.218	-14.15
647.252	8.85
647.285	-20.15
647.319	-2.15
647.353	10.85
647.386	8.85
647.42	9.85
647.453	-5.15
647.487	-3.15
647.52	10.85
647.553	13.85
647.587	12.85
647.62	3.85
647.654	9.85
647.687	3.85
647.721	12.85
647.754	19.85
647.788	-7.15
647.821	4.85
647.855	1.85
647.888	21.85
647.922	27.85
647.955	16.85
647.989	0.85
648.022	0.85
648.055	19.85
648.089	8.85
648.122	16.85
648.156	7.85
648.189	-4.15
648.223	15.85
648.256	9.85
648.29	12.85
648.323	2.85
648.356	9.85
648.39	7.85
648.423	0.85
648.457	-4.15
648.49	16.85
648.523	10.85
648.557	-1.15
648.59	-5.15
648.624	9.85
648.657	-12.15
648.69	19.85
648.724	15.85
648.757	10.85
648.791	11.85
648.824	6.85
648.857	29.85
648.891	7.85
648.924	4.85
648.957	17.85
648.991	-5.15
649.024	12.85
649.057	5.85
649.091	-0.15
649.124	9.85
649.158	7.85
649.191	19.85
649.224	-14.15
649.258	3.85
649.291	11.85
649.324	14.85
649.358	5.85
649.391	16.85
649.424	8.85
649.458	18.85
649.491	15.85
649.524	0.85
649.557	7.85
649.591	0.85
649.624	16.85
649.657	11.85
649.691	7.85
649.724	-10.15
649.757	11.85
649.791	2.85
649.824	21.85
649.857	24.85
649.89	12.85
649.924	-15.15
649.957	-13.15
649.99	-14.15
650.023	-4.15
650.057	1.85
650.09	4.85
650.123	9.85
650.157	17.85
650.19	8.85
650.223	6.85
650.256	-14.15
650.29	3.85
650.323	7.85
650.356	21.85
650.389	-12.15
650.423	-10.15
650.456	11.85
650.489	4.85
650.522	7.85
650.555	21.85
650.589	10.85
650.622	11.85
650.655	3.85
650.688	-6.15
650.721	-7.15
650.755	1.85
650.788	19.85
650.821	12.85
650.854	9.85
650.887	16.85
650.921	-6.15
650.954	-7.15
650.987	-2.15
651.02	-3.15
651.053	-3.15
651.087	-1.15
651.12	7.85
651.153	13.85
651.186	11.85
651.219	8.85
651.252	12.85
651.286	5.85
651.319	-2.15
651.352	16.85
651.385	12.85
651.418	7.85
651.451	14.85
651.484	-3.15
651.518	9.85
651.551	22.85
651.584	-28.15
651.617	8.85
651.65	15.85
651.683	16.85
651.716	16.85
651.749	-12.15
651.783	4.85
651.816	4.85
651.849	5.85
651.882	7.85
651.915	-5.15
651.948	-4.15
651.981	-4.15
652.014	1.85
652.047	-5.15
652.08	-3.15
652.114	6.85
652.147	-7.15
652.18	24.85
652.213	35.85
652.246	10.85
652.279	-6.15
652.312	7.85
652.345	8.85
652.378	3.85
652.411	20.85
652.444	10.85
652.477	8.85
652.51	-12.15
652.543	5.85
652.576	1.85
652.609	2.85
652.642	7.85
652.675	10.85
652.709	14.85
652.742	7.85
652.775	11.85
652.808	-2.15
652.841	-0.15
652.874	-8.15
652.907	3.85
652.94	10.85
652.973	-21.15
653.006	-4.15
653.039	3.85
653.072	18.85
653.105	8.85
653.138	-9.15
653.171	-4.15
653.204	3.85
653.237	12.85
653.27	1.85
653.303	6.85
653.336	3.85
653.368	2.85
653.401	-1.15
653.434	1.85
653.467	14.85
653.5	-8.15
653.533	-2.15
653.566	8.85
653.599	8.85
653.632	10.85
653.665	10.85
653.698	-12.15
653.731	-10.15
653.764	4.85
653.797	-5.15
653.83	-2.15
653.863	-1.15
653.896	-8.15
653.929	1.85
653.961	13.85
653.994	10.85
654.027	-6.15
654.06	1.85
654.093	-0.15
654.126	-1.15
654.159	-0.15
654.192	1.85
654.225	-14.15
654.258	-18.15
654.29	12.85
654.323	4.85
654.356	4.85
654.389	8.85
654.422	-2.15
654.455	8.85
654.488	8.85
654.521	-17.15
654.553	2.85
654.586	15.85
654.619	13.85
654.652	9.85
654.685	10.85
654.718	8.85
654.751	0.85
654.783	0.85
654.816	22.85
654.849	18.85
654.882	-8.15
654.915	-16.15
654.948	16.85
654.98	15.85
655.013	3.85
655.046	7.85
655.079	17.85
655.112	4.85
655.144	-13.15
655.177	9.85
655.21	20.85
655.243	26.85
655.276	15.85
655.308	5.85
655.341	-12.15
655.374	25.85
655.407	0.85
655.44	-1.15
655.472	31.85
655.505	3.85
655.538	8.85
655.571	21.85
655.603	2.85
655.636	-7.15
655.669	14.85
655.702	-0.15
655.734	3.85
655.767	12.85
655.8	1.85
655.833	7.85
655.865	25.85
655.898	15.85
655.931	23.85
655.964	16.85
655.996	32.85
656.029	33.85
656.062	32.85
656.095	42.85
656.127	74.85
656.16	198.85
656.193	615.85
656.225	966.85
656.258	541.85
656.291	219.85
656.324	171.85
656.356	374.85
656.389	777.85
656.422	673.85
656.454	251.85
656.487	83.85
656.52	43.85
656.552	19.85
656.585	2.85
656.618	6.85
656.65	13.85
656.683	1.85
656.716	18.85
656.748	10.85
656.781	-6.15
656.814	-11.15
656.846	10.85
656.879	-1.15
656.912	8.85
656.944	3.85
656.977	-8.15
657.01	4.85
657.042	11.85
657.075	13.85
657.108	14.85
657.14	23.85
657.173	23.85
657.205	39.85
657.238	27.85
657.271	4.85
657.303	5.85
657.336	5.85
657.369	-10.15
657.401	-11.15
657.434	11.85
657.466	4.85
657.499	-0.15
657.532	5.85
657.564	9.85
657.597	-7.15
657.629	18.85
657.662	-14.15
657.694	1.85
657.727	-12.15
657.76	-1.15
657.792	-12.15
657.825	6.85
657.857	-0.15
657.89	-3.15
657.922	-9.15
657.955	-11.15
657.987	1.85
658.02	11.85
658.053	16.85
658.085	-3.15
658.118	-2.15
658.15	12.85
658.183	12.85
658.215	-3.15
658.248	-5.15
658.28	2.85
658.313	20.85
658.345	10.85
658.378	10.85
658.41	0.85
658.443	-5.15
658.475	16.85
658.508	-7.15
658.54	-5.15
658.573	-5.15
658.605	-0.15
658.638	-5.15
658.67	-7.15
658.703	1.85
658.735	-4.15
658.768	11.85
658.8	-12.15
658.833	10.85
658.865	5.85
658.898	14.85
658.93	9.85
658.963	0.85
658.995	-19.15
659.028	-1.15
659.06	-15.15
659.092	-3.15
659.125	-0.15
659.157	9.85
659.19	-17.15
659.222	-0.15
659.255	5.85
659.287	18.85
659.32	-13.15
659.352	24.85
659.384	11.85
659.417	-1.15
659.449	4.85
659.482	9.85
659.514	-14.15
659.546	-4.15
659.579	-13.15
659.611	5.85
659.644	-13.15
659.676	-11.15
659.708	-6.15
659.741	-4.15
659.773	15.85
659.806	4.85
659.838	4.85
659.87	8.85
659.903	-4.15
659.935	16.85
659.967	3.85
660	6.85
660.032	-7.15
660.065	14.85
660.097	14.85
660.129	-3.15
660.162	-10.15
660.194	4.85
660.226	13.85
660.259	16.85
660.291	-3.15
660.323	11.85
660.356	5.85
660.388	11.85
660.42	-5.15
660.453	4.85
660.485	10.85
660.517	23.85
660.55	28.85
660.582	-1.15
660.614	11.85
660.647	-5.15
660.679	-19.15
660.711	2.85
660.743	-13.15
660.776	-6.15
660.808	-0.15
660.84	-15.15
660.873	13.85
660.905	-7.15
660.937	0.85
660.969	-4.15
661.002	9.85
661.034	19.85
661.066	1.85
661.099	-1.15
661.131	6.85
661.163	5.85
661.195	3.85
661.228	13.85
661.26	-5.15
661.292	7.85
661.324	5.85
661.357	14.85
661.389	17.85
661.421	14.85
661.453	-6.15
661.485	-10.15
661.518	3.85
661.55	-17.15
661.582	-17.15
661.614	5.85
661.647	14.85
661.679	11.85
661.711	2.85
661.743	-11.15
661.775	10.85
661.808	14.85
661.84	-3.15
661.872	2.85
661.904	18.85
661.936	-6.15
661.969	-16.15
662.001	-6.15
662.033	-1.15
662.065	-7.15
662.097	18.85
662.129	20.85
662.162	-4.15
662.194	11.85
662.226	2.85
662.258	1.85
662.29	7.85
662.322	-23.15
662.355	-22.15
662.387	24.85
662.419	12.85
662.451	19.85
662.483	15.85
662.515	0.85
662.547	-0.15
662.58	9.85
662.612	1.85
662.644	-9.15
662.676	1.85
662.708	11.85
662.74	-6.15
662.772	-5.15
662.804	13.85
662.836	18.85
662.869	3.85
662.901	15.85
662.933	11.85
662.965	22.85
662.997	8.85
663.029	-8.15
663.061	10.85
663.093	10.85
663.125	5.85
663.157	11.85
663.189	9.85
663.221	8.85
663.254	-5.15
663.286	7.85
663.318	3.85
663.35	2.85
663.382	11.85
663.414	21.85
663.446	22.85
663.478	-3.15
663.51	16.85
663.542	7.85
663.574	-4.15
663.606	7.85
663.638	-0.15
663.67	-4.15
663.702	9.85
663.734	-3.15
663.766	-4.15
663.798	-15.15
663.83	10.85
663.862	15.85
663.894	12.85
663.926	4.85
663.958	21.85
663.99	13.85
664.022	3.85
664.054	6.85
664.086	0.85
664.118	-0.15
664.15	-10.15
664.182	6.85
664.214	0.85
664.246	12.85
664.278	13.85
664.31	14.85
664.342	3.85
664.374	9.85
664.406	-1.15
664.438	-5.15
664.47	5.85
664.502	2.85
664.534	16.85
664.566	-5.15
664.598	20.85
664.63	-3.15
664.662	3.85
664.693	-5.15
664.725	-0.15
664.757	-5.15
664.789	-15.15
664.821	-3.15
664.853	13.85
664.885	2.85
664.917	-6.15
664.949	16.85
664.981	14.85
665.013	11.85
665.045	12.85
665.076	-1.15
665.108	11.85
665.14	4.85
665.172	-11.15
665.204	6.85
665.236	7.85
665.268	13.85
665.3	-4.15
665.331	-3.15
665.363	11.85
665.395	-13.15
665.427	-16.15
665.459	26.85
665.491	1.85
665.523	4.85
665.555	-4.15
665.586	5.85
665.618	-2.15
665.65	-10.15
665.682	4.85
665.714	20.85
665.746	-6.15
665.777	8.85
665.809	0.85
665.841	-2.15
665.873	11.85
665.905	5.85
665.937	18.85
665.968	1.85
666	4.85
666.032	20.85
666.064	-10.15
666.096	5.85
666.127	9.85
666.159	8.85
666.191	24.85
666.223	12.85
666.255	1.85
666.286	11.85
666.318	4.85
666.35	19.85
666.382	7.85
666.413	-13.15
666.445	3.85
666.477	-17.15
666.509	-6.15
666.54	13.85
666.572	10.85
666.604	2.85
666.636	-5.15
666.667	29.85
666.699	23.85
666.731	19.85
666.763	-12.15
666.794	-1.15
666.826	3.85
666.858	-14.15
666.89	13.85
666.921	5.85
666.953	-5.15
666.985	2.85
667.017	18.85
667.048	20.85
667.08	10.85
667.112	-7.15
667.143	-8.15
667.175	14.85
667.207	17.85
667.238	14.85
667.27	20.85
667.302	14.85
667.334	8.85
667.365	17.85
667.397	8.85
667.429	-4.15
667.46	29.85
667.492	14.85
667.524	-1.15
667.555	0.85
667.587	1.85
667.619	-3.15
667.65	-7.15
667.682	-0.15
667.714	15.85
667.745	-0.15
667.777	6.85
667.808	7.85
667.84	-1.15
667.872	4.85
667.903	30.85
667.935	27.85
667.967	4.85
667.998	-4.15
668.03	-11.15
668.061	22.85
668.093	-2.15
668.125	1.85
668.156	-1.15
668.188	-6.15
668.22	-9.15
668.251	20.85
668.283	11.85
668.314	10.85
668.346	3.85
668.377	12.85
668.409	6.85
668.441	21.85
668.472	2.85
668.504	-1.15
668.535	11.85
668.567	28.85
668.599	7.85
668.63	0.85
668.662	10.85
668.693	12.85
668.725	10.85
668.756	13.85
668.788	0.85
668.819	6.85
668.851	5.85
668.882	-2.15
668.914	5.85
668.946	-2.15
668.977	11.85
669.009	-8.15
669.04	-19.15
669.072	5.85
669.103	-1.15
669.135	-7.15
669.166	10.85
669.198	6.85
669.229	11.85
669.261	2.85
669.292	9.85
669.324	7.85
669.355	-4.15
669.387	-5.15
669.418	16.85
669.45	-7.15
669.481	8.85
669.513	5.85
669.544	11.85
669.576	2.85
669.607	14.85
669.639	13.85
669.67	2.85
669.701	3.85
669.733	2.85
669.764	2.85
669.796	8.85
669.827	2.85
669.859	-19.15
669.89	-0.15
669.922	7.85
669.953	6.85
669.985	-1.15
670.016	21.85
670.047	7.85
670.079	18.85
670.11	12.85
670.142	14.85
670.173	-6.15
670.204	3.85
670.236	9.85
670.267	0.85
670.299	16.85
670.33	10.85
670.362	16.85
670.393	-8.15
670.424	-3.15
670.456	-6.15
670.487	13.85
670.518	7.85
670.55	10.85
670.581	5.85
670.613	9.85
670.644	-4.15
670.675	-5.15
670.707	-6.15
670.738	-6.15
670.769	5.85
670.801	-3.15
670.832	0.85
670.864	5.85
670.895	16.85
670.926	1.85
670.958	3.85
670.989	4.85
671.02	2.85
671.052	11.85
671.083	2.85
671.114	6.85
671.146	2.85
671.177	10.85
671.208	0.85
671.24	-5.15
671.271	-8.15
671.302	-6.15
671.333	-3.15
671.365	-3.15
671.396	-7.15
671.427	1.85
671.459	17.85
671.49	16.85
671.521	13.85
671.553	-0.15
671.584	3.85
671.615	6.85
671.646	-2.15
671.678	4.85
671.709	2.85
671.74	3.85
671.771	-15.15
671.803	3.85
671.834	2.85
671.865	7.85
671.896	9.85
671.928	-2.15
671.959	-9.15
671.99	-4.15
672.021	8.85
672.053	-4.15
672.084	17.85
672.115	3.85
672.146	21.85
672.178	-16.15
672.209	-11.15
672.24	14.85
672.271	30.85
672.303	9.85
672.334	11.85
672.365	2.85
672.396	12.85
672.427	25.85
672.459	7.85
672.49	10.85
672.521	0.85
672.552	3.85
672.583	5.85
672.615	3.85
672.646	3.85
672.677	-7.15
672.708	-17.15
672.739	2.85
672.77	18.85
672.802	9.85
672.833	4.85
672.864	6.85
672.895	-12.15
672.926	3.85
672.957	-7.15
672.989	5.85
673.02	7.85
673.051	-14.15
673.082	21.85
673.113	11.85
673.144	20.85
673.175	4.85
673.206	3.85
673.238	0.85
673.269	2.85
673.3	-0.15
673.331	-8.15
673.362	-7.15
673.393	3.85
673.424	15.85
673.455	19.85
673.487	13.85
673.518	23.85
673.549	13.85
673.58	13.85
673.611	5.85
673.642	6.85
673.673	-7.15
673.704	4.85
673.735	-7.15
673.766	8.85
673.797	-14.15
673.828	-0.15
673.86	-12.15
673.891	2.85
673.922	-1.15
673.953	-0.15
673.984	-0.15
674.015	-7.15
674.046	1.85
674.077	15.85
674.108	-0.15
674.139	-1.15
674.17	7.85
674.201	-19.15
674.232	-3.15
674.263	13.85
674.294	11.85
674.325	-7.15
674.356	17.85
674.387	19.85
674.418	16.85
674.449	-2.15
674.48	3.85
674.511	13.85
674.542	11.85
674.573	-4.15
674.604	11.85
674.635	7.85
674.666	2.85
674.697	-6.15
674.728	-1.15
674.759	-11.15
674.79	-9.15
674.821	5.85
674.852	-3.15
674.883	-9.15
674.914	-2.15
674.945	-1.15
674.976	3.85
675.007	-3.15
675.038	-5.15
675.069	-14.15
675.1	-8.15
675.131	-11.15
675.162	2.85
675.193	-7.15
675.224	6.85
675.254	0.85
675.285	-0.15
675.316	16.85
675.347	11.85
675.378	-4.15
675.409	-1.15
675.44	14.85
675.471	14.85
675.502	-0.15
675.533	2.85
675.564	0.85
675.595	-2.15
675.625	16.85
675.656	7.85
675.687	14.85
675.718	-0.15
675.749	12.85
675.78	0.85
675.811	4.85
675.842	9.85
675.873	7.85
675.903	-8.15
675.934	1.85
675.965	-13.15
675.996	-9.15
676.027	7.85
676.058	-6.15
676.089	12.85
676.119	15.85
676.15	-2.15
676.181	5.85
676.212	3.85
676.243	16.85
676.274	-1.15
676.304	17.85
676.335	8.85
676.366	14.85
676.397	-4.15
676.428	-5.15
676.459	-0.15
676.489	14.85
676.52	13.85
676.551	9.85
676.582	0.85
676.613	1.85
676.643	-14.15
676.674	-2.15
676.705	-0.15
676.736	7.85
676.767	18.85
676.797	18.85
676.828	2.85
676.859	-1.15
676.89	-1.15
676.92	8.85
676.951	22.85
676.982	15.85
677.013	6.85
677.044	17.85
677.074	4.85
677.105	-4.15
677.136	9.85
677.167	12.85
677.197	13.85
677.228	-11.15
677.259	-7.15
677.289	11.85
677.32	-5.15
677.351	-12.15
677.382	0.85
677.412	-2.15
677.443	12.85
677.474	11.85
677.505	-3.15
677.535	10.85
677.566	-7.15
677.597	-5.15
677.627	-2.15
677.658	-11.15
677.689	-1.15
677.72	5.85
677.75	-4.15
677.781	11.85
677.812	6.85
677.842	11.85
677.873	0.85
677.904	-0.15
677.934	6.85
677.965	-11.15
677.996	-6.15
678.026	-1.15
678.057	-1.15
678.088	-3.15
678.118	-2.15
678.149	8.85
678.18	4.85
678.21	1.85
678.241	4.85
678.272	-0.15
678.302	5.85
678.333	2.85
678.363	6.85
678.394	1.85
678.425	19.85
678.455	10.85
678.486	6.85
678.517	4.85
678.547	9.85
678.578	-1.15
678.608	-11.15
678.639	16.85
678.67	2.85
678.7	6.85
678.731	6.85
678.761	-0.15
678.792	10.85
678.823	5.85
678.853	10.85
678.884	-5.15
678.914	10.85
678.945	8.85
678.975	14.85
679.006	9.85
679.037	-5.15
679.067	21.85
679.098	3.85
679.128	-4.15
679.159	0.85
679.189	-2.15
679.22	-4.15
679.25	8.85
679.281	-1.15
679.312	2.85
679.342	-2.15
679.373	21.85
679.403	1.85
679.434	18.85
679.464	5.85
679.495	4.85
679.525	4.85
679.556	8.85
679.586	-1.15
679.617	4.85
679.647	6.85
679.678	1.85
679.708	-3.15
679.739	-5.15
679.769	-0.15
679.8	11.85
679.83	9.85
679.861	28.85
679.891	11.85
679.922	-4.15
679.952	15.85
679.983	3.85
680.013	-5.15
680.044	-5.15
680.074	20.85
680.105	7.85
680.135	1.85
680.165	7.85
680.196	8.85
680.226	0.85
680.257	5.85
680.287	-11.15
680.318	-7.15
680.348	-10.15
680.379	16.85
680.409	17.85
680.439	14.85
680.47	-2.15
680.5	-16.15
680.531	-14.15
680.561	23.85
680.592	9.85
680.622	18.85
680.652	-4.15
680.683	22.85
680.713	7.85
680.744	0.85
680.774	-7.15
680.804	17.85
680.835	-8.15
680.865	-14.15
680.896	20.85
680.926	12.85
680.956	-4.15
680.987	10.85
681.017	-1.15
681.047	11.85
681.078	-9.15
681.108	-2.15
681.139	3.85
681.169	4.85
681.199	13.85
681.23	-2.15
681.26	-2.15
681.29	3.85
681.321	-6.15
681.351	6.85
681.381	-12.15
681.412	-3.15
681.442	-6.15
681.472	18.85
681.503	28.85
681.533	12.85
681.563	10.85
681.594	7.85
681.624	7.85
681.654	-8.15
681.685	6.85
681.715	3.85
681.745	-5.15
681.775	-14.15
681.806	2.85
681.836	7.85
681.866	1.85
681.897	1.85
681.927	-2.15
681.957	-11.15
681.987	3.85
682.018	-0.15
682.048	3.85
682.078	9.85
682.109	25.85
682.139	13.85
682.169	8.85
682.199	2.85
682.23	-1.15
682.26	9.85
682.29	0.85
682.32	4.85
682.351	7.85
682.381	1.85
682.411	-0.15
682.441	4.85
682.472	-12.15
682.502	-10.15
682.532	8.85
682.562	9.85
682.592	11.85
682.623	21.85
682.653	-5.15
682.683	-12.15
682.713	-1.15
682.743	-1.15
682.774	-1.15
682.804	14.85
682.834	32.85
682.864	-5.15
682.894	-0.15
682.925	6.85
682.955	-2.15
682.985	-0.15
683.015	16.85
683.045	4.85
683.076	-14.15
683.106	0.85
683.136	10.85
683.166	-0.15
683.196	-0.15
683.226	-0.15
683.257	-2.15
683.287	-8.15
683.317	-8.15
683.347	-18.15
683.377	-3.15
683.407	7.85
683.437	25.85
683.468	18.85
683.498	-4.15
683.528	-4.15
683.558	-5.15
683.588	-8.15
683.618	2.85
683.648	-1.15
683.678	-2.15
683.708	17.85
683.739	0.85
683.769	-4.15
683.799	-7.15
683.829	-3.15
683.859	15.85
683.889	22.85
683.919	0.85
683.949	12.85
683.979	12.85
684.009	11.85
684.039	4.85
684.07	-6.15
684.1	28.85
684.13	0.85
684.16	8.85
684.19	-1.15
684.22	-2.15
684.25	5.85
684.28	4.85
684.31	29.85
684.34	14.85
684.37	5.85
684.4	-0.15
684.43	-7.15
684.46	-7.15
684.49	19.85
684.52	4.85
684.55	4.85
684.58	2.85
684.61	19.85
684.64	11.85
684.67	9.85
684.7	-5.15
684.73	11.85
684.76	7.85
684.79	13.85
684.82	12.85
684.85	-5.15
684.88	14.85
684.91	0.85
684.94	-4.15
684.97	-1.15
685	-1.15
685.03	1.85
685.06	-3.15
685.09	10.85
685.12	11.85
685.15	-6.15
685.18	18.85
685.21	1.85
685.24	10.85
685.27	25.85
685.3	-1.15
685.33	17.85
685.36	10.85
685.39	15.85
685.42	-5.15
685.45	8.85
685.48	18.85
685.51	1.85
685.54	18.85
685.569	11.85
685.599	1.85
685.629	4.85
685.659	8.85
685.689	1.85
685.719	0.85
685.749	-1.15
685.779	14.85
685.809	10.85
685.839	-2.15
685.869	8.85
685.898	10.85
685.928	8.85
685.958	9.85
685.988	3.85
686.018	7.85
686.048	14.85
686.078	24.85
686.108	20.85
686.137	32.85
686.167	24.85
686.197	-7.15
686.227	11.85
686.257	31.85
686.287	22.85
686.317	11.85
686.346	7.85
686.376	3.85
686.406	-10.15
686.436	10.85
686.466	7.85
686.496	7.85
686.525	16.85
686.555	9.85
686.585	17.85
686.615	17.85
686.645	9.85
686.675	-1.15
686.704	-4.15
686.734	7.85
686.764	2.85
686.794	4.85
686.824	-3.15
686.853	2.85
686.883	9.85
686.913	11.85
686.943	3.85
686.973	6.85
687.002	15.85
687.032	17.85
687.062	-0.15
687.092	14.85
687.121	-2.15
687.151	8.85
687.181	1.85
687.211	2.85
687.24	-18.15
687.27	-0.15
687.3	-15.15
687.33	2.85
687.359	-8.15
687.389	2.85
687.419	8.85
687.449	4.85
687.478	8.85
687.508	-2.15
687.538	10.85
687.568	-2.15
687.597	-6.15
687.627	0.85
687.657	4.85
687.686	23.85
687.716	20.85
687.746	7.85
687.776	6.85
687.805	3.85
687.835	-0.15
687.865	26.85
687.894	7.85
687.924	-4.15
687.954	3.85
687.983	5.85
688.013	21.85
688.043	-0.15
688.072	23.85
688.102	10.85
688.132	12.85
688.161	5.85
688.191	7.85
688.221	31.85
688.25	1.85
688.28	8.85
688.31	-10.15
688.339	-0.15
688.369	-0.15
688.399	1.85
688.428	11.85
688.458	18.85
688.488	7.85
688.517	-1.15
688.547	-7.15
688.576	36.85
688.606	10.85
688.636	-3.15
688.665	18.85
688.695	12.85
688.725	12.85
688.754	16.85
688.784	9.85
688.813	13.85
688.843	8.85
688.873	10.85
688.902	-1.15
688.932	-11.15
688.961	2.85
688.991	24.85
689.02	8.85
689.05	-4.15
689.08	4.85
689.109	18.85
689.139	2.85
689.168	15.85
689.198	3.85
689.227	-13.15
689.257	9.85
689.287	10.85
689.316	1.85
689.346	-3.15
689.375	-7.15
689.405	3.85
689.434	7.85
689.464	16.85
689.493	2.85
689.523	5.85
689.552	-1.15
689.582	6.85
689.611	12.85
689.641	18.85
689.67	-0.15
689.7	16.85
689.73	14.85
689.759	11.85
689.789	16.85
689.818	20.85
689.848	14.85
689.877	27.85
689.906	10.85
689.936	7.85
689.965	-1.15
689.995	8.85
690.024	11.85
690.054	9.85
690.083	1.85
690.113	-1.15
690.142	-14.15
690.172	-6.15
690.201	0.85
690.231	2.85
690.26	7.85
690.29	11.85
690.319	14.85
690.348	-1.15
690.378	14.85
690.407	16.85
690.437	2.85
690.466	8.85
690.496	-1.15
690.525	9.85
690.555	-5.15
690.584	18.85
690.613	9.85
690.643	4.85
690.672	4.85
690.702	15.85
690.731	7.85
690.76	-0.15
690.79	-4.15
690.819	-1.15
690.849	0.85
690.878	10.85
690.907	13.85
690.937	27.85
690.966	11.85
690.996	-1.15
691.025	-2.15
691.054	-8.15
691.084	18.85
691.113	7.85
691.142	20.85
691.172	7.85
691.201	6.85
691.23	14.85
691.26	21.85
691.289	3.85
691.319	8.85
691.348	0.85
691.377	26.85
691.407	10.85
691.436	8.85
691.465	-1.15
691.495	-6.15
691.524	14.85
691.553	3.85
691.583	4.85
691.612	15.85
691.641	18.85
691.67	6.85
691.7	8.85
691.729	-3.15
691.758	3.85
691.788	4.85
691.817	5.85
691.846	20.85
691.876	3.85
691.905	8.85
691.934	-2.15
691.963	18.85
691.993	20.85
692.022	-3.15
692.051	-17.15
692.081	15.85
692.11	21.85
692.139	9.85
692.168	-0.15
692.198	27.85
692.227	17.85
692.256	11.85
692.285	19.85
692.315	-0.15
692.344	7.85
692.373	15.85
692.402	5.85
692.432	-9.15
692.461	0.85
692.49	-5.15
692.519	14.85
692.548	33.85
692.578	24.85
692.607	0.85
692.636	-5.15
692.665	17.85
692.694	-6.15
692.724	15.85
692.753	17.85
692.782	8.85
692.811	3.85
692.84	-2.15
692.87	29.85
692.899	18.85
692.928	8.85
692.957	10.85
692.986	7.85
693.016	11.85
693.045	4.85
693.074	-0.15
693.103	-11.15
693.132	4.85
693.161	20.85
693.191	2.85
693.22	-8.15
693.249	4.85
693.278	7.85
693.307	12.85
693.336	-17.15
693.365	-11.15
693.395	2.85
693.424	0.85
693.453	10.85
693.482	8.85
693.511	10.85
693.54	25.85
693.569	19.85
693.598	15.85
693.628	28.85
693.657	7.85
693.686	28.85
693.715	11.85
693.744	9.85
693.773	26.85
693.802	12.85
693.831	11.85
693.86	22.85
693.889	-0.15
693.919	6.85
693.948	0.85
693.977	3.85
694.006	7.85
694.035	12.85
694.064	-11.15
694.093	3.85
694.122	-0.15
694.151	4.85
694.18	12.85
694.209	21.85
694.238	20.85
694.267	26.85
694.296	23.85
694.325	27.85
694.354	3.85
694.383	0.85
694.412	9.85
694.441	12.85
694.471	15.85
694.5	-9.15
694.529	20.85
694.558	25.85
694.587	6.85
694.616	16.85
694.645	11.85
694.674	7.85
694.703	-1.15
694.732	6.85
694.761	12.85
694.79	0.85
694.819	2.85
694.848	8.85
694.877	20.85
694.906	21.85
694.935	1.85
694.963	21.85
694.992	22.85
695.021	1.85
695.05	6.85
695.079	6.85
695.108	8.85
695.137	28.85
695.166	11.85
695.195	7.85
695.224	22.85
695.253	3.85
695.282	6.85
695.311	22.85
695.34	6.85
695.369	-2.15
695.398	13.85
695.427	27.85
695.456	21.85
695.485	11.85
695.513	2.85
695.542	10.85
695.571	-0.15
695.6	17.85
695.629	18.85
695.658	22.85
695.687	15.85
695.716	2.85
695.745	14.85
695.774	5.85
695.802	6.85
695.831	4.85
695.86	25.85
695.889	4.85
695.918	0.85
695.947	0.85
695.976	0.85
696.005	5.85
696.033	13.85
696.062	23.85
696.091	7.85
696.12	8.85
696.149	23.85
696.178	-0.15
696.207	3.85
696.235	-10.15
696.264	6.85
696.293	13.85
696.322	3.85
696.351	29.85
696.38	19.85
696.408	15.85
696.437	13.85
696.466	10.85
696.495	18.85
696.524	6.85
696.553	19.85
696.581	25.85
696.61	10.85
696.639	0.85
696.668	24.85
696.697	14.85
696.725	19.85
696.754	1.85
696.783	4.85
696.812	-4.15
696.84	-0.15
696.869	-0.15
696.898	-6.15
696.927	3.85
696.956	28.85
696.984	6.85
697.013	10.85
697.042	12.85
697.071	17.85
697.099	28.85
697.128	13.85
697.157	11.85
697.186	10.85
697.214	3.85
697.243	-8.15
697.272	6.85
697.301	21.85
697.329	17.85
697.358	2.85
697.387	26.85
697.415	6.85
697.444	-6.15
697.473	6.85
697.502	-1.15
697.53	0.85
697.559	16.85
697.588	2.85
697.616	9.85
697.645	2.85
697.674	19.85
697.703	9.85
697.731	17.85
697.76	22.85
697.789	-3.15
697.817	6.85
697.846	16.85
697.875	6.85
697.903	26.85
697.932	12.85
697.961	7.85
697.989	15.85
698.018	-4.15
698.047	15.85
698.075	22.85
698.104	-2.15
698.133	6.85
698.161	-11.15
698.19	8.85
698.218	8.85
698.247	18.85
698.276	-0.15
698.304	6.85
698.333	15.85
698.362	19.85
698.39	18.85
698.419	15.85
698.447	12.85
698.476	6.85
698.505	38.85
698.533	8.85
698.562	4.85
698.591	6.85
698.619	-12.15
698.648	5.85
698.676	-2.15
698.705	4.85
698.733	2.85
698.762	1.85
698.791	1.85
698.819	0.85
698.848	11.85
698.876	23.85
698.905	8.85
698.933	2.85
698.962	6.85
698.991	14.85
699.019	25.85
699.048	16.85
699.076	8.85
699.105	1.85
699.133	16.85
699.162	10.85
699.19	16.85
699.219	-5.15
699.248	4.85
699.276	-0.15
699.305	0.85
699.333	0.85
699.362	13.85
699.39	11.85
699.419	-4.15
699.447	21.85
699.476	8.85
699.504	9.85
699.533	18.85
699.561	-12.15
699.59	7.85
699.618	-2.15
699.647	2.85
699.675	-0.15
699.704	14.85
699.732	6.85
699.761	30.85
699.789	1.85
699.818	7.85
699.846	14.85
699.874	0.85
699.903	-0.15
699.931	9.85
699.96	24.85
699.988	1.85
700.017	3.85
700.045	16.85
700.074	7.85
700.102	-1.15
700.13	-1.15
700.159	17.85
700.187	8.85
700.216	9.85
700.244	-0.15
700.273	-15.15
700.301	0.85
700.329	8.85
700.358	12.85
700.386	0.85
700.415	-3.15
700.443	6.85
700.472	11.85
700.5	9.85
700.528	13.85
700.557	16.85
700.585	-4.15
700.614	-5.15
700.642	20.85
700.67	31.85
700.699	25.85
700.727	-0.15
700.755	15.85
700.784	4.85
700.812	0.85
700.841	16.85
700.869	8.85
700.897	1.85
700.926	2.85
700.954	7.85
700.982	4.85
701.011	11.85
701.039	8.85
701.067	2.85
701.096	27.85
701.124	-6.15
701.152	-8.15
701.181	-7.15
701.209	-2.15
701.237	0.85
701.266	-2.15
701.294	6.85
701.322	16.85
701.351	15.85
701.379	8.85
701.407	0.85
701.435	0.85
701.464	9.85
701.492	11.85
701.52	6.85
701.549	6.85
701.577	-4.15
701.605	14.85
701.634	8.85
701.662	10.85
701.69	3.85
701.718	5.85
701.747	11.85
701.775	4.85
701.803	6.85
701.831	4.85
701.86	-2.15
701.888	4.85
701.916	8.85
701.944	3.85
701.973	1.85
702.001	-11.15
702.029	-9.15
702.057	-4.15
702.086	-6.15
702.114	-14.15
702.142	13.85
702.17	2.85
702.199	15.85
702.227	7.85
702.255	11.85
702.283	4.85
702.311	9.85
702.34	14.85
702.368	-4.15
702.396	-10.15
702.424	-0.15
702.452	2.85
702.481	14.85
702.509	11.85
702.537	-0.15
702.565	8.85
702.593	-15.15
702.621	14.85
702.65	10.85
702.678	8.85
702.706	14.85
702.734	8.85
702.762	13.85
702.79	2.85
702.819	14.85
702.847	10.85
702.875	5.85
702.903	17.85
702.931	10.85
702.959	5.85
702.988	22.85
703.016	12.85
703.044	15.85
703.072	6.85
703.1	16.85
703.128	1.85
703.156	18.85
703.184	-2.15
703.212	6.85
703.241	18.85
703.269	-1.15
703.297	0.85
703.325	5.85
703.353	-4.15
703.381	6.85
703.409	9.85
703.437	-11.15
703.465	-3.15
703.493	-8.15
703.522	6.85
703.55	11.85
703.578	6.85
703.606	-3.15
703.634	-5.15
703.662	-7.15
703.69	2.85
703.718	3.85
703.746	29.85
703.774	1.85
703.802	24.85
703.83	7.85
703.858	4.85
703.886	6.85
703.914	-20.15
703.942	21.85
703.97	4.85
703.998	5.85
704.027	25.85
704.055	18.85
704.083	14.85
704.111	12.85
704.139	7.85
704.167	-4.15
704.195	6.85
704.223	1.85
704.251	1.85
704.279	11.85
704.307	3.85
704.335	0.85
704.363	0.85
704.391	4.85
704.419	-6.15
704.447	3.85
704.475	4.85
704.503	-0.15
704.531	7.85
704.558	-7.15
704.586	12.85
704.614	5.85
704.642	0.85
704.67	4.85
704.698	3.85
704.726	20.85
704.754	6.85
704.782	5.85
704.81	7.85
704.838	30.85
704.866	20.85
704.894	-7.15
704.922	1.85
704.95	8.85
704.978	1.85
705.006	3.85
705.034	18.85
705.061	6.85
705.089	0.85
705.117	-7.15
705.145	-2.15
705.173	14.85
705.201	-9.15
705.229	21.85
705.257	1.85
705.285	12.85
705.313	-7.15
705.34	-2.15
705.368	-2.15
705.396	11.85
705.424	10.85
705.452	-1.15
705.48	4.85
705.508	-0.15
705.536	20.85
705.563	-5.15
705.591	3.85
705.619	2.85
705.647	-3.15
705.675	4.85
705.703	13.85
705.731	1.85
705.758	13.85
705.786	1.85
705.814	21.85
705.842	11.85
705.87	7.85
705.898	8.85
705.925	-8.15
705.953	3.85
705.981	-15.15
706.009	-5.15
706.037	9.85
706.065	-1.15
706.092	-0.15
706.12	-4.15
706.148	-5.15
706.176	-8.15
706.204	4.85
706.231	3.85
706.259	-12.15
706.287	-5.15
706.315	13.85
706.342	-6.15
706.37	3.85
706.398	3.85
706.426	1.85
706.454	4.85
706.481	14.85
706.509	15.85
706.537	-15.15
706.565	0.85
706.592	6.85
706.62	5.85
706.648	7.85
706.676	-7.15
706.703	5.85
706.731	-0.15
706.759	4.85
706.787	8.85
706.814	9.85
706.842	8.85
706.87	-6.15
706.897	-7.15
706.925	11.85
706.953	9.85
706.981	34.85
707.008	15.85
707.036	-0.15
707.064	4.85
707.091	-4.15
707.119	5.85
707.147	0.85
707.174	-22.15
707.202	-1.15
707.23	-1.15
707.258	4.85
707.285	-4.15
707.313	1.85
707.341	-5.15
707.368	6.85
707.396	3.85
707.424	13.85
707.451	4.85
707.479	8.85
707.507	2.85
707.534	17.85
707.562	9.85
707.59	4.85
707.617	4.85
707.645	0.85
707.672	-0.15
707.7	-1.15
707.728	2.85
707.755	20.85
707.783	10.85
707.811	3.85
707.838	0.85
707.866	21.85
707.893	6.85
707.921	-5.15
707.949	-11.15
707.976	2.85
708.004	-6.15
708.031	7.85
708.059	1.85
708.087	-1.15
708.114	7.85
708.142	-0.15
708.169	15.85
708.197	-5.15
708.225	-6.15
708.252	1.85
708.28	9.85
708.307	-14.15
708.335	0.85
708.362	-6.15
708.39	-13.15
708.418	4.85
708.445	-0.15
708.473	-14.15
708.5	-21.15
708.528	2.85
708.555	-3.15
708.583	-11.15
708.61	2.85
708.638	0.85
708.665	1.85
708.693	-4.15
708.72	-0.15
708.748	-12.15
708.776	10.85
708.803	22.85
708.831	8.85
708.858	21.85
708.886	6.85
708.913	17.85
708.941	-16.15
708.968	6.85
708.996	5.85
709.023	11.85
709.051	0.85
709.078	2.85
709.105	12.85
709.133	-8.15
709.16	8.85
709.188	8.85
709.215	17.85
709.243	10.85
709.27	-9.15
709.298	12.85
709.325	-3.15
709.353	-0.15
709.38	-8.15
709.408	4.85
709.435	0.85
709.462	-4.15
709.49	8.85
709.517	-6.15
709.545	-0.15
709.572	-9.15
709.6	13.85
709.627	8.85
709.655	6.85
709.682	10.85
709.709	0.85
709.737	2.85
709.764	5.85
709.792	6.85
709.819	1.85
709.846	-2.15
709.874	4.85
709.901	3.85
709.929	31.85
709.956	14.85
709.983	6.85
710.011	6.85
710.038	-8.15
710.066	2.85
710.093	9.85
710.12	2.85
710.148	-0.15
710.175	-8.15
710.202	-3.15
710.23	13.85
710.257	11.85
710.284	16.85
710.312	15.85
710.339	-3.15
710.366	-6.15
710.394	-4.15
710.421	2.85
710.448	-1.15
710.476	-10.15
710.503	7.85
710.53	21.85
710.558	23.85
710.585	17.85
710.612	-1.15
710.64	-10.15
710.667	-0.15
710.694	1.85
710.722	7.85
710.749	0.85
710.776	8.85
710.804	13.85
710.831	-6.15
710.858	-1.15
710.885	1.85
710.913	-6.15
710.94	29.85
710.967	4.85
710.995	-0.15
711.022	0.85
711.049	15.85
711.076	-12.15
711.104	-0.15
711.131	-8.15
711.158	-1.15
711.185	3.85
711.213	-8.15
711.24	0.85
711.267	-2.15
711.294	10.85
711.322	20.85
711.349	-5.15
711.376	-8.15
711.403	12.85
711.431	2.85
711.458	3.85
711.485	-3.15
711.512	-3.15
711.54	-1.15
711.567	-5.15
711.594	-17.15
711.621	7.85
711.648	15.85
711.676	11.85
711.703	16.85
711.73	-7.15
711.757	3.85
711.784	-4.15
711.812	12.85
711.839	0.85
711.866	-8.15
711.893	-9.15
711.92	30.85
711.947	14.85
711.975	5.85
712.002	-9.15
712.029	-0.15
712.056	7.85
712.083	12.85
712.11	-1.15
712.138	31.85
712.165	-3.15
712.192	-1.15
712.219	0.85
712.246	2.85
712.273	6.85
712.3	-3.15
712.328	-5.15
712.355	4.85
712.382	-14.15
712.409	0.85
712.436	-6.15
712.463	9.85
712.49	-1.15
712.517	7.85
712.544	14.85
712.572	16.85
712.599	4.85
712.626	14.85
712.653	-9.15
712.68	8.85
712.707	1.85
712.734	2.85
712.761	-0.15
712.788	4.85
712.815	15.85
712.842	30.85
712.87	3.85
712.897	3.85
712.924	-12.15
712.951	9.85
712.978	31.85
713.005	20.85
713.032	25.85
713.059	-4.15
713.086	4.85
713.113	-5.15
713.14	-5.15
713.167	10.85
713.194	15.85
713.221	5.85
713.248	10.85
713.275	11.85
713.302	-7.15
713.329	6.85
713.356	8.85
713.383	0.85
713.41	0.85
713.437	-14.15
713.464	-0.15
713.491	13.85
713.518	1.85
713.545	2.85
713.572	-8.15
713.599	8.85
713.626	-1.15
713.653	6.85
713.68	-4.15
713.707	-1.15
713.734	15.85
713.761	10.85
713.788	10.85
713.815	19.85
713.842	3.85
713.869	-1.15
713.896	7.85
713.923	14.85
713.95	20.85
713.977	-6.15
714.004	-8.15
714.031	-2.15
714.058	5.85
714.085	11.85
714.112	23.85
714.139	8.85
714.165	7.85
714.192	-3.15
714.219	7.85
714.246	6.85
714.273	8.85
714.3	-5.15
714.327	6.85
714.354	20.85
714.381	2.85
714.408	3.85
714.435	-7.15
714.461	10.85
714.488	11.85
714.515	-2.15
714.542	-7.15
714.569	2.85
714.596	-8.15
714.623	7.85
714.65	6.85
714.677	12.85
714.703	8.85
714.73	7.85
714.757	3.85
714.784	8.85
714.811	9.85
714.838	1.85
714.865	2.85
714.891	14.85
714.918	6.85
714.945	16.85
714.972	-4.15
714.999	2.85
715.026	0.85
715.052	10.85
715.079	7.85
715.106	-0.15
715.133	9.85
715.16	12.85
715.187	10.85
715.213	21.85
715.24	6.85
715.267	-0.15
715.294	4.85
715.321	-9.15
715.347	1.85
715.374	-16.15
715.401	-5.15
715.428	-0.15
715.455	13.85
715.481	6.85
715.508	13.85
715.535	3.85
715.562	18.85
715.588	16.85
715.615	6.85
715.642	8.85
715.669	12.85
715.695	7.85
715.722	-7.15
715.749	-3.15
715.776	20.85
715.802	6.85
715.829	10.85
715.856	7.85
715.883	21.85
715.909	0.85
715.936	6.85
715.963	6.85
715.99	-15.15
716.016	11.85
716.043	17.85
716.07	4.85
716.096	-3.15
716.123	2.85
716.15	4.85
716.177	19.85
716.203	18.85
716.23	8.85
716.257	18.85
716.283	11.85
716.31	20.85
716.337	7.85
716.363	2.85
716.39	11.85
716.417	14.85
716.443	-1.15
716.47	26.85
716.497	22.85
716.523	12.85
716.55	16.85
716.577	17.85
716.603	15.85
716.63	19.85
716.657	20.85
716.683	11.85
716.71	7.85
716.737	2.85
716.763	-0.15
716.79	-0.15
716.817	6.85
716.843	0.85
716.87	7.85
716.897	4.85
716.923	35.85
716.95	17.85
716.976	5.85
717.003	2.85
717.03	7.85
717.056	6.85
717.083	-3.15
717.109	10.85
717.136	10.85
717.163	-2.15
717.189	-9.15
717.216	1.85
717.242	1.85
717.269	3.85
717.296	17.85
717.322	14.85
717.349	0.85
717.375	19.85
717.402	-6.15
717.428	-6.15
717.455	9.85
717.481	7.85
717.508	13.85
717.535	22.85
717.561	-2.15
717.588	8.85
717.614	-6.15
717.641	-0.15
717.667	7.85
717.694	5.85
717.72	7.85
717.747	20.85
717.773	-7.15
717.8	-20.15
717.826	14.85
717.853	-11.15
717.88	1.85
717.906	17.85
717.933	16.85
717.959	12.85
717.986	6.85
718.012	-11.15
718.039	27.85
718.065	-1.15
718.092	13.85
718.118	0.85
718.144	4.85
718.171	24.85
718.197	16.85
718.224	21.85
718.25	6.85
718.277	0.85
718.303	2.85
718.33	18.85
718.356	0.85
718.383	-6.15
718.409	-11.15
718.436	-2.15
718.462	6.85
718.489	-0.15
718.515	6.85
718.541	11.85
718.568	13.85
718.594	12.85
718.621	1.85
718.647	-4.15
718.674	14.85
718.7	18.85
718.726	-2.15
718.753	7.85
718.779	10.85
718.806	6.85
718.832	-3.15
718.858	-0.15
718.885	4.85
718.911	8.85
718.938	-2.15
718.964	-10.15
718.99	7.85
719.017	16.85
719.043	16.85
719.07	17.85
719.096	2.85
719.122	2.85
719.149	17.85
719.175	21.85
719.201	27.85
719.228	6.85
719.254	6.85
719.281	12.85
719.307	7.85
719.333	10.85
719.36	2.85
719.386	-6.15
719.412	3.85
719.439	10.85
719.465	6.85
719.491	-9.15
719.518	11.85
719.544	6.85
719.57	-0.15
719.597	-2.15
719.623	2.85
719.649	13.85
719.675	14.85
719.702	19.85
719.728	24.85
719.754	4.85
719.781	-2.15
719.807	-9.15
719.833	4.85
719.86	13.85
719.886	11.85
719.912	20.85
719.938	5.85
719.965	2.85
719.991	10.85
720.017	-9.15
720.044	7.85
720.07	25.85
720.096	20.85
720.122	2.85
720.149	15.85
720.175	17.85
720.201	14.85
720.227	-6.15
720.254	6.85
720.28	7.85
720.306	1.85
720.332	10.85
720.359	3.85
720.385	10.85
720.411	18.85
720.437	9.85
720.463	15.85
720.49	6.85
720.516	0.85
720.542	-11.15
720.568	9.85
720.595	21.85
720.621	16.85
720.647	26.85
720.673	-1.15
720.699	-1.15
720.725	4.85
720.752	14.85
720.778	15.85
720.804	12.85
720.83	16.85
720.856	-6.15
720.883	-1.15
720.909	3.85
720.935	11.85
720.961	24.85
720.987	5.85
721.013	19.85
721.04	4.85
721.066	4.85
721.092	8.85
721.118	16.85
721.144	11.85
721.17	14.85
721.196	18.85
721.223	-3.15
721.249	5.85
721.275	34.85
721.301	14.85
721.327	15.85
721.353	23.85
721.379	19.85
721.405	17.85
721.432	13.85
721.458	-2.15
721.484	26.85
721.51	-2.15
721.536	1.85
721.562	-4.15
721.588	-7.15
721.614	2.85
721.64	0.85
721.666	3.85
721.693	-0.15
721.719	5.85
721.745	2.85
721.771	11.85
721.797	13.85
721.823	24.85
721.849	10.85
721.875	13.85
721.901	2.85
721.927	19.85
721.953	11.85
721.979	41.85
722.005	26.85
722.031	12.85
722.057	20.85
722.083	-0.15
722.109	2.85
722.135	7.85
722.161	17.85
722.187	10.85
722.214	-3.15
722.24	8.85
722.266	0.85
722.292	9.85
722.318	0.85
722.344	17.85
722.37	18.85
722.396	18.85
722.422	14.85
722.448	6.85
722.474	-6.15
722.5	8.85
722.526	5.85
722.552	11.85
722.578	14.85
722.603	11.85
722.629	4.85
722.655	13.85
722.681	-8.15
722.707	-4.15
722.733	-4.15
722.759	-4.15
722.785	-5.15
722.811	13.85
722.837	6.85
722.863	26.85
722.889	11.85
722.915	6.85
722.941	2.85
722.967	9.85
722.993	15.85
723.019	15.85
723.045	3.85
723.071	8.85
723.097	21.85
723.122	14.85
723.148	2.85
723.174	3.85
723.2	20.85
723.226	8.85
723.252	15.85
723.278	0.85
723.304	13.85
723.33	4.85
723.356	-6.15
723.381	-12.15
723.407	-7.15
723.433	15.85
723.459	12.85
723.485	3.85
723.511	13.85
723.537	-9.15
723.563	3.85
723.588	0.85
723.614	12.85
723.64	9.85
723.666	15.85
723.692	13.85
723.718	8.85
723.744	10.85
723.769	2.85
723.795	-0.15
723.821	9.85
723.847	12.85
723.873	-1.15
723.899	4.85
723.924	2.85
723.95	11.85
723.976	-9.15
724.002	13.85
724.028	0.85
724.053	-5.15
724.079	8.85
724.105	11.85
724.131	11.85
724.157	7.85
724.182	15.85
724.208	0.85
724.234	7.85
724.26	12.85
724.286	15.85
724.311	13.85
724.337	1.85
724.363	-5.15
724.389	4.85
724.415	4.85
724.44	32.85
724.466	11.85
724.492	6.85
724.518	5.85
724.543	0.85
724.569	7.85
724.595	3.85
724.621	-1.15
724.646	-2.15
724.672	-1.15
724.698	2.85
724.723	6.85
724.749	2.85
724.775	4.85
724.801	1.85
724.826	3.85
724.852	-1.15
724.878	9.85
724.904	-1.15
724.929	2.85
724.955	-2.15
724.981	3.85
725.006	-0.15
725.032	16.85
725.058	22.85
725.083	-1.15
725.109	4.85
725.135	1.85
725.161	5.85
725.186	-7.15
725.212	14.85
725.238	16.85
725.263	1.85
725.289	-2.15
725.315	-1.15
725.34	14.85
725.366	23.85
725.392	6.85
725.417	-5.15
725.443	2.85
725.468	7.85
725.494	7.85
725.52	16.85
725.545	8.85
725.571	-13.15
725.597	-3.15
725.622	1.85
725.648	2.85
725.674	4.85
725.699	14.85
725.725	1.85
725.75	32.85
725.776	10.85
725.802	2.85
725.827	21.85
725.853	-6.15
725.878	-1.15
725.904	5.85
725.93	7.85
725.955	-2.15
725.981	-8.15
726.006	0.85
726.032	8.85
726.057	4.85
726.083	11.85
726.109	20.85
726.134	6.85
726.16	7.85
726.185	-2.15
726.211	1.85
726.236	21.85
726.262	10.85
726.288	23.85
726.313	12.85
726.339	6.85
726.364	-2.15
726.39	5.85
726.415	16.85
726.441	5.85
726.466	-13.15
726.492	1.85
726.517	12.85
726.543	17.85
726.568	8.85
726.594	3.85
726.619	9.85
726.645	17.85
726.67	15.85
726.696	9.85
726.721	-9.15
726.747	-18.15
726.772	2.85
726.798	2.85
726.823	23.85
726.849	20.85
726.874	16.85
726.9	20.85
726.925	7.85
726.951	14.85
726.976	7.85
727.002	1.85
727.027	-3.15
727.053	14.85
727.078	3.85
727.104	6.85
727.129	4.85
727.155	6.85
727.18	10.85
727.205	-10.15
727.231	4.85
727.256	9.85
727.282	2.85
727.307	17.85
727.333	6.85
727.358	-9.15
727.383	1.85
727.409	-2.15
727.434	1.85
727.46	-0.15
727.485	-1.15
727.511	13.85
727.536	-12.15
727.561	-9.15
727.587	-10.15
727.612	7.85
727.637	1.85
727.663	3.85
727.688	18.85
727.714	-12.15
727.739	-14.15
727.764	-2.15
727.79	-0.15
727.815	13.85
727.841	-3.15
727.866	3.85
727.891	15.85
727.917	6.85
727.942	-12.15
727.967	-3.15
727.993	-10.15
728.018	0.85
728.043	7.85
728.069	9.85
728.094	15.85
728.119	6.85
728.145	17.85
728.17	3.85
728.195	5.85
728.221	16.85
728.246	5.85
728.271	-15.15
728.297	-8.15
728.322	5.85
728.347	-1.15
728.373	2.85
728.398	21.85
728.423	-7.15
728.448	-1.15
728.474	20.85
728.499	25.85
728.524	6.85
728.55	-12.15
728.575	-9.15
728.6	1.85
728.625	-5.15
728.651	8.85
728.676	6.85
728.701	4.85
728.727	10.85
728.752	2.85
728.777	-4.15
728.802	-4.15
728.828	6.85
728.853	-1.15
728.878	8.85
728.903	-7.15
728.929	0.85
728.954	-1.15
728.979	25.85
729.004	6.85
729.03	-0.15
729.055	8.85
729.08	-8.15
729.105	4.85
729.13	16.85
729.156	8.85
729.181	12.85
729.206	-0.15
729.231	1.85
729.256	18.85
729.282	3.85
729.307	-2.15
729.332	3.85
729.357	17.85
729.382	12.85
729.408	3.85
729.433	4.85
729.458	9.85
729.483	3.85
729.508	19.85
729.533	3.85
729.559	-6.15
729.584	-4.15
729.609	1.85
729.634	-3.15
729.659	-25.15
729.684	-3.15
729.71	12.85
729.735	-1.15
729.76	2.85
729.785	6.85
729.81	10.85
729.835	-2.15
729.86	2.85
729.886	7.85
729.911	4.85
729.936	-4.15
729.961	7.85
729.986	0.85
730.011	1.85
730.036	-0.15
730.061	17.85
730.086	10.85
730.112	-0.15
730.137	12.85
730.162	5.85
730.187	-9.15
730.212	3.85
730.237	-0.15
730.262	3.85
730.287	12.85
730.312	23.85
730.337	9.85
730.362	19.85
730.387	12.85
730.413	8.85
730.438	2.85
730.463	15.85
730.488	-1.15
730.513	11.85
730.538	4.85
730.563	18.85
730.588	1.85
730.613	15.85
730.638	7.85
730.663	12.85
730.688	33.85
730.713	1.85
730.738	-1.15
730.763	12.85
730.788	-8.15
730.813	27.85
730.838	-2.15
730.863	7.85
730.888	-6.15
730.913	-17.15
730.938	-18.15
730.963	-3.15
730.988	18.85
731.013	30.85
731.038	-4.15
731.063	0.85
731.088	-1.15
731.113	5.85
731.138	8.85
731.163	3.85
731.188	-6.15
731.213	19.85
731.238	21.85
731.263	8.85
731.288	10.85
731.313	11.85
731.338	13.85
731.363	23.85
731.388	3.85
731.413	10.85
731.438	26.85
731.463	11.85
731.487	31.85
731.512	2.85
731.537	6.85
731.562	5.85
731.587	17.85
731.612	6.85
731.637	-0.15
731.662	1.85
731.687	5.85
731.712	-15.15
731.737	-13.15
731.762	9.85
731.786	3.85
731.811	2.85
731.836	-2.15
731.861	3.85
731.886	1.85
731.911	6.85
731.936	30.85
731.961	12.85
731.986	16.85
732.01	4.85
732.035	2.85
732.06	13.85
732.085	18.85
732.11	-0.15
732.135	-2.15
732.16	-6.15
732.184	10.85
732.209	11.85
732.234	18.85
732.259	2.85
732.284	10.85
732.309	-11.15
732.334	-0.15
732.358	-8.15
732.383	-9.15
732.408	2.85
732.433	15.85
732.458	-1.15
732.482	13.85
732.507	21.85
732.532	9.85
732.557	12.85
732.582	-0.15
732.607	8.85
732.631	-3.15
732.656	-0.15
732.681	-3.15
732.706	8.85
732.73	-2.15
732.755	0.85
732.78	4.85
732.805	11.85
732.83	0.85
732.854	7.85
732.879	28.85
732.904	17.85
732.929	9.85
732.953	19.85
732.978	5.85
733.003	-0.15
733.028	-4.15
733.052	24.85
733.077	13.85
733.102	13.85
733.127	-1.15
733.151	14.85
733.176	12.85
733.201	-3.15
733.226	-3.15
733.25	4.85
733.275	9.85
733.3	14.85
733.324	15.85
733.349	21.85
733.374	7.85
733.399	0.85
733.423	-1.15
733.448	6.85
733.473	0.85
733.497	7.85
733.522	-1.15
733.547	24.85
733.571	38.85
733.596	12.85
733.621	16.85
733.646	4.85
733.67	16.85
733.695	3.85
733.72	4.85
733.744	10.85
733.769	0.85
733.794	16.85
733.818	9.85
733.843	10.85
733.867	-8.15
733.892	6.85
733.917	16.85
733.941	11.85
733.966	-12.15
733.991	9.85
734.015	23.85
734.04	25.85
734.065	11.85
734.089	13.85
734.114	10.85
734.138	13.85
734.163	4.85
734.188	-0.15
734.212	6.85
734.237	11.85
734.261	11.85
734.286	-8.15
734.311	7.85
734.335	8.85
734.36	-1.15
734.384	16.85
734.409	11.85
734.434	3.85
734.458	23.85
734.483	6.85
734.507	8.85
734.532	4.85
734.556	6.85
734.581	-0.15
734.606	13.85
734.63	-0.15
734.655	8.85
734.679	14.85
734.704	0.85
734.728	-1.15
734.753	2.85
734.777	4.85
734.802	-1.15
734.826	6.85
734.851	4.85
734.876	19.85
734.9	-1.15
734.925	12.85
734.949	14.85
734.974	11.85
734.998	5.85
735.023	2.85
735.047	-11.15
735.072	21.85
735.096	4.85
735.121	16.85
735.145	-2.15
735.17	11.85
735.194	3.85
735.219	5.85
735.243	22.85
735.268	23.85
735.292	6.85
735.317	3.85
735.341	2.85
735.365	-4.15
735.39	12.85
735.414	15.85
735.439	9.85
735.463	15.85
735.488	10.85
735.512	13.85
735.537	11.85
735.561	0.85
735.586	9.85
735.61	10.85
735.634	-4.15
735.659	10.85
735.683	24.85
735.708	2.85
735.732	-5.15
735.757	-8.15
735.781	4.85
735.805	22.85
735.83	11.85
735.854	10.85
735.879	7.85
735.903	18.85
735.927	26.85
735.952	19.85
735.976	15.85
736.001	14.85
736.025	-0.15
736.049	-17.15
736.074	-0.15
736.098	11.85
736.123	13.85
736.147	8.85
736.171	-0.15
736.196	17.85
736.22	-0.15
736.244	6.85
736.269	6.85
736.293	6.85
736.317	-1.15
736.342	6.85
736.366	21.85
736.39	21.85
736.415	12.85
736.439	14.85
736.463	19.85
736.488	5.85
736.512	16.85
736.536	10.85
736.561	15.85
736.585	6.85
736.609	22.85
736.634	-5.15
736.658	8.85
736.682	7.85
736.707	-5.15
736.731	8.85
736.755	17.85
736.78	3.85
736.804	7.85
736.828	19.85
736.852	3.85
736.877	18.85
736.901	18.85
736.925	12.85
736.949	13.85
736.974	-7.15
736.998	-14.15
737.022	14.85
737.047	-2.15
737.071	-1.15
737.095	3.85
737.119	10.85
737.144	13.85
737.168	3.85
737.192	7.85
737.216	20.85
737.241	16.85
737.265	9.85
737.289	0.85
737.313	1.85
737.337	12.85
737.362	2.85
737.386	-3.15
737.41	21.85
737.434	2.85
737.459	3.85
737.483	12.85
737.507	19.85
737.531	15.85
737.555	11.85
737.58	16.85
737.604	9.85
737.628	-7.15
737.652	-5.15
737.676	-2.15
737.701	3.85
737.725	6.85
737.749	-0.15
737.773	-1.15
737.797	1.85
737.821	3.85
737.846	4.85
737.87	19.85
737.894	-6.15
737.918	-6.15
737.942	12.85
737.966	16.85
737.99	-2.15
738.015	1.85
738.039	11.85
738.063	-8.15
738.087	3.85
738.111	-3.15
738.135	30.85
738.159	9.85
738.184	0.85
738.208	4.85
738.232	10.85
738.256	17.85
738.28	10.85
738.304	21.85
738.328	7.85
738.352	16.85
738.376	6.85
738.4	10.85
738.425	16.85
738.449	-0.15
738.473	12.85
738.497	14.85
738.521	6.85
738.545	-5.15
738.569	-4.15
738.593	9.85
738.617	-3.15
738.641	-1.15
738.665	19.85
738.689	20.85
738.713	3.85
738.737	4.85
738.762	15.85
738.786	31.85
738.81	-10.15
738.834	11.85
738.858	-5.15
738.882	11.85
738.906	6.85
738.93	-2.15
738.954	4.85
738.978	25.85
739.002	-9.15
739.026	8.85
739.05	11.85
739.074	3.85
739.098	26.85
739.122	15.85
739.146	11.85
739.17	2.85
739.194	19.85
739.218	10.85
739.242	10.85
739.266	5.85
739.29	20.85
739.314	15.85
739.338	-0.15
739.362	12.85
739.386	6.85
739.41	2.85
739.434	2.85
739.458	23.85
739.482	-5.15
739.506	17.85
739.53	3.85
739.554	23.85
739.577	11.85
739.601	10.85
739.625	-5.15
739.649	9.85
739.673	0.85
739.697	23.85
739.721	10.85
739.745	23.85
739.769	9.85
739.793	28.85
739.817	19.85
739.841	-1.15
739.865	-0.15
739.889	-6.15
739.912	22.85
739.936	1.85
739.96	19.85
739.984	23.85
740.008	2.85
740.032	-9.15
740.056	1.85
740.08	-4.15
740.104	0.85
740.127	1.85
740.151	2.85
740.175	18.85
740.199	19.85
740.223	44.85
740.247	10.85
740.271	-1.15
740.295	4.85
740.318	-0.15
740.342	14.85
740.366	14.85
740.39	22.85
740.414	17.85
740.438	7.85
740.461	10.85
740.485	9.85
740.509	-9.15
740.533	6.85
740.557	3.85
740.581	8.85
740.604	-21.15
740.628	3.85
740.652	3.85
740.676	-3.15
740.7	3.85
740.723	-0.15
740.747	-5.15
740.771	-5.15
740.795	-11.15
740.819	12.85
740.842	11.85
740.866	18.85
740.89	13.85
740.914	6.85
740.938	-7.15
740.961	13.85
740.985	-6.15
741.009	7.85
741.033	12.85
741.056	6.85
741.08	-5.15
741.104	11.85
741.128	17.85
741.151	16.85
741.175	3.85
741.199	16.85
741.223	14.85
741.246	-0.15
741.27	7.85
741.294	7.85
741.318	-0.15
741.341	-2.15
741.365	8.85
741.389	20.85
741.413	15.85
741.436	15.85
741.46	8.85
741.484	2.85
741.507	6.85
741.531	29.85
741.555	18.85
741.579	6.85
741.602	13.85
741.626	10.85
741.65	15.85
741.673	18.85
741.697	12.85
741.721	9.85
741.744	-5.15
741.768	7.85
741.792	10.85
741.815	-0.15
741.839	11.85
741.863	17.85
741.886	4.85
741.91	3.85
741.934	13.85
741.957	-7.15
741.981	19.85
742.005	4.85
742.028	-5.15
742.052	3.85
742.075	15.85
742.099	8.85
742.123	-7.15
742.146	6.85
742.17	10.85
742.194	-5.15
742.217	-11.15
742.241	9.85
742.264	12.85
742.288	28.85
742.312	8.85
742.335	-0.15
742.359	4.85
742.382	11.85
742.406	19.85
742.43	1.85
742.453	2.85
742.477	3.85
742.5	-1.15
742.524	7.85
742.548	3.85
742.571	9.85
742.595	20.85
742.618	14.85
742.642	6.85
742.665	11.85
742.689	-4.15
742.712	3.85
742.736	8.85
742.76	6.85
742.783	-8.15
742.807	17.85
742.83	4.85
742.854	1.85
742.877	24.85
742.901	9.85
742.924	1.85
742.948	3.85
742.971	10.85
742.995	7.85
743.018	-11.15
743.042	3.85
743.065	3.85
743.089	-6.15
743.112	2.85
743.136	-4.15
743.159	-4.15
743.183	4.85
743.206	-3.15
743.23	-8.15
743.253	-11.15
743.277	7.85
743.3	2.85
743.324	1.85
743.347	-5.15
743.371	14.85
743.394	21.85
743.418	18.85
743.441	4.85
743.465	6.85
743.488	6.85
743.512	-7.15
743.535	10.85
743.558	8.85
743.582	8.85
743.605	6.85
743.629	14.85
743.652	12.85
743.676	-0.15
743.699	12.85
743.723	-0.15
743.746	19.85
743.769	5.85
743.793	16.85
743.816	2.85
743.84	18.85
743.863	1.85
743.886	13.85
743.91	10.85
743.933	10.85
743.957	7.85
743.98	-7.15
744.003	-4.15
744.027	5.85
744.05	-3.15
744.074	8.85
744.097	-16.15
744.12	2.85
744.144	-0.15
744.167	10.85
744.19	11.85
744.214	3.85
744.237	-16.15
744.26	11.85
744.284	-3.15
744.307	-26.15
744.331	2.85
744.354	-1.15
744.377	-0.15
744.401	2.85
744.424	1.85
744.447	-3.15
744.471	-8.15
