Data from HighRes_H2D2_15_04_11_07_2024_HR4C61891__90__15-05-43-442.txt Node

Date: Thu Nov 07 15:05:43 EST 2024
User: crc00042
Spectrometer: HR4C6189
Trigger mode: 4
Integration Time (sec): 1.000000E-1
Scans to average: 1
Electric dark correction enabled: true
Nonlinearity correction enabled: false
Boxcar width: 0
XAxis mode: Wavelengths
Number of Pixels in Spectrum: 3648
>>>>>Begin Spectral Data<<<<<
639.567	-53.38
639.602	-53.38
639.636	-53.38
639.67	-45.38
639.704	-14.38
639.738	-1.38
639.773	-1.38
639.807	-19.38
639.841	-0.38
639.875	7.62
639.909	3.62
639.943	-18.38
639.978	0.62
640.012	2.62
640.046	14.62
640.08	15.62
640.114	5.62
640.148	-9.38
640.182	-13.38
640.217	-11.38
640.251	17.62
640.285	13.62
640.319	-13.38
640.353	-5.38
640.387	1.62
640.421	2.62
640.455	2.62
640.49	-7.38
640.524	2.62
640.558	-6.38
640.592	-0.38
640.626	7.62
640.66	-2.38
640.694	-19.38
640.728	-1.38
640.762	9.62
640.796	11.62
640.83	18.62
640.865	4.62
640.899	-12.38
640.933	-1.38
640.967	-2.38
641.001	9.62
641.035	-2.38
641.069	-0.38
641.103	-4.38
641.137	-6.38
641.171	-3.38
641.205	13.62
641.239	2.62
641.273	13.62
641.307	9.62
641.341	-0.38
641.375	-17.38
641.409	-7.38
641.443	6.62
641.477	10.62
641.511	-7.38
641.545	-19.38
641.579	-2.38
641.614	11.62
641.648	4.62
641.682	-9.38
641.716	-3.38
641.75	14.62
641.784	1.62
641.818	-14.38
641.852	-4.38
641.886	-6.38
641.919	24.62
641.953	-1.38
641.987	-13.38
642.021	-11.38
642.055	13.62
642.089	9.62
642.123	-2.38
642.157	-13.38
642.191	-13.38
642.225	-0.38
642.259	4.62
642.293	25.62
642.327	7.62
642.361	8.62
642.395	17.62
642.429	12.62
642.463	10.62
642.497	15.62
642.531	5.62
642.565	-13.38
642.599	13.62
642.633	-13.38
642.666	8.62
642.7	14.62
642.734	9.62
642.768	8.62
642.802	-8.38
642.836	12.62
642.87	-7.38
642.904	9.62
642.938	14.62
642.972	9.62
643.005	25.62
643.039	12.62
643.073	9.62
643.107	-4.38
643.141	7.62
643.175	2.62
643.209	-4.38
643.243	-0.38
643.276	-0.38
643.31	-20.38
643.344	-8.38
643.378	-6.38
643.412	14.62
643.446	-8.38
643.48	-3.38
643.513	3.62
643.547	-2.38
643.581	-2.38
643.615	-0.38
643.649	-2.38
643.683	0.62
643.716	12.62
643.75	10.62
643.784	6.62
643.818	8.62
643.852	-6.38
643.886	1.62
643.919	-3.38
643.953	7.62
643.987	-1.38
644.021	-9.38
644.055	-10.38
644.088	-2.38
644.122	-8.38
644.156	3.62
644.19	0.62
644.224	3.62
644.257	14.62
644.291	18.62
644.325	16.62
644.359	5.62
644.392	22.62
644.426	0.62
644.46	5.62
644.494	4.62
644.527	-9.38
644.561	-0.38
644.595	-3.38
644.629	4.62
644.662	-9.38
644.696	12.62
644.73	-0.38
644.764	19.62
644.797	1.62
644.831	-1.38
644.865	-0.38
644.899	11.62
644.932	14.62
644.966	-1.38
645	-1.38
645.033	9.62
645.067	-8.38
645.101	-5.38
645.135	-12.38
645.168	-2.38
645.202	1.62
645.236	5.62
645.269	16.62
645.303	-8.38
645.337	-8.38
645.37	-4.38
645.404	11.62
645.438	6.62
645.471	-0.38
645.505	16.62
645.539	4.62
645.572	-8.38
645.606	1.62
645.64	-6.38
645.673	-0.38
645.707	17.62
645.741	-8.38
645.774	-13.38
645.808	-3.38
645.842	-1.38
645.875	-3.38
645.909	5.62
645.943	-2.38
645.976	2.62
646.01	12.62
646.043	8.62
646.077	1.62
646.111	8.62
646.144	15.62
646.178	13.62
646.212	-7.38
646.245	6.62
646.279	6.62
646.312	5.62
646.346	13.62
646.38	-16.38
646.413	7.62
646.447	8.62
646.48	-3.38
646.514	14.62
646.547	-0.38
646.581	9.62
646.615	-1.38
646.648	5.62
646.682	-7.38
646.715	14.62
646.749	10.62
646.782	-15.38
646.816	8.62
646.85	3.62
646.883	-4.38
646.917	10.62
646.95	5.62
646.984	-4.38
647.017	-11.38
647.051	1.62
647.084	-4.38
647.118	-3.38
647.151	-7.38
647.185	19.62
647.218	-8.38
647.252	5.62
647.285	-6.38
647.319	-9.38
647.353	6.62
647.386	22.62
647.42	-1.38
647.453	9.62
647.487	10.62
647.52	-2.38
647.553	11.62
647.587	0.62
647.62	-0.38
647.654	3.62
647.687	-5.38
647.721	-13.38
647.754	-11.38
647.788	5.62
647.821	1.62
647.855	13.62
647.888	10.62
647.922	16.62
647.955	7.62
647.989	-3.38
648.022	-3.38
648.055	14.62
648.089	6.62
648.122	23.62
648.156	0.62
648.189	2.62
648.223	-2.38
648.256	13.62
648.29	7.62
648.323	4.62
648.356	9.62
648.39	-2.38
648.423	3.62
648.457	1.62
648.49	5.62
648.523	11.62
648.557	-4.38
648.59	-5.38
648.624	6.62
648.657	6.62
648.69	12.62
648.724	18.62
648.757	7.62
648.791	1.62
648.824	3.62
648.857	26.62
648.891	1.62
648.924	-1.38
648.957	25.62
648.991	-1.38
649.024	10.62
649.057	4.62
649.091	-4.38
649.124	14.62
649.158	4.62
649.191	20.62
649.224	0.62
649.258	7.62
649.291	2.62
649.324	-0.38
649.358	-4.38
649.391	7.62
649.424	9.62
649.458	4.62
649.491	-20.38
649.524	-12.38
649.557	-6.38
649.591	-18.38
649.624	-6.38
649.657	-7.38
649.691	-1.38
649.724	0.62
649.757	-1.38
649.791	3.62
649.824	10.62
649.857	9.62
649.89	12.62
649.924	-1.38
649.957	-3.38
649.99	-15.38
650.023	-1.38
650.057	-16.38
650.09	13.62
650.123	8.62
650.157	9.62
650.19	18.62
650.223	-5.38
650.256	-2.38
650.29	-2.38
650.323	2.62
650.356	16.62
650.389	11.62
650.423	2.62
650.456	7.62
650.489	4.62
650.522	-0.38
650.555	21.62
650.589	16.62
650.622	16.62
650.655	0.62
650.688	-5.38
650.721	-9.38
650.755	10.62
650.788	13.62
650.821	4.62
650.854	9.62
650.887	1.62
650.921	-2.38
650.954	2.62
650.987	3.62
651.02	0.62
651.053	-13.38
651.087	-13.38
651.12	12.62
651.153	7.62
651.186	-3.38
651.219	-17.38
651.252	9.62
651.286	6.62
651.319	-12.38
651.352	10.62
651.385	1.62
651.418	1.62
651.451	16.62
651.484	6.62
651.518	-0.38
651.551	13.62
651.584	-2.38
651.617	14.62
651.65	-10.38
651.683	15.62
651.716	-0.38
651.749	-14.38
651.783	7.62
651.816	9.62
651.849	2.62
651.882	1.62
651.915	-13.38
651.948	-3.38
651.981	-0.38
652.014	-14.38
652.047	-2.38
652.08	-7.38
652.114	1.62
652.147	-0.38
652.18	6.62
652.213	16.62
652.246	-8.38
652.279	-1.38
652.312	7.62
652.345	7.62
652.378	3.62
652.411	25.62
652.444	5.62
652.477	-0.38
652.51	4.62
652.543	-20.38
652.576	-6.38
652.609	-20.38
652.642	1.62
652.675	12.62
652.709	1.62
652.742	7.62
652.775	8.62
652.808	9.62
652.841	16.62
652.874	12.62
652.907	0.62
652.94	8.62
652.973	-15.38
653.006	-1.38
653.039	10.62
653.072	2.62
653.105	9.62
653.138	-2.38
653.171	-5.38
653.204	1.62
653.237	9.62
653.27	13.62
653.303	14.62
653.336	17.62
653.368	3.62
653.401	-4.38
653.434	-13.38
653.467	1.62
653.5	-12.38
653.533	-9.38
653.566	11.62
653.599	1.62
653.632	24.62
653.665	6.62
653.698	-10.38
653.731	-14.38
653.764	2.62
653.797	0.62
653.83	-1.38
653.863	-7.38
653.896	4.62
653.929	10.62
653.961	17.62
653.994	3.62
654.027	-11.38
654.06	14.62
654.093	15.62
654.126	6.62
654.159	-10.38
654.192	13.62
654.225	-10.38
654.258	8.62
654.29	9.62
654.323	7.62
654.356	-9.38
654.389	-10.38
654.422	-5.38
654.455	2.62
654.488	12.62
654.521	-15.38
654.553	-14.38
654.586	6.62
654.619	9.62
654.652	-4.38
654.685	-5.38
654.718	4.62
654.751	3.62
654.783	-20.38
654.816	15.62
654.849	-1.38
654.882	-7.38
654.915	-0.38
654.948	2.62
654.98	10.62
655.013	5.62
655.046	-5.38
655.079	-7.38
655.112	-2.38
655.144	-8.38
655.177	8.62
655.21	5.62
655.243	14.62
655.276	11.62
655.308	8.62
655.341	-0.38
655.374	2.62
655.407	15.62
655.44	5.62
655.472	-12.38
655.505	8.62
655.538	22.62
655.571	-2.38
655.603	4.62
655.636	6.62
655.669	-19.38
655.702	-13.38
655.734	0.62
655.767	0.62
655.8	9.62
655.833	19.62
655.865	10.62
655.898	-11.38
655.931	10.62
655.964	19.62
655.996	5.62
656.029	28.62
656.062	42.62
656.095	48.62
656.127	72.62
656.16	197.62
656.193	615.62
656.225	956.62
656.258	558.62
656.291	202.62
656.324	174.62
656.356	344.62
656.389	780.62
656.422	688.62
656.454	220.62
656.487	95.62
656.52	28.62
656.552	19.62
656.585	11.62
656.618	15.62
656.65	15.62
656.683	10.62
656.716	6.62
656.748	-4.38
656.781	1.62
656.814	-5.38
656.846	0.62
656.879	15.62
656.912	7.62
656.944	-4.38
656.977	-7.38
657.01	8.62
657.042	9.62
657.075	15.62
657.108	-5.38
657.14	9.62
657.173	9.62
657.205	12.62
657.238	14.62
657.271	0.62
657.303	-7.38
657.336	4.62
657.369	-4.38
657.401	13.62
657.434	-3.38
657.466	1.62
657.499	10.62
657.532	8.62
657.564	9.62
657.597	-8.38
657.629	10.62
657.662	13.62
657.694	-1.38
657.727	-9.38
657.76	13.62
657.792	10.62
657.825	-2.38
657.857	-2.38
657.89	4.62
657.922	5.62
657.955	-16.38
657.987	-8.38
658.02	1.62
658.053	18.62
658.085	23.62
658.118	12.62
658.15	9.62
658.183	24.62
658.215	-4.38
658.248	10.62
658.28	0.62
658.313	5.62
658.345	12.62
658.378	8.62
658.41	-9.38
658.443	0.62
658.475	6.62
658.508	4.62
658.54	-0.38
658.573	-11.38
658.605	20.62
658.638	-5.38
658.67	-0.38
658.703	-9.38
658.735	-5.38
658.768	-0.38
658.8	-4.38
658.833	20.62
658.865	12.62
658.898	10.62
658.93	-21.38
658.963	0.62
658.995	2.62
659.028	6.62
659.06	-7.38
659.092	-8.38
659.125	13.62
659.157	7.62
659.19	14.62
659.222	0.62
659.255	0.62
659.287	-6.38
659.32	1.62
659.352	7.62
659.384	20.62
659.417	-1.38
659.449	9.62
659.482	1.62
659.514	-5.38
659.546	2.62
659.579	-19.38
659.611	8.62
659.644	-2.38
659.676	2.62
659.708	8.62
659.741	-10.38
659.773	5.62
659.806	-6.38
659.838	1.62
659.87	-4.38
659.903	-7.38
659.935	7.62
659.967	-4.38
660	3.62
660.032	-25.38
660.065	8.62
660.097	6.62
660.129	-3.38
660.162	-14.38
660.194	5.62
660.226	0.62
660.259	11.62
660.291	5.62
660.323	-8.38
660.356	2.62
660.388	-1.38
660.42	-6.38
660.453	15.62
660.485	19.62
660.517	10.62
660.55	22.62
660.582	-9.38
660.614	15.62
660.647	-0.38
660.679	-16.38
660.711	-1.38
660.743	-4.38
660.776	-8.38
660.808	14.62
660.84	-2.38
660.873	-2.38
660.905	-0.38
660.937	2.62
660.969	4.62
661.002	11.62
661.034	14.62
661.066	14.62
661.099	5.62
661.131	22.62
661.163	6.62
661.195	-2.38
661.228	16.62
661.26	1.62
661.292	2.62
661.324	-11.38
661.357	-8.38
661.389	12.62
661.421	8.62
661.453	2.62
661.485	3.62
661.518	5.62
661.55	-3.38
661.582	-2.38
661.614	-10.38
661.647	9.62
661.679	-3.38
661.711	-13.38
661.743	7.62
661.775	-2.38
661.808	-5.38
661.84	-5.38
661.872	-2.38
661.904	2.62
661.936	4.62
661.969	-3.38
662.001	5.62
662.033	-3.38
662.065	-11.38
662.097	-3.38
662.129	5.62
662.162	10.62
662.194	12.62
662.226	-1.38
662.258	-17.38
662.29	-11.38
662.322	-10.38
662.355	-16.38
662.387	9.62
662.419	2.62
662.451	20.62
662.483	8.62
662.515	1.62
662.547	-14.38
662.58	-3.38
662.612	-0.38
662.644	-5.38
662.676	-7.38
662.708	18.62
662.74	-10.38
662.772	-10.38
662.804	0.62
662.836	6.62
662.869	3.62
662.901	13.62
662.933	1.62
662.965	14.62
662.997	15.62
663.029	-8.38
663.061	1.62
663.093	-4.38
663.125	-1.38
663.157	-8.38
663.189	7.62
663.221	29.62
663.254	-8.38
663.286	-8.38
663.318	3.62
663.35	-2.38
663.382	3.62
663.414	11.62
663.446	-2.38
663.478	-20.38
663.51	19.62
663.542	0.62
663.574	2.62
663.606	-4.38
663.638	-4.38
663.67	-22.38
663.702	-24.38
663.734	-3.38
663.766	7.62
663.798	7.62
663.83	7.62
663.862	2.62
663.894	-2.38
663.926	-6.38
663.958	17.62
663.99	1.62
664.022	-4.38
664.054	24.62
664.086	-15.38
664.118	-8.38
664.15	-11.38
664.182	8.62
664.214	-5.38
664.246	6.62
664.278	14.62
664.31	11.62
664.342	5.62
664.374	3.62
664.406	2.62
664.438	0.62
664.47	25.62
664.502	5.62
664.534	-2.38
664.566	-18.38
664.598	2.62
664.63	5.62
664.662	19.62
664.693	14.62
664.725	12.62
664.757	6.62
664.789	-4.38
664.821	-8.38
664.853	11.62
664.885	0.62
664.917	3.62
664.949	-0.38
664.981	-3.38
665.013	5.62
665.045	-10.38
665.076	-11.38
665.108	5.62
665.14	-13.38
665.172	8.62
665.204	-8.38
665.236	19.62
665.268	37.62
665.3	-0.38
665.331	9.62
665.363	-5.38
665.395	-7.38
665.427	-1.38
665.459	10.62
665.491	-9.38
665.523	10.62
665.555	1.62
665.586	-13.38
665.618	7.62
665.65	-18.38
665.682	10.62
665.714	17.62
665.746	5.62
665.777	13.62
665.809	8.62
665.841	-1.38
665.873	-3.38
665.905	5.62
665.937	12.62
665.968	-3.38
666	9.62
666.032	19.62
666.064	0.62
666.096	0.62
666.127	8.62
666.159	5.62
666.191	6.62
666.223	0.62
666.255	17.62
666.286	10.62
666.318	-0.38
666.35	14.62
666.382	9.62
666.413	3.62
666.445	-7.38
666.477	-17.38
666.509	-8.38
666.54	8.62
666.572	-4.38
666.604	-0.38
666.636	-7.38
666.667	22.62
666.699	18.62
666.731	-1.38
666.763	1.62
666.794	8.62
666.826	20.62
666.858	-1.38
666.89	7.62
666.921	-0.38
666.953	0.62
666.985	6.62
667.017	18.62
667.048	6.62
667.08	1.62
667.112	-10.38
667.143	-8.38
667.175	-3.38
667.207	-9.38
667.238	2.62
667.27	-7.38
667.302	9.62
667.334	-2.38
667.365	9.62
667.397	2.62
667.429	-14.38
667.46	4.62
667.492	12.62
667.524	1.62
667.555	2.62
667.587	-13.38
667.619	-2.38
667.65	-9.38
667.682	5.62
667.714	0.62
667.745	10.62
667.777	16.62
667.808	9.62
667.84	8.62
667.872	3.62
667.903	32.62
667.935	-9.38
667.967	5.62
667.998	11.62
668.03	5.62
668.061	-13.38
668.093	-3.38
668.125	8.62
668.156	10.62
668.188	1.62
668.22	-12.38
668.251	0.62
668.283	13.62
668.314	16.62
668.346	-5.38
668.377	-6.38
668.409	-11.38
668.441	8.62
668.472	4.62
668.504	10.62
668.535	15.62
668.567	23.62
668.599	0.62
668.63	2.62
668.662	-6.38
668.693	9.62
668.725	-0.38
668.756	1.62
668.788	-2.38
668.819	-7.38
668.851	0.62
668.882	0.62
668.914	-12.38
668.946	-8.38
668.977	-9.38
669.009	2.62
669.04	-1.38
669.072	2.62
669.103	8.62
669.135	-19.38
669.166	0.62
669.198	2.62
669.229	-5.38
669.261	0.62
669.292	-8.38
669.324	11.62
669.355	19.62
669.387	0.62
669.418	2.62
669.45	-13.38
669.481	2.62
669.513	0.62
669.544	1.62
669.576	-10.38
669.607	10.62
669.639	9.62
669.67	-20.38
669.701	7.62
669.733	9.62
669.764	4.62
669.796	7.62
669.827	2.62
669.859	10.62
669.89	20.62
669.922	3.62
669.953	21.62
669.985	5.62
670.016	22.62
670.047	5.62
670.079	-7.38
670.11	2.62
670.142	-5.38
670.173	-6.38
670.204	19.62
670.236	8.62
670.267	-8.38
670.299	7.62
670.33	13.62
670.362	15.62
670.393	1.62
670.424	6.62
670.456	-14.38
670.487	2.62
670.518	-15.38
670.55	4.62
670.581	-6.38
670.613	-7.38
670.644	2.62
670.675	0.62
670.707	3.62
670.738	-7.38
670.769	9.62
670.801	-4.38
670.832	0.62
670.864	-4.38
670.895	11.62
670.926	-8.38
670.958	-1.38
670.989	-8.38
671.02	-19.38
671.052	-2.38
671.083	-4.38
671.114	-3.38
671.146	-2.38
671.177	1.62
671.208	-5.38
671.24	-14.38
671.271	-4.38
671.302	7.62
671.333	0.62
671.365	-7.38
671.396	2.62
671.427	13.62
671.459	17.62
671.49	8.62
671.521	9.62
671.553	5.62
671.584	9.62
671.615	7.62
671.646	6.62
671.678	4.62
671.709	-7.38
671.74	-4.38
671.771	8.62
671.803	8.62
671.834	5.62
671.865	-8.38
671.896	3.62
671.928	0.62
671.959	-1.38
671.99	3.62
672.021	11.62
672.053	-8.38
672.084	7.62
672.115	3.62
672.146	2.62
672.178	-1.38
672.209	-7.38
672.24	-8.38
672.271	22.62
672.303	-2.38
672.334	-2.38
672.365	-22.38
672.396	-9.38
672.427	-0.38
672.459	18.62
672.49	26.62
672.521	-8.38
672.552	12.62
672.583	11.62
672.615	1.62
672.646	10.62
672.677	0.62
672.708	-10.38
672.739	11.62
672.77	21.62
672.802	2.62
672.833	-17.38
672.864	-0.38
672.895	-10.38
672.926	-13.38
672.957	-16.38
672.989	2.62
673.02	8.62
673.051	5.62
673.082	4.62
673.113	-12.38
673.144	-0.38
673.175	-7.38
673.206	-9.38
673.238	-7.38
673.269	5.62
673.3	6.62
673.331	15.62
673.362	4.62
673.393	18.62
673.424	11.62
673.455	14.62
673.487	9.62
673.518	12.62
673.549	-7.38
673.58	5.62
673.611	14.62
673.642	0.62
673.673	-13.38
673.704	17.62
673.735	6.62
673.766	2.62
673.797	3.62
673.828	0.62
673.86	-17.38
673.891	-12.38
673.922	-12.38
673.953	14.62
673.984	5.62
674.015	2.62
674.046	11.62
674.077	14.62
674.108	13.62
674.139	12.62
674.17	6.62
674.201	2.62
674.232	3.62
674.263	-11.38
674.294	0.62
674.325	-9.38
674.356	0.62
674.387	6.62
674.418	13.62
674.449	0.62
674.48	-12.38
674.511	-6.38
674.542	-6.38
674.573	-14.38
674.604	14.62
674.635	13.62
674.666	14.62
674.697	5.62
674.728	-2.38
674.759	-5.38
674.79	-21.38
674.821	-9.38
674.852	8.62
674.883	0.62
674.914	-7.38
674.945	4.62
674.976	9.62
675.007	0.62
675.038	6.62
675.069	-17.38
675.1	2.62
675.131	6.62
675.162	-8.38
675.193	-9.38
675.224	1.62
675.254	18.62
675.285	11.62
675.316	12.62
675.347	9.62
675.378	-10.38
675.409	-10.38
675.44	26.62
675.471	6.62
675.502	11.62
675.533	4.62
675.564	-12.38
675.595	-4.38
675.625	5.62
675.656	-2.38
675.687	-2.38
675.718	-19.38
675.749	4.62
675.78	0.62
675.811	2.62
675.842	7.62
675.873	-4.38
675.903	-13.38
675.934	8.62
675.965	8.62
675.996	-19.38
676.027	5.62
676.058	-0.38
676.089	-11.38
676.119	-0.38
676.15	-6.38
676.181	1.62
676.212	-2.38
676.243	20.62
676.274	-6.38
676.304	14.62
676.335	-9.38
676.366	-11.38
676.397	12.62
676.428	1.62
676.459	18.62
676.489	18.62
676.52	1.62
676.551	0.62
676.582	-6.38
676.613	16.62
676.643	17.62
676.674	7.62
676.705	14.62
676.736	-2.38
676.767	10.62
676.797	10.62
676.828	0.62
676.859	7.62
676.89	1.62
676.92	5.62
676.951	20.62
676.982	9.62
677.013	-0.38
677.044	16.62
677.074	13.62
677.105	-6.38
677.136	16.62
677.167	19.62
677.197	14.62
677.228	8.62
677.259	-10.38
677.289	9.62
677.32	-0.38
677.351	-4.38
677.382	13.62
677.412	-4.38
677.443	2.62
677.474	3.62
677.505	-13.38
677.535	-2.38
677.566	0.62
677.597	-0.38
677.627	9.62
677.658	-3.38
677.689	-3.38
677.72	-5.38
677.75	-11.38
677.781	18.62
677.812	-3.38
677.842	6.62
677.873	-9.38
677.904	-7.38
677.934	4.62
677.965	2.62
677.996	-5.38
678.026	6.62
678.057	-11.38
678.088	-6.38
678.118	17.62
678.149	-4.38
678.18	4.62
678.21	-5.38
678.241	0.62
678.272	9.62
678.302	2.62
678.333	22.62
678.363	7.62
678.394	-5.38
678.425	7.62
678.455	11.62
678.486	21.62
678.517	7.62
678.547	4.62
678.578	-1.38
678.608	-10.38
678.639	5.62
678.67	0.62
678.7	-15.38
678.731	-4.38
678.761	2.62
678.792	11.62
678.823	14.62
678.853	10.62
678.884	-9.38
678.914	8.62
678.945	7.62
678.975	7.62
679.006	6.62
679.037	-16.38
679.067	4.62
679.098	-9.38
679.128	-0.38
679.159	-5.38
679.189	-0.38
679.22	-13.38
679.25	12.62
679.281	-10.38
679.312	-0.38
679.342	8.62
679.373	25.62
679.403	7.62
679.434	21.62
679.464	12.62
679.495	2.62
679.525	3.62
679.556	-20.38
679.586	10.62
679.617	13.62
679.647	0.62
679.678	8.62
679.708	-9.38
679.739	10.62
679.769	-1.38
679.8	3.62
679.83	9.62
679.861	10.62
679.891	-3.38
679.922	-0.38
679.952	4.62
679.983	12.62
680.013	5.62
680.044	-7.38
680.074	1.62
680.105	-8.38
680.135	12.62
680.165	9.62
680.196	-13.38
680.226	2.62
680.257	-2.38
680.287	-2.38
680.318	5.62
680.348	3.62
680.379	18.62
680.409	13.62
680.439	7.62
680.47	0.62
680.5	-2.38
680.531	-5.38
680.561	25.62
680.592	13.62
680.622	15.62
680.652	7.62
680.683	6.62
680.713	-5.38
680.744	-0.38
680.774	-9.38
680.804	28.62
680.835	-17.38
680.865	-10.38
680.896	14.62
680.926	12.62
680.956	4.62
680.987	7.62
681.017	6.62
681.047	1.62
681.078	-0.38
681.108	-10.38
681.139	-10.38
681.169	1.62
681.199	-10.38
681.23	-0.38
681.26	1.62
681.29	8.62
681.321	3.62
681.351	-2.38
681.381	-6.38
681.412	7.62
681.442	7.62
681.472	12.62
681.503	22.62
681.533	6.62
681.563	-11.38
681.594	13.62
681.624	6.62
681.654	6.62
681.685	-4.38
681.715	-6.38
681.745	1.62
681.775	0.62
681.806	-15.38
681.836	11.62
681.866	2.62
681.897	7.62
681.927	-3.38
681.957	-4.38
681.987	-6.38
682.018	-4.38
682.048	9.62
682.078	8.62
682.109	28.62
682.139	11.62
682.169	10.62
682.199	-1.38
682.23	9.62
682.26	20.62
682.29	1.62
682.32	-8.38
682.351	-13.38
682.381	1.62
682.411	3.62
682.441	1.62
682.472	-2.38
682.502	-12.38
682.532	-10.38
682.562	12.62
682.592	7.62
682.623	6.62
682.653	3.62
682.683	2.62
682.713	4.62
682.743	0.62
682.774	-7.38
682.804	2.62
682.834	5.62
682.864	-7.38
682.894	8.62
682.925	5.62
682.955	3.62
682.985	-15.38
683.015	4.62
683.045	10.62
683.076	-13.38
683.106	15.62
683.136	1.62
683.166	-10.38
683.196	11.62
683.226	5.62
683.257	-8.38
683.287	12.62
683.317	-8.38
683.347	-13.38
683.377	-0.38
683.407	9.62
683.437	13.62
683.468	14.62
683.498	-18.38
683.528	-3.38
683.558	3.62
683.588	-8.38
683.618	-8.38
683.648	-2.38
683.678	4.62
683.708	2.62
683.739	1.62
683.769	3.62
683.799	21.62
683.829	-0.38
683.859	10.62
683.889	-0.38
683.919	7.62
683.949	4.62
683.979	-5.38
684.009	-11.38
684.039	21.62
684.07	-1.38
684.1	14.62
684.13	11.62
684.16	12.62
684.19	5.62
684.22	-8.38
684.25	13.62
684.28	-2.38
684.31	14.62
684.34	19.62
684.37	-5.38
684.4	-13.38
684.43	-11.38
684.46	-4.38
684.49	-1.38
684.52	5.62
684.55	11.62
684.58	4.62
684.61	3.62
684.64	20.62
684.67	7.62
684.7	0.62
684.73	5.62
684.76	-5.38
684.79	6.62
684.82	8.62
684.85	4.62
684.88	6.62
684.91	12.62
684.94	9.62
684.97	-19.38
685	2.62
685.03	0.62
685.06	-2.38
685.09	1.62
685.12	13.62
685.15	10.62
685.18	8.62
685.21	7.62
685.24	10.62
685.27	14.62
685.3	-10.38
685.33	6.62
685.36	10.62
685.39	-0.38
685.42	-3.38
685.45	7.62
685.48	6.62
685.51	-2.38
685.54	-4.38
685.569	1.62
685.599	17.62
685.629	25.62
685.659	12.62
685.689	-7.38
685.719	4.62
685.749	-4.38
685.779	16.62
685.809	2.62
685.839	3.62
685.869	16.62
685.898	19.62
685.928	-2.38
685.958	-1.38
685.988	3.62
686.018	-0.38
686.048	1.62
686.078	8.62
686.108	15.62
686.137	-5.38
686.167	23.62
686.197	-6.38
686.227	1.62
686.257	26.62
686.287	29.62
686.317	9.62
686.346	-4.38
686.376	-13.38
686.406	3.62
686.436	19.62
686.466	1.62
686.496	5.62
686.525	-0.38
686.555	13.62
686.585	21.62
686.615	27.62
686.645	12.62
686.675	-4.38
686.704	5.62
686.734	9.62
686.764	3.62
686.794	4.62
686.824	-1.38
686.853	11.62
686.883	16.62
686.913	16.62
686.943	-1.38
686.973	7.62
687.002	7.62
687.032	21.62
687.062	17.62
687.092	18.62
687.121	1.62
687.151	-14.38
687.181	-2.38
687.211	10.62
687.24	4.62
687.27	5.62
687.3	2.62
687.33	13.62
687.359	-9.38
687.389	8.62
687.419	-2.38
687.449	9.62
687.478	0.62
687.508	4.62
687.538	0.62
687.568	0.62
687.597	-15.38
687.627	2.62
687.657	-0.38
687.686	10.62
687.716	20.62
687.746	-1.38
687.776	0.62
687.805	-9.38
687.835	5.62
687.865	20.62
687.894	24.62
687.924	11.62
687.954	1.62
687.983	3.62
688.013	12.62
688.043	9.62
688.072	-1.38
688.102	7.62
688.132	-5.38
688.161	-4.38
688.191	0.62
688.221	24.62
688.25	-4.38
688.28	10.62
688.31	0.62
688.339	-7.38
688.369	-2.38
688.399	-6.38
688.428	11.62
688.458	17.62
688.488	10.62
688.517	-2.38
688.547	8.62
688.576	39.62
688.606	27.62
688.636	-17.38
688.665	5.62
688.695	7.62
688.725	26.62
688.754	17.62
688.784	16.62
688.813	19.62
688.843	-2.38
688.873	4.62
688.902	-9.38
688.932	-0.38
688.961	17.62
688.991	16.62
689.02	26.62
689.05	10.62
689.08	0.62
689.109	13.62
689.139	5.62
689.168	-3.38
689.198	3.62
689.227	-6.38
689.257	19.62
689.287	17.62
689.316	8.62
689.346	-2.38
689.375	-8.38
689.405	-1.38
689.434	-5.38
689.464	10.62
689.493	10.62
689.523	-7.38
689.552	-12.38
689.582	11.62
689.611	2.62
689.641	14.62
689.67	6.62
689.7	6.62
689.73	10.62
689.759	-5.38
689.789	14.62
689.818	-10.38
689.848	-4.38
689.877	15.62
689.906	9.62
689.936	10.62
689.965	6.62
689.995	14.62
690.024	15.62
690.054	2.62
690.083	2.62
690.113	-1.38
690.142	0.62
690.172	-4.38
690.201	-3.38
690.231	7.62
690.26	12.62
690.29	3.62
690.319	19.62
690.348	-1.38
690.378	5.62
690.407	14.62
690.437	2.62
690.466	3.62
690.496	-3.38
690.525	-6.38
690.555	4.62
690.584	5.62
690.613	7.62
690.643	2.62
690.672	13.62
690.702	3.62
690.731	2.62
690.76	-2.38
690.79	11.62
690.819	-2.38
690.849	0.62
690.878	4.62
690.907	2.62
690.937	7.62
690.966	0.62
690.996	0.62
691.025	16.62
691.054	10.62
691.084	9.62
691.113	-4.38
691.142	7.62
691.172	5.62
691.201	8.62
691.23	-2.38
691.26	2.62
691.289	-1.38
691.319	2.62
691.348	9.62
691.377	15.62
691.407	6.62
691.436	22.62
691.465	13.62
691.495	1.62
691.524	1.62
691.553	0.62
691.583	13.62
691.612	18.62
691.641	3.62
691.67	22.62
691.7	0.62
691.729	-16.38
691.758	9.62
691.788	-2.38
691.817	6.62
691.846	-5.38
691.876	-13.38
691.905	6.62
691.934	9.62
691.963	14.62
691.993	6.62
692.022	-4.38
692.051	-11.38
692.081	20.62
692.11	20.62
692.139	3.62
692.168	0.62
692.198	30.62
692.227	14.62
692.256	6.62
692.285	4.62
692.315	16.62
692.344	24.62
692.373	6.62
692.402	-3.38
692.432	6.62
692.461	-2.38
692.49	-7.38
692.519	14.62
692.548	18.62
692.578	4.62
692.607	-5.38
692.636	-2.38
692.665	4.62
692.694	5.62
692.724	-9.38
692.753	15.62
692.782	24.62
692.811	1.62
692.84	8.62
692.87	-1.38
692.899	-4.38
692.928	-1.38
692.957	-1.38
692.986	6.62
693.016	8.62
693.045	9.62
693.074	25.62
693.103	11.62
693.132	8.62
693.161	4.62
693.191	-2.38
693.22	0.62
693.249	9.62
693.278	0.62
693.307	15.62
693.336	-10.38
693.365	-10.38
693.395	3.62
693.424	-0.38
693.453	18.62
693.482	15.62
693.511	2.62
693.54	18.62
693.569	15.62
693.598	22.62
693.628	25.62
693.657	23.62
693.686	26.62
693.715	12.62
693.744	14.62
693.773	15.62
693.802	1.62
693.831	7.62
693.86	14.62
693.889	6.62
693.919	13.62
693.948	-3.38
693.977	-4.38
694.006	-5.38
694.035	-13.38
694.064	0.62
694.093	12.62
694.122	16.62
694.151	6.62
694.18	-0.38
694.209	19.62
694.238	8.62
694.267	28.62
694.296	10.62
694.325	-9.38
694.354	8.62
694.383	11.62
694.412	11.62
694.441	-3.38
694.471	-6.38
694.5	6.62
694.529	9.62
694.558	21.62
694.587	25.62
694.616	18.62
694.645	7.62
694.674	18.62
694.703	2.62
694.732	2.62
694.761	15.62
694.79	25.62
694.819	-6.38
694.848	2.62
694.877	17.62
694.906	35.62
694.935	0.62
694.963	8.62
694.992	8.62
695.021	11.62
695.05	-1.38
695.079	8.62
695.108	13.62
695.137	23.62
695.166	10.62
695.195	-10.38
695.224	8.62
695.253	7.62
695.282	21.62
695.311	29.62
695.34	1.62
695.369	10.62
695.398	14.62
695.427	11.62
695.456	13.62
695.485	-3.38
695.513	5.62
695.542	1.62
695.571	5.62
695.6	20.62
695.629	-3.38
695.658	12.62
695.687	25.62
695.716	17.62
695.745	15.62
695.774	14.62
695.802	14.62
695.831	10.62
695.86	9.62
695.889	11.62
695.918	-4.38
695.947	4.62
695.976	5.62
696.005	16.62
696.033	1.62
696.062	19.62
696.091	-3.38
696.12	9.62
696.149	31.62
696.178	10.62
696.207	-3.38
696.235	-16.38
696.264	0.62
696.293	2.62
696.322	6.62
696.351	19.62
696.38	9.62
696.408	5.62
696.437	8.62
696.466	14.62
696.495	22.62
696.524	10.62
696.553	18.62
696.581	18.62
696.61	1.62
696.639	2.62
696.668	4.62
696.697	-6.38
696.725	2.62
696.754	3.62
696.783	5.62
696.812	6.62
696.84	20.62
696.869	13.62
696.898	-2.38
696.927	1.62
696.956	18.62
696.984	-6.38
697.013	11.62
697.042	-3.38
697.071	5.62
697.099	12.62
697.128	8.62
697.157	12.62
697.186	19.62
697.214	-0.38
697.243	-0.38
697.272	-2.38
697.301	5.62
697.329	19.62
697.358	16.62
697.387	24.62
697.415	21.62
697.444	18.62
697.473	20.62
697.502	9.62
697.53	12.62
697.559	16.62
697.588	6.62
697.616	-2.38
697.645	-0.38
697.674	11.62
697.703	9.62
697.731	7.62
697.76	9.62
697.789	12.62
697.817	8.62
697.846	14.62
697.875	-1.38
697.903	13.62
697.932	16.62
697.961	6.62
697.989	10.62
698.018	18.62
698.047	7.62
698.075	5.62
698.104	-0.38
698.133	-6.38
698.161	-6.38
698.19	5.62
698.218	3.62
698.247	1.62
698.276	1.62
698.304	15.62
698.333	4.62
698.362	-5.38
698.39	0.62
698.419	5.62
698.447	8.62
698.476	-6.38
698.505	13.62
698.533	22.62
698.562	19.62
698.591	5.62
698.619	-14.38
698.648	8.62
698.676	12.62
698.705	-1.38
698.733	-3.38
698.762	6.62
698.791	20.62
698.819	4.62
698.848	12.62
698.876	28.62
698.905	13.62
698.933	13.62
698.962	11.62
698.991	9.62
699.019	24.62
699.048	-3.38
699.076	17.62
699.105	-3.38
699.133	-6.38
699.162	4.62
699.19	0.62
699.219	16.62
699.248	-0.38
699.276	2.62
699.305	2.62
699.333	-1.38
699.362	-3.38
699.39	6.62
699.419	2.62
699.447	8.62
699.476	-4.38
699.504	1.62
699.533	9.62
699.561	-3.38
699.59	13.62
699.618	6.62
699.647	-3.38
699.675	-4.38
699.704	8.62
699.732	7.62
699.761	6.62
699.789	3.62
699.818	10.62
699.846	10.62
699.874	4.62
699.903	4.62
699.931	2.62
699.96	13.62
699.988	7.62
700.017	-6.38
700.045	1.62
700.074	12.62
700.102	6.62
700.13	14.62
700.159	9.62
700.187	11.62
700.216	-3.38
700.244	-1.38
700.273	-9.38
700.301	6.62
700.329	2.62
700.358	2.62
700.386	-3.38
700.415	-2.38
700.443	7.62
700.472	8.62
700.5	17.62
700.528	19.62
700.557	4.62
700.585	-3.38
700.614	-15.38
700.642	9.62
700.67	15.62
700.699	13.62
700.727	12.62
700.755	-2.38
700.784	-2.38
700.812	-6.38
700.841	6.62
700.869	0.62
700.897	6.62
700.926	0.62
700.954	15.62
700.982	10.62
701.011	-2.38
701.039	5.62
701.067	1.62
701.096	19.62
701.124	-5.38
701.152	4.62
701.181	8.62
701.209	-1.38
701.237	14.62
701.266	6.62
701.294	10.62
701.322	2.62
701.351	23.62
701.379	11.62
701.407	0.62
701.435	-3.38
701.464	14.62
701.492	15.62
701.52	6.62
701.549	5.62
701.577	-9.38
701.605	1.62
701.634	6.62
701.662	14.62
701.69	-10.38
701.718	-7.38
701.747	13.62
701.775	-9.38
701.803	-12.38
701.831	2.62
701.86	-2.38
701.888	6.62
701.916	14.62
701.944	8.62
701.973	0.62
702.001	2.62
702.029	-1.38
702.057	-0.38
702.086	-4.38
702.114	-6.38
702.142	-1.38
702.17	8.62
702.199	1.62
702.227	6.62
702.255	1.62
702.283	-4.38
702.311	12.62
702.34	0.62
702.368	-11.38
702.396	2.62
702.424	-0.38
702.452	-0.38
702.481	-1.38
702.509	-7.38
702.537	6.62
702.565	2.62
702.593	-13.38
702.621	6.62
702.65	10.62
702.678	8.62
702.706	20.62
702.734	7.62
702.762	12.62
702.79	6.62
702.819	5.62
702.847	6.62
702.875	8.62
702.903	9.62
702.931	0.62
702.959	27.62
702.988	14.62
703.016	-11.38
703.044	-8.38
703.072	4.62
703.1	-3.38
703.128	3.62
703.156	0.62
703.184	-8.38
703.212	24.62
703.241	14.62
703.269	6.62
703.297	2.62
703.325	4.62
703.353	1.62
703.381	-8.38
703.409	-6.38
703.437	-2.38
703.465	4.62
703.493	-7.38
703.522	-3.38
703.55	9.62
703.578	6.62
703.606	6.62
703.634	0.62
703.662	-7.38
703.69	4.62
703.718	13.62
703.746	28.62
703.774	6.62
703.802	10.62
703.83	-4.38
703.858	6.62
703.886	1.62
703.914	5.62
703.942	14.62
703.97	12.62
703.998	-5.38
704.027	6.62
704.055	7.62
704.083	12.62
704.111	-2.38
704.139	18.62
704.167	9.62
704.195	-3.38
704.223	-18.38
704.251	-18.38
704.279	18.62
704.307	-7.38
704.335	-7.38
704.363	-1.38
704.391	-18.38
704.419	-7.38
704.447	-10.38
704.475	6.62
704.503	-16.38
704.531	23.62
704.558	12.62
704.586	10.62
704.614	-2.38
704.642	5.62
704.67	-13.38
704.698	-10.38
704.726	-7.38
704.754	-9.38
704.782	-9.38
704.81	0.62
704.838	27.62
704.866	4.62
704.894	-12.38
704.922	-12.38
704.95	20.62
704.978	28.62
705.006	2.62
705.034	20.62
705.061	-6.38
705.089	0.62
705.117	-9.38
705.145	-10.38
705.173	6.62
705.201	-2.38
705.229	14.62
705.257	-4.38
705.285	15.62
705.313	1.62
705.34	-5.38
705.368	-1.38
705.396	12.62
705.424	-6.38
705.452	-2.38
705.48	-9.38
705.508	0.62
705.536	0.62
705.563	-18.38
705.591	-4.38
705.619	-2.38
705.647	10.62
705.675	2.62
705.703	12.62
705.731	13.62
705.758	21.62
705.786	10.62
705.814	15.62
705.842	19.62
705.87	14.62
705.898	6.62
705.925	-5.38
705.953	2.62
705.981	5.62
706.009	10.62
706.037	8.62
706.065	-9.38
706.092	-15.38
706.12	-2.38
706.148	3.62
706.176	0.62
706.204	26.62
706.231	10.62
706.259	-6.38
706.287	-3.38
706.315	15.62
706.342	7.62
706.37	15.62
706.398	8.62
706.426	4.62
706.454	8.62
706.481	5.62
706.509	-3.38
706.537	-6.38
706.565	-1.38
706.592	15.62
706.62	8.62
706.648	4.62
706.676	-10.38
706.703	7.62
706.731	0.62
706.759	-15.38
706.787	5.62
706.814	11.62
706.842	3.62
706.87	3.62
706.897	6.62
706.925	-3.38
706.953	16.62
706.981	14.62
707.008	12.62
707.036	1.62
707.064	-5.38
707.091	-9.38
707.119	12.62
707.147	5.62
707.174	-4.38
707.202	1.62
707.23	-4.38
707.258	10.62
707.285	-7.38
707.313	-6.38
707.341	-6.38
707.368	-11.38
707.396	-4.38
707.424	32.62
707.451	14.62
707.479	12.62
707.507	5.62
707.534	-7.38
707.562	6.62
707.59	19.62
707.617	1.62
707.645	6.62
707.672	10.62
707.7	6.62
707.728	1.62
707.755	2.62
707.783	8.62
707.811	22.62
707.838	2.62
707.866	-0.38
707.893	15.62
707.921	-10.38
707.949	-30.38
707.976	0.62
708.004	5.62
708.031	-4.38
708.059	-12.38
708.087	0.62
708.114	-9.38
708.142	-2.38
708.169	-4.38
708.197	-12.38
708.225	2.62
708.252	-8.38
708.28	4.62
708.307	0.62
708.335	12.62
708.362	-0.38
708.39	-12.38
708.418	1.62
708.445	-11.38
708.473	-7.38
708.5	-6.38
708.528	11.62
708.555	-0.38
708.583	5.62
708.61	5.62
708.638	5.62
708.665	-7.38
708.693	-13.38
708.72	-18.38
708.748	0.62
708.776	6.62
708.803	12.62
708.831	14.62
708.858	17.62
708.886	3.62
708.913	13.62
708.941	-11.38
708.968	12.62
708.996	-1.38
709.023	31.62
709.051	6.62
709.078	-2.38
709.105	2.62
709.133	-6.38
709.16	1.62
709.188	6.62
709.215	-0.38
709.243	-11.38
709.27	-3.38
709.298	4.62
709.325	-17.38
709.353	-1.38
709.38	5.62
709.408	5.62
709.435	13.62
709.462	-7.38
709.49	3.62
709.517	-5.38
709.545	-5.38
709.572	-0.38
709.6	10.62
709.627	6.62
709.655	1.62
709.682	-0.38
709.709	2.62
709.737	-0.38
709.764	-7.38
709.792	3.62
709.819	9.62
709.846	-0.38
709.874	-1.38
709.901	0.62
709.929	5.62
709.956	2.62
709.983	-10.38
710.011	2.62
710.038	0.62
710.066	-5.38
710.093	14.62
710.12	15.62
710.148	2.62
710.175	-4.38
710.202	-9.38
710.23	-3.38
710.257	-5.38
710.284	1.62
710.312	2.62
710.339	14.62
710.366	4.62
710.394	-8.38
710.421	-6.38
710.448	-1.38
710.476	-10.38
710.503	-5.38
710.53	8.62
710.558	10.62
710.585	7.62
710.612	2.62
710.64	9.62
710.667	0.62
710.694	-4.38
710.722	12.62
710.749	11.62
710.776	0.62
710.804	26.62
710.831	-5.38
710.858	-10.38
710.885	0.62
710.913	5.62
710.94	18.62
710.967	12.62
710.995	-1.38
711.022	0.62
711.049	1.62
711.076	-6.38
711.104	13.62
711.131	-4.38
711.158	1.62
711.185	4.62
711.213	-20.38
711.24	-2.38
711.267	2.62
711.294	10.62
711.322	15.62
711.349	0.62
711.376	-5.38
711.403	13.62
711.431	-22.38
711.458	4.62
711.485	-6.38
711.512	5.62
711.54	0.62
711.567	-1.38
711.594	-16.38
711.621	-8.38
711.648	17.62
711.676	4.62
711.703	-4.38
711.73	-6.38
711.757	1.62
711.784	-1.38
711.812	-4.38
711.839	0.62
711.866	-6.38
711.893	-2.38
711.92	32.62
711.947	23.62
711.975	22.62
712.002	-13.38
712.029	18.62
712.056	5.62
712.083	-0.38
712.11	-10.38
712.138	6.62
712.165	-5.38
712.192	8.62
712.219	-7.38
712.246	-13.38
712.273	-3.38
712.3	-4.38
712.328	9.62
712.355	2.62
712.382	-14.38
712.409	12.62
712.436	-10.38
712.463	8.62
712.49	14.62
712.517	5.62
712.544	13.62
712.572	5.62
712.599	1.62
712.626	1.62
712.653	5.62
712.68	0.62
712.707	2.62
712.734	-4.38
712.761	8.62
712.788	10.62
712.815	4.62
712.842	8.62
712.87	2.62
712.897	-0.38
712.924	1.62
712.951	9.62
712.978	22.62
713.005	9.62
713.032	11.62
713.059	-13.38
713.086	-6.38
713.113	-2.38
713.14	-7.38
713.167	2.62
713.194	4.62
713.221	-2.38
713.248	12.62
713.275	4.62
713.302	-11.38
713.329	15.62
713.356	5.62
713.383	-0.38
713.41	16.62
713.437	-8.38
713.464	5.62
713.491	-0.38
713.518	-4.38
713.545	6.62
713.572	7.62
713.599	22.62
713.626	5.62
713.653	16.62
713.68	1.62
713.707	-4.38
713.734	9.62
713.761	1.62
713.788	5.62
713.815	12.62
713.842	4.62
713.869	0.62
713.896	9.62
713.923	10.62
713.95	-4.38
713.977	-6.38
714.004	1.62
714.031	3.62
714.058	1.62
714.085	2.62
714.112	19.62
714.139	9.62
714.165	-2.38
714.192	-17.38
714.219	14.62
714.246	1.62
714.273	4.62
714.3	5.62
714.327	15.62
714.354	2.62
714.381	6.62
714.408	8.62
714.435	5.62
714.461	2.62
714.488	16.62
714.515	-13.38
714.542	-22.38
714.569	-8.38
714.596	-2.38
714.623	8.62
714.65	-1.38
714.677	-7.38
714.703	-1.38
714.73	-2.38
714.757	1.62
714.784	-5.38
714.811	5.62
714.838	-7.38
714.865	-14.38
714.891	21.62
714.918	16.62
714.945	-17.38
714.972	2.62
714.999	14.62
715.026	5.62
715.052	14.62
715.079	6.62
715.106	1.62
715.133	4.62
715.16	-8.38
715.187	2.62
715.213	5.62
715.24	-2.38
715.267	1.62
715.294	2.62
715.321	0.62
715.347	4.62
715.374	-2.38
715.401	-4.38
715.428	-2.38
715.455	9.62
715.481	-15.38
715.508	10.62
715.535	-6.38
715.562	30.62
715.588	14.62
715.615	1.62
715.642	5.62
715.669	12.62
715.695	0.62
715.722	6.62
715.749	16.62
715.776	33.62
715.802	-2.38
715.829	4.62
715.856	-3.38
715.883	7.62
715.909	-2.38
715.936	-1.38
715.963	0.62
715.99	-7.38
716.016	-6.38
716.043	-1.38
716.07	-6.38
716.096	-3.38
716.123	10.62
716.15	13.62
716.177	-3.38
716.203	16.62
716.23	9.62
716.257	19.62
716.283	11.62
716.31	-0.38
716.337	11.62
716.363	13.62
716.39	5.62
716.417	4.62
716.443	7.62
716.47	21.62
716.497	21.62
716.523	17.62
716.55	13.62
716.577	13.62
716.603	16.62
716.63	9.62
716.657	26.62
716.683	-7.38
716.71	-13.38
716.737	-5.38
716.763	8.62
716.79	2.62
716.817	1.62
716.843	-13.38
716.87	4.62
716.897	7.62
716.923	26.62
716.95	4.62
716.976	4.62
717.003	1.62
717.03	9.62
717.056	21.62
717.083	-1.38
717.109	4.62
717.136	8.62
717.163	-5.38
717.189	11.62
717.216	1.62
717.242	16.62
717.269	7.62
717.296	4.62
717.322	-5.38
717.349	24.62
717.375	13.62
717.402	-0.38
717.428	-0.38
717.455	5.62
717.481	7.62
717.508	26.62
717.535	11.62
717.561	8.62
717.588	-6.38
717.614	-1.38
717.641	7.62
717.667	7.62
717.694	2.62
717.72	3.62
717.747	-0.38
717.773	-1.38
717.8	8.62
717.826	1.62
717.853	-6.38
717.88	6.62
717.906	8.62
717.933	11.62
717.959	1.62
717.986	-2.38
718.012	1.62
718.039	9.62
718.065	3.62
718.092	-0.38
718.118	-6.38
718.144	-2.38
718.171	19.62
718.197	22.62
718.224	2.62
718.25	8.62
718.277	6.62
718.303	13.62
718.33	2.62
718.356	-4.38
718.383	-7.38
718.409	-10.38
718.436	2.62
718.462	8.62
718.489	14.62
718.515	16.62
718.541	21.62
718.568	15.62
718.594	7.62
718.621	16.62
718.647	-2.38
718.674	18.62
718.7	12.62
718.726	-8.38
718.753	-8.38
718.779	6.62
718.806	4.62
718.832	-3.38
718.858	1.62
718.885	-3.38
718.911	1.62
718.938	-0.38
718.964	-9.38
718.99	13.62
719.017	10.62
719.043	0.62
719.07	1.62
719.096	-5.38
719.122	15.62
719.149	2.62
719.175	2.62
719.201	17.62
719.228	1.62
719.254	4.62
719.281	-8.38
719.307	-3.38
719.333	3.62
719.36	16.62
719.386	11.62
719.412	6.62
719.439	-15.38
719.465	-5.38
719.491	-5.38
719.518	7.62
719.544	1.62
719.57	13.62
719.597	15.62
719.623	3.62
719.649	12.62
719.675	12.62
719.702	14.62
719.728	13.62
719.754	-3.38
719.781	0.62
719.807	4.62
719.833	12.62
719.86	3.62
719.886	-2.38
719.912	7.62
719.938	5.62
719.965	2.62
719.991	10.62
720.017	-4.38
720.044	-15.38
720.07	-3.38
720.096	14.62
720.122	6.62
720.149	16.62
720.175	22.62
720.201	0.62
720.227	-2.38
720.254	-2.38
720.28	7.62
720.306	-4.38
720.332	14.62
720.359	11.62
720.385	9.62
720.411	12.62
720.437	14.62
720.463	0.62
720.49	14.62
720.516	-2.38
720.542	-16.38
720.568	11.62
720.595	14.62
720.621	15.62
720.647	15.62
720.673	13.62
720.699	8.62
720.725	10.62
720.752	1.62
720.778	1.62
720.804	9.62
720.83	16.62
720.856	-5.38
720.883	4.62
720.909	2.62
720.935	9.62
720.961	2.62
720.987	-5.38
721.013	3.62
721.04	-2.38
721.066	1.62
721.092	9.62
721.118	17.62
721.144	9.62
721.17	17.62
721.196	13.62
721.223	8.62
721.249	1.62
721.275	7.62
721.301	12.62
721.327	16.62
721.353	8.62
721.379	13.62
721.405	13.62
721.432	24.62
721.458	-2.38
721.484	19.62
721.51	-3.38
721.536	14.62
721.562	5.62
721.588	7.62
721.614	-0.38
721.64	4.62
721.666	6.62
721.693	4.62
721.719	-9.38
721.745	-16.38
721.771	-2.38
721.797	-7.38
721.823	-6.38
721.849	14.62
721.875	9.62
721.901	14.62
721.927	2.62
721.953	3.62
721.979	17.62
722.005	15.62
722.031	3.62
722.057	4.62
722.083	12.62
722.109	6.62
722.135	8.62
722.161	14.62
722.187	-1.38
722.214	1.62
722.24	13.62
722.266	-5.38
722.292	9.62
722.318	3.62
722.344	5.62
722.37	6.62
722.396	5.62
722.422	8.62
722.448	0.62
722.474	-16.38
722.5	25.62
722.526	0.62
722.552	3.62
722.578	14.62
722.603	6.62
722.629	-7.38
722.655	7.62
722.681	-6.38
722.707	6.62
722.733	-0.38
722.759	-2.38
722.785	21.62
722.811	4.62
722.837	-2.38
722.863	9.62
722.889	17.62
722.915	13.62
722.941	-2.38
722.967	2.62
722.993	17.62
723.019	5.62
723.045	22.62
723.071	17.62
723.097	9.62
723.122	16.62
723.148	1.62
723.174	-18.38
723.2	-0.38
723.226	7.62
723.252	16.62
723.278	-7.38
723.304	-13.38
723.33	-2.38
723.356	2.62
723.381	-1.38
723.407	-12.38
723.433	12.62
723.459	5.62
723.485	10.62
723.511	21.62
723.537	9.62
723.563	0.62
723.588	-0.38
723.614	15.62
723.64	-1.38
723.666	2.62
723.692	4.62
723.718	9.62
723.744	22.62
723.769	13.62
723.795	7.62
723.821	10.62
723.847	2.62
723.873	1.62
723.899	15.62
723.924	-1.38
723.95	6.62
723.976	-1.38
724.002	6.62
724.028	3.62
724.053	-11.38
724.079	5.62
724.105	0.62
724.131	8.62
724.157	8.62
724.182	14.62
724.208	10.62
724.234	-5.38
724.26	-12.38
724.286	0.62
724.311	-1.38
724.337	-1.38
724.363	-6.38
724.389	4.62
724.415	0.62
724.44	15.62
724.466	5.62
724.492	-6.38
724.518	14.62
724.543	8.62
724.569	5.62
724.595	4.62
724.621	-2.38
724.646	-2.38
724.672	3.62
724.698	-5.38
724.723	3.62
724.749	17.62
724.775	13.62
724.801	7.62
724.826	-5.38
724.852	-4.38
724.878	8.62
724.904	-1.38
724.929	-2.38
724.955	-7.38
724.981	-0.38
725.006	-1.38
725.032	8.62
725.058	6.62
725.083	16.62
725.109	2.62
725.135	-2.38
725.161	2.62
725.186	4.62
725.212	8.62
725.238	8.62
725.263	-9.38
725.289	-15.38
725.315	5.62
725.34	-3.38
725.366	3.62
725.392	7.62
725.417	20.62
725.443	7.62
725.468	9.62
725.494	4.62
725.52	11.62
725.545	1.62
725.571	-0.38
725.597	8.62
725.622	10.62
725.648	9.62
725.674	9.62
725.699	5.62
725.725	8.62
725.75	8.62
725.776	-8.38
725.802	4.62
725.827	4.62
725.853	-3.38
725.878	6.62
725.904	11.62
725.93	-0.38
725.955	-4.38
725.981	-5.38
726.006	7.62
726.032	10.62
726.057	-0.38
726.083	6.62
726.109	5.62
726.134	8.62
726.16	-6.38
726.185	8.62
726.211	3.62
726.236	3.62
726.262	2.62
726.288	-7.38
726.313	21.62
726.339	6.62
726.364	16.62
726.39	17.62
726.415	-4.38
726.441	-2.38
726.466	-7.38
726.492	-9.38
726.517	8.62
726.543	1.62
726.568	-7.38
726.594	-4.38
726.619	-1.38
726.645	5.62
726.67	2.62
726.696	9.62
726.721	6.62
726.747	-6.38
726.772	7.62
726.798	6.62
726.823	8.62
726.849	15.62
726.874	7.62
726.9	16.62
726.925	1.62
726.951	1.62
726.976	27.62
727.002	10.62
727.027	4.62
727.053	16.62
727.078	8.62
727.104	12.62
727.129	0.62
727.155	4.62
727.18	17.62
727.205	9.62
727.231	-0.38
727.256	0.62
727.282	-9.38
727.307	17.62
727.333	11.62
727.358	0.62
727.383	-15.38
727.409	-2.38
727.434	5.62
727.46	4.62
727.485	-2.38
727.511	-2.38
727.536	-5.38
727.561	0.62
727.587	-4.38
727.612	-4.38
727.637	15.62
727.663	9.62
727.688	9.62
727.714	-2.38
727.739	0.62
727.764	-8.38
727.79	5.62
727.815	5.62
727.841	26.62
727.866	-3.38
727.891	19.62
727.917	1.62
727.942	1.62
727.967	3.62
727.993	-18.38
728.018	-2.38
728.043	-3.38
728.069	4.62
728.094	8.62
728.119	8.62
728.145	14.62
728.17	5.62
728.195	-5.38
728.221	8.62
728.246	1.62
728.271	6.62
728.297	-6.38
728.322	-1.38
728.347	6.62
728.373	-3.38
728.398	8.62
728.423	-6.38
728.448	6.62
728.474	20.62
728.499	13.62
728.524	9.62
728.55	-3.38
728.575	-0.38
728.6	1.62
728.625	-0.38
728.651	11.62
728.676	8.62
728.701	9.62
728.727	12.62
728.752	17.62
728.777	8.62
728.802	1.62
728.828	2.62
728.853	-6.38
728.878	-11.38
728.903	-5.38
728.929	-12.38
728.954	-0.38
728.979	12.62
729.004	3.62
729.03	-5.38
729.055	6.62
729.08	-5.38
729.105	-12.38
729.13	10.62
729.156	17.62
729.181	9.62
729.206	0.62
729.231	1.62
729.256	11.62
729.282	-0.38
729.307	-9.38
729.332	-8.38
729.357	-0.38
729.382	0.62
729.408	7.62
729.433	4.62
729.458	10.62
729.483	9.62
729.508	24.62
729.533	4.62
729.559	13.62
729.584	-9.38
729.609	6.62
729.634	18.62
729.659	3.62
729.684	1.62
729.71	20.62
729.735	7.62
729.76	4.62
729.785	5.62
729.81	15.62
729.835	1.62
729.86	5.62
729.886	6.62
729.911	4.62
729.936	-3.38
729.961	-3.38
729.986	-8.38
730.011	1.62
730.036	4.62
730.061	-6.38
730.086	3.62
730.112	1.62
730.137	20.62
730.162	5.62
730.187	1.62
730.212	9.62
730.237	-5.38
730.262	15.62
730.287	12.62
730.312	24.62
730.337	13.62
730.362	13.62
730.387	-0.38
730.413	-17.38
730.438	-7.38
730.463	-7.38
730.488	-14.38
730.513	12.62
730.538	6.62
730.563	18.62
730.588	15.62
730.613	24.62
730.638	12.62
730.663	2.62
730.688	22.62
730.713	15.62
730.738	18.62
730.763	14.62
730.788	-20.38
730.813	0.62
730.838	-0.38
730.863	1.62
730.888	-5.38
730.913	-4.38
730.938	-6.38
730.963	8.62
730.988	6.62
731.013	30.62
731.038	4.62
731.063	-15.38
731.088	6.62
731.113	-1.38
731.138	4.62
731.163	11.62
731.188	-1.38
731.213	-1.38
731.238	18.62
731.263	4.62
731.288	8.62
731.313	20.62
731.338	9.62
731.363	-3.38
731.388	2.62
731.413	-11.38
731.438	23.62
731.463	0.62
731.487	17.62
731.512	-2.38
731.537	-8.38
731.562	1.62
731.587	7.62
731.612	-10.38
731.637	21.62
731.662	-3.38
731.687	-0.38
731.712	-1.38
731.737	7.62
731.762	7.62
731.786	15.62
731.811	4.62
731.836	5.62
731.861	-1.38
731.886	4.62
731.911	9.62
731.936	26.62
731.961	14.62
731.986	1.62
732.01	4.62
732.035	5.62
732.06	24.62
732.085	8.62
732.11	4.62
732.135	-7.38
732.16	-0.38
732.184	5.62
732.209	14.62
732.234	18.62
732.259	10.62
732.284	28.62
732.309	-4.38
732.334	-7.38
732.358	-24.38
732.383	-8.38
732.408	-2.38
732.433	11.62
732.458	-2.38
732.482	7.62
732.507	0.62
732.532	8.62
732.557	6.62
732.582	14.62
732.607	-9.38
732.631	-10.38
732.656	-3.38
732.681	-2.38
732.706	-3.38
732.73	11.62
732.755	2.62
732.78	-3.38
732.805	4.62
732.83	6.62
732.854	12.62
732.879	13.62
732.904	16.62
732.929	3.62
732.953	12.62
732.978	3.62
733.003	7.62
733.028	5.62
733.052	7.62
733.077	14.62
733.102	12.62
733.127	-9.38
733.151	0.62
733.176	8.62
733.201	12.62
733.226	-9.38
733.25	4.62
733.275	0.62
733.3	0.62
733.324	17.62
733.349	8.62
733.374	20.62
733.399	17.62
733.423	-11.38
733.448	-5.38
733.473	-6.38
733.497	-3.38
733.522	-2.38
733.547	5.62
733.571	29.62
733.596	7.62
733.621	1.62
733.646	-9.38
733.67	-0.38
733.695	1.62
733.72	5.62
733.744	12.62
733.769	4.62
733.794	18.62
733.818	-3.38
733.843	1.62
733.867	-13.38
733.892	0.62
733.917	-0.38
733.941	-6.38
733.966	-16.38
733.991	-8.38
734.015	13.62
734.04	9.62
734.065	5.62
734.089	6.62
734.114	-5.38
734.138	3.62
734.163	-9.38
734.188	6.62
734.212	11.62
734.237	15.62
734.261	7.62
734.286	8.62
734.311	-14.38
734.335	-9.38
734.36	16.62
734.384	15.62
734.409	12.62
734.434	-8.38
734.458	19.62
734.483	4.62
734.507	-0.38
734.532	17.62
734.556	4.62
734.581	-8.38
734.606	2.62
734.63	7.62
734.655	8.62
734.679	4.62
734.704	0.62
734.728	1.62
734.753	-2.38
734.777	4.62
734.802	-8.38
734.826	12.62
734.851	0.62
734.876	10.62
734.9	22.62
734.925	16.62
734.949	1.62
734.974	0.62
734.998	18.62
735.023	6.62
735.047	-8.38
735.072	21.62
735.096	14.62
735.121	20.62
735.145	13.62
735.17	16.62
735.194	15.62
735.219	4.62
735.243	9.62
735.268	10.62
735.292	1.62
735.317	14.62
735.341	-1.38
735.365	-9.38
735.39	11.62
735.414	4.62
735.439	4.62
735.463	-3.38
735.488	13.62
735.512	11.62
735.537	14.62
735.561	21.62
735.586	7.62
735.61	7.62
735.634	-1.38
735.659	11.62
735.683	7.62
735.708	6.62
735.732	-3.38
735.757	10.62
735.781	10.62
735.805	13.62
735.83	-9.38
735.854	8.62
735.879	10.62
735.903	13.62
735.927	24.62
735.952	12.62
735.976	-3.38
736.001	12.62
736.025	8.62
736.049	4.62
736.074	-6.38
736.098	-2.38
736.123	-1.38
736.147	2.62
736.171	2.62
736.196	7.62
736.22	15.62
736.244	0.62
736.269	-9.38
736.293	-1.38
736.317	8.62
736.342	1.62
736.366	23.62
736.39	4.62
736.415	14.62
736.439	10.62
736.463	19.62
736.488	17.62
736.512	23.62
736.536	6.62
736.561	10.62
736.585	2.62
736.609	8.62
736.634	-13.38
736.658	-9.38
736.682	-22.38
736.707	-12.38
736.731	-4.38
736.755	10.62
736.78	22.62
736.804	18.62
736.828	5.62
736.852	1.62
736.877	15.62
736.901	8.62
736.925	15.62
736.949	11.62
736.974	0.62
736.998	-0.38
737.022	1.62
737.047	-1.38
737.071	-4.38
737.095	-0.38
737.119	21.62
737.144	21.62
737.168	1.62
737.192	-4.38
737.216	1.62
737.241	4.62
737.265	-5.38
737.289	-3.38
737.313	3.62
737.337	14.62
737.362	12.62
737.386	-10.38
737.41	-5.38
737.434	1.62
737.459	-0.38
737.483	6.62
737.507	24.62
737.531	34.62
737.555	2.62
737.58	11.62
737.604	5.62
737.628	-8.38
737.652	-2.38
737.676	9.62
737.701	18.62
737.725	17.62
737.749	10.62
737.773	18.62
737.797	-8.38
737.821	13.62
737.846	7.62
737.87	20.62
737.894	-0.38
737.918	-8.38
737.942	-5.38
737.966	14.62
737.99	11.62
738.015	11.62
738.039	11.62
738.063	-2.38
738.087	15.62
738.111	12.62
738.135	15.62
738.159	2.62
738.184	11.62
738.208	-0.38
738.232	19.62
738.256	15.62
738.28	5.62
738.304	16.62
738.328	2.62
738.352	7.62
738.376	13.62
738.4	0.62
738.425	13.62
738.449	-6.38
738.473	11.62
738.497	6.62
738.521	1.62
738.545	-0.38
738.569	0.62
738.593	14.62
738.617	17.62
738.641	0.62
738.665	-16.38
738.689	0.62
738.713	0.62
738.737	5.62
738.762	14.62
738.786	3.62
738.81	2.62
738.834	7.62
738.858	-9.38
738.882	8.62
738.906	-15.38
738.93	-1.38
738.954	0.62
738.978	10.62
739.002	5.62
739.026	20.62
739.05	7.62
739.074	-4.38
739.098	24.62
739.122	23.62
739.146	-0.38
739.17	10.62
739.194	6.62
739.218	-5.38
739.242	6.62
739.266	10.62
739.29	-5.38
739.314	8.62
739.338	5.62
739.362	12.62
739.386	8.62
739.41	-2.38
739.434	-10.38
739.458	16.62
739.482	5.62
739.506	6.62
739.53	0.62
739.554	19.62
739.577	10.62
739.601	18.62
739.625	-3.38
739.649	2.62
739.673	11.62
739.697	13.62
739.721	-7.38
739.745	15.62
739.769	31.62
739.793	15.62
739.817	11.62
739.841	-12.38
739.865	-2.38
739.889	-8.38
739.912	-5.38
739.936	-0.38
739.96	-3.38
739.984	15.62
740.008	9.62
740.032	-2.38
740.056	1.62
740.08	9.62
740.104	17.62
740.127	14.62
740.151	2.62
740.175	16.62
740.199	4.62
740.223	44.62
740.247	8.62
740.271	12.62
740.295	10.62
740.318	-9.38
740.342	-9.38
740.366	10.62
740.39	18.62
740.414	-8.38
740.438	0.62
740.461	18.62
740.485	23.62
740.509	-2.38
740.533	-2.38
740.557	0.62
740.581	14.62
740.604	-21.38
740.628	0.62
740.652	-4.38
740.676	10.62
740.7	14.62
740.723	-0.38
740.747	-7.38
740.771	5.62
740.795	-18.38
740.819	4.62
740.842	-8.38
740.866	17.62
740.89	6.62
740.914	0.62
740.938	-0.38
740.961	8.62
740.985	15.62
741.009	-3.38
741.033	9.62
741.056	13.62
741.08	-8.38
741.104	5.62
741.128	6.62
741.151	-0.38
741.175	-4.38
741.199	-3.38
741.223	14.62
741.246	-2.38
741.27	-0.38
741.294	8.62
741.318	-3.38
741.341	5.62
741.365	4.62
741.389	-0.38
741.413	28.62
741.436	5.62
741.46	5.62
741.484	3.62
741.507	-3.38
741.531	23.62
741.555	22.62
741.579	-0.38
741.602	13.62
741.626	12.62
741.65	13.62
741.673	14.62
741.697	9.62
741.721	8.62
741.744	-10.38
741.768	-1.38
741.792	11.62
741.815	0.62
741.839	16.62
741.863	14.62
741.886	21.62
741.91	8.62
741.934	6.62
741.957	-19.38
741.981	-0.38
742.005	-3.38
742.028	-7.38
742.052	-11.38
742.075	-8.38
742.099	8.62
742.123	-6.38
742.146	0.62
742.17	10.62
742.194	4.62
742.217	-8.38
742.241	5.62
742.264	7.62
742.288	18.62
742.312	5.62
742.335	4.62
742.359	15.62
742.382	4.62
742.406	9.62
742.43	-0.38
742.453	-2.38
742.477	-10.38
742.5	-5.38
742.524	-2.38
742.548	-7.38
742.571	2.62
742.595	-5.38
742.618	-25.38
742.642	-11.38
742.665	12.62
742.689	5.62
742.712	10.62
742.736	13.62
742.76	12.62
742.783	-4.38
742.807	9.62
742.83	28.62
742.854	5.62
742.877	12.62
742.901	9.62
742.924	4.62
742.948	4.62
742.971	-1.38
742.995	15.62
743.018	-5.38
743.042	-14.38
743.065	-2.38
743.089	-2.38
743.112	20.62
743.136	0.62
743.159	-11.38
743.183	-11.38
743.206	5.62
743.23	0.62
743.253	2.62
743.277	2.62
743.3	-5.38
743.324	-5.38
743.347	-6.38
743.371	10.62
743.394	-1.38
743.418	12.62
743.441	10.62
743.465	0.62
743.488	11.62
743.512	-9.38
743.535	-2.38
743.558	-3.38
743.582	-4.38
743.605	7.62
743.629	3.62
743.652	4.62
743.676	5.62
743.699	14.62
743.723	23.62
743.746	16.62
743.769	1.62
743.793	5.62
743.816	-1.38
743.84	5.62
743.863	0.62
743.886	1.62
743.91	8.62
743.933	2.62
743.957	-6.38
743.98	10.62
744.003	1.62
744.027	2.62
744.05	8.62
744.074	-0.38
744.097	-18.38
744.12	-3.38
744.144	-13.38
744.167	1.62
744.19	-10.38
744.214	12.62
744.237	-21.38
744.26	10.62
744.284	4.62
744.307	-6.38
744.331	1.62
744.354	9.62
744.377	-11.38
744.401	3.62
744.424	6.62
744.447	-5.38
744.471	-17.38
