Data from HighRes_H2D2_15_04_11_07_2024_HR4C61891__59__15-05-40-343.txt Node

Date: Thu Nov 07 15:05:40 EST 2024
User: crc00042
Spectrometer: HR4C6189
Trigger mode: 4
Integration Time (sec): 1.000000E-1
Scans to average: 1
Electric dark correction enabled: true
Nonlinearity correction enabled: false
Boxcar width: 0
XAxis mode: Wavelengths
Number of Pixels in Spectrum: 3648
>>>>>Begin Spectral Data<<<<<
639.567	-73.77
639.602	-73.77
639.636	-73.77
639.67	-50.77
639.704	-17.77
639.738	-8.77
639.773	15.23
639.807	-2.77
639.841	-4.77
639.875	1.23
639.909	4.23
639.943	1.23
639.978	1.23
640.012	12.23
640.046	4.23
640.08	5.23
640.114	-18.77
640.148	-9.77
640.182	-4.77
640.217	7.23
640.251	32.23
640.285	29.23
640.319	-12.77
640.353	-0.77
640.387	11.23
640.421	-11.77
640.455	-4.77
640.49	5.23
640.524	-0.77
640.558	9.23
640.592	1.23
640.626	-8.77
640.66	1.23
640.694	-22.77
640.728	-0.77
640.762	7.23
640.796	20.23
640.83	26.23
640.865	-0.77
640.899	-8.77
640.933	-3.77
640.967	8.23
641.001	7.23
641.035	12.23
641.069	7.23
641.103	-3.77
641.137	11.23
641.171	-4.77
641.205	4.23
641.239	-9.77
641.273	13.23
641.307	31.23
641.341	10.23
641.375	10.23
641.409	-3.77
641.443	10.23
641.477	13.23
641.511	14.23
641.545	4.23
641.579	5.23
641.614	7.23
641.648	14.23
641.682	0.23
641.716	-3.77
641.75	12.23
641.784	7.23
641.818	9.23
641.852	14.23
641.886	8.23
641.919	26.23
641.953	-2.77
641.987	-7.77
642.021	-0.77
642.055	11.23
642.089	9.23
642.123	-11.77
642.157	-9.77
642.191	-3.77
642.225	11.23
642.259	-2.77
642.293	6.23
642.327	9.23
642.361	3.23
642.395	21.23
642.429	19.23
642.463	3.23
642.497	13.23
642.531	5.23
642.565	-4.77
642.599	10.23
642.633	-11.77
642.666	12.23
642.7	13.23
642.734	21.23
642.768	-8.77
642.802	0.23
642.836	15.23
642.87	5.23
642.904	20.23
642.938	11.23
642.972	0.23
643.005	2.23
643.039	9.23
643.073	11.23
643.107	15.23
643.141	12.23
643.175	4.23
643.209	7.23
643.243	-11.77
643.276	11.23
643.31	2.23
643.344	2.23
643.378	4.23
643.412	1.23
643.446	-6.77
643.48	11.23
643.513	11.23
643.547	-1.77
643.581	-2.77
643.615	11.23
643.649	-11.77
643.683	0.23
643.716	-6.77
643.75	10.23
643.784	-17.77
643.818	7.23
643.852	7.23
643.886	4.23
643.919	10.23
643.953	0.23
643.987	-8.77
644.021	25.23
644.055	1.23
644.088	14.23
644.122	0.23
644.156	-3.77
644.19	2.23
644.224	7.23
644.257	8.23
644.291	17.23
644.325	0.23
644.359	2.23
644.392	9.23
644.426	9.23
644.46	2.23
644.494	9.23
644.527	9.23
644.561	-3.77
644.595	12.23
644.629	-6.77
644.662	-1.77
644.696	12.23
644.73	14.23
644.764	-2.77
644.797	0.23
644.831	-6.77
644.865	21.23
644.899	-11.77
644.932	14.23
644.966	4.23
645	19.23
645.033	13.23
645.067	1.23
645.101	8.23
645.135	2.23
645.168	8.23
645.202	-5.77
645.236	-15.77
645.269	24.23
645.303	7.23
645.337	-12.77
645.37	1.23
645.404	15.23
645.438	-2.77
645.471	-15.77
645.505	12.23
645.539	4.23
645.572	0.23
645.606	-11.77
645.64	-7.77
645.673	1.23
645.707	26.23
645.741	3.23
645.774	-6.77
645.808	19.23
645.842	8.23
645.875	13.23
645.909	-3.77
645.943	-21.77
645.976	13.23
646.01	21.23
646.043	5.23
646.077	9.23
646.111	11.23
646.144	19.23
646.178	-1.77
646.212	-6.77
646.245	-14.77
646.279	11.23
646.312	5.23
646.346	5.23
646.38	6.23
646.413	8.23
646.447	2.23
646.48	12.23
646.514	21.23
646.547	-4.77
646.581	-0.77
646.615	-7.77
646.648	0.23
646.682	7.23
646.715	7.23
646.749	12.23
646.782	9.23
646.816	-0.77
646.85	22.23
646.883	5.23
646.917	9.23
646.95	14.23
646.984	14.23
647.017	11.23
647.051	12.23
647.084	-3.77
647.118	-2.77
647.151	-16.77
647.185	-0.77
647.218	-8.77
647.252	4.23
647.285	-4.77
647.319	-1.77
647.353	0.23
647.386	13.23
647.42	1.23
647.453	-9.77
647.487	12.23
647.52	-1.77
647.553	3.23
647.587	17.23
647.62	2.23
647.654	14.23
647.687	2.23
647.721	10.23
647.754	6.23
647.788	3.23
647.821	1.23
647.855	3.23
647.888	13.23
647.922	14.23
647.955	8.23
647.989	15.23
648.022	6.23
648.055	-8.77
648.089	15.23
648.122	7.23
648.156	9.23
648.189	-4.77
648.223	-1.77
648.256	24.23
648.29	8.23
648.323	2.23
648.356	11.23
648.39	3.23
648.423	15.23
648.457	11.23
648.49	13.23
648.523	9.23
648.557	22.23
648.59	0.23
648.624	3.23
648.657	-0.77
648.69	0.23
648.724	11.23
648.757	10.23
648.791	16.23
648.824	18.23
648.857	34.23
648.891	15.23
648.924	-1.77
648.957	31.23
648.991	13.23
649.024	8.23
649.057	10.23
649.091	11.23
649.124	8.23
649.158	7.23
649.191	9.23
649.224	3.23
649.258	16.23
649.291	14.23
649.324	-7.77
649.358	13.23
649.391	12.23
649.424	10.23
649.458	11.23
649.491	7.23
649.524	0.23
649.557	-4.77
649.591	-16.77
649.624	11.23
649.657	1.23
649.691	5.23
649.724	5.23
649.757	12.23
649.791	4.23
649.824	22.23
649.857	18.23
649.89	9.23
649.924	-15.77
649.957	1.23
649.99	6.23
650.023	12.23
650.057	10.23
650.09	12.23
650.123	12.23
650.157	16.23
650.19	19.23
650.223	-4.77
650.256	-14.77
650.29	-2.77
650.323	10.23
650.356	17.23
650.389	-0.77
650.423	-10.77
650.456	11.23
650.489	3.23
650.522	12.23
650.555	21.23
650.589	10.23
650.622	1.23
650.655	12.23
650.688	5.23
650.721	16.23
650.755	-7.77
650.788	9.23
650.821	5.23
650.854	4.23
650.887	-6.77
650.921	-11.77
650.954	-3.77
650.987	2.23
651.02	0.23
651.053	-3.77
651.087	4.23
651.12	26.23
651.153	5.23
651.186	17.23
651.219	3.23
651.252	13.23
651.286	15.23
651.319	6.23
651.352	8.23
651.385	5.23
651.418	-8.77
651.451	5.23
651.484	-5.77
651.518	3.23
651.551	14.23
651.584	-2.77
651.617	22.23
651.65	3.23
651.683	4.23
651.716	4.23
651.749	7.23
651.783	7.23
651.816	14.23
651.849	6.23
651.882	7.23
651.915	2.23
651.948	20.23
651.981	-1.77
652.014	-17.77
652.047	-0.77
652.08	-6.77
652.114	14.23
652.147	16.23
652.18	15.23
652.213	8.23
652.246	9.23
652.279	-8.77
652.312	8.23
652.345	1.23
652.378	11.23
652.411	29.23
652.444	23.23
652.477	2.23
652.51	0.23
652.543	-4.77
652.576	-4.77
652.609	1.23
652.642	7.23
652.675	-5.77
652.709	-3.77
652.742	11.23
652.775	20.23
652.808	18.23
652.841	13.23
652.874	8.23
652.907	2.23
652.94	-15.77
652.973	-1.77
653.006	7.23
653.039	11.23
653.072	4.23
653.105	13.23
653.138	-6.77
653.171	-6.77
653.204	-8.77
653.237	13.23
653.27	0.23
653.303	3.23
653.336	19.23
653.368	8.23
653.401	7.23
653.434	2.23
653.467	9.23
653.5	-9.77
653.533	-16.77
653.566	8.23
653.599	13.23
653.632	15.23
653.665	9.23
653.698	0.23
653.731	-15.77
653.764	14.23
653.797	11.23
653.83	-7.77
653.863	0.23
653.896	-0.77
653.929	-9.77
653.961	14.23
653.994	2.23
654.027	-8.77
654.06	11.23
654.093	19.23
654.126	11.23
654.159	6.23
654.192	9.23
654.225	-7.77
654.258	-7.77
654.29	14.23
654.323	10.23
654.356	-3.77
654.389	6.23
654.422	-6.77
654.455	-3.77
654.488	10.23
654.521	-18.77
654.553	-0.77
654.586	10.23
654.619	-4.77
654.652	-8.77
654.685	8.23
654.718	23.23
654.751	8.23
654.783	-6.77
654.816	32.23
654.849	5.23
654.882	-2.77
654.915	1.23
654.948	5.23
654.98	7.23
655.013	5.23
655.046	9.23
655.079	17.23
655.112	5.23
655.144	-13.77
655.177	4.23
655.21	12.23
655.243	15.23
655.276	16.23
655.308	-1.77
655.341	3.23
655.374	10.23
655.407	7.23
655.44	-6.77
655.472	17.23
655.505	19.23
655.538	2.23
655.571	13.23
655.603	-2.77
655.636	-14.77
655.669	7.23
655.702	12.23
655.734	0.23
655.767	-1.77
655.8	11.23
655.833	15.23
655.865	6.23
655.898	10.23
655.931	12.23
655.964	12.23
655.996	33.23
656.029	49.23
656.062	40.23
656.095	50.23
656.127	84.23
656.16	219.23
656.193	643.23
656.225	973.23
656.258	578.23
656.291	203.23
656.324	177.23
656.356	345.23
656.389	771.23
656.422	659.23
656.454	238.23
656.487	71.23
656.52	35.23
656.552	18.23
656.585	13.23
656.618	19.23
656.65	16.23
656.683	6.23
656.716	5.23
656.748	8.23
656.781	3.23
656.814	-7.77
656.846	2.23
656.879	7.23
656.912	11.23
656.944	4.23
656.977	6.23
657.01	-8.77
657.042	7.23
657.075	6.23
657.108	-6.77
657.14	4.23
657.173	17.23
657.205	34.23
657.238	13.23
657.271	4.23
657.303	-17.77
657.336	-5.77
657.369	7.23
657.401	-11.77
657.434	-1.77
657.466	4.23
657.499	4.23
657.532	3.23
657.564	4.23
657.597	-4.77
657.629	16.23
657.662	-4.77
657.694	3.23
657.727	10.23
657.76	17.23
657.792	-2.77
657.825	-1.77
657.857	17.23
657.89	9.23
657.922	12.23
657.955	-4.77
657.987	-1.77
658.02	18.23
658.053	22.23
658.085	16.23
658.118	0.23
658.15	2.23
658.183	9.23
658.215	-22.77
658.248	-7.77
658.28	-0.77
658.313	12.23
658.345	-3.77
658.378	5.23
658.41	-6.77
658.443	19.23
658.475	7.23
658.508	7.23
658.54	-4.77
658.573	6.23
658.605	16.23
658.638	2.23
658.67	-3.77
658.703	-3.77
658.735	-4.77
658.768	-8.77
658.8	8.23
658.833	14.23
658.865	0.23
658.898	-1.77
658.93	-2.77
658.963	4.23
658.995	-8.77
659.028	9.23
659.06	12.23
659.092	-4.77
659.125	-2.77
659.157	17.23
659.19	13.23
659.222	3.23
659.255	-1.77
659.287	-5.77
659.32	14.23
659.352	5.23
659.384	1.23
659.417	-1.77
659.449	4.23
659.482	2.23
659.514	-4.77
659.546	8.23
659.579	4.23
659.611	-1.77
659.644	-16.77
659.676	-14.77
659.708	-2.77
659.741	-5.77
659.773	-5.77
659.806	-7.77
659.838	3.23
659.87	7.23
659.903	-5.77
659.935	18.23
659.967	10.23
660	-0.77
660.032	-20.77
660.065	7.23
660.097	13.23
660.129	0.23
660.162	-1.77
660.194	7.23
660.226	3.23
660.259	8.23
660.291	9.23
660.323	-0.77
660.356	4.23
660.388	-4.77
660.42	-14.77
660.453	-8.77
660.485	14.23
660.517	22.23
660.55	18.23
660.582	4.23
660.614	4.23
660.647	-7.77
660.679	-14.77
660.711	4.23
660.743	-5.77
660.776	-6.77
660.808	3.23
660.84	-5.77
660.873	-13.77
660.905	2.23
660.937	0.23
660.969	5.23
661.002	5.23
661.034	18.23
661.066	2.23
661.099	13.23
661.131	4.23
661.163	8.23
661.195	6.23
661.228	11.23
661.26	-1.77
661.292	-2.77
661.324	-4.77
661.357	19.23
661.389	5.23
661.421	4.23
661.453	-2.77
661.485	14.23
661.518	0.23
661.55	-11.77
661.582	-2.77
661.614	7.23
661.647	20.23
661.679	2.23
661.711	8.23
661.743	-2.77
661.775	3.23
661.808	20.23
661.84	-12.77
661.872	9.23
661.904	-0.77
661.936	7.23
661.969	-13.77
662.001	-5.77
662.033	19.23
662.065	-1.77
662.097	20.23
662.129	-6.77
662.162	1.23
662.194	4.23
662.226	-3.77
662.258	-4.77
662.29	-0.77
662.322	-16.77
662.355	-14.77
662.387	18.23
662.419	3.23
662.451	1.23
662.483	8.23
662.515	-4.77
662.547	-4.77
662.58	-1.77
662.612	0.23
662.644	-10.77
662.676	-19.77
662.708	4.23
662.74	-1.77
662.772	-9.77
662.804	13.23
662.836	15.23
662.869	2.23
662.901	16.23
662.933	7.23
662.965	20.23
662.997	9.23
663.029	-7.77
663.061	-2.77
663.093	-1.77
663.125	18.23
663.157	7.23
663.189	7.23
663.221	17.23
663.254	9.23
663.286	2.23
663.318	-4.77
663.35	-17.77
663.382	-0.77
663.414	-5.77
663.446	10.23
663.478	9.23
663.51	22.23
663.542	-2.77
663.574	-5.77
663.606	7.23
663.638	-8.77
663.67	1.23
663.702	3.23
663.734	2.23
663.766	7.23
663.798	-3.77
663.83	2.23
663.862	4.23
663.894	-12.77
663.926	-4.77
663.958	6.23
663.99	2.23
664.022	-4.77
664.054	18.23
664.086	11.23
664.118	6.23
664.15	-25.77
664.182	2.23
664.214	3.23
664.246	11.23
664.278	-1.77
664.31	7.23
664.342	15.23
664.374	3.23
664.406	-2.77
664.438	-8.77
664.47	19.23
664.502	9.23
664.534	-8.77
664.566	-11.77
664.598	-9.77
664.63	-9.77
664.662	-6.77
664.693	-7.77
664.725	4.23
664.757	-1.77
664.789	-12.77
664.821	11.23
664.853	9.23
664.885	9.23
664.917	0.23
664.949	14.23
664.981	25.23
665.013	1.23
665.045	-13.77
665.076	7.23
665.108	-20.77
665.14	-20.77
665.172	-4.77
665.204	-3.77
665.236	4.23
665.268	18.23
665.3	-14.77
665.331	6.23
665.363	17.23
665.395	3.23
665.427	8.23
665.459	3.23
665.491	11.23
665.523	-2.77
665.555	-2.77
665.586	5.23
665.618	-1.77
665.65	2.23
665.682	11.23
665.714	9.23
665.746	3.23
665.777	-3.77
665.809	6.23
665.841	9.23
665.873	3.23
665.905	0.23
665.937	24.23
665.968	7.23
666	-14.77
666.032	9.23
666.064	3.23
666.096	12.23
666.127	10.23
666.159	15.23
666.191	11.23
666.223	12.23
666.255	-1.77
666.286	-5.77
666.318	-12.77
666.35	10.23
666.382	13.23
666.413	1.23
666.445	-4.77
666.477	-11.77
666.509	-8.77
666.54	0.23
666.572	-2.77
666.604	7.23
666.636	9.23
666.667	35.23
666.699	18.23
666.731	7.23
666.763	3.23
666.794	-3.77
666.826	1.23
666.858	-17.77
666.89	15.23
666.921	3.23
666.953	7.23
666.985	13.23
667.017	21.23
667.048	12.23
667.08	2.23
667.112	0.23
667.143	-13.77
667.175	1.23
667.207	-4.77
667.238	11.23
667.27	13.23
667.302	0.23
667.334	2.23
667.365	21.23
667.397	0.23
667.429	-4.77
667.46	0.23
667.492	15.23
667.524	14.23
667.555	5.23
667.587	12.23
667.619	-8.77
667.65	-13.77
667.682	5.23
667.714	5.23
667.745	-2.77
667.777	0.23
667.808	9.23
667.84	22.23
667.872	-0.77
667.903	11.23
667.935	-0.77
667.967	6.23
667.998	3.23
668.03	-4.77
668.061	5.23
668.093	-2.77
668.125	1.23
668.156	10.23
668.188	13.23
668.22	-8.77
668.251	1.23
668.283	10.23
668.314	19.23
668.346	-6.77
668.377	14.23
668.409	5.23
668.441	18.23
668.472	25.23
668.504	14.23
668.535	16.23
668.567	4.23
668.599	-7.77
668.63	-15.77
668.662	-17.77
668.693	26.23
668.725	-4.77
668.756	0.23
668.788	-5.77
668.819	-1.77
668.851	8.23
668.882	-8.77
668.914	-0.77
668.946	-4.77
668.977	-13.77
669.009	3.23
669.04	-12.77
669.072	1.23
669.103	12.23
669.135	10.23
669.166	13.23
669.198	12.23
669.229	12.23
669.261	-7.77
669.292	7.23
669.324	3.23
669.355	5.23
669.387	3.23
669.418	19.23
669.45	-5.77
669.481	0.23
669.513	10.23
669.544	7.23
669.576	8.23
669.607	27.23
669.639	6.23
669.67	-4.77
669.701	4.23
669.733	-23.77
669.764	7.23
669.796	1.23
669.827	-8.77
669.859	6.23
669.89	9.23
669.922	12.23
669.953	17.23
669.985	8.23
670.016	15.23
670.047	10.23
670.079	-3.77
670.11	20.23
670.142	5.23
670.173	6.23
670.204	-5.77
670.236	4.23
670.267	-3.77
670.299	-16.77
670.33	-3.77
670.362	8.23
670.393	-16.77
670.424	14.23
670.456	-3.77
670.487	-7.77
670.518	-4.77
670.55	6.23
670.581	-18.77
670.613	9.23
670.644	-1.77
670.675	2.23
670.707	9.23
670.738	14.23
670.769	0.23
670.801	-19.77
670.832	14.23
670.864	-3.77
670.895	15.23
670.926	9.23
670.958	20.23
670.989	14.23
671.02	-4.77
671.052	4.23
671.083	13.23
671.114	2.23
671.146	18.23
671.177	8.23
671.208	-6.77
671.24	-10.77
671.271	-1.77
671.302	7.23
671.333	4.23
671.365	-4.77
671.396	0.23
671.427	11.23
671.459	4.23
671.49	7.23
671.521	8.23
671.553	18.23
671.584	10.23
671.615	12.23
671.646	1.23
671.678	1.23
671.709	1.23
671.74	-16.77
671.771	5.23
671.803	-16.77
671.834	11.23
671.865	10.23
671.896	6.23
671.928	11.23
671.959	8.23
671.99	-6.77
672.021	4.23
672.053	-3.77
672.084	2.23
672.115	6.23
672.146	5.23
672.178	2.23
672.209	8.23
672.24	-5.77
672.271	15.23
672.303	0.23
672.334	-1.77
672.365	-1.77
672.396	12.23
672.427	11.23
672.459	12.23
672.49	28.23
672.521	5.23
672.552	9.23
672.583	1.23
672.615	0.23
672.646	11.23
672.677	-1.77
672.708	-2.77
672.739	1.23
672.77	10.23
672.802	3.23
672.833	10.23
672.864	-4.77
672.895	-7.77
672.926	-0.77
672.957	-3.77
672.989	8.23
673.02	0.23
673.051	-3.77
673.082	18.23
673.113	1.23
673.144	8.23
673.175	0.23
673.206	0.23
673.238	0.23
673.269	2.23
673.3	-9.77
673.331	17.23
673.362	12.23
673.393	4.23
673.424	12.23
673.455	26.23
673.487	2.23
673.518	-8.77
673.549	-8.77
673.58	1.23
673.611	10.23
673.642	12.23
673.673	-9.77
673.704	-9.77
673.735	-2.77
673.766	6.23
673.797	5.23
673.828	6.23
673.86	6.23
673.891	-14.77
673.922	-13.77
673.953	2.23
673.984	2.23
674.015	-0.77
674.046	3.23
674.077	18.23
674.108	-1.77
674.139	7.23
674.17	-1.77
674.201	-4.77
674.232	-2.77
674.263	-1.77
674.294	11.23
674.325	8.23
674.356	0.23
674.387	13.23
674.418	9.23
674.449	5.23
674.48	-4.77
674.511	10.23
674.542	15.23
674.573	-4.77
674.604	11.23
674.635	-1.77
674.666	14.23
674.697	6.23
674.728	2.23
674.759	0.23
674.79	12.23
674.821	3.23
674.852	-0.77
674.883	-5.77
674.914	4.23
674.945	7.23
674.976	3.23
675.007	11.23
675.038	-17.77
675.069	-0.77
675.1	-5.77
675.131	-1.77
675.162	6.23
675.193	-9.77
675.224	0.23
675.254	3.23
675.285	12.23
675.316	28.23
675.347	12.23
675.378	-4.77
675.409	-4.77
675.44	-2.77
675.471	5.23
675.502	8.23
675.533	3.23
675.564	19.23
675.595	-0.77
675.625	17.23
675.656	15.23
675.687	1.23
675.718	-6.77
675.749	11.23
675.78	11.23
675.811	-3.77
675.842	11.23
675.873	17.23
675.903	1.23
675.934	-2.77
675.965	0.23
675.996	-0.77
676.027	17.23
676.058	2.23
676.089	-11.77
676.119	8.23
676.15	-5.77
676.181	10.23
676.212	-6.77
676.243	22.23
676.274	2.23
676.304	9.23
676.335	-10.77
676.366	7.23
676.397	14.23
676.428	15.23
676.459	-4.77
676.489	18.23
676.52	24.23
676.551	-4.77
676.582	-12.77
676.613	-13.77
676.643	0.23
676.674	20.23
676.705	2.23
676.736	7.23
676.767	27.23
676.797	12.23
676.828	5.23
676.859	12.23
676.89	11.23
676.92	4.23
676.951	2.23
676.982	-1.77
677.013	-5.77
677.044	7.23
677.074	2.23
677.105	-13.77
677.136	12.23
677.167	10.23
677.197	17.23
677.228	12.23
677.259	5.23
677.289	-8.77
677.32	-6.77
677.351	8.23
677.382	16.23
677.412	-15.77
677.443	7.23
677.474	8.23
677.505	-5.77
677.535	6.23
677.566	-0.77
677.597	-8.77
677.627	-21.77
677.658	-0.77
677.689	-0.77
677.72	6.23
677.75	2.23
677.781	15.23
677.812	-0.77
677.842	4.23
677.873	14.23
677.904	18.23
677.934	2.23
677.965	4.23
677.996	-6.77
678.026	-4.77
678.057	0.23
678.088	-4.77
678.118	9.23
678.149	-10.77
678.18	12.23
678.21	21.23
678.241	14.23
678.272	3.23
678.302	11.23
678.333	13.23
678.363	18.23
678.394	-4.77
678.425	-1.77
678.455	0.23
678.486	12.23
678.517	-1.77
678.547	6.23
678.578	-7.77
678.608	4.23
678.639	15.23
678.67	13.23
678.7	2.23
678.731	11.23
678.761	-1.77
678.792	6.23
678.823	4.23
678.853	0.23
678.884	1.23
678.914	2.23
678.945	6.23
678.975	-2.77
679.006	23.23
679.037	12.23
679.067	31.23
679.098	7.23
679.128	-12.77
679.159	0.23
679.189	15.23
679.22	3.23
679.25	8.23
679.281	10.23
679.312	3.23
679.342	-2.77
679.373	32.23
679.403	14.23
679.434	8.23
679.464	-6.77
679.495	2.23
679.525	18.23
679.556	-0.77
679.586	12.23
679.617	13.23
679.647	0.23
679.678	14.23
679.708	10.23
679.739	4.23
679.769	-2.77
679.8	17.23
679.83	21.23
679.861	13.23
679.891	-0.77
679.922	-11.77
679.952	4.23
679.983	8.23
680.013	5.23
680.044	2.23
680.074	9.23
680.105	3.23
680.135	0.23
680.165	9.23
680.196	8.23
680.226	8.23
680.257	11.23
680.287	9.23
680.318	11.23
680.348	5.23
680.379	11.23
680.409	1.23
680.439	-3.77
680.47	11.23
680.5	3.23
680.531	-2.77
680.561	16.23
680.592	3.23
680.622	14.23
680.652	-4.77
680.683	3.23
680.713	10.23
680.744	-12.77
680.774	-8.77
680.804	35.23
680.835	-4.77
680.865	-2.77
680.896	8.23
680.926	7.23
680.956	3.23
680.987	7.23
681.017	2.23
681.047	5.23
681.078	1.23
681.108	12.23
681.139	23.23
681.169	2.23
681.199	-10.77
681.23	1.23
681.26	-2.77
681.29	12.23
681.321	-4.77
681.351	0.23
681.381	4.23
681.412	6.23
681.442	4.23
681.472	4.23
681.503	1.23
681.533	-3.77
681.563	-4.77
681.594	12.23
681.624	21.23
681.654	5.23
681.685	10.23
681.715	13.23
681.745	7.23
681.775	4.23
681.806	10.23
681.836	-4.77
681.866	-15.77
681.897	-2.77
681.927	5.23
681.957	-9.77
681.987	12.23
682.018	4.23
682.048	13.23
682.078	8.23
682.109	13.23
682.139	-4.77
682.169	-5.77
682.199	12.23
682.23	-0.77
682.26	16.23
682.29	9.23
682.32	1.23
682.351	-1.77
682.381	12.23
682.411	-2.77
682.441	4.23
682.472	7.23
682.502	14.23
682.532	-5.77
682.562	-1.77
682.592	8.23
682.623	2.23
682.653	3.23
682.683	-18.77
682.713	11.23
682.743	5.23
682.774	3.23
682.804	10.23
682.834	14.23
682.864	8.23
682.894	-1.77
682.925	-1.77
682.955	1.23
682.985	-0.77
683.015	13.23
683.045	4.23
683.076	-4.77
683.106	-11.77
683.136	-6.77
683.166	-4.77
683.196	1.23
683.226	-4.77
683.257	7.23
683.287	9.23
683.317	0.23
683.347	0.23
683.377	-5.77
683.407	-8.77
683.437	13.23
683.468	26.23
683.498	2.23
683.528	2.23
683.558	11.23
683.588	-1.77
683.618	0.23
683.648	-4.77
683.678	1.23
683.708	7.23
683.739	2.23
683.769	1.23
683.799	-3.77
683.829	-4.77
683.859	-3.77
683.889	23.23
683.919	-0.77
683.949	0.23
683.979	-1.77
684.009	8.23
684.039	15.23
684.07	-11.77
684.1	11.23
684.13	-3.77
684.16	11.23
684.19	-8.77
684.22	8.23
684.25	13.23
684.28	4.23
684.31	14.23
684.34	15.23
684.37	-4.77
684.4	-4.77
684.43	2.23
684.46	11.23
684.49	8.23
684.52	15.23
684.55	30.23
684.58	12.23
684.61	22.23
684.64	15.23
684.67	12.23
684.7	25.23
684.73	20.23
684.76	8.23
684.79	13.23
684.82	-5.77
684.85	-13.77
684.88	14.23
684.91	15.23
684.94	0.23
684.97	15.23
685	2.23
685.03	0.23
685.06	-7.77
685.09	11.23
685.12	27.23
685.15	2.23
685.18	8.23
685.21	2.23
685.24	9.23
685.27	2.23
685.3	7.23
685.33	12.23
685.36	-6.77
685.39	7.23
685.42	-5.77
685.45	10.23
685.48	-0.77
685.51	-0.77
685.54	10.23
685.569	-1.77
685.599	6.23
685.629	12.23
685.659	18.23
685.689	1.23
685.719	0.23
685.749	4.23
685.779	12.23
685.809	4.23
685.839	4.23
685.869	4.23
685.898	16.23
685.928	9.23
685.958	4.23
685.988	8.23
686.018	9.23
686.048	4.23
686.078	11.23
686.108	4.23
686.137	10.23
686.167	16.23
686.197	-8.77
686.227	7.23
686.257	37.23
686.287	23.23
686.317	-2.77
686.346	3.23
686.376	11.23
686.406	2.23
686.436	4.23
686.466	4.23
686.496	21.23
686.525	1.23
686.555	-11.77
686.585	7.23
686.615	16.23
686.645	15.23
686.675	-7.77
686.704	4.23
686.734	9.23
686.764	9.23
686.794	-1.77
686.824	-24.77
686.853	5.23
686.883	11.23
686.913	16.23
686.943	5.23
686.973	9.23
687.002	0.23
687.032	-8.77
687.062	16.23
687.092	25.23
687.121	2.23
687.151	24.23
687.181	-0.77
687.211	14.23
687.24	0.23
687.27	5.23
687.3	-11.77
687.33	-15.77
687.359	0.23
687.389	18.23
687.419	6.23
687.449	6.23
687.478	13.23
687.508	7.23
687.538	12.23
687.568	10.23
687.597	7.23
687.627	3.23
687.657	7.23
687.686	7.23
687.716	17.23
687.746	-11.77
687.776	4.23
687.805	1.23
687.835	-6.77
687.865	3.23
687.894	14.23
687.924	-2.77
687.954	8.23
687.983	-5.77
688.013	15.23
688.043	8.23
688.072	-0.77
688.102	11.23
688.132	12.23
688.161	7.23
688.191	-1.77
688.221	5.23
688.25	-5.77
688.28	8.23
688.31	8.23
688.339	5.23
688.369	-16.77
688.399	1.23
688.428	-9.77
688.458	12.23
688.488	15.23
688.517	17.23
688.547	7.23
688.576	35.23
688.606	2.23
688.636	-1.77
688.665	-3.77
688.695	16.23
688.725	18.23
688.754	9.23
688.784	9.23
688.813	20.23
688.843	1.23
688.873	-5.77
688.902	10.23
688.932	11.23
688.961	24.23
688.991	20.23
689.02	6.23
689.05	6.23
689.08	16.23
689.109	14.23
689.139	-0.77
689.168	-5.77
689.198	8.23
689.227	13.23
689.257	11.23
689.287	8.23
689.316	0.23
689.346	-1.77
689.375	1.23
689.405	10.23
689.434	-8.77
689.464	9.23
689.493	4.23
689.523	-1.77
689.552	-1.77
689.582	8.23
689.611	0.23
689.641	8.23
689.67	-4.77
689.7	12.23
689.73	12.23
689.759	6.23
689.789	13.23
689.818	-2.77
689.848	6.23
689.877	6.23
689.906	-0.77
689.936	-4.77
689.965	17.23
689.995	11.23
690.024	20.23
690.054	-3.77
690.083	8.23
690.113	9.23
690.142	-2.77
690.172	-2.77
690.201	3.23
690.231	11.23
690.26	2.23
690.29	12.23
690.319	18.23
690.348	6.23
690.378	10.23
690.407	20.23
690.437	18.23
690.466	5.23
690.496	1.23
690.525	-4.77
690.555	-1.77
690.584	-6.77
690.613	-6.77
690.643	3.23
690.672	21.23
690.702	26.23
690.731	10.23
690.76	0.23
690.79	-1.77
690.819	10.23
690.849	-2.77
690.878	16.23
690.907	9.23
690.937	14.23
690.966	15.23
690.996	18.23
691.025	0.23
691.054	5.23
691.084	6.23
691.113	0.23
691.142	14.23
691.172	6.23
691.201	16.23
691.23	19.23
691.26	24.23
691.289	29.23
691.319	23.23
691.348	-1.77
691.377	19.23
691.407	-0.77
691.436	10.23
691.465	10.23
691.495	-5.77
691.524	-7.77
691.553	-7.77
691.583	17.23
691.612	16.23
691.641	-1.77
691.67	-4.77
691.7	11.23
691.729	8.23
691.758	7.23
691.788	6.23
691.817	0.23
691.846	0.23
691.876	8.23
691.905	7.23
691.934	17.23
691.963	21.23
691.993	12.23
692.022	-7.77
692.051	-1.77
692.081	23.23
692.11	24.23
692.139	7.23
692.168	12.23
692.198	28.23
692.227	3.23
692.256	3.23
692.285	6.23
692.315	9.23
692.344	16.23
692.373	17.23
692.402	-14.77
692.432	-13.77
692.461	-5.77
692.49	11.23
692.519	9.23
692.548	14.23
692.578	13.23
692.607	1.23
692.636	-2.77
692.665	6.23
692.694	1.23
692.724	14.23
692.753	3.23
692.782	21.23
692.811	-8.77
692.84	1.23
692.87	-2.77
692.899	9.23
692.928	6.23
692.957	3.23
692.986	20.23
693.016	7.23
693.045	2.23
693.074	4.23
693.103	4.23
693.132	1.23
693.161	18.23
693.191	2.23
693.22	-7.77
693.249	0.23
693.278	2.23
693.307	22.23
693.336	-9.77
693.365	-9.77
693.395	-4.77
693.424	13.23
693.453	8.23
693.482	-5.77
693.511	5.23
693.54	13.23
693.569	19.23
693.598	4.23
693.628	15.23
693.657	15.23
693.686	11.23
693.715	-0.77
693.744	14.23
693.773	23.23
693.802	1.23
693.831	6.23
693.86	6.23
693.889	-6.77
693.919	4.23
693.948	7.23
693.977	6.23
694.006	-5.77
694.035	8.23
694.064	-5.77
694.093	4.23
694.122	7.23
694.151	0.23
694.18	6.23
694.209	30.23
694.238	6.23
694.267	11.23
694.296	17.23
694.325	3.23
694.354	10.23
694.383	3.23
694.412	-6.77
694.441	0.23
694.471	-12.77
694.5	-6.77
694.529	11.23
694.558	5.23
694.587	15.23
694.616	6.23
694.645	-4.77
694.674	16.23
694.703	8.23
694.732	9.23
694.761	4.23
694.79	12.23
694.819	-6.77
694.848	-7.77
694.877	29.23
694.906	9.23
694.935	12.23
694.963	20.23
694.992	8.23
695.021	5.23
695.05	16.23
695.079	11.23
695.108	10.23
695.137	27.23
695.166	10.23
695.195	2.23
695.224	18.23
695.253	8.23
695.282	9.23
695.311	13.23
695.34	2.23
695.369	5.23
695.398	7.23
695.427	0.23
695.456	8.23
695.485	13.23
695.513	11.23
695.542	17.23
695.571	14.23
695.6	18.23
695.629	24.23
695.658	14.23
695.687	2.23
695.716	-1.77
695.745	41.23
695.774	8.23
695.802	1.23
695.831	10.23
695.86	10.23
695.889	16.23
695.918	9.23
695.947	-2.77
695.976	13.23
696.005	11.23
696.033	5.23
696.062	-1.77
696.091	1.23
696.12	4.23
696.149	22.23
696.178	10.23
696.207	-0.77
696.235	2.23
696.264	25.23
696.293	5.23
696.322	11.23
696.351	26.23
696.38	-3.77
696.408	12.23
696.437	4.23
696.466	4.23
696.495	15.23
696.524	12.23
696.553	6.23
696.581	6.23
696.61	-0.77
696.639	4.23
696.668	-2.77
696.697	0.23
696.725	10.23
696.754	17.23
696.783	2.23
696.812	0.23
696.84	9.23
696.869	4.23
696.898	15.23
696.927	27.23
696.956	16.23
696.984	15.23
697.013	2.23
697.042	20.23
697.071	10.23
697.099	26.23
697.128	7.23
697.157	-0.77
697.186	-3.77
697.214	7.23
697.243	-2.77
697.272	7.23
697.301	12.23
697.329	16.23
697.358	7.23
697.387	23.23
697.415	9.23
697.444	1.23
697.473	4.23
697.502	-3.77
697.53	16.23
697.559	4.23
697.588	4.23
697.616	-4.77
697.645	3.23
697.674	24.23
697.703	11.23
697.731	23.23
697.76	20.23
697.789	9.23
697.817	4.23
697.846	21.23
697.875	13.23
697.903	21.23
697.932	7.23
697.961	7.23
697.989	10.23
698.018	2.23
698.047	7.23
698.075	6.23
698.104	9.23
698.133	5.23
698.161	0.23
698.19	-3.77
698.218	18.23
698.247	9.23
698.276	7.23
698.304	10.23
698.333	8.23
698.362	24.23
698.39	12.23
698.419	8.23
698.447	7.23
698.476	3.23
698.505	22.23
698.533	17.23
698.562	24.23
698.591	0.23
698.619	0.23
698.648	4.23
698.676	-1.77
698.705	-7.77
698.733	-0.77
698.762	17.23
698.791	5.23
698.819	11.23
698.848	-5.77
698.876	8.23
698.905	9.23
698.933	18.23
698.962	6.23
698.991	4.23
699.019	14.23
699.048	-12.77
699.076	6.23
699.105	3.23
699.133	3.23
699.162	10.23
699.19	21.23
699.219	17.23
699.248	-6.77
699.276	7.23
699.305	7.23
699.333	18.23
699.362	4.23
699.39	8.23
699.419	2.23
699.447	18.23
699.476	6.23
699.504	-9.77
699.533	4.23
699.561	-2.77
699.59	19.23
699.618	15.23
699.647	25.23
699.675	3.23
699.704	6.23
699.732	15.23
699.761	7.23
699.789	-0.77
699.818	8.23
699.846	-4.77
699.874	1.23
699.903	7.23
699.931	7.23
699.96	11.23
699.988	10.23
700.017	13.23
700.045	-4.77
700.074	-9.77
700.102	-2.77
700.13	1.23
700.159	11.23
700.187	16.23
700.216	-0.77
700.244	-8.77
700.273	6.23
700.301	0.23
700.329	10.23
700.358	-2.77
700.386	9.23
700.415	7.23
700.443	3.23
700.472	10.23
700.5	12.23
700.528	17.23
700.557	8.23
700.585	0.23
700.614	-8.77
700.642	3.23
700.67	26.23
700.699	12.23
700.727	-3.77
700.755	13.23
700.784	18.23
700.812	7.23
700.841	3.23
700.869	-12.77
700.897	-17.77
700.926	-3.77
700.954	4.23
700.982	14.23
701.011	1.23
701.039	18.23
701.067	18.23
701.096	10.23
701.124	-21.77
701.152	13.23
701.181	5.23
701.209	-3.77
701.237	3.23
701.266	4.23
701.294	-20.77
701.322	14.23
701.351	7.23
701.379	-1.77
701.407	0.23
701.435	14.23
701.464	22.23
701.492	13.23
701.52	2.23
701.549	6.23
701.577	-5.77
701.605	0.23
701.634	6.23
701.662	10.23
701.69	-11.77
701.718	-0.77
701.747	1.23
701.775	4.23
701.803	-1.77
701.831	11.23
701.86	-4.77
701.888	14.23
701.916	6.23
701.944	-1.77
701.973	3.23
702.001	-7.77
702.029	-0.77
702.057	-12.77
702.086	-16.77
702.114	0.23
702.142	16.23
702.17	-11.77
702.199	12.23
702.227	-3.77
702.255	-1.77
702.283	-9.77
702.311	6.23
702.34	1.23
702.368	5.23
702.396	18.23
702.424	-0.77
702.452	5.23
702.481	-6.77
702.509	0.23
702.537	7.23
702.565	15.23
702.593	-5.77
702.621	-0.77
702.65	13.23
702.678	3.23
702.706	13.23
702.734	-1.77
702.762	3.23
702.79	7.23
702.819	6.23
702.847	7.23
702.875	18.23
702.903	10.23
702.931	1.23
702.959	19.23
702.988	16.23
703.016	-4.77
703.044	-1.77
703.072	-7.77
703.1	-2.77
703.128	0.23
703.156	12.23
703.184	3.23
703.212	18.23
703.241	14.23
703.269	12.23
703.297	8.23
703.325	5.23
703.353	-4.77
703.381	-2.77
703.409	9.23
703.437	-0.77
703.465	10.23
703.493	4.23
703.522	3.23
703.55	12.23
703.578	14.23
703.606	10.23
703.634	12.23
703.662	-2.77
703.69	1.23
703.718	4.23
703.746	5.23
703.774	-4.77
703.802	14.23
703.83	4.23
703.858	-5.77
703.886	3.23
703.914	-6.77
703.942	10.23
703.97	6.23
703.998	-4.77
704.027	8.23
704.055	7.23
704.083	8.23
704.111	0.23
704.139	7.23
704.167	1.23
704.195	4.23
704.223	12.23
704.251	12.23
704.279	13.23
704.307	9.23
704.335	-5.77
704.363	5.23
704.391	-11.77
704.419	7.23
704.447	-12.77
704.475	7.23
704.503	-1.77
704.531	7.23
704.558	6.23
704.586	-0.77
704.614	6.23
704.642	4.23
704.67	-7.77
704.698	-5.77
704.726	9.23
704.754	-4.77
704.782	-3.77
704.81	-1.77
704.838	33.23
704.866	21.23
704.894	-20.77
704.922	-0.77
704.95	3.23
704.978	16.23
705.006	0.23
705.034	24.23
705.061	2.23
705.089	13.23
705.117	4.23
705.145	15.23
705.173	12.23
705.201	15.23
705.229	21.23
705.257	11.23
705.285	15.23
705.313	10.23
705.34	5.23
705.368	4.23
705.396	12.23
705.424	-8.77
705.452	-9.77
705.48	-2.77
705.508	0.23
705.536	6.23
705.563	13.23
705.591	14.23
705.619	-4.77
705.647	3.23
705.675	1.23
705.703	15.23
705.731	11.23
705.758	26.23
705.786	6.23
705.814	21.23
705.842	14.23
705.87	16.23
705.898	19.23
705.925	-0.77
705.953	16.23
705.981	-8.77
706.009	-3.77
706.037	12.23
706.065	8.23
706.092	2.23
706.12	1.23
706.148	-3.77
706.176	-0.77
706.204	-7.77
706.231	7.23
706.259	-3.77
706.287	9.23
706.315	3.23
706.342	7.23
706.37	12.23
706.398	11.23
706.426	3.23
706.454	-1.77
706.481	6.23
706.509	8.23
706.537	5.23
706.565	3.23
706.592	13.23
706.62	1.23
706.648	11.23
706.676	-6.77
706.703	14.23
706.731	-6.77
706.759	4.23
706.787	8.23
706.814	9.23
706.842	13.23
706.87	-1.77
706.897	6.23
706.925	-0.77
706.953	11.23
706.981	20.23
707.008	5.23
707.036	13.23
707.064	-1.77
707.091	-12.77
707.119	3.23
707.147	4.23
707.174	0.23
707.202	12.23
707.23	4.23
707.258	8.23
707.285	-7.77
707.313	-6.77
707.341	6.23
707.368	-8.77
707.396	4.23
707.424	8.23
707.451	3.23
707.479	-2.77
707.507	-0.77
707.534	-16.77
707.562	9.23
707.59	-1.77
707.617	20.23
707.645	8.23
707.672	7.23
707.7	5.23
707.728	11.23
707.755	6.23
707.783	2.23
707.811	9.23
707.838	-4.77
707.866	13.23
707.893	15.23
707.921	2.23
707.949	-3.77
707.976	19.23
708.004	3.23
708.031	-6.77
708.059	-7.77
708.087	4.23
708.114	3.23
708.142	-10.77
708.169	8.23
708.197	-0.77
708.225	3.23
708.252	7.23
708.28	12.23
708.307	-0.77
708.335	-7.77
708.362	8.23
708.39	-16.77
708.418	-12.77
708.445	-5.77
708.473	-5.77
708.5	0.23
708.528	2.23
708.555	16.23
708.583	17.23
708.61	5.23
708.638	3.23
708.665	16.23
708.693	-1.77
708.72	-3.77
708.748	2.23
708.776	-1.77
708.803	7.23
708.831	16.23
708.858	16.23
708.886	2.23
708.913	16.23
708.941	-13.77
708.968	11.23
708.996	-5.77
709.023	23.23
709.051	9.23
709.078	-0.77
709.105	9.23
709.133	-1.77
709.16	6.23
709.188	6.23
709.215	8.23
709.243	3.23
709.27	-6.77
709.298	1.23
709.325	-15.77
709.353	-9.77
709.38	-1.77
709.408	15.23
709.435	1.23
709.462	7.23
709.49	8.23
709.517	8.23
709.545	2.23
709.572	-11.77
709.6	5.23
709.627	7.23
709.655	-10.77
709.682	-5.77
709.709	11.23
709.737	6.23
709.764	-4.77
709.792	17.23
709.819	3.23
709.846	0.23
709.874	13.23
709.901	24.23
709.929	25.23
709.956	28.23
709.983	-3.77
710.011	-1.77
710.038	-2.77
710.066	4.23
710.093	21.23
710.12	6.23
710.148	17.23
710.175	-7.77
710.202	-1.77
710.23	12.23
710.257	15.23
710.284	3.23
710.312	7.23
710.339	3.23
710.366	3.23
710.394	10.23
710.421	11.23
710.448	12.23
710.476	9.23
710.503	2.23
710.53	19.23
710.558	12.23
710.585	2.23
710.612	-5.77
710.64	-8.77
710.667	0.23
710.694	6.23
710.722	2.23
710.749	-0.77
710.776	4.23
710.804	30.23
710.831	4.23
710.858	3.23
710.885	8.23
710.913	0.23
710.94	16.23
710.967	7.23
710.995	8.23
711.022	8.23
711.049	16.23
711.076	0.23
711.104	9.23
711.131	-4.77
711.158	-6.77
711.185	14.23
711.213	-5.77
711.24	-9.77
711.267	-3.77
711.294	-3.77
711.322	4.23
711.349	1.23
711.376	-9.77
711.403	5.23
711.431	-0.77
711.458	7.23
711.485	-1.77
711.512	5.23
711.54	6.23
711.567	2.23
711.594	-0.77
711.621	-5.77
711.648	6.23
711.676	24.23
711.703	4.23
711.73	-11.77
711.757	10.23
711.784	15.23
711.812	-4.77
711.839	-3.77
711.866	2.23
711.893	-0.77
711.92	13.23
711.947	26.23
711.975	27.23
712.002	15.23
712.029	13.23
712.056	17.23
712.083	5.23
712.11	0.23
712.138	3.23
712.165	7.23
712.192	0.23
712.219	-6.77
712.246	10.23
712.273	-1.77
712.3	-11.77
712.328	14.23
712.355	18.23
712.382	8.23
712.409	14.23
712.436	-4.77
712.463	27.23
712.49	6.23
712.517	18.23
712.544	4.23
712.572	6.23
712.599	-13.77
712.626	-2.77
712.653	7.23
712.68	-3.77
712.707	15.23
712.734	20.23
712.761	8.23
712.788	4.23
712.815	10.23
712.842	5.23
712.87	-6.77
712.897	4.23
712.924	4.23
712.951	27.23
712.978	15.23
713.005	16.23
713.032	12.23
713.059	4.23
713.086	-8.77
713.113	-3.77
713.14	-7.77
713.167	-6.77
713.194	5.23
713.221	-0.77
713.248	17.23
713.275	11.23
713.302	-6.77
713.329	14.23
713.356	-1.77
713.383	18.23
713.41	12.23
713.437	-13.77
713.464	-2.77
713.491	14.23
713.518	10.23
713.545	5.23
713.572	-0.77
713.599	27.23
713.626	8.23
713.653	20.23
713.68	4.23
713.707	10.23
713.734	15.23
713.761	-8.77
713.788	3.23
713.815	7.23
713.842	-15.77
713.869	9.23
713.896	10.23
713.923	-0.77
713.95	-1.77
713.977	-4.77
714.004	-1.77
714.031	-8.77
714.058	0.23
714.085	-14.77
714.112	11.23
714.139	-8.77
714.165	-0.77
714.192	-0.77
714.219	10.23
714.246	9.23
714.273	-3.77
714.3	3.23
714.327	16.23
714.354	17.23
714.381	3.23
714.408	-4.77
714.435	-7.77
714.461	14.23
714.488	23.23
714.515	3.23
714.542	2.23
714.569	7.23
714.596	-3.77
714.623	-2.77
714.65	-2.77
714.677	16.23
714.703	10.23
714.73	2.23
714.757	-12.77
714.784	-0.77
714.811	-9.77
714.838	13.23
714.865	3.23
714.891	11.23
714.918	-0.77
714.945	-7.77
714.972	-1.77
714.999	21.23
715.026	6.23
715.052	16.23
715.079	3.23
715.106	16.23
715.133	2.23
715.16	6.23
715.187	20.23
715.213	3.23
715.24	-1.77
715.267	0.23
715.294	3.23
715.321	-5.77
715.347	0.23
715.374	9.23
715.401	8.23
715.428	11.23
715.455	13.23
715.481	-2.77
715.508	6.23
715.535	7.23
715.562	12.23
715.588	3.23
715.615	5.23
715.642	2.23
715.669	4.23
715.695	-8.77
715.722	-9.77
715.749	10.23
715.776	12.23
715.802	11.23
715.829	10.23
715.856	13.23
715.883	27.23
715.909	2.23
715.936	8.23
715.963	8.23
715.99	1.23
716.016	-1.77
716.043	4.23
716.07	15.23
716.096	-8.77
716.123	6.23
716.15	7.23
716.177	26.23
716.203	17.23
716.23	11.23
716.257	19.23
716.283	11.23
716.31	5.23
716.337	-12.77
716.363	-17.77
716.39	8.23
716.417	3.23
716.443	0.23
716.47	13.23
716.497	15.23
716.523	21.23
716.55	17.23
716.577	17.23
716.603	9.23
716.63	11.23
716.657	19.23
716.683	5.23
716.71	7.23
716.737	-7.77
716.763	20.23
716.79	8.23
716.817	19.23
716.843	-1.77
716.87	-5.77
716.897	6.23
716.923	22.23
716.95	6.23
716.976	1.23
717.003	-9.77
717.03	14.23
717.056	10.23
717.083	8.23
717.109	14.23
717.136	8.23
717.163	1.23
717.189	13.23
717.216	-0.77
717.242	6.23
717.269	1.23
717.296	15.23
717.322	10.23
717.349	1.23
717.375	13.23
717.402	4.23
717.428	10.23
717.455	3.23
717.481	2.23
717.508	10.23
717.535	14.23
717.561	2.23
717.588	-12.77
717.614	-4.77
717.641	18.23
717.667	11.23
717.694	11.23
717.72	15.23
717.747	1.23
717.773	1.23
717.8	13.23
717.826	-4.77
717.853	14.23
717.88	13.23
717.906	2.23
717.933	18.23
717.959	12.23
717.986	-1.77
718.012	6.23
718.039	23.23
718.065	21.23
718.092	13.23
718.118	-0.77
718.144	-9.77
718.171	12.23
718.197	31.23
718.224	-1.77
718.25	-0.77
718.277	-4.77
718.303	-0.77
718.33	-2.77
718.356	-0.77
718.383	-11.77
718.409	-1.77
718.436	3.23
718.462	-3.77
718.489	-6.77
718.515	12.23
718.541	13.23
718.568	-6.77
718.594	13.23
718.621	4.23
718.647	-5.77
718.674	5.23
718.7	9.23
718.726	-13.77
718.753	0.23
718.779	3.23
718.806	3.23
718.832	2.23
718.858	-6.77
718.885	-3.77
718.911	1.23
718.938	8.23
718.964	-13.77
718.99	13.23
719.017	9.23
719.043	18.23
719.07	23.23
719.096	-3.77
719.122	14.23
719.149	1.23
719.175	7.23
719.201	3.23
719.228	4.23
719.254	-0.77
719.281	-4.77
719.307	-4.77
719.333	6.23
719.36	7.23
719.386	7.23
719.412	12.23
719.439	6.23
719.465	1.23
719.491	-5.77
719.518	12.23
719.544	10.23
719.57	18.23
719.597	25.23
719.623	2.23
719.649	9.23
719.675	17.23
719.702	3.23
719.728	22.23
719.754	6.23
719.781	-4.77
719.807	5.23
719.833	-4.77
719.86	-2.77
719.886	2.23
719.912	0.23
719.938	0.23
719.965	13.23
719.991	9.23
720.017	-1.77
720.044	-3.77
720.07	6.23
720.096	-1.77
720.122	3.23
720.149	1.23
720.175	29.23
720.201	-1.77
720.227	3.23
720.254	-3.77
720.28	-2.77
720.306	3.23
720.332	-3.77
720.359	2.23
720.385	17.23
720.411	7.23
720.437	15.23
720.463	4.23
720.49	15.23
720.516	-1.77
720.542	-8.77
720.568	-3.77
720.595	11.23
720.621	4.23
720.647	2.23
720.673	-1.77
720.699	10.23
720.725	2.23
720.752	7.23
720.778	9.23
720.804	26.23
720.83	22.23
720.856	-5.77
720.883	8.23
720.909	-2.77
720.935	14.23
720.961	12.23
720.987	3.23
721.013	9.23
721.04	6.23
721.066	1.23
721.092	8.23
721.118	1.23
721.144	-8.77
721.17	4.23
721.196	0.23
721.223	-2.77
721.249	-6.77
721.275	19.23
721.301	3.23
721.327	8.23
721.353	6.23
721.379	-0.77
721.405	11.23
721.432	22.23
721.458	6.23
721.484	14.23
721.51	-7.77
721.536	18.23
721.562	8.23
721.588	2.23
721.614	-1.77
721.64	3.23
721.666	3.23
721.693	-3.77
721.719	-5.77
721.745	0.23
721.771	-4.77
721.797	4.23
721.823	3.23
721.849	10.23
721.875	18.23
721.901	13.23
721.927	-2.77
721.953	4.23
721.979	14.23
722.005	-5.77
722.031	10.23
722.057	16.23
722.083	3.23
722.109	7.23
722.135	5.23
722.161	12.23
722.187	7.23
722.214	10.23
722.24	19.23
722.266	3.23
722.292	15.23
722.318	8.23
722.344	7.23
722.37	6.23
722.396	23.23
722.422	11.23
722.448	0.23
722.474	-7.77
722.5	18.23
722.526	10.23
722.552	11.23
722.578	11.23
722.603	10.23
722.629	-6.77
722.655	6.23
722.681	-8.77
722.707	2.23
722.733	3.23
722.759	1.23
722.785	-3.77
722.811	-7.77
722.837	12.23
722.863	0.23
722.889	24.23
722.915	2.23
722.941	-7.77
722.967	6.23
722.993	6.23
723.019	6.23
723.045	12.23
723.071	3.23
723.097	6.23
723.122	10.23
723.148	2.23
723.174	2.23
723.2	16.23
723.226	-0.77
723.252	21.23
723.278	-4.77
723.304	0.23
723.33	5.23
723.356	-16.77
723.381	-0.77
723.407	-11.77
723.433	18.23
723.459	0.23
723.485	4.23
723.511	11.23
723.537	2.23
723.563	18.23
723.588	4.23
723.614	14.23
723.64	0.23
723.666	9.23
723.692	10.23
723.718	13.23
723.744	8.23
723.769	-2.77
723.795	16.23
723.821	14.23
723.847	1.23
723.873	4.23
723.899	7.23
723.924	7.23
723.95	15.23
723.976	8.23
724.002	2.23
724.028	1.23
724.053	10.23
724.079	6.23
724.105	6.23
724.131	9.23
724.157	5.23
724.182	20.23
724.208	8.23
724.234	1.23
724.26	-4.77
724.286	11.23
724.311	6.23
724.337	0.23
724.363	-0.77
724.389	6.23
724.415	1.23
724.44	12.23
724.466	12.23
724.492	11.23
724.518	4.23
724.543	-9.77
724.569	6.23
724.595	11.23
724.621	-0.77
724.646	-11.77
724.672	13.23
724.698	0.23
724.723	-7.77
724.749	0.23
724.775	11.23
724.801	-1.77
724.826	-16.77
724.852	2.23
724.878	0.23
724.904	-9.77
724.929	-3.77
724.955	-4.77
724.981	-6.77
725.006	7.23
725.032	9.23
725.058	6.23
725.083	3.23
725.109	2.23
725.135	16.23
725.161	14.23
725.186	7.23
725.212	-13.77
725.238	6.23
725.263	0.23
725.289	-8.77
725.315	-0.77
725.34	-4.77
725.366	0.23
725.392	-15.77
725.417	10.23
725.443	4.23
725.468	15.23
725.494	16.23
725.52	11.23
725.545	-6.77
725.571	-5.77
725.597	0.23
725.622	-12.77
725.648	-3.77
725.674	1.23
725.699	16.23
725.725	9.23
725.75	22.23
725.776	-1.77
725.802	6.23
725.827	12.23
725.853	-0.77
725.878	-2.77
725.904	30.23
725.93	8.23
725.955	7.23
725.981	-4.77
726.006	12.23
726.032	13.23
726.057	2.23
726.083	1.23
726.109	1.23
726.134	13.23
726.16	4.23
726.185	6.23
726.211	4.23
726.236	22.23
726.262	12.23
726.288	4.23
726.313	14.23
726.339	7.23
726.364	18.23
726.39	24.23
726.415	1.23
726.441	-5.77
726.466	8.23
726.492	6.23
726.517	16.23
726.543	11.23
726.568	-9.77
726.594	17.23
726.619	25.23
726.645	-3.77
726.67	12.23
726.696	20.23
726.721	4.23
726.747	-11.77
726.772	14.23
726.798	13.23
726.823	15.23
726.849	-5.77
726.874	-4.77
726.9	26.23
726.925	16.23
726.951	4.23
726.976	27.23
727.002	-0.77
727.027	18.23
727.053	23.23
727.078	14.23
727.104	2.23
727.129	-5.77
727.155	-3.77
727.18	17.23
727.205	8.23
727.231	10.23
727.256	3.23
727.282	4.23
727.307	8.23
727.333	3.23
727.358	-13.77
727.383	-9.77
727.409	-1.77
727.434	12.23
727.46	7.23
727.485	15.23
727.511	10.23
727.536	-8.77
727.561	-5.77
727.587	-1.77
727.612	0.23
727.637	1.23
727.663	6.23
727.688	25.23
727.714	11.23
727.739	-3.77
727.764	5.23
727.79	7.23
727.815	14.23
727.841	10.23
727.866	6.23
727.891	8.23
727.917	-1.77
727.942	-7.77
727.967	0.23
727.993	-12.77
728.018	10.23
728.043	4.23
728.069	19.23
728.094	17.23
728.119	9.23
728.145	27.23
728.17	2.23
728.195	11.23
728.221	17.23
728.246	-11.77
728.271	1.23
728.297	0.23
728.322	11.23
728.347	4.23
728.373	11.23
728.398	10.23
728.423	12.23
728.448	19.23
728.474	15.23
728.499	3.23
728.524	-1.77
728.55	-2.77
728.575	5.23
728.6	15.23
728.625	3.23
728.651	4.23
728.676	0.23
728.701	-4.77
728.727	-3.77
728.752	1.23
728.777	7.23
728.802	6.23
728.828	17.23
728.853	3.23
728.878	12.23
728.903	-5.77
728.929	0.23
728.954	3.23
728.979	12.23
729.004	-5.77
729.03	0.23
729.055	-2.77
729.08	-8.77
729.105	2.23
729.13	14.23
729.156	9.23
729.181	1.23
729.206	0.23
729.231	14.23
729.256	9.23
729.282	16.23
729.307	2.23
729.332	-8.77
729.357	-2.77
729.382	1.23
729.408	-2.77
729.433	10.23
729.458	10.23
729.483	18.23
729.508	16.23
729.533	16.23
729.559	7.23
729.584	8.23
729.609	7.23
729.634	29.23
729.659	0.23
729.684	-13.77
729.71	33.23
729.735	-0.77
729.76	-0.77
729.785	2.23
729.81	10.23
729.835	4.23
729.86	6.23
729.886	24.23
729.911	5.23
729.936	3.23
729.961	6.23
729.986	-9.77
730.011	11.23
730.036	3.23
730.061	0.23
730.086	7.23
730.112	10.23
730.137	11.23
730.162	17.23
730.187	-7.77
730.212	10.23
730.237	11.23
730.262	7.23
730.287	-6.77
730.312	6.23
730.337	-2.77
730.362	11.23
730.387	9.23
730.413	-1.77
730.438	2.23
730.463	11.23
730.488	-7.77
730.513	15.23
730.538	-18.77
730.563	15.23
730.588	7.23
730.613	14.23
730.638	5.23
730.663	3.23
730.688	18.23
730.713	4.23
730.738	-1.77
730.763	1.23
730.788	-7.77
730.813	0.23
730.838	1.23
730.863	5.23
730.888	7.23
730.913	-4.77
730.938	-13.77
730.963	11.23
730.988	8.23
731.013	26.23
731.038	-1.77
731.063	3.23
731.088	6.23
731.113	3.23
731.138	-3.77
731.163	3.23
731.188	4.23
731.213	8.23
731.238	13.23
731.263	5.23
731.288	5.23
731.313	6.23
731.338	13.23
731.363	20.23
731.388	12.23
731.413	-2.77
731.438	10.23
731.463	19.23
731.487	14.23
731.512	9.23
731.537	7.23
731.562	8.23
731.587	14.23
731.612	-2.77
731.637	7.23
731.662	7.23
731.687	4.23
731.712	-4.77
731.737	10.23
731.762	11.23
731.786	11.23
731.811	2.23
731.836	7.23
731.861	6.23
731.886	2.23
731.911	15.23
731.936	38.23
731.961	1.23
731.986	3.23
732.01	3.23
732.035	-4.77
732.06	11.23
732.085	1.23
732.11	13.23
732.135	-5.77
732.16	10.23
732.184	2.23
732.209	11.23
732.234	6.23
732.259	0.23
732.284	4.23
732.309	-5.77
732.334	4.23
732.358	0.23
732.383	-7.77
732.408	-0.77
732.433	2.23
732.458	-0.77
732.482	11.23
732.507	-4.77
732.532	6.23
732.557	30.23
732.582	12.23
732.607	7.23
732.631	-1.77
732.656	-3.77
732.681	8.23
732.706	3.23
732.73	10.23
732.755	9.23
732.78	1.23
732.805	15.23
732.83	-11.77
732.854	-3.77
732.879	15.23
732.904	-4.77
732.929	-0.77
732.953	4.23
732.978	2.23
733.003	6.23
733.028	0.23
733.052	9.23
733.077	16.23
733.102	14.23
733.127	2.23
733.151	3.23
733.176	8.23
733.201	7.23
733.226	4.23
733.25	10.23
733.275	4.23
733.3	7.23
733.324	16.23
733.349	13.23
733.374	26.23
733.399	12.23
733.423	-5.77
733.448	1.23
733.473	13.23
733.497	14.23
733.522	-1.77
733.547	-0.77
733.571	5.23
733.596	1.23
733.621	5.23
733.646	4.23
733.67	6.23
733.695	-9.77
733.72	3.23
733.744	14.23
733.769	17.23
733.794	14.23
733.818	6.23
733.843	-5.77
733.867	-5.77
733.892	16.23
733.917	-11.77
733.941	1.23
733.966	7.23
733.991	-7.77
734.015	10.23
734.04	-5.77
734.065	8.23
734.089	23.23
734.114	2.23
734.138	-2.77
734.163	-5.77
734.188	11.23
734.212	21.23
734.237	24.23
734.261	1.23
734.286	-0.77
734.311	-3.77
734.335	17.23
734.36	1.23
734.384	-0.77
734.409	16.23
734.434	-0.77
734.458	3.23
734.483	9.23
734.507	0.23
734.532	3.23
734.556	-7.77
734.581	-2.77
734.606	1.23
734.63	-5.77
734.655	-5.77
734.679	9.23
734.704	11.23
734.728	-5.77
734.753	1.23
734.777	2.23
734.802	-0.77
734.826	-2.77
734.851	2.23
734.876	0.23
734.9	12.23
734.925	14.23
734.949	9.23
734.974	9.23
734.998	10.23
735.023	6.23
735.047	-4.77
735.072	18.23
735.096	0.23
735.121	3.23
735.145	7.23
735.17	1.23
735.194	3.23
735.219	-2.77
735.243	6.23
735.268	-1.77
735.292	18.23
735.317	4.23
735.341	8.23
735.365	3.23
735.39	20.23
735.414	18.23
735.439	1.23
735.463	16.23
735.488	12.23
735.512	17.23
735.537	3.23
735.561	19.23
735.586	13.23
735.61	3.23
735.634	-0.77
735.659	19.23
735.683	16.23
735.708	-5.77
735.732	-3.77
735.757	2.23
735.781	34.23
735.805	18.23
735.83	5.23
735.854	-5.77
735.879	8.23
735.903	15.23
735.927	9.23
735.952	9.23
735.976	7.23
736.001	9.23
736.025	2.23
736.049	1.23
736.074	-6.77
736.098	-8.77
736.123	22.23
736.147	2.23
736.171	-0.77
736.196	20.23
736.22	3.23
736.244	6.23
736.269	-0.77
736.293	0.23
736.317	0.23
736.342	11.23
736.366	10.23
736.39	-2.77
736.415	-6.77
736.439	-3.77
736.463	9.23
736.488	-3.77
736.512	3.23
736.536	7.23
736.561	15.23
736.585	-3.77
736.609	16.23
736.634	0.23
736.658	-6.77
736.682	-13.77
736.707	-6.77
736.731	-9.77
736.755	7.23
736.78	21.23
736.804	20.23
736.828	0.23
736.852	-9.77
736.877	-0.77
736.901	11.23
736.925	11.23
736.949	11.23
736.974	8.23
736.998	-5.77
737.022	4.23
737.047	1.23
737.071	-6.77
737.095	22.23
737.119	34.23
737.144	13.23
737.168	-2.77
737.192	-8.77
737.216	4.23
737.241	-9.77
737.265	4.23
737.289	-8.77
737.313	-12.77
737.337	4.23
737.362	7.23
737.386	-12.77
737.41	-7.77
737.434	3.23
737.459	6.23
737.483	9.23
737.507	16.23
737.531	21.23
737.555	1.23
737.58	12.23
737.604	16.23
737.628	-2.77
737.652	2.23
737.676	12.23
737.701	11.23
737.725	7.23
737.749	6.23
737.773	-4.77
737.797	4.23
737.821	-0.77
737.846	6.23
737.87	21.23
737.894	-2.77
737.918	14.23
737.942	14.23
737.966	23.23
737.99	30.23
738.015	16.23
738.039	10.23
738.063	8.23
738.087	4.23
738.111	10.23
738.135	22.23
738.159	12.23
738.184	1.23
738.208	4.23
738.232	2.23
738.256	18.23
738.28	10.23
738.304	3.23
738.328	11.23
738.352	-6.77
738.376	-0.77
738.4	7.23
738.425	19.23
738.449	7.23
738.473	11.23
738.497	8.23
738.521	5.23
738.545	15.23
738.569	12.23
738.593	9.23
738.617	5.23
738.641	-3.77
738.665	0.23
738.689	-0.77
738.713	-4.77
738.737	8.23
738.762	16.23
738.786	-0.77
738.81	-9.77
738.834	2.23
738.858	0.23
738.882	7.23
738.906	10.23
738.93	-1.77
738.954	11.23
738.978	23.23
739.002	2.23
739.026	18.23
739.05	9.23
739.074	4.23
739.098	33.23
739.122	21.23
739.146	11.23
739.17	0.23
739.194	1.23
739.218	-19.77
739.242	17.23
739.266	0.23
739.29	18.23
739.314	8.23
739.338	14.23
739.362	17.23
739.386	9.23
739.41	-3.77
739.434	-4.77
739.458	10.23
739.482	14.23
739.506	19.23
739.53	3.23
739.554	7.23
739.577	2.23
739.601	10.23
739.625	-5.77
739.649	16.23
739.673	-0.77
739.697	18.23
739.721	4.23
739.745	-2.77
739.769	19.23
739.793	22.23
739.817	15.23
739.841	-9.77
739.865	2.23
739.889	-13.77
739.912	23.23
739.936	2.23
739.96	11.23
739.984	22.23
740.008	11.23
740.032	9.23
740.056	6.23
740.08	-0.77
740.104	3.23
740.127	3.23
740.151	18.23
740.175	14.23
740.199	-2.77
740.223	32.23
740.247	24.23
740.271	12.23
740.295	0.23
740.318	-10.77
740.342	-1.77
740.366	15.23
740.39	6.23
740.414	3.23
740.438	-8.77
740.461	16.23
740.485	9.23
740.509	12.23
740.533	14.23
740.557	0.23
740.581	-5.77
740.604	-12.77
740.628	10.23
740.652	-0.77
740.676	5.23
740.7	17.23
740.723	10.23
740.747	0.23
740.771	2.23
740.795	0.23
740.819	13.23
740.842	12.23
740.866	23.23
740.89	3.23
740.914	12.23
740.938	0.23
740.961	8.23
740.985	-5.77
741.009	-3.77
741.033	17.23
741.056	18.23
741.08	6.23
741.104	-1.77
741.128	3.23
741.151	16.23
741.175	2.23
741.199	-1.77
741.223	14.23
741.246	-5.77
741.27	14.23
741.294	16.23
741.318	-5.77
741.341	5.23
741.365	6.23
741.389	11.23
741.413	20.23
741.436	18.23
741.46	12.23
741.484	21.23
741.507	-4.77
741.531	20.23
741.555	5.23
741.579	2.23
741.602	9.23
741.626	5.23
741.65	-3.77
741.673	-6.77
741.697	15.23
741.721	13.23
741.744	-0.77
741.768	-9.77
741.792	2.23
741.815	1.23
741.839	25.23
741.863	12.23
741.886	4.23
741.91	10.23
741.934	7.23
741.957	-6.77
741.981	16.23
742.005	3.23
742.028	-7.77
742.052	6.23
742.075	6.23
742.099	9.23
742.123	9.23
742.146	-4.77
742.17	4.23
742.194	-0.77
742.217	0.23
742.241	-3.77
742.264	-8.77
742.288	16.23
742.312	14.23
742.335	2.23
742.359	-3.77
742.382	3.23
742.406	14.23
742.43	1.23
742.453	4.23
742.477	10.23
742.5	1.23
742.524	6.23
742.548	-2.77
742.571	2.23
742.595	-10.77
742.618	-3.77
742.642	2.23
742.665	13.23
742.689	-17.77
742.712	21.23
742.736	9.23
742.76	14.23
742.783	7.23
742.807	18.23
742.83	19.23
742.854	-15.77
742.877	5.23
742.901	9.23
742.924	-0.77
742.948	8.23
742.971	26.23
742.995	11.23
743.018	-2.77
743.042	-2.77
743.065	-8.77
743.089	-21.77
743.112	6.23
743.136	2.23
743.159	-15.77
743.183	-6.77
743.206	7.23
743.23	4.23
743.253	4.23
743.277	11.23
743.3	3.23
743.324	-0.77
743.347	-3.77
743.371	22.23
743.394	25.23
743.418	14.23
743.441	16.23
743.465	2.23
743.488	11.23
743.512	1.23
743.535	-9.77
743.558	9.23
743.582	14.23
743.605	3.23
743.629	12.23
743.652	10.23
743.676	4.23
743.699	3.23
743.723	0.23
743.746	1.23
743.769	3.23
743.793	14.23
743.816	-9.77
743.84	29.23
743.863	8.23
743.886	13.23
743.91	30.23
743.933	16.23
743.957	10.23
743.98	6.23
744.003	-14.77
744.027	2.23
744.05	0.23
744.074	-9.77
744.097	-5.77
744.12	0.23
744.144	3.23
744.167	16.23
744.19	2.23
744.214	4.23
744.237	-11.77
744.26	26.23
744.284	0.23
744.307	-7.77
744.331	14.23
744.354	-1.77
744.377	12.23
744.401	2.23
744.424	12.23
744.447	-6.77
744.471	4.23
