Data from HighRes_H2D2_15_04_11_07_2024_HR4C61891__35__15-05-37-943.txt Node

Date: Thu Nov 07 15:05:37 EST 2024
User: crc00042
Spectrometer: HR4C6189
Trigger mode: 4
Integration Time (sec): 1.000000E-1
Scans to average: 1
Electric dark correction enabled: true
Nonlinearity correction enabled: false
Boxcar width: 0
XAxis mode: Wavelengths
Number of Pixels in Spectrum: 3648
>>>>>Begin Spectral Data<<<<<
639.567	-32.15
639.602	-32.15
639.636	-32.15
639.67	-46.15
639.704	-24.15
639.738	-6.15
639.773	6.85
639.807	-19.15
639.841	-9.15
639.875	11.85
639.909	5.85
639.943	-9.15
639.978	-8.15
640.012	6.85
640.046	11.85
640.08	10.85
640.114	3.85
640.148	-6.15
640.182	-6.15
640.217	12.85
640.251	13.85
640.285	6.85
640.319	-19.15
640.353	-3.15
640.387	-3.15
640.421	-6.15
640.455	-3.15
640.49	-7.15
640.524	3.85
640.558	0.85
640.592	-4.15
640.626	-10.15
640.66	4.85
640.694	-5.15
640.728	7.85
640.762	-10.15
640.796	7.85
640.83	1.85
640.865	-15.15
640.899	6.85
640.933	-8.15
640.967	-14.15
641.001	0.85
641.035	4.85
641.069	1.85
641.103	2.85
641.137	-12.15
641.171	-9.15
641.205	9.85
641.239	-9.15
641.273	6.85
641.307	5.85
641.341	-4.15
641.375	2.85
641.409	-20.15
641.443	-2.15
641.477	-3.15
641.511	14.85
641.545	-10.15
641.579	-8.15
641.614	6.85
641.648	0.85
641.682	-10.15
641.716	4.85
641.75	8.85
641.784	7.85
641.818	13.85
641.852	-5.15
641.886	-2.15
641.919	17.85
641.953	-6.15
641.987	-7.15
642.021	-12.15
642.055	-0.15
642.089	7.85
642.123	-0.15
642.157	1.85
642.191	-10.15
642.225	18.85
642.259	2.85
642.293	2.85
642.327	-6.15
642.361	-11.15
642.395	6.85
642.429	-1.15
642.463	1.85
642.497	10.85
642.531	8.85
642.565	-10.15
642.599	2.85
642.633	-24.15
642.666	-5.15
642.7	5.85
642.734	-1.15
642.768	-7.15
642.802	2.85
642.836	-3.15
642.87	-7.15
642.904	0.85
642.938	2.85
642.972	-2.15
643.005	11.85
643.039	21.85
643.073	-10.15
643.107	10.85
643.141	-0.15
643.175	-8.15
643.209	-6.15
643.243	1.85
643.276	7.85
643.31	-4.15
643.344	-11.15
643.378	-10.15
643.412	10.85
643.446	-3.15
643.48	7.85
643.513	8.85
643.547	4.85
643.581	8.85
643.615	14.85
643.649	-7.15
643.683	0.85
643.716	-0.15
643.75	9.85
643.784	-11.15
643.818	6.85
643.852	-4.15
643.886	-14.15
643.919	-1.15
643.953	-5.15
643.987	-8.15
644.021	21.85
644.055	13.85
644.088	1.85
644.122	-10.15
644.156	4.85
644.19	-5.15
644.224	-4.15
644.257	-1.15
644.291	-16.15
644.325	-21.15
644.359	-8.15
644.392	28.85
644.426	17.85
644.46	-1.15
644.494	4.85
644.527	4.85
644.561	11.85
644.595	-6.15
644.629	9.85
644.662	-16.15
644.696	6.85
644.73	-7.15
644.764	8.85
644.797	4.85
644.831	-13.15
644.865	1.85
644.899	5.85
644.932	22.85
644.966	-7.15
645	7.85
645.033	4.85
645.067	-7.15
645.101	-0.15
645.135	-6.15
645.168	-15.15
645.202	-17.15
645.236	-11.15
645.269	-1.15
645.303	-12.15
645.337	-13.15
645.37	-8.15
645.404	-1.15
645.438	2.85
645.471	0.85
645.505	3.85
645.539	0.85
645.572	-13.15
645.606	-9.15
645.64	10.85
645.673	9.85
645.707	19.85
645.741	1.85
645.774	-5.15
645.808	3.85
645.842	-8.15
645.875	6.85
645.909	-12.15
645.943	-1.15
645.976	7.85
646.01	1.85
646.043	17.85
646.077	8.85
646.111	4.85
646.144	6.85
646.178	17.85
646.212	-9.15
646.245	-8.15
646.279	1.85
646.312	6.85
646.346	14.85
646.38	-1.15
646.413	-10.15
646.447	-5.15
646.48	-15.15
646.514	1.85
646.547	-10.15
646.581	-26.15
646.615	4.85
646.648	10.85
646.682	-19.15
646.715	5.85
646.749	16.85
646.782	-3.15
646.816	6.85
646.85	10.85
646.883	-6.15
646.917	1.85
646.95	6.85
646.984	-0.15
647.017	-3.15
647.051	-7.15
647.084	4.85
647.118	2.85
647.151	-14.15
647.185	-0.15
647.218	-0.15
647.252	-13.15
647.285	-15.15
647.319	-23.15
647.353	-1.15
647.386	16.85
647.42	0.85
647.453	-5.15
647.487	-0.15
647.52	-5.15
647.553	6.85
647.587	-12.15
647.62	1.85
647.654	14.85
647.687	3.85
647.721	-18.15
647.754	-3.15
647.788	-1.15
647.821	-14.15
647.855	0.85
647.888	3.85
647.922	9.85
647.955	8.85
647.989	6.85
648.022	6.85
648.055	-0.15
648.089	-0.15
648.122	9.85
648.156	11.85
648.189	-16.15
648.223	12.85
648.256	24.85
648.29	8.85
648.323	1.85
648.356	15.85
648.39	4.85
648.423	4.85
648.457	2.85
648.49	-3.15
648.523	11.85
648.557	-10.15
648.59	-9.15
648.624	-5.15
648.657	-11.15
648.69	5.85
648.724	-1.15
648.757	8.85
648.791	4.85
648.824	1.85
648.857	22.85
648.891	12.85
648.924	2.85
648.957	19.85
648.991	-6.15
649.024	13.85
649.057	-1.15
649.091	-1.15
649.124	5.85
649.158	6.85
649.191	29.85
649.224	22.85
649.258	1.85
649.291	-14.15
649.324	2.85
649.358	-8.15
649.391	2.85
649.424	-0.15
649.458	7.85
649.491	-5.15
649.524	-12.15
649.557	4.85
649.591	10.85
649.624	12.85
649.657	-1.15
649.691	-23.15
649.724	-3.15
649.757	1.85
649.791	-20.15
649.824	11.85
649.857	-4.15
649.89	5.85
649.924	-17.15
649.957	1.85
649.99	-5.15
650.023	-1.15
650.057	-6.15
650.09	-4.15
650.123	-7.15
650.157	11.85
650.19	32.85
650.223	6.85
650.256	-1.15
650.29	5.85
650.323	1.85
650.356	-1.15
650.389	-2.15
650.423	1.85
650.456	12.85
650.489	3.85
650.522	9.85
650.555	10.85
650.589	-2.15
650.622	-15.15
650.655	6.85
650.688	-1.15
650.721	-6.15
650.755	-3.15
650.788	2.85
650.821	2.85
650.854	-0.15
650.887	8.85
650.921	-12.15
650.954	-2.15
650.987	10.85
651.02	-12.15
651.053	-16.15
651.087	-15.15
651.12	24.85
651.153	-3.15
651.186	-4.15
651.219	-29.15
651.252	-18.15
651.286	11.85
651.319	5.85
651.352	-2.15
651.385	-7.15
651.418	-2.15
651.451	3.85
651.484	-0.15
651.518	-6.15
651.551	23.85
651.584	-7.15
651.617	19.85
651.65	4.85
651.683	7.85
651.716	10.85
651.749	-8.15
651.783	0.85
651.816	-0.15
651.849	17.85
651.882	-1.15
651.915	6.85
651.948	-2.15
651.981	-13.15
652.014	-19.15
652.047	-14.15
652.08	-13.15
652.114	1.85
652.147	-4.15
652.18	6.85
652.213	37.85
652.246	0.85
652.279	3.85
652.312	2.85
652.345	2.85
652.378	-4.15
652.411	20.85
652.444	22.85
652.477	-0.15
652.51	-6.15
652.543	-22.15
652.576	20.85
652.609	-3.15
652.642	-10.15
652.675	16.85
652.709	5.85
652.742	22.85
652.775	-5.15
652.808	1.85
652.841	-5.15
652.874	6.85
652.907	-1.15
652.94	-3.15
652.973	-21.15
653.006	-7.15
653.039	-9.15
653.072	0.85
653.105	2.85
653.138	-10.15
653.171	-0.15
653.204	-10.15
653.237	-1.15
653.27	-8.15
653.303	4.85
653.336	8.85
653.368	-6.15
653.401	-3.15
653.434	-11.15
653.467	-0.15
653.5	-11.15
653.533	-4.15
653.566	-6.15
653.599	-0.15
653.632	-1.15
653.665	-4.15
653.698	-19.15
653.731	-11.15
653.764	2.85
653.797	-13.15
653.83	12.85
653.863	4.85
653.896	-11.15
653.929	-6.15
653.961	9.85
653.994	8.85
654.027	-5.15
654.06	8.85
654.093	-5.15
654.126	-5.15
654.159	-6.15
654.192	-5.15
654.225	7.85
654.258	6.85
654.29	-0.15
654.323	7.85
654.356	-14.15
654.389	-15.15
654.422	0.85
654.455	-0.15
654.488	10.85
654.521	-11.15
654.553	-22.15
654.586	5.85
654.619	15.85
654.652	-4.15
654.685	-3.15
654.718	19.85
654.751	11.85
654.783	-0.15
654.816	18.85
654.849	18.85
654.882	-0.15
654.915	-17.15
654.948	-7.15
654.98	-1.15
655.013	6.85
655.046	-5.15
655.079	-5.15
655.112	-9.15
655.144	-0.15
655.177	11.85
655.21	21.85
655.243	4.85
655.276	-3.15
655.308	1.85
655.341	-10.15
655.374	-3.15
655.407	6.85
655.44	-10.15
655.472	-0.15
655.505	-1.15
655.538	-1.15
655.571	14.85
655.603	13.85
655.636	1.85
655.669	3.85
655.702	-3.15
655.734	-18.15
655.767	-29.15
655.8	7.85
655.833	22.85
655.865	27.85
655.898	16.85
655.931	11.85
655.964	10.85
655.996	16.85
656.029	30.85
656.062	28.85
656.095	45.85
656.127	74.85
656.16	198.85
656.193	620.85
656.225	955.85
656.258	568.85
656.291	219.85
656.324	170.85
656.356	350.85
656.389	765.85
656.422	673.85
656.454	236.85
656.487	71.85
656.52	45.85
656.552	9.85
656.585	18.85
656.618	6.85
656.65	9.85
656.683	1.85
656.716	1.85
656.748	2.85
656.781	3.85
656.814	-7.15
656.846	5.85
656.879	-31.15
656.912	-12.15
656.944	-19.15
656.977	2.85
657.01	12.85
657.042	8.85
657.075	16.85
657.108	-11.15
657.14	12.85
657.173	22.85
657.205	7.85
657.238	-0.15
657.271	-1.15
657.303	-1.15
657.336	1.85
657.369	10.85
657.401	2.85
657.434	-14.15
657.466	10.85
657.499	8.85
657.532	-13.15
657.564	-7.15
657.597	-4.15
657.629	9.85
657.662	-3.15
657.694	1.85
657.727	-18.15
657.76	6.85
657.792	-17.15
657.825	2.85
657.857	10.85
657.89	-1.15
657.922	5.85
657.955	-21.15
657.987	-2.15
658.02	6.85
658.053	11.85
658.085	8.85
658.118	9.85
658.15	-5.15
658.183	20.85
658.215	6.85
658.248	-5.15
658.28	-11.15
658.313	1.85
658.345	-9.15
658.378	2.85
658.41	-8.15
658.443	6.85
658.475	5.85
658.508	-12.15
658.54	7.85
658.573	-6.15
658.605	4.85
658.638	1.85
658.67	6.85
658.703	-3.15
658.735	-7.15
658.768	-11.15
658.8	-23.15
658.833	13.85
658.865	-5.15
658.898	-17.15
658.93	-7.15
658.963	-2.15
658.995	-13.15
659.028	7.85
659.06	-10.15
659.092	-10.15
659.125	-9.15
659.157	7.85
659.19	-3.15
659.222	-9.15
659.255	-19.15
659.287	-7.15
659.32	-8.15
659.352	5.85
659.384	6.85
659.417	10.85
659.449	7.85
659.482	4.85
659.514	-19.15
659.546	-17.15
659.579	-15.15
659.611	2.85
659.644	-5.15
659.676	-3.15
659.708	-1.15
659.741	-13.15
659.773	0.85
659.806	4.85
659.838	-1.15
659.87	0.85
659.903	-3.15
659.935	3.85
659.967	-1.15
660	-8.15
660.032	-17.15
660.065	-1.15
660.097	9.85
660.129	6.85
660.162	-23.15
660.194	5.85
660.226	-9.15
660.259	9.85
660.291	-14.15
660.323	-6.15
660.356	1.85
660.388	-13.15
660.42	-15.15
660.453	-18.15
660.485	-0.15
660.517	6.85
660.55	9.85
660.582	2.85
660.614	2.85
660.647	-27.15
660.679	-24.15
660.711	-1.15
660.743	-24.15
660.776	-9.15
660.808	-7.15
660.84	-4.15
660.873	11.85
660.905	-3.15
660.937	-3.15
660.969	-10.15
661.002	-1.15
661.034	10.85
661.066	-10.15
661.099	4.85
661.131	15.85
661.163	-7.15
661.195	1.85
661.228	8.85
661.26	-6.15
661.292	-14.15
661.324	-5.15
661.357	4.85
661.389	7.85
661.421	7.85
661.453	-2.15
661.485	2.85
661.518	4.85
661.55	-19.15
661.582	-18.15
661.614	0.85
661.647	5.85
661.679	10.85
661.711	-0.15
661.743	-10.15
661.775	7.85
661.808	7.85
661.84	-17.15
661.872	5.85
661.904	-4.15
661.936	12.85
661.969	1.85
662.001	-10.15
662.033	-13.15
662.065	-7.15
662.097	-2.15
662.129	4.85
662.162	-10.15
662.194	-16.15
662.226	-8.15
662.258	3.85
662.29	6.85
662.322	4.85
662.355	-10.15
662.387	10.85
662.419	-2.15
662.451	14.85
662.483	4.85
662.515	-1.15
662.547	-16.15
662.58	-4.15
662.612	-7.15
662.644	-17.15
662.676	-5.15
662.708	6.85
662.74	-12.15
662.772	-3.15
662.804	-2.15
662.836	-6.15
662.869	-5.15
662.901	15.85
662.933	2.85
662.965	14.85
662.997	4.85
663.029	-5.15
663.061	-2.15
663.093	7.85
663.125	7.85
663.157	10.85
663.189	9.85
663.221	-6.15
663.254	-5.15
663.286	-1.15
663.318	-8.15
663.35	-20.15
663.382	-2.15
663.414	-0.15
663.446	3.85
663.478	-13.15
663.51	9.85
663.542	-13.15
663.574	-20.15
663.606	-4.15
663.638	-18.15
663.67	2.85
663.702	2.85
663.734	-1.15
663.766	-5.15
663.798	3.85
663.83	7.85
663.862	4.85
663.894	-2.15
663.926	-11.15
663.958	13.85
663.99	-1.15
664.022	0.85
664.054	2.85
664.086	0.85
664.118	-18.15
664.15	-19.15
664.182	-1.15
664.214	-11.15
664.246	7.85
664.278	3.85
664.31	12.85
664.342	-4.15
664.374	-13.15
664.406	-3.15
664.438	-3.15
664.47	16.85
664.502	-5.15
664.534	-8.15
664.566	-3.15
664.598	-0.15
664.63	7.85
664.662	-0.15
664.693	0.85
664.725	-11.15
664.757	-11.15
664.789	-9.15
664.821	1.85
664.853	12.85
664.885	-11.15
664.917	-7.15
664.949	6.85
664.981	14.85
665.013	-8.15
665.045	-11.15
665.076	-5.15
665.108	7.85
665.14	-10.15
665.172	3.85
665.204	-12.15
665.236	-4.15
665.268	18.85
665.3	6.85
665.331	-8.15
665.363	3.85
665.395	-2.15
665.427	-22.15
665.459	8.85
665.491	6.85
665.523	3.85
665.555	-6.15
665.586	4.85
665.618	-0.15
665.65	6.85
665.682	10.85
665.714	-1.15
665.746	-11.15
665.777	6.85
665.809	1.85
665.841	11.85
665.873	-7.15
665.905	-1.15
665.937	17.85
665.968	6.85
666	2.85
666.032	7.85
666.064	-1.15
666.096	8.85
666.127	9.85
666.159	11.85
666.191	14.85
666.223	-0.15
666.255	-6.15
666.286	-8.15
666.318	-4.15
666.35	14.85
666.382	4.85
666.413	-3.15
666.445	-4.15
666.477	-6.15
666.509	5.85
666.54	9.85
666.572	-3.15
666.604	4.85
666.636	7.85
666.667	-2.15
666.699	11.85
666.731	5.85
666.763	-0.15
666.794	-3.15
666.826	12.85
666.858	-13.15
666.89	5.85
666.921	3.85
666.953	-1.15
666.985	1.85
667.017	11.85
667.048	10.85
667.08	-1.15
667.112	-8.15
667.143	-2.15
667.175	7.85
667.207	-2.15
667.238	1.85
667.27	7.85
667.302	6.85
667.334	-2.15
667.365	21.85
667.397	-1.15
667.429	-2.15
667.46	10.85
667.492	16.85
667.524	13.85
667.555	-2.15
667.587	-12.15
667.619	-1.15
667.65	-8.15
667.682	2.85
667.714	-1.15
667.745	9.85
667.777	5.85
667.808	11.85
667.84	13.85
667.872	-0.15
667.903	9.85
667.935	2.85
667.967	4.85
667.998	-10.15
668.03	-3.15
668.061	-0.15
668.093	5.85
668.125	5.85
668.156	2.85
668.188	-13.15
668.22	-13.15
668.251	4.85
668.283	1.85
668.314	9.85
668.346	-3.15
668.377	5.85
668.409	-8.15
668.441	-0.15
668.472	1.85
668.504	-2.15
668.535	8.85
668.567	9.85
668.599	3.85
668.63	3.85
668.662	9.85
668.693	13.85
668.725	-2.15
668.756	5.85
668.788	-9.15
668.819	-10.15
668.851	-9.15
668.882	-11.15
668.914	-11.15
668.946	-14.15
668.977	-6.15
669.009	-4.15
669.04	-30.15
669.072	-1.15
669.103	6.85
669.135	14.85
669.166	5.85
669.198	1.85
669.229	14.85
669.261	0.85
669.292	-1.15
669.324	-14.15
669.355	10.85
669.387	-3.15
669.418	4.85
669.45	-12.15
669.481	-2.15
669.513	11.85
669.544	7.85
669.576	5.85
669.607	12.85
669.639	3.85
669.67	-3.15
669.701	2.85
669.733	-13.15
669.764	-2.15
669.796	5.85
669.827	-9.15
669.859	2.85
669.89	6.85
669.922	13.85
669.953	12.85
669.985	3.85
670.016	3.85
670.047	6.85
670.079	1.85
670.11	5.85
670.142	6.85
670.173	8.85
670.204	1.85
670.236	-2.15
670.267	-10.15
670.299	-5.15
670.33	-1.15
670.362	-0.15
670.393	-3.15
670.424	3.85
670.456	-5.15
670.487	5.85
670.518	5.85
670.55	8.85
670.581	-15.15
670.613	7.85
670.644	-12.15
670.675	-9.15
670.707	2.85
670.738	-3.15
670.769	-7.15
670.801	0.85
670.832	5.85
670.864	-11.15
670.895	15.85
670.926	-9.15
670.958	-22.15
670.989	-4.15
671.02	6.85
671.052	-6.15
671.083	6.85
671.114	-13.15
671.146	2.85
671.177	2.85
671.208	-8.15
671.24	-13.15
671.271	-4.15
671.302	14.85
671.333	-5.15
671.365	-11.15
671.396	-10.15
671.427	-2.15
671.459	-5.15
671.49	0.85
671.521	-5.15
671.553	9.85
671.584	0.85
671.615	-11.15
671.646	4.85
671.678	-3.15
671.709	-5.15
671.74	-20.15
671.771	-9.15
671.803	-11.15
671.834	-10.15
671.865	-0.15
671.896	13.85
671.928	6.85
671.959	-0.15
671.99	-10.15
672.021	-5.15
672.053	-10.15
672.084	13.85
672.115	9.85
672.146	2.85
672.178	-9.15
672.209	5.85
672.24	8.85
672.271	23.85
672.303	9.85
672.334	14.85
672.365	0.85
672.396	-13.15
672.427	-7.15
672.459	14.85
672.49	19.85
672.521	-8.15
672.552	7.85
672.583	11.85
672.615	6.85
672.646	18.85
672.677	-7.15
672.708	-10.15
672.739	-4.15
672.77	18.85
672.802	-0.15
672.833	8.85
672.864	-15.15
672.895	-0.15
672.926	5.85
672.957	-17.15
672.989	-5.15
673.02	-4.15
673.051	-8.15
673.082	9.85
673.113	-0.15
673.144	-2.15
673.175	-4.15
673.206	-19.15
673.238	-7.15
673.269	-2.15
673.3	5.85
673.331	15.85
673.362	2.85
673.393	-4.15
673.424	19.85
673.455	6.85
673.487	27.85
673.518	12.85
673.549	-6.15
673.58	11.85
673.611	-7.15
673.642	-5.15
673.673	-12.15
673.704	-11.15
673.735	-19.15
673.766	-6.15
673.797	-3.15
673.828	-5.15
673.86	-1.15
673.891	-13.15
673.922	-12.15
673.953	-10.15
673.984	-4.15
674.015	9.85
674.046	-1.15
674.077	-8.15
674.108	-24.15
674.139	-13.15
674.17	-7.15
674.201	-17.15
674.232	-9.15
674.263	3.85
674.294	-11.15
674.325	2.85
674.356	18.85
674.387	13.85
674.418	2.85
674.449	-18.15
674.48	-17.15
674.511	6.85
674.542	11.85
674.573	-2.15
674.604	7.85
674.635	-13.15
674.666	-15.15
674.697	0.85
674.728	5.85
674.759	-1.15
674.79	-10.15
674.821	-17.15
674.852	1.85
674.883	-0.15
674.914	-8.15
674.945	-20.15
674.976	-6.15
675.007	-6.15
675.038	1.85
675.069	1.85
675.1	6.85
675.131	4.85
675.162	-10.15
675.193	-6.15
675.224	5.85
675.254	-0.15
675.285	3.85
675.316	18.85
675.347	3.85
675.378	0.85
675.409	-4.15
675.44	7.85
675.471	5.85
675.502	-17.15
675.533	5.85
675.564	11.85
675.595	10.85
675.625	12.85
675.656	10.85
675.687	13.85
675.718	-26.15
675.749	11.85
675.78	-8.15
675.811	-13.15
675.842	-3.15
675.873	-5.15
675.903	-1.15
675.934	17.85
675.965	-7.15
675.996	-11.15
676.027	2.85
676.058	-18.15
676.089	-11.15
676.119	0.85
676.15	-21.15
676.181	-8.15
676.212	-14.15
676.243	-2.15
676.274	6.85
676.304	15.85
676.335	-2.15
676.366	-14.15
676.397	1.85
676.428	0.85
676.459	2.85
676.489	6.85
676.52	2.85
676.551	-13.15
676.582	-20.15
676.613	-1.15
676.643	-6.15
676.674	17.85
676.705	-6.15
676.736	10.85
676.767	6.85
676.797	6.85
676.828	3.85
676.859	7.85
676.89	-7.15
676.92	-7.15
676.951	12.85
676.982	13.85
677.013	10.85
677.044	19.85
677.074	-7.15
677.105	-0.15
677.136	-2.15
677.167	1.85
677.197	12.85
677.228	-4.15
677.259	-7.15
677.289	8.85
677.32	-12.15
677.351	-0.15
677.382	-5.15
677.412	-12.15
677.443	2.85
677.474	4.85
677.505	-6.15
677.535	1.85
677.566	6.85
677.597	-3.15
677.627	-9.15
677.658	-6.15
677.689	-12.15
677.72	10.85
677.75	-9.15
677.781	-3.15
677.812	-4.15
677.842	-1.15
677.873	-0.15
677.904	4.85
677.934	7.85
677.965	3.85
677.996	-29.15
678.026	-22.15
678.057	-6.15
678.088	-8.15
678.118	-6.15
678.149	-22.15
678.18	-19.15
678.21	-6.15
678.241	-8.15
678.272	-16.15
678.302	0.85
678.333	4.85
678.363	6.85
678.394	6.85
678.425	7.85
678.455	1.85
678.486	-4.15
678.517	-8.15
678.547	0.85
678.578	-5.15
678.608	-9.15
678.639	-2.15
678.67	-0.15
678.7	-19.15
678.731	-17.15
678.761	-10.15
678.792	-9.15
678.823	6.85
678.853	6.85
678.884	-21.15
678.914	-7.15
678.945	-4.15
678.975	-0.15
679.006	18.85
679.037	-6.15
679.067	13.85
679.098	1.85
679.128	-24.15
679.159	-18.15
679.189	6.85
679.22	-19.15
679.25	0.85
679.281	-16.15
679.312	-16.15
679.342	0.85
679.373	23.85
679.403	-5.15
679.434	3.85
679.464	0.85
679.495	-2.15
679.525	-14.15
679.556	-4.15
679.586	-6.15
679.617	-1.15
679.647	-1.15
679.678	3.85
679.708	4.85
679.739	-9.15
679.769	-5.15
679.8	-7.15
679.83	-9.15
679.861	1.85
679.891	-7.15
679.922	0.85
679.952	-5.15
679.983	-3.15
680.013	-2.15
680.044	-6.15
680.074	2.85
680.105	2.85
680.135	1.85
680.165	3.85
680.196	8.85
680.226	-9.15
680.257	-5.15
680.287	-5.15
680.318	4.85
680.348	-4.15
680.379	-1.15
680.409	11.85
680.439	-5.15
680.47	2.85
680.5	-9.15
680.531	-2.15
680.561	13.85
680.592	-2.15
680.622	22.85
680.652	-2.15
680.683	5.85
680.713	-5.15
680.744	-6.15
680.774	-16.15
680.804	15.85
680.835	-11.15
680.865	1.85
680.896	6.85
680.926	4.85
680.956	-9.15
680.987	3.85
681.017	4.85
681.047	3.85
681.078	-1.15
681.108	2.85
681.139	-3.15
681.169	-16.15
681.199	-0.15
681.23	14.85
681.26	-3.15
681.29	-1.15
681.321	-8.15
681.351	-6.15
681.381	-24.15
681.412	-7.15
681.442	-13.15
681.472	12.85
681.503	0.85
681.533	-4.15
681.563	1.85
681.594	-16.15
681.624	-12.15
681.654	-1.15
681.685	0.85
681.715	15.85
681.745	2.85
681.775	-13.15
681.806	-4.15
681.836	-3.15
681.866	-10.15
681.897	6.85
681.927	-21.15
681.957	-18.15
681.987	14.85
682.018	-3.15
682.048	7.85
682.078	12.85
682.109	14.85
682.139	1.85
682.169	8.85
682.199	7.85
682.23	-2.15
682.26	-4.15
682.29	-5.15
682.32	-0.15
682.351	9.85
682.381	-16.15
682.411	-8.15
682.441	-9.15
682.472	-0.15
682.502	-20.15
682.532	-3.15
682.562	-22.15
682.592	-5.15
682.623	11.85
682.653	8.85
682.683	-3.15
682.713	3.85
682.743	-10.15
682.774	-13.15
682.804	1.85
682.834	6.85
682.864	-6.15
682.894	1.85
682.925	-5.15
682.955	-8.15
682.985	-10.15
683.015	-7.15
683.045	17.85
683.076	-25.15
683.106	-26.15
683.136	-22.15
683.166	2.85
683.196	2.85
683.226	-4.15
683.257	3.85
683.287	-8.15
683.317	-5.15
683.347	2.85
683.377	-2.15
683.407	-1.15
683.437	1.85
683.468	12.85
683.498	-4.15
683.528	0.85
683.558	-2.15
683.588	-8.15
683.618	-10.15
683.648	-9.15
683.678	14.85
683.708	2.85
683.739	-7.15
683.769	8.85
683.799	11.85
683.829	-2.15
683.859	-3.15
683.889	13.85
683.919	-3.15
683.949	9.85
683.979	-20.15
684.009	4.85
684.039	4.85
684.07	-2.15
684.1	19.85
684.13	-8.15
684.16	-16.15
684.19	-10.15
684.22	2.85
684.25	2.85
684.28	-1.15
684.31	24.85
684.34	17.85
684.37	5.85
684.4	-5.15
684.43	-6.15
684.46	-2.15
684.49	0.85
684.52	9.85
684.55	16.85
684.58	-0.15
684.61	-2.15
684.64	0.85
684.67	-0.15
684.7	1.85
684.73	12.85
684.76	10.85
684.79	10.85
684.82	-5.15
684.85	6.85
684.88	6.85
684.91	-2.15
684.94	-4.15
684.97	-19.15
685	-10.15
685.03	-14.15
685.06	-10.15
685.09	5.85
685.12	9.85
685.15	5.85
685.18	-0.15
685.21	-0.15
685.24	5.85
685.27	-4.15
685.3	-7.15
685.33	8.85
685.36	-2.15
685.39	-6.15
685.42	-9.15
685.45	-0.15
685.48	5.85
685.51	17.85
685.54	12.85
685.569	5.85
685.599	19.85
685.629	7.85
685.659	7.85
685.689	13.85
685.719	-1.15
685.749	-3.15
685.779	-0.15
685.809	1.85
685.839	-7.15
685.869	-7.15
685.898	-5.15
685.928	8.85
685.958	-17.15
685.988	-4.15
686.018	-10.15
686.048	4.85
686.078	6.85
686.108	25.85
686.137	3.85
686.167	13.85
686.197	-18.15
686.227	-3.15
686.257	23.85
686.287	21.85
686.317	8.85
686.346	4.85
686.376	-11.15
686.406	-4.15
686.436	-1.15
686.466	1.85
686.496	-0.15
686.525	-6.15
686.555	17.85
686.585	2.85
686.615	32.85
686.645	17.85
686.675	4.85
686.704	8.85
686.734	21.85
686.764	-9.15
686.794	11.85
686.824	13.85
686.853	-3.15
686.883	8.85
686.913	7.85
686.943	-2.15
686.973	-4.15
687.002	-4.15
687.032	13.85
687.062	-18.15
687.092	3.85
687.121	-11.15
687.151	-5.15
687.181	2.85
687.211	6.85
687.24	13.85
687.27	-12.15
687.3	-0.15
687.33	-4.15
687.359	-13.15
687.389	2.85
687.419	-0.15
687.449	10.85
687.478	4.85
687.508	6.85
687.538	9.85
687.568	8.85
687.597	-7.15
687.627	-1.15
687.657	3.85
687.686	-1.15
687.716	19.85
687.746	-3.15
687.776	-17.15
687.805	3.85
687.835	-3.15
687.865	11.85
687.894	14.85
687.924	-8.15
687.954	-22.15
687.983	-0.15
688.013	2.85
688.043	10.85
688.072	-5.15
688.102	-3.15
688.132	-10.15
688.161	-4.15
688.191	0.85
688.221	25.85
688.25	0.85
688.28	4.85
688.31	-2.15
688.339	2.85
688.369	-16.15
688.399	1.85
688.428	-9.15
688.458	-4.15
688.488	8.85
688.517	7.85
688.547	3.85
688.576	13.85
688.606	10.85
688.636	-6.15
688.665	-7.15
688.695	4.85
688.725	9.85
688.754	5.85
688.784	-5.15
688.813	13.85
688.843	2.85
688.873	-12.15
688.902	-2.15
688.932	0.85
688.961	2.85
688.991	12.85
689.02	27.85
689.05	7.85
689.08	19.85
689.109	13.85
689.139	8.85
689.168	18.85
689.198	1.85
689.227	3.85
689.257	12.85
689.287	7.85
689.316	2.85
689.346	-4.15
689.375	-17.15
689.405	9.85
689.434	0.85
689.464	2.85
689.493	-4.15
689.523	-5.15
689.552	-3.15
689.582	13.85
689.611	7.85
689.641	10.85
689.67	-9.15
689.7	-11.15
689.73	-0.15
689.759	6.85
689.789	6.85
689.818	6.85
689.848	-9.15
689.877	17.85
689.906	-8.15
689.936	-13.15
689.965	12.85
689.995	25.85
690.024	10.85
690.054	-1.15
690.083	16.85
690.113	13.85
690.142	-8.15
690.172	8.85
690.201	14.85
690.231	8.85
690.26	4.85
690.29	-5.15
690.319	6.85
690.348	-3.15
690.378	-2.15
690.407	-9.15
690.437	-0.15
690.466	3.85
690.496	-0.15
690.525	16.85
690.555	14.85
690.584	-2.15
690.613	-5.15
690.643	1.85
690.672	9.85
690.702	-2.15
690.731	-7.15
690.76	-5.15
690.79	-3.15
690.819	3.85
690.849	12.85
690.878	-1.15
690.907	0.85
690.937	13.85
690.966	10.85
690.996	5.85
691.025	-1.15
691.054	15.85
691.084	11.85
691.113	16.85
691.142	9.85
691.172	-1.15
691.201	9.85
691.23	0.85
691.26	15.85
691.289	9.85
691.319	8.85
691.348	2.85
691.377	22.85
691.407	6.85
691.436	6.85
691.465	10.85
691.495	8.85
691.524	-13.15
691.553	6.85
691.583	-2.15
691.612	1.85
691.641	-5.15
691.67	-4.15
691.7	5.85
691.729	-11.15
691.758	-1.15
691.788	12.85
691.817	-3.15
691.846	0.85
691.876	4.85
691.905	1.85
691.934	-11.15
691.963	5.85
691.993	8.85
692.022	0.85
692.051	-21.15
692.081	7.85
692.11	13.85
692.139	-0.15
692.168	1.85
692.198	10.85
692.227	-5.15
692.256	5.85
692.285	3.85
692.315	4.85
692.344	0.85
692.373	1.85
692.402	-2.15
692.432	-13.15
692.461	4.85
692.49	5.85
692.519	-1.15
692.548	1.85
692.578	4.85
692.607	4.85
692.636	5.85
692.665	9.85
692.694	-9.15
692.724	-4.15
692.753	21.85
692.782	-7.15
692.811	-4.15
692.84	-4.15
692.87	1.85
692.899	7.85
692.928	2.85
692.957	11.85
692.986	11.85
693.016	15.85
693.045	11.85
693.074	4.85
693.103	15.85
693.132	5.85
693.161	1.85
693.191	-19.15
693.22	-12.15
693.249	-5.15
693.278	17.85
693.307	12.85
693.336	-6.15
693.365	-3.15
693.395	-0.15
693.424	-3.15
693.453	21.85
693.482	-14.15
693.511	-6.15
693.54	9.85
693.569	13.85
693.598	14.85
693.628	15.85
693.657	13.85
693.686	9.85
693.715	16.85
693.744	11.85
693.773	11.85
693.802	-5.15
693.831	-7.15
693.86	30.85
693.889	0.85
693.919	0.85
693.948	1.85
693.977	14.85
694.006	9.85
694.035	-7.15
694.064	-10.15
694.093	-6.15
694.122	19.85
694.151	-1.15
694.18	9.85
694.209	38.85
694.238	5.85
694.267	9.85
694.296	-11.15
694.325	-0.15
694.354	14.85
694.383	14.85
694.412	1.85
694.441	-13.15
694.471	-6.15
694.5	-4.15
694.529	-0.15
694.558	18.85
694.587	8.85
694.616	2.85
694.645	3.85
694.674	5.85
694.703	8.85
694.732	-1.15
694.761	11.85
694.79	21.85
694.819	-16.15
694.848	0.85
694.877	14.85
694.906	1.85
694.935	-1.15
694.963	8.85
694.992	-6.15
695.021	13.85
695.05	5.85
695.079	6.85
695.108	1.85
695.137	6.85
695.166	4.85
695.195	-1.15
695.224	10.85
695.253	-0.15
695.282	10.85
695.311	5.85
695.34	3.85
695.369	2.85
695.398	-1.15
695.427	25.85
695.456	13.85
695.485	6.85
695.513	-0.15
695.542	0.85
695.571	2.85
695.6	11.85
695.629	12.85
695.658	22.85
695.687	11.85
695.716	3.85
695.745	14.85
695.774	4.85
695.802	3.85
695.831	4.85
695.86	8.85
695.889	7.85
695.918	-6.15
695.947	-4.15
695.976	0.85
696.005	19.85
696.033	7.85
696.062	21.85
696.091	9.85
696.12	11.85
696.149	13.85
696.178	12.85
696.207	4.85
696.235	-3.15
696.264	14.85
696.293	5.85
696.322	9.85
696.351	8.85
696.38	-2.15
696.408	4.85
696.437	5.85
696.466	10.85
696.495	16.85
696.524	8.85
696.553	14.85
696.581	11.85
696.61	-0.15
696.639	8.85
696.668	16.85
696.697	2.85
696.725	-0.15
696.754	-0.15
696.783	-6.15
696.812	-9.15
696.84	7.85
696.869	0.85
696.898	-1.15
696.927	3.85
696.956	17.85
696.984	6.85
697.013	9.85
697.042	14.85
697.071	5.85
697.099	22.85
697.128	6.85
697.157	14.85
697.186	2.85
697.214	11.85
697.243	-2.15
697.272	3.85
697.301	10.85
697.329	13.85
697.358	11.85
697.387	29.85
697.415	0.85
697.444	16.85
697.473	9.85
697.502	2.85
697.53	11.85
697.559	-3.15
697.588	7.85
697.616	4.85
697.645	-9.15
697.674	3.85
697.703	-0.15
697.731	0.85
697.76	0.85
697.789	-0.15
697.817	0.85
697.846	22.85
697.875	5.85
697.903	17.85
697.932	17.85
697.961	-5.15
697.989	8.85
698.018	5.85
698.047	-5.15
698.075	16.85
698.104	-10.15
698.133	8.85
698.161	-8.15
698.19	11.85
698.218	-5.15
698.247	12.85
698.276	2.85
698.304	8.85
698.333	3.85
698.362	2.85
698.39	-5.15
698.419	7.85
698.447	5.85
698.476	15.85
698.505	18.85
698.533	0.85
698.562	8.85
698.591	5.85
698.619	-0.15
698.648	5.85
698.676	6.85
698.705	3.85
698.733	-9.15
698.762	9.85
698.791	-12.15
698.819	-14.15
698.848	-2.15
698.876	9.85
698.905	10.85
698.933	4.85
698.962	3.85
698.991	20.85
699.019	10.85
699.048	2.85
699.076	20.85
699.105	-9.15
699.133	-1.15
699.162	3.85
699.19	27.85
699.219	9.85
699.248	12.85
699.276	15.85
699.305	-3.15
699.333	-1.15
699.362	-1.15
699.39	0.85
699.419	-14.15
699.447	5.85
699.476	14.85
699.504	-7.15
699.533	0.85
699.561	-5.15
699.59	-1.15
699.618	-4.15
699.647	6.85
699.675	-1.15
699.704	4.85
699.732	-12.15
699.761	5.85
699.789	-4.15
699.818	3.85
699.846	-13.15
699.874	1.85
699.903	1.85
699.931	8.85
699.96	7.85
699.988	0.85
700.017	-5.15
700.045	0.85
700.074	7.85
700.102	11.85
700.13	-4.15
700.159	0.85
700.187	11.85
700.216	-6.15
700.244	-12.15
700.273	-24.15
700.301	-9.15
700.329	14.85
700.358	15.85
700.386	-9.15
700.415	-8.15
700.443	-6.15
700.472	-0.15
700.5	2.85
700.528	17.85
700.557	12.85
700.585	6.85
700.614	-10.15
700.642	1.85
700.67	10.85
700.699	18.85
700.727	-6.15
700.755	-10.15
700.784	8.85
700.812	-7.15
700.841	1.85
700.869	5.85
700.897	-20.15
700.926	-1.15
700.954	-1.15
700.982	5.85
701.011	8.85
701.039	1.85
701.067	-1.15
701.096	5.85
701.124	-6.15
701.152	-9.15
701.181	-12.15
701.209	-22.15
701.237	2.85
701.266	-1.15
701.294	-7.15
701.322	1.85
701.351	7.85
701.379	-0.15
701.407	-14.15
701.435	-5.15
701.464	6.85
701.492	15.85
701.52	-12.15
701.549	7.85
701.577	-10.15
701.605	-4.15
701.634	-6.15
701.662	9.85
701.69	-20.15
701.718	-4.15
701.747	2.85
701.775	3.85
701.803	-5.15
701.831	13.85
701.86	-12.15
701.888	4.85
701.916	-6.15
701.944	-11.15
701.973	0.85
702.001	-3.15
702.029	5.85
702.057	-10.15
702.086	-30.15
702.114	-12.15
702.142	2.85
702.17	-8.15
702.199	5.85
702.227	-1.15
702.255	-4.15
702.283	-12.15
702.311	7.85
702.34	2.85
702.368	2.85
702.396	1.85
702.424	0.85
702.452	-22.15
702.481	-12.15
702.509	-5.15
702.537	4.85
702.565	5.85
702.593	-4.15
702.621	-14.15
702.65	-7.15
702.678	12.85
702.706	22.85
702.734	-16.15
702.762	13.85
702.79	-2.15
702.819	9.85
702.847	1.85
702.875	1.85
702.903	7.85
702.931	-9.15
702.959	4.85
702.988	-4.15
703.016	8.85
703.044	-1.15
703.072	-9.15
703.1	-12.15
703.128	-8.15
703.156	7.85
703.184	-12.15
703.212	7.85
703.241	1.85
703.269	0.85
703.297	-9.15
703.325	-15.15
703.353	-9.15
703.381	-11.15
703.409	1.85
703.437	-0.15
703.465	4.85
703.493	-5.15
703.522	0.85
703.55	-6.15
703.578	-4.15
703.606	-11.15
703.634	-13.15
703.662	-18.15
703.69	-8.15
703.718	16.85
703.746	25.85
703.774	7.85
703.802	-3.15
703.83	3.85
703.858	-1.15
703.886	4.85
703.914	4.85
703.942	0.85
703.97	5.85
703.998	7.85
704.027	20.85
704.055	-5.15
704.083	3.85
704.111	-3.15
704.139	6.85
704.167	-7.15
704.195	13.85
704.223	1.85
704.251	1.85
704.279	3.85
704.307	6.85
704.335	-6.15
704.363	-5.15
704.391	3.85
704.419	-3.15
704.447	-6.15
704.475	-0.15
704.503	-19.15
704.531	10.85
704.558	-1.15
704.586	2.85
704.614	14.85
704.642	-8.15
704.67	-21.15
704.698	-11.15
704.726	5.85
704.754	1.85
704.782	0.85
704.81	-9.15
704.838	33.85
704.866	6.85
704.894	-15.15
704.922	-0.15
704.95	-5.15
704.978	5.85
705.006	-14.15
705.034	15.85
705.061	-12.15
705.089	-8.15
705.117	-10.15
705.145	-11.15
705.173	-11.15
705.201	3.85
705.229	1.85
705.257	-0.15
705.285	10.85
705.313	11.85
705.34	0.85
705.368	-8.15
705.396	7.85
705.424	-2.15
705.452	-0.15
705.48	6.85
705.508	-0.15
705.536	-16.15
705.563	-13.15
705.591	9.85
705.619	1.85
705.647	-11.15
705.675	3.85
705.703	2.85
705.731	-1.15
705.758	4.85
705.786	17.85
705.814	27.85
705.842	1.85
705.87	2.85
705.898	8.85
705.925	1.85
705.953	13.85
705.981	8.85
706.009	-4.15
706.037	10.85
706.065	3.85
706.092	-2.15
706.12	4.85
706.148	-12.15
706.176	-2.15
706.204	1.85
706.231	-12.15
706.259	-8.15
706.287	-13.15
706.315	-1.15
706.342	3.85
706.37	16.85
706.398	10.85
706.426	-11.15
706.454	-2.15
706.481	11.85
706.509	9.85
706.537	-1.15
706.565	-7.15
706.592	5.85
706.62	-2.15
706.648	4.85
706.676	-1.15
706.703	2.85
706.731	-0.15
706.759	-5.15
706.787	-9.15
706.814	5.85
706.842	-2.15
706.87	5.85
706.897	1.85
706.925	-6.15
706.953	12.85
706.981	11.85
707.008	-10.15
707.036	-5.15
707.064	-3.15
707.091	-27.15
707.119	-0.15
707.147	-4.15
707.174	1.85
707.202	18.85
707.23	-4.15
707.258	9.85
707.285	-16.15
707.313	-12.15
707.341	-9.15
707.368	5.85
707.396	-3.15
707.424	18.85
707.451	-1.15
707.479	-6.15
707.507	-4.15
707.534	-13.15
707.562	-1.15
707.59	-17.15
707.617	-2.15
707.645	-4.15
707.672	-0.15
707.7	-9.15
707.728	-4.15
707.755	4.85
707.783	10.85
707.811	-4.15
707.838	-1.15
707.866	-2.15
707.893	-21.15
707.921	-13.15
707.949	-4.15
707.976	9.85
708.004	5.85
708.031	-0.15
708.059	-13.15
708.087	1.85
708.114	-0.15
708.142	-4.15
708.169	-14.15
708.197	-10.15
708.225	-1.15
708.252	-12.15
708.28	-16.15
708.307	-0.15
708.335	4.85
708.362	2.85
708.39	-3.15
708.418	1.85
708.445	-5.15
708.473	-5.15
708.5	-21.15
708.528	-3.15
708.555	-8.15
708.583	7.85
708.61	-3.15
708.638	2.85
708.665	-5.15
708.693	-0.15
708.72	13.85
708.748	-10.15
708.776	-1.15
708.803	25.85
708.831	2.85
708.858	7.85
708.886	6.85
708.913	6.85
708.941	2.85
708.968	16.85
708.996	-11.15
709.023	16.85
709.051	4.85
709.078	-10.15
709.105	-9.15
709.133	-18.15
709.16	1.85
709.188	14.85
709.215	3.85
709.243	-3.15
709.27	-5.15
709.298	-6.15
709.325	-11.15
709.353	-2.15
709.38	-7.15
709.408	1.85
709.435	1.85
709.462	-5.15
709.49	1.85
709.517	-10.15
709.545	-2.15
709.572	-4.15
709.6	-6.15
709.627	-1.15
709.655	-5.15
709.682	-9.15
709.709	9.85
709.737	19.85
709.764	-7.15
709.792	-0.15
709.819	7.85
709.846	-5.15
709.874	-5.15
709.901	14.85
709.929	6.85
709.956	-0.15
709.983	-5.15
710.011	-4.15
710.038	11.85
710.066	-2.15
710.093	3.85
710.12	-0.15
710.148	6.85
710.175	0.85
710.202	-5.15
710.23	4.85
710.257	-1.15
710.284	-10.15
710.312	-1.15
710.339	-8.15
710.366	-22.15
710.394	-7.15
710.421	-3.15
710.448	7.85
710.476	-27.15
710.503	-1.15
710.53	10.85
710.558	16.85
710.585	6.85
710.612	-3.15
710.64	4.85
710.667	-0.15
710.694	-1.15
710.722	-4.15
710.749	-2.15
710.776	-4.15
710.804	15.85
710.831	3.85
710.858	-2.15
710.885	-6.15
710.913	-4.15
710.94	25.85
710.967	7.85
710.995	1.85
711.022	4.85
711.049	2.85
711.076	-17.15
711.104	-15.15
711.131	-32.15
711.158	-9.15
711.185	0.85
711.213	1.85
711.24	-9.15
711.267	-4.15
711.294	15.85
711.322	9.85
711.349	1.85
711.376	-7.15
711.403	-6.15
711.431	-8.15
711.458	4.85
711.485	-0.15
711.512	6.85
711.54	-3.15
711.567	4.85
711.594	-0.15
711.621	5.85
711.648	2.85
711.676	15.85
711.703	7.85
711.73	-3.15
711.757	-6.15
711.784	4.85
711.812	0.85
711.839	-3.15
711.866	-12.15
711.893	-8.15
711.92	15.85
711.947	9.85
711.975	18.85
712.002	-3.15
712.029	-0.15
712.056	4.85
712.083	17.85
712.11	-22.15
712.138	7.85
712.165	1.85
712.192	-2.15
712.219	-17.15
712.246	-10.15
712.273	-9.15
712.3	-22.15
712.328	-3.15
712.355	-0.15
712.382	-6.15
712.409	-3.15
712.436	-0.15
712.463	1.85
712.49	10.85
712.517	6.85
712.544	-8.15
712.572	-6.15
712.599	-6.15
712.626	5.85
712.653	-22.15
712.68	-11.15
712.707	15.85
712.734	9.85
712.761	-12.15
712.788	-1.15
712.815	2.85
712.842	1.85
712.87	5.85
712.897	-8.15
712.924	-13.15
712.951	5.85
712.978	22.85
713.005	18.85
713.032	13.85
713.059	7.85
713.086	-4.15
713.113	-14.15
713.14	-11.15
713.167	5.85
713.194	2.85
713.221	8.85
713.248	17.85
713.275	-7.15
713.302	5.85
713.329	-5.15
713.356	7.85
713.383	-5.15
713.41	-1.15
713.437	-6.15
713.464	-8.15
713.491	11.85
713.518	9.85
713.545	-4.15
713.572	-0.15
713.599	2.85
713.626	-0.15
713.653	-3.15
713.68	-18.15
713.707	4.85
713.734	4.85
713.761	-18.15
713.788	-1.15
713.815	5.85
713.842	-4.15
713.869	-11.15
713.896	-0.15
713.923	5.85
713.95	-6.15
713.977	-0.15
714.004	-0.15
714.031	-12.15
714.058	0.85
714.085	-4.15
714.112	9.85
714.139	-5.15
714.165	-16.15
714.192	-27.15
714.219	0.85
714.246	-7.15
714.273	-6.15
714.3	-4.15
714.327	4.85
714.354	8.85
714.381	-9.15
714.408	-11.15
714.435	-5.15
714.461	-18.15
714.488	16.85
714.515	3.85
714.542	5.85
714.569	-2.15
714.596	-13.15
714.623	-5.15
714.65	-13.15
714.677	-6.15
714.703	-14.15
714.73	-3.15
714.757	-9.15
714.784	-0.15
714.811	3.85
714.838	1.85
714.865	-10.15
714.891	-0.15
714.918	1.85
714.945	-4.15
714.972	-4.15
714.999	5.85
715.026	-1.15
715.052	13.85
715.079	-2.15
715.106	5.85
715.133	-12.15
715.16	-9.15
715.187	-5.15
715.213	2.85
715.24	-4.15
715.267	-0.15
715.294	-0.15
715.321	5.85
715.347	-2.15
715.374	-7.15
715.401	9.85
715.428	-9.15
715.455	-0.15
715.481	10.85
715.508	27.85
715.535	-3.15
715.562	9.85
715.588	1.85
715.615	5.85
715.642	5.85
715.669	-0.15
715.695	-6.15
715.722	9.85
715.749	11.85
715.776	13.85
715.802	1.85
715.829	6.85
715.856	-22.15
715.883	15.85
715.909	4.85
715.936	2.85
715.963	3.85
715.99	-12.15
716.016	-18.15
716.043	2.85
716.07	15.85
716.096	-10.15
716.123	-9.15
716.15	-4.15
716.177	9.85
716.203	22.85
716.23	10.85
716.257	7.85
716.283	5.85
716.31	-2.15
716.337	-1.15
716.363	-8.15
716.39	-6.15
716.417	7.85
716.443	-4.15
716.47	15.85
716.497	9.85
716.523	14.85
716.55	9.85
716.577	7.85
716.603	6.85
716.63	11.85
716.657	21.85
716.683	-2.15
716.71	-5.15
716.737	-4.15
716.763	-4.15
716.79	-7.15
716.817	18.85
716.843	-0.15
716.87	-12.15
716.897	3.85
716.923	-0.15
716.95	-4.15
716.976	-2.15
717.003	-6.15
717.03	3.85
717.056	-4.15
717.083	-2.15
717.109	-2.15
717.136	15.85
717.163	-10.15
717.189	-1.15
717.216	-4.15
717.242	-8.15
717.269	3.85
717.296	7.85
717.322	9.85
717.349	10.85
717.375	1.85
717.402	13.85
717.428	8.85
717.455	1.85
717.481	4.85
717.508	10.85
717.535	0.85
717.561	-13.15
717.588	-13.15
717.614	0.85
717.641	1.85
717.667	5.85
717.694	-1.15
717.72	5.85
717.747	-4.15
717.773	-9.15
717.8	6.85
717.826	-5.15
717.853	-8.15
717.88	14.85
717.906	4.85
717.933	-6.15
717.959	8.85
717.986	12.85
718.012	-10.15
718.039	10.85
718.065	8.85
718.092	14.85
718.118	9.85
718.144	-7.15
718.171	8.85
718.197	13.85
718.224	-4.15
718.25	-3.15
718.277	-9.15
718.303	-14.15
718.33	-8.15
718.356	-0.15
718.383	-8.15
718.409	1.85
718.436	2.85
718.462	-8.15
718.489	-3.15
718.515	9.85
718.541	8.85
718.568	1.85
718.594	1.85
718.621	6.85
718.647	6.85
718.674	9.85
718.7	11.85
718.726	6.85
718.753	-0.15
718.779	4.85
718.806	-1.15
718.832	4.85
718.858	2.85
718.885	0.85
718.911	3.85
718.938	14.85
718.964	-3.15
718.99	11.85
719.017	-4.15
719.043	-1.15
719.07	11.85
719.096	-2.15
719.122	10.85
719.149	9.85
719.175	12.85
719.201	12.85
719.228	1.85
719.254	-6.15
719.281	17.85
719.307	0.85
719.333	-1.15
719.36	2.85
719.386	-3.15
719.412	4.85
719.439	-3.15
719.465	3.85
719.491	-0.15
719.518	7.85
719.544	4.85
719.57	12.85
719.597	3.85
719.623	6.85
719.649	13.85
719.675	0.85
719.702	3.85
719.728	6.85
719.754	-8.15
719.781	-3.15
719.807	-1.15
719.833	-18.15
719.86	-8.15
719.886	5.85
719.912	-4.15
719.938	-17.15
719.965	-6.15
719.991	14.85
720.017	-4.15
720.044	-9.15
720.07	1.85
720.096	9.85
720.122	7.85
720.149	3.85
720.175	19.85
720.201	11.85
720.227	-0.15
720.254	3.85
720.28	16.85
720.306	3.85
720.332	6.85
720.359	-2.15
720.385	5.85
720.411	-1.15
720.437	5.85
720.463	3.85
720.49	18.85
720.516	1.85
720.542	-21.15
720.568	-8.15
720.595	1.85
720.621	5.85
720.647	-3.15
720.673	1.85
720.699	-0.15
720.725	10.85
720.752	21.85
720.778	14.85
720.804	18.85
720.83	18.85
720.856	0.85
720.883	-4.15
720.909	-6.15
720.935	0.85
720.961	19.85
720.987	-1.15
721.013	11.85
721.04	-1.15
721.066	3.85
721.092	10.85
721.118	13.85
721.144	-13.15
721.17	-6.15
721.196	-3.15
721.223	-3.15
721.249	-6.15
721.275	18.85
721.301	21.85
721.327	7.85
721.353	13.85
721.379	1.85
721.405	-7.15
721.432	20.85
721.458	3.85
721.484	2.85
721.51	-25.15
721.536	4.85
721.562	7.85
721.588	1.85
721.614	-0.15
721.64	-4.15
721.666	-3.15
721.693	-15.15
721.719	-8.15
721.745	-12.15
721.771	-5.15
721.797	-9.15
721.823	0.85
721.849	25.85
721.875	9.85
721.901	6.85
721.927	-1.15
721.953	5.85
721.979	12.85
722.005	6.85
722.031	-6.15
722.057	-8.15
722.083	5.85
722.109	10.85
722.135	14.85
722.161	1.85
722.187	-2.15
722.214	-14.15
722.24	-4.15
722.266	5.85
722.292	14.85
722.318	14.85
722.344	11.85
722.37	9.85
722.396	3.85
722.422	-5.15
722.448	4.85
722.474	-11.15
722.5	20.85
722.526	1.85
722.552	-1.15
722.578	3.85
722.603	5.85
722.629	-9.15
722.655	2.85
722.681	1.85
722.707	-7.15
722.733	-4.15
722.759	-12.15
722.785	5.85
722.811	2.85
722.837	-2.15
722.863	2.85
722.889	5.85
722.915	-1.15
722.941	-4.15
722.967	-3.15
722.993	5.85
723.019	8.85
723.045	1.85
723.071	-7.15
723.097	-7.15
723.122	-17.15
723.148	-28.15
723.174	3.85
723.2	5.85
723.226	-1.15
723.252	-0.15
723.278	-16.15
723.304	-10.15
723.33	7.85
723.356	-6.15
723.381	-8.15
723.407	-17.15
723.433	13.85
723.459	1.85
723.485	2.85
723.511	16.85
723.537	4.85
723.563	-1.15
723.588	5.85
723.614	21.85
723.64	1.85
723.666	2.85
723.692	9.85
723.718	-0.15
723.744	1.85
723.769	-1.15
723.795	2.85
723.821	21.85
723.847	-0.15
723.873	-2.15
723.899	-3.15
723.924	-7.15
723.95	1.85
723.976	-24.15
724.002	-5.15
724.028	8.85
724.053	-5.15
724.079	-13.15
724.105	-10.15
724.131	-12.15
724.157	4.85
724.182	2.85
724.208	-2.15
724.234	-2.15
724.26	5.85
724.286	8.85
724.311	-1.15
724.337	5.85
724.363	-17.15
724.389	-2.15
724.415	-1.15
724.44	6.85
724.466	15.85
724.492	-2.15
724.518	9.85
724.543	5.85
724.569	9.85
724.595	-4.15
724.621	-8.15
724.646	3.85
724.672	-4.15
724.698	-19.15
724.723	0.85
724.749	-0.15
724.775	7.85
724.801	9.85
724.826	-3.15
724.852	0.85
724.878	-14.15
724.904	-19.15
724.929	-7.15
724.955	-14.15
724.981	6.85
725.006	5.85
725.032	2.85
725.058	10.85
725.083	-2.15
725.109	-7.15
725.135	-13.15
725.161	6.85
725.186	1.85
725.212	-4.15
725.238	-8.15
725.263	-7.15
725.289	-27.15
725.315	-4.15
725.34	5.85
725.366	-1.15
725.392	-11.15
725.417	-6.15
725.443	2.85
725.468	9.85
725.494	4.85
725.52	15.85
725.545	-3.15
725.571	-6.15
725.597	-2.15
725.622	9.85
725.648	-0.15
725.674	0.85
725.699	12.85
725.725	-1.15
725.75	26.85
725.776	-1.15
725.802	-3.15
725.827	4.85
725.853	0.85
725.878	-3.15
725.904	-10.15
725.93	5.85
725.955	-14.15
725.981	-12.15
726.006	-4.15
726.032	21.85
726.057	-13.15
726.083	-9.15
726.109	-5.15
726.134	-3.15
726.16	2.85
726.185	2.85
726.211	-12.15
726.236	10.85
726.262	13.85
726.288	8.85
726.313	3.85
726.339	2.85
726.364	4.85
726.39	13.85
726.415	4.85
726.441	-8.15
726.466	-3.15
726.492	-4.15
726.517	-8.15
726.543	-2.15
726.568	-11.15
726.594	8.85
726.619	7.85
726.645	10.85
726.67	7.85
726.696	-2.15
726.721	-3.15
726.747	-5.15
726.772	-8.15
726.798	-9.15
726.823	-1.15
726.849	-4.15
726.874	6.85
726.9	22.85
726.925	17.85
726.951	5.85
726.976	9.85
727.002	-2.15
727.027	10.85
727.053	13.85
727.078	-3.15
727.104	-1.15
727.129	-4.15
727.155	7.85
727.18	0.85
727.205	6.85
727.231	1.85
727.256	-9.15
727.282	-0.15
727.307	6.85
727.333	2.85
727.358	-9.15
727.383	-15.15
727.409	-8.15
727.434	-4.15
727.46	-11.15
727.485	0.85
727.511	-1.15
727.536	-5.15
727.561	4.85
727.587	-9.15
727.612	-12.15
727.637	4.85
727.663	-3.15
727.688	25.85
727.714	0.85
727.739	-16.15
727.764	-11.15
727.79	-1.15
727.815	3.85
727.841	6.85
727.866	0.85
727.891	4.85
727.917	1.85
727.942	-5.15
727.967	-11.15
727.993	-2.15
728.018	-11.15
728.043	1.85
728.069	11.85
728.094	12.85
728.119	1.85
728.145	11.85
728.17	1.85
728.195	-0.15
728.221	3.85
728.246	-10.15
728.271	-19.15
728.297	-0.15
728.322	12.85
728.347	1.85
728.373	20.85
728.398	25.85
728.423	-2.15
728.448	11.85
728.474	11.85
728.499	-5.15
728.524	-13.15
728.55	-21.15
728.575	-20.15
728.6	-18.15
728.625	-6.15
728.651	3.85
728.676	-4.15
728.701	4.85
728.727	-2.15
728.752	-11.15
728.777	2.85
728.802	-4.15
728.828	1.85
728.853	1.85
728.878	-1.15
728.903	-5.15
728.929	-13.15
728.954	-18.15
728.979	1.85
729.004	1.85
729.03	-5.15
729.055	11.85
729.08	-12.15
729.105	-14.15
729.13	2.85
729.156	9.85
729.181	-1.15
729.206	-4.15
729.231	-11.15
729.256	3.85
729.282	17.85
729.307	-13.15
729.332	-17.15
729.357	-0.15
729.382	5.85
729.408	-6.15
729.433	-5.15
729.458	16.85
729.483	2.85
729.508	4.85
729.533	-4.15
729.559	-0.15
729.584	-19.15
729.609	9.85
729.634	11.85
729.659	1.85
729.684	-5.15
729.71	37.85
729.735	1.85
729.76	2.85
729.785	0.85
729.81	1.85
729.835	-8.15
729.86	-6.15
729.886	8.85
729.911	-4.15
729.936	5.85
729.961	-3.15
729.986	-6.15
730.011	-10.15
730.036	6.85
730.061	8.85
730.086	3.85
730.112	4.85
730.137	21.85
730.162	5.85
730.187	-24.15
730.212	-3.15
730.237	6.85
730.262	9.85
730.287	7.85
730.312	17.85
730.337	-9.15
730.362	22.85
730.387	5.85
730.413	-23.15
730.438	-11.15
730.463	-1.15
730.488	-18.15
730.513	-5.15
730.538	-8.15
730.563	-3.15
730.588	-3.15
730.613	3.85
730.638	-10.15
730.663	-18.15
730.688	13.85
730.713	9.85
730.738	-7.15
730.763	-1.15
730.788	-19.15
730.813	8.85
730.838	-5.15
730.863	-5.15
730.888	0.85
730.913	-17.15
730.938	-8.15
730.963	-0.15
730.988	-9.15
731.013	13.85
731.038	-13.15
731.063	-2.15
731.088	-4.15
731.113	-3.15
731.138	12.85
731.163	0.85
731.188	-11.15
731.213	-4.15
731.238	1.85
731.263	-5.15
731.288	-2.15
731.313	-1.15
731.338	-1.15
731.363	6.85
731.388	13.85
731.413	-3.15
731.438	11.85
731.463	7.85
731.487	-13.15
731.512	-5.15
731.537	-9.15
731.562	1.85
731.587	-2.15
731.612	-1.15
731.637	1.85
731.662	-0.15
731.687	1.85
731.712	-6.15
731.737	18.85
731.762	4.85
731.786	9.85
731.811	14.85
731.836	-2.15
731.861	4.85
731.886	-2.15
731.911	4.85
731.936	11.85
731.961	-4.15
731.986	-11.15
732.01	-1.15
732.035	7.85
732.06	16.85
732.085	6.85
732.11	3.85
732.135	-1.15
732.16	-7.15
732.184	-2.15
732.209	6.85
732.234	3.85
732.259	4.85
732.284	16.85
732.309	-1.15
732.334	3.85
732.358	-18.15
732.383	-13.15
732.408	-5.15
732.433	-3.15
732.458	16.85
732.482	4.85
732.507	-0.15
732.532	3.85
732.557	9.85
732.582	4.85
732.607	-1.15
732.631	-18.15
732.656	4.85
732.681	-1.15
732.706	-6.15
732.73	-1.15
732.755	-0.15
732.78	-3.15
732.805	4.85
732.83	-0.15
732.854	1.85
732.879	1.85
732.904	-2.15
732.929	-3.15
732.953	-4.15
732.978	-5.15
733.003	-9.15
733.028	-6.15
733.052	3.85
733.077	7.85
733.102	9.85
733.127	-11.15
733.151	-3.15
733.176	3.85
733.201	-9.15
733.226	1.85
733.25	3.85
733.275	2.85
733.3	-7.15
733.324	18.85
733.349	7.85
733.374	5.85
733.399	-8.15
733.423	-0.15
733.448	-7.15
733.473	-15.15
733.497	2.85
733.522	-8.15
733.547	13.85
733.571	18.85
733.596	-2.15
733.621	-1.15
733.646	-9.15
733.67	5.85
733.695	-2.15
733.72	-8.15
733.744	7.85
733.769	-2.15
733.794	-3.15
733.818	2.85
733.843	5.85
733.867	-3.15
733.892	-1.15
733.917	-11.15
733.941	5.85
733.966	-1.15
733.991	-16.15
734.015	13.85
734.04	9.85
734.065	-1.15
734.089	5.85
734.114	7.85
734.138	15.85
734.163	-3.15
734.188	9.85
734.212	16.85
734.237	14.85
734.261	11.85
734.286	1.85
734.311	7.85
734.335	4.85
734.36	-10.15
734.384	-3.15
734.409	6.85
734.434	-3.15
734.458	11.85
734.483	3.85
734.507	0.85
734.532	10.85
734.556	9.85
734.581	7.85
734.606	12.85
734.63	1.85
734.655	0.85
734.679	11.85
734.704	5.85
734.728	-2.15
734.753	9.85
734.777	-2.15
734.802	1.85
734.826	2.85
734.851	-0.15
734.876	21.85
734.9	6.85
734.925	-12.15
734.949	6.85
734.974	2.85
734.998	6.85
735.023	-1.15
735.047	-2.15
735.072	22.85
735.096	8.85
735.121	-4.15
735.145	4.85
735.17	-15.15
735.194	12.85
735.219	6.85
735.243	1.85
735.268	-4.15
735.292	2.85
735.317	12.85
735.341	13.85
735.365	-8.15
735.39	11.85
735.414	19.85
735.439	6.85
735.463	1.85
735.488	-1.15
735.512	-5.15
735.537	3.85
735.561	2.85
735.586	7.85
735.61	16.85
735.634	5.85
735.659	10.85
735.683	15.85
735.708	1.85
735.732	-1.15
735.757	-5.15
735.781	-7.15
735.805	-0.15
735.83	-3.15
735.854	-6.15
735.879	11.85
735.903	11.85
735.927	3.85
735.952	-1.15
735.976	-1.15
736.001	-4.15
736.025	5.85
736.049	2.85
736.074	0.85
736.098	-14.15
736.123	16.85
736.147	-8.15
736.171	4.85
736.196	-10.15
736.22	-3.15
736.244	-19.15
736.269	-6.15
736.293	-2.15
736.317	1.85
736.342	2.85
736.366	15.85
736.39	16.85
736.415	-2.15
736.439	-0.15
736.463	8.85
736.488	0.85
736.512	5.85
736.536	11.85
736.561	14.85
736.585	5.85
736.609	22.85
736.634	-6.15
736.658	-5.15
736.682	-5.15
736.707	-25.15
736.731	-14.15
736.755	-3.15
736.78	21.85
736.804	20.85
736.828	2.85
736.852	7.85
736.877	13.85
736.901	19.85
736.925	-6.15
736.949	10.85
736.974	-0.15
736.998	-10.15
737.022	4.85
737.047	-3.15
737.071	9.85
737.095	10.85
737.119	21.85
737.144	10.85
737.168	3.85
737.192	3.85
737.216	2.85
737.241	-10.15
737.265	3.85
737.289	-0.15
737.313	9.85
737.337	-2.15
737.362	1.85
737.386	-2.15
737.41	2.85
737.434	0.85
737.459	0.85
737.483	1.85
737.507	-4.15
737.531	15.85
737.555	6.85
737.58	-6.15
737.604	-3.15
737.628	-3.15
737.652	3.85
737.676	2.85
737.701	7.85
737.725	11.85
737.749	4.85
737.773	2.85
737.797	-12.15
737.821	-2.15
737.846	5.85
737.87	23.85
737.894	1.85
737.918	-14.15
737.942	-14.15
737.966	5.85
737.99	21.85
738.015	7.85
738.039	1.85
738.063	-3.15
738.087	6.85
738.111	4.85
738.135	8.85
738.159	0.85
738.184	7.85
738.208	1.85
738.232	-14.15
738.256	3.85
738.28	11.85
738.304	1.85
738.328	-6.15
738.352	1.85
738.376	2.85
738.4	-1.15
738.425	0.85
738.449	-7.15
738.473	-1.15
738.497	-9.15
738.521	-2.15
738.545	-2.15
738.569	8.85
738.593	19.85
738.617	5.85
738.641	1.85
738.665	2.85
738.689	10.85
738.713	-10.15
738.737	8.85
738.762	14.85
738.786	-5.15
738.81	-13.15
738.834	1.85
738.858	2.85
738.882	-9.15
738.906	-13.15
738.93	-5.15
738.954	17.85
738.978	5.85
739.002	-5.15
739.026	19.85
739.05	2.85
739.074	1.85
739.098	28.85
739.122	-2.15
739.146	-2.15
739.17	12.85
739.194	17.85
739.218	-8.15
739.242	-0.15
739.266	0.85
739.29	6.85
739.314	19.85
739.338	4.85
739.362	0.85
739.386	1.85
739.41	-8.15
739.434	-16.15
739.458	1.85
739.482	3.85
739.506	3.85
739.53	-5.15
739.554	6.85
739.577	6.85
739.601	-7.15
739.625	-7.15
739.649	-4.15
739.673	-14.15
739.697	7.85
739.721	11.85
739.745	18.85
739.769	22.85
739.793	8.85
739.817	10.85
739.841	1.85
739.865	14.85
739.889	-17.15
739.912	10.85
739.936	1.85
739.96	5.85
739.984	14.85
740.008	0.85
740.032	-16.15
740.056	1.85
740.08	-6.15
740.104	2.85
740.127	10.85
740.151	12.85
740.175	18.85
740.199	30.85
740.223	39.85
740.247	9.85
740.271	2.85
740.295	-1.15
740.318	-5.15
740.342	1.85
740.366	12.85
740.39	13.85
740.414	-3.15
740.438	-5.15
740.461	19.85
740.485	13.85
740.509	1.85
740.533	7.85
740.557	-5.15
740.581	-13.15
740.604	-16.15
740.628	-10.15
740.652	5.85
740.676	5.85
740.7	14.85
740.723	-2.15
740.747	-6.15
740.771	-0.15
740.795	-3.15
740.819	15.85
740.842	-0.15
740.866	3.85
740.89	-2.15
740.914	-2.15
740.938	-7.15
740.961	11.85
740.985	5.85
741.009	-1.15
741.033	-0.15
741.056	16.85
741.08	6.85
741.104	-3.15
741.128	-1.15
741.151	10.85
741.175	-1.15
741.199	3.85
741.223	20.85
741.246	-4.15
741.27	12.85
741.294	12.85
741.318	-5.15
741.341	3.85
741.365	-0.15
741.389	12.85
741.413	9.85
741.436	-5.15
741.46	5.85
741.484	19.85
741.507	4.85
741.531	23.85
741.555	20.85
741.579	1.85
741.602	11.85
741.626	19.85
741.65	6.85
741.673	10.85
741.697	7.85
741.721	5.85
741.744	-13.15
741.768	-10.15
741.792	-9.15
741.815	-14.15
741.839	5.85
741.863	21.85
741.886	-0.15
741.91	9.85
741.934	18.85
741.957	-16.15
741.981	3.85
742.005	14.85
742.028	-2.15
742.052	1.85
742.075	9.85
742.099	13.85
742.123	3.85
742.146	-1.15
742.17	15.85
742.194	-13.15
742.217	-3.15
742.241	-9.15
742.264	-7.15
742.288	20.85
742.312	-1.15
742.335	-4.15
742.359	4.85
742.382	22.85
742.406	5.85
742.43	-0.15
742.453	-0.15
742.477	-6.15
742.5	-12.15
742.524	-4.15
742.548	10.85
742.571	-2.15
742.595	-9.15
742.618	-10.15
742.642	-12.15
742.665	1.85
742.689	-8.15
742.712	1.85
742.736	-6.15
742.76	6.85
742.783	1.85
742.807	3.85
742.83	11.85
742.854	-18.15
742.877	-13.15
742.901	6.85
742.924	-14.15
742.948	0.85
742.971	7.85
742.995	-3.15
743.018	0.85
743.042	-3.15
743.065	-1.15
743.089	-23.15
743.112	-14.15
743.136	4.85
743.159	-6.15
743.183	-10.15
743.206	-1.15
743.23	6.85
743.253	15.85
743.277	4.85
743.3	3.85
743.324	-2.15
743.347	4.85
743.371	17.85
743.394	16.85
743.418	3.85
743.441	17.85
743.465	-6.15
743.488	-7.15
743.512	-9.15
743.535	-4.15
743.558	4.85
743.582	-8.15
743.605	-1.15
743.629	5.85
743.652	7.85
743.676	2.85
743.699	4.85
743.723	19.85
743.746	10.85
743.769	7.85
743.793	1.85
743.816	-16.15
743.84	10.85
743.863	6.85
743.886	-0.15
743.91	18.85
743.933	4.85
743.957	2.85
743.98	-2.15
744.003	6.85
744.027	1.85
744.05	5.85
744.074	2.85
744.097	-12.15
744.12	-5.15
744.144	-11.15
744.167	2.85
744.19	-6.15
744.214	1.85
744.237	-4.15
744.26	5.85
744.284	-7.15
744.307	-14.15
744.331	8.85
744.354	-21.15
744.377	-9.15
744.401	-3.15
744.424	1.85
744.447	-23.15
744.471	-7.15
