Data from HighRes_H2D2_15_04_11_07_2024_HR4C61891__89__15-05-43-342.txt Node

Date: Thu Nov 07 15:05:43 EST 2024
User: crc00042
Spectrometer: HR4C6189
Trigger mode: 4
Integration Time (sec): 1.000000E-1
Scans to average: 1
Electric dark correction enabled: true
Nonlinearity correction enabled: false
Boxcar width: 0
XAxis mode: Wavelengths
Number of Pixels in Spectrum: 3648
>>>>>Begin Spectral Data<<<<<
639.567	-75
639.602	-75
639.636	-75
639.67	-40
639.704	-18
639.738	-8
639.773	-6
639.807	-12
639.841	4
639.875	15
639.909	7
639.943	-5
639.978	0
640.012	1
640.046	11
640.08	3
640.114	-1
640.148	-9
640.182	-13
640.217	4
640.251	26
640.285	9
640.319	-6
640.353	8
640.387	9
640.421	9
640.455	14
640.49	-10
640.524	-3
640.558	18
640.592	1
640.626	0
640.66	9
640.694	-5
640.728	8
640.762	6
640.796	15
640.83	24
640.865	1
640.899	2
640.933	2
640.967	5
641.001	13
641.035	8
641.069	-8
641.103	11
641.137	-5
641.171	0
641.205	2
641.239	6
641.273	12
641.307	12
641.341	-4
641.375	-7
641.409	-4
641.443	3
641.477	11
641.511	-1
641.545	-6
641.579	-15
641.614	3
641.648	5
641.682	-9
641.716	9
641.75	12
641.784	-8
641.818	16
641.852	13
641.886	6
641.919	18
641.953	-8
641.987	-3
642.021	-6
642.055	0
642.089	18
642.123	-2
642.157	0
642.191	6
642.225	13
642.259	-5
642.293	10
642.327	14
642.361	-8
642.395	9
642.429	14
642.463	9
642.497	10
642.531	3
642.565	-7
642.599	12
642.633	-2
642.666	10
642.7	17
642.734	11
642.768	6
642.802	0
642.836	12
642.87	0
642.904	-1
642.938	14
642.972	-3
643.005	8
643.039	19
643.073	14
643.107	10
643.141	9
643.175	4
643.209	0
643.243	-5
643.276	13
643.31	-6
643.344	-4
643.378	-3
643.412	0
643.446	9
643.48	-3
643.513	7
643.547	-2
643.581	-9
643.615	8
643.649	4
643.683	9
643.716	3
643.75	8
643.784	-14
643.818	5
643.852	-2
643.886	-3
643.919	-1
643.953	-1
643.987	4
644.021	17
644.055	2
644.088	-4
644.122	-12
644.156	5
644.19	4
644.224	1
644.257	7
644.291	13
644.325	8
644.359	10
644.392	20
644.426	11
644.46	0
644.494	-4
644.527	-13
644.561	-14
644.595	-2
644.629	1
644.662	-19
644.696	14
644.73	12
644.764	0
644.797	-23
644.831	0
644.865	13
644.899	8
644.932	25
644.966	-4
645	-9
645.033	11
645.067	1
645.101	8
645.135	3
645.168	-6
645.202	5
645.236	-8
645.269	3
645.303	-1
645.337	-6
645.37	1
645.404	-3
645.438	3
645.471	-20
645.505	-3
645.539	6
645.572	0
645.606	5
645.64	4
645.673	13
645.707	27
645.741	17
645.774	-21
645.808	-7
645.842	-9
645.875	-10
645.909	-6
645.943	-15
645.976	15
646.01	16
646.043	6
646.077	1
646.111	6
646.144	3
646.178	12
646.212	-23
646.245	11
646.279	8
646.312	14
646.346	8
646.38	-2
646.413	-3
646.447	-19
646.48	5
646.514	19
646.547	-1
646.581	-5
646.615	3
646.648	-15
646.682	2
646.715	-12
646.749	11
646.782	-3
646.816	0
646.85	-2
646.883	8
646.917	13
646.95	16
646.984	3
647.017	-11
647.051	12
647.084	-9
647.118	-10
647.151	-12
647.185	15
647.218	-11
647.252	10
647.285	-16
647.319	-9
647.353	5
647.386	18
647.42	8
647.453	1
647.487	6
647.52	11
647.553	18
647.587	19
647.62	2
647.654	7
647.687	7
647.721	11
647.754	12
647.788	3
647.821	-10
647.855	-2
647.888	1
647.922	23
647.955	9
647.989	-1
648.022	7
648.055	-2
648.089	-6
648.122	31
648.156	-1
648.189	-2
648.223	-10
648.256	16
648.29	10
648.323	16
648.356	18
648.39	4
648.423	-9
648.457	-3
648.49	15
648.523	7
648.557	-1
648.59	-8
648.624	13
648.657	7
648.69	18
648.724	9
648.757	14
648.791	6
648.824	2
648.857	34
648.891	8
648.924	8
648.957	14
648.991	4
649.024	12
649.057	-1
649.091	-5
649.124	7
649.158	18
649.191	26
649.224	-9
649.258	18
649.291	12
649.324	12
649.358	15
649.391	18
649.424	1
649.458	0
649.491	-4
649.524	2
649.557	-6
649.591	-9
649.624	14
649.657	-2
649.691	10
649.724	9
649.757	7
649.791	0
649.824	0
649.857	11
649.89	-1
649.924	-6
649.957	-6
649.99	-15
650.023	0
650.057	1
650.09	8
650.123	-3
650.157	3
650.19	19
650.223	-7
650.256	-6
650.29	-3
650.323	-4
650.356	20
650.389	10
650.423	4
650.456	-6
650.489	14
650.522	13
650.555	27
650.589	9
650.622	5
650.655	16
650.688	12
650.721	5
650.755	0
650.788	-3
650.821	5
650.854	0
650.887	0
650.921	-4
650.954	12
650.987	-4
651.02	-11
651.053	-11
651.087	13
651.12	22
651.153	0
651.186	10
651.219	3
651.252	-6
651.286	-6
651.319	5
651.352	6
651.385	4
651.418	9
651.451	8
651.484	13
651.518	-2
651.551	22
651.584	-7
651.617	8
651.65	17
651.683	10
651.716	-3
651.749	0
651.783	8
651.816	18
651.849	12
651.882	13
651.915	19
651.948	2
651.981	-3
652.014	-12
652.047	-12
652.08	-5
652.114	-1
652.147	-5
652.18	8
652.213	27
652.246	-2
652.279	-8
652.312	14
652.345	-8
652.378	-8
652.411	17
652.444	7
652.477	10
652.51	-11
652.543	-1
652.576	1
652.609	1
652.642	8
652.675	0
652.709	9
652.742	9
652.775	8
652.808	17
652.841	21
652.874	10
652.907	4
652.94	-4
652.973	-17
653.006	-1
653.039	4
653.072	-3
653.105	-2
653.138	2
653.171	-5
653.204	-2
653.237	16
653.27	0
653.303	5
653.336	3
653.368	-9
653.401	-11
653.434	-5
653.467	12
653.5	12
653.533	-4
653.566	8
653.599	11
653.632	12
653.665	12
653.698	-14
653.731	10
653.764	8
653.797	2
653.83	-3
653.863	10
653.896	6
653.929	-12
653.961	4
653.994	10
654.027	0
654.06	9
654.093	13
654.126	10
654.159	-15
654.192	12
654.225	5
654.258	2
654.29	-2
654.323	4
654.356	1
654.389	4
654.422	2
654.455	10
654.488	9
654.521	-1
654.553	-11
654.586	26
654.619	-9
654.652	15
654.685	2
654.718	-1
654.751	13
654.783	14
654.816	20
654.849	-9
654.882	-15
654.915	-9
654.948	2
654.98	0
655.013	2
655.046	8
655.079	-4
655.112	3
655.144	-14
655.177	3
655.21	5
655.243	10
655.276	5
655.308	2
655.341	2
655.374	11
655.407	10
655.44	22
655.472	5
655.505	6
655.538	-8
655.571	9
655.603	12
655.636	2
655.669	11
655.702	22
655.734	3
655.767	3
655.8	14
655.833	9
655.865	16
655.898	7
655.931	12
655.964	13
655.996	25
656.029	16
656.062	20
656.095	54
656.127	74
656.16	206
656.193	642
656.225	984
656.258	573
656.291	224
656.324	170
656.356	356
656.389	783
656.422	676
656.454	246
656.487	78
656.52	42
656.552	13
656.585	14
656.618	20
656.65	29
656.683	11
656.716	12
656.748	6
656.781	-4
656.814	-5
656.846	19
656.879	6
656.912	8
656.944	-29
656.977	-2
657.01	5
657.042	1
657.075	15
657.108	-6
657.14	21
657.173	25
657.205	46
657.238	15
657.271	24
657.303	-9
657.336	1
657.369	-12
657.401	12
657.434	-1
657.466	6
657.499	0
657.532	12
657.564	9
657.597	-4
657.629	7
657.662	6
657.694	2
657.727	7
657.76	17
657.792	2
657.825	-18
657.857	-8
657.89	13
657.922	20
657.955	9
657.987	0
658.02	2
658.053	10
658.085	9
658.118	12
658.15	7
658.183	18
658.215	16
658.248	13
658.28	7
658.313	4
658.345	-11
658.378	1
658.41	-1
658.443	24
658.475	-2
658.508	-3
658.54	11
658.573	-8
658.605	-1
658.638	9
658.67	11
658.703	22
658.735	10
658.768	13
658.8	-17
658.833	28
658.865	15
658.898	10
658.93	-7
658.963	-6
658.995	-13
659.028	-15
659.06	-7
659.092	9
659.125	9
659.157	7
659.19	-9
659.222	3
659.255	0
659.287	2
659.32	1
659.352	19
659.384	17
659.417	11
659.449	-2
659.482	6
659.514	1
659.546	-17
659.579	-18
659.611	-1
659.644	-7
659.676	2
659.708	-5
659.741	2
659.773	10
659.806	-7
659.838	3
659.87	7
659.903	-1
659.935	14
659.967	2
660	13
660.032	-19
660.065	8
660.097	12
660.129	-3
660.162	-10
660.194	12
660.226	22
660.259	13
660.291	-2
660.323	10
660.356	10
660.388	8
660.42	0
660.453	18
660.485	24
660.517	17
660.55	21
660.582	-1
660.614	-1
660.647	-2
660.679	-5
660.711	-2
660.743	-17
660.776	-11
660.808	1
660.84	-1
660.873	-2
660.905	-1
660.937	-3
660.969	-2
661.002	0
661.034	13
661.066	-4
661.099	12
661.131	23
661.163	12
661.195	-14
661.228	6
661.26	-8
661.292	4
661.324	6
661.357	6
661.389	12
661.421	-8
661.453	11
661.485	0
661.518	-3
661.55	-17
661.582	-6
661.614	-3
661.647	10
661.679	8
661.711	-3
661.743	-10
661.775	-5
661.808	23
661.84	3
661.872	-4
661.904	-3
661.936	1
661.969	-8
662.001	0
662.033	11
662.065	-7
662.097	15
662.129	3
662.162	-20
662.194	7
662.226	5
662.258	8
662.29	5
662.322	-4
662.355	-13
662.387	15
662.419	0
662.451	28
662.483	20
662.515	13
662.547	-12
662.58	-12
662.612	-10
662.644	-19
662.676	-10
662.708	14
662.74	0
662.772	-11
662.804	-3
662.836	1
662.869	-26
662.901	-4
662.933	-11
662.965	-4
662.997	-8
663.029	-6
663.061	1
663.093	0
663.125	4
663.157	10
663.189	6
663.221	6
663.254	-1
663.286	4
663.318	1
663.35	11
663.382	-5
663.414	18
663.446	5
663.478	-23
663.51	21
663.542	-5
663.574	-3
663.606	2
663.638	-9
663.67	-10
663.702	-7
663.734	3
663.766	4
663.798	-1
663.83	8
663.862	8
663.894	9
663.926	-13
663.958	11
663.99	9
664.022	2
664.054	10
664.086	4
664.118	-23
664.15	-2
664.182	8
664.214	-4
664.246	9
664.278	-6
664.31	18
664.342	7
664.374	-5
664.406	-10
664.438	-1
664.47	13
664.502	-5
664.534	-3
664.566	-13
664.598	3
664.63	-11
664.662	20
664.693	8
664.725	6
664.757	-3
664.789	-21
664.821	2
664.853	9
664.885	-5
664.917	0
664.949	9
664.981	21
665.013	8
665.045	2
665.076	12
665.108	1
665.14	-8
665.172	11
665.204	-18
665.236	-19
665.268	17
665.3	2
665.331	-4
665.363	4
665.395	3
665.427	-20
665.459	8
665.491	-4
665.523	-8
665.555	11
665.586	11
665.618	-5
665.65	-6
665.682	3
665.714	16
665.746	7
665.777	1
665.809	-6
665.841	11
665.873	7
665.905	-14
665.937	18
665.968	2
666	-2
666.032	3
666.064	3
666.096	10
666.127	11
666.159	8
666.191	14
666.223	-7
666.255	13
666.286	4
666.318	-6
666.35	8
666.382	9
666.413	-6
666.445	-16
666.477	-20
666.509	-3
666.54	-4
666.572	-19
666.604	-6
666.636	-10
666.667	13
666.699	10
666.731	-3
666.763	-10
666.794	4
666.826	-4
666.858	-3
666.89	22
666.921	1
666.953	6
666.985	11
667.017	9
667.048	17
667.08	8
667.112	7
667.143	2
667.175	8
667.207	9
667.238	0
667.27	-2
667.302	-7
667.334	-2
667.365	19
667.397	0
667.429	-6
667.46	8
667.492	4
667.524	-6
667.555	-7
667.587	1
667.619	2
667.65	-15
667.682	8
667.714	34
667.745	5
667.777	-9
667.808	6
667.84	7
667.872	19
667.903	24
667.935	-10
667.967	1
667.998	9
668.03	-8
668.061	8
668.093	6
668.125	14
668.156	-9
668.188	-11
668.22	-13
668.251	8
668.283	-2
668.314	13
668.346	-5
668.377	10
668.409	-3
668.441	24
668.472	10
668.504	13
668.535	13
668.567	14
668.599	10
668.63	3
668.662	0
668.693	12
668.725	-1
668.756	5
668.788	8
668.819	3
668.851	1
668.882	13
668.914	1
668.946	2
668.977	0
669.009	10
669.04	2
669.072	15
669.103	-8
669.135	-6
669.166	0
669.198	5
669.229	15
669.261	-10
669.292	-13
669.324	13
669.355	18
669.387	-9
669.418	5
669.45	3
669.481	3
669.513	-11
669.544	15
669.576	16
669.607	20
669.639	24
669.67	14
669.701	6
669.733	-11
669.764	6
669.796	3
669.827	-3
669.859	-11
669.89	7
669.922	10
669.953	0
669.985	4
670.016	19
670.047	10
670.079	-1
670.11	-4
670.142	9
670.173	-5
670.204	3
670.236	-1
670.267	7
670.299	-7
670.33	-13
670.362	14
670.393	-23
670.424	3
670.456	-12
670.487	-5
670.518	-7
670.55	-12
670.581	1
670.613	5
670.644	7
670.675	-37
670.707	-9
670.738	-8
670.769	-1
670.801	-24
670.832	9
670.864	-6
670.895	9
670.926	-2
670.958	-13
670.989	0
671.02	-9
671.052	-3
671.083	-12
671.114	-22
671.146	-7
671.177	20
671.208	10
671.24	-23
671.271	2
671.302	3
671.333	-9
671.365	-12
671.396	1
671.427	-4
671.459	3
671.49	9
671.521	14
671.553	0
671.584	-7
671.615	12
671.646	13
671.678	2
671.709	-9
671.74	-17
671.771	-9
671.803	7
671.834	1
671.865	2
671.896	-1
671.928	11
671.959	-4
671.99	-5
672.021	0
672.053	2
672.084	8
672.115	3
672.146	3
672.178	-10
672.209	13
672.24	3
672.271	28
672.303	-7
672.334	-13
672.365	-26
672.396	4
672.427	12
672.459	27
672.49	25
672.521	5
672.552	19
672.583	11
672.615	10
672.646	17
672.677	-5
672.708	-5
672.739	-15
672.77	9
672.802	4
672.833	15
672.864	12
672.895	2
672.926	9
672.957	-9
672.989	-2
673.02	-10
673.051	-11
673.082	9
673.113	-17
673.144	4
673.175	9
673.206	5
673.238	18
673.269	7
673.3	4
673.331	10
673.362	0
673.393	9
673.424	13
673.455	30
673.487	23
673.518	25
673.549	14
673.58	7
673.611	-2
673.642	18
673.673	3
673.704	6
673.735	15
673.766	-7
673.797	9
673.828	6
673.86	-3
673.891	-22
673.922	-16
673.953	-6
673.984	-6
674.015	-2
674.046	-5
674.077	12
674.108	-6
674.139	12
674.17	2
674.201	-13
674.232	-6
674.263	4
674.294	5
674.325	-5
674.356	12
674.387	22
674.418	5
674.449	-1
674.48	-8
674.511	8
674.542	21
674.573	7
674.604	16
674.635	5
674.666	9
674.697	9
674.728	3
674.759	4
674.79	-7
674.821	5
674.852	-2
674.883	-13
674.914	-1
674.945	2
674.976	2
675.007	6
675.038	-3
675.069	1
675.1	3
675.131	-9
675.162	-4
675.193	-13
675.224	0
675.254	6
675.285	9
675.316	20
675.347	2
675.378	-5
675.409	1
675.44	9
675.471	-1
675.502	2
675.533	-10
675.564	8
675.595	12
675.625	24
675.656	17
675.687	4
675.718	-10
675.749	16
675.78	13
675.811	-2
675.842	8
675.873	5
675.903	2
675.934	-15
675.965	-6
675.996	9
676.027	16
676.058	14
676.089	-4
676.119	-20
676.15	-7
676.181	0
676.212	5
676.243	3
676.274	-2
676.304	0
676.335	1
676.366	2
676.397	15
676.428	9
676.459	5
676.489	7
676.52	1
676.551	9
676.582	-1
676.613	-4
676.643	-21
676.674	21
676.705	3
676.736	18
676.767	15
676.797	9
676.828	5
676.859	3
676.89	-6
676.92	17
676.951	5
676.982	3
677.013	8
677.044	8
677.074	-4
677.105	0
677.136	2
677.167	12
677.197	9
677.228	10
677.259	-4
677.289	4
677.32	-9
677.351	2
677.382	-4
677.412	-10
677.443	11
677.474	1
677.505	8
677.535	6
677.566	7
677.597	-8
677.627	-5
677.658	-16
677.689	-3
677.72	-5
677.75	5
677.781	-5
677.812	11
677.842	20
677.873	16
677.904	-3
677.934	6
677.965	13
677.996	-22
678.026	-6
678.057	7
678.088	-8
678.118	14
678.149	12
678.18	2
678.21	-4
678.241	12
678.272	1
678.302	-2
678.333	1
678.363	16
678.394	3
678.425	0
678.455	17
678.486	11
678.517	9
678.547	-2
678.578	4
678.608	-17
678.639	-1
678.67	4
678.7	-3
678.731	-8
678.761	6
678.792	1
678.823	6
678.853	6
678.884	-6
678.914	8
678.945	-4
678.975	-8
679.006	-15
679.037	-6
679.067	28
679.098	10
679.128	-15
679.159	8
679.189	10
679.22	-7
679.25	4
679.281	5
679.312	-4
679.342	-2
679.373	25
679.403	10
679.434	0
679.464	-6
679.495	-8
679.525	4
679.556	3
679.586	11
679.617	11
679.647	-1
679.678	-5
679.708	24
679.739	12
679.769	14
679.8	9
679.83	14
679.861	27
679.891	5
679.922	-16
679.952	18
679.983	21
680.013	-2
680.044	-2
680.074	8
680.105	12
680.135	0
680.165	15
680.196	29
680.226	11
680.257	19
680.287	-4
680.318	9
680.348	7
680.379	17
680.409	10
680.439	0
680.47	-2
680.5	0
680.531	4
680.561	15
680.592	20
680.622	19
680.652	13
680.683	1
680.713	2
680.744	4
680.774	-3
680.804	21
680.835	-7
680.865	8
680.896	11
680.926	10
680.956	4
680.987	8
681.017	-1
681.047	12
681.078	-21
681.108	4
681.139	10
681.169	3
681.199	-3
681.23	-9
681.26	-8
681.29	0
681.321	-4
681.351	2
681.381	-21
681.412	-1
681.442	-10
681.472	14
681.503	16
681.533	8
681.563	-4
681.594	-9
681.624	2
681.654	-6
681.685	5
681.715	-3
681.745	-7
681.775	9
681.806	7
681.836	16
681.866	-2
681.897	4
681.927	-4
681.957	0
681.987	11
682.018	7
682.048	16
682.078	25
682.109	10
682.139	5
682.169	16
682.199	-3
682.23	0
682.26	4
682.29	-1
682.32	-11
682.351	-3
682.381	9
682.411	-2
682.441	0
682.472	-5
682.502	3
682.532	-8
682.562	6
682.592	12
682.623	5
682.653	10
682.683	-8
682.713	-4
682.743	5
682.774	-10
682.804	6
682.834	5
682.864	3
682.894	-12
682.925	-6
682.955	13
682.985	3
683.015	26
683.045	18
683.076	5
683.106	-15
683.136	-1
683.166	10
683.196	14
683.226	2
683.257	1
683.287	1
683.317	-10
683.347	19
683.377	-2
683.407	0
683.437	12
683.468	36
683.498	11
683.528	6
683.558	9
683.588	9
683.618	13
683.648	0
683.678	15
683.708	10
683.739	10
683.769	10
683.799	16
683.829	9
683.859	2
683.889	15
683.919	-5
683.949	9
683.979	-8
684.009	0
684.039	-2
684.07	-20
684.1	24
684.13	5
684.16	-1
684.19	-5
684.22	7
684.25	17
684.28	-13
684.31	7
684.34	8
684.37	1
684.4	-9
684.43	15
684.46	4
684.49	3
684.52	6
684.55	9
684.58	8
684.61	19
684.64	14
684.67	11
684.7	7
684.73	15
684.76	7
684.79	18
684.82	-10
684.85	-4
684.88	-14
684.91	5
684.94	8
684.97	-12
685	3
685.03	4
685.06	0
685.09	12
685.12	8
685.15	7
685.18	10
685.21	7
685.24	20
685.27	14
685.3	-6
685.33	7
685.36	-7
685.39	8
685.42	-1
685.45	-5
685.48	3
685.51	2
685.54	11
685.569	3
685.599	10
685.629	6
685.659	13
685.689	11
685.719	-5
685.749	9
685.779	12
685.809	9
685.839	8
685.869	10
685.898	24
685.928	13
685.958	11
685.988	20
686.018	3
686.048	9
686.078	29
686.108	25
686.137	-7
686.167	31
686.197	-5
686.227	6
686.257	7
686.287	10
686.317	8
686.346	-13
686.376	-9
686.406	-4
686.436	7
686.466	-5
686.496	17
686.525	15
686.555	10
686.585	19
686.615	26
686.645	3
686.675	13
686.704	18
686.734	0
686.764	-2
686.794	-3
686.824	-2
686.853	8
686.883	12
686.913	18
686.943	6
686.973	10
687.002	17
687.032	4
687.062	10
687.092	19
687.121	13
687.151	5
687.181	0
687.211	14
687.24	-5
687.27	-6
687.3	4
687.33	7
687.359	-4
687.389	-4
687.419	0
687.449	7
687.478	16
687.508	-8
687.538	-9
687.568	13
687.597	-2
687.627	5
687.657	6
687.686	11
687.716	18
687.746	6
687.776	-19
687.805	20
687.835	13
687.865	22
687.894	5
687.924	-5
687.954	-10
687.983	0
688.013	-5
688.043	6
688.072	-8
688.102	6
688.132	-15
688.161	-6
688.191	16
688.221	7
688.25	1
688.28	10
688.31	9
688.339	11
688.369	-1
688.399	-7
688.428	2
688.458	9
688.488	-8
688.517	20
688.547	5
688.576	41
688.606	22
688.636	-1
688.665	-3
688.695	10
688.725	16
688.754	2
688.784	7
688.813	25
688.843	11
688.873	9
688.902	-12
688.932	1
688.961	-2
688.991	27
689.02	30
689.05	-8
689.08	-2
689.109	-1
689.139	7
689.168	16
689.198	0
689.227	10
689.257	13
689.287	16
689.316	14
689.346	-6
689.375	-2
689.405	20
689.434	-1
689.464	13
689.493	-7
689.523	-8
689.552	-3
689.582	5
689.611	2
689.641	13
689.67	7
689.7	18
689.73	6
689.759	9
689.789	15
689.818	11
689.848	3
689.877	21
689.906	4
689.936	-7
689.965	14
689.995	14
690.024	13
690.054	2
690.083	2
690.113	-1
690.142	6
690.172	9
690.201	13
690.231	20
690.26	6
690.29	1
690.319	9
690.348	0
690.378	27
690.407	15
690.437	6
690.466	11
690.496	15
690.525	9
690.555	-4
690.584	-1
690.613	2
690.643	12
690.672	10
690.702	5
690.731	1
690.76	-3
690.79	5
690.819	9
690.849	3
690.878	-2
690.907	1
690.937	22
690.966	10
690.996	1
691.025	-7
691.054	6
691.084	11
691.113	-5
691.142	10
691.172	-4
691.201	21
691.23	0
691.26	20
691.289	5
691.319	-2
691.348	6
691.377	23
691.407	2
691.436	17
691.465	-6
691.495	2
691.524	1
691.553	3
691.583	-11
691.612	7
691.641	-8
691.67	-1
691.7	4
691.729	5
691.758	13
691.788	4
691.817	6
691.846	8
691.876	0
691.905	3
691.934	7
691.963	15
691.993	8
692.022	-9
692.051	-13
692.081	7
692.11	8
692.139	-21
692.168	6
692.198	7
692.227	8
692.256	31
692.285	12
692.315	-3
692.344	10
692.373	21
692.402	-4
692.432	1
692.461	-9
692.49	0
692.519	16
692.548	8
692.578	26
692.607	17
692.636	6
692.665	22
692.694	1
692.724	11
692.753	18
692.782	12
692.811	3
692.84	6
692.87	17
692.899	9
692.928	9
692.957	13
692.986	31
693.016	13
693.045	19
693.074	11
693.103	-7
693.132	0
693.161	16
693.191	2
693.22	-9
693.249	3
693.278	5
693.307	19
693.336	-11
693.365	-13
693.395	1
693.424	12
693.453	17
693.482	5
693.511	7
693.54	25
693.569	23
693.598	16
693.628	18
693.657	16
693.686	10
693.715	12
693.744	19
693.773	19
693.802	15
693.831	-2
693.86	4
693.889	-1
693.919	2
693.948	10
693.977	17
694.006	12
694.035	9
694.064	6
694.093	-4
694.122	-8
694.151	5
694.18	13
694.209	13
694.238	10
694.267	29
694.296	6
694.325	19
694.354	22
694.383	15
694.412	13
694.441	-7
694.471	-13
694.5	-13
694.529	-8
694.558	26
694.587	24
694.616	10
694.645	13
694.674	18
694.703	9
694.732	-3
694.761	12
694.79	14
694.819	1
694.848	13
694.877	23
694.906	31
694.935	16
694.963	20
694.992	5
695.021	6
695.05	-1
695.079	9
695.108	3
695.137	17
695.166	17
695.195	7
695.224	-1
695.253	2
695.282	8
695.311	27
695.34	8
695.369	7
695.398	1
695.427	10
695.456	-5
695.485	7
695.513	13
695.542	7
695.571	-3
695.6	23
695.629	10
695.658	21
695.687	15
695.716	1
695.745	24
695.774	-9
695.802	3
695.831	7
695.86	23
695.889	17
695.918	6
695.947	1
695.976	12
696.005	-1
696.033	16
696.062	24
696.091	6
696.12	14
696.149	25
696.178	8
696.207	-3
696.235	-2
696.264	12
696.293	10
696.322	4
696.351	22
696.38	0
696.408	-13
696.437	-7
696.466	5
696.495	10
696.524	6
696.553	9
696.581	3
696.61	6
696.639	7
696.668	7
696.697	7
696.725	11
696.754	1
696.783	0
696.812	0
696.84	10
696.869	2
696.898	6
696.927	11
696.956	29
696.984	9
697.013	7
697.042	1
697.071	2
697.099	0
697.128	13
697.157	0
697.186	7
697.214	2
697.243	12
697.272	7
697.301	16
697.329	8
697.358	19
697.387	25
697.415	-3
697.444	33
697.473	6
697.502	3
697.53	14
697.559	13
697.588	5
697.616	-10
697.645	9
697.674	33
697.703	18
697.731	27
697.76	5
697.789	8
697.817	10
697.846	16
697.875	21
697.903	17
697.932	10
697.961	15
697.989	7
698.018	-1
698.047	12
698.075	13
698.104	4
698.133	0
698.161	4
698.19	12
698.218	1
698.247	1
698.276	19
698.304	14
698.333	11
698.362	19
698.39	33
698.419	20
698.447	8
698.476	9
698.505	19
698.533	18
698.562	3
698.591	-3
698.619	-8
698.648	3
698.676	6
698.705	-5
698.733	-5
698.762	14
698.791	18
698.819	15
698.848	9
698.876	19
698.905	16
698.933	7
698.962	17
698.991	18
699.019	13
699.048	18
699.076	16
699.105	7
699.133	3
699.162	12
699.19	23
699.219	26
699.248	6
699.276	4
699.305	8
699.333	13
699.362	6
699.39	12
699.419	5
699.447	11
699.476	4
699.504	9
699.533	5
699.561	-6
699.59	3
699.618	15
699.647	11
699.675	7
699.704	7
699.732	8
699.761	30
699.789	3
699.818	10
699.846	26
699.874	-1
699.903	-7
699.931	3
699.96	17
699.988	2
700.017	0
700.045	11
700.074	-3
700.102	3
700.13	1
700.159	16
700.187	10
700.216	-9
700.244	10
700.273	4
700.301	2
700.329	3
700.358	13
700.386	4
700.415	13
700.443	6
700.472	0
700.5	13
700.528	13
700.557	17
700.585	1
700.614	-7
700.642	15
700.67	20
700.699	0
700.727	-1
700.755	20
700.784	2
700.812	5
700.841	4
700.869	-8
700.897	-19
700.926	8
700.954	8
700.982	11
701.011	9
701.039	4
701.067	17
701.096	5
701.124	-6
701.152	10
701.181	-10
701.209	3
701.237	13
701.266	10
701.294	-18
701.322	10
701.351	8
701.379	4
701.407	1
701.435	8
701.464	18
701.492	16
701.52	0
701.549	-1
701.577	-12
701.605	1
701.634	1
701.662	17
701.69	3
701.718	-6
701.747	0
701.775	0
701.803	6
701.831	23
701.86	8
701.888	6
701.916	3
701.944	-4
701.973	1
702.001	-15
702.029	-14
702.057	-2
702.086	-4
702.114	-10
702.142	4
702.17	5
702.199	-1
702.227	4
702.255	4
702.283	0
702.311	6
702.34	3
702.368	7
702.396	-3
702.424	-9
702.452	-2
702.481	-5
702.509	0
702.537	5
702.565	16
702.593	-13
702.621	13
702.65	20
702.678	21
702.706	3
702.734	-7
702.762	6
702.79	23
702.819	8
702.847	8
702.875	13
702.903	19
702.931	-4
702.959	5
702.988	14
703.016	-2
703.044	14
703.072	14
703.1	2
703.128	9
703.156	10
703.184	6
703.212	4
703.241	7
703.269	3
703.297	-1
703.325	0
703.353	-1
703.381	-3
703.409	-2
703.437	-18
703.465	17
703.493	2
703.522	3
703.55	15
703.578	17
703.606	-19
703.634	-6
703.662	-10
703.69	2
703.718	17
703.746	23
703.774	2
703.802	6
703.83	-7
703.858	3
703.886	-10
703.914	-17
703.942	20
703.97	3
703.998	-4
704.027	17
704.055	24
704.083	13
704.111	-3
704.139	16
704.167	4
704.195	7
704.223	-9
704.251	-8
704.279	1
704.307	5
704.335	-16
704.363	8
704.391	-1
704.419	9
704.447	0
704.475	1
704.503	13
704.531	11
704.558	2
704.586	-2
704.614	5
704.642	14
704.67	1
704.698	2
704.726	18
704.754	5
704.782	-12
704.81	6
704.838	25
704.866	6
704.894	-11
704.922	-2
704.95	16
704.978	7
705.006	12
705.034	16
705.061	1
705.089	13
705.117	1
705.145	-5
705.173	6
705.201	8
705.229	7
705.257	6
705.285	3
705.313	18
705.34	-3
705.368	-6
705.396	12
705.424	2
705.452	-5
705.48	-13
705.508	1
705.536	1
705.563	8
705.591	2
705.619	7
705.647	-8
705.675	0
705.703	-9
705.731	3
705.758	12
705.786	0
705.814	17
705.842	6
705.87	19
705.898	9
705.925	3
705.953	13
705.981	-5
706.009	5
706.037	3
706.065	-1
706.092	-4
706.12	2
706.148	-13
706.176	-5
706.204	10
706.231	-4
706.259	2
706.287	5
706.315	8
706.342	-2
706.37	9
706.398	2
706.426	1
706.454	5
706.481	12
706.509	-5
706.537	-4
706.565	-27
706.592	-2
706.62	-4
706.648	18
706.676	-15
706.703	9
706.731	6
706.759	5
706.787	11
706.814	9
706.842	6
706.87	-3
706.897	-2
706.925	3
706.953	9
706.981	9
707.008	3
707.036	8
707.064	2
707.091	-16
707.119	-3
707.147	2
707.174	2
707.202	24
707.23	3
707.258	14
707.285	-13
707.313	-9
707.341	-2
707.368	0
707.396	-1
707.424	26
707.451	0
707.479	6
707.507	-4
707.534	13
707.562	5
707.59	-20
707.617	-12
707.645	0
707.672	-7
707.7	14
707.728	11
707.755	-9
707.783	5
707.811	12
707.838	-8
707.866	12
707.893	-11
707.921	-6
707.949	-9
707.976	-14
708.004	2
708.031	-18
708.059	-5
708.087	12
708.114	-9
708.142	8
708.169	5
708.197	-3
708.225	-1
708.252	-2
708.28	11
708.307	-8
708.335	1
708.362	16
708.39	6
708.418	7
708.445	1
708.473	7
708.5	2
708.528	9
708.555	13
708.583	11
708.61	-3
708.638	10
708.665	2
708.693	-9
708.72	-14
708.748	-8
708.776	1
708.803	18
708.831	1
708.858	3
708.886	5
708.913	19
708.941	4
708.968	8
708.996	1
709.023	10
709.051	-2
709.078	-1
709.105	1
709.133	-3
709.16	-5
709.188	5
709.215	-4
709.243	-8
709.27	3
709.298	-5
709.325	-9
709.353	-6
709.38	-4
709.408	11
709.435	9
709.462	10
709.49	8
709.517	3
709.545	-1
709.572	4
709.6	-6
709.627	-5
709.655	-6
709.682	4
709.709	16
709.737	18
709.764	-3
709.792	24
709.819	11
709.846	-5
709.874	5
709.901	13
709.929	20
709.956	10
709.983	-10
710.011	2
710.038	-13
710.066	15
710.093	14
710.12	3
710.148	1
710.175	-3
710.202	4
710.23	9
710.257	-10
710.284	23
710.312	1
710.339	-5
710.366	4
710.394	0
710.421	22
710.448	-1
710.476	-6
710.503	1
710.53	22
710.558	11
710.585	3
710.612	8
710.64	-6
710.667	-6
710.694	0
710.722	5
710.749	27
710.776	4
710.804	24
710.831	-8
710.858	-3
710.885	1
710.913	4
710.94	32
710.967	10
710.995	20
711.022	7
711.049	10
711.076	2
711.104	3
711.131	-9
711.158	3
711.185	-1
711.213	-15
711.24	-18
711.267	9
711.294	7
711.322	20
711.349	8
711.376	4
711.403	6
711.431	3
711.458	-9
711.485	-19
711.512	6
711.54	7
711.567	-6
711.594	-19
711.621	-2
711.648	-2
711.676	-7
711.703	5
711.73	-21
711.757	0
711.784	-13
711.812	2
711.839	11
711.866	-5
711.893	6
711.92	2
711.947	5
711.975	7
712.002	13
712.029	10
712.056	13
712.083	10
712.11	-14
712.138	-1
712.165	-4
712.192	10
712.219	3
712.246	-1
712.273	-6
712.3	-25
712.328	8
712.355	6
712.382	5
712.409	-1
712.436	-7
712.463	9
712.49	14
712.517	18
712.544	5
712.572	3
712.599	4
712.626	14
712.653	-2
712.68	-10
712.707	1
712.734	20
712.761	1
712.788	4
712.815	4
712.842	17
712.87	-9
712.897	-5
712.924	4
712.951	-3
712.978	21
713.005	21
713.032	6
713.059	3
713.086	-1
713.113	-5
713.14	7
713.167	-3
713.194	10
713.221	20
713.248	8
713.275	11
713.302	-5
713.329	2
713.356	17
713.383	4
713.41	5
713.437	-11
713.464	0
713.491	15
713.518	7
713.545	-3
713.572	9
713.599	17
713.626	1
713.653	-4
713.68	7
713.707	3
713.734	10
713.761	1
713.788	13
713.815	14
713.842	6
713.869	-2
713.896	-4
713.923	-4
713.95	10
713.977	10
714.004	-3
714.031	6
714.058	-1
714.085	-12
714.112	14
714.139	1
714.165	2
714.192	4
714.219	15
714.246	9
714.273	17
714.3	5
714.327	8
714.354	9
714.381	6
714.408	14
714.435	5
714.461	-12
714.488	-2
714.515	10
714.542	-1
714.569	-8
714.596	-4
714.623	2
714.65	6
714.677	-8
714.703	-7
714.73	1
714.757	1
714.784	8
714.811	-12
714.838	4
714.865	0
714.891	18
714.918	-3
714.945	-1
714.972	-2
714.999	8
715.026	-19
715.052	-4
715.079	3
715.106	11
715.133	7
715.16	-10
715.187	0
715.213	10
715.24	-11
715.267	5
715.294	8
715.321	-6
715.347	-14
715.374	-6
715.401	9
715.428	-8
715.455	3
715.481	1
715.508	12
715.535	-12
715.562	30
715.588	2
715.615	2
715.642	2
715.669	8
715.695	-10
715.722	-1
715.749	7
715.776	24
715.802	-4
715.829	0
715.856	-14
715.883	14
715.909	4
715.936	-9
715.963	-7
715.99	2
716.016	-11
716.043	-6
716.07	-1
716.096	-6
716.123	17
716.15	18
716.177	7
716.203	0
716.23	11
716.257	1
716.283	24
716.31	6
716.337	-6
716.363	-6
716.39	11
716.417	16
716.443	-2
716.47	7
716.497	12
716.523	17
716.55	2
716.577	20
716.603	-13
716.63	17
716.657	17
716.683	12
716.71	11
716.737	13
716.763	8
716.79	10
716.817	24
716.843	20
716.87	-1
716.897	11
716.923	18
716.95	3
716.976	1
717.003	5
717.03	0
717.056	10
717.083	13
717.109	8
717.136	10
717.163	5
717.189	16
717.216	6
717.242	10
717.269	5
717.296	8
717.322	9
717.349	21
717.375	9
717.402	-1
717.428	11
717.455	11
717.481	11
717.508	20
717.535	16
717.561	-13
717.588	-8
717.614	1
717.641	18
717.667	-4
717.694	-4
717.72	10
717.747	10
717.773	4
717.8	8
717.826	13
717.853	10
717.88	10
717.906	11
717.933	13
717.959	13
717.986	0
718.012	6
718.039	22
718.065	14
718.092	10
718.118	-6
718.144	4
718.171	16
718.197	6
718.224	7
718.25	7
718.277	7
718.303	6
718.33	-1
718.356	-3
718.383	-4
718.409	-1
718.436	-2
718.462	-1
718.489	-10
718.515	5
718.541	17
718.568	19
718.594	6
718.621	5
718.647	-10
718.674	5
718.7	18
718.726	3
718.753	3
718.779	1
718.806	12
718.832	15
718.858	14
718.885	2
718.911	10
718.938	20
718.964	-1
718.99	12
719.017	1
719.043	12
719.07	18
719.096	-9
719.122	18
719.149	-14
719.175	3
719.201	9
719.228	1
719.254	3
719.281	1
719.307	-4
719.333	-4
719.36	11
719.386	9
719.412	19
719.439	-7
719.465	3
719.491	-6
719.518	9
719.544	0
719.57	9
719.597	-2
719.623	-11
719.649	-2
719.675	-1
719.702	9
719.728	11
719.754	-15
719.781	-8
719.807	12
719.833	-2
719.86	1
719.886	12
719.912	21
719.938	-1
719.965	15
719.991	12
720.017	17
720.044	1
720.07	-8
720.096	2
720.122	5
720.149	18
720.175	19
720.201	2
720.227	-5
720.254	-7
720.28	-2
720.306	2
720.332	2
720.359	-2
720.385	1
720.411	-1
720.437	5
720.463	3
720.49	2
720.516	5
720.542	-2
720.568	2
720.595	10
720.621	9
720.647	9
720.673	8
720.699	6
720.725	24
720.752	17
720.778	15
720.804	18
720.83	7
720.856	6
720.883	2
720.909	8
720.935	6
720.961	22
720.987	14
721.013	3
721.04	-1
721.066	-3
721.092	-17
721.118	-1
721.144	10
721.17	-8
721.196	-18
721.223	-8
721.249	-2
721.275	25
721.301	7
721.327	10
721.353	10
721.379	-1
721.405	17
721.432	23
721.458	1
721.484	-1
721.51	-16
721.536	-4
721.562	3
721.588	3
721.614	0
721.64	1
721.666	5
721.693	-5
721.719	5
721.745	6
721.771	-5
721.797	-4
721.823	14
721.849	10
721.875	15
721.901	9
721.927	13
721.953	-2
721.979	21
722.005	10
722.031	0
722.057	14
722.083	5
722.109	24
722.135	14
722.161	13
722.187	19
722.214	12
722.24	-1
722.266	-6
722.292	13
722.318	10
722.344	-1
722.37	6
722.396	16
722.422	2
722.448	3
722.474	-8
722.5	17
722.526	-4
722.552	-7
722.578	12
722.603	22
722.629	1
722.655	7
722.681	-9
722.707	-6
722.733	-11
722.759	-6
722.785	9
722.811	-5
722.837	1
722.863	16
722.889	10
722.915	-1
722.941	-4
722.967	9
722.993	12
723.019	11
723.045	0
723.071	8
723.097	-2
723.122	0
723.148	-2
723.174	6
723.2	6
723.226	2
723.252	7
723.278	-2
723.304	12
723.33	5
723.356	3
723.381	-25
723.407	-17
723.433	10
723.459	-4
723.485	13
723.511	20
723.537	2
723.563	-1
723.588	7
723.614	15
723.64	14
723.666	0
723.692	13
723.718	8
723.744	6
723.769	7
723.795	-11
723.821	2
723.847	-7
723.873	17
723.899	13
723.924	10
723.95	9
723.976	1
724.002	10
724.028	7
724.053	-10
724.079	-8
724.105	1
724.131	10
724.157	1
724.182	6
724.208	8
724.234	7
724.26	-10
724.286	5
724.311	0
724.337	5
724.363	15
724.389	18
724.415	0
724.44	9
724.466	0
724.492	-1
724.518	16
724.543	1
724.569	6
724.595	10
724.621	-1
724.646	7
724.672	5
724.698	-2
724.723	-3
724.749	-8
724.775	6
724.801	7
724.826	1
724.852	-5
724.878	2
724.904	-5
724.929	10
724.955	-17
724.981	18
725.006	2
725.032	2
725.058	10
725.083	4
725.109	8
725.135	12
725.161	14
725.186	2
725.212	-9
725.238	0
725.263	-14
725.289	-10
725.315	-10
725.34	-4
725.366	7
725.392	0
725.417	10
725.443	9
725.468	15
725.494	8
725.52	13
725.545	-2
725.571	-1
725.597	-5
725.622	-1
725.648	8
725.674	20
725.699	10
725.725	4
725.75	34
725.776	0
725.802	6
725.827	6
725.853	7
725.878	6
725.904	-11
725.93	12
725.955	-10
725.981	2
726.006	-7
726.032	18
726.057	-13
726.083	13
726.109	3
726.134	15
726.16	18
726.185	9
726.211	-3
726.236	10
726.262	5
726.288	13
726.313	11
726.339	10
726.364	2
726.39	21
726.415	-2
726.441	-2
726.466	-8
726.492	10
726.517	0
726.543	5
726.568	-3
726.594	2
726.619	14
726.645	16
726.67	-2
726.696	10
726.721	-1
726.747	7
726.772	16
726.798	-1
726.823	12
726.849	-2
726.874	-2
726.9	20
726.925	9
726.951	3
726.976	6
727.002	0
727.027	2
727.053	22
727.078	2
727.104	10
727.129	-16
727.155	-7
727.18	9
727.205	-2
727.231	6
727.256	7
727.282	-7
727.307	-6
727.333	1
727.358	-2
727.383	-8
727.409	-7
727.434	13
727.46	6
727.485	-4
727.511	14
727.536	-11
727.561	-5
727.587	4
727.612	10
727.637	-1
727.663	1
727.688	12
727.714	9
727.739	20
727.764	6
727.79	4
727.815	1
727.841	10
727.866	1
727.891	15
727.917	-17
727.942	-3
727.967	-1
727.993	-9
728.018	5
728.043	7
728.069	30
728.094	8
728.119	16
728.145	11
728.17	5
728.195	-3
728.221	18
728.246	3
728.271	-3
728.297	2
728.322	7
728.347	24
728.373	1
728.398	4
728.423	5
728.448	6
728.474	6
728.499	6
728.524	-15
728.55	-4
728.575	-10
728.6	10
728.625	-5
728.651	9
728.676	10
728.701	9
728.727	5
728.752	-1
728.777	-14
728.802	4
728.828	7
728.853	9
728.878	13
728.903	2
728.929	-2
728.954	1
728.979	7
729.004	3
729.03	-16
729.055	5
729.08	-16
729.105	-2
729.13	26
729.156	18
729.181	-5
729.206	-13
729.231	-1
729.256	-2
729.282	-9
729.307	-5
729.332	-8
729.357	1
729.382	6
729.408	14
729.433	10
729.458	10
729.483	5
729.508	20
729.533	10
729.559	6
729.584	8
729.609	6
729.634	13
729.659	-5
729.684	-4
729.71	32
729.735	21
729.76	13
729.785	9
729.81	31
729.835	1
729.86	2
729.886	17
729.911	5
729.936	14
729.961	3
729.986	-2
730.011	6
730.036	-11
730.061	-3
730.086	1
730.112	-5
730.137	22
730.162	0
730.187	-9
730.212	5
730.237	1
730.262	11
730.287	10
730.312	24
730.337	1
730.362	14
730.387	-5
730.413	3
730.438	-24
730.463	-22
730.488	-9
730.513	10
730.538	10
730.563	11
730.588	13
730.613	17
730.638	15
730.663	15
730.688	31
730.713	7
730.738	-9
730.763	1
730.788	-6
730.813	23
730.838	7
730.863	14
730.888	-11
730.913	-7
730.938	-23
730.963	-3
730.988	3
731.013	15
731.038	-8
731.063	14
731.088	6
731.113	-13
731.138	-17
731.163	-5
731.188	3
731.213	8
731.238	17
731.263	10
731.288	10
731.313	9
731.338	9
731.363	2
731.388	17
731.413	1
731.438	8
731.463	10
731.487	11
731.512	8
731.537	-9
731.562	-1
731.587	6
731.612	0
731.637	-1
731.662	0
731.687	0
731.712	-9
731.737	11
731.762	9
731.786	30
731.811	9
731.836	8
731.861	3
731.886	5
731.911	10
731.936	11
731.961	-12
731.986	-4
732.01	1
732.035	2
732.06	-7
732.085	10
732.11	9
732.135	-27
732.16	1
732.184	24
732.209	9
732.234	12
732.259	-5
732.284	2
732.309	-15
732.334	0
732.358	-8
732.383	-6
732.408	16
732.433	3
732.458	2
732.482	-2
732.507	-7
732.532	9
732.557	20
732.582	5
732.607	-3
732.631	-8
732.656	1
732.681	6
732.706	2
732.73	4
732.755	-6
732.78	13
732.805	14
732.83	6
732.854	-6
732.879	9
732.904	5
732.929	8
732.953	10
732.978	5
733.003	-2
733.028	-2
733.052	13
733.077	9
733.102	19
733.127	1
733.151	-9
733.176	8
733.201	5
733.226	7
733.25	13
733.275	4
733.3	10
733.324	-2
733.349	16
733.374	11
733.399	6
733.423	-6
733.448	12
733.473	-11
733.497	-2
733.522	-11
733.547	27
733.571	18
733.596	22
733.621	1
733.646	6
733.67	3
733.695	-8
733.72	6
733.744	14
733.769	10
733.794	18
733.818	19
733.843	-15
733.867	-5
733.892	5
733.917	8
733.941	1
733.966	-11
733.991	-2
734.015	18
734.04	10
734.065	18
734.089	25
734.114	10
734.138	12
734.163	-6
734.188	17
734.212	27
734.237	19
734.261	-1
734.286	-3
734.311	0
734.335	-5
734.36	-10
734.384	11
734.409	19
734.434	-7
734.458	6
734.483	4
734.507	7
734.532	13
734.556	8
734.581	6
734.606	3
734.63	1
734.655	1
734.679	7
734.704	8
734.728	-1
734.753	11
734.777	6
734.802	4
734.826	2
734.851	11
734.876	3
734.9	-9
734.925	6
734.949	-7
734.974	5
734.998	8
735.023	-3
735.047	-8
735.072	24
735.096	-3
735.121	11
735.145	-1
735.17	1
735.194	13
735.219	-5
735.243	-4
735.268	2
735.292	22
735.317	-2
735.341	-1
735.365	-18
735.39	-2
735.414	11
735.439	3
735.463	1
735.488	9
735.512	8
735.537	9
735.561	3
735.586	-12
735.61	-2
735.634	3
735.659	19
735.683	29
735.708	2
735.732	-1
735.757	3
735.781	5
735.805	12
735.83	0
735.854	19
735.879	5
735.903	21
735.927	26
735.952	21
735.976	12
736.001	5
736.025	2
736.049	-10
736.074	-5
736.098	5
736.123	1
736.147	-10
736.171	-5
736.196	8
736.22	-3
736.244	3
736.269	2
736.293	9
736.317	0
736.342	8
736.366	33
736.39	8
736.415	5
736.439	14
736.463	9
736.488	6
736.512	0
736.536	11
736.561	14
736.585	-5
736.609	10
736.634	6
736.658	0
736.682	6
736.707	7
736.731	5
736.755	7
736.78	24
736.804	12
736.828	-1
736.852	-2
736.877	21
736.901	13
736.925	6
736.949	10
736.974	-14
736.998	3
737.022	12
737.047	2
737.071	0
737.095	5
737.119	13
737.144	3
737.168	-3
737.192	0
737.216	26
737.241	-5
737.265	11
737.289	21
737.313	-5
737.337	5
737.362	1
737.386	-2
737.41	-10
737.434	8
737.459	15
737.483	21
737.507	19
737.531	23
737.555	17
737.58	12
737.604	14
737.628	12
737.652	-13
737.676	3
737.701	12
737.725	11
737.749	5
737.773	4
737.797	7
737.821	5
737.846	5
737.87	22
737.894	-1
737.918	1
737.942	-2
737.966	1
737.99	11
738.015	-2
738.039	-6
738.063	-1
738.087	15
738.111	1
738.135	21
738.159	15
738.184	0
738.208	-11
738.232	1
738.256	19
738.28	14
738.304	14
738.328	-2
738.352	1
738.376	-3
738.4	17
738.425	-5
738.449	3
738.473	10
738.497	11
738.521	10
738.545	20
738.569	5
738.593	20
738.617	13
738.641	10
738.665	-1
738.689	-1
738.713	-4
738.737	1
738.762	13
738.786	7
738.81	-13
738.834	16
738.858	-6
738.882	13
738.906	5
738.93	15
738.954	17
738.978	10
739.002	2
739.026	16
739.05	10
739.074	10
739.098	38
739.122	23
739.146	11
739.17	1
739.194	3
739.218	-1
739.242	7
739.266	1
739.29	16
739.314	9
739.338	12
739.362	0
739.386	16
739.41	0
739.434	-7
739.458	11
739.482	-2
739.506	13
739.53	1
739.554	24
739.577	7
739.601	12
739.625	1
739.649	5
739.673	7
739.697	19
739.721	9
739.745	13
739.769	11
739.793	11
739.817	16
739.841	3
739.865	6
739.889	-7
739.912	10
739.936	-2
739.96	4
739.984	7
740.008	3
740.032	-7
740.056	13
740.08	9
740.104	-2
740.127	-2
740.151	9
740.175	18
740.199	14
740.223	45
740.247	9
740.271	1
740.295	3
740.318	-5
740.342	5
740.366	5
740.39	17
740.414	5
740.438	1
740.461	18
740.485	12
740.509	-6
740.533	15
740.557	1
740.581	-11
740.604	-14
740.628	-10
740.652	14
740.676	14
740.7	19
740.723	-1
740.747	-6
740.771	2
740.795	5
740.819	24
740.842	10
740.866	23
740.89	5
740.914	7
740.938	-3
740.961	5
740.985	6
741.009	-14
741.033	12
741.056	14
741.08	9
741.104	3
741.128	22
741.151	12
741.175	5
741.199	-5
741.223	1
741.246	-3
741.27	4
741.294	19
741.318	-5
741.341	7
741.365	13
741.389	6
741.413	0
741.436	10
741.46	4
741.484	15
741.507	5
741.531	17
741.555	10
741.579	1
741.602	7
741.626	3
741.65	3
741.673	2
741.697	25
741.721	11
741.744	-9
741.768	1
741.792	5
741.815	3
741.839	20
741.863	17
741.886	29
741.91	7
741.934	-1
741.957	-25
741.981	24
742.005	10
742.028	-4
742.052	-2
742.075	2
742.099	13
742.123	10
742.146	0
742.17	12
742.194	-11
742.217	6
742.241	0
742.264	1
742.288	23
742.312	6
742.335	14
742.359	3
742.382	2
742.406	18
742.43	-9
742.453	-9
742.477	-6
742.5	8
742.524	-11
742.548	-5
742.571	5
742.595	-2
742.618	3
742.642	-1
742.665	10
742.689	12
742.712	12
742.736	10
742.76	9
742.783	-8
742.807	1
742.83	17
742.854	1
742.877	5
742.901	-1
742.924	-14
742.948	-1
742.971	19
742.995	13
743.018	-1
743.042	-8
743.065	1
743.089	-11
743.112	-1
743.136	-2
743.159	3
743.183	-9
743.206	10
743.23	9
743.253	3
743.277	21
743.3	1
743.324	8
743.347	-15
743.371	18
743.394	5
743.418	20
743.441	11
743.465	15
743.488	7
743.512	-6
743.535	9
743.558	0
743.582	9
743.605	6
743.629	3
743.652	18
743.676	5
743.699	7
743.723	14
743.746	2
743.769	-5
743.793	5
743.816	4
743.84	23
743.863	23
743.886	15
743.91	20
743.933	18
743.957	19
743.98	2
744.003	8
744.027	-3
744.05	-8
744.074	-1
744.097	-12
744.12	-11
744.144	-17
744.167	6
744.19	-1
744.214	3
744.237	-5
744.26	7
744.284	8
744.307	-5
744.331	-1
744.354	1
744.377	-4
744.401	5
744.424	-4
744.447	-2
744.471	-4
