Data from LowRes_H2_15_26_11_07_2024_HR4C61881__97__15-28-23-336.txt Node

Date: Thu Nov 07 15:28:23 EST 2024
User: crc00042
Spectrometer: HR4C6188
Trigger mode: 4
Integration Time (sec): 1.000000E-1
Scans to average: 1
Electric dark correction enabled: true
Nonlinearity correction enabled: false
Boxcar width: 0
XAxis mode: Wavelengths
Number of Pixels in Spectrum: 3648
>>>>>Begin Spectral Data<<<<<
245.66	-72.15
245.797	-72.15
245.934	-72.15
246.071	-72.15
246.208	-1.15
246.344	-3.15
246.481	-22.15
246.618	-21.15
246.755	-7.15
246.892	0.85
247.029	0.85
247.165	2.85
247.302	13.85
247.439	2.85
247.576	5.85
247.713	-3.15
247.849	27.85
247.986	1.85
248.123	5.85
248.26	-8.15
248.396	1.85
248.533	-13.15
248.67	12.85
248.806	16.85
248.943	-0.15
249.08	11.85
249.216	32.85
249.353	-1.15
249.49	17.85
249.626	16.85
249.763	18.85
249.9	6.85
250.036	8.85
250.173	-0.15
250.309	14.85
250.446	7.85
250.582	7.85
250.719	-14.15
250.856	-2.15
250.992	-5.15
251.129	21.85
251.265	-6.15
251.402	14.85
251.538	13.85
251.675	1.85
251.811	22.85
251.948	26.85
252.084	25.85
252.221	4.85
252.357	-4.15
252.493	31.85
252.63	-7.15
252.766	8.85
252.903	-6.15
253.039	4.85
253.175	-9.15
253.312	11.85
253.448	-13.15
253.585	-18.15
253.721	17.85
253.857	12.85
253.994	6.85
254.13	1.85
254.266	5.85
254.403	8.85
254.539	8.85
254.675	32.85
254.811	16.85
254.948	-0.15
255.084	-17.15
255.22	-3.15
255.356	12.85
255.493	-2.15
255.629	6.85
255.765	18.85
255.901	31.85
256.037	12.85
256.174	12.85
256.31	7.85
256.446	5.85
256.582	-4.15
256.718	11.85
256.854	30.85
256.991	22.85
257.127	18.85
257.263	12.85
257.399	15.85
257.535	0.85
257.671	3.85
257.807	-8.15
257.943	-3.15
258.079	-10.15
258.215	5.85
258.351	18.85
258.487	10.85
258.623	33.85
258.759	5.85
258.895	5.85
259.031	5.85
259.167	-21.15
259.303	24.85
259.439	5.85
259.575	-7.15
259.711	12.85
259.847	-0.15
259.983	8.85
260.119	22.85
260.255	-16.15
260.391	13.85
260.527	6.85
260.663	22.85
260.799	16.85
260.934	-2.15
261.07	6.85
261.206	-15.15
261.342	-11.15
261.478	20.85
261.614	11.85
261.749	10.85
261.885	2.85
262.021	-1.15
262.157	7.85
262.293	-1.15
262.428	-3.15
262.564	5.85
262.7	9.85
262.836	11.85
262.971	25.85
263.107	14.85
263.243	14.85
263.378	-0.15
263.514	-23.15
263.65	2.85
263.785	-14.15
263.921	5.85
264.057	-0.15
264.192	23.85
264.328	29.85
264.464	-2.15
264.599	14.85
264.735	42.85
264.871	9.85
265.006	11.85
265.142	10.85
265.277	18.85
265.413	28.85
265.548	15.85
265.684	45.85
265.819	1.85
265.955	14.85
266.091	-7.15
266.226	7.85
266.362	1.85
266.497	13.85
266.633	2.85
266.768	3.85
266.903	16.85
267.039	31.85
267.174	37.85
267.31	0.85
267.445	1.85
267.581	-8.15
267.716	5.85
267.851	1.85
267.987	4.85
268.122	19.85
268.258	13.85
268.393	4.85
268.528	10.85
268.664	-4.15
268.799	-10.15
268.934	15.85
269.07	12.85
269.205	22.85
269.34	22.85
269.476	29.85
269.611	0.85
269.746	18.85
269.881	10.85
270.017	18.85
270.152	5.85
270.287	15.85
270.422	42.85
270.558	-8.15
270.693	1.85
270.828	-10.15
270.963	-2.15
271.098	-9.15
271.234	8.85
271.369	18.85
271.504	9.85
271.639	-11.15
271.774	4.85
271.909	3.85
272.045	-10.15
272.18	-5.15
272.315	-19.15
272.45	15.85
272.585	1.85
272.72	10.85
272.855	16.85
272.99	24.85
273.125	-1.15
273.26	-32.15
273.395	1.85
273.53	-2.15
273.665	-2.15
273.8	18.85
273.935	20.85
274.07	18.85
274.205	9.85
274.34	-9.15
274.475	-14.15
274.61	19.85
274.745	-2.15
274.88	31.85
275.015	-1.15
275.15	19.85
275.285	19.85
275.42	0.85
275.555	11.85
275.69	16.85
275.825	23.85
275.959	0.85
276.094	2.85
276.229	12.85
276.364	-11.15
276.499	5.85
276.634	7.85
276.768	7.85
276.903	-1.15
277.038	11.85
277.173	5.85
277.308	-5.15
277.442	12.85
277.577	-16.15
277.712	14.85
277.847	15.85
277.981	26.85
278.116	-7.15
278.251	9.85
278.386	0.85
278.52	-8.15
278.655	22.85
278.79	25.85
278.924	9.85
279.059	15.85
279.194	-1.15
279.328	52.85
279.463	15.85
279.598	13.85
279.732	10.85
279.867	13.85
280.001	2.85
280.136	4.85
280.271	8.85
280.405	11.85
280.54	6.85
280.674	6.85
280.809	17.85
280.943	19.85
281.078	12.85
281.213	28.85
281.347	22.85
281.482	-2.15
281.616	17.85
281.751	11.85
281.885	-4.15
282.02	-11.15
282.154	17.85
282.288	-0.15
282.423	0.85
282.557	-13.15
282.692	22.85
282.826	6.85
282.961	18.85
283.095	-2.15
283.229	9.85
283.364	-9.15
283.498	3.85
283.633	19.85
283.767	18.85
283.901	8.85
284.036	9.85
284.17	-12.15
284.304	2.85
284.439	-2.15
284.573	-7.15
284.707	21.85
284.842	6.85
284.976	1.85
285.11	-2.15
285.244	27.85
285.379	54.85
285.513	-9.15
285.647	-2.15
285.781	6.85
285.916	14.85
286.05	8.85
286.184	39.85
286.318	29.85
286.453	5.85
286.587	-5.15
286.721	-11.15
286.855	0.85
286.989	13.85
287.123	-5.15
287.258	-10.15
287.392	-6.15
287.526	4.85
287.66	-2.15
287.794	-13.15
287.928	-7.15
288.062	-7.15
288.196	5.85
288.33	18.85
288.464	5.85
288.598	9.85
288.733	16.85
288.867	18.85
289.001	12.85
289.135	22.85
289.269	-7.15
289.403	-8.15
289.537	1.85
289.671	12.85
289.805	-0.15
289.939	21.85
290.073	17.85
290.207	24.85
290.34	9.85
290.474	3.85
290.608	18.85
290.742	10.85
290.876	-10.15
291.01	6.85
291.144	19.85
291.278	22.85
291.412	12.85
291.546	-8.15
291.679	-4.15
291.813	9.85
291.947	19.85
292.081	14.85
292.215	6.85
292.349	0.85
292.482	7.85
292.616	0.85
292.75	11.85
292.884	2.85
293.018	-1.15
293.151	-23.15
293.285	21.85
293.419	12.85
293.553	3.85
293.686	6.85
293.82	12.85
293.954	28.85
294.088	24.85
294.221	-14.15
294.355	-10.15
294.489	3.85
294.622	1.85
294.756	13.85
294.89	8.85
295.023	27.85
295.157	10.85
295.291	4.85
295.424	31.85
295.558	23.85
295.691	19.85
295.825	7.85
295.959	4.85
296.092	-4.15
296.226	1.85
296.359	3.85
296.493	15.85
296.627	13.85
296.76	-4.15
296.894	-10.15
297.027	-2.15
297.161	11.85
297.294	-14.15
297.428	1.85
297.561	19.85
297.695	9.85
297.828	0.85
297.962	6.85
298.095	-2.15
298.229	4.85
298.362	-8.15
298.495	10.85
298.629	4.85
298.762	-4.15
298.896	1.85
299.029	-2.15
299.162	2.85
299.296	15.85
299.429	3.85
299.563	7.85
299.696	-5.15
299.829	11.85
299.963	11.85
300.096	-0.15
300.229	-2.15
300.363	3.85
300.496	3.85
300.629	-9.15
300.763	1.85
300.896	-5.15
301.029	5.85
301.162	-4.15
301.296	-2.15
301.429	-1.15
301.562	-22.15
301.695	18.85
301.829	16.85
301.962	25.85
302.095	6.85
302.228	-4.15
302.362	5.85
302.495	1.85
302.628	15.85
302.761	4.85
302.894	-1.15
303.027	30.85
303.161	1.85
303.294	-7.15
303.427	7.85
303.56	-4.15
303.693	0.85
303.826	18.85
303.959	30.85
304.092	-6.15
304.225	-0.15
304.359	12.85
304.492	16.85
304.625	11.85
304.758	3.85
304.891	-21.15
305.024	5.85
305.157	10.85
305.29	-27.15
305.423	-3.15
305.556	19.85
305.689	10.85
305.822	-1.15
305.955	28.85
306.088	1.85
306.221	-7.15
306.354	-3.15
306.487	-14.15
306.62	-6.15
306.752	0.85
306.885	11.85
307.018	19.85
307.151	33.85
307.284	24.85
307.417	0.85
307.55	22.85
307.683	-1.15
307.816	24.85
307.948	9.85
308.081	28.85
308.214	18.85
308.347	41.85
308.48	16.85
308.613	9.85
308.745	13.85
308.878	1.85
309.011	20.85
309.144	18.85
309.277	3.85
309.409	11.85
309.542	16.85
309.675	14.85
309.808	17.85
309.94	45.85
310.073	-9.15
310.206	-10.15
310.339	-11.15
310.471	-21.15
310.604	17.85
310.737	5.85
310.869	12.85
311.002	-2.15
311.135	-2.15
311.267	-8.15
311.4	-11.15
311.533	27.85
311.665	5.85
311.798	24.85
311.93	32.85
312.063	27.85
312.196	0.85
312.328	6.85
312.461	9.85
312.593	0.85
312.726	5.85
312.859	-5.15
312.991	2.85
313.124	0.85
313.256	18.85
313.389	14.85
313.521	16.85
313.654	12.85
313.786	-14.15
313.919	-21.15
314.051	5.85
314.184	15.85
314.316	20.85
314.449	-9.15
314.581	-11.15
314.714	15.85
314.846	16.85
314.978	-19.15
315.111	7.85
315.243	7.85
315.376	0.85
315.508	-12.15
315.641	-9.15
315.773	27.85
315.905	16.85
316.038	10.85
316.17	25.85
316.302	19.85
316.435	4.85
316.567	-5.15
316.699	28.85
316.832	-11.15
316.964	25.85
317.096	8.85
317.229	19.85
317.361	-12.15
317.493	1.85
317.625	-7.15
317.758	13.85
317.89	22.85
318.022	20.85
318.155	10.85
318.287	5.85
318.419	14.85
318.551	10.85
318.683	2.85
318.816	-5.15
318.948	0.85
319.08	-8.15
319.212	12.85
319.344	26.85
319.477	21.85
319.609	15.85
319.741	19.85
319.873	0.85
320.005	2.85
320.137	18.85
320.269	17.85
320.401	10.85
320.534	5.85
320.666	-15.15
320.798	-14.15
320.93	2.85
321.062	-2.15
321.194	-16.15
321.326	15.85
321.458	21.85
321.59	14.85
321.722	0.85
321.854	10.85
321.986	1.85
322.118	-0.15
322.25	-17.15
322.382	10.85
322.514	-0.15
322.646	5.85
322.778	24.85
322.91	-10.15
323.042	11.85
323.174	-2.15
323.306	1.85
323.438	-22.15
323.57	15.85
323.702	16.85
323.834	-6.15
323.966	-8.15
324.097	8.85
324.229	36.85
324.361	2.85
324.493	-6.15
324.625	15.85
324.757	22.85
324.889	12.85
325.021	10.85
325.152	30.85
325.284	41.85
325.416	0.85
325.548	27.85
325.68	14.85
325.811	28.85
325.943	19.85
326.075	2.85
326.207	8.85
326.339	8.85
326.47	17.85
326.602	19.85
326.734	30.85
326.866	9.85
326.997	-9.15
327.129	-0.15
327.261	-10.15
327.392	22.85
327.524	-4.15
327.656	-0.15
327.787	8.85
327.919	-1.15
328.051	6.85
328.182	20.85
328.314	23.85
328.446	-0.15
328.577	18.85
328.709	11.85
328.841	-6.15
328.972	-23.15
329.104	-3.15
329.235	1.85
329.367	-6.15
329.499	11.85
329.63	25.85
329.762	7.85
329.893	8.85
330.025	25.85
330.156	-0.15
330.288	24.85
330.419	25.85
330.551	16.85
330.683	9.85
330.814	1.85
330.946	33.85
331.077	15.85
331.208	-1.15
331.34	10.85
331.471	6.85
331.603	1.85
331.734	-3.15
331.866	16.85
331.997	-0.15
332.129	2.85
332.26	12.85
332.392	23.85
332.523	26.85
332.654	-15.15
332.786	6.85
332.917	1.85
333.048	16.85
333.18	28.85
333.311	2.85
333.443	-2.15
333.574	-1.15
333.705	13.85
333.837	-24.15
333.968	12.85
334.099	21.85
334.231	20.85
334.362	-21.15
334.493	16.85
334.624	8.85
334.756	2.85
334.887	13.85
335.018	11.85
335.15	12.85
335.281	15.85
335.412	24.85
335.543	16.85
335.675	1.85
335.806	17.85
335.937	13.85
336.068	26.85
336.199	42.85
336.331	-0.15
336.462	3.85
336.593	22.85
336.724	8.85
336.855	6.85
336.986	26.85
337.118	19.85
337.249	9.85
337.38	14.85
337.511	-6.15
337.642	5.85
337.773	24.85
337.904	7.85
338.035	10.85
338.166	17.85
338.298	23.85
338.429	5.85
338.56	28.85
338.691	19.85
338.822	7.85
338.953	9.85
339.084	6.85
339.215	14.85
339.346	22.85
339.477	17.85
339.608	0.85
339.739	-0.15
339.87	1.85
340.001	13.85
340.132	17.85
340.263	5.85
340.394	19.85
340.525	8.85
340.656	-2.15
340.787	1.85
340.918	34.85
341.049	1.85
341.179	18.85
341.31	7.85
341.441	28.85
341.572	1.85
341.703	10.85
341.834	-14.15
341.965	12.85
342.096	7.85
342.227	25.85
342.357	10.85
342.488	25.85
342.619	22.85
342.75	11.85
342.881	-2.15
343.012	25.85
343.142	39.85
343.273	-9.15
343.404	18.85
343.535	26.85
343.666	17.85
343.796	13.85
343.927	11.85
344.058	24.85
344.189	14.85
344.319	-2.15
344.45	-1.15
344.581	6.85
344.712	-16.15
344.842	-8.15
344.973	-9.15
345.104	20.85
345.234	6.85
345.365	0.85
345.496	23.85
345.626	13.85
345.757	17.85
345.888	7.85
346.018	19.85
346.149	16.85
346.28	29.85
346.41	-0.15
346.541	4.85
346.672	4.85
346.802	16.85
346.933	28.85
347.063	19.85
347.194	7.85
347.325	14.85
347.455	27.85
347.586	11.85
347.716	12.85
347.847	30.85
347.977	28.85
348.108	19.85
348.238	16.85
348.369	20.85
348.499	21.85
348.63	6.85
348.76	8.85
348.891	11.85
349.021	27.85
349.152	-14.15
349.282	7.85
349.413	14.85
349.543	28.85
349.674	25.85
349.804	15.85
349.935	-4.15
350.065	-5.15
350.196	-0.15
350.326	0.85
350.456	-6.15
350.587	23.85
350.717	15.85
350.848	5.85
350.978	13.85
351.108	1.85
351.239	19.85
351.369	3.85
351.499	8.85
351.63	2.85
351.76	13.85
351.89	4.85
352.021	13.85
352.151	13.85
352.281	17.85
352.412	16.85
352.542	13.85
352.672	-0.15
352.803	5.85
352.933	23.85
353.063	23.85
353.193	1.85
353.324	10.85
353.454	29.85
353.584	34.85
353.714	14.85
353.845	14.85
353.975	-4.15
354.105	20.85
354.235	3.85
354.365	14.85
354.496	2.85
354.626	12.85
354.756	18.85
354.886	19.85
355.016	24.85
355.146	22.85
355.277	4.85
355.407	14.85
355.537	15.85
355.667	29.85
355.797	4.85
355.927	-1.15
356.057	1.85
356.187	2.85
356.318	-6.15
356.448	11.85
356.578	3.85
356.708	20.85
356.838	0.85
356.968	22.85
357.098	21.85
357.228	12.85
357.358	-3.15
357.488	13.85
357.618	33.85
357.748	15.85
357.878	9.85
358.008	-7.15
358.138	0.85
358.268	1.85
358.398	29.85
358.528	-1.15
358.658	16.85
358.788	14.85
358.918	21.85
359.048	7.85
359.178	6.85
359.308	29.85
359.438	32.85
359.568	27.85
359.698	16.85
359.827	5.85
359.957	20.85
360.087	14.85
360.217	7.85
360.347	9.85
360.477	18.85
360.607	-10.15
360.737	17.85
360.866	17.85
360.996	-6.15
361.126	5.85
361.256	25.85
361.386	26.85
361.516	16.85
361.645	0.85
361.775	22.85
361.905	-9.15
362.035	13.85
362.165	10.85
362.294	13.85
362.424	17.85
362.554	20.85
362.684	-0.15
362.813	16.85
362.943	4.85
363.073	-0.15
363.203	0.85
363.332	23.85
363.462	2.85
363.592	5.85
363.721	6.85
363.851	10.85
363.981	15.85
364.111	1.85
364.24	-7.15
364.37	10.85
364.5	36.85
364.629	11.85
364.759	-3.15
364.888	-1.15
365.018	13.85
365.148	2.85
365.277	22.85
365.407	-9.15
365.537	5.85
365.666	16.85
365.796	-5.15
365.925	-1.15
366.055	18.85
366.184	2.85
366.314	11.85
366.444	11.85
366.573	10.85
366.703	-0.15
366.832	16.85
366.962	31.85
367.091	24.85
367.221	13.85
367.35	15.85
367.48	39.85
367.609	16.85
367.739	13.85
367.868	-9.15
367.998	11.85
368.127	17.85
368.257	25.85
368.386	32.85
368.516	28.85
368.645	13.85
368.775	6.85
368.904	8.85
369.033	6.85
369.163	-1.15
369.292	14.85
369.422	10.85
369.551	25.85
369.68	17.85
369.81	13.85
369.939	-2.15
370.069	19.85
370.198	11.85
370.327	-6.15
370.457	7.85
370.586	2.85
370.715	-2.15
370.845	9.85
370.974	19.85
371.103	14.85
371.233	30.85
371.362	21.85
371.491	5.85
371.621	17.85
371.75	7.85
371.879	4.85
372.008	7.85
372.138	20.85
372.267	15.85
372.396	4.85
372.525	14.85
372.655	6.85
372.784	17.85
372.913	-0.15
373.042	29.85
373.172	6.85
373.301	1.85
373.43	9.85
373.559	6.85
373.688	18.85
373.818	20.85
373.947	10.85
374.076	1.85
374.205	20.85
374.334	-2.15
374.463	18.85
374.593	20.85
374.722	6.85
374.851	32.85
374.98	8.85
375.109	18.85
375.238	20.85
375.367	37.85
375.496	-12.15
375.625	-3.15
375.755	20.85
375.884	19.85
376.013	19.85
376.142	-5.15
376.271	6.85
376.4	30.85
376.529	26.85
376.658	24.85
376.787	-8.15
376.916	-5.15
377.045	1.85
377.174	12.85
377.303	3.85
377.432	25.85
377.561	26.85
377.69	17.85
377.819	24.85
377.948	13.85
378.077	-12.15
378.206	-10.15
378.335	1.85
378.464	15.85
378.593	15.85
378.722	8.85
378.851	21.85
378.98	22.85
379.108	7.85
379.237	17.85
379.366	23.85
379.495	21.85
379.624	22.85
379.753	26.85
379.882	1.85
380.011	-1.15
380.14	-0.15
380.268	-1.15
380.397	5.85
380.526	37.85
380.655	8.85
380.784	-11.15
380.913	-10.15
381.041	-1.15
381.17	-2.15
381.299	15.85
381.428	6.85
381.557	9.85
381.685	2.85
381.814	22.85
381.943	27.85
382.072	-1.15
382.2	3.85
382.329	19.85
382.458	10.85
382.587	20.85
382.715	40.85
382.844	26.85
382.973	14.85
383.102	2.85
383.23	7.85
383.359	-10.15
383.488	9.85
383.616	11.85
383.745	11.85
383.874	11.85
384.003	-11.15
384.131	-7.15
384.26	-3.15
384.389	3.85
384.517	-18.15
384.646	-14.15
384.774	-7.15
384.903	16.85
385.032	20.85
385.16	21.85
385.289	12.85
385.418	-7.15
385.546	20.85
385.675	29.85
385.803	5.85
385.932	31.85
386.06	6.85
386.189	-9.15
386.318	6.85
386.446	-7.15
386.575	17.85
386.703	20.85
386.832	7.85
386.96	-17.15
387.089	14.85
387.217	-0.15
387.346	0.85
387.474	23.85
387.603	15.85
387.731	16.85
387.86	27.85
387.988	14.85
388.117	28.85
388.245	13.85
388.374	17.85
388.502	12.85
388.631	-1.15
388.759	16.85
388.888	18.85
389.016	8.85
389.144	24.85
389.273	10.85
389.401	6.85
389.53	-4.15
389.658	16.85
389.786	-12.15
389.915	-17.15
390.043	-11.15
390.172	21.85
390.3	16.85
390.428	13.85
390.557	-7.15
390.685	18.85
390.813	-0.15
390.942	15.85
391.07	-12.15
391.198	5.85
391.327	9.85
391.455	-5.15
391.583	12.85
391.712	20.85
391.84	22.85
391.968	1.85
392.096	14.85
392.225	-6.15
392.353	10.85
392.481	8.85
392.609	16.85
392.738	19.85
392.866	-2.15
392.994	-5.15
393.122	24.85
393.251	-2.15
393.379	3.85
393.507	-11.15
393.635	15.85
393.764	6.85
393.892	27.85
394.02	7.85
394.148	-2.15
394.276	1.85
394.404	32.85
394.533	-1.15
394.661	12.85
394.789	21.85
394.917	8.85
395.045	0.85
395.173	-17.15
395.302	7.85
395.43	20.85
395.558	26.85
395.686	26.85
395.814	8.85
395.942	16.85
396.07	19.85
396.198	17.85
396.326	0.85
396.454	22.85
396.582	19.85
396.711	20.85
396.839	23.85
396.967	6.85
397.095	17.85
397.223	11.85
397.351	24.85
397.479	30.85
397.607	3.85
397.735	30.85
397.863	19.85
397.991	25.85
398.119	-3.15
398.247	5.85
398.375	2.85
398.503	12.85
398.631	26.85
398.759	20.85
398.887	15.85
399.015	5.85
399.143	-6.15
399.271	10.85
399.399	18.85
399.526	19.85
399.654	32.85
399.782	-19.15
399.91	15.85
400.038	3.85
400.166	1.85
400.294	8.85
400.422	4.85
400.55	19.85
400.678	3.85
400.805	-0.15
400.933	5.85
401.061	15.85
401.189	3.85
401.317	14.85
401.445	48.85
401.573	31.85
401.7	6.85
401.828	17.85
401.956	20.85
402.084	33.85
402.212	32.85
402.34	6.85
402.467	18.85
402.595	13.85
402.723	18.85
402.851	19.85
402.978	7.85
403.106	19.85
403.234	12.85
403.362	31.85
403.489	18.85
403.617	13.85
403.745	15.85
403.873	5.85
404	4.85
404.128	11.85
404.256	32.85
404.384	35.85
404.511	18.85
404.639	8.85
404.767	11.85
404.894	13.85
405.022	18.85
405.15	25.85
405.277	11.85
405.405	5.85
405.533	1.85
405.66	-5.15
405.788	8.85
405.916	-9.15
406.043	-18.15
406.171	5.85
406.299	10.85
406.426	21.85
406.554	31.85
406.681	28.85
406.809	34.85
406.937	8.85
407.064	-16.15
407.192	15.85
407.319	9.85
407.447	13.85
407.574	38.85
407.702	27.85
407.83	-4.15
407.957	-7.15
408.085	11.85
408.212	1.85
408.34	8.85
408.467	18.85
408.595	14.85
408.722	17.85
408.85	22.85
408.977	9.85
409.105	18.85
409.232	25.85
409.36	16.85
409.487	25.85
409.615	27.85
409.742	46.85
409.87	28.85
409.997	50.85
410.125	48.85
410.252	69.85
410.379	68.85
410.507	28.85
410.634	6.85
410.762	7.85
410.889	10.85
411.017	22.85
411.144	21.85
411.271	0.85
411.399	14.85
411.526	6.85
411.653	6.85
411.781	23.85
411.908	28.85
412.036	-15.15
412.163	44.85
412.29	21.85
412.418	3.85
412.545	28.85
412.672	0.85
412.8	50.85
412.927	32.85
413.054	32.85
413.182	27.85
413.309	8.85
413.436	11.85
413.564	-0.15
413.691	-0.15
413.818	32.85
413.945	0.85
414.073	-7.15
414.2	12.85
414.327	16.85
414.454	20.85
414.582	-0.15
414.709	9.85
414.836	2.85
414.963	4.85
415.091	20.85
415.218	16.85
415.345	16.85
415.472	9.85
415.6	-16.15
415.727	16.85
415.854	14.85
415.981	4.85
416.108	1.85
416.236	6.85
416.363	13.85
416.49	31.85
416.617	13.85
416.744	29.85
416.871	19.85
416.998	11.85
417.126	9.85
417.253	6.85
417.38	8.85
417.507	10.85
417.634	15.85
417.761	30.85
417.888	18.85
418.015	3.85
418.143	16.85
418.27	41.85
418.397	9.85
418.524	10.85
418.651	20.85
418.778	14.85
418.905	22.85
419.032	11.85
419.159	13.85
419.286	37.85
419.413	20.85
419.54	26.85
419.667	16.85
419.794	-4.15
419.921	20.85
420.048	-6.15
420.175	7.85
420.302	6.85
420.429	10.85
420.556	9.85
420.683	-7.15
420.81	22.85
420.937	20.85
421.064	6.85
421.191	24.85
421.318	23.85
421.445	24.85
421.572	0.85
421.699	28.85
421.826	17.85
421.953	9.85
422.08	20.85
422.207	1.85
422.334	-0.15
422.461	28.85
422.588	9.85
422.714	7.85
422.841	24.85
422.968	19.85
423.095	13.85
423.222	1.85
423.349	1.85
423.476	21.85
423.603	8.85
423.729	10.85
423.856	14.85
423.983	17.85
424.11	7.85
424.237	2.85
424.364	24.85
424.491	22.85
424.617	11.85
424.744	1.85
424.871	26.85
424.998	4.85
425.125	-10.15
425.251	-4.15
425.378	1.85
425.505	13.85
425.632	20.85
425.758	-4.15
425.885	23.85
426.012	36.85
426.139	27.85
426.266	20.85
426.392	19.85
426.519	24.85
426.646	16.85
426.772	14.85
426.899	2.85
427.026	9.85
427.153	12.85
427.279	17.85
427.406	7.85
427.533	2.85
427.659	0.85
427.786	2.85
427.913	21.85
428.039	25.85
428.166	6.85
428.293	6.85
428.419	18.85
428.546	11.85
428.673	1.85
428.799	12.85
428.926	21.85
429.053	32.85
429.179	21.85
429.306	5.85
429.433	20.85
429.559	39.85
429.686	17.85
429.812	9.85
429.939	5.85
430.066	15.85
430.192	7.85
430.319	22.85
430.445	15.85
430.572	-10.15
430.699	1.85
430.825	0.85
430.952	25.85
431.078	20.85
431.205	13.85
431.331	-5.15
431.458	5.85
431.584	23.85
431.711	18.85
431.837	2.85
431.964	24.85
432.09	16.85
432.217	1.85
432.343	-3.15
432.47	28.85
432.596	28.85
432.723	1.85
432.849	7.85
432.976	22.85
433.102	15.85
433.229	-0.15
433.355	50.85
433.482	87.85
433.608	177.85
433.735	145.85
433.861	126.85
433.987	170.85
434.114	239.85
434.24	215.85
434.367	69.85
434.493	21.85
434.62	30.85
434.746	35.85
434.872	14.85
434.999	12.85
435.125	9.85
435.252	-4.15
435.378	-3.15
435.504	13.85
435.631	34.85
435.757	0.85
435.883	10.85
436.01	8.85
436.136	-0.15
436.262	9.85
436.389	8.85
436.515	25.85
436.641	15.85
436.768	6.85
436.894	21.85
437.02	16.85
437.147	30.85
437.273	18.85
437.399	14.85
437.526	17.85
437.652	9.85
437.778	20.85
437.904	18.85
438.031	7.85
438.157	14.85
438.283	19.85
438.409	12.85
438.536	-1.15
438.662	10.85
438.788	2.85
438.914	13.85
439.041	36.85
439.167	38.85
439.293	6.85
439.419	22.85
439.546	32.85
439.672	21.85
439.798	7.85
439.924	16.85
440.05	15.85
440.177	32.85
440.303	13.85
440.429	1.85
440.555	18.85
440.681	5.85
440.807	26.85
440.934	5.85
441.06	6.85
441.186	-4.15
441.312	9.85
441.438	19.85
441.564	19.85
441.69	39.85
441.816	18.85
441.943	19.85
442.069	26.85
442.195	1.85
442.321	22.85
442.447	7.85
442.573	9.85
442.699	-1.15
442.825	-6.15
442.951	18.85
443.077	-1.15
443.203	29.85
443.33	-4.15
443.456	-10.15
443.582	19.85
443.708	8.85
443.834	26.85
443.96	-2.15
444.086	12.85
444.212	31.85
444.338	27.85
444.464	34.85
444.59	29.85
444.716	10.85
444.842	13.85
444.968	13.85
445.094	16.85
445.22	5.85
445.346	-0.15
445.472	19.85
445.598	3.85
445.724	9.85
445.85	2.85
445.976	17.85
446.102	9.85
446.228	23.85
446.354	18.85
446.48	2.85
446.605	22.85
446.731	16.85
446.857	14.85
446.983	21.85
447.109	14.85
447.235	12.85
447.361	-9.15
447.487	26.85
447.613	20.85
447.739	-0.15
447.865	-5.15
447.99	12.85
448.116	13.85
448.242	29.85
448.368	9.85
448.494	5.85
448.62	11.85
448.746	16.85
448.872	16.85
448.997	11.85
449.123	20.85
449.249	24.85
449.375	20.85
449.501	-11.15
449.627	-5.15
449.752	38.85
449.878	-13.15
450.004	16.85
450.13	25.85
450.256	5.85
450.381	8.85
450.507	29.85
450.633	8.85
450.759	35.85
450.884	17.85
451.01	27.85
451.136	9.85
451.262	28.85
451.388	-9.15
451.513	-17.15
451.639	12.85
451.765	27.85
451.89	27.85
452.016	16.85
452.142	1.85
452.268	23.85
452.393	14.85
452.519	19.85
452.645	17.85
452.771	6.85
452.896	1.85
453.022	-0.15
453.148	28.85
453.273	8.85
453.399	12.85
453.525	-0.15
453.65	13.85
453.776	10.85
453.902	17.85
454.027	16.85
454.153	16.85
454.279	27.85
454.404	5.85
454.53	22.85
454.656	26.85
454.781	2.85
454.907	5.85
455.032	15.85
455.158	35.85
455.284	41.85
455.409	22.85
455.535	19.85
455.66	34.85
455.786	28.85
455.912	8.85
456.037	-2.15
456.163	1.85
456.288	30.85
456.414	-11.15
456.539	5.85
456.665	17.85
456.791	14.85
456.916	22.85
457.042	21.85
457.167	-3.15
457.293	22.85
457.418	12.85
457.544	19.85
457.669	23.85
457.795	12.85
457.92	22.85
458.046	19.85
458.171	21.85
458.297	8.85
458.422	1.85
458.548	9.85
458.673	20.85
458.799	7.85
458.924	-10.15
459.05	33.85
459.175	33.85
459.301	10.85
459.426	24.85
459.552	13.85
459.677	2.85
459.803	25.85
459.928	7.85
460.053	-1.15
460.179	14.85
460.304	22.85
460.43	13.85
460.555	18.85
460.681	23.85
460.806	14.85
460.931	21.85
461.057	17.85
461.182	5.85
461.308	27.85
461.433	17.85
461.558	11.85
461.684	24.85
461.809	12.85
461.934	14.85
462.06	33.85
462.185	6.85
462.311	20.85
462.436	28.85
462.561	9.85
462.687	11.85
462.812	11.85
462.937	24.85
463.063	2.85
463.188	0.85
463.313	27.85
463.439	7.85
463.564	-0.15
463.689	24.85
463.814	21.85
463.94	14.85
464.065	24.85
464.19	23.85
464.316	-2.15
464.441	2.85
464.566	-7.15
464.692	8.85
464.817	14.85
464.942	2.85
465.067	20.85
465.193	-10.15
465.318	-3.15
465.443	14.85
465.568	4.85
465.694	-1.15
465.819	29.85
465.944	26.85
466.069	12.85
466.194	9.85
466.32	9.85
466.445	1.85
466.57	6.85
466.695	23.85
466.82	21.85
466.946	34.85
467.071	-7.15
467.196	19.85
467.321	15.85
467.446	18.85
467.572	11.85
467.697	1.85
467.822	19.85
467.947	16.85
468.072	8.85
468.197	-2.15
468.323	-9.15
468.448	-12.15
468.573	10.85
468.698	13.85
468.823	10.85
468.948	21.85
469.073	2.85
469.198	13.85
469.324	48.85
469.449	11.85
469.574	16.85
469.699	21.85
469.824	17.85
469.949	4.85
470.074	20.85
470.199	52.85
470.324	38.85
470.449	27.85
470.574	15.85
470.7	8.85
470.825	18.85
470.95	28.85
471.075	6.85
471.2	7.85
471.325	46.85
471.45	18.85
471.575	14.85
471.7	13.85
471.825	0.85
471.95	11.85
472.075	18.85
472.2	20.85
472.325	22.85
472.45	9.85
472.575	1.85
472.7	26.85
472.825	18.85
472.95	17.85
473.075	10.85
473.2	-2.15
473.325	5.85
473.45	3.85
473.575	11.85
473.7	27.85
473.825	25.85
473.95	13.85
474.075	40.85
474.2	19.85
474.325	12.85
474.45	20.85
474.574	16.85
474.699	18.85
474.824	23.85
474.949	17.85
475.074	7.85
475.199	20.85
475.324	21.85
475.449	-5.15
475.574	13.85
475.699	22.85
475.824	18.85
475.949	8.85
476.073	-2.15
476.198	2.85
476.323	24.85
476.448	34.85
476.573	12.85
476.698	32.85
476.823	21.85
476.947	13.85
477.072	22.85
477.197	23.85
477.322	23.85
477.447	25.85
477.572	27.85
477.697	-3.15
477.821	-0.15
477.946	22.85
478.071	8.85
478.196	40.85
478.321	31.85
478.445	19.85
478.57	13.85
478.695	-3.15
478.82	8.85
478.945	32.85
479.069	17.85
479.194	19.85
479.319	43.85
479.444	25.85
479.569	16.85
479.693	19.85
479.818	2.85
479.943	24.85
480.068	25.85
480.192	40.85
480.317	22.85
480.442	7.85
480.567	13.85
480.691	25.85
480.816	8.85
480.941	0.85
481.066	15.85
481.19	15.85
481.315	39.85
481.44	35.85
481.564	11.85
481.689	40.85
481.814	41.85
481.938	26.85
482.063	7.85
482.188	6.85
482.313	38.85
482.437	32.85
482.562	31.85
482.687	27.85
482.811	19.85
482.936	28.85
483.061	54.85
483.185	29.85
483.31	34.85
483.435	21.85
483.559	20.85
483.684	30.85
483.808	26.85
483.933	25.85
484.058	17.85
484.182	10.85
484.307	31.85
484.432	39.85
484.556	30.85
484.681	27.85
484.805	27.85
484.93	40.85
485.055	40.85
485.179	89.85
485.304	130.85
485.428	361.85
485.553	1338.85
485.678	1799.85
485.802	1625.85
485.927	1862.85
486.051	2757.85
486.176	1713.85
486.3	496.85
486.425	182.85
486.549	102.85
486.674	71.85
486.799	69.85
486.923	30.85
487.048	28.85
487.172	27.85
487.297	27.85
487.421	45.85
487.546	29.85
487.67	18.85
487.795	21.85
487.919	14.85
488.044	34.85
488.168	22.85
488.293	39.85
488.417	9.85
488.542	52.85
488.666	42.85
488.791	34.85
488.915	15.85
489.04	34.85
489.164	29.85
489.289	30.85
489.413	0.85
489.538	16.85
489.662	15.85
489.786	22.85
489.911	26.85
490.035	8.85
490.16	2.85
490.284	22.85
490.409	-0.15
490.533	22.85
490.658	51.85
490.782	14.85
490.906	24.85
491.031	27.85
491.155	30.85
491.28	29.85
491.404	25.85
491.528	16.85
491.653	12.85
491.777	32.85
491.902	6.85
492.026	19.85
492.15	23.85
492.275	42.85
492.399	14.85
492.524	13.85
492.648	22.85
492.772	21.85
492.897	30.85
493.021	30.85
493.145	33.85
493.27	26.85
493.394	18.85
493.518	2.85
493.643	2.85
493.767	23.85
493.891	26.85
494.016	30.85
494.14	25.85
494.264	24.85
494.389	42.85
494.513	18.85
494.637	5.85
494.762	40.85
494.886	37.85
495.01	30.85
495.134	21.85
495.259	24.85
495.383	30.85
495.507	14.85
495.632	28.85
495.756	44.85
495.88	33.85
496.004	7.85
496.129	4.85
496.253	24.85
496.377	18.85
496.501	33.85
496.626	13.85
496.75	29.85
496.874	13.85
496.998	16.85
497.123	37.85
497.247	6.85
497.371	32.85
497.495	16.85
497.62	14.85
497.744	6.85
497.868	1.85
497.992	8.85
498.116	25.85
498.241	25.85
498.365	-3.15
498.489	-1.15
498.613	29.85
498.737	20.85
498.862	18.85
498.986	-4.15
499.11	15.85
499.234	28.85
499.358	19.85
499.482	11.85
499.607	5.85
499.731	20.85
499.855	22.85
499.979	21.85
500.103	24.85
500.227	13.85
500.351	15.85
500.476	19.85
500.6	14.85
500.724	8.85
500.848	18.85
500.972	15.85
501.096	21.85
501.22	41.85
501.344	2.85
501.469	6.85
501.593	26.85
501.717	20.85
501.841	18.85
501.965	8.85
502.089	7.85
502.213	19.85
502.337	24.85
502.461	21.85
502.585	5.85
502.709	3.85
502.834	-1.15
502.958	5.85
503.082	16.85
503.206	22.85
503.33	56.85
503.454	9.85
503.578	29.85
503.702	23.85
503.826	18.85
503.95	32.85
504.074	20.85
504.198	16.85
504.322	6.85
504.446	2.85
504.57	42.85
504.694	50.85
504.818	18.85
504.942	19.85
505.066	16.85
505.19	14.85
505.314	18.85
505.438	28.85
505.562	25.85
505.686	36.85
505.81	15.85
505.934	24.85
506.058	2.85
506.182	33.85
506.306	36.85
506.43	7.85
506.554	8.85
506.678	-4.15
506.802	10.85
506.926	11.85
507.05	21.85
507.174	26.85
507.298	36.85
507.422	25.85
507.546	38.85
507.67	44.85
507.794	15.85
507.918	12.85
508.042	20.85
508.165	17.85
508.289	1.85
508.413	4.85
508.537	15.85
508.661	39.85
508.785	12.85
508.909	12.85
509.033	12.85
509.157	26.85
509.281	26.85
509.405	15.85
509.528	27.85
509.652	26.85
509.776	18.85
509.9	46.85
510.024	13.85
510.148	31.85
510.272	24.85
510.396	18.85
510.519	0.85
510.643	46.85
510.767	32.85
510.891	22.85
511.015	14.85
511.139	24.85
511.263	28.85
511.386	11.85
511.51	20.85
511.634	6.85
511.758	23.85
511.882	-6.15
512.006	11.85
512.129	10.85
512.253	39.85
512.377	31.85
512.501	17.85
512.625	14.85
512.748	0.85
512.872	12.85
512.996	21.85
513.12	21.85
513.244	14.85
513.367	7.85
513.491	18.85
513.615	35.85
513.739	17.85
513.862	5.85
513.986	19.85
514.11	28.85
514.234	18.85
514.358	47.85
514.481	27.85
514.605	-1.15
514.729	22.85
514.853	29.85
514.976	8.85
515.1	9.85
515.224	23.85
515.348	20.85
515.471	21.85
515.595	21.85
515.719	5.85
515.842	33.85
515.966	14.85
516.09	22.85
516.214	9.85
516.337	36.85
516.461	13.85
516.585	9.85
516.708	34.85
516.832	25.85
516.956	20.85
517.08	32.85
517.203	12.85
517.327	33.85
517.451	38.85
517.574	62.85
517.698	33.85
517.822	27.85
517.945	26.85
518.069	39.85
518.193	52.85
518.316	38.85
518.44	24.85
518.564	17.85
518.687	16.85
518.811	37.85
518.935	62.85
519.058	24.85
519.182	41.85
519.306	54.85
519.429	26.85
519.553	64.85
519.676	35.85
519.8	18.85
519.924	24.85
520.047	28.85
520.171	10.85
520.294	18.85
520.418	17.85
520.542	28.85
520.665	38.85
520.789	1.85
520.913	-0.15
521.036	-14.15
521.16	26.85
521.283	15.85
521.407	31.85
521.53	3.85
521.654	-8.15
521.778	22.85
521.901	27.85
522.025	21.85
522.148	4.85
522.272	10.85
522.395	5.85
522.519	34.85
522.643	20.85
522.766	16.85
522.89	23.85
523.013	26.85
523.137	3.85
523.26	11.85
523.384	28.85
523.507	14.85
523.631	8.85
523.754	5.85
523.878	5.85
524.002	22.85
524.125	8.85
524.249	-10.15
524.372	11.85
524.496	20.85
524.619	26.85
524.743	26.85
524.866	22.85
524.99	4.85
525.113	-15.15
525.237	30.85
525.36	8.85
525.484	29.85
525.607	-8.15
525.731	-3.15
525.854	30.85
525.978	31.85
526.101	6.85
526.224	15.85
526.348	11.85
526.471	16.85
526.595	34.85
526.718	4.85
526.842	-7.15
526.965	21.85
527.089	7.85
527.212	0.85
527.336	16.85
527.459	28.85
527.582	13.85
527.706	22.85
527.829	31.85
527.953	10.85
528.076	-9.15
528.2	6.85
528.323	25.85
528.446	23.85
528.57	14.85
528.693	34.85
528.817	12.85
528.94	24.85
529.064	44.85
529.187	18.85
529.31	10.85
529.434	-3.15
529.557	-3.15
529.68	11.85
529.804	4.85
529.927	13.85
530.051	18.85
530.174	6.85
530.297	6.85
530.421	23.85
530.544	43.85
530.668	8.85
530.791	-1.15
530.914	24.85
531.038	15.85
531.161	5.85
531.284	12.85
531.408	8.85
531.531	7.85
531.654	9.85
531.778	6.85
531.901	2.85
532.024	34.85
532.148	24.85
532.271	20.85
532.394	7.85
532.518	39.85
532.641	23.85
532.764	54.85
532.888	18.85
533.011	6.85
533.134	6.85
533.258	16.85
533.381	2.85
533.504	1.85
533.628	10.85
533.751	10.85
533.874	21.85
533.997	15.85
534.121	16.85
534.244	6.85
534.367	9.85
534.491	15.85
534.614	22.85
534.737	15.85
534.86	33.85
534.984	8.85
535.107	10.85
535.23	26.85
535.354	23.85
535.477	6.85
535.6	8.85
535.723	21.85
535.847	30.85
535.97	-0.15
536.093	37.85
536.216	12.85
536.34	34.85
536.463	30.85
536.586	27.85
536.709	27.85
536.833	13.85
536.956	6.85
537.079	12.85
537.202	29.85
537.325	18.85
537.449	1.85
537.572	24.85
537.695	8.85
537.818	19.85
537.941	18.85
538.065	16.85
538.188	0.85
538.311	41.85
538.434	24.85
538.558	14.85
538.681	30.85
538.804	28.85
538.927	18.85
539.05	27.85
539.173	16.85
539.297	5.85
539.42	2.85
539.543	12.85
539.666	29.85
539.789	26.85
539.913	3.85
540.036	13.85
540.159	12.85
540.282	5.85
540.405	-1.15
540.528	5.85
540.651	15.85
540.775	16.85
540.898	2.85
541.021	6.85
541.144	34.85
541.267	21.85
541.39	20.85
541.513	20.85
541.637	28.85
541.76	15.85
541.883	24.85
542.006	21.85
542.129	24.85
542.252	9.85
542.375	25.85
542.498	22.85
542.622	26.85
542.745	10.85
542.868	25.85
542.991	30.85
543.114	27.85
543.237	29.85
543.36	26.85
543.483	23.85
543.606	25.85
543.73	22.85
543.853	26.85
543.976	2.85
544.099	9.85
544.222	30.85
544.345	2.85
544.468	10.85
544.591	4.85
544.714	21.85
544.837	34.85
544.96	16.85
545.083	20.85
545.206	21.85
545.329	26.85
545.453	23.85
545.576	31.85
545.699	22.85
545.822	13.85
545.945	22.85
546.068	18.85
546.191	17.85
546.314	13.85
546.437	34.85
546.56	29.85
546.683	7.85
546.806	17.85
546.929	17.85
547.052	20.85
547.175	24.85
547.298	18.85
547.421	-8.15
547.544	15.85
547.667	30.85
547.79	17.85
547.913	5.85
548.036	5.85
548.159	14.85
548.282	14.85
548.405	-5.15
548.528	23.85
548.651	17.85
548.774	18.85
548.897	27.85
549.02	32.85
549.143	26.85
549.266	2.85
549.389	37.85
549.512	16.85
549.635	47.85
549.758	30.85
549.881	-0.15
550.004	-1.15
550.127	-3.15
550.25	6.85
550.373	-3.15
550.496	22.85
550.619	21.85
550.742	18.85
550.865	-7.15
550.988	7.85
551.111	24.85
551.234	28.85
551.356	-3.15
551.479	7.85
551.602	8.85
551.725	27.85
551.848	26.85
551.971	27.85
552.094	17.85
552.217	4.85
552.34	1.85
552.463	-15.15
552.586	11.85
552.709	12.85
552.832	-2.15
552.955	10.85
553.077	18.85
553.2	32.85
553.323	4.85
553.446	8.85
553.569	7.85
553.692	12.85
553.815	9.85
553.938	15.85
554.061	23.85
554.184	-8.15
554.306	13.85
554.429	21.85
554.552	16.85
554.675	4.85
554.798	8.85
554.921	28.85
555.044	29.85
555.167	12.85
555.29	22.85
555.412	10.85
555.535	21.85
555.658	11.85
555.781	19.85
555.904	21.85
556.027	30.85
556.15	17.85
556.272	10.85
556.395	5.85
556.518	-1.15
556.641	6.85
556.764	32.85
556.887	9.85
557.01	2.85
557.132	-1.15
557.255	6.85
557.378	39.85
557.501	10.85
557.624	19.85
557.747	37.85
557.869	40.85
557.992	35.85
558.115	21.85
558.238	-0.15
558.361	17.85
558.483	28.85
558.606	21.85
558.729	4.85
558.852	33.85
558.975	32.85
559.098	22.85
559.22	18.85
559.343	7.85
559.466	13.85
559.589	11.85
559.712	27.85
559.834	20.85
559.957	-6.15
560.08	9.85
560.203	17.85
560.325	40.85
560.448	30.85
560.571	9.85
560.694	0.85
560.817	18.85
560.939	20.85
561.062	3.85
561.185	30.85
561.308	19.85
561.43	13.85
561.553	8.85
561.676	13.85
561.799	23.85
561.921	20.85
562.044	4.85
562.167	-6.15
562.29	20.85
562.413	29.85
562.535	29.85
562.658	8.85
562.781	1.85
562.903	10.85
563.026	19.85
563.149	25.85
563.272	22.85
563.394	13.85
563.517	27.85
563.64	16.85
563.763	18.85
563.885	11.85
564.008	28.85
564.131	27.85
564.254	19.85
564.376	15.85
564.499	5.85
564.622	13.85
564.744	7.85
564.867	22.85
564.99	2.85
565.113	8.85
565.235	17.85
565.358	4.85
565.481	4.85
565.603	-2.15
565.726	4.85
565.849	13.85
565.971	13.85
566.094	-14.15
566.217	2.85
566.34	24.85
566.462	8.85
566.585	17.85
566.708	22.85
566.83	12.85
566.953	23.85
567.076	18.85
567.198	11.85
567.321	10.85
567.444	24.85
567.566	10.85
567.689	22.85
567.812	23.85
567.934	4.85
568.057	25.85
568.18	24.85
568.302	24.85
568.425	10.85
568.548	18.85
568.67	22.85
568.793	27.85
568.916	9.85
569.038	14.85
569.161	23.85
569.283	29.85
569.406	20.85
569.529	0.85
569.651	2.85
569.774	17.85
569.897	9.85
570.019	25.85
570.142	24.85
570.265	23.85
570.387	21.85
570.51	20.85
570.632	19.85
570.755	11.85
570.878	22.85
571	23.85
571.123	15.85
571.246	38.85
571.368	15.85
571.491	12.85
571.613	-2.15
571.736	2.85
571.859	-3.15
571.981	11.85
572.104	-3.15
572.226	-0.15
572.349	9.85
572.472	-6.15
572.594	1.85
572.717	12.85
572.839	14.85
572.962	14.85
573.085	25.85
573.207	30.85
573.33	9.85
573.452	28.85
573.575	20.85
573.697	20.85
573.82	15.85
573.943	0.85
574.065	10.85
574.188	18.85
574.31	28.85
574.433	20.85
574.555	44.85
574.678	16.85
574.801	35.85
574.923	5.85
575.046	9.85
575.168	-5.15
575.291	5.85
575.413	5.85
575.536	14.85
575.659	21.85
575.781	15.85
575.904	2.85
576.026	24.85
576.149	18.85
576.271	28.85
576.394	24.85
576.516	10.85
576.639	10.85
576.761	-9.15
576.884	-1.15
577.007	13.85
577.129	17.85
577.252	-4.15
577.374	29.85
577.497	10.85
577.619	26.85
577.742	14.85
577.864	25.85
577.987	20.85
578.109	23.85
578.232	7.85
578.354	8.85
578.477	-6.15
578.599	16.85
578.722	15.85
578.844	17.85
578.967	33.85
579.089	8.85
579.212	-11.15
579.334	25.85
579.457	9.85
579.579	23.85
579.702	18.85
579.824	16.85
579.947	-10.15
580.069	-11.15
580.192	10.85
580.314	43.85
580.437	14.85
580.559	38.85
580.682	33.85
580.804	16.85
580.927	22.85
581.049	39.85
581.172	22.85
581.294	8.85
581.417	15.85
581.539	30.85
581.662	23.85
581.784	16.85
581.907	11.85
582.029	24.85
582.152	-5.15
582.274	9.85
582.396	11.85
582.519	6.85
582.641	9.85
582.764	12.85
582.886	28.85
583.009	23.85
583.131	20.85
583.254	-13.15
583.376	31.85
583.499	34.85
583.621	36.85
583.743	30.85
583.866	34.85
583.988	23.85
584.111	30.85
584.233	21.85
584.356	24.85
584.478	18.85
584.601	1.85
584.723	17.85
584.845	26.85
584.968	5.85
585.09	8.85
585.213	23.85
585.335	4.85
585.458	10.85
585.58	15.85
585.702	17.85
585.825	29.85
585.947	14.85
586.07	6.85
586.192	-0.15
586.315	26.85
586.437	6.85
586.559	9.85
586.682	3.85
586.804	17.85
586.927	12.85
587.049	25.85
587.171	40.85
587.294	37.85
587.416	37.85
587.539	4.85
587.661	0.85
587.783	10.85
587.906	7.85
588.028	14.85
588.151	23.85
588.273	18.85
588.395	20.85
588.518	20.85
588.64	22.85
588.763	26.85
588.885	28.85
589.007	27.85
589.13	10.85
589.252	2.85
589.375	6.85
589.497	5.85
589.619	30.85
589.742	7.85
589.864	25.85
589.986	15.85
590.109	-7.15
590.231	15.85
590.354	17.85
590.476	-3.15
590.598	-4.15
590.721	4.85
590.843	4.85
590.965	7.85
591.088	-2.15
591.21	6.85
591.332	9.85
591.455	5.85
591.577	8.85
591.7	18.85
591.822	22.85
591.944	18.85
592.067	9.85
592.189	9.85
592.311	35.85
592.434	24.85
592.556	21.85
592.678	17.85
592.801	16.85
592.923	-5.15
593.045	6.85
593.168	24.85
593.29	5.85
593.412	33.85
593.535	13.85
593.657	-3.15
593.779	-5.15
593.902	22.85
594.024	26.85
594.146	23.85
594.269	25.85
594.391	-17.15
594.513	25.85
594.636	7.85
594.758	-5.15
594.88	10.85
595.003	21.85
595.125	20.85
595.247	19.85
595.37	20.85
595.492	-7.15
595.614	13.85
595.737	13.85
595.859	17.85
595.981	32.85
596.104	18.85
596.226	16.85
596.348	-0.15
596.471	9.85
596.593	19.85
596.715	-3.15
596.838	8.85
596.96	-2.15
597.082	23.85
597.204	30.85
597.327	10.85
597.449	4.85
597.571	15.85
597.694	31.85
597.816	16.85
597.938	18.85
598.061	18.85
598.183	17.85
598.305	26.85
598.427	24.85
598.55	8.85
598.672	17.85
598.794	3.85
598.917	4.85
599.039	13.85
599.161	17.85
599.283	-0.15
599.406	11.85
599.528	35.85
599.65	39.85
599.773	11.85
599.895	56.85
600.017	34.85
600.139	15.85
600.262	4.85
600.384	15.85
600.506	25.85
600.628	27.85
600.751	33.85
600.873	13.85
600.995	17.85
601.118	30.85
601.24	4.85
601.362	28.85
601.484	36.85
601.607	11.85
601.729	8.85
601.851	22.85
601.973	32.85
602.096	37.85
602.218	18.85
602.34	21.85
602.462	18.85
602.585	21.85
602.707	-7.15
602.829	26.85
602.951	6.85
603.074	4.85
603.196	22.85
603.318	-9.15
603.44	12.85
603.563	9.85
603.685	2.85
603.807	19.85
603.929	18.85
604.052	27.85
604.174	29.85
604.296	14.85
604.418	28.85
604.541	39.85
604.663	19.85
604.785	22.85
604.907	5.85
605.03	8.85
605.152	36.85
605.274	7.85
605.396	18.85
605.519	22.85
605.641	18.85
605.763	17.85
605.885	17.85
606.008	26.85
606.13	13.85
606.252	22.85
606.374	-5.15
606.496	12.85
606.619	11.85
606.741	20.85
606.863	44.85
606.985	25.85
607.108	8.85
607.23	15.85
607.352	26.85
607.474	16.85
607.596	6.85
607.719	12.85
607.841	26.85
607.963	11.85
608.085	12.85
608.207	56.85
608.33	10.85
608.452	21.85
608.574	24.85
608.696	21.85
608.819	8.85
608.941	23.85
609.063	12.85
609.185	16.85
609.307	22.85
609.43	32.85
609.552	9.85
609.674	5.85
609.796	24.85
609.918	23.85
610.041	12.85
610.163	11.85
610.285	17.85
610.407	16.85
610.529	6.85
610.652	25.85
610.774	23.85
610.896	12.85
611.018	22.85
611.14	24.85
611.263	6.85
611.385	17.85
611.507	22.85
611.629	-7.15
611.751	16.85
611.873	47.85
611.996	20.85
612.118	32.85
612.24	11.85
612.362	19.85
612.484	21.85
612.607	2.85
612.729	25.85
612.851	27.85
612.973	8.85
613.095	3.85
613.218	25.85
613.34	21.85
613.462	8.85
613.584	11.85
613.706	12.85
613.828	35.85
613.951	9.85
614.073	12.85
614.195	1.85
614.317	23.85
614.439	24.85
614.561	22.85
614.684	23.85
614.806	19.85
614.928	13.85
615.05	7.85
615.172	43.85
615.294	41.85
615.417	15.85
615.539	10.85
615.661	14.85
615.783	43.85
615.905	36.85
616.027	66.85
616.15	98.85
616.272	78.85
616.394	66.85
616.516	40.85
616.638	38.85
616.76	24.85
616.883	25.85
617.005	25.85
617.127	9.85
617.249	25.85
617.371	38.85
617.493	22.85
617.615	26.85
617.738	13.85
617.86	18.85
617.982	16.85
618.104	18.85
618.226	0.85
618.348	2.85
618.471	34.85
618.593	29.85
618.715	1.85
618.837	0.85
618.959	18.85
619.081	27.85
619.203	20.85
619.326	15.85
619.448	18.85
619.57	11.85
619.692	17.85
619.814	10.85
619.936	29.85
620.058	27.85
620.181	28.85
620.303	25.85
620.425	26.85
620.547	8.85
620.669	16.85
620.791	13.85
620.913	6.85
621.036	-3.15
621.158	17.85
621.28	22.85
621.402	-3.15
621.524	18.85
621.646	13.85
621.768	8.85
621.891	-3.15
622.013	28.85
622.135	4.85
622.257	9.85
622.379	-3.15
622.501	17.85
622.623	7.85
622.745	20.85
622.868	13.85
622.99	5.85
623.112	4.85
623.234	12.85
623.356	18.85
623.478	4.85
623.6	24.85
623.722	2.85
623.845	13.85
623.967	18.85
624.089	7.85
624.211	27.85
624.333	27.85
624.455	25.85
624.577	14.85
624.699	21.85
624.822	6.85
624.944	12.85
625.066	16.85
625.188	12.85
625.31	12.85
625.432	13.85
625.554	10.85
625.676	32.85
625.799	11.85
625.921	0.85
626.043	9.85
626.165	8.85
626.287	-8.15
626.409	22.85
626.531	10.85
626.653	32.85
626.775	23.85
626.898	20.85
627.02	9.85
627.142	32.85
627.264	27.85
627.386	3.85
627.508	20.85
627.63	24.85
627.752	14.85
627.874	15.85
627.997	22.85
628.119	19.85
628.241	39.85
628.363	23.85
628.485	25.85
628.607	19.85
628.729	2.85
628.851	6.85
628.973	4.85
629.096	-8.15
629.218	8.85
629.34	25.85
629.462	10.85
629.584	4.85
629.706	-1.15
629.828	36.85
629.95	12.85
630.072	-10.15
630.195	20.85
630.317	22.85
630.439	14.85
630.561	22.85
630.683	12.85
630.805	23.85
630.927	33.85
631.049	20.85
631.171	10.85
631.293	15.85
631.416	14.85
631.538	3.85
631.66	2.85
631.782	11.85
631.904	11.85
632.026	-2.15
632.148	12.85
632.27	19.85
632.392	20.85
632.514	13.85
632.637	17.85
632.759	6.85
632.881	4.85
633.003	-5.15
633.125	8.85
633.247	15.85
633.369	14.85
633.491	5.85
633.613	24.85
633.735	11.85
633.858	9.85
633.98	-1.15
634.102	0.85
634.224	-6.15
634.346	4.85
634.468	12.85
634.59	18.85
634.712	30.85
634.834	21.85
634.956	-1.15
635.078	-1.15
635.201	-4.15
635.323	25.85
635.445	14.85
635.567	-4.15
635.689	16.85
635.811	14.85
635.933	0.85
636.055	21.85
636.177	11.85
636.299	23.85
636.421	1.85
636.544	-22.15
636.666	25.85
636.788	11.85
636.91	15.85
637.032	24.85
637.154	28.85
637.276	47.85
637.398	35.85
637.52	21.85
637.642	5.85
637.764	37.85
637.887	17.85
638.009	9.85
638.131	-4.15
638.253	-3.15
638.375	8.85
638.497	13.85
638.619	4.85
638.741	22.85
638.863	4.85
638.985	11.85
639.107	12.85
639.23	22.85
639.352	47.85
639.474	13.85
639.596	12.85
639.718	1.85
639.84	9.85
639.962	3.85
640.084	27.85
640.206	39.85
640.328	14.85
640.45	18.85
640.573	22.85
640.695	13.85
640.817	17.85
640.939	26.85
641.061	16.85
641.183	-1.15
641.305	0.85
641.427	1.85
641.549	21.85
641.671	18.85
641.793	13.85
641.915	29.85
642.038	13.85
642.16	6.85
642.282	-1.15
642.404	-2.15
642.526	19.85
642.648	13.85
642.77	4.85
642.892	-10.15
643.014	36.85
643.136	29.85
643.258	6.85
643.381	30.85
643.503	32.85
643.625	23.85
643.747	10.85
643.869	11.85
643.991	13.85
644.113	22.85
644.235	12.85
644.357	4.85
644.479	6.85
644.601	12.85
644.723	13.85
644.846	17.85
644.968	26.85
645.09	24.85
645.212	4.85
645.334	25.85
645.456	35.85
645.578	32.85
645.7	5.85
645.822	28.85
645.944	17.85
646.066	20.85
646.188	14.85
646.311	38.85
646.433	16.85
646.555	55.85
646.677	38.85
646.799	39.85
646.921	33.85
647.043	50.85
647.165	11.85
647.287	16.85
647.409	0.85
647.531	33.85
647.654	6.85
647.776	16.85
647.898	16.85
648.02	28.85
648.142	14.85
648.264	17.85
648.386	13.85
648.508	1.85
648.63	6.85
648.752	21.85
648.874	23.85
648.997	19.85
649.119	27.85
649.241	27.85
649.363	23.85
649.485	34.85
649.607	9.85
649.729	-5.15
649.851	9.85
649.973	30.85
650.095	12.85
650.217	5.85
650.34	-5.15
650.462	17.85
650.584	16.85
650.706	16.85
650.828	19.85
650.95	5.85
651.072	12.85
651.194	-5.15
651.316	24.85
651.438	21.85
651.56	4.85
651.683	11.85
651.805	21.85
651.927	4.85
652.049	4.85
652.171	17.85
652.293	16.85
652.415	6.85
652.537	7.85
652.659	14.85
652.781	10.85
652.903	5.85
653.026	33.85
653.148	24.85
653.27	22.85
653.392	21.85
653.514	20.85
653.636	28.85
653.758	7.85
653.88	7.85
654.002	5.85
654.124	10.85
654.247	14.85
654.369	39.85
654.491	35.85
654.613	23.85
654.735	13.85
654.857	30.85
654.979	29.85
655.101	30.85
655.223	42.85
655.345	36.85
655.468	27.85
655.59	32.85
655.712	36.85
655.834	30.85
655.956	40.85
656.078	16.85
656.2	41.85
656.322	38.85
656.444	24.85
656.566	60.85
656.689	46.85
656.811	66.85
656.933	104.85
657.055	111.85
657.177	170.85
657.299	265.85
657.421	520.85
657.543	1986.85
657.665	12782.85
657.787	15211.85
657.91	15382.85
658.032	15667.85
658.154	4764.85
658.276	4820.85
658.398	1425.85
658.52	1114.85
658.642	531.85
658.764	646.85
658.886	304.85
659.009	440.85
659.131	247.85
659.253	332.85
659.375	172.85
659.497	274.85
659.619	164.85
659.741	230.85
659.863	110.85
659.985	168.85
660.108	116.85
660.23	163.85
660.352	98.85
660.474	158.85
660.596	91.85
660.718	140.85
660.84	74.85
660.962	134.85
661.084	69.85
661.207	114.85
661.329	72.85
661.451	98.85
661.573	57.85
661.695	84.85
661.817	70.85
661.939	113.85
662.061	73.85
662.184	101.85
662.306	52.85
662.428	82.85
662.55	52.85
662.672	77.85
662.794	46.85
662.916	85.85
663.038	56.85
663.161	99.85
663.283	65.85
663.405	79.85
663.527	53.85
663.649	69.85
663.771	31.85
663.893	82.85
664.015	39.85
664.138	57.85
664.26	37.85
664.382	59.85
664.504	20.85
664.626	52.85
664.748	19.85
664.87	36.85
664.992	40.85
665.115	62.85
665.237	40.85
665.359	43.85
665.481	20.85
665.603	36.85
665.725	20.85
665.847	29.85
665.97	24.85
666.092	57.85
666.214	40.85
666.336	38.85
666.458	19.85
666.58	40.85
666.702	15.85
666.825	38.85
666.947	10.85
667.069	32.85
667.191	17.85
667.313	36.85
667.435	16.85
667.557	31.85
667.68	17.85
667.802	44.85
667.924	10.85
668.046	27.85
668.168	23.85
668.29	52.85
668.412	29.85
668.535	36.85
668.657	22.85
668.779	40.85
668.901	31.85
669.023	47.85
669.145	17.85
669.267	49.85
669.39	27.85
669.512	28.85
669.634	11.85
669.756	29.85
669.878	31.85
670	34.85
670.123	6.85
670.245	48.85
670.367	29.85
670.489	32.85
670.611	10.85
670.733	8.85
670.856	25.85
670.978	30.85
671.1	19.85
671.222	22.85
671.344	6.85
671.466	21.85
671.589	21.85
671.711	18.85
671.833	-1.15
671.955	29.85
672.077	18.85
672.199	34.85
672.322	31.85
672.444	22.85
672.566	30.85
672.688	28.85
672.81	21.85
672.932	45.85
673.055	25.85
673.177	12.85
673.299	7.85
673.421	28.85
673.543	7.85
673.665	53.85
673.788	24.85
673.91	18.85
674.032	3.85
674.154	19.85
674.276	25.85
674.399	9.85
674.521	29.85
674.643	38.85
674.765	9.85
674.887	24.85
675.009	8.85
675.132	11.85
675.254	8.85
675.376	17.85
675.498	4.85
675.62	46.85
675.743	19.85
675.865	35.85
675.987	-3.15
676.109	18.85
676.231	22.85
676.354	39.85
676.476	10.85
676.598	40.85
676.72	-1.15
676.842	20.85
676.965	5.85
677.087	17.85
677.209	11.85
677.331	28.85
677.453	24.85
677.576	24.85
677.698	22.85
677.82	25.85
677.942	-16.15
678.064	21.85
678.187	34.85
678.309	17.85
678.431	1.85
678.553	7.85
678.675	38.85
678.798	26.85
678.92	21.85
679.042	18.85
679.164	7.85
679.286	21.85
679.409	2.85
679.531	2.85
679.653	1.85
679.775	1.85
679.898	-5.15
680.02	7.85
680.142	-0.15
680.264	22.85
680.386	-3.15
680.509	24.85
680.631	19.85
680.753	19.85
680.875	0.85
680.998	18.85
681.12	27.85
681.242	31.85
681.364	0.85
681.486	30.85
681.609	-12.15
681.731	3.85
681.853	6.85
681.975	15.85
682.098	22.85
682.22	40.85
682.342	6.85
682.464	39.85
682.587	8.85
682.709	4.85
682.831	1.85
682.953	15.85
683.076	16.85
683.198	22.85
683.32	16.85
683.442	26.85
683.565	37.85
683.687	21.85
683.809	9.85
683.931	5.85
684.054	11.85
684.176	28.85
684.298	13.85
684.42	16.85
684.543	8.85
684.665	15.85
684.787	13.85
684.909	8.85
685.032	20.85
685.154	5.85
685.276	16.85
685.398	9.85
685.521	5.85
685.643	13.85
685.765	4.85
685.887	39.85
686.01	16.85
686.132	1.85
686.254	15.85
686.377	14.85
686.499	27.85
686.621	45.85
686.743	27.85
686.866	14.85
686.988	26.85
687.11	32.85
687.232	12.85
687.355	-6.15
687.477	7.85
687.599	44.85
687.722	-4.15
687.844	21.85
687.966	23.85
688.088	11.85
688.211	33.85
688.333	10.85
688.455	20.85
688.578	34.85
688.7	13.85
688.822	21.85
688.944	-9.15
689.067	63.85
689.189	4.85
689.311	25.85
689.434	14.85
689.556	24.85
689.678	21.85
689.801	20.85
689.923	12.85
690.045	26.85
690.167	31.85
690.29	26.85
690.412	14.85
690.534	25.85
690.657	19.85
690.779	21.85
690.901	26.85
691.024	13.85
691.146	8.85
691.268	15.85
691.391	12.85
691.513	20.85
691.635	23.85
691.758	39.85
691.88	28.85
692.002	21.85
692.125	7.85
692.247	18.85
692.369	11.85
692.492	0.85
692.614	9.85
692.736	6.85
692.859	-1.15
692.981	15.85
693.103	6.85
693.226	22.85
693.348	17.85
693.47	15.85
693.593	13.85
693.715	7.85
693.837	16.85
693.96	8.85
694.082	-13.15
694.204	37.85
694.327	15.85
694.449	-2.15
694.571	6.85
694.694	28.85
694.816	9.85
694.938	9.85
695.061	2.85
695.183	20.85
695.305	8.85
695.428	23.85
695.55	6.85
695.672	16.85
695.795	25.85
695.917	18.85
696.04	18.85
696.162	7.85
696.284	13.85
696.407	5.85
696.529	7.85
696.651	35.85
696.774	3.85
696.896	31.85
697.019	0.85
697.141	21.85
697.263	17.85
697.386	4.85
697.508	-0.15
697.63	18.85
697.753	10.85
697.875	-0.15
697.998	5.85
698.12	20.85
698.242	6.85
698.365	5.85
698.487	14.85
698.61	20.85
698.732	19.85
698.854	27.85
698.977	17.85
699.099	21.85
699.221	10.85
699.344	8.85
699.466	10.85
699.589	21.85
699.711	8.85
699.834	18.85
699.956	20.85
700.078	12.85
700.201	16.85
700.323	30.85
700.446	16.85
700.568	-5.15
700.69	18.85
700.813	17.85
700.935	9.85
701.058	6.85
701.18	11.85
701.302	19.85
701.425	-6.15
701.547	25.85
701.67	-1.15
701.792	12.85
701.915	12.85
702.037	-1.15
702.159	12.85
702.282	29.85
702.404	9.85
702.527	18.85
702.649	31.85
702.772	25.85
702.894	7.85
703.017	17.85
703.139	24.85
703.261	31.85
703.384	16.85
703.506	5.85
703.629	8.85
703.751	30.85
703.874	12.85
703.996	6.85
704.119	10.85
704.241	24.85
704.364	12.85
704.486	22.85
704.608	17.85
704.731	-2.15
704.853	16.85
704.976	19.85
705.098	26.85
705.221	22.85
705.343	10.85
705.466	20.85
705.588	21.85
705.711	25.85
705.833	19.85
705.956	12.85
706.078	12.85
706.201	6.85
706.323	11.85
706.446	-0.15
