Data from LowRes_H2_15_26_11_07_2024_HR4C61881__83__15-28-21-936.txt Node

Date: Thu Nov 07 15:28:21 EST 2024
User: crc00042
Spectrometer: HR4C6188
Trigger mode: 4
Integration Time (sec): 1.000000E-1
Scans to average: 1
Electric dark correction enabled: true
Nonlinearity correction enabled: false
Boxcar width: 0
XAxis mode: Wavelengths
Number of Pixels in Spectrum: 3648
>>>>>Begin Spectral Data<<<<<
245.66	-115.38
245.797	-115.38
245.934	-115.38
246.071	-89.38
246.208	-1.38
246.344	11.62
246.481	8.62
246.618	6.62
246.755	6.62
246.892	-10.38
247.029	-14.38
247.165	-13.38
247.302	2.62
247.439	-1.38
247.576	5.62
247.713	-0.38
247.849	16.62
247.986	-18.38
248.123	3.62
248.26	-8.38
248.396	2.62
248.533	21.62
248.67	-8.38
248.806	16.62
248.943	-1.38
249.08	-3.38
249.216	10.62
249.353	-20.38
249.49	0.62
249.626	16.62
249.763	-5.38
249.9	-15.38
250.036	3.62
250.173	4.62
250.309	11.62
250.446	0.62
250.582	6.62
250.719	-4.38
250.856	15.62
250.992	0.62
251.129	-5.38
251.265	-8.38
251.402	-6.38
251.538	-9.38
251.675	-30.38
251.811	4.62
251.948	10.62
252.084	2.62
252.221	-2.38
252.357	-6.38
252.493	22.62
252.63	10.62
252.766	11.62
252.903	0.62
253.039	-2.38
253.175	5.62
253.312	4.62
253.448	-18.38
253.585	-9.38
253.721	13.62
253.857	-8.38
253.994	4.62
254.13	11.62
254.266	-8.38
254.403	-6.38
254.539	-3.38
254.675	5.62
254.811	10.62
254.948	2.62
255.084	-17.38
255.22	-12.38
255.356	10.62
255.493	-2.38
255.629	7.62
255.765	-2.38
255.901	6.62
256.037	20.62
256.174	9.62
256.31	-25.38
256.446	4.62
256.582	0.62
256.718	-0.38
256.854	16.62
256.991	18.62
257.127	35.62
257.263	21.62
257.399	7.62
257.535	-0.38
257.671	-13.38
257.807	-26.38
257.943	-7.38
258.079	15.62
258.215	-4.38
258.351	8.62
258.487	1.62
258.623	23.62
258.759	-14.38
258.895	18.62
259.031	1.62
259.167	-6.38
259.303	13.62
259.439	-7.38
259.575	-16.38
259.711	5.62
259.847	2.62
259.983	11.62
260.119	-6.38
260.255	-17.38
260.391	0.62
260.527	17.62
260.663	8.62
260.799	23.62
260.934	5.62
261.07	3.62
261.206	-6.38
261.342	-12.38
261.478	24.62
261.614	11.62
261.749	-1.38
261.885	4.62
262.021	-17.38
262.157	14.62
262.293	-10.38
262.428	7.62
262.564	2.62
262.7	8.62
262.836	1.62
262.971	5.62
263.107	21.62
263.243	26.62
263.378	15.62
263.514	-30.38
263.65	-16.38
263.785	-15.38
263.921	-15.38
264.057	0.62
264.192	8.62
264.328	24.62
264.464	0.62
264.599	0.62
264.735	-0.38
264.871	-1.38
265.006	7.62
265.142	12.62
265.277	7.62
265.413	8.62
265.548	11.62
265.684	20.62
265.819	6.62
265.955	-0.38
266.091	-17.38
266.226	1.62
266.362	0.62
266.497	4.62
266.633	-0.38
266.768	-4.38
266.903	-9.38
267.039	8.62
267.174	34.62
267.31	-1.38
267.445	3.62
267.581	-15.38
267.716	9.62
267.851	6.62
267.987	-0.38
268.122	10.62
268.258	-14.38
268.393	-2.38
268.528	11.62
268.664	-7.38
268.799	-12.38
268.934	5.62
269.07	2.62
269.205	12.62
269.34	28.62
269.476	9.62
269.611	-21.38
269.746	4.62
269.881	-4.38
270.017	12.62
270.152	18.62
270.287	-1.38
270.422	3.62
270.558	-22.38
270.693	10.62
270.828	-0.38
270.963	-3.38
271.098	4.62
271.234	-10.38
271.369	25.62
271.504	11.62
271.639	0.62
271.774	4.62
271.909	1.62
272.045	-21.38
272.18	-24.38
272.315	1.62
272.45	3.62
272.585	-10.38
272.72	-10.38
272.855	6.62
272.99	2.62
273.125	-21.38
273.26	-23.38
273.395	-4.38
273.53	10.62
273.665	16.62
273.8	16.62
273.935	5.62
274.07	13.62
274.205	21.62
274.34	2.62
274.475	1.62
274.61	27.62
274.745	-0.38
274.88	26.62
275.015	-23.38
275.15	-5.38
275.285	30.62
275.42	-0.38
275.555	33.62
275.69	9.62
275.825	-15.38
275.959	-0.38
276.094	0.62
276.229	-2.38
276.364	-24.38
276.499	1.62
276.634	2.62
276.768	-4.38
276.903	-1.38
277.038	0.62
277.173	13.62
277.308	-13.38
277.442	-1.38
277.577	-4.38
277.712	8.62
277.847	-9.38
277.981	4.62
278.116	-23.38
278.251	7.62
278.386	6.62
278.52	1.62
278.655	-16.38
278.79	-7.38
278.924	7.62
279.059	14.62
279.194	-20.38
279.328	49.62
279.463	22.62
279.598	21.62
279.732	22.62
279.867	-3.38
280.001	7.62
280.136	2.62
280.271	-0.38
280.405	10.62
280.54	7.62
280.674	-22.38
280.809	10.62
280.943	-0.38
281.078	2.62
281.213	7.62
281.347	21.62
281.482	-4.38
281.616	-15.38
281.751	-14.38
281.885	-29.38
282.02	0.62
282.154	4.62
282.288	-21.38
282.423	7.62
282.557	-3.38
282.692	13.62
282.826	4.62
282.961	30.62
283.095	-14.38
283.229	-2.38
283.364	-6.38
283.498	-8.38
283.633	2.62
283.767	3.62
283.901	4.62
284.036	-1.38
284.17	-20.38
284.304	-11.38
284.439	0.62
284.573	-2.38
284.707	1.62
284.842	1.62
284.976	-26.38
285.11	-6.38
285.244	9.62
285.379	31.62
285.513	-25.38
285.647	-8.38
285.781	0.62
285.916	8.62
286.05	-0.38
286.184	13.62
286.318	1.62
286.453	-14.38
286.587	-22.38
286.721	-9.38
286.855	9.62
286.989	-2.38
287.123	-7.38
287.258	-5.38
287.392	-5.38
287.526	4.62
287.66	-4.38
287.794	-12.38
287.928	-10.38
288.062	3.62
288.196	6.62
288.33	19.62
288.464	26.62
288.598	19.62
288.733	-2.38
288.867	11.62
289.001	26.62
289.135	16.62
289.269	-13.38
289.403	6.62
289.537	-13.38
289.671	-6.38
289.805	-15.38
289.939	2.62
290.073	-16.38
290.207	6.62
290.34	-8.38
290.474	12.62
290.608	17.62
290.742	-4.38
290.876	-3.38
291.01	-1.38
291.144	24.62
291.278	25.62
291.412	0.62
291.546	5.62
291.679	-0.38
291.813	9.62
291.947	9.62
292.081	-3.38
292.215	-10.38
292.349	-5.38
292.482	11.62
292.616	2.62
292.75	10.62
292.884	4.62
293.018	-0.38
293.151	-21.38
293.285	7.62
293.419	-9.38
293.553	0.62
293.686	-8.38
293.82	-8.38
293.954	22.62
294.088	24.62
294.221	-14.38
294.355	-19.38
294.489	-2.38
294.622	-8.38
294.756	1.62
294.89	-3.38
295.023	-0.38
295.157	12.62
295.291	10.62
295.424	23.62
295.558	-6.38
295.691	17.62
295.825	2.62
295.959	-4.38
296.092	-16.38
296.226	12.62
296.359	14.62
296.493	9.62
296.627	7.62
296.76	12.62
296.894	-14.38
297.027	3.62
297.161	8.62
297.294	-17.38
297.428	6.62
297.561	5.62
297.695	-8.38
297.828	-10.38
297.962	-9.38
298.095	-14.38
298.229	9.62
298.362	5.62
298.495	-5.38
298.629	-4.38
298.762	5.62
298.896	9.62
299.029	-16.38
299.162	4.62
299.296	4.62
299.429	-5.38
299.563	9.62
299.696	15.62
299.829	9.62
299.963	18.62
300.096	13.62
300.229	-9.38
300.363	5.62
300.496	-1.38
300.629	-16.38
300.763	-17.38
300.896	11.62
301.029	16.62
301.162	19.62
301.296	-13.38
301.429	1.62
301.562	-36.38
301.695	0.62
301.829	-6.38
301.962	6.62
302.095	-2.38
302.228	-14.38
302.362	0.62
302.495	-15.38
302.628	3.62
302.761	-5.38
302.894	-2.38
303.027	7.62
303.161	0.62
303.294	-6.38
303.427	4.62
303.56	6.62
303.693	-10.38
303.826	1.62
303.959	-13.38
304.092	-6.38
304.225	-10.38
304.359	13.62
304.492	4.62
304.625	-5.38
304.758	11.62
304.891	-14.38
305.024	-3.38
305.157	-3.38
305.29	-7.38
305.423	-8.38
305.556	5.62
305.689	11.62
305.822	-20.38
305.955	-3.38
306.088	-17.38
306.221	9.62
306.354	0.62
306.487	-11.38
306.62	-1.38
306.752	-14.38
306.885	4.62
307.018	6.62
307.151	2.62
307.284	10.62
307.417	-18.38
307.55	-8.38
307.683	-16.38
307.816	29.62
307.948	8.62
308.081	3.62
308.214	2.62
308.347	26.62
308.48	-5.38
308.613	-6.38
308.745	-1.38
308.878	-13.38
309.011	-9.38
309.144	-4.38
309.277	-7.38
309.409	-0.38
309.542	-8.38
309.675	-2.38
309.808	-3.38
309.94	20.62
310.073	-8.38
310.206	-4.38
310.339	11.62
310.471	-8.38
310.604	31.62
310.737	-2.38
310.869	1.62
311.002	2.62
311.135	-6.38
311.267	-30.38
311.4	-4.38
311.533	31.62
311.665	1.62
311.798	10.62
311.93	-7.38
312.063	12.62
312.196	-1.38
312.328	-2.38
312.461	10.62
312.593	7.62
312.726	9.62
312.859	2.62
312.991	22.62
313.124	-26.38
313.256	4.62
313.389	23.62
313.521	-9.38
313.654	-9.38
313.786	-6.38
313.919	-2.38
314.051	-14.38
314.184	2.62
314.316	11.62
314.449	-5.38
314.581	-4.38
314.714	10.62
314.846	9.62
314.978	-9.38
315.111	2.62
315.243	14.62
315.376	-0.38
315.508	-5.38
315.641	1.62
315.773	24.62
315.905	13.62
316.038	-11.38
316.17	-12.38
316.302	9.62
316.435	9.62
316.567	11.62
316.699	9.62
316.832	-13.38
316.964	-6.38
317.096	-2.38
317.229	-19.38
317.361	-14.38
317.493	-1.38
317.625	-0.38
317.758	10.62
317.89	21.62
318.022	-15.38
318.155	-15.38
318.287	8.62
318.419	19.62
318.551	-0.38
318.683	-1.38
318.816	5.62
318.948	-15.38
319.08	-14.38
319.212	11.62
319.344	20.62
319.477	-5.38
319.609	10.62
319.741	19.62
319.873	3.62
320.005	-1.38
320.137	-5.38
320.269	-0.38
320.401	-15.38
320.534	-1.38
320.666	-23.38
320.798	-22.38
320.93	-14.38
321.062	-22.38
321.194	4.62
321.326	-5.38
321.458	12.62
321.59	9.62
321.722	-7.38
321.854	-5.38
321.986	-7.38
322.118	1.62
322.25	-8.38
322.382	6.62
322.514	-7.38
322.646	-20.38
322.778	25.62
322.91	-3.38
323.042	-10.38
323.174	-4.38
323.306	1.62
323.438	-9.38
323.57	2.62
323.702	-0.38
323.834	-5.38
323.966	-24.38
324.097	-5.38
324.229	-1.38
324.361	10.62
324.493	7.62
324.625	-15.38
324.757	-1.38
324.889	-14.38
325.021	16.62
325.152	28.62
325.284	22.62
325.416	-10.38
325.548	4.62
325.68	1.62
325.811	17.62
325.943	7.62
326.075	-13.38
326.207	-10.38
326.339	3.62
326.47	8.62
326.602	22.62
326.734	7.62
326.866	16.62
326.997	-15.38
327.129	-5.38
327.261	-7.38
327.392	-1.38
327.524	3.62
327.656	-1.38
327.787	11.62
327.919	-2.38
328.051	14.62
328.182	10.62
328.314	21.62
328.446	-5.38
328.577	15.62
328.709	19.62
328.841	-23.38
328.972	-7.38
329.104	10.62
329.235	-7.38
329.367	1.62
329.499	3.62
329.63	13.62
329.762	-4.38
329.893	6.62
330.025	-2.38
330.156	-18.38
330.288	16.62
330.419	28.62
330.551	-4.38
330.683	6.62
330.814	4.62
330.946	14.62
331.077	-18.38
331.208	-7.38
331.34	11.62
331.471	-8.38
331.603	9.62
331.734	-20.38
331.866	6.62
331.997	6.62
332.129	-7.38
332.26	-13.38
332.392	26.62
332.523	23.62
332.654	-18.38
332.786	6.62
332.917	-9.38
333.048	15.62
333.18	24.62
333.311	-1.38
333.443	-1.38
333.574	-17.38
333.705	1.62
333.837	-26.38
333.968	-14.38
334.099	14.62
334.231	8.62
334.362	8.62
334.493	-0.38
334.624	9.62
334.756	-5.38
334.887	3.62
335.018	13.62
335.15	18.62
335.281	0.62
335.412	17.62
335.543	2.62
335.675	-12.38
335.806	-4.38
335.937	-10.38
336.068	14.62
336.199	29.62
336.331	2.62
336.462	-17.38
336.593	13.62
336.724	1.62
336.855	3.62
336.986	12.62
337.118	0.62
337.249	-4.38
337.38	-2.38
337.511	10.62
337.642	17.62
337.773	11.62
337.904	11.62
338.035	5.62
338.166	-5.38
338.298	2.62
338.429	-15.38
338.56	-13.38
338.691	23.62
338.822	13.62
338.953	-1.38
339.084	23.62
339.215	16.62
339.346	-12.38
339.477	-7.38
339.608	-4.38
339.739	4.62
339.87	10.62
340.001	1.62
340.132	0.62
340.263	-7.38
340.394	5.62
340.525	8.62
340.656	-4.38
340.787	-22.38
340.918	13.62
341.049	7.62
341.179	-1.38
341.31	5.62
341.441	17.62
341.572	-0.38
341.703	-4.38
341.834	-0.38
341.965	11.62
342.096	1.62
342.227	-5.38
342.357	-5.38
342.488	3.62
342.619	6.62
342.75	12.62
342.881	-15.38
343.012	7.62
343.142	34.62
343.273	-6.38
343.404	1.62
343.535	38.62
343.666	21.62
343.796	17.62
343.927	10.62
344.058	27.62
344.189	-1.38
344.319	7.62
344.45	-4.38
344.581	-6.38
344.712	-14.38
344.842	3.62
344.973	12.62
345.104	18.62
345.234	-11.38
345.365	-27.38
345.496	1.62
345.626	25.62
345.757	22.62
345.888	-6.38
346.018	23.62
346.149	6.62
346.28	20.62
346.41	-5.38
346.541	24.62
346.672	-15.38
346.802	11.62
346.933	8.62
347.063	-2.38
347.194	-11.38
347.325	-0.38
347.455	12.62
347.586	1.62
347.716	-6.38
347.847	13.62
347.977	11.62
348.108	14.62
348.238	5.62
348.369	-0.38
348.499	10.62
348.63	7.62
348.76	5.62
348.891	4.62
349.021	-4.38
349.152	-0.38
349.282	3.62
349.413	-16.38
349.543	14.62
349.674	4.62
349.804	4.62
349.935	-7.38
350.065	-7.38
350.196	-8.38
350.326	8.62
350.456	-18.38
350.587	21.62
350.717	22.62
350.848	9.62
350.978	-1.38
351.108	-3.38
351.239	15.62
351.369	5.62
351.499	4.62
351.63	6.62
351.76	-6.38
351.89	9.62
352.021	-5.38
352.151	4.62
352.281	2.62
352.412	14.62
352.542	28.62
352.672	7.62
352.803	-0.38
352.933	5.62
353.063	-0.38
353.193	1.62
353.324	9.62
353.454	16.62
353.584	26.62
353.714	1.62
353.845	-8.38
353.975	-26.38
354.105	-1.38
354.235	6.62
354.365	8.62
354.496	2.62
354.626	4.62
354.756	18.62
354.886	8.62
355.016	-9.38
355.146	-5.38
355.277	8.62
355.407	3.62
355.537	7.62
355.667	-4.38
355.797	3.62
355.927	-12.38
356.057	-3.38
356.187	-8.38
356.318	-0.38
356.448	-9.38
356.578	-20.38
356.708	19.62
356.838	17.62
356.968	-3.38
357.098	3.62
357.228	-2.38
357.358	-17.38
357.488	2.62
357.618	22.62
357.748	11.62
357.878	-9.38
358.008	-4.38
358.138	3.62
358.268	-8.38
358.398	28.62
358.528	-12.38
358.658	-11.38
358.788	4.62
358.918	15.62
359.048	10.62
359.178	1.62
359.308	11.62
359.438	22.62
359.568	-0.38
359.698	11.62
359.827	-6.38
359.957	2.62
360.087	19.62
360.217	-14.38
360.347	3.62
360.477	26.62
360.607	-25.38
360.737	0.62
360.866	-7.38
360.996	-12.38
361.126	-9.38
361.256	29.62
361.386	20.62
361.516	11.62
361.645	-12.38
361.775	17.62
361.905	-1.38
362.035	15.62
362.165	17.62
362.294	16.62
362.424	16.62
362.554	8.62
362.684	-5.38
362.813	-10.38
362.943	12.62
363.073	-1.38
363.203	-7.38
363.332	-3.38
363.462	-15.38
363.592	-14.38
363.721	-0.38
363.851	9.62
363.981	2.62
364.111	5.62
364.24	3.62
364.37	9.62
364.5	8.62
364.629	17.62
364.759	-13.38
364.888	-13.38
365.018	3.62
365.148	6.62
365.277	23.62
365.407	10.62
365.537	19.62
365.666	5.62
365.796	18.62
365.925	5.62
366.055	11.62
366.184	-2.38
366.314	-6.38
366.444	5.62
366.573	-0.38
366.703	-2.38
366.832	23.62
366.962	8.62
367.091	18.62
367.221	4.62
367.35	-4.38
367.48	21.62
367.609	-0.38
367.739	13.62
367.868	-6.38
367.998	4.62
368.127	17.62
368.257	21.62
368.386	17.62
368.516	18.62
368.645	14.62
368.775	13.62
368.904	11.62
369.033	-21.38
369.163	-27.38
369.292	9.62
369.422	8.62
369.551	4.62
369.68	13.62
369.81	10.62
369.939	1.62
370.069	36.62
370.198	20.62
370.327	-12.38
370.457	-5.38
370.586	19.62
370.715	-2.38
370.845	-6.38
370.974	8.62
371.103	32.62
371.233	15.62
371.362	22.62
371.491	1.62
371.621	7.62
371.75	4.62
371.879	-10.38
372.008	0.62
372.138	-17.38
372.267	-2.38
372.396	-18.38
372.525	-17.38
372.655	-5.38
372.784	5.62
372.913	9.62
373.042	-0.38
373.172	11.62
373.301	-0.38
373.43	-18.38
373.559	7.62
373.688	21.62
373.818	9.62
373.947	19.62
374.076	3.62
374.205	8.62
374.334	-7.38
374.463	-4.38
374.593	6.62
374.722	-6.38
374.851	6.62
374.98	-7.38
375.109	14.62
375.238	20.62
375.367	37.62
375.496	-17.38
375.625	-20.38
375.755	26.62
375.884	23.62
376.013	14.62
376.142	-14.38
376.271	4.62
376.4	0.62
376.529	3.62
376.658	-2.38
376.787	-0.38
376.916	20.62
377.045	-5.38
377.174	4.62
377.303	-14.38
377.432	26.62
377.561	18.62
377.69	5.62
377.819	18.62
377.948	12.62
378.077	-9.38
378.206	-2.38
378.335	-7.38
378.464	-0.38
378.593	11.62
378.722	-4.38
378.851	1.62
378.98	16.62
379.108	-6.38
379.237	-10.38
379.366	11.62
379.495	32.62
379.624	1.62
379.753	3.62
379.882	-8.38
380.011	-1.38
380.14	-7.38
380.268	9.62
380.397	-6.38
380.526	16.62
380.655	5.62
380.784	-9.38
380.913	-12.38
381.041	-8.38
381.17	-18.38
381.299	2.62
381.428	17.62
381.557	2.62
381.685	23.62
381.814	23.62
381.943	-9.38
382.072	-9.38
382.2	-14.38
382.329	-7.38
382.458	9.62
382.587	16.62
382.715	-9.38
382.844	5.62
382.973	9.62
383.102	-2.38
383.23	-3.38
383.359	-8.38
383.488	-6.38
383.616	-9.38
383.745	-11.38
383.874	14.62
384.003	0.62
384.131	9.62
384.26	16.62
384.389	8.62
384.517	-2.38
384.646	-19.38
384.774	11.62
384.903	31.62
385.032	2.62
385.16	10.62
385.289	-8.38
385.418	6.62
385.546	4.62
385.675	8.62
385.803	15.62
385.932	6.62
386.06	-8.38
386.189	13.62
386.318	-0.38
386.446	1.62
386.575	14.62
386.703	7.62
386.832	-12.38
386.96	-18.38
387.089	15.62
387.217	-5.38
387.346	-25.38
387.474	-11.38
387.603	14.62
387.731	7.62
387.86	1.62
387.988	-7.38
388.117	21.62
388.245	9.62
388.374	-7.38
388.502	16.62
388.631	-15.38
388.759	12.62
388.888	-1.38
389.016	0.62
389.144	-0.38
389.273	5.62
389.401	-18.38
389.53	-18.38
389.658	-3.38
389.786	-10.38
389.915	-7.38
390.043	-11.38
390.172	11.62
390.3	30.62
390.428	8.62
390.557	-13.38
390.685	11.62
390.813	1.62
390.942	13.62
391.07	-6.38
391.198	-11.38
391.327	-9.38
391.455	-19.38
391.583	12.62
391.712	7.62
391.84	8.62
391.968	-15.38
392.096	20.62
392.225	-1.38
392.353	15.62
392.481	-7.38
392.609	17.62
392.738	-11.38
392.866	15.62
392.994	0.62
393.122	26.62
393.251	-2.38
393.379	-7.38
393.507	-0.38
393.635	8.62
393.764	15.62
393.892	2.62
394.02	-14.38
394.148	9.62
394.276	16.62
394.404	18.62
394.533	-21.38
394.661	12.62
394.789	12.62
394.917	40.62
395.045	-8.38
395.173	-17.38
395.302	-1.38
395.43	3.62
395.558	14.62
395.686	29.62
395.814	34.62
395.942	9.62
396.07	16.62
396.198	7.62
396.326	14.62
396.454	1.62
396.582	5.62
396.711	-1.38
396.839	14.62
396.967	9.62
397.095	-4.38
397.223	15.62
397.351	9.62
397.479	19.62
397.607	-13.38
397.735	22.62
397.863	19.62
397.991	26.62
398.119	-0.38
398.247	-7.38
398.375	0.62
398.503	-2.38
398.631	14.62
398.759	5.62
398.887	-1.38
399.015	-8.38
399.143	-6.38
399.271	11.62
399.399	20.62
399.526	5.62
399.654	22.62
399.782	6.62
399.91	30.62
400.038	19.62
400.166	-1.38
400.294	0.62
400.422	-5.38
400.55	1.62
400.678	7.62
400.805	-15.38
400.933	-6.38
401.061	12.62
401.189	-1.38
401.317	11.62
401.445	11.62
401.573	9.62
401.7	-6.38
401.828	-9.38
401.956	2.62
402.084	29.62
402.212	26.62
402.34	-0.38
402.467	-8.38
402.595	12.62
402.723	4.62
402.851	18.62
402.978	4.62
403.106	12.62
403.234	29.62
403.362	27.62
403.489	20.62
403.617	6.62
403.745	19.62
403.873	3.62
404	-1.38
404.128	4.62
404.256	3.62
404.384	26.62
404.511	26.62
404.639	-6.38
404.767	6.62
404.894	13.62
405.022	6.62
405.15	14.62
405.277	-5.38
405.405	-3.38
405.533	-9.38
405.66	-8.38
405.788	-21.38
405.916	-16.38
406.043	-5.38
406.171	-6.38
406.299	20.62
406.426	-1.38
406.554	12.62
406.681	17.62
406.809	7.62
406.937	5.62
407.064	-8.38
407.192	12.62
407.319	7.62
407.447	3.62
407.574	32.62
407.702	-3.38
407.83	-13.38
407.957	-11.38
408.085	3.62
408.212	-1.38
408.34	-7.38
408.467	-15.38
408.595	10.62
408.722	25.62
408.85	14.62
408.977	-0.38
409.105	4.62
409.232	17.62
409.36	4.62
409.487	2.62
409.615	22.62
409.742	27.62
409.87	18.62
409.997	23.62
410.125	33.62
410.252	42.62
410.379	35.62
410.507	29.62
410.634	-13.38
410.762	-13.38
410.889	23.62
411.017	-6.38
411.144	20.62
411.271	-11.38
411.399	-7.38
411.526	4.62
411.653	21.62
411.781	24.62
411.908	15.62
412.036	3.62
412.163	7.62
412.29	13.62
412.418	-5.38
412.545	3.62
412.672	-12.38
412.8	29.62
412.927	16.62
413.054	19.62
413.182	34.62
413.309	2.62
413.436	-8.38
413.564	5.62
413.691	-4.38
413.818	16.62
413.945	-34.38
414.073	5.62
414.2	16.62
414.327	18.62
414.454	16.62
414.582	4.62
414.709	-27.38
414.836	-8.38
414.963	0.62
415.091	-1.38
415.218	-8.38
415.345	-0.38
415.472	9.62
415.6	11.62
415.727	6.62
415.854	-4.38
415.981	-6.38
416.108	-11.38
416.236	-9.38
416.363	17.62
416.49	1.62
416.617	-13.38
416.744	14.62
416.871	11.62
416.998	-8.38
417.126	2.62
417.253	-2.38
417.38	-4.38
417.507	1.62
417.634	-1.38
417.761	9.62
417.888	14.62
418.015	-6.38
418.143	15.62
418.27	30.62
418.397	11.62
418.524	7.62
418.651	31.62
418.778	28.62
418.905	25.62
419.032	27.62
419.159	16.62
419.286	31.62
419.413	18.62
419.54	16.62
419.667	-2.38
419.794	-8.38
419.921	-2.38
420.048	15.62
420.175	8.62
420.302	-10.38
420.429	13.62
420.556	-5.38
420.683	-6.38
420.81	-8.38
420.937	4.62
421.064	36.62
421.191	10.62
421.318	11.62
421.445	33.62
421.572	-4.38
421.699	13.62
421.826	10.62
421.953	-8.38
422.08	-7.38
422.207	-23.38
422.334	-0.38
422.461	1.62
422.588	-10.38
422.714	11.62
422.841	13.62
422.968	11.62
423.095	16.62
423.222	0.62
423.349	7.62
423.476	33.62
423.603	-7.38
423.729	-15.38
423.856	11.62
423.983	23.62
424.11	15.62
424.237	-10.38
424.364	21.62
424.491	-3.38
424.617	-19.38
424.744	-8.38
424.871	6.62
424.998	18.62
425.125	-4.38
425.251	7.62
425.378	8.62
425.505	17.62
425.632	-7.38
425.758	4.62
425.885	0.62
426.012	26.62
426.139	27.62
426.266	13.62
426.392	1.62
426.519	13.62
426.646	-0.38
426.772	14.62
426.899	13.62
427.026	11.62
427.153	7.62
427.279	15.62
427.406	26.62
427.533	2.62
427.659	4.62
427.786	12.62
427.913	18.62
428.039	-1.38
428.166	-13.38
428.293	8.62
428.419	5.62
428.546	3.62
428.673	-18.38
428.799	-11.38
428.926	0.62
429.053	34.62
429.179	3.62
429.306	3.62
429.433	9.62
429.559	20.62
429.686	3.62
429.812	-25.38
429.939	-4.38
430.066	1.62
430.192	3.62
430.319	7.62
430.445	-7.38
430.572	11.62
430.699	-13.38
430.825	-20.38
430.952	4.62
431.078	4.62
431.205	-8.38
431.331	15.62
431.458	2.62
431.584	8.62
431.711	2.62
431.837	8.62
431.964	12.62
432.09	9.62
432.217	-7.38
432.343	11.62
432.47	20.62
432.596	19.62
432.723	-2.38
432.849	-10.38
432.976	22.62
433.102	8.62
433.229	5.62
433.355	26.62
433.482	78.62
433.608	167.62
433.735	151.62
433.861	125.62
433.987	135.62
434.114	225.62
434.24	198.62
434.367	72.62
434.493	0.62
434.62	24.62
434.746	9.62
434.872	3.62
434.999	23.62
435.125	22.62
435.252	-6.38
435.378	15.62
435.504	19.62
435.631	29.62
435.757	14.62
435.883	13.62
436.01	13.62
436.136	15.62
436.262	12.62
436.389	19.62
436.515	15.62
436.641	11.62
436.768	4.62
436.894	9.62
437.02	-6.38
437.147	16.62
437.273	-4.38
437.399	8.62
437.526	11.62
437.652	9.62
437.778	9.62
437.904	-21.38
438.031	21.62
438.157	9.62
438.283	7.62
438.409	-6.38
438.536	-17.38
438.662	26.62
438.788	14.62
438.914	12.62
439.041	8.62
439.167	28.62
439.293	-1.38
439.419	-0.38
439.546	18.62
439.672	25.62
439.798	16.62
439.924	11.62
440.05	34.62
440.177	30.62
440.303	-2.38
440.429	-3.38
440.555	15.62
440.681	20.62
440.807	27.62
440.934	7.62
441.06	8.62
441.186	8.62
441.312	16.62
441.438	12.62
441.564	18.62
441.69	22.62
441.816	6.62
441.943	27.62
442.069	20.62
442.195	29.62
442.321	20.62
442.447	-7.38
442.573	-1.38
442.699	6.62
442.825	-5.38
442.951	-0.38
443.077	17.62
443.203	0.62
443.33	11.62
443.456	-15.38
443.582	15.62
443.708	-3.38
443.834	17.62
443.96	8.62
444.086	23.62
444.212	34.62
444.338	24.62
444.464	17.62
444.59	23.62
444.716	13.62
444.842	5.62
444.968	10.62
445.094	10.62
445.22	-5.38
445.346	-3.38
445.472	13.62
445.598	26.62
445.724	9.62
445.85	11.62
445.976	8.62
446.102	-0.38
446.228	16.62
446.354	-0.38
446.48	13.62
446.605	21.62
446.731	22.62
446.857	-6.38
446.983	24.62
447.109	13.62
447.235	1.62
447.361	-6.38
447.487	7.62
447.613	15.62
447.739	2.62
447.865	-17.38
447.99	-3.38
448.116	17.62
448.242	20.62
448.368	-0.38
448.494	-8.38
448.62	20.62
448.746	18.62
448.872	5.62
448.997	5.62
449.123	17.62
449.249	13.62
449.375	8.62
449.501	12.62
449.627	-4.38
449.752	32.62
449.878	-15.38
450.004	-3.38
450.13	17.62
450.256	8.62
450.381	10.62
450.507	-5.38
450.633	12.62
450.759	27.62
450.884	1.62
451.01	16.62
451.136	-5.38
451.262	8.62
451.388	11.62
451.513	-2.38
451.639	20.62
451.765	9.62
451.89	23.62
452.016	3.62
452.142	0.62
452.268	12.62
452.393	2.62
452.519	2.62
452.645	12.62
452.771	24.62
452.896	-7.38
453.022	-0.38
453.148	30.62
453.273	21.62
453.399	3.62
453.525	-6.38
453.65	-6.38
453.776	14.62
453.902	28.62
454.027	8.62
454.153	14.62
454.279	15.62
454.404	6.62
454.53	22.62
454.656	38.62
454.781	13.62
454.907	5.62
455.032	8.62
455.158	19.62
455.284	19.62
455.409	31.62
455.535	25.62
455.66	25.62
455.786	12.62
455.912	4.62
456.037	8.62
456.163	17.62
456.288	16.62
456.414	1.62
456.539	3.62
456.665	13.62
456.791	17.62
456.916	11.62
457.042	22.62
457.167	13.62
457.293	17.62
457.418	-4.38
457.544	36.62
457.669	21.62
457.795	13.62
457.92	10.62
458.046	2.62
458.171	11.62
458.297	-8.38
458.422	-8.38
458.548	-9.38
458.673	12.62
458.799	6.62
458.924	1.62
459.05	10.62
459.175	3.62
459.301	-2.38
459.426	0.62
459.552	12.62
459.677	0.62
459.803	19.62
459.928	11.62
460.053	-4.38
460.179	11.62
460.304	21.62
460.43	-10.38
460.555	2.62
460.681	-14.38
460.806	-8.38
460.931	2.62
461.057	-0.38
461.182	2.62
461.308	16.62
461.433	25.62
461.558	8.62
461.684	19.62
461.809	9.62
461.934	-4.38
462.06	16.62
462.185	4.62
462.311	25.62
462.436	22.62
462.561	13.62
462.687	3.62
462.812	2.62
462.937	2.62
463.063	-0.38
463.188	-7.38
463.313	15.62
463.439	26.62
463.564	-3.38
463.689	9.62
463.814	15.62
463.94	13.62
464.065	13.62
464.19	10.62
464.316	-11.38
464.441	3.62
464.566	-3.38
464.692	-8.38
464.817	17.62
464.942	13.62
465.067	-8.38
465.193	-20.38
465.318	5.62
465.443	13.62
465.568	6.62
465.694	-4.38
465.819	19.62
465.944	5.62
466.069	-7.38
466.194	-1.38
466.32	-0.38
466.445	11.62
466.57	-4.38
466.695	-0.38
466.82	2.62
466.946	11.62
467.071	3.62
467.196	-5.38
467.321	13.62
467.446	3.62
467.572	-1.38
467.697	-0.38
467.822	12.62
467.947	9.62
468.072	-1.38
468.197	-7.38
468.323	-5.38
468.448	10.62
468.573	2.62
468.698	6.62
468.823	5.62
468.948	-0.38
469.073	15.62
469.198	6.62
469.324	31.62
469.449	-6.38
469.574	22.62
469.699	7.62
469.824	23.62
469.949	17.62
470.074	7.62
470.199	40.62
470.324	31.62
470.449	24.62
470.574	12.62
470.7	17.62
470.825	11.62
470.95	9.62
471.075	-24.38
471.2	11.62
471.325	16.62
471.45	-3.38
471.575	-4.38
471.7	19.62
471.825	3.62
471.95	10.62
472.075	5.62
472.2	-1.38
472.325	-12.38
472.45	6.62
472.575	3.62
472.7	0.62
472.825	18.62
472.95	19.62
473.075	14.62
473.2	1.62
473.325	-0.38
473.45	-1.38
473.575	-9.38
473.7	9.62
473.825	1.62
473.95	18.62
474.075	31.62
474.2	13.62
474.325	3.62
474.45	21.62
474.574	19.62
474.699	8.62
474.824	12.62
474.949	1.62
475.074	-2.38
475.199	9.62
475.324	19.62
475.449	16.62
475.574	18.62
475.699	4.62
475.824	-1.38
475.949	10.62
476.073	11.62
476.198	8.62
476.323	18.62
476.448	-5.38
476.573	1.62
476.698	7.62
476.823	2.62
476.947	17.62
477.072	21.62
477.197	26.62
477.322	-2.38
477.447	5.62
477.572	17.62
477.697	0.62
477.821	-5.38
477.946	8.62
478.071	8.62
478.196	11.62
478.321	-0.38
478.445	3.62
478.57	5.62
478.695	-10.38
478.82	3.62
478.945	13.62
479.069	-9.38
479.194	7.62
479.319	30.62
479.444	34.62
479.569	11.62
479.693	16.62
479.818	7.62
479.943	27.62
480.068	-3.38
480.192	25.62
480.317	28.62
480.442	10.62
480.567	1.62
480.691	-0.38
480.816	7.62
480.941	9.62
481.066	25.62
481.19	42.62
481.315	30.62
481.44	-7.38
481.564	-15.38
481.689	27.62
481.814	32.62
481.938	17.62
482.063	-5.38
482.188	3.62
482.313	24.62
482.437	1.62
482.562	19.62
482.687	45.62
482.811	45.62
482.936	13.62
483.061	20.62
483.185	16.62
483.31	23.62
483.435	23.62
483.559	18.62
483.684	44.62
483.808	43.62
483.933	23.62
484.058	14.62
484.182	13.62
484.307	24.62
484.432	23.62
484.556	19.62
484.681	30.62
484.805	23.62
484.93	29.62
485.055	41.62
485.179	73.62
485.304	116.62
485.428	360.62
485.553	1287.62
485.678	1797.62
485.802	1677.62
485.927	1851.62
486.051	2712.62
486.176	1662.62
486.3	450.62
486.425	151.62
486.549	80.62
486.674	64.62
486.799	45.62
486.923	26.62
487.048	18.62
487.172	21.62
487.297	15.62
487.421	25.62
487.546	8.62
487.67	7.62
487.795	10.62
487.919	17.62
488.044	16.62
488.168	36.62
488.293	27.62
488.417	15.62
488.542	26.62
488.666	30.62
488.791	16.62
488.915	8.62
489.04	17.62
489.164	23.62
489.289	29.62
489.413	1.62
489.538	19.62
489.662	19.62
489.786	4.62
489.911	11.62
490.035	23.62
490.16	-0.38
490.284	10.62
490.409	-9.38
490.533	12.62
490.658	48.62
490.782	18.62
490.906	26.62
491.031	11.62
491.155	16.62
491.28	26.62
491.404	5.62
491.528	26.62
491.653	12.62
491.777	18.62
491.902	7.62
492.026	8.62
492.15	6.62
492.275	30.62
492.399	39.62
492.524	19.62
492.648	23.62
492.772	19.62
492.897	21.62
493.021	12.62
493.145	31.62
493.27	10.62
493.394	6.62
493.518	19.62
493.643	-1.38
493.767	32.62
493.891	9.62
494.016	6.62
494.14	13.62
494.264	26.62
494.389	28.62
494.513	1.62
494.637	11.62
494.762	12.62
494.886	8.62
495.01	25.62
495.134	-1.38
495.259	24.62
495.383	16.62
495.507	5.62
495.632	29.62
495.756	32.62
495.88	26.62
496.004	9.62
496.129	9.62
496.253	24.62
496.377	18.62
496.501	47.62
496.626	0.62
496.75	11.62
496.874	17.62
496.998	-0.38
497.123	33.62
497.247	5.62
497.371	13.62
497.495	8.62
497.62	15.62
497.744	9.62
497.868	10.62
497.992	6.62
498.116	-1.38
498.241	12.62
498.365	6.62
498.489	7.62
498.613	31.62
498.737	9.62
498.862	19.62
498.986	-10.38
499.11	8.62
499.234	9.62
499.358	10.62
499.482	12.62
499.607	26.62
499.731	27.62
499.855	43.62
499.979	12.62
500.103	7.62
500.227	33.62
500.351	24.62
500.476	19.62
500.6	1.62
500.724	2.62
500.848	15.62
500.972	16.62
501.096	14.62
501.22	36.62
501.344	4.62
501.469	-0.38
501.593	7.62
501.717	10.62
501.841	-4.38
501.965	6.62
502.089	3.62
502.213	15.62
502.337	3.62
502.461	8.62
502.585	8.62
502.709	22.62
502.834	18.62
502.958	2.62
503.082	15.62
503.206	6.62
503.33	17.62
503.454	23.62
503.578	11.62
503.702	5.62
503.826	14.62
503.95	22.62
504.074	5.62
504.198	4.62
504.322	5.62
504.446	2.62
504.57	8.62
504.694	13.62
504.818	-7.38
504.942	33.62
505.066	20.62
505.19	15.62
505.314	12.62
505.438	30.62
505.562	10.62
505.686	9.62
505.81	-7.38
505.934	22.62
506.058	5.62
506.182	12.62
506.306	7.62
506.43	7.62
506.554	10.62
506.678	-8.38
506.802	1.62
506.926	-2.38
507.05	4.62
507.174	14.62
507.298	7.62
507.422	1.62
507.546	17.62
507.67	16.62
507.794	0.62
507.918	19.62
508.042	18.62
508.165	-2.38
508.289	-2.38
508.413	18.62
508.537	13.62
508.661	2.62
508.785	-2.38
508.909	32.62
509.033	10.62
509.157	9.62
509.281	23.62
509.405	2.62
509.528	32.62
509.652	24.62
509.776	9.62
509.9	18.62
510.024	19.62
510.148	6.62
510.272	6.62
510.396	31.62
510.519	-14.38
510.643	15.62
510.767	-2.38
510.891	19.62
511.015	8.62
511.139	14.62
511.263	32.62
511.386	11.62
511.51	20.62
511.634	7.62
511.758	14.62
511.882	-9.38
512.006	5.62
512.129	17.62
512.253	43.62
512.377	16.62
512.501	27.62
512.625	10.62
512.748	-2.38
512.872	2.62
512.996	9.62
513.12	14.62
513.244	-3.38
513.367	13.62
513.491	17.62
513.615	-5.38
513.739	6.62
513.862	1.62
513.986	6.62
514.11	-4.38
514.234	-14.38
514.358	16.62
514.481	21.62
514.605	-5.38
514.729	25.62
514.853	13.62
514.976	3.62
515.1	12.62
515.224	18.62
515.348	11.62
515.471	-2.38
515.595	15.62
515.719	1.62
515.842	26.62
515.966	5.62
516.09	32.62
516.214	-5.38
516.337	27.62
516.461	32.62
516.585	26.62
516.708	25.62
516.832	15.62
516.956	9.62
517.08	23.62
517.203	12.62
517.327	11.62
517.451	18.62
517.574	22.62
517.698	17.62
517.822	19.62
517.945	24.62
518.069	12.62
518.193	50.62
518.316	26.62
518.44	28.62
518.564	30.62
518.687	21.62
518.811	36.62
518.935	28.62
519.058	18.62
519.182	23.62
519.306	41.62
519.429	28.62
519.553	53.62
519.676	16.62
519.8	11.62
519.924	8.62
520.047	11.62
520.171	14.62
520.294	0.62
520.418	15.62
520.542	2.62
520.665	13.62
520.789	-5.38
520.913	-12.38
521.036	3.62
521.16	12.62
521.283	26.62
521.407	15.62
521.53	-6.38
521.654	-17.38
521.778	20.62
521.901	11.62
522.025	16.62
522.148	6.62
522.272	8.62
522.395	11.62
522.519	16.62
522.643	-5.38
522.766	3.62
522.89	22.62
523.013	8.62
523.137	-14.38
523.26	-9.38
523.384	21.62
523.507	2.62
523.631	7.62
523.754	8.62
523.878	25.62
524.002	7.62
524.125	-4.38
524.249	-12.38
524.372	-3.38
524.496	23.62
524.619	35.62
524.743	21.62
524.866	2.62
524.99	16.62
525.113	2.62
525.237	19.62
525.36	13.62
525.484	9.62
525.607	-1.38
525.731	2.62
525.854	21.62
525.978	27.62
526.101	-7.38
526.224	-12.38
526.348	2.62
526.471	-8.38
526.595	3.62
526.718	14.62
526.842	-15.38
526.965	13.62
527.089	12.62
527.212	10.62
527.336	8.62
527.459	22.62
527.582	14.62
527.706	18.62
527.829	17.62
527.953	13.62
528.076	7.62
528.2	-9.38
528.323	16.62
528.446	15.62
528.57	1.62
528.693	15.62
528.817	-5.38
528.94	29.62
529.064	28.62
529.187	2.62
529.31	10.62
529.434	6.62
529.557	3.62
529.68	22.62
529.804	16.62
529.927	9.62
530.051	-4.38
530.174	-11.38
530.297	8.62
530.421	13.62
530.544	26.62
530.668	10.62
530.791	-15.38
530.914	14.62
531.038	17.62
531.161	3.62
531.284	5.62
531.408	11.62
531.531	12.62
531.654	4.62
531.778	7.62
531.901	2.62
532.024	8.62
532.148	0.62
532.271	19.62
532.394	25.62
532.518	42.62
532.641	23.62
532.764	32.62
532.888	21.62
533.011	-2.38
533.134	-15.38
533.258	2.62
533.381	10.62
533.504	1.62
533.628	6.62
533.751	12.62
533.874	12.62
533.997	10.62
534.121	-1.38
534.244	15.62
534.367	-6.38
534.491	6.62
534.614	7.62
534.737	17.62
534.86	17.62
534.984	6.62
535.107	-8.38
535.23	5.62
535.354	20.62
535.477	-21.38
535.6	2.62
535.723	2.62
535.847	12.62
535.97	-7.38
536.093	0.62
536.216	-5.38
536.34	9.62
536.463	3.62
536.586	19.62
536.709	13.62
536.833	6.62
536.956	9.62
537.079	-5.38
537.202	29.62
537.325	14.62
537.449	-6.38
537.572	15.62
537.695	-3.38
537.818	12.62
537.941	9.62
538.065	1.62
538.188	-7.38
538.311	6.62
538.434	17.62
538.558	9.62
538.681	13.62
538.804	10.62
538.927	22.62
539.05	4.62
539.173	7.62
539.297	4.62
539.42	13.62
539.543	7.62
539.666	9.62
539.789	15.62
539.913	6.62
540.036	3.62
540.159	3.62
540.282	6.62
540.405	11.62
540.528	8.62
540.651	23.62
540.775	2.62
540.898	2.62
541.021	16.62
541.144	23.62
541.267	12.62
541.39	7.62
541.513	12.62
541.637	16.62
541.76	-0.38
541.883	6.62
542.006	11.62
542.129	33.62
542.252	3.62
542.375	15.62
542.498	17.62
542.622	35.62
542.745	15.62
542.868	1.62
542.991	18.62
543.114	29.62
543.237	29.62
543.36	30.62
543.483	23.62
543.606	28.62
543.73	15.62
543.853	-0.38
543.976	8.62
544.099	6.62
544.222	4.62
544.345	1.62
544.468	-7.38
544.591	11.62
544.714	15.62
544.837	27.62
544.96	23.62
545.083	30.62
545.206	1.62
545.329	39.62
545.453	16.62
545.576	-1.38
545.699	-9.38
545.822	10.62
545.945	14.62
546.068	10.62
546.191	17.62
546.314	-0.38
546.437	14.62
546.56	14.62
546.683	-1.38
546.806	19.62
546.929	16.62
547.052	0.62
547.175	5.62
547.298	17.62
547.421	1.62
547.544	-1.38
547.667	17.62
547.79	9.62
547.913	-11.38
548.036	-13.38
548.159	13.62
548.282	12.62
548.405	11.62
548.528	24.62
548.651	-1.38
548.774	1.62
548.897	16.62
549.02	26.62
549.143	33.62
549.266	19.62
549.389	23.62
549.512	-1.38
549.635	10.62
549.758	9.62
549.881	-3.38
550.004	1.62
550.127	13.62
550.25	-1.38
550.373	-1.38
550.496	6.62
550.619	-0.38
550.742	2.62
550.865	-14.38
550.988	-0.38
551.111	13.62
551.234	8.62
551.356	-13.38
551.479	-8.38
551.602	26.62
551.725	12.62
551.848	27.62
551.971	26.62
552.094	7.62
552.217	-2.38
552.34	-5.38
552.463	-10.38
552.586	9.62
552.709	-1.38
552.832	1.62
552.955	9.62
553.077	20.62
553.2	22.62
553.323	1.62
553.446	-1.38
553.569	-10.38
553.692	20.62
553.815	14.62
553.938	10.62
554.061	19.62
554.184	3.62
554.306	13.62
554.429	21.62
554.552	8.62
554.675	-16.38
554.798	-11.38
554.921	1.62
555.044	2.62
555.167	12.62
555.29	3.62
555.412	-9.38
555.535	5.62
555.658	4.62
555.781	1.62
555.904	18.62
556.027	14.62
556.15	5.62
556.272	12.62
556.395	16.62
556.518	10.62
556.641	6.62
556.764	26.62
556.887	11.62
557.01	-2.38
557.132	-1.38
557.255	18.62
557.378	14.62
557.501	10.62
557.624	19.62
557.747	6.62
557.869	18.62
557.992	23.62
558.115	9.62
558.238	12.62
558.361	9.62
558.483	7.62
558.606	11.62
558.729	9.62
558.852	37.62
558.975	9.62
559.098	18.62
559.22	-6.38
559.343	3.62
559.466	14.62
559.589	11.62
559.712	7.62
559.834	4.62
559.957	17.62
560.08	28.62
560.203	25.62
560.325	22.62
560.448	13.62
560.571	13.62
560.694	14.62
560.817	19.62
560.939	-8.38
561.062	6.62
561.185	5.62
561.308	10.62
561.43	-8.38
561.553	11.62
561.676	10.62
561.799	15.62
561.921	0.62
562.044	8.62
562.167	-9.38
562.29	24.62
562.413	24.62
562.535	33.62
562.658	-2.38
562.781	-1.38
562.903	-2.38
563.026	18.62
563.149	39.62
563.272	29.62
563.394	21.62
563.517	27.62
563.64	-11.38
563.763	17.62
563.885	20.62
564.008	30.62
564.131	12.62
564.254	-1.38
564.376	8.62
564.499	-9.38
564.622	-4.38
564.744	19.62
564.867	3.62
564.99	2.62
565.113	29.62
565.235	12.62
565.358	2.62
565.481	-6.38
565.603	2.62
565.726	-6.38
565.849	11.62
565.971	20.62
566.094	-3.38
566.217	23.62
566.34	11.62
566.462	10.62
566.585	-6.38
566.708	19.62
566.83	19.62
566.953	39.62
567.076	32.62
567.198	-2.38
567.321	12.62
567.444	8.62
567.566	9.62
567.689	-5.38
567.812	-4.38
567.934	12.62
568.057	0.62
568.18	0.62
568.302	-4.38
568.425	3.62
568.548	2.62
568.67	7.62
568.793	13.62
568.916	13.62
569.038	10.62
569.161	13.62
569.283	22.62
569.406	7.62
569.529	3.62
569.651	0.62
569.774	2.62
569.897	-5.38
570.019	19.62
570.142	7.62
570.265	10.62
570.387	10.62
570.51	19.62
570.632	8.62
570.755	9.62
570.878	7.62
571	18.62
571.123	7.62
571.246	25.62
571.368	-13.38
571.491	-15.38
571.613	-2.38
571.736	0.62
571.859	9.62
571.981	-0.38
572.104	6.62
572.226	19.62
572.349	3.62
572.472	14.62
572.594	10.62
572.717	2.62
572.839	6.62
572.962	6.62
573.085	3.62
573.207	-2.38
573.33	-0.38
573.452	23.62
573.575	23.62
573.697	9.62
573.82	-10.38
573.943	1.62
574.065	16.62
574.188	12.62
574.31	4.62
574.433	24.62
574.555	32.62
574.678	-1.38
574.801	9.62
574.923	9.62
575.046	9.62
575.168	5.62
575.291	4.62
575.413	3.62
575.536	7.62
575.659	1.62
575.781	5.62
575.904	14.62
576.026	1.62
576.149	11.62
576.271	18.62
576.394	7.62
576.516	3.62
576.639	30.62
576.761	7.62
576.884	-9.38
577.007	7.62
577.129	19.62
577.252	2.62
577.374	19.62
577.497	-2.38
577.619	14.62
577.742	-1.38
577.864	26.62
577.987	15.62
578.109	4.62
578.232	13.62
578.354	36.62
578.477	3.62
578.599	13.62
578.722	0.62
578.844	-8.38
578.967	0.62
579.089	-6.38
579.212	-12.38
579.334	8.62
579.457	18.62
579.579	12.62
579.702	13.62
579.824	25.62
579.947	5.62
580.069	-0.38
580.192	-4.38
580.314	30.62
580.437	5.62
580.559	19.62
580.682	6.62
580.804	22.62
580.927	16.62
581.049	26.62
581.172	18.62
581.294	18.62
581.417	10.62
581.539	25.62
581.662	16.62
581.784	21.62
581.907	33.62
582.029	25.62
582.152	14.62
582.274	13.62
582.396	23.62
582.519	10.62
582.641	-4.38
582.764	-10.38
582.886	36.62
583.009	10.62
583.131	-16.38
583.254	11.62
583.376	21.62
583.499	9.62
583.621	23.62
583.743	21.62
583.866	17.62
583.988	7.62
584.111	27.62
584.233	16.62
584.356	10.62
584.478	11.62
584.601	-20.38
584.723	7.62
584.845	23.62
584.968	8.62
585.09	8.62
585.213	9.62
585.335	-7.38
585.458	6.62
585.58	17.62
585.702	7.62
585.825	-6.38
585.947	-0.38
586.07	0.62
586.192	-6.38
586.315	10.62
586.437	3.62
586.559	14.62
586.682	12.62
586.804	8.62
586.927	1.62
587.049	-4.38
587.171	22.62
587.294	27.62
587.416	26.62
587.539	6.62
587.661	6.62
587.783	-4.38
587.906	-2.38
588.028	17.62
588.151	18.62
588.273	16.62
588.395	11.62
588.518	4.62
588.64	-5.38
588.763	14.62
588.885	18.62
589.007	13.62
589.13	-4.38
589.252	-2.38
589.375	16.62
589.497	2.62
589.619	11.62
589.742	25.62
589.864	24.62
589.986	29.62
590.109	3.62
590.231	6.62
590.354	3.62
590.476	-8.38
590.598	-11.38
590.721	-1.38
590.843	7.62
590.965	5.62
591.088	21.62
591.21	10.62
591.332	9.62
591.455	-0.38
591.577	13.62
591.7	8.62
591.822	-5.38
591.944	11.62
592.067	-0.38
592.189	5.62
592.311	15.62
592.434	18.62
592.556	23.62
592.678	-8.38
592.801	10.62
592.923	-7.38
593.045	9.62
593.168	17.62
593.29	-2.38
593.412	31.62
593.535	-2.38
593.657	-16.38
593.779	-6.38
593.902	14.62
594.024	31.62
594.146	23.62
594.269	16.62
594.391	-1.38
594.513	10.62
594.636	-2.38
594.758	-3.38
594.88	16.62
595.003	26.62
595.125	18.62
595.247	1.62
595.37	14.62
595.492	11.62
595.614	22.62
595.737	27.62
595.859	18.62
595.981	5.62
596.104	14.62
596.226	4.62
596.348	18.62
596.471	3.62
596.593	24.62
596.715	11.62
596.838	11.62
596.96	-4.38
597.082	16.62
597.204	13.62
597.327	7.62
597.449	-17.38
597.571	8.62
597.694	29.62
597.816	3.62
597.938	14.62
598.061	8.62
598.183	-2.38
598.305	11.62
598.427	17.62
598.55	-0.38
598.672	22.62
598.794	14.62
598.917	3.62
599.039	22.62
599.161	-1.38
599.283	7.62
599.406	28.62
599.528	21.62
599.65	15.62
599.773	1.62
599.895	20.62
600.017	25.62
600.139	6.62
600.262	-4.38
600.384	2.62
600.506	12.62
600.628	23.62
600.751	8.62
600.873	-3.38
600.995	3.62
601.118	18.62
601.24	13.62
601.362	21.62
601.484	11.62
601.607	15.62
601.729	10.62
601.851	16.62
601.973	29.62
602.096	29.62
602.218	9.62
602.34	-12.38
602.462	23.62
602.585	18.62
602.707	10.62
602.829	20.62
602.951	14.62
603.074	-3.38
603.196	12.62
603.318	0.62
603.44	9.62
603.563	3.62
603.685	2.62
603.807	33.62
603.929	7.62
604.052	9.62
604.174	9.62
604.296	30.62
604.418	18.62
604.541	25.62
604.663	9.62
604.785	17.62
604.907	15.62
605.03	11.62
605.152	48.62
605.274	1.62
605.396	16.62
605.519	13.62
605.641	3.62
605.763	13.62
605.885	9.62
606.008	-6.38
606.13	16.62
606.252	26.62
606.374	6.62
606.496	13.62
606.619	14.62
606.741	1.62
606.863	21.62
606.985	29.62
607.108	25.62
607.23	17.62
607.352	16.62
607.474	-2.38
607.596	2.62
607.719	0.62
607.841	14.62
607.963	14.62
608.085	16.62
608.207	43.62
608.33	24.62
608.452	20.62
608.574	11.62
608.696	25.62
608.819	14.62
608.941	22.62
609.063	4.62
609.185	1.62
609.307	21.62
609.43	30.62
609.552	22.62
609.674	-0.38
609.796	8.62
609.918	19.62
610.041	-0.38
610.163	9.62
610.285	3.62
610.407	8.62
610.529	-5.38
610.652	10.62
610.774	13.62
610.896	1.62
611.018	3.62
611.14	14.62
611.263	15.62
611.385	-1.38
611.507	6.62
611.629	-10.38
611.751	-1.38
611.873	19.62
611.996	3.62
612.118	20.62
612.24	-0.38
612.362	18.62
612.484	33.62
612.607	9.62
612.729	28.62
612.851	15.62
612.973	11.62
613.095	4.62
613.218	8.62
613.34	13.62
613.462	9.62
613.584	15.62
613.706	30.62
613.828	38.62
613.951	21.62
614.073	6.62
614.195	-9.38
614.317	20.62
614.439	23.62
614.561	15.62
614.684	16.62
614.806	18.62
614.928	9.62
615.05	23.62
615.172	9.62
615.294	17.62
615.417	3.62
615.539	-4.38
615.661	19.62
615.783	17.62
615.905	26.62
616.027	68.62
616.15	85.62
616.272	85.62
616.394	56.62
616.516	26.62
616.638	17.62
616.76	17.62
616.883	10.62
617.005	10.62
617.127	-0.38
617.249	-3.38
617.371	14.62
617.493	6.62
617.615	21.62
617.738	8.62
617.86	10.62
617.982	7.62
618.104	-2.38
618.226	10.62
618.348	-1.38
618.471	10.62
618.593	7.62
618.715	4.62
618.837	0.62
618.959	17.62
619.081	22.62
619.203	-5.38
619.326	9.62
619.448	9.62
619.57	14.62
619.692	5.62
619.814	13.62
619.936	22.62
620.058	19.62
620.181	12.62
620.303	-7.38
620.425	16.62
620.547	7.62
620.669	1.62
620.791	2.62
620.913	1.62
621.036	1.62
621.158	2.62
621.28	11.62
621.402	-9.38
621.524	9.62
621.646	1.62
621.768	-8.38
621.891	-13.38
622.013	15.62
622.135	2.62
622.257	-8.38
622.379	9.62
622.501	8.62
622.623	10.62
622.745	9.62
622.868	8.62
622.99	-11.38
623.112	8.62
623.234	-5.38
623.356	16.62
623.478	-8.38
623.6	6.62
623.722	-5.38
623.845	8.62
623.967	7.62
624.089	17.62
624.211	-2.38
624.333	12.62
624.455	8.62
624.577	7.62
624.699	7.62
624.822	6.62
624.944	11.62
625.066	1.62
625.188	8.62
625.31	2.62
625.432	25.62
625.554	1.62
625.676	16.62
625.799	-3.38
625.921	6.62
626.043	-7.38
626.165	-0.38
626.287	-8.38
626.409	6.62
626.531	-13.38
626.653	-0.38
626.775	-4.38
626.898	1.62
627.02	9.62
627.142	30.62
627.264	0.62
627.386	0.62
627.508	23.62
627.63	-9.38
627.752	13.62
627.874	11.62
627.997	9.62
628.119	19.62
628.241	29.62
628.363	37.62
628.485	18.62
628.607	6.62
628.729	-13.38
628.851	0.62
628.973	3.62
629.096	-7.38
629.218	7.62
629.34	9.62
629.462	-3.38
629.584	-7.38
629.706	1.62
629.828	-4.38
629.95	9.62
630.072	20.62
630.195	1.62
630.317	7.62
630.439	14.62
630.561	19.62
630.683	-10.38
630.805	11.62
630.927	25.62
631.049	1.62
631.171	0.62
631.293	6.62
631.416	12.62
631.538	11.62
631.66	7.62
631.782	21.62
631.904	25.62
632.026	2.62
632.148	11.62
632.27	6.62
632.392	19.62
632.514	15.62
632.637	14.62
632.759	2.62
632.881	-14.38
633.003	1.62
633.125	-6.38
633.247	1.62
633.369	14.62
633.491	-6.38
633.613	7.62
633.735	5.62
633.858	11.62
633.98	9.62
634.102	-8.38
634.224	23.62
634.346	15.62
634.468	16.62
634.59	12.62
634.712	-4.38
634.834	4.62
634.956	-2.38
635.078	-12.38
635.201	-4.38
635.323	14.62
635.445	-8.38
635.567	-6.38
635.689	11.62
635.811	2.62
635.933	3.62
636.055	10.62
636.177	0.62
636.299	6.62
636.421	-6.38
636.544	1.62
636.666	0.62
636.788	16.62
636.91	11.62
637.032	-5.38
637.154	6.62
637.276	30.62
637.398	22.62
637.52	11.62
637.642	-3.38
637.764	12.62
637.887	16.62
638.009	-10.38
638.131	-0.38
638.253	1.62
638.375	16.62
638.497	21.62
638.619	12.62
638.741	11.62
638.863	-3.38
638.985	-22.38
639.107	-9.38
639.23	7.62
639.352	0.62
639.474	6.62
639.596	-9.38
639.718	-12.38
639.84	-6.38
639.962	14.62
640.084	25.62
640.206	13.62
640.328	3.62
640.45	18.62
640.573	11.62
640.695	18.62
640.817	19.62
640.939	13.62
641.061	0.62
641.183	-4.38
641.305	0.62
641.427	1.62
641.549	1.62
641.671	17.62
641.793	-1.38
641.915	17.62
642.038	10.62
642.16	1.62
642.282	6.62
642.404	-4.38
642.526	17.62
642.648	-1.38
642.77	7.62
642.892	-5.38
643.014	2.62
643.136	12.62
643.258	7.62
643.381	33.62
643.503	29.62
643.625	5.62
643.747	-15.38
643.869	3.62
643.991	21.62
644.113	7.62
644.235	0.62
644.357	20.62
644.479	11.62
644.601	10.62
644.723	2.62
644.846	11.62
644.968	9.62
645.09	-5.38
645.212	-6.38
645.334	12.62
645.456	14.62
645.578	17.62
645.7	-0.38
645.822	3.62
645.944	24.62
646.066	5.62
646.188	6.62
646.311	9.62
646.433	11.62
646.555	53.62
646.677	34.62
646.799	28.62
646.921	22.62
647.043	22.62
647.165	9.62
647.287	8.62
647.409	-8.38
647.531	21.62
647.654	7.62
647.776	11.62
647.898	23.62
648.02	-9.38
648.142	1.62
648.264	6.62
648.386	-0.38
648.508	-2.38
648.63	3.62
648.752	17.62
648.874	0.62
648.997	10.62
649.119	21.62
649.241	8.62
649.363	6.62
649.485	5.62
649.607	5.62
649.729	9.62
649.851	-9.38
649.973	0.62
650.095	17.62
650.217	7.62
650.34	2.62
650.462	6.62
650.584	-1.38
650.706	14.62
650.828	12.62
650.95	-3.38
651.072	14.62
651.194	9.62
651.316	4.62
651.438	13.62
651.56	-0.38
651.683	2.62
651.805	11.62
651.927	1.62
652.049	13.62
652.171	-3.38
652.293	5.62
652.415	0.62
652.537	-2.38
652.659	3.62
652.781	-6.38
652.903	22.62
653.026	17.62
653.148	8.62
653.27	8.62
653.392	17.62
653.514	-1.38
653.636	4.62
653.758	4.62
653.88	-6.38
654.002	-2.38
654.124	-4.38
654.247	0.62
654.369	22.62
654.491	13.62
654.613	3.62
654.735	4.62
654.857	2.62
654.979	10.62
655.101	10.62
655.223	39.62
655.345	35.62
655.468	25.62
655.59	22.62
655.712	26.62
655.834	31.62
655.956	38.62
656.078	35.62
656.2	50.62
656.322	32.62
656.444	9.62
656.566	28.62
656.689	57.62
656.811	57.62
656.933	86.62
657.055	79.62
657.177	164.62
657.299	244.62
657.421	494.62
657.543	1907.62
657.665	12691.62
657.787	15185.62
657.91	15346.62
658.032	15660.62
658.154	4739.62
658.276	4466.62
658.398	1367.62
658.52	1084.62
658.642	511.62
658.764	608.62
658.886	278.62
659.009	423.62
659.131	236.62
659.253	321.62
659.375	163.62
659.497	254.62
659.619	153.62
659.741	214.62
659.863	95.62
659.985	149.62
660.108	93.62
660.23	146.62
660.352	85.62
660.474	149.62
660.596	94.62
660.718	142.62
660.84	75.62
660.962	123.62
661.084	48.62
661.207	90.62
661.329	45.62
661.451	95.62
661.573	48.62
661.695	104.62
661.817	57.62
661.939	103.62
662.061	59.62
662.184	68.62
662.306	40.62
662.428	63.62
662.55	35.62
662.672	66.62
662.794	36.62
662.916	66.62
663.038	38.62
663.161	75.62
663.283	36.62
663.405	70.62
663.527	31.62
663.649	76.62
663.771	30.62
663.893	62.62
664.015	30.62
664.138	31.62
664.26	30.62
664.382	41.62
664.504	9.62
664.626	35.62
664.748	18.62
664.87	42.62
664.992	36.62
665.115	41.62
665.237	43.62
665.359	44.62
665.481	23.62
665.603	42.62
665.725	29.62
665.847	27.62
665.97	11.62
666.092	45.62
666.214	29.62
666.336	40.62
666.458	32.62
666.58	35.62
666.702	5.62
666.825	30.62
666.947	-2.38
667.069	30.62
667.191	9.62
667.313	27.62
667.435	-2.38
667.557	22.62
667.68	2.62
667.802	32.62
667.924	9.62
668.046	31.62
668.168	29.62
668.29	40.62
668.412	9.62
668.535	23.62
668.657	6.62
668.779	31.62
668.901	23.62
669.023	33.62
669.145	26.62
669.267	41.62
669.39	15.62
669.512	41.62
669.634	5.62
669.756	24.62
669.878	18.62
670	21.62
670.123	22.62
670.245	32.62
670.367	7.62
670.489	34.62
670.611	5.62
670.733	17.62
670.856	2.62
670.978	18.62
671.1	22.62
671.222	35.62
671.344	17.62
671.466	5.62
671.589	-7.38
671.711	24.62
671.833	-0.38
671.955	15.62
672.077	0.62
672.199	42.62
672.322	27.62
672.444	26.62
672.566	23.62
672.688	28.62
672.81	21.62
672.932	20.62
673.055	7.62
673.177	15.62
673.299	4.62
673.421	-13.38
673.543	14.62
673.665	30.62
673.788	7.62
673.91	4.62
674.032	2.62
674.154	14.62
674.276	25.62
674.399	6.62
674.521	9.62
674.643	22.62
674.765	6.62
674.887	29.62
675.009	6.62
675.132	12.62
675.254	16.62
675.376	15.62
675.498	5.62
675.62	25.62
675.743	20.62
675.865	25.62
675.987	11.62
676.109	30.62
676.231	28.62
676.354	47.62
676.476	15.62
676.598	32.62
676.72	15.62
676.842	36.62
676.965	8.62
677.087	22.62
677.209	15.62
677.331	50.62
677.453	32.62
677.576	10.62
677.698	16.62
677.82	15.62
677.942	9.62
678.064	18.62
678.187	11.62
678.309	15.62
678.431	1.62
678.553	23.62
678.675	33.62
678.798	15.62
678.92	-7.38
679.042	25.62
679.164	0.62
679.286	36.62
679.409	-0.38
679.531	-1.38
679.653	3.62
679.775	-5.38
679.898	13.62
680.02	9.62
680.142	3.62
680.264	14.62
680.386	1.62
680.509	14.62
680.631	17.62
680.753	29.62
680.875	3.62
680.998	20.62
681.12	-4.38
681.242	9.62
681.364	0.62
681.486	3.62
681.609	-8.38
681.731	2.62
681.853	-9.38
681.975	-4.38
682.098	20.62
682.22	25.62
682.342	1.62
682.464	32.62
682.587	8.62
682.709	-2.38
682.831	1.62
682.953	6.62
683.076	2.62
683.198	12.62
683.32	19.62
683.442	17.62
683.565	14.62
683.687	6.62
683.809	4.62
683.931	-11.38
684.054	13.62
684.176	23.62
684.298	8.62
684.42	3.62
684.543	-8.38
684.665	7.62
684.787	5.62
684.909	-2.38
685.032	22.62
685.154	5.62
685.276	-5.38
685.398	7.62
685.521	-1.38
685.643	30.62
685.765	7.62
685.887	31.62
686.01	24.62
686.132	10.62
686.254	13.62
686.377	2.62
686.499	-0.38
686.621	14.62
686.743	8.62
686.866	10.62
686.988	26.62
687.11	20.62
687.232	-3.38
687.355	-1.38
687.477	9.62
687.599	15.62
687.722	5.62
687.844	14.62
687.966	-4.38
688.088	8.62
688.211	29.62
688.333	26.62
688.455	-0.38
688.578	7.62
688.7	19.62
688.822	19.62
688.944	1.62
689.067	46.62
689.189	-5.38
689.311	-16.38
689.434	0.62
689.556	10.62
689.678	18.62
689.801	2.62
689.923	6.62
690.045	16.62
690.167	39.62
690.29	17.62
690.412	11.62
690.534	13.62
690.657	4.62
690.779	14.62
690.901	14.62
691.024	21.62
691.146	17.62
691.268	15.62
691.391	29.62
691.513	9.62
691.635	5.62
691.758	34.62
691.88	12.62
692.002	-7.38
692.125	-1.38
692.247	-1.38
692.369	9.62
692.492	5.62
692.614	5.62
692.736	0.62
692.859	15.62
692.981	6.62
693.103	1.62
693.226	14.62
693.348	29.62
693.47	16.62
693.593	6.62
693.715	-4.38
693.837	-12.38
693.96	9.62
694.082	-14.38
694.204	4.62
694.327	-1.38
694.449	-13.38
694.571	14.62
694.694	35.62
694.816	15.62
694.938	15.62
695.061	10.62
695.183	14.62
695.305	-1.38
695.428	17.62
695.55	-0.38
695.672	2.62
695.795	20.62
695.917	17.62
696.04	7.62
696.162	25.62
696.284	3.62
696.407	6.62
696.529	3.62
696.651	24.62
696.774	6.62
696.896	16.62
697.019	22.62
697.141	23.62
697.263	2.62
697.386	0.62
697.508	5.62
697.63	16.62
697.753	15.62
697.875	3.62
697.998	1.62
698.12	14.62
698.242	9.62
698.365	7.62
698.487	-6.38
698.61	15.62
698.732	15.62
698.854	13.62
698.977	10.62
699.099	19.62
699.221	2.62
699.344	2.62
699.466	13.62
699.589	11.62
699.711	-13.38
699.834	19.62
699.956	6.62
700.078	6.62
700.201	-1.38
700.323	19.62
700.446	-2.38
700.568	-0.38
700.69	7.62
700.813	16.62
700.935	2.62
701.058	10.62
701.18	8.62
701.302	2.62
701.425	-7.38
701.547	26.62
701.67	4.62
701.792	10.62
701.915	-6.38
702.037	-2.38
702.159	2.62
702.282	0.62
702.404	-0.38
702.527	20.62
702.649	30.62
702.772	27.62
702.894	13.62
703.017	16.62
703.139	16.62
703.261	22.62
703.384	11.62
703.506	9.62
703.629	5.62
703.751	1.62
703.874	0.62
703.996	1.62
704.119	9.62
704.241	8.62
704.364	-7.38
704.486	20.62
704.608	14.62
704.731	10.62
704.853	19.62
704.976	-12.38
705.098	17.62
705.221	5.62
705.343	7.62
705.466	9.62
705.588	19.62
705.711	10.62
705.833	1.62
705.956	12.62
706.078	13.62
706.201	3.62
706.323	9.62
706.446	6.62
