Data from LowRes_H2_15_26_11_07_2024_HR4C61881__11__15-28-14-737.txt Node

Date: Thu Nov 07 15:28:14 EST 2024
User: crc00042
Spectrometer: HR4C6188
Trigger mode: 4
Integration Time (sec): 1.000000E-1
Scans to average: 1
Electric dark correction enabled: true
Nonlinearity correction enabled: false
Boxcar width: 0
XAxis mode: Wavelengths
Number of Pixels in Spectrum: 3648
>>>>>Begin Spectral Data<<<<<
245.66	-78.85
245.797	-78.85
245.934	-78.85
246.071	-75.85
246.208	11.15
246.344	12.15
246.481	-6.85
246.618	-27.85
246.755	8.15
246.892	-16.85
247.029	-10.85
247.165	-25.85
247.302	22.15
247.439	23.15
247.576	19.15
247.713	-22.85
247.849	28.15
247.986	-1.85
248.123	-5.85
248.26	-8.85
248.396	31.15
248.533	11.15
248.67	-0.85
248.806	21.15
248.943	-4.85
249.08	8.15
249.216	13.15
249.353	-7.85
249.49	-8.85
249.626	-7.85
249.763	-8.85
249.9	-6.85
250.036	24.15
250.173	18.15
250.309	8.15
250.446	19.15
250.582	-0.85
250.719	-12.85
250.856	-12.85
250.992	-8.85
251.129	-5.85
251.265	-16.85
251.402	2.15
251.538	-5.85
251.675	9.15
251.811	16.15
251.948	17.15
252.084	20.15
252.221	13.15
252.357	-2.85
252.493	15.15
252.63	4.15
252.766	20.15
252.903	6.15
253.039	7.15
253.175	15.15
253.312	2.15
253.448	-17.85
253.585	-15.85
253.721	2.15
253.857	1.15
253.994	11.15
254.13	23.15
254.266	-2.85
254.403	11.15
254.539	1.15
254.675	4.15
254.811	1.15
254.948	-8.85
255.084	-4.85
255.22	-8.85
255.356	-9.85
255.493	10.15
255.629	9.15
255.765	13.15
255.901	9.15
256.037	-4.85
256.174	21.15
256.31	-1.85
256.446	-13.85
256.582	11.15
256.718	11.15
256.854	14.15
256.991	0.15
257.127	18.15
257.263	-2.85
257.399	16.15
257.535	2.15
257.671	-5.85
257.807	-2.85
257.943	-9.85
258.079	-11.85
258.215	12.15
258.351	16.15
258.487	9.15
258.623	24.15
258.759	-4.85
258.895	7.15
259.031	-6.85
259.167	-17.85
259.303	6.15
259.439	-1.85
259.575	-4.85
259.711	-3.85
259.847	-4.85
259.983	14.15
260.119	2.15
260.255	-1.85
260.391	16.15
260.527	6.15
260.663	4.15
260.799	17.15
260.934	-7.85
261.07	-3.85
261.206	2.15
261.342	-16.85
261.478	5.15
261.614	21.15
261.749	-5.85
261.885	-4.85
262.021	-3.85
262.157	19.15
262.293	-2.85
262.428	28.15
262.564	4.15
262.7	2.15
262.836	4.15
262.971	14.15
263.107	-5.85
263.243	-0.85
263.378	-3.85
263.514	-10.85
263.65	7.15
263.785	-8.85
263.921	-8.85
264.057	0.15
264.192	7.15
264.328	13.15
264.464	-0.85
264.599	12.15
264.735	14.15
264.871	-13.85
265.006	5.15
265.142	19.15
265.277	5.15
265.413	17.15
265.548	4.15
265.684	20.15
265.819	13.15
265.955	-18.85
266.091	-12.85
266.226	-0.85
266.362	14.15
266.497	-0.85
266.633	4.15
266.768	11.15
266.903	5.15
267.039	9.15
267.174	11.15
267.31	8.15
267.445	-2.85
267.581	13.15
267.716	24.15
267.851	18.15
267.987	10.15
268.122	12.15
268.258	-5.85
268.393	-6.85
268.528	8.15
268.664	-9.85
268.799	-18.85
268.934	-5.85
269.07	-9.85
269.205	12.15
269.34	11.15
269.476	-8.85
269.611	-12.85
269.746	6.15
269.881	18.15
270.017	23.15
270.152	3.15
270.287	7.15
270.422	-2.85
270.558	-8.85
270.693	4.15
270.828	-16.85
270.963	-10.85
271.098	-18.85
271.234	-3.85
271.369	9.15
271.504	12.15
271.639	2.15
271.774	7.15
271.909	14.15
272.045	-10.85
272.18	4.15
272.315	-2.85
272.45	5.15
272.585	-14.85
272.72	-0.85
272.855	8.15
272.99	32.15
273.125	-4.85
273.26	-20.85
273.395	-16.85
273.53	6.15
273.665	3.15
273.8	15.15
273.935	15.15
274.07	-0.85
274.205	18.15
274.34	3.15
274.475	3.15
274.61	15.15
274.745	-2.85
274.88	18.15
275.015	-8.85
275.15	11.15
275.285	7.15
275.42	0.15
275.555	7.15
275.69	-13.85
275.825	-8.85
275.959	11.15
276.094	0.15
276.229	5.15
276.364	-6.85
276.499	16.15
276.634	10.15
276.768	3.15
276.903	3.15
277.038	26.15
277.173	2.15
277.308	17.15
277.442	-5.85
277.577	-10.85
277.712	-12.85
277.847	-5.85
277.981	18.15
278.116	-19.85
278.251	7.15
278.386	1.15
278.52	8.15
278.655	8.15
278.79	4.15
278.924	1.15
279.059	20.15
279.194	-10.85
279.328	51.15
279.463	10.15
279.598	22.15
279.732	9.15
279.867	5.15
280.001	3.15
280.136	9.15
280.271	14.15
280.405	18.15
280.54	10.15
280.674	-9.85
280.809	13.15
280.943	19.15
281.078	13.15
281.213	29.15
281.347	15.15
281.482	11.15
281.616	8.15
281.751	-4.85
281.885	-13.85
282.02	-3.85
282.154	-3.85
282.288	-9.85
282.423	-5.85
282.557	-30.85
282.692	5.15
282.826	18.15
282.961	19.15
283.095	-11.85
283.229	-0.85
283.364	-24.85
283.498	-8.85
283.633	6.15
283.767	12.15
283.901	15.15
284.036	5.15
284.17	-1.85
284.304	6.15
284.439	3.15
284.573	3.15
284.707	-0.85
284.842	-10.85
284.976	-7.85
285.11	-5.85
285.244	2.15
285.379	36.15
285.513	-9.85
285.647	-3.85
285.781	-1.85
285.916	14.15
286.05	-13.85
286.184	30.15
286.318	15.15
286.453	-5.85
286.587	2.15
286.721	-14.85
286.855	5.15
286.989	0.15
287.123	-0.85
287.258	-2.85
287.392	12.15
287.526	35.15
287.66	-3.85
287.794	1.15
287.928	9.15
288.062	7.15
288.196	-13.85
288.33	1.15
288.464	-4.85
288.598	13.15
288.733	5.15
288.867	23.15
289.001	-8.85
289.135	8.15
289.269	-13.85
289.403	-6.85
289.537	5.15
289.671	-2.85
289.805	-19.85
289.939	12.15
290.073	0.15
290.207	16.15
290.34	-3.85
290.474	15.15
290.608	12.15
290.742	-2.85
290.876	0.15
291.01	3.15
291.144	17.15
291.278	19.15
291.412	14.15
291.546	12.15
291.679	8.15
291.813	10.15
291.947	-10.85
292.081	-10.85
292.215	-2.85
292.349	3.15
292.482	2.15
292.616	4.15
292.75	9.15
292.884	29.15
293.018	-0.85
293.151	-10.85
293.285	-0.85
293.419	-4.85
293.553	-11.85
293.686	-9.85
293.82	6.15
293.954	16.15
294.088	10.15
294.221	-10.85
294.355	-7.85
294.489	11.15
294.622	4.15
294.756	18.15
294.89	17.15
295.023	9.15
295.157	-1.85
295.291	-1.85
295.424	-4.85
295.558	-1.85
295.691	-10.85
295.825	7.15
295.959	9.15
296.092	1.15
296.226	-5.85
296.359	2.15
296.493	2.15
296.627	12.15
296.76	7.15
296.894	7.15
297.027	7.15
297.161	6.15
297.294	-10.85
297.428	9.15
297.561	32.15
297.695	-0.85
297.828	-0.85
297.962	-11.85
298.095	-7.85
298.229	25.15
298.362	-3.85
298.495	-11.85
298.629	-13.85
298.762	16.15
298.896	10.15
299.029	-8.85
299.162	11.15
299.296	10.15
299.429	1.15
299.563	-0.85
299.696	23.15
299.829	11.15
299.963	17.15
300.096	13.15
300.229	5.15
300.363	28.15
300.496	9.15
300.629	-13.85
300.763	-5.85
300.896	4.15
301.029	-10.85
301.162	4.15
301.296	3.15
301.429	10.15
301.562	2.15
301.695	3.15
301.829	6.15
301.962	30.15
302.095	16.15
302.228	-6.85
302.362	12.15
302.495	-9.85
302.628	7.15
302.761	-10.85
302.894	-1.85
303.027	31.15
303.161	13.15
303.294	-13.85
303.427	24.15
303.56	8.15
303.693	-2.85
303.826	13.15
303.959	8.15
304.092	3.15
304.225	-3.85
304.359	1.15
304.492	6.15
304.625	-6.85
304.758	20.15
304.891	-7.85
305.024	-5.85
305.157	3.15
305.29	1.15
305.423	3.15
305.556	-3.85
305.689	30.15
305.822	-7.85
305.955	10.15
306.088	-1.85
306.221	0.15
306.354	-9.85
306.487	2.15
306.62	4.15
306.752	5.15
306.885	9.15
307.018	7.15
307.151	15.15
307.284	16.15
307.417	-16.85
307.55	-3.85
307.683	-7.85
307.816	13.15
307.948	23.15
308.081	2.15
308.214	18.15
308.347	26.15
308.48	-5.85
308.613	-15.85
308.745	16.15
308.878	0.15
309.011	-5.85
309.144	17.15
309.277	11.15
309.409	0.15
309.542	-7.85
309.675	18.15
309.808	-2.85
309.94	18.15
310.073	-13.85
310.206	-13.85
310.339	7.15
310.471	-9.85
310.604	20.15
310.737	-5.85
310.869	-1.85
311.002	3.15
311.135	-4.85
311.267	-17.85
311.4	-4.85
311.533	29.15
311.665	-13.85
311.798	7.15
311.93	10.15
312.063	13.15
312.196	-1.85
312.328	2.15
312.461	-3.85
312.593	3.15
312.726	4.15
312.859	3.15
312.991	8.15
313.124	-10.85
313.256	5.15
313.389	1.15
313.521	9.15
313.654	31.15
313.786	-4.85
313.919	-13.85
314.051	1.15
314.184	18.15
314.316	-5.85
314.449	-18.85
314.581	-8.85
314.714	-5.85
314.846	11.15
314.978	-14.85
315.111	-4.85
315.243	-5.85
315.376	-1.85
315.508	5.15
315.641	-3.85
315.773	29.15
315.905	3.15
316.038	-2.85
316.17	-13.85
316.302	-2.85
316.435	-7.85
316.567	1.15
316.699	25.15
316.832	-4.85
316.964	-8.85
317.096	-5.85
317.229	-14.85
317.361	-16.85
317.493	10.15
317.625	-11.85
317.758	8.15
317.89	15.15
318.022	-6.85
318.155	12.15
318.287	-4.85
318.419	5.15
318.551	1.15
318.683	-6.85
318.816	-5.85
318.948	11.15
319.08	-8.85
319.212	10.15
319.344	-1.85
319.477	-4.85
319.609	22.15
319.741	5.15
319.873	14.15
320.005	7.15
320.137	5.15
320.269	19.15
320.401	-7.85
320.534	-12.85
320.666	-5.85
320.798	-10.85
320.93	11.15
321.062	-9.85
321.194	-5.85
321.326	7.15
321.458	9.15
321.59	-3.85
321.722	-17.85
321.854	7.15
321.986	-1.85
322.118	7.15
322.25	2.15
322.382	10.15
322.514	0.15
322.646	-18.85
322.778	27.15
322.91	2.15
323.042	1.15
323.174	8.15
323.306	-9.85
323.438	-3.85
323.57	8.15
323.702	22.15
323.834	-13.85
323.966	-5.85
324.097	8.15
324.229	-3.85
324.361	-0.85
324.493	-0.85
324.625	2.15
324.757	-3.85
324.889	1.15
325.021	8.15
325.152	14.15
325.284	35.15
325.416	7.15
325.548	12.15
325.68	-0.85
325.811	1.15
325.943	9.15
326.075	2.15
326.207	-3.85
326.339	19.15
326.47	-1.85
326.602	15.15
326.734	-0.85
326.866	14.15
326.997	-6.85
327.129	-11.85
327.261	-20.85
327.392	7.15
327.524	-2.85
327.656	4.15
327.787	9.15
327.919	23.15
328.051	13.15
328.182	6.15
328.314	39.15
328.446	12.15
328.577	18.15
328.709	-0.85
328.841	-6.85
328.972	1.15
329.104	-6.85
329.235	-5.85
329.367	-6.85
329.499	8.15
329.63	12.15
329.762	1.15
329.893	17.15
330.025	1.15
330.156	-24.85
330.288	12.15
330.419	22.15
330.551	32.15
330.683	5.15
330.814	2.15
330.946	14.15
331.077	-0.85
331.208	2.15
331.34	-5.85
331.471	3.15
331.603	1.15
331.734	-24.85
331.866	7.15
331.997	8.15
332.129	-1.85
332.26	-2.85
332.392	9.15
332.523	5.15
332.654	-8.85
332.786	1.15
332.917	-8.85
333.048	13.15
333.18	24.15
333.311	-14.85
333.443	-0.85
333.574	-8.85
333.705	20.15
333.837	-3.85
333.968	1.15
334.099	10.15
334.231	13.15
334.362	9.15
334.493	12.15
334.624	5.15
334.756	22.15
334.887	26.15
335.018	12.15
335.15	11.15
335.281	0.15
335.412	22.15
335.543	21.15
335.675	10.15
335.806	20.15
335.937	8.15
336.068	-2.85
336.199	36.15
336.331	-2.85
336.462	-1.85
336.593	21.15
336.724	-2.85
336.855	-8.85
336.986	23.15
337.118	18.15
337.249	13.15
337.38	-8.85
337.511	7.15
337.642	6.15
337.773	5.15
337.904	-0.85
338.035	10.15
338.166	-14.85
338.298	-4.85
338.429	1.15
338.56	19.15
338.691	18.15
338.822	24.15
338.953	16.15
339.084	39.15
339.215	31.15
339.346	-4.85
339.477	5.15
339.608	19.15
339.739	5.15
339.87	1.15
340.001	-6.85
340.132	1.15
340.263	9.15
340.394	18.15
340.525	9.15
340.656	8.15
340.787	-8.85
340.918	28.15
341.049	6.15
341.179	7.15
341.31	21.15
341.441	17.15
341.572	9.15
341.703	-12.85
341.834	-8.85
341.965	12.15
342.096	-10.85
342.227	-5.85
342.357	7.15
342.488	20.15
342.619	6.15
342.75	-4.85
342.881	-4.85
343.012	5.15
343.142	24.15
343.273	-5.85
343.404	-5.85
343.535	35.15
343.666	15.15
343.796	11.15
343.927	13.15
344.058	6.15
344.189	12.15
344.319	-0.85
344.45	13.15
344.581	6.15
344.712	-19.85
344.842	8.15
344.973	-3.85
345.104	13.15
345.234	12.15
345.365	-8.85
345.496	11.15
345.626	5.15
345.757	13.15
345.888	4.15
346.018	8.15
346.149	6.15
346.28	15.15
346.41	-8.85
346.541	13.15
346.672	1.15
346.802	7.15
346.933	-11.85
347.063	-1.85
347.194	13.15
347.325	29.15
347.455	30.15
347.586	27.15
347.716	-13.85
347.847	12.15
347.977	25.15
348.108	6.15
348.238	17.15
348.369	3.15
348.499	-0.85
348.63	-8.85
348.76	7.15
348.891	6.15
349.021	31.15
349.152	5.15
349.282	3.15
349.413	10.15
349.543	23.15
349.674	-17.85
349.804	9.15
349.935	-7.85
350.065	-3.85
350.196	13.15
350.326	8.15
350.456	9.15
350.587	29.15
350.717	3.15
350.848	9.15
350.978	13.15
351.108	-7.85
351.239	19.15
351.369	1.15
351.499	-3.85
351.63	0.15
351.76	1.15
351.89	13.15
352.021	19.15
352.151	-5.85
352.281	19.15
352.412	12.15
352.542	11.15
352.672	-10.85
352.803	-3.85
352.933	0.15
353.063	-12.85
353.193	18.15
353.324	1.15
353.454	22.15
353.584	5.15
353.714	23.15
353.845	1.15
353.975	-2.85
354.105	-3.85
354.235	3.15
354.365	-0.85
354.496	-1.85
354.626	17.15
354.756	7.15
354.886	-2.85
355.016	8.15
355.146	-5.85
355.277	-2.85
355.407	10.15
355.537	11.15
355.667	15.15
355.797	15.15
355.927	-5.85
356.057	5.15
356.187	-20.85
356.318	3.15
356.448	-1.85
356.578	-0.85
356.708	27.15
356.838	16.15
356.968	7.15
357.098	-2.85
357.228	6.15
357.358	9.15
357.488	-10.85
357.618	16.15
357.748	8.15
357.878	21.15
358.008	-2.85
358.138	-8.85
358.268	2.15
358.398	22.15
358.528	-10.85
358.658	21.15
358.788	6.15
358.918	11.15
359.048	4.15
359.178	13.15
359.308	23.15
359.438	18.15
359.568	27.15
359.698	11.15
359.827	5.15
359.957	19.15
360.087	6.15
360.217	-1.85
360.347	-6.85
360.477	16.15
360.607	-5.85
360.737	10.15
360.866	-6.85
360.996	-5.85
361.126	-4.85
361.256	30.15
361.386	10.15
361.516	27.15
361.645	10.15
361.775	11.15
361.905	-20.85
362.035	6.15
362.165	19.15
362.294	12.15
362.424	24.15
362.554	14.15
362.684	3.15
362.813	20.15
362.943	22.15
363.073	-1.85
363.203	8.15
363.332	-1.85
363.462	-10.85
363.592	19.15
363.721	-9.85
363.851	3.15
363.981	25.15
364.111	16.15
364.24	-10.85
364.37	7.15
364.5	8.15
364.629	13.15
364.759	-5.85
364.888	-10.85
365.018	-5.85
365.148	5.15
365.277	12.15
365.407	3.15
365.537	26.15
365.666	22.15
365.796	9.15
365.925	9.15
366.055	13.15
366.184	2.15
366.314	-8.85
366.444	1.15
366.573	2.15
366.703	27.15
366.832	20.15
366.962	-1.85
367.091	11.15
367.221	4.15
367.35	3.15
367.48	31.15
367.609	12.15
367.739	5.15
367.868	-13.85
367.998	10.15
368.127	15.15
368.257	20.15
368.386	16.15
368.516	17.15
368.645	5.15
368.775	14.15
368.904	7.15
369.033	9.15
369.163	-7.85
369.292	26.15
369.422	18.15
369.551	25.15
369.68	20.15
369.81	-0.85
369.939	-0.85
370.069	7.15
370.198	16.15
370.327	8.15
370.457	7.15
370.586	10.15
370.715	-9.85
370.845	7.15
370.974	-1.85
371.103	41.15
371.233	29.15
371.362	12.15
371.491	-5.85
371.621	21.15
371.75	7.15
371.879	-9.85
372.008	4.15
372.138	9.15
372.267	12.15
372.396	2.15
372.525	6.15
372.655	23.15
372.784	7.15
372.913	4.15
373.042	-1.85
373.172	16.15
373.301	-6.85
373.43	-1.85
373.559	-3.85
373.688	15.15
373.818	17.15
373.947	7.15
374.076	12.15
374.205	22.15
374.334	19.15
374.463	-1.85
374.593	8.15
374.722	11.15
374.851	20.15
374.98	-6.85
375.109	-8.85
375.238	22.15
375.367	46.15
375.496	6.15
375.625	-2.85
375.755	22.15
375.884	31.15
376.013	13.15
376.142	-10.85
376.271	-9.85
376.4	10.15
376.529	3.15
376.658	15.15
376.787	7.15
376.916	15.15
377.045	15.15
377.174	0.15
377.303	15.15
377.432	34.15
377.561	20.15
377.69	15.15
377.819	24.15
377.948	-7.85
378.077	-4.85
378.206	-17.85
378.335	6.15
378.464	20.15
378.593	29.15
378.722	-8.85
378.851	-1.85
378.98	29.15
379.108	2.15
379.237	-4.85
379.366	19.15
379.495	14.15
379.624	27.15
379.753	13.15
379.882	-0.85
380.011	-12.85
380.14	-1.85
380.268	13.15
380.397	-10.85
380.526	7.15
380.655	2.15
380.784	-23.85
380.913	-10.85
381.041	-0.85
381.17	3.15
381.299	3.15
381.428	15.15
381.557	19.15
381.685	26.15
381.814	10.15
381.943	7.15
382.072	-10.85
382.2	-10.85
382.329	7.15
382.458	9.15
382.587	29.15
382.715	21.15
382.844	-0.85
382.973	-2.85
383.102	-4.85
383.23	11.15
383.359	-15.85
383.488	9.15
383.616	7.15
383.745	-3.85
383.874	14.15
384.003	-1.85
384.131	-5.85
384.26	5.15
384.389	27.15
384.517	5.15
384.646	-8.85
384.774	-6.85
384.903	5.15
385.032	22.15
385.16	16.15
385.289	-1.85
385.418	12.15
385.546	7.15
385.675	7.15
385.803	6.15
385.932	8.15
386.06	-2.85
386.189	1.15
386.318	11.15
386.446	-3.85
386.575	15.15
386.703	17.15
386.832	13.15
386.96	-11.85
387.089	18.15
387.217	8.15
387.346	9.15
387.474	1.15
387.603	11.15
387.731	6.15
387.86	3.15
387.988	7.15
388.117	9.15
388.245	2.15
388.374	1.15
388.502	23.15
388.631	-10.85
388.759	-3.85
388.888	-2.85
389.016	-8.85
389.144	16.15
389.273	12.15
389.401	3.15
389.53	1.15
389.658	26.15
389.786	-2.85
389.915	-6.85
390.043	-11.85
390.172	12.15
390.3	18.15
390.428	14.15
390.557	-1.85
390.685	5.15
390.813	13.15
390.942	21.15
391.07	-4.85
391.198	-0.85
391.327	6.15
391.455	3.15
391.583	14.15
391.712	9.15
391.84	19.15
391.968	2.15
392.096	12.15
392.225	12.15
392.353	7.15
392.481	1.15
392.609	-0.85
392.738	11.15
392.866	11.15
392.994	-0.85
393.122	38.15
393.251	1.15
393.379	-8.85
393.507	-9.85
393.635	0.15
393.764	-2.85
393.892	10.15
394.02	-4.85
394.148	-10.85
394.276	11.15
394.404	29.15
394.533	5.15
394.661	20.15
394.789	31.15
394.917	13.15
395.045	-13.85
395.173	-16.85
395.302	-12.85
395.43	2.15
395.558	15.15
395.686	10.15
395.814	29.15
395.942	-13.85
396.07	14.15
396.198	15.15
396.326	23.15
396.454	20.15
396.582	18.15
396.711	-7.85
396.839	9.15
396.967	10.15
397.095	18.15
397.223	16.15
397.351	41.15
397.479	14.15
397.607	7.15
397.735	16.15
397.863	12.15
397.991	18.15
398.119	-2.85
398.247	14.15
398.375	4.15
398.503	4.15
398.631	7.15
398.759	6.15
398.887	3.15
399.015	1.15
399.143	8.15
399.271	21.15
399.399	24.15
399.526	15.15
399.654	5.15
399.782	-8.85
399.91	41.15
400.038	16.15
400.166	-2.85
400.294	-0.85
400.422	-2.85
400.55	11.15
400.678	13.15
400.805	24.15
400.933	10.15
401.061	19.15
401.189	10.15
401.317	27.15
401.445	25.15
401.573	7.15
401.7	3.15
401.828	-2.85
401.956	-9.85
402.084	20.15
402.212	15.15
402.34	7.15
402.467	10.15
402.595	13.15
402.723	1.15
402.851	28.15
402.978	-0.85
403.106	6.15
403.234	7.15
403.362	46.15
403.489	22.15
403.617	17.15
403.745	8.15
403.873	0.15
404	30.15
404.128	20.15
404.256	15.15
404.384	56.15
404.511	39.15
404.639	9.15
404.767	-9.85
404.894	-0.85
405.022	17.15
405.15	13.15
405.277	-18.85
405.405	-1.85
405.533	-2.85
405.66	3.15
405.788	-2.85
405.916	10.15
406.043	-9.85
406.171	-8.85
406.299	26.15
406.426	18.15
406.554	30.15
406.681	29.15
406.809	5.15
406.937	7.15
407.064	14.15
407.192	21.15
407.319	17.15
407.447	6.15
407.574	38.15
407.702	-0.85
407.83	20.15
407.957	-11.85
408.085	17.15
408.212	2.15
408.34	6.15
408.467	14.15
408.595	14.15
408.722	20.15
408.85	11.15
408.977	-7.85
409.105	0.15
409.232	12.15
409.36	13.15
409.487	11.15
409.615	24.15
409.742	22.15
409.87	28.15
409.997	8.15
410.125	29.15
410.252	42.15
410.379	45.15
410.507	26.15
410.634	8.15
410.762	10.15
410.889	18.15
411.017	-4.85
411.144	21.15
411.271	14.15
411.399	5.15
411.526	22.15
411.653	6.15
411.781	22.15
411.908	26.15
412.036	1.15
412.163	34.15
412.29	5.15
412.418	16.15
412.545	11.15
412.672	10.15
412.8	38.15
412.927	16.15
413.054	18.15
413.182	7.15
413.309	23.15
413.436	10.15
413.564	9.15
413.691	5.15
413.818	10.15
413.945	6.15
414.073	6.15
414.2	7.15
414.327	19.15
414.454	22.15
414.582	14.15
414.709	-4.85
414.836	10.15
414.963	12.15
415.091	10.15
415.218	-5.85
415.345	-6.85
415.472	5.15
415.6	21.15
415.727	10.15
415.854	9.15
415.981	16.15
416.108	10.15
416.236	18.15
416.363	22.15
416.49	10.15
416.617	17.15
416.744	14.15
416.871	26.15
416.998	14.15
417.126	3.15
417.253	1.15
417.38	-3.85
417.507	9.15
417.634	7.15
417.761	14.15
417.888	-8.85
418.015	13.15
418.143	1.15
418.27	14.15
418.397	11.15
418.524	10.15
418.651	7.15
418.778	9.15
418.905	17.15
419.032	15.15
419.159	15.15
419.286	33.15
419.413	12.15
419.54	20.15
419.667	1.15
419.794	5.15
419.921	7.15
420.048	10.15
420.175	24.15
420.302	7.15
420.429	13.15
420.556	6.15
420.683	-9.85
420.81	3.15
420.937	22.15
421.064	7.15
421.191	3.15
421.318	11.15
421.445	24.15
421.572	11.15
421.699	8.15
421.826	5.15
421.953	-5.85
422.08	15.15
422.207	6.15
422.334	-13.85
422.461	34.15
422.588	12.15
422.714	6.15
422.841	29.15
422.968	18.15
423.095	-4.85
423.222	9.15
423.349	8.15
423.476	-0.85
423.603	-6.85
423.729	-2.85
423.856	-6.85
423.983	22.15
424.11	4.15
424.237	2.15
424.364	29.15
424.491	13.15
424.617	-6.85
424.744	5.15
424.871	2.15
424.998	-12.85
425.125	10.15
425.251	-2.85
425.378	-7.85
425.505	-4.85
425.632	-0.85
425.758	-7.85
425.885	6.15
426.012	24.15
426.139	22.15
426.266	5.15
426.392	5.15
426.519	13.15
426.646	2.15
426.772	23.15
426.899	7.15
427.026	11.15
427.153	21.15
427.279	23.15
427.406	5.15
427.533	-0.85
427.659	-3.85
427.786	7.15
427.913	15.15
428.039	7.15
428.166	9.15
428.293	10.15
428.419	23.15
428.546	23.15
428.673	-2.85
428.799	-10.85
428.926	6.15
429.053	33.15
429.179	11.15
429.306	6.15
429.433	27.15
429.559	45.15
429.686	-3.85
429.812	13.15
429.939	-5.85
430.066	6.15
430.192	-10.85
430.319	19.15
430.445	4.15
430.572	-1.85
430.699	-18.85
430.825	4.15
430.952	23.15
431.078	-3.85
431.205	28.15
431.331	19.15
431.458	5.15
431.584	23.15
431.711	11.15
431.837	0.15
431.964	4.15
432.09	7.15
432.217	-4.85
432.343	4.15
432.47	9.15
432.596	13.15
432.723	-4.85
432.849	2.15
432.976	19.15
433.102	2.15
433.229	8.15
433.355	21.15
433.482	67.15
433.608	148.15
433.735	149.15
433.861	114.15
433.987	139.15
434.114	217.15
434.24	190.15
434.367	75.15
434.493	14.15
434.62	19.15
434.746	37.15
434.872	21.15
434.999	20.15
435.125	9.15
435.252	16.15
435.378	13.15
435.504	2.15
435.631	20.15
435.757	26.15
435.883	14.15
436.01	12.15
436.136	6.15
436.262	12.15
436.389	-10.85
436.515	8.15
436.641	15.15
436.768	4.15
436.894	23.15
437.02	14.15
437.147	24.15
437.273	12.15
437.399	0.15
437.526	24.15
437.652	26.15
437.778	35.15
437.904	-7.85
438.031	8.15
438.157	-0.85
438.283	12.15
438.409	-13.85
438.536	0.15
438.662	24.15
438.788	14.15
438.914	17.15
439.041	18.15
439.167	31.15
439.293	9.15
439.419	-0.85
439.546	15.15
439.672	5.15
439.798	8.15
439.924	19.15
440.05	29.15
440.177	26.15
440.303	-2.85
440.429	-2.85
440.555	28.15
440.681	9.15
440.807	13.15
440.934	3.15
441.06	-1.85
441.186	6.15
441.312	5.15
441.438	19.15
441.564	10.15
441.69	17.15
441.816	21.15
441.943	9.15
442.069	23.15
442.195	7.15
442.321	1.15
442.447	-5.85
442.573	9.15
442.699	6.15
442.825	-4.85
442.951	8.15
443.077	27.15
443.203	15.15
443.33	0.15
443.456	4.15
443.582	22.15
443.708	19.15
443.834	19.15
443.96	23.15
444.086	14.15
444.212	44.15
444.338	34.15
444.464	28.15
444.59	35.15
444.716	4.15
444.842	15.15
444.968	-5.85
445.094	20.15
445.22	9.15
445.346	-1.85
445.472	17.15
445.598	11.15
445.724	9.15
445.85	15.15
445.976	-1.85
446.102	26.15
446.228	34.15
446.354	11.15
446.48	1.15
446.605	18.15
446.731	19.15
446.857	7.15
446.983	12.15
447.109	11.15
447.235	0.15
447.361	-10.85
447.487	8.15
447.613	12.15
447.739	2.15
447.865	1.15
447.99	-14.85
448.116	4.15
448.242	15.15
448.368	0.15
448.494	5.15
448.62	18.15
448.746	7.15
448.872	14.15
448.997	5.15
449.123	1.15
449.249	26.15
449.375	27.15
449.501	3.15
449.627	-0.85
449.752	29.15
449.878	-0.85
450.004	3.15
450.13	16.15
450.256	22.15
450.381	-9.85
450.507	21.15
450.633	8.15
450.759	21.15
450.884	19.15
451.01	14.15
451.136	15.15
451.262	16.15
451.388	22.15
451.513	9.15
451.639	25.15
451.765	25.15
451.89	34.15
452.016	18.15
452.142	7.15
452.268	15.15
452.393	28.15
452.519	10.15
452.645	8.15
452.771	19.15
452.896	-3.85
453.022	10.15
453.148	15.15
453.273	15.15
453.399	4.15
453.525	-14.85
453.65	-13.85
453.776	22.15
453.902	26.15
454.027	36.15
454.153	23.15
454.279	30.15
454.404	11.15
454.53	37.15
454.656	32.15
454.781	13.15
454.907	-5.85
455.032	3.15
455.158	28.15
455.284	25.15
455.409	27.15
455.535	26.15
455.66	12.15
455.786	14.15
455.912	22.15
456.037	-0.85
456.163	27.15
456.288	10.15
456.414	5.15
456.539	-7.85
456.665	18.15
456.791	1.15
456.916	3.15
457.042	7.15
457.167	2.15
457.293	26.15
457.418	23.15
457.544	3.15
457.669	-4.85
457.795	10.15
457.92	19.15
458.046	34.15
458.171	22.15
458.297	19.15
458.422	2.15
458.548	3.15
458.673	-0.85
458.799	19.15
458.924	18.15
459.05	30.15
459.175	13.15
459.301	-10.85
459.426	27.15
459.552	16.15
459.677	14.15
459.803	36.15
459.928	27.15
460.053	8.15
460.179	15.15
460.304	52.15
460.43	-1.85
460.555	20.15
460.681	20.15
460.806	7.15
460.931	8.15
461.057	14.15
461.182	16.15
461.308	29.15
461.433	14.15
461.558	2.15
461.684	16.15
461.809	28.15
461.934	10.15
462.06	17.15
462.185	-8.85
462.311	7.15
462.436	13.15
462.561	6.15
462.687	-8.85
462.812	4.15
462.937	2.15
463.063	5.15
463.188	-0.85
463.313	22.15
463.439	17.15
463.564	-1.85
463.689	13.15
463.814	-2.85
463.94	-3.85
464.065	10.15
464.19	25.15
464.316	8.15
464.441	8.15
464.566	-0.85
464.692	9.15
464.817	11.15
464.942	-5.85
465.067	11.15
465.193	-2.85
465.318	5.15
465.443	20.15
465.568	9.15
465.694	8.15
465.819	30.15
465.944	-1.85
466.069	8.15
466.194	23.15
466.32	0.15
466.445	-3.85
466.57	-3.85
466.695	-2.85
466.82	21.15
466.946	10.15
467.071	-1.85
467.196	-13.85
467.321	14.15
467.446	8.15
467.572	-7.85
467.697	-7.85
467.822	25.15
467.947	19.15
468.072	13.15
468.197	4.15
468.323	1.15
468.448	6.15
468.573	13.15
468.698	-3.85
468.823	13.15
468.948	27.15
469.073	12.15
469.198	25.15
469.324	5.15
469.449	-1.85
469.574	9.15
469.699	14.15
469.824	17.15
469.949	5.15
470.074	27.15
470.199	60.15
470.324	43.15
470.449	25.15
470.574	13.15
470.7	2.15
470.825	19.15
470.95	21.15
471.075	9.15
471.2	11.15
471.325	36.15
471.45	13.15
471.575	22.15
471.7	9.15
471.825	7.15
471.95	2.15
472.075	9.15
472.2	12.15
472.325	27.15
472.45	6.15
472.575	-3.85
472.7	7.15
472.825	25.15
472.95	16.15
473.075	23.15
473.2	-4.85
473.325	2.15
473.45	9.15
473.575	6.15
473.7	17.15
473.825	15.15
473.95	27.15
474.075	27.15
474.2	13.15
474.325	-5.85
474.45	36.15
474.574	20.15
474.699	25.15
474.824	20.15
474.949	10.15
475.074	7.15
475.199	22.15
475.324	20.15
475.449	21.15
475.574	8.15
475.699	12.15
475.824	14.15
475.949	9.15
476.073	1.15
476.198	7.15
476.323	16.15
476.448	32.15
476.573	1.15
476.698	32.15
476.823	23.15
476.947	10.15
477.072	13.15
477.197	13.15
477.322	0.15
477.447	-7.85
477.572	7.15
477.697	4.15
477.821	1.15
477.946	34.15
478.071	41.15
478.196	30.15
478.321	24.15
478.445	12.15
478.57	1.15
478.695	25.15
478.82	35.15
478.945	22.15
479.069	9.15
479.194	26.15
479.319	10.15
479.444	30.15
479.569	25.15
479.693	37.15
479.818	18.15
479.943	11.15
480.068	20.15
480.192	12.15
480.317	15.15
480.442	4.15
480.567	7.15
480.691	18.15
480.816	15.15
480.941	-3.85
481.066	3.15
481.19	5.15
481.315	21.15
481.44	21.15
481.564	-4.85
481.689	21.15
481.814	8.15
481.938	7.15
482.063	6.15
482.188	5.15
482.313	34.15
482.437	20.15
482.562	16.15
482.687	18.15
482.811	23.15
482.936	15.15
483.061	24.15
483.185	25.15
483.31	25.15
483.435	25.15
483.559	15.15
483.684	9.15
483.808	29.15
483.933	22.15
484.058	19.15
484.182	10.15
484.307	20.15
484.432	22.15
484.556	4.15
484.681	17.15
484.805	28.15
484.93	38.15
485.055	36.15
485.179	83.15
485.304	116.15
485.428	355.15
485.553	1208.15
485.678	1715.15
485.802	1581.15
485.927	1737.15
486.051	2598.15
486.176	1624.15
486.3	427.15
486.425	142.15
486.549	75.15
486.674	71.15
486.799	54.15
486.923	13.15
487.048	37.15
487.172	48.15
487.297	15.15
487.421	29.15
487.546	5.15
487.67	14.15
487.795	8.15
487.919	36.15
488.044	13.15
488.168	6.15
488.293	11.15
488.417	12.15
488.542	16.15
488.666	23.15
488.791	28.15
488.915	6.15
489.04	15.15
489.164	26.15
489.289	26.15
489.413	6.15
489.538	24.15
489.662	21.15
489.786	5.15
489.911	34.15
490.035	17.15
490.16	10.15
490.284	10.15
490.409	-2.85
490.533	7.15
490.658	34.15
490.782	1.15
490.906	23.15
491.031	34.15
491.155	21.15
491.28	19.15
491.404	15.15
491.528	29.15
491.653	19.15
491.777	39.15
491.902	17.15
492.026	32.15
492.15	19.15
492.275	40.15
492.399	25.15
492.524	26.15
492.648	26.15
492.772	18.15
492.897	37.15
493.021	17.15
493.145	22.15
493.27	18.15
493.394	3.15
493.518	17.15
493.643	-1.85
493.767	35.15
493.891	-4.85
494.016	19.15
494.14	24.15
494.264	11.15
494.389	34.15
494.513	6.15
494.637	5.15
494.762	30.15
494.886	14.15
495.01	15.15
495.134	8.15
495.259	36.15
495.383	9.15
495.507	4.15
495.632	29.15
495.756	43.15
495.88	24.15
496.004	11.15
496.129	17.15
496.253	22.15
496.377	10.15
496.501	25.15
496.626	13.15
496.75	21.15
496.874	25.15
496.998	16.15
497.123	27.15
497.247	34.15
497.371	-5.85
497.495	-1.85
497.62	16.15
497.744	12.15
497.868	11.15
497.992	12.15
498.116	1.15
498.241	15.15
498.365	4.15
498.489	15.15
498.613	38.15
498.737	6.15
498.862	1.15
498.986	0.15
499.11	19.15
499.234	20.15
499.358	2.15
499.482	7.15
499.607	9.15
499.731	8.15
499.855	26.15
499.979	33.15
500.103	1.15
500.227	40.15
500.351	28.15
500.476	18.15
500.6	7.15
500.724	7.15
500.848	25.15
500.972	23.15
501.096	0.15
501.22	30.15
501.344	9.15
501.469	13.15
501.593	12.15
501.717	17.15
501.841	23.15
501.965	18.15
502.089	5.15
502.213	21.15
502.337	15.15
502.461	9.15
502.585	7.15
502.709	12.15
502.834	15.15
502.958	14.15
503.082	14.15
503.206	17.15
503.33	19.15
503.454	25.15
503.578	32.15
503.702	13.15
503.826	12.15
503.95	33.15
504.074	26.15
504.198	20.15
504.322	8.15
504.446	-0.85
504.57	23.15
504.694	14.15
504.818	15.15
504.942	30.15
505.066	6.15
505.19	9.15
505.314	22.15
505.438	30.15
505.562	16.15
505.686	16.15
505.81	3.15
505.934	5.15
506.058	7.15
506.182	31.15
506.306	19.15
506.43	2.15
506.554	8.15
506.678	-3.85
506.802	2.15
506.926	7.15
507.05	15.15
507.174	33.15
507.298	25.15
507.422	20.15
507.546	20.15
507.67	21.15
507.794	8.15
507.918	6.15
508.042	16.15
508.165	-5.85
508.289	4.15
508.413	11.15
508.537	11.15
508.661	5.15
508.785	6.15
508.909	17.15
509.033	14.15
509.157	15.15
509.281	3.15
509.405	1.15
509.528	14.15
509.652	23.15
509.776	22.15
509.9	23.15
510.024	23.15
510.148	2.15
510.272	18.15
510.396	9.15
510.519	9.15
510.643	17.15
510.767	22.15
510.891	31.15
511.015	7.15
511.139	11.15
511.263	13.15
511.386	11.15
511.51	9.15
511.634	7.15
511.758	16.15
511.882	-4.85
512.006	-2.85
512.129	11.15
512.253	40.15
512.377	24.15
512.501	11.15
512.625	16.15
512.748	13.15
512.872	1.15
512.996	20.15
513.12	28.15
513.244	23.15
513.367	22.15
513.491	5.15
513.615	22.15
513.739	1.15
513.862	5.15
513.986	14.15
514.11	36.15
514.234	26.15
514.358	39.15
514.481	45.15
514.605	10.15
514.729	18.15
514.853	19.15
514.976	13.15
515.1	11.15
515.224	30.15
515.348	8.15
515.471	2.15
515.595	7.15
515.719	19.15
515.842	27.15
515.966	12.15
516.09	24.15
516.214	18.15
516.337	29.15
516.461	29.15
516.585	21.15
516.708	13.15
516.832	18.15
516.956	30.15
517.08	7.15
517.203	14.15
517.327	7.15
517.451	31.15
517.574	43.15
517.698	8.15
517.822	9.15
517.945	24.15
518.069	36.15
518.193	45.15
518.316	34.15
518.44	37.15
518.564	28.15
518.687	24.15
518.811	31.15
518.935	62.15
519.058	39.15
519.182	44.15
519.306	49.15
519.429	25.15
519.553	53.15
519.676	34.15
519.8	22.15
519.924	19.15
520.047	17.15
520.171	23.15
520.294	13.15
520.418	22.15
520.542	23.15
520.665	35.15
520.789	20.15
520.913	11.15
521.036	-4.85
521.16	-7.85
521.283	10.15
521.407	9.15
521.53	1.15
521.654	-10.85
521.778	28.15
521.901	11.15
522.025	18.15
522.148	-13.85
522.272	3.15
522.395	3.15
522.519	21.15
522.643	17.15
522.766	17.15
522.89	17.15
523.013	10.15
523.137	9.15
523.26	13.15
523.384	21.15
523.507	10.15
523.631	5.15
523.754	1.15
523.878	13.15
524.002	13.15
524.125	-0.85
524.249	-17.85
524.372	26.15
524.496	24.15
524.619	21.15
524.743	14.15
524.866	23.15
524.99	15.15
525.113	12.15
525.237	33.15
525.36	23.15
525.484	10.15
525.607	-5.85
525.731	-12.85
525.854	30.15
525.978	26.15
526.101	3.15
526.224	3.15
526.348	6.15
526.471	13.15
526.595	21.15
526.718	-4.85
526.842	2.15
526.965	18.15
527.089	7.15
527.212	12.15
527.336	21.15
527.459	11.15
527.582	9.15
527.706	28.15
527.829	13.15
527.953	25.15
528.076	2.15
528.2	12.15
528.323	35.15
528.446	32.15
528.57	-3.85
528.693	26.15
528.817	5.15
528.94	21.15
529.064	47.15
529.187	10.15
529.31	1.15
529.434	7.15
529.557	7.15
529.68	11.15
529.804	13.15
529.927	29.15
530.051	18.15
530.174	15.15
530.297	15.15
530.421	18.15
530.544	17.15
530.668	13.15
530.791	-0.85
530.914	28.15
531.038	16.15
531.161	4.15
531.284	0.15
531.408	22.15
531.531	3.15
531.654	9.15
531.778	17.15
531.901	9.15
532.024	13.15
532.148	1.15
532.271	16.15
532.394	16.15
532.518	23.15
532.641	24.15
532.764	35.15
532.888	39.15
533.011	-5.85
533.134	-3.85
533.258	20.15
533.381	11.15
533.504	7.15
533.628	14.15
533.751	23.15
533.874	19.15
533.997	11.15
534.121	-0.85
534.244	32.15
534.367	-1.85
534.491	4.15
534.614	13.15
534.737	3.15
534.86	19.15
534.984	-1.85
535.107	3.15
535.23	6.15
535.354	2.15
535.477	7.15
535.6	2.15
535.723	26.15
535.847	-2.85
535.97	-6.85
536.093	0.15
536.216	13.15
536.34	7.15
536.463	15.15
536.586	39.15
536.709	18.15
536.833	20.15
536.956	1.15
537.079	8.15
537.202	31.15
537.325	10.15
537.449	-8.85
537.572	26.15
537.695	7.15
537.818	10.15
537.941	-8.85
538.065	-9.85
538.188	8.15
538.311	31.15
538.434	17.15
538.558	10.15
538.681	19.15
538.804	15.15
538.927	30.15
539.05	30.15
539.173	14.15
539.297	0.15
539.42	3.15
539.543	15.15
539.666	33.15
539.789	18.15
539.913	23.15
540.036	10.15
540.159	27.15
540.282	-0.85
540.405	-3.85
540.528	8.15
540.651	10.15
540.775	10.15
540.898	7.15
541.021	-9.85
541.144	4.15
541.267	9.15
541.39	16.15
541.513	22.15
541.637	3.15
541.76	12.15
541.883	13.15
542.006	8.15
542.129	36.15
542.252	5.15
542.375	26.15
542.498	20.15
542.622	28.15
542.745	22.15
542.868	11.15
542.991	15.15
543.114	5.15
543.237	20.15
543.36	27.15
543.483	2.15
543.606	14.15
543.73	30.15
543.853	14.15
543.976	7.15
544.099	21.15
544.222	6.15
544.345	4.15
544.468	22.15
544.591	20.15
544.714	14.15
544.837	33.15
544.96	14.15
545.083	-5.85
545.206	17.15
545.329	24.15
545.453	5.15
545.576	7.15
545.699	-2.85
545.822	1.15
545.945	21.15
546.068	-5.85
546.191	16.15
546.314	20.15
546.437	9.15
546.56	12.15
546.683	7.15
546.806	25.15
546.929	6.15
547.052	-5.85
547.175	2.15
547.298	17.15
547.421	-0.85
547.544	-6.85
547.667	7.15
547.79	13.15
547.913	2.15
548.036	9.15
548.159	11.15
548.282	18.15
548.405	6.15
548.528	29.15
548.651	13.15
548.774	11.15
548.897	24.15
549.02	44.15
549.143	33.15
549.266	22.15
549.389	10.15
549.512	2.15
549.635	12.15
549.758	16.15
549.881	-4.85
550.004	10.15
550.127	11.15
550.25	16.15
550.373	2.15
550.496	11.15
550.619	11.15
550.742	17.15
550.865	-19.85
550.988	1.15
551.111	25.15
551.234	13.15
551.356	3.15
551.479	-5.85
551.602	17.15
551.725	18.15
551.848	26.15
551.971	19.15
552.094	9.15
552.217	-6.85
552.34	-5.85
552.463	-6.85
552.586	7.15
552.709	3.15
552.832	18.15
552.955	21.15
553.077	27.15
553.2	16.15
553.323	-4.85
553.446	7.15
553.569	-1.85
553.692	16.15
553.815	5.15
553.938	17.15
554.061	41.15
554.184	3.15
554.306	33.15
554.429	12.15
554.552	12.15
554.675	11.15
554.798	3.15
554.921	18.15
555.044	7.15
555.167	7.15
555.29	10.15
555.412	-4.85
555.535	-5.85
555.658	12.15
555.781	9.15
555.904	7.15
556.027	8.15
556.15	7.15
556.272	-10.85
556.395	5.15
556.518	6.15
556.641	11.15
556.764	27.15
556.887	22.15
557.01	-1.85
557.132	-14.85
557.255	2.15
557.378	21.15
557.501	11.15
557.624	23.15
557.747	18.15
557.869	-0.85
557.992	23.15
558.115	24.15
558.238	7.15
558.361	29.15
558.483	30.15
558.606	9.15
558.729	-0.85
558.852	37.15
558.975	29.15
559.098	41.15
559.22	9.15
559.343	6.15
559.466	10.15
559.589	18.15
559.712	10.15
559.834	2.15
559.957	18.15
560.08	11.15
560.203	34.15
560.325	36.15
560.448	19.15
560.571	-0.85
560.694	8.15
560.817	19.15
560.939	5.15
561.062	13.15
561.185	34.15
561.308	11.15
561.43	-11.85
561.553	21.15
561.676	1.15
561.799	10.15
561.921	5.15
562.044	14.15
562.167	-7.85
562.29	24.15
562.413	24.15
562.535	14.15
562.658	-5.85
562.781	12.15
562.903	6.15
563.026	21.15
563.149	37.15
563.272	23.15
563.394	13.15
563.517	15.15
563.64	2.15
563.763	-3.85
563.885	26.15
564.008	29.15
564.131	18.15
564.254	-6.85
564.376	3.15
564.499	-17.85
564.622	1.15
564.744	2.15
564.867	9.15
564.99	18.15
565.113	6.15
565.235	3.15
565.358	3.15
565.481	0.15
565.603	3.15
565.726	-0.85
565.849	20.15
565.971	33.15
566.094	4.15
566.217	25.15
566.34	17.15
566.462	3.15
566.585	11.15
566.708	51.15
566.83	18.15
566.953	38.15
567.076	10.15
567.198	1.15
567.321	4.15
567.444	4.15
567.566	0.15
567.689	-8.85
567.812	6.15
567.934	12.15
568.057	4.15
568.18	-2.85
568.302	12.15
568.425	6.15
568.548	11.15
568.67	24.15
568.793	3.15
568.916	32.15
569.038	22.15
569.161	12.15
569.283	21.15
569.406	9.15
569.529	-12.85
569.651	11.15
569.774	4.15
569.897	1.15
570.019	29.15
570.142	24.15
570.265	2.15
570.387	19.15
570.51	25.15
570.632	26.15
570.755	-12.85
570.878	16.15
571	-3.85
571.123	17.15
571.246	20.15
571.368	14.15
571.491	15.15
571.613	12.15
571.736	-13.85
571.859	16.15
571.981	-18.85
572.104	-10.85
572.226	3.15
572.349	17.15
572.472	30.15
572.594	11.15
572.717	8.15
572.839	11.15
572.962	29.15
573.085	11.15
573.207	27.15
573.33	16.15
573.452	11.15
573.575	24.15
573.697	34.15
573.82	5.15
573.943	-5.85
574.065	30.15
574.188	22.15
574.31	31.15
574.433	35.15
574.555	42.15
574.678	7.15
574.801	23.15
574.923	-0.85
575.046	21.15
575.168	-9.85
575.291	19.15
575.413	8.15
575.536	11.15
575.659	26.15
575.781	13.15
575.904	-3.85
576.026	5.15
576.149	17.15
576.271	32.15
576.394	-2.85
576.516	7.15
576.639	2.15
576.761	2.15
576.884	5.15
577.007	-2.85
577.129	15.15
577.252	20.15
577.374	33.15
577.497	9.15
577.619	18.15
577.742	-4.85
577.864	6.15
577.987	16.15
578.109	-0.85
578.232	3.15
578.354	34.15
578.477	11.15
578.599	16.15
578.722	13.15
578.844	-4.85
578.967	21.15
579.089	1.15
579.212	6.15
579.334	11.15
579.457	-7.85
579.579	33.15
579.702	-2.85
579.824	-0.85
579.947	6.15
580.069	3.15
580.192	4.15
580.314	18.15
580.437	2.15
580.559	23.15
580.682	18.15
580.804	13.15
580.927	23.15
581.049	46.15
581.172	20.15
581.294	6.15
581.417	27.15
581.539	20.15
581.662	29.15
581.784	18.15
581.907	7.15
582.029	13.15
582.152	-0.85
582.274	21.15
582.396	13.15
582.519	11.15
582.641	-8.85
582.764	1.15
582.886	33.15
583.009	5.15
583.131	6.15
583.254	13.15
583.376	27.15
583.499	23.15
583.621	34.15
583.743	19.15
583.866	34.15
583.988	24.15
584.111	19.15
584.233	30.15
584.356	35.15
584.478	3.15
584.601	-6.85
584.723	2.15
584.845	33.15
584.968	1.15
585.09	8.15
585.213	24.15
585.335	2.15
585.458	12.15
585.58	8.15
585.702	18.15
585.825	35.15
585.947	12.15
586.07	12.15
586.192	6.15
586.315	25.15
586.437	-13.85
586.559	3.15
586.682	-10.85
586.804	14.15
586.927	4.15
587.049	5.15
587.171	44.15
587.294	35.15
587.416	24.15
587.539	14.15
587.661	4.15
587.783	-12.85
587.906	-12.85
588.028	8.15
588.151	18.15
588.273	25.15
588.395	0.15
588.518	-5.85
588.64	-3.85
588.763	33.15
588.885	24.15
589.007	23.15
589.13	-22.85
589.252	-8.85
589.375	9.15
589.497	5.15
589.619	25.15
589.742	-0.85
589.864	16.15
589.986	19.15
590.109	-2.85
590.231	12.15
590.354	21.15
590.476	-6.85
590.598	9.15
590.721	8.15
590.843	17.15
590.965	22.15
591.088	32.15
591.21	17.15
591.332	21.15
591.455	-5.85
591.577	-8.85
591.7	21.15
591.822	17.15
591.944	20.15
592.067	-1.85
592.189	29.15
592.311	21.15
592.434	10.15
592.556	32.15
592.678	5.15
592.801	20.15
592.923	10.15
593.045	3.15
593.168	19.15
593.29	19.15
593.412	21.15
593.535	1.15
593.657	12.15
593.779	-4.85
593.902	11.15
594.024	14.15
594.146	15.15
594.269	10.15
594.391	-2.85
594.513	6.15
594.636	6.15
594.758	-1.85
594.88	19.15
595.003	22.15
595.125	5.15
595.247	17.15
595.37	23.15
595.492	10.15
595.614	36.15
595.737	1.15
595.859	26.15
595.981	8.15
596.104	11.15
596.226	19.15
596.348	7.15
596.471	-3.85
596.593	11.15
596.715	11.15
596.838	0.15
596.96	8.15
597.082	15.15
597.204	15.15
597.327	22.15
597.449	5.15
597.571	17.15
597.694	9.15
597.816	1.15
597.938	13.15
598.061	-0.85
598.183	-8.85
598.305	9.15
598.427	-0.85
598.55	13.15
598.672	6.15
598.794	24.15
598.917	4.15
599.039	20.15
599.161	13.15
599.283	19.15
599.406	4.15
599.528	27.15
599.65	26.15
599.773	26.15
599.895	19.15
600.017	14.15
600.139	18.15
600.262	13.15
600.384	6.15
600.506	22.15
600.628	14.15
600.751	16.15
600.873	10.15
600.995	-8.85
601.118	12.15
601.24	-0.85
601.362	22.15
601.484	26.15
601.607	18.15
601.729	23.15
601.851	7.15
601.973	7.15
602.096	6.15
602.218	22.15
602.34	24.15
602.462	21.15
602.585	9.15
602.707	-6.85
602.829	19.15
602.951	1.15
603.074	-2.85
603.196	18.15
603.318	6.15
603.44	25.15
603.563	21.15
603.685	15.15
603.807	9.15
603.929	9.15
604.052	25.15
604.174	19.15
604.296	14.15
604.418	30.15
604.541	23.15
604.663	-4.85
604.785	5.15
604.907	10.15
605.03	10.15
605.152	32.15
605.274	22.15
605.396	15.15
605.519	19.15
605.641	7.15
605.763	5.15
605.885	25.15
606.008	31.15
606.13	28.15
606.252	26.15
606.374	5.15
606.496	19.15
606.619	6.15
606.741	20.15
606.863	35.15
606.985	27.15
607.108	17.15
607.23	7.15
607.352	17.15
607.474	17.15
607.596	29.15
607.719	-2.85
607.841	25.15
607.963	25.15
608.085	30.15
608.207	21.15
608.33	15.15
608.452	-0.85
608.574	1.15
608.696	12.15
608.819	15.15
608.941	14.15
609.063	-4.85
609.185	-2.85
609.307	17.15
609.43	37.15
609.552	25.15
609.674	8.15
609.796	20.15
609.918	27.15
610.041	20.15
610.163	20.15
610.285	11.15
610.407	29.15
610.529	1.15
610.652	18.15
610.774	29.15
610.896	5.15
611.018	19.15
611.14	22.15
611.263	3.15
611.385	-4.85
611.507	34.15
611.629	16.15
611.751	7.15
611.873	34.15
611.996	19.15
612.118	10.15
612.24	10.15
612.362	26.15
612.484	38.15
612.607	19.15
612.729	33.15
612.851	19.15
612.973	4.15
613.095	11.15
613.218	15.15
613.34	22.15
613.462	19.15
613.584	16.15
613.706	25.15
613.828	45.15
613.951	23.15
614.073	-7.85
614.195	-11.85
614.317	28.15
614.439	18.15
614.561	1.15
614.684	-3.85
614.806	17.15
614.928	29.15
615.05	17.15
615.172	17.15
615.294	15.15
615.417	19.15
615.539	6.15
615.661	7.15
615.783	17.15
615.905	37.15
616.027	63.15
616.15	100.15
616.272	83.15
616.394	61.15
616.516	36.15
616.638	26.15
616.76	9.15
616.883	5.15
617.005	11.15
617.127	13.15
617.249	2.15
617.371	14.15
617.493	22.15
617.615	25.15
617.738	30.15
617.86	15.15
617.982	5.15
618.104	7.15
618.226	6.15
618.348	-6.85
618.471	7.15
618.593	9.15
618.715	-12.85
618.837	22.15
618.959	23.15
619.081	30.15
619.203	7.15
619.326	7.15
619.448	-3.85
619.57	10.15
619.692	17.15
619.814	26.15
619.936	30.15
620.058	19.15
620.181	9.15
620.303	17.15
620.425	27.15
620.547	15.15
620.669	13.15
620.791	12.15
620.913	22.15
621.036	-1.85
621.158	20.15
621.28	29.15
621.402	17.15
621.524	0.15
621.646	13.15
621.768	14.15
621.891	-4.85
622.013	12.15
622.135	-3.85
622.257	8.15
622.379	13.15
622.501	11.15
622.623	10.15
622.745	2.15
622.868	20.15
622.99	15.15
623.112	8.15
623.234	15.15
623.356	7.15
623.478	3.15
623.6	2.15
623.722	5.15
623.845	17.15
623.967	6.15
624.089	3.15
624.211	2.15
624.333	18.15
624.455	16.15
624.577	15.15
624.699	10.15
624.822	13.15
624.944	1.15
625.066	18.15
625.188	1.15
625.31	-1.85
625.432	26.15
625.554	9.15
625.676	35.15
625.799	18.15
625.921	27.15
626.043	22.15
626.165	16.15
626.287	-9.85
626.409	22.15
626.531	-9.85
626.653	1.15
626.775	4.15
626.898	21.15
627.02	9.15
627.142	36.15
627.264	17.15
627.386	17.15
627.508	-0.85
627.63	-2.85
627.752	6.15
627.874	25.15
627.997	19.15
628.119	28.15
628.241	21.15
628.363	23.15
628.485	13.15
628.607	18.15
628.729	-1.85
628.851	15.15
628.973	8.15
629.096	9.15
629.218	7.15
629.34	23.15
629.462	2.15
629.584	12.15
629.706	21.15
629.828	29.15
629.95	-4.85
630.072	17.15
630.195	1.15
630.317	29.15
630.439	6.15
630.561	21.15
630.683	-5.85
630.805	22.15
630.927	21.15
631.049	13.15
631.171	21.15
631.293	21.15
631.416	22.15
631.538	15.15
631.66	14.15
631.782	30.15
631.904	28.15
632.026	1.15
632.148	21.15
632.27	-5.85
632.392	10.15
632.514	18.15
632.637	-3.85
632.759	4.15
632.881	-1.85
633.003	2.15
633.125	9.15
633.247	21.15
633.369	23.15
633.491	27.15
633.613	22.15
633.735	5.15
633.858	6.15
633.98	23.15
634.102	6.15
634.224	-1.85
634.346	-1.85
634.468	14.15
634.59	30.15
634.712	3.15
634.834	26.15
634.956	2.15
635.078	-8.85
635.201	-2.85
635.323	8.15
635.445	2.15
635.567	-5.85
635.689	3.15
635.811	13.15
635.933	-0.85
636.055	28.15
636.177	4.15
636.299	16.15
636.421	-3.85
636.544	-14.85
636.666	7.15
636.788	-0.85
636.91	-2.85
637.032	-6.85
637.154	0.15
637.276	15.15
637.398	21.15
637.52	19.15
637.642	15.15
637.764	6.15
637.887	6.15
638.009	13.15
638.131	16.15
638.253	1.15
638.375	27.15
638.497	38.15
638.619	2.15
638.741	12.15
638.863	-12.85
638.985	-10.85
639.107	7.15
639.23	-3.85
639.352	18.15
639.474	1.15
639.596	2.15
639.718	1.15
639.84	-5.85
639.962	5.15
640.084	17.15
640.206	14.15
640.328	0.15
640.45	13.15
640.573	19.15
640.695	18.15
640.817	13.15
640.939	23.15
641.061	0.15
641.183	11.15
641.305	8.15
641.427	-3.85
641.549	6.15
641.671	2.15
641.793	3.15
641.915	17.15
642.038	16.15
642.16	9.15
642.282	-1.85
642.404	1.15
642.526	22.15
642.648	4.15
642.77	18.15
642.892	9.15
643.014	23.15
643.136	10.15
643.258	7.15
643.381	20.15
643.503	19.15
643.625	11.15
643.747	0.15
643.869	10.15
643.991	17.15
644.113	9.15
644.235	9.15
644.357	11.15
644.479	24.15
644.601	21.15
644.723	22.15
644.846	19.15
644.968	20.15
645.09	-1.85
645.212	-9.85
645.334	5.15
645.456	28.15
645.578	14.15
645.7	21.15
645.822	12.15
645.944	10.15
646.066	7.15
646.188	20.15
646.311	21.15
646.433	16.15
646.555	44.15
646.677	49.15
646.799	34.15
646.921	17.15
647.043	19.15
647.165	7.15
647.287	8.15
647.409	0.15
647.531	19.15
647.654	-11.85
647.776	10.15
647.898	11.15
648.02	19.15
648.142	-6.85
648.264	12.15
648.386	-7.85
648.508	-9.85
648.63	6.15
648.752	9.15
648.874	8.15
648.997	2.15
649.119	17.15
649.241	16.15
649.363	25.15
649.485	15.15
649.607	13.15
649.729	14.15
649.851	7.15
649.973	5.15
650.095	1.15
650.217	10.15
650.34	7.15
650.462	31.15
650.584	19.15
650.706	30.15
650.828	21.15
650.95	3.15
651.072	10.15
651.194	-8.85
651.316	3.15
651.438	14.15
651.56	9.15
651.683	-9.85
651.805	21.15
651.927	25.15
652.049	19.15
652.171	3.15
652.293	14.15
652.415	2.15
652.537	-0.85
652.659	13.15
652.781	18.15
652.903	31.15
653.026	12.15
653.148	2.15
653.27	-2.85
653.392	6.15
653.514	-3.85
653.636	-10.85
653.758	14.15
653.88	0.15
654.002	14.15
654.124	20.15
654.247	8.15
654.369	19.15
654.491	24.15
654.613	16.15
654.735	2.15
654.857	12.15
654.979	27.15
655.101	37.15
655.223	57.15
655.345	23.15
655.468	35.15
655.59	31.15
655.712	39.15
655.834	25.15
655.956	36.15
656.078	46.15
656.2	52.15
656.322	38.15
656.444	11.15
656.566	40.15
656.689	47.15
656.811	59.15
656.933	81.15
657.055	86.15
657.177	153.15
657.299	241.15
657.421	474.15
657.543	1871.15
657.665	12438.15
657.787	15162.15
657.91	15196.15
658.032	15664.15
658.154	4535.15
658.276	3052.15
658.398	1092.15
658.52	995.15
658.642	457.15
658.764	585.15
658.886	243.15
659.009	391.15
659.131	209.15
659.253	299.15
659.375	153.15
659.497	231.15
659.619	140.15
659.741	195.15
659.863	70.15
659.985	152.15
660.108	108.15
660.23	161.15
660.352	89.15
660.474	157.15
660.596	85.15
660.718	130.15
660.84	73.15
660.962	125.15
661.084	59.15
661.207	95.15
661.329	74.15
661.451	83.15
661.573	55.15
661.695	117.15
661.817	54.15
661.939	85.15
662.061	65.15
662.184	61.15
662.306	35.15
662.428	55.15
662.55	65.15
662.672	69.15
662.794	44.15
662.916	67.15
663.038	33.15
663.161	62.15
663.283	53.15
663.405	68.15
663.527	27.15
663.649	66.15
663.771	50.15
663.893	56.15
664.015	25.15
664.138	43.15
664.26	29.15
664.382	44.15
664.504	30.15
664.626	27.15
664.748	25.15
664.87	36.15
664.992	37.15
665.115	57.15
665.237	15.15
665.359	34.15
665.481	26.15
665.603	32.15
665.725	14.15
665.847	19.15
665.97	8.15
666.092	54.15
666.214	18.15
666.336	44.15
666.458	16.15
666.58	29.15
666.702	9.15
666.825	38.15
666.947	8.15
667.069	35.15
667.191	19.15
667.313	37.15
667.435	3.15
667.557	21.15
667.68	13.15
667.802	28.15
667.924	30.15
668.046	20.15
668.168	37.15
668.29	35.15
668.412	29.15
668.535	41.15
668.657	16.15
668.779	20.15
668.901	20.15
669.023	38.15
669.145	11.15
669.267	35.15
669.39	14.15
669.512	17.15
669.634	23.15
669.756	17.15
669.878	21.15
670	39.15
670.123	11.15
670.245	34.15
670.367	22.15
670.489	29.15
670.611	19.15
670.733	34.15
670.856	27.15
670.978	42.15
671.1	24.15
671.222	23.15
671.344	11.15
671.466	17.15
671.589	6.15
671.711	21.15
671.833	3.15
671.955	21.15
672.077	18.15
672.199	44.15
672.322	37.15
672.444	29.15
672.566	30.15
672.688	37.15
672.81	27.15
672.932	30.15
673.055	3.15
673.177	8.15
673.299	31.15
673.421	10.15
673.543	11.15
673.665	38.15
673.788	3.15
673.91	2.15
674.032	-17.85
674.154	22.15
674.276	21.15
674.399	4.15
674.521	9.15
674.643	26.15
674.765	-17.85
674.887	17.15
675.009	28.15
675.132	11.15
675.254	-6.85
675.376	9.15
675.498	-2.85
675.62	17.15
675.743	9.15
675.865	25.15
675.987	-0.85
676.109	15.15
676.231	11.15
676.354	38.15
676.476	16.15
676.598	34.15
676.72	15.15
676.842	30.15
676.965	29.15
677.087	15.15
677.209	13.15
677.331	26.15
677.453	21.15
677.576	23.15
677.698	10.15
677.82	28.15
677.942	4.15
678.064	7.15
678.187	21.15
678.309	36.15
678.431	13.15
678.553	18.15
678.675	38.15
678.798	54.15
678.92	18.15
679.042	22.15
679.164	2.15
679.286	24.15
679.409	-5.85
679.531	19.15
679.653	4.15
679.775	8.15
679.898	-6.85
680.02	8.15
680.142	-2.85
680.264	21.15
680.386	-5.85
680.509	31.15
680.631	21.15
680.753	16.15
680.875	-2.85
680.998	15.15
681.12	-5.85
681.242	10.15
681.364	-14.85
681.486	15.15
681.609	12.15
681.731	18.15
681.853	13.15
681.975	9.15
682.098	26.15
682.22	30.15
682.342	10.15
682.464	41.15
682.587	7.15
682.709	5.15
682.831	-4.85
682.953	-6.85
683.076	18.15
683.198	14.15
683.32	15.15
683.442	9.15
683.565	11.15
683.687	16.15
683.809	-1.85
683.931	-3.85
684.054	28.15
684.176	16.15
684.298	23.15
684.42	2.15
684.543	3.15
684.665	2.15
684.787	-3.85
684.909	-9.85
685.032	15.15
685.154	7.15
685.276	21.15
685.398	19.15
685.521	9.15
685.643	17.15
685.765	21.15
685.887	12.15
686.01	2.15
686.132	21.15
686.254	6.15
686.377	37.15
686.499	20.15
686.621	21.15
686.743	13.15
686.866	21.15
686.988	28.15
687.11	26.15
687.232	15.15
687.355	5.15
687.477	13.15
687.599	26.15
687.722	13.15
687.844	6.15
687.966	5.15
688.088	18.15
688.211	29.15
688.333	9.15
688.455	15.15
688.578	27.15
688.7	26.15
688.822	10.15
688.944	-7.85
689.067	44.15
689.189	19.15
689.311	-13.85
689.434	-0.85
689.556	22.15
689.678	5.15
689.801	8.15
689.923	14.15
690.045	23.15
690.167	23.15
690.29	29.15
690.412	11.15
690.534	25.15
690.657	-0.85
690.779	-0.85
690.901	13.15
691.024	-5.85
691.146	11.15
691.268	-10.85
691.391	17.15
691.513	35.15
691.635	22.15
691.758	28.15
691.88	20.15
692.002	-7.85
692.125	-5.85
692.247	2.15
692.369	1.15
692.492	9.15
692.614	7.15
692.736	6.15
692.859	-1.85
692.981	2.15
693.103	-8.85
693.226	21.15
693.348	29.15
693.47	5.15
693.593	2.15
693.715	-8.85
693.837	-6.85
693.96	-13.85
694.082	-8.85
694.204	13.15
694.327	1.15
694.449	2.15
694.571	23.15
694.694	33.15
694.816	33.15
694.938	8.15
695.061	13.15
695.183	19.15
695.305	12.15
695.428	24.15
695.55	0.15
695.672	1.15
695.795	18.15
695.917	43.15
696.04	6.15
696.162	17.15
696.284	2.15
696.407	7.15
696.529	6.15
696.651	16.15
696.774	4.15
696.896	22.15
697.019	9.15
697.141	10.15
697.263	1.15
697.386	11.15
697.508	23.15
697.63	25.15
697.753	20.15
697.875	-0.85
697.998	-2.85
698.12	18.15
698.242	13.15
698.365	-12.85
698.487	6.15
698.61	22.15
698.732	13.15
698.854	22.15
698.977	16.15
699.099	33.15
699.221	1.15
699.344	12.15
699.466	11.15
699.589	12.15
699.711	-2.85
699.834	7.15
699.956	13.15
700.078	1.15
700.201	-4.85
700.323	15.15
700.446	1.15
700.568	-19.85
700.69	5.15
700.813	14.15
700.935	-8.85
701.058	6.15
701.18	5.15
701.302	11.15
701.425	4.15
701.547	33.15
701.67	-1.85
701.792	17.15
701.915	3.15
702.037	1.15
702.159	9.15
702.282	17.15
702.404	14.15
702.527	27.15
702.649	39.15
702.772	9.15
702.894	13.15
703.017	15.15
703.139	-2.85
703.261	25.15
703.384	4.15
703.506	-5.85
703.629	-0.85
703.751	10.15
703.874	-5.85
703.996	8.15
704.119	-2.85
704.241	11.15
704.364	-12.85
704.486	17.15
704.608	17.15
704.731	26.15
704.853	27.15
704.976	-5.85
705.098	19.15
705.221	16.15
705.343	4.15
705.466	27.15
705.588	15.15
705.711	17.15
705.833	14.15
705.956	11.15
706.078	15.15
706.201	13.15
706.323	-9.85
706.446	6.15
