Data from LowRes_H2_15_26_11_07_2024_HR4C61881__23__15-28-15-937.txt Node

Date: Thu Nov 07 15:28:15 EST 2024
User: crc00042
Spectrometer: HR4C6188
Trigger mode: 4
Integration Time (sec): 1.000000E-1
Scans to average: 1
Electric dark correction enabled: true
Nonlinearity correction enabled: false
Boxcar width: 0
XAxis mode: Wavelengths
Number of Pixels in Spectrum: 3648
>>>>>Begin Spectral Data<<<<<
245.66	-119.85
245.797	-119.85
245.934	-119.85
246.071	-73.85
246.208	-3.85
246.344	4.15
246.481	4.15
246.618	-12.85
246.755	22.15
246.892	3.15
247.029	-12.85
247.165	-6.85
247.302	8.15
247.439	-3.85
247.576	6.15
247.713	-25.85
247.849	23.15
247.986	-8.85
248.123	10.15
248.26	2.15
248.396	20.15
248.533	15.15
248.67	-20.85
248.806	-5.85
248.943	-12.85
249.08	11.15
249.216	13.15
249.353	-5.85
249.49	6.15
249.626	-24.85
249.763	-0.85
249.9	0.15
250.036	1.15
250.173	16.15
250.309	3.15
250.446	8.15
250.582	-2.85
250.719	-1.85
250.856	-15.85
250.992	-9.85
251.129	4.15
251.265	13.15
251.402	16.15
251.538	13.15
251.675	-7.85
251.811	11.15
251.948	34.15
252.084	9.15
252.221	12.15
252.357	2.15
252.493	46.15
252.63	10.15
252.766	19.15
252.903	11.15
253.039	-10.85
253.175	3.15
253.312	19.15
253.448	2.15
253.585	2.15
253.721	8.15
253.857	-4.85
253.994	14.15
254.13	14.15
254.266	13.15
254.403	21.15
254.539	5.15
254.675	26.15
254.811	20.15
254.948	-3.85
255.084	0.15
255.22	-4.85
255.356	-4.85
255.493	18.15
255.629	18.15
255.765	6.15
255.901	19.15
256.037	14.15
256.174	10.15
256.31	-4.85
256.446	6.15
256.582	20.15
256.718	17.15
256.854	22.15
256.991	9.15
257.127	21.15
257.263	2.15
257.399	-9.85
257.535	-5.85
257.671	-4.85
257.807	-9.85
257.943	-12.85
258.079	-9.85
258.215	-6.85
258.351	22.15
258.487	-4.85
258.623	36.15
258.759	-4.85
258.895	1.15
259.031	-6.85
259.167	-10.85
259.303	30.15
259.439	16.15
259.575	15.15
259.711	12.15
259.847	3.15
259.983	15.15
260.119	4.15
260.255	-18.85
260.391	11.15
260.527	-2.85
260.663	21.15
260.799	6.15
260.934	-9.85
261.07	-7.85
261.206	-12.85
261.342	-21.85
261.478	30.15
261.614	24.15
261.749	19.15
261.885	-5.85
262.021	-5.85
262.157	16.15
262.293	13.15
262.428	7.15
262.564	-1.85
262.7	8.15
262.836	-8.85
262.971	20.15
263.107	-6.85
263.243	37.15
263.378	8.15
263.514	-19.85
263.65	-2.85
263.785	-8.85
263.921	9.15
264.057	-7.85
264.192	26.15
264.328	17.15
264.464	-2.85
264.599	8.15
264.735	26.15
264.871	-17.85
265.006	4.15
265.142	6.15
265.277	7.15
265.413	33.15
265.548	9.15
265.684	16.15
265.819	10.15
265.955	-4.85
266.091	-24.85
266.226	-1.85
266.362	8.15
266.497	12.15
266.633	-8.85
266.768	13.15
266.903	35.15
267.039	6.15
267.174	14.15
267.31	11.15
267.445	15.15
267.581	-4.85
267.716	7.15
267.851	18.15
267.987	26.15
268.122	30.15
268.258	-0.85
268.393	8.15
268.528	12.15
268.664	0.15
268.799	-9.85
268.934	0.15
269.07	-8.85
269.205	23.15
269.34	31.15
269.476	4.15
269.611	2.15
269.746	17.15
269.881	4.15
270.017	25.15
270.152	19.15
270.287	7.15
270.422	7.15
270.558	-4.85
270.693	4.15
270.828	-5.85
270.963	-9.85
271.098	4.15
271.234	-4.85
271.369	17.15
271.504	0.15
271.639	-11.85
271.774	-13.85
271.909	-0.85
272.045	-22.85
272.18	9.15
272.315	-14.85
272.45	23.15
272.585	-0.85
272.72	-2.85
272.855	4.15
272.99	15.15
273.125	2.15
273.26	-0.85
273.395	-3.85
273.53	15.15
273.665	28.15
273.8	7.15
273.935	3.15
274.07	13.15
274.205	-1.85
274.34	5.15
274.475	-7.85
274.61	16.15
274.745	4.15
274.88	28.15
275.015	-2.85
275.15	6.15
275.285	13.15
275.42	9.15
275.555	28.15
275.69	-0.85
275.825	-4.85
275.959	5.15
276.094	-22.85
276.229	-12.85
276.364	0.15
276.499	13.15
276.634	-10.85
276.768	-7.85
276.903	0.15
277.038	27.15
277.173	9.15
277.308	1.15
277.442	-10.85
277.577	-0.85
277.712	10.15
277.847	10.15
277.981	15.15
278.116	-15.85
278.251	10.15
278.386	14.15
278.52	10.15
278.655	-8.85
278.79	17.15
278.924	15.15
279.059	16.15
279.194	-6.85
279.328	12.15
279.463	22.15
279.598	32.15
279.732	11.15
279.867	-3.85
280.001	13.15
280.136	-1.85
280.271	29.15
280.405	26.15
280.54	18.15
280.674	-12.85
280.809	28.15
280.943	6.15
281.078	8.15
281.213	28.15
281.347	32.15
281.482	-7.85
281.616	-8.85
281.751	2.15
281.885	-14.85
282.02	2.15
282.154	7.15
282.288	-11.85
282.423	3.15
282.557	-10.85
282.692	5.15
282.826	22.15
282.961	0.15
283.095	-8.85
283.229	5.15
283.364	-21.85
283.498	8.15
283.633	9.15
283.767	4.15
283.901	-5.85
284.036	-5.85
284.17	4.15
284.304	10.15
284.439	6.15
284.573	5.15
284.707	18.15
284.842	-16.85
284.976	2.15
285.11	-8.85
285.244	11.15
285.379	39.15
285.513	-7.85
285.647	-10.85
285.781	5.15
285.916	31.15
286.05	4.15
286.184	39.15
286.318	14.15
286.453	-7.85
286.587	-12.85
286.721	-2.85
286.855	6.15
286.989	3.15
287.123	9.15
287.258	-3.85
287.392	1.15
287.526	20.15
287.66	10.15
287.794	-2.85
287.928	2.15
288.062	-1.85
288.196	6.15
288.33	9.15
288.464	26.15
288.598	32.15
288.733	18.15
288.867	28.15
289.001	-0.85
289.135	-2.85
289.269	2.15
289.403	3.15
289.537	19.15
289.671	12.15
289.805	1.15
289.939	18.15
290.073	9.15
290.207	-3.85
290.34	-13.85
290.474	9.15
290.608	11.15
290.742	15.15
290.876	4.15
291.01	8.15
291.144	44.15
291.278	11.15
291.412	2.15
291.546	17.15
291.679	4.15
291.813	15.15
291.947	13.15
292.081	-12.85
292.215	-1.85
292.349	11.15
292.482	8.15
292.616	-7.85
292.75	-1.85
292.884	17.15
293.018	-9.85
293.151	-21.85
293.285	12.15
293.419	-1.85
293.553	5.15
293.686	-10.85
293.82	2.15
293.954	28.15
294.088	29.15
294.221	20.15
294.355	-1.85
294.489	9.15
294.622	-3.85
294.756	2.15
294.89	2.15
295.023	15.15
295.157	14.15
295.291	5.15
295.424	15.15
295.558	9.15
295.691	8.15
295.825	-5.85
295.959	23.15
296.092	-4.85
296.226	7.15
296.359	29.15
296.493	1.15
296.627	15.15
296.76	-1.85
296.894	15.15
297.027	-4.85
297.161	-7.85
297.294	-7.85
297.428	-1.85
297.561	28.15
297.695	3.15
297.828	21.15
297.962	-2.85
298.095	-10.85
298.229	13.15
298.362	-4.85
298.495	-15.85
298.629	1.15
298.762	8.15
298.896	0.15
299.029	-10.85
299.162	8.15
299.296	-1.85
299.429	-1.85
299.563	-2.85
299.696	-4.85
299.829	-1.85
299.963	-5.85
300.096	3.15
300.229	12.15
300.363	-3.85
300.496	13.15
300.629	-7.85
300.763	-4.85
300.896	1.15
301.029	-6.85
301.162	13.15
301.296	7.15
301.429	-14.85
301.562	-17.85
301.695	8.15
301.829	18.15
301.962	30.15
302.095	16.15
302.228	-9.85
302.362	-4.85
302.495	-9.85
302.628	6.15
302.761	-11.85
302.894	5.15
303.027	29.15
303.161	6.15
303.294	-7.85
303.427	17.15
303.56	14.15
303.693	-7.85
303.826	-11.85
303.959	2.15
304.092	-1.85
304.225	11.15
304.359	11.15
304.492	22.15
304.625	-7.85
304.758	1.15
304.891	4.15
305.024	5.15
305.157	5.15
305.29	-8.85
305.423	-7.85
305.556	20.15
305.689	23.15
305.822	-11.85
305.955	-2.85
306.088	6.15
306.221	3.15
306.354	8.15
306.487	-5.85
306.62	0.15
306.752	-4.85
306.885	-0.85
307.018	3.15
307.151	3.15
307.284	25.15
307.417	-4.85
307.55	14.15
307.683	7.15
307.816	16.15
307.948	5.15
308.081	14.15
308.214	7.15
308.347	40.15
308.48	11.15
308.613	-32.85
308.745	5.15
308.878	0.15
309.011	13.15
309.144	16.15
309.277	2.15
309.409	19.15
309.542	7.15
309.675	9.15
309.808	-9.85
309.94	31.15
310.073	1.15
310.206	6.15
310.339	4.15
310.471	-4.85
310.604	11.15
310.737	-7.85
310.869	16.15
311.002	2.15
311.135	2.15
311.267	-5.85
311.4	-0.85
311.533	26.15
311.665	9.15
311.798	1.15
311.93	8.15
312.063	23.15
312.196	4.15
312.328	-4.85
312.461	-0.85
312.593	0.15
312.726	0.15
312.859	-0.85
312.991	9.15
313.124	-6.85
313.256	12.15
313.389	12.15
313.521	-8.85
313.654	-9.85
313.786	-12.85
313.919	12.15
314.051	22.15
314.184	21.15
314.316	16.15
314.449	-7.85
314.581	2.15
314.714	11.15
314.846	19.15
314.978	-19.85
315.111	-0.85
315.243	-6.85
315.376	6.15
315.508	-1.85
315.641	14.15
315.773	5.15
315.905	4.15
316.038	-7.85
316.17	0.15
316.302	12.15
316.435	10.15
316.567	4.15
316.699	8.15
316.832	-18.85
316.964	-0.85
317.096	10.15
317.229	-4.85
317.361	-9.85
317.493	-11.85
317.625	-4.85
317.758	12.15
317.89	8.15
318.022	10.15
318.155	6.15
318.287	10.15
318.419	-4.85
318.551	24.15
318.683	10.15
318.816	-11.85
318.948	1.15
319.08	-1.85
319.212	6.15
319.344	1.15
319.477	3.15
319.609	14.15
319.741	18.15
319.873	3.15
320.005	7.15
320.137	14.15
320.269	8.15
320.401	2.15
320.534	10.15
320.666	-5.85
320.798	-12.85
320.93	-11.85
321.062	-24.85
321.194	-11.85
321.326	-5.85
321.458	-0.85
321.59	0.15
321.722	2.15
321.854	15.15
321.986	8.15
322.118	3.15
322.25	2.15
322.382	20.15
322.514	9.15
322.646	-2.85
322.778	18.15
322.91	0.15
323.042	4.15
323.174	-2.85
323.306	-10.85
323.438	-10.85
323.57	4.15
323.702	21.15
323.834	3.15
323.966	-0.85
324.097	14.15
324.229	13.15
324.361	12.15
324.493	-13.85
324.625	-21.85
324.757	15.15
324.889	-3.85
325.021	7.15
325.152	0.15
325.284	26.15
325.416	-2.85
325.548	19.15
325.68	-17.85
325.811	17.15
325.943	7.15
326.075	-5.85
326.207	19.15
326.339	31.15
326.47	10.15
326.602	27.15
326.734	10.15
326.866	5.15
326.997	-8.85
327.129	3.15
327.261	-25.85
327.392	10.15
327.524	-16.85
327.656	0.15
327.787	-0.85
327.919	1.15
328.051	13.15
328.182	16.15
328.314	17.15
328.446	-8.85
328.577	9.15
328.709	25.15
328.841	-9.85
328.972	-5.85
329.104	-7.85
329.235	16.15
329.367	12.15
329.499	3.15
329.63	7.15
329.762	19.15
329.893	2.15
330.025	2.15
330.156	-11.85
330.288	21.15
330.419	24.15
330.551	25.15
330.683	11.15
330.814	9.15
330.946	19.15
331.077	13.15
331.208	-6.85
331.34	10.15
331.471	-16.85
331.603	10.15
331.734	-18.85
331.866	7.15
331.997	20.15
332.129	-3.85
332.26	-7.85
332.392	25.15
332.523	10.15
332.654	-0.85
332.786	-3.85
332.917	-1.85
333.048	18.15
333.18	33.15
333.311	-8.85
333.443	-1.85
333.574	12.15
333.705	35.15
333.837	-21.85
333.968	-5.85
334.099	6.15
334.231	20.15
334.362	2.15
334.493	16.15
334.624	16.15
334.756	13.15
334.887	12.15
335.018	7.15
335.15	6.15
335.281	1.15
335.412	14.15
335.543	6.15
335.675	14.15
335.806	22.15
335.937	-0.85
336.068	15.15
336.199	27.15
336.331	3.15
336.462	-5.85
336.593	4.15
336.724	4.15
336.855	-15.85
336.986	6.15
337.118	-3.85
337.249	-4.85
337.38	15.15
337.511	4.15
337.642	15.15
337.773	10.15
337.904	8.15
338.035	15.15
338.166	-5.85
338.298	18.15
338.429	0.15
338.56	2.15
338.691	12.15
338.822	11.15
338.953	9.15
339.084	10.15
339.215	21.15
339.346	-25.85
339.477	2.15
339.608	13.15
339.739	9.15
339.87	-6.85
340.001	0.15
340.132	17.15
340.263	16.15
340.394	5.15
340.525	7.15
340.656	7.15
340.787	7.15
340.918	13.15
341.049	13.15
341.179	9.15
341.31	13.15
341.441	10.15
341.572	6.15
341.703	9.15
341.834	-9.85
341.965	9.15
342.096	5.15
342.227	6.15
342.357	13.15
342.488	10.15
342.619	9.15
342.75	6.15
342.881	1.15
343.012	36.15
343.142	44.15
343.273	-8.85
343.404	7.15
343.535	40.15
343.666	21.15
343.796	3.15
343.927	19.15
344.058	30.15
344.189	26.15
344.319	19.15
344.45	11.15
344.581	11.15
344.712	-8.85
344.842	-3.85
344.973	2.15
345.104	26.15
345.234	1.15
345.365	-5.85
345.496	1.15
345.626	10.15
345.757	16.15
345.888	-17.85
346.018	16.15
346.149	9.15
346.28	34.15
346.41	-8.85
346.541	1.15
346.672	6.15
346.802	24.15
346.933	13.15
347.063	13.15
347.194	-2.85
347.325	3.15
347.455	25.15
347.586	16.15
347.716	0.15
347.847	16.15
347.977	15.15
348.108	21.15
348.238	22.15
348.369	0.15
348.499	25.15
348.63	13.15
348.76	14.15
348.891	13.15
349.021	10.15
349.152	-1.85
349.282	-1.85
349.413	-0.85
349.543	19.15
349.674	-3.85
349.804	22.15
349.935	2.15
350.065	-20.85
350.196	-22.85
350.326	-1.85
350.456	-11.85
350.587	7.15
350.717	-5.85
350.848	3.15
350.978	27.15
351.108	-4.85
351.239	19.15
351.369	-0.85
351.499	-1.85
351.63	-4.85
351.76	-12.85
351.89	2.15
352.021	-4.85
352.151	0.15
352.281	6.15
352.412	13.15
352.542	-4.85
352.672	19.15
352.803	8.15
352.933	13.15
353.063	1.15
353.193	16.15
353.324	-3.85
353.454	8.15
353.584	15.15
353.714	0.15
353.845	6.15
353.975	-6.85
354.105	5.15
354.235	13.15
354.365	2.15
354.496	7.15
354.626	15.15
354.756	17.15
354.886	-4.85
355.016	2.15
355.146	-1.85
355.277	5.15
355.407	10.15
355.537	22.15
355.667	18.15
355.797	4.15
355.927	11.15
356.057	-4.85
356.187	-12.85
356.318	19.15
356.448	-3.85
356.578	15.15
356.708	18.15
356.838	14.15
356.968	1.15
357.098	13.15
357.228	10.15
357.358	2.15
357.488	0.15
357.618	18.15
357.748	13.15
357.878	11.15
358.008	3.15
358.138	-3.85
358.268	2.15
358.398	4.15
358.528	-3.85
358.658	19.15
358.788	11.15
358.918	15.15
359.048	19.15
359.178	22.15
359.308	19.15
359.438	18.15
359.568	17.15
359.698	7.15
359.827	22.15
359.957	0.15
360.087	30.15
360.217	12.15
360.347	-1.85
360.477	24.15
360.607	-4.85
360.737	24.15
360.866	19.15
360.996	-10.85
361.126	13.15
361.256	24.15
361.386	13.15
361.516	7.15
361.645	-17.85
361.775	13.15
361.905	-5.85
362.035	10.15
362.165	14.15
362.294	20.15
362.424	25.15
362.554	8.15
362.684	5.15
362.813	6.15
362.943	14.15
363.073	9.15
363.203	11.15
363.332	33.15
363.462	-1.85
363.592	-19.85
363.721	-8.85
363.851	-1.85
363.981	24.15
364.111	-3.85
364.24	-4.85
364.37	6.15
364.5	11.15
364.629	18.15
364.759	7.15
364.888	-5.85
365.018	2.15
365.148	5.15
365.277	21.15
365.407	8.15
365.537	28.15
365.666	7.15
365.796	1.15
365.925	-1.85
366.055	16.15
366.184	3.15
366.314	12.15
366.444	12.15
366.573	16.15
366.703	4.15
366.832	15.15
366.962	16.15
367.091	37.15
367.221	22.15
367.35	14.15
367.48	32.15
367.609	19.15
367.739	-0.85
367.868	-11.85
367.998	-4.85
368.127	14.15
368.257	13.15
368.386	16.15
368.516	30.15
368.645	7.15
368.775	14.15
368.904	15.15
369.033	-9.85
369.163	9.15
369.292	5.15
369.422	26.15
369.551	20.15
369.68	23.15
369.81	10.15
369.939	7.15
370.069	26.15
370.198	10.15
370.327	-5.85
370.457	23.15
370.586	17.15
370.715	8.15
370.845	-5.85
370.974	1.15
371.103	8.15
371.233	22.15
371.362	9.15
371.491	-8.85
371.621	3.15
371.75	11.15
371.879	3.15
372.008	-4.85
372.138	10.15
372.267	20.15
372.396	9.15
372.525	5.15
372.655	-15.85
372.784	-0.85
372.913	-13.85
373.042	6.15
373.172	42.15
373.301	-5.85
373.43	-1.85
373.559	14.15
373.688	26.15
373.818	25.15
373.947	23.15
374.076	6.15
374.205	10.15
374.334	-7.85
374.463	-11.85
374.593	30.15
374.722	28.15
374.851	28.15
374.98	-15.85
375.109	2.15
375.238	-2.85
375.367	19.15
375.496	-6.85
375.625	-3.85
375.755	22.15
375.884	38.15
376.013	5.15
376.142	-9.85
376.271	-4.85
376.4	14.15
376.529	-2.85
376.658	22.15
376.787	23.15
376.916	20.15
377.045	0.15
377.174	18.15
377.303	0.15
377.432	30.15
377.561	11.15
377.69	-5.85
377.819	12.15
377.948	13.15
378.077	-19.85
378.206	5.15
378.335	15.15
378.464	-9.85
378.593	21.15
378.722	2.15
378.851	-8.85
378.98	23.15
379.108	12.15
379.237	3.15
379.366	19.15
379.495	3.15
379.624	14.15
379.753	10.15
379.882	34.15
380.011	11.15
380.14	9.15
380.268	7.15
380.397	-2.85
380.526	12.15
380.655	-11.85
380.784	-27.85
380.913	-5.85
381.041	8.15
381.17	2.15
381.299	2.15
381.428	14.15
381.557	17.15
381.685	1.15
381.814	29.15
381.943	6.15
382.072	12.15
382.2	9.15
382.329	2.15
382.458	-6.85
382.587	8.15
382.715	38.15
382.844	20.15
382.973	32.15
383.102	11.15
383.23	3.15
383.359	1.15
383.488	27.15
383.616	-12.85
383.745	8.15
383.874	15.15
384.003	-0.85
384.131	-6.85
384.26	2.15
384.389	12.15
384.517	-10.85
384.646	-7.85
384.774	-3.85
384.903	37.15
385.032	26.15
385.16	4.15
385.289	6.15
385.418	-14.85
385.546	-4.85
385.675	8.15
385.803	-1.85
385.932	-3.85
386.06	-5.85
386.189	6.15
386.318	4.15
386.446	14.15
386.575	28.15
386.703	14.15
386.832	-2.85
386.96	-0.85
387.089	34.15
387.217	15.15
387.346	5.15
387.474	11.15
387.603	14.15
387.731	23.15
387.86	28.15
387.988	7.15
388.117	31.15
388.245	8.15
388.374	11.15
388.502	4.15
388.631	-14.85
388.759	8.15
388.888	-6.85
389.016	-9.85
389.144	-7.85
389.273	14.15
389.401	7.15
389.53	4.15
389.658	32.15
389.786	1.15
389.915	3.15
390.043	-9.85
390.172	16.15
390.3	38.15
390.428	2.15
390.557	0.15
390.685	12.15
390.813	22.15
390.942	17.15
391.07	0.15
391.198	9.15
391.327	-3.85
391.455	3.15
391.583	27.15
391.712	12.15
391.84	24.15
391.968	-3.85
392.096	-4.85
392.225	11.15
392.353	1.15
392.481	-3.85
392.609	15.15
392.738	-1.85
392.866	4.15
392.994	-2.85
393.122	35.15
393.251	-5.85
393.379	1.15
393.507	-3.85
393.635	4.15
393.764	23.15
393.892	-0.85
394.02	7.15
394.148	-3.85
394.276	-7.85
394.404	27.15
394.533	11.15
394.661	12.15
394.789	35.15
394.917	24.15
395.045	10.15
395.173	0.15
395.302	7.15
395.43	14.15
395.558	14.15
395.686	13.15
395.814	8.15
395.942	7.15
396.07	14.15
396.198	18.15
396.326	17.15
396.454	25.15
396.582	32.15
396.711	16.15
396.839	32.15
396.967	26.15
397.095	7.15
397.223	27.15
397.351	30.15
397.479	15.15
397.607	2.15
397.735	15.15
397.863	13.15
397.991	4.15
398.119	-16.85
398.247	7.15
398.375	15.15
398.503	4.15
398.631	16.15
398.759	16.15
398.887	13.15
399.015	12.15
399.143	7.15
399.271	6.15
399.399	14.15
399.526	15.15
399.654	11.15
399.782	2.15
399.91	24.15
400.038	32.15
400.166	1.15
400.294	7.15
400.422	-8.85
400.55	-5.85
400.678	20.15
400.805	13.15
400.933	19.15
401.061	20.15
401.189	-7.85
401.317	32.15
401.445	37.15
401.573	17.15
401.7	0.15
401.828	-2.85
401.956	3.15
402.084	29.15
402.212	25.15
402.34	13.15
402.467	16.15
402.595	7.15
402.723	12.15
402.851	32.15
402.978	12.15
403.106	13.15
403.234	3.15
403.362	32.15
403.489	7.15
403.617	23.15
403.745	14.15
403.873	10.15
404	9.15
404.128	23.15
404.256	22.15
404.384	25.15
404.511	20.15
404.639	-1.85
404.767	15.15
404.894	26.15
405.022	0.15
405.15	10.15
405.277	-9.85
405.405	11.15
405.533	3.15
405.66	-6.85
405.788	-10.85
405.916	-7.85
406.043	-25.85
406.171	-3.85
406.299	2.15
406.426	22.15
406.554	23.15
406.681	32.15
406.809	8.15
406.937	5.15
407.064	2.15
407.192	19.15
407.319	15.15
407.447	2.15
407.574	21.15
407.702	20.15
407.83	-20.85
407.957	-16.85
408.085	11.15
408.212	13.15
408.34	13.15
408.467	7.15
408.595	19.15
408.722	22.15
408.85	24.15
408.977	-3.85
409.105	3.15
409.232	12.15
409.36	21.15
409.487	7.15
409.615	14.15
409.742	15.15
409.87	23.15
409.997	47.15
410.125	44.15
410.252	40.15
410.379	56.15
410.507	35.15
410.634	8.15
410.762	4.15
410.889	24.15
411.017	5.15
411.144	22.15
411.271	6.15
411.399	12.15
411.526	7.15
411.653	12.15
411.781	22.15
411.908	6.15
412.036	9.15
412.163	30.15
412.29	-1.85
412.418	11.15
412.545	-0.85
412.672	2.15
412.8	24.15
412.927	15.15
413.054	29.15
413.182	1.15
413.309	18.15
413.436	-5.85
413.564	4.15
413.691	12.15
413.818	20.15
413.945	-8.85
414.073	6.15
414.2	3.15
414.327	10.15
414.454	9.15
414.582	16.15
414.709	-10.85
414.836	-0.85
414.963	8.15
415.091	12.15
415.218	3.15
415.345	16.15
415.472	22.15
415.6	4.15
415.727	9.15
415.854	5.15
415.981	14.15
416.108	9.15
416.236	3.15
416.363	35.15
416.49	18.15
416.617	5.15
416.744	19.15
416.871	15.15
416.998	16.15
417.126	8.15
417.253	-2.85
417.38	7.15
417.507	18.15
417.634	16.15
417.761	7.15
417.888	36.15
418.015	12.15
418.143	17.15
418.27	16.15
418.397	-2.85
418.524	5.15
418.651	-0.85
418.778	12.15
418.905	38.15
419.032	13.15
419.159	-3.85
419.286	23.15
419.413	23.15
419.54	30.15
419.667	2.15
419.794	3.15
419.921	29.15
420.048	8.15
420.175	5.15
420.302	-11.85
420.429	3.15
420.556	-3.85
420.683	4.15
420.81	0.15
420.937	29.15
421.064	31.15
421.191	3.15
421.318	19.15
421.445	21.15
421.572	8.15
421.699	23.15
421.826	22.15
421.953	-5.85
422.08	9.15
422.207	7.15
422.334	6.15
422.461	32.15
422.588	1.15
422.714	14.15
422.841	20.15
422.968	35.15
423.095	-1.85
423.222	-8.85
423.349	-7.85
423.476	22.15
423.603	19.15
423.729	1.15
423.856	11.15
423.983	31.15
424.11	12.15
424.237	9.15
424.364	15.15
424.491	9.15
424.617	4.15
424.744	7.15
424.871	17.15
424.998	7.15
425.125	8.15
425.251	21.15
425.378	2.15
425.505	3.15
425.632	-6.85
425.758	-1.85
425.885	7.15
426.012	23.15
426.139	18.15
426.266	3.15
426.392	16.15
426.519	17.15
426.646	5.15
426.772	21.15
426.899	10.15
427.026	25.15
427.153	17.15
427.279	26.15
427.406	28.15
427.533	-0.85
427.659	-0.85
427.786	6.15
427.913	29.15
428.039	-0.85
428.166	-16.85
428.293	7.15
428.419	27.15
428.546	-6.85
428.673	-13.85
428.799	-6.85
428.926	6.15
429.053	25.15
429.179	13.15
429.306	10.15
429.433	27.15
429.559	28.15
429.686	-1.85
429.812	22.15
429.939	-7.85
430.066	20.15
430.192	-1.85
430.319	13.15
430.445	9.15
430.572	8.15
430.699	0.15
430.825	-11.85
430.952	6.15
431.078	-5.85
431.205	7.15
431.331	-6.85
431.458	0.15
431.584	14.15
431.711	-2.85
431.837	11.15
431.964	9.15
432.09	12.15
432.217	1.15
432.343	15.15
432.47	32.15
432.596	14.15
432.723	8.15
432.849	3.15
432.976	4.15
433.102	16.15
433.229	5.15
433.355	36.15
433.482	68.15
433.608	150.15
433.735	150.15
433.861	115.15
433.987	138.15
434.114	218.15
434.24	183.15
434.367	65.15
434.493	11.15
434.62	13.15
434.746	40.15
434.872	15.15
434.999	24.15
435.125	7.15
435.252	8.15
435.378	2.15
435.504	15.15
435.631	9.15
435.757	-1.85
435.883	6.15
436.01	7.15
436.136	16.15
436.262	2.15
436.389	14.15
436.515	18.15
436.641	22.15
436.768	33.15
436.894	15.15
437.02	26.15
437.147	30.15
437.273	16.15
437.399	3.15
437.526	21.15
437.652	1.15
437.778	19.15
437.904	16.15
438.031	3.15
438.157	25.15
438.283	10.15
438.409	1.15
438.536	7.15
438.662	28.15
438.788	21.15
438.914	11.15
439.041	15.15
439.167	29.15
439.293	-6.85
439.419	18.15
439.546	20.15
439.672	22.15
439.798	34.15
439.924	43.15
440.05	21.15
440.177	12.15
440.303	-5.85
440.429	-7.85
440.555	9.15
440.681	4.15
440.807	28.15
440.934	18.15
441.06	16.15
441.186	15.15
441.312	13.15
441.438	23.15
441.564	9.15
441.69	31.15
441.816	14.15
441.943	14.15
442.069	22.15
442.195	23.15
442.321	21.15
442.447	-15.85
442.573	-1.85
442.699	16.15
442.825	-8.85
442.951	16.15
443.077	22.15
443.203	28.15
443.33	0.15
443.456	-4.85
443.582	22.15
443.708	16.15
443.834	26.15
443.96	18.15
444.086	27.15
444.212	20.15
444.338	18.15
444.464	19.15
444.59	16.15
444.716	6.15
444.842	5.15
444.968	9.15
445.094	-2.85
445.22	-3.85
445.346	-0.85
445.472	4.15
445.598	11.15
445.724	22.15
445.85	23.15
445.976	16.15
446.102	30.15
446.228	34.15
446.354	17.15
446.48	10.15
446.605	6.15
446.731	25.15
446.857	6.15
446.983	22.15
447.109	7.15
447.235	16.15
447.361	-10.85
447.487	16.15
447.613	10.15
447.739	6.15
447.865	-10.85
447.99	6.15
448.116	16.15
448.242	13.15
448.368	14.15
448.494	3.15
448.62	20.15
448.746	18.15
448.872	12.15
448.997	-6.85
449.123	5.15
449.249	23.15
449.375	23.15
449.501	2.15
449.627	-20.85
449.752	29.15
449.878	22.15
450.004	0.15
450.13	14.15
450.256	7.15
450.381	-3.85
450.507	3.15
450.633	44.15
450.759	42.15
450.884	14.15
451.01	7.15
451.136	7.15
451.262	3.15
451.388	16.15
451.513	-5.85
451.639	13.15
451.765	4.15
451.89	23.15
452.016	20.15
452.142	27.15
452.268	17.15
452.393	2.15
452.519	-2.85
452.645	18.15
452.771	16.15
452.896	-1.85
453.022	17.15
453.148	40.15
453.273	22.15
453.399	2.15
453.525	-16.85
453.65	-3.85
453.776	24.15
453.902	16.15
454.027	32.15
454.153	23.15
454.279	29.15
454.404	-3.85
454.53	6.15
454.656	19.15
454.781	17.15
454.907	22.15
455.032	6.15
455.158	35.15
455.284	50.15
455.409	16.15
455.535	15.15
455.66	26.15
455.786	26.15
455.912	18.15
456.037	-8.85
456.163	19.15
456.288	15.15
456.414	-11.85
456.539	0.15
456.665	23.15
456.791	2.15
456.916	-2.85
457.042	15.15
457.167	-4.85
457.293	5.15
457.418	15.15
457.544	8.15
457.669	-3.85
457.795	7.15
457.92	18.15
458.046	17.15
458.171	22.15
458.297	-0.85
458.422	-2.85
458.548	0.15
458.673	26.15
458.799	19.15
458.924	13.15
459.05	14.15
459.175	-7.85
459.301	-4.85
459.426	30.15
459.552	12.15
459.677	-1.85
459.803	45.15
459.928	23.15
460.053	8.15
460.179	14.15
460.304	20.15
460.43	7.15
460.555	8.15
460.681	7.15
460.806	4.15
460.931	-1.85
461.057	2.15
461.182	17.15
461.308	29.15
461.433	21.15
461.558	0.15
461.684	21.15
461.809	29.15
461.934	-6.85
462.06	26.15
462.185	-7.85
462.311	11.15
462.436	14.15
462.561	14.15
462.687	8.15
462.812	5.15
462.937	-12.85
463.063	16.15
463.188	1.15
463.313	40.15
463.439	2.15
463.564	4.15
463.689	-3.85
463.814	26.15
463.94	2.15
464.065	20.15
464.19	35.15
464.316	-12.85
464.441	2.15
464.566	17.15
464.692	24.15
464.817	3.15
464.942	10.15
465.067	6.15
465.193	-17.85
465.318	27.15
465.443	10.15
465.568	5.15
465.694	13.15
465.819	18.15
465.944	15.15
466.069	10.15
466.194	18.15
466.32	22.15
466.445	15.15
466.57	2.15
466.695	-5.85
466.82	-0.85
466.946	13.15
467.071	19.15
467.196	-16.85
467.321	8.15
467.446	1.15
467.572	-2.85
467.697	-7.85
467.822	12.15
467.947	22.15
468.072	25.15
468.197	-13.85
468.323	13.15
468.448	9.15
468.573	-7.85
468.698	4.15
468.823	11.15
468.948	30.15
469.073	26.15
469.198	29.15
469.324	42.15
469.449	2.15
469.574	22.15
469.699	23.15
469.824	16.15
469.949	4.15
470.074	23.15
470.199	47.15
470.324	23.15
470.449	28.15
470.574	8.15
470.7	2.15
470.825	24.15
470.95	13.15
471.075	15.15
471.2	11.15
471.325	29.15
471.45	2.15
471.575	0.15
471.7	19.15
471.825	4.15
471.95	3.15
472.075	10.15
472.2	18.15
472.325	21.15
472.45	-8.85
472.575	6.15
472.7	18.15
472.825	19.15
472.95	17.15
473.075	2.15
473.2	-4.85
473.325	25.15
473.45	13.15
473.575	17.15
473.7	4.15
473.825	21.15
473.95	23.15
474.075	27.15
474.2	4.15
474.325	9.15
474.45	21.15
474.574	15.15
474.699	21.15
474.824	23.15
474.949	0.15
475.074	-0.85
475.199	8.15
475.324	19.15
475.449	3.15
475.574	0.15
475.699	18.15
475.824	20.15
475.949	22.15
476.073	3.15
476.198	4.15
476.323	11.15
476.448	5.15
476.573	20.15
476.698	27.15
476.823	26.15
476.947	16.15
477.072	8.15
477.197	8.15
477.322	-2.85
477.447	-8.85
477.572	21.15
477.697	11.15
477.821	9.15
477.946	25.15
478.071	14.15
478.196	32.15
478.321	10.15
478.445	9.15
478.57	19.15
478.695	19.15
478.82	26.15
478.945	28.15
479.069	0.15
479.194	6.15
479.319	6.15
479.444	27.15
479.569	6.15
479.693	12.15
479.818	7.15
479.943	17.15
480.068	8.15
480.192	21.15
480.317	11.15
480.442	12.15
480.567	23.15
480.691	18.15
480.816	11.15
480.941	10.15
481.066	7.15
481.19	37.15
481.315	18.15
481.44	7.15
481.564	-0.85
481.689	38.15
481.814	36.15
481.938	23.15
482.063	8.15
482.188	44.15
482.313	23.15
482.437	9.15
482.562	22.15
482.687	26.15
482.811	36.15
482.936	10.15
483.061	29.15
483.185	17.15
483.31	12.15
483.435	3.15
483.559	25.15
483.684	18.15
483.808	42.15
483.933	25.15
484.058	18.15
484.182	15.15
484.307	7.15
484.432	4.15
484.556	18.15
484.681	22.15
484.805	14.15
484.93	25.15
485.055	42.15
485.179	87.15
485.304	115.15
485.428	345.15
485.553	1218.15
485.678	1766.15
485.802	1581.15
485.927	1798.15
486.051	2631.15
486.176	1584.15
486.3	453.15
486.425	155.15
486.549	83.15
486.674	67.15
486.799	46.15
486.923	26.15
487.048	33.15
487.172	30.15
487.297	26.15
487.421	50.15
487.546	38.15
487.67	34.15
487.795	16.15
487.919	14.15
488.044	25.15
488.168	28.15
488.293	3.15
488.417	6.15
488.542	30.15
488.666	35.15
488.791	37.15
488.915	25.15
489.04	21.15
489.164	40.15
489.289	38.15
489.413	3.15
489.538	31.15
489.662	15.15
489.786	11.15
489.911	31.15
490.035	20.15
490.16	1.15
490.284	-0.85
490.409	-2.85
490.533	10.15
490.658	39.15
490.782	33.15
490.906	36.15
491.031	25.15
491.155	14.15
491.28	38.15
491.404	21.15
491.528	34.15
491.653	20.15
491.777	43.15
491.902	10.15
492.026	14.15
492.15	14.15
492.275	40.15
492.399	43.15
492.524	16.15
492.648	35.15
492.772	17.15
492.897	48.15
493.021	20.15
493.145	28.15
493.27	11.15
493.394	19.15
493.518	1.15
493.643	-11.85
493.767	20.15
493.891	-2.85
494.016	21.15
494.14	11.15
494.264	24.15
494.389	24.15
494.513	18.15
494.637	-1.85
494.762	24.15
494.886	30.15
495.01	24.15
495.134	17.15
495.259	10.15
495.383	9.15
495.507	21.15
495.632	41.15
495.756	55.15
495.88	15.15
496.004	30.15
496.129	12.15
496.253	43.15
496.377	11.15
496.501	28.15
496.626	-4.85
496.75	19.15
496.874	28.15
496.998	5.15
497.123	45.15
497.247	32.15
497.371	23.15
497.495	24.15
497.62	8.15
497.744	6.15
497.868	6.15
497.992	24.15
498.116	14.15
498.241	20.15
498.365	6.15
498.489	-13.85
498.613	40.15
498.737	-9.85
498.862	14.15
498.986	19.15
499.11	25.15
499.234	19.15
499.358	-0.85
499.482	11.15
499.607	16.15
499.731	28.15
499.855	41.15
499.979	16.15
500.103	8.15
500.227	33.15
500.351	23.15
500.476	14.15
500.6	25.15
500.724	23.15
500.848	18.15
500.972	22.15
501.096	7.15
501.22	35.15
501.344	9.15
501.469	1.15
501.593	11.15
501.717	25.15
501.841	20.15
501.965	9.15
502.089	7.15
502.213	11.15
502.337	16.15
502.461	-6.85
502.585	12.15
502.709	32.15
502.834	8.15
502.958	5.15
503.082	16.15
503.206	28.15
503.33	16.15
503.454	30.15
503.578	20.15
503.702	19.15
503.826	23.15
503.95	26.15
504.074	19.15
504.198	10.15
504.322	-5.85
504.446	-3.85
504.57	17.15
504.694	27.15
504.818	3.15
504.942	22.15
505.066	17.15
505.19	17.15
505.314	16.15
505.438	27.15
505.562	17.15
505.686	28.15
505.81	4.15
505.934	19.15
506.058	25.15
506.182	14.15
506.306	19.15
506.43	14.15
506.554	8.15
506.678	0.15
506.802	15.15
506.926	5.15
507.05	13.15
507.174	30.15
507.298	23.15
507.422	7.15
507.546	17.15
507.67	34.15
507.794	8.15
507.918	15.15
508.042	14.15
508.165	1.15
508.289	-1.85
508.413	14.15
508.537	9.15
508.661	16.15
508.785	17.15
508.909	23.15
509.033	13.15
509.157	14.15
509.281	16.15
509.405	15.15
509.528	27.15
509.652	22.15
509.776	-0.85
509.9	23.15
510.024	19.15
510.148	18.15
510.272	23.15
510.396	34.15
510.519	5.15
510.643	23.15
510.767	13.15
510.891	26.15
511.015	8.15
511.139	9.15
511.263	17.15
511.386	13.15
511.51	22.15
511.634	20.15
511.758	-2.85
511.882	-1.85
512.006	18.15
512.129	22.15
512.253	33.15
512.377	5.15
512.501	20.15
512.625	31.15
512.748	14.15
512.872	19.15
512.996	13.15
513.12	17.15
513.244	-2.85
513.367	-3.85
513.491	14.15
513.615	25.15
513.739	12.15
513.862	9.15
513.986	16.15
514.11	21.15
514.234	16.15
514.358	32.15
514.481	28.15
514.605	12.15
514.729	22.15
514.853	36.15
514.976	-1.85
515.1	11.15
515.224	13.15
515.348	16.15
515.471	11.15
515.595	3.15
515.719	-4.85
515.842	26.15
515.966	22.15
516.09	40.15
516.214	16.15
516.337	31.15
516.461	6.15
516.585	19.15
516.708	27.15
516.832	27.15
516.956	20.15
517.08	9.15
517.203	1.15
517.327	22.15
517.451	16.15
517.574	37.15
517.698	23.15
517.822	25.15
517.945	38.15
518.069	31.15
518.193	54.15
518.316	47.15
518.44	45.15
518.564	19.15
518.687	24.15
518.811	36.15
518.935	63.15
519.058	35.15
519.182	40.15
519.306	35.15
519.429	30.15
519.553	58.15
519.676	43.15
519.8	28.15
519.924	14.15
520.047	21.15
520.171	11.15
520.294	16.15
520.418	17.15
520.542	2.15
520.665	19.15
520.789	16.15
520.913	10.15
521.036	-13.85
521.16	11.15
521.283	15.15
521.407	13.15
521.53	11.15
521.654	-7.85
521.778	38.15
521.901	26.15
522.025	11.15
522.148	6.15
522.272	23.15
522.395	22.15
522.519	12.15
522.643	3.15
522.766	12.15
522.89	26.15
523.013	28.15
523.137	2.15
523.26	3.15
523.384	21.15
523.507	26.15
523.631	15.15
523.754	-1.85
523.878	15.15
524.002	26.15
524.125	10.15
524.249	-3.85
524.372	8.15
524.496	22.15
524.619	6.15
524.743	7.15
524.866	11.15
524.99	25.15
525.113	2.15
525.237	39.15
525.36	4.15
525.484	18.15
525.607	12.15
525.731	-5.85
525.854	15.15
525.978	49.15
526.101	8.15
526.224	7.15
526.348	16.15
526.471	15.15
526.595	21.15
526.718	13.15
526.842	5.15
526.965	15.15
527.089	23.15
527.212	13.15
527.336	8.15
527.459	12.15
527.582	-1.85
527.706	29.15
527.829	17.15
527.953	24.15
528.076	-3.85
528.2	-13.85
528.323	39.15
528.446	35.15
528.57	10.15
528.693	17.15
528.817	8.15
528.94	24.15
529.064	35.15
529.187	14.15
529.31	14.15
529.434	-0.85
529.557	9.15
529.68	9.15
529.804	5.15
529.927	4.15
530.051	10.15
530.174	14.15
530.297	4.15
530.421	22.15
530.544	15.15
530.668	24.15
530.791	10.15
530.914	26.15
531.038	6.15
531.161	3.15
531.284	17.15
531.408	29.15
531.531	4.15
531.654	3.15
531.778	4.15
531.901	1.15
532.024	24.15
532.148	5.15
532.271	14.15
532.394	26.15
532.518	27.15
532.641	21.15
532.764	22.15
532.888	29.15
533.011	28.15
533.134	22.15
533.258	27.15
533.381	-2.85
533.504	8.15
533.628	2.15
533.751	20.15
533.874	8.15
533.997	12.15
534.121	6.15
534.244	18.15
534.367	5.15
534.491	11.15
534.614	24.15
534.737	-8.85
534.86	20.15
534.984	11.15
535.107	11.15
535.23	10.15
535.354	-7.85
535.477	-12.85
535.6	-8.85
535.723	7.15
535.847	22.15
535.97	-4.85
536.093	5.15
536.216	12.15
536.34	22.15
536.463	8.15
536.586	34.15
536.709	21.15
536.833	33.15
536.956	35.15
537.079	7.15
537.202	17.15
537.325	2.15
537.449	-12.85
537.572	19.15
537.695	-5.85
537.818	-4.85
537.941	-1.85
538.065	12.15
538.188	10.15
538.311	27.15
538.434	23.15
538.558	15.15
538.681	17.15
538.804	25.15
538.927	30.15
539.05	17.15
539.173	14.15
539.297	7.15
539.42	17.15
539.543	9.15
539.666	20.15
539.789	1.15
539.913	21.15
540.036	10.15
540.159	9.15
540.282	3.15
540.405	0.15
540.528	11.15
540.651	23.15
540.775	-3.85
540.898	19.15
541.021	14.15
541.144	10.15
541.267	23.15
541.39	7.15
541.513	11.15
541.637	-1.85
541.76	18.15
541.883	15.15
542.006	19.15
542.129	32.15
542.252	5.15
542.375	12.15
542.498	11.15
542.622	18.15
542.745	21.15
542.868	8.15
542.991	13.15
543.114	7.15
543.237	28.15
543.36	31.15
543.483	18.15
543.606	19.15
543.73	36.15
543.853	12.15
543.976	14.15
544.099	16.15
544.222	5.15
544.345	-17.85
544.468	1.15
544.591	-1.85
544.714	0.15
544.837	30.15
544.96	22.15
545.083	23.15
545.206	14.15
545.329	23.15
545.453	25.15
545.576	6.15
545.699	-1.85
545.822	8.15
545.945	14.15
546.068	12.15
546.191	9.15
546.314	9.15
546.437	18.15
546.56	30.15
546.683	33.15
546.806	20.15
546.929	20.15
547.052	-1.85
547.175	13.15
547.298	7.15
547.421	-8.85
547.544	3.15
547.667	24.15
547.79	6.15
547.913	-5.85
548.036	-4.85
548.159	14.15
548.282	13.15
548.405	16.15
548.528	19.15
548.651	12.15
548.774	24.15
548.897	16.15
549.02	28.15
549.143	37.15
549.266	7.15
549.389	4.15
549.512	4.15
549.635	14.15
549.758	15.15
549.881	6.15
550.004	27.15
550.127	20.15
550.25	0.15
550.373	7.15
550.496	32.15
550.619	17.15
550.742	3.15
550.865	-5.85
550.988	13.15
551.111	26.15
551.234	16.15
551.356	8.15
551.479	16.15
551.602	9.15
551.725	16.15
551.848	15.15
551.971	21.15
552.094	14.15
552.217	9.15
552.34	-2.85
552.463	-12.85
552.586	24.15
552.709	5.15
552.832	2.15
552.955	15.15
553.077	31.15
553.2	28.15
553.323	-7.85
553.446	4.15
553.569	10.15
553.692	13.15
553.815	2.15
553.938	24.15
554.061	8.15
554.184	7.15
554.306	16.15
554.429	19.15
554.552	14.15
554.675	-6.85
554.798	3.15
554.921	15.15
555.044	8.15
555.167	-1.85
555.29	14.15
555.412	24.15
555.535	38.15
555.658	22.15
555.781	14.15
555.904	12.15
556.027	23.15
556.15	11.15
556.272	8.15
556.395	23.15
556.518	9.15
556.641	21.15
556.764	27.15
556.887	8.15
557.01	15.15
557.132	-3.85
557.255	2.15
557.378	19.15
557.501	-3.85
557.624	17.15
557.747	23.15
557.869	13.15
557.992	23.15
558.115	23.15
558.238	-5.85
558.361	14.15
558.483	43.15
558.606	23.15
558.729	7.15
558.852	37.15
558.975	35.15
559.098	23.15
559.22	28.15
559.343	22.15
559.466	11.15
559.589	8.15
559.712	2.15
559.834	37.15
559.957	16.15
560.08	27.15
560.203	30.15
560.325	46.15
560.448	27.15
560.571	12.15
560.694	4.15
560.817	42.15
560.939	8.15
561.062	-0.85
561.185	12.15
561.308	16.15
561.43	15.15
561.553	6.15
561.676	6.15
561.799	19.15
561.921	22.15
562.044	-9.85
562.167	-2.85
562.29	28.15
562.413	14.15
562.535	38.15
562.658	4.15
562.781	10.15
562.903	13.15
563.026	8.15
563.149	35.15
563.272	17.15
563.394	19.15
563.517	8.15
563.64	7.15
563.763	13.15
563.885	22.15
564.008	27.15
564.131	12.15
564.254	-2.85
564.376	16.15
564.499	-12.85
564.622	0.15
564.744	11.15
564.867	6.15
564.99	8.15
565.113	9.15
565.235	17.15
565.358	3.15
565.481	9.15
565.603	9.15
565.726	-1.85
565.849	27.15
565.971	12.15
566.094	-4.85
566.217	9.15
566.34	23.15
566.462	11.15
566.585	10.15
566.708	10.15
566.83	13.15
566.953	5.15
567.076	24.15
567.198	16.15
567.321	-4.85
567.444	3.15
567.566	16.15
567.689	-10.85
567.812	3.15
567.934	3.15
568.057	-0.85
568.18	3.15
568.302	0.15
568.425	14.15
568.548	12.15
568.67	12.15
568.793	11.15
568.916	13.15
569.038	-5.85
569.161	5.15
569.283	2.15
569.406	14.15
569.529	5.15
569.651	3.15
569.774	14.15
569.897	18.15
570.019	22.15
570.142	31.15
570.265	17.15
570.387	-0.85
570.51	22.15
570.632	15.15
570.755	4.15
570.878	-0.85
571	25.15
571.123	23.15
571.246	18.15
571.368	8.15
571.491	-7.85
571.613	6.15
571.736	-0.85
571.859	9.15
571.981	2.15
572.104	-10.85
572.226	26.15
572.349	-8.85
572.472	0.15
572.594	16.15
572.717	13.15
572.839	-9.85
572.962	32.15
573.085	6.15
573.207	9.15
573.33	20.15
573.452	24.15
573.575	28.15
573.697	25.15
573.82	8.15
573.943	2.15
574.065	22.15
574.188	21.15
574.31	30.15
574.433	18.15
574.555	24.15
574.678	19.15
574.801	15.15
574.923	-1.85
575.046	13.15
575.168	10.15
575.291	-3.85
575.413	10.15
575.536	0.15
575.659	10.15
575.781	13.15
575.904	18.15
576.026	18.15
576.149	4.15
576.271	33.15
576.394	9.15
576.516	5.15
576.639	2.15
576.761	5.15
576.884	3.15
577.007	20.15
577.129	21.15
577.252	15.15
577.374	35.15
577.497	0.15
577.619	-0.85
577.742	-0.85
577.864	32.15
577.987	18.15
578.109	4.15
578.232	19.15
578.354	27.15
578.477	2.15
578.599	11.15
578.722	12.15
578.844	0.15
578.967	18.15
579.089	11.15
579.212	10.15
579.334	16.15
579.457	-3.85
579.579	-7.85
579.702	-5.85
579.824	27.15
579.947	-11.85
580.069	-13.85
580.192	-15.85
580.314	29.15
580.437	-2.85
580.559	34.15
580.682	9.15
580.804	28.15
580.927	25.15
581.049	38.15
581.172	26.15
581.294	10.15
581.417	16.15
581.539	23.15
581.662	20.15
581.784	20.15
581.907	38.15
582.029	27.15
582.152	-4.85
582.274	17.15
582.396	20.15
582.519	19.15
582.641	18.15
582.764	16.15
582.886	27.15
583.009	-2.85
583.131	15.15
583.254	6.15
583.376	27.15
583.499	14.15
583.621	0.15
583.743	31.15
583.866	38.15
583.988	4.15
584.111	32.15
584.233	20.15
584.356	22.15
584.478	28.15
584.601	-7.85
584.723	16.15
584.845	21.15
584.968	2.15
585.09	-1.85
585.213	18.15
585.335	-5.85
585.458	8.15
585.58	-5.85
585.702	10.15
585.825	-4.85
585.947	0.15
586.07	-0.85
586.192	8.15
586.315	28.15
586.437	-1.85
586.559	-3.85
586.682	1.15
586.804	11.15
586.927	12.15
587.049	-1.85
587.171	15.15
587.294	26.15
587.416	50.15
587.539	16.15
587.661	2.15
587.783	12.15
587.906	17.15
588.028	13.15
588.151	13.15
588.273	16.15
588.395	16.15
588.518	-6.85
588.64	8.15
588.763	19.15
588.885	32.15
589.007	32.15
589.13	7.15
589.252	-19.85
589.375	31.15
589.497	16.15
589.619	19.15
589.742	9.15
589.864	18.15
589.986	6.15
590.109	20.15
590.231	10.15
590.354	34.15
590.476	-3.85
590.598	0.15
590.721	3.15
590.843	27.15
590.965	18.15
591.088	12.15
591.21	15.15
591.332	6.15
591.455	10.15
591.577	6.15
591.7	-0.85
591.822	17.15
591.944	17.15
592.067	19.15
592.189	5.15
592.311	3.15
592.434	10.15
592.556	25.15
592.678	17.15
592.801	5.15
592.923	6.15
593.045	6.15
593.168	24.15
593.29	12.15
593.412	28.15
593.535	6.15
593.657	-0.85
593.779	19.15
593.902	32.15
594.024	9.15
594.146	27.15
594.269	28.15
594.391	-16.85
594.513	20.15
594.636	22.15
594.758	-4.85
594.88	5.15
595.003	19.15
595.125	-3.85
595.247	20.15
595.37	23.15
595.492	7.15
595.614	26.15
595.737	24.15
595.859	0.15
595.981	-0.85
596.104	5.15
596.226	21.15
596.348	3.15
596.471	3.15
596.593	27.15
596.715	9.15
596.838	8.15
596.96	1.15
597.082	7.15
597.204	19.15
597.327	7.15
597.449	2.15
597.571	7.15
597.694	2.15
597.816	8.15
597.938	5.15
598.061	10.15
598.183	16.15
598.305	14.15
598.427	5.15
598.55	11.15
598.672	40.15
598.794	21.15
598.917	-2.85
599.039	18.15
599.161	28.15
599.283	4.15
599.406	15.15
599.528	-2.85
599.65	32.15
599.773	25.15
599.895	22.15
600.017	19.15
600.139	8.15
600.262	-4.85
600.384	-5.85
600.506	27.15
600.628	32.15
600.751	19.15
600.873	11.15
600.995	13.15
601.118	40.15
601.24	2.15
601.362	31.15
601.484	16.15
601.607	6.15
601.729	9.15
601.851	-2.85
601.973	20.15
602.096	19.15
602.218	23.15
602.34	19.15
602.462	27.15
602.585	10.15
602.707	3.15
602.829	13.15
602.951	2.15
603.074	-3.85
603.196	3.15
603.318	-15.85
603.44	16.15
603.563	18.15
603.685	4.15
603.807	7.15
603.929	26.15
604.052	9.15
604.174	22.15
604.296	26.15
604.418	21.15
604.541	30.15
604.663	3.15
604.785	14.15
604.907	14.15
605.03	-1.85
605.152	41.15
605.274	10.15
605.396	15.15
605.519	14.15
605.641	10.15
605.763	27.15
605.885	18.15
606.008	14.15
606.13	14.15
606.252	10.15
606.374	-0.85
606.496	15.15
606.619	17.15
606.741	-9.85
606.863	26.15
606.985	25.15
607.108	23.15
607.23	25.15
607.352	9.15
607.474	10.15
607.596	38.15
607.719	16.15
607.841	20.15
607.963	13.15
608.085	3.15
608.207	40.15
608.33	17.15
608.452	14.15
608.574	-0.85
608.696	1.15
608.819	2.15
608.941	23.15
609.063	20.15
609.185	14.15
609.307	14.15
609.43	27.15
609.552	19.15
609.674	21.15
609.796	26.15
609.918	52.15
610.041	15.15
610.163	20.15
610.285	9.15
610.407	13.15
610.529	-12.85
610.652	19.15
610.774	18.15
610.896	2.15
611.018	10.15
611.14	23.15
611.263	4.15
611.385	6.15
611.507	21.15
611.629	-2.85
611.751	9.15
611.873	21.15
611.996	15.15
612.118	27.15
612.24	11.15
612.362	26.15
612.484	24.15
612.607	6.15
612.729	12.15
612.851	8.15
612.973	0.15
613.095	-6.85
613.218	9.15
613.34	27.15
613.462	16.15
613.584	16.15
613.706	17.15
613.828	25.15
613.951	16.15
614.073	-2.85
614.195	-6.85
614.317	24.15
614.439	19.15
614.561	22.15
614.684	28.15
614.806	32.15
614.928	6.15
615.05	10.15
615.172	23.15
615.294	22.15
615.417	15.15
615.539	-5.85
615.661	17.15
615.783	23.15
615.905	18.15
616.027	87.15
616.15	113.15
616.272	92.15
616.394	48.15
616.516	35.15
616.638	17.15
616.76	11.15
616.883	27.15
617.005	4.15
617.127	6.15
617.249	15.15
617.371	7.15
617.493	-1.85
617.615	8.15
617.738	20.15
617.86	17.15
617.982	3.15
618.104	18.15
618.226	-8.85
618.348	-7.85
618.471	35.15
618.593	18.15
618.715	7.15
618.837	4.15
618.959	9.15
619.081	26.15
619.203	21.15
619.326	16.15
619.448	23.15
619.57	14.15
619.692	7.15
619.814	22.15
619.936	18.15
620.058	22.15
620.181	7.15
620.303	10.15
620.425	14.15
620.547	3.15
620.669	6.15
620.791	8.15
620.913	24.15
621.036	-5.85
621.158	9.15
621.28	18.15
621.402	6.15
621.524	9.15
621.646	31.15
621.768	0.15
621.891	-5.85
622.013	5.15
622.135	-0.85
622.257	-3.85
622.379	6.15
622.501	15.15
622.623	8.15
622.745	18.15
622.868	17.15
622.99	20.15
623.112	14.15
623.234	12.15
623.356	2.15
623.478	-18.85
623.6	11.15
623.722	6.15
623.845	17.15
623.967	15.15
624.089	16.15
624.211	22.15
624.333	11.15
624.455	26.15
624.577	9.15
624.699	24.15
624.822	12.15
624.944	2.15
625.066	12.15
625.188	2.15
625.31	-5.85
625.432	21.15
625.554	10.15
625.676	28.15
625.799	-3.85
625.921	13.15
626.043	2.15
626.165	6.15
626.287	-7.85
626.409	15.15
626.531	15.15
626.653	8.15
626.775	19.15
626.898	2.15
627.02	6.15
627.142	30.15
627.264	22.15
627.386	-2.85
627.508	17.15
627.63	11.15
627.752	28.15
627.874	24.15
627.997	19.15
628.119	33.15
628.241	36.15
628.363	10.15
628.485	13.15
628.607	1.15
628.729	-0.85
628.851	7.15
628.973	21.15
629.096	4.15
629.218	-2.85
629.34	28.15
629.462	18.15
629.584	12.15
629.706	24.15
629.828	36.15
629.95	25.15
630.072	18.15
630.195	18.15
630.317	22.15
630.439	23.15
630.561	24.15
630.683	6.15
630.805	11.15
630.927	19.15
631.049	2.15
631.171	10.15
631.293	4.15
631.416	15.15
631.538	2.15
631.66	5.15
631.782	25.15
631.904	35.15
632.026	-5.85
632.148	16.15
632.27	0.15
632.392	24.15
632.514	6.15
632.637	13.15
632.759	11.15
632.881	3.15
633.003	6.15
633.125	9.15
633.247	-7.85
633.369	19.15
633.491	-0.85
633.613	13.15
633.735	18.15
633.858	18.15
633.98	10.15
634.102	12.15
634.224	-1.85
634.346	0.15
634.468	19.15
634.59	27.15
634.712	24.15
634.834	27.15
634.956	13.15
635.078	-2.85
635.201	0.15
635.323	19.15
635.445	2.15
635.567	-1.85
635.689	26.15
635.811	22.15
635.933	0.15
636.055	15.15
636.177	18.15
636.299	18.15
636.421	2.15
636.544	5.15
636.666	20.15
636.788	12.15
636.91	25.15
637.032	7.15
637.154	19.15
637.276	47.15
637.398	20.15
637.52	24.15
637.642	11.15
637.764	13.15
637.887	-5.85
638.009	7.15
638.131	-4.85
638.253	10.15
638.375	26.15
638.497	18.15
638.619	-11.85
638.741	-1.85
638.863	-8.85
638.985	9.15
639.107	20.15
639.23	2.15
639.352	14.15
639.474	6.15
639.596	10.15
639.718	5.15
639.84	9.15
639.962	6.15
640.084	25.15
640.206	20.15
640.328	4.15
640.45	10.15
640.573	11.15
640.695	7.15
640.817	6.15
640.939	9.15
641.061	19.15
641.183	15.15
641.305	-2.85
641.427	2.15
641.549	16.15
641.671	19.15
641.793	13.15
641.915	27.15
642.038	1.15
642.16	11.15
642.282	16.15
642.404	6.15
642.526	12.15
642.648	-1.85
642.77	19.15
642.892	0.15
643.014	24.15
643.136	12.15
643.258	4.15
643.381	25.15
643.503	28.15
643.625	4.15
643.747	9.15
643.869	8.15
643.991	5.15
644.113	7.15
644.235	10.15
644.357	23.15
644.479	20.15
644.601	3.15
644.723	6.15
644.846	18.15
644.968	14.15
645.09	15.15
645.212	9.15
645.334	20.15
645.456	3.15
645.578	21.15
645.7	8.15
645.822	19.15
645.944	11.15
646.066	20.15
646.188	19.15
646.311	41.15
646.433	10.15
646.555	46.15
646.677	50.15
646.799	41.15
646.921	23.15
647.043	28.15
647.165	-1.85
647.287	13.15
647.409	23.15
647.531	19.15
647.654	-8.85
647.776	9.15
647.898	8.15
648.02	10.15
648.142	-1.85
648.264	-8.85
648.386	13.15
648.508	6.15
648.63	5.15
648.752	6.15
648.874	10.15
648.997	25.15
649.119	30.15
649.241	20.15
649.363	22.15
649.485	28.15
649.607	6.15
649.729	-2.85
649.851	15.15
649.973	24.15
650.095	18.15
650.217	-5.85
650.34	2.15
650.462	6.15
650.584	19.15
650.706	17.15
650.828	16.15
650.95	-5.85
651.072	19.15
651.194	-3.85
651.316	11.15
651.438	16.15
651.56	6.15
651.683	3.15
651.805	9.15
651.927	10.15
652.049	17.15
652.171	-0.85
652.293	6.15
652.415	-1.85
652.537	-0.85
652.659	-1.85
652.781	19.15
652.903	20.15
653.026	31.15
653.148	3.15
653.27	19.15
653.392	11.15
653.514	5.15
653.636	5.15
653.758	2.15
653.88	-9.85
654.002	4.15
654.124	2.15
654.247	20.15
654.369	15.15
654.491	15.15
654.613	19.15
654.735	6.15
654.857	22.15
654.979	17.15
655.101	24.15
655.223	49.15
655.345	34.15
655.468	22.15
655.59	31.15
655.712	40.15
655.834	22.15
655.956	33.15
656.078	39.15
656.2	49.15
656.322	43.15
656.444	23.15
656.566	54.15
656.689	43.15
656.811	38.15
656.933	86.15
657.055	82.15
657.177	156.15
657.299	247.15
657.421	511.15
657.543	1844.15
657.665	12468.15
657.787	15154.15
657.91	15214.15
658.032	15665.15
658.154	4613.15
658.276	3288.15
658.398	1114.15
658.52	1018.15
658.642	503.15
658.764	613.15
658.886	268.15
659.009	404.15
659.131	203.15
659.253	323.15
659.375	162.15
659.497	236.15
659.619	136.15
659.741	182.15
659.863	85.15
659.985	148.15
660.108	110.15
660.23	150.15
660.352	85.15
660.474	131.15
660.596	76.15
660.718	138.15
660.84	76.15
660.962	120.15
661.084	43.15
661.207	95.15
661.329	56.15
661.451	90.15
661.573	36.15
661.695	104.15
661.817	70.15
661.939	118.15
662.061	70.15
662.184	82.15
662.306	53.15
662.428	79.15
662.55	50.15
662.672	66.15
662.794	50.15
662.916	62.15
663.038	37.15
663.161	87.15
663.283	56.15
663.405	69.15
663.527	37.15
663.649	76.15
663.771	28.15
663.893	65.15
664.015	32.15
664.138	59.15
664.26	39.15
664.382	61.15
664.504	14.15
664.626	48.15
664.748	15.15
664.87	32.15
664.992	43.15
665.115	60.15
665.237	20.15
665.359	15.15
665.481	26.15
665.603	67.15
665.725	26.15
665.847	29.15
665.97	11.15
666.092	40.15
666.214	33.15
666.336	21.15
666.458	26.15
666.58	46.15
666.702	12.15
666.825	32.15
666.947	-1.85
667.069	51.15
667.191	41.15
667.313	53.15
667.435	20.15
667.557	30.15
667.68	5.15
667.802	27.15
667.924	36.15
668.046	53.15
668.168	30.15
668.29	35.15
668.412	15.15
668.535	27.15
668.657	12.15
668.779	35.15
668.901	19.15
669.023	42.15
669.145	27.15
669.267	53.15
669.39	30.15
669.512	22.15
669.634	6.15
669.756	18.15
669.878	22.15
670	42.15
670.123	9.15
670.245	47.15
670.367	26.15
670.489	43.15
670.611	9.15
670.733	12.15
670.856	17.15
670.978	28.15
671.1	20.15
671.222	45.15
671.344	24.15
671.466	26.15
671.589	8.15
671.711	12.15
671.833	-5.85
671.955	32.15
672.077	18.15
672.199	43.15
672.322	43.15
672.444	16.15
672.566	13.15
672.688	2.15
672.81	20.15
672.932	31.15
673.055	13.15
673.177	8.15
673.299	20.15
673.421	24.15
673.543	-5.85
673.665	34.15
673.788	22.15
673.91	24.15
674.032	-1.85
674.154	19.15
674.276	36.15
674.399	17.15
674.521	3.15
674.643	14.15
674.765	0.15
674.887	38.15
675.009	2.15
675.132	11.15
675.254	-2.85
675.376	15.15
675.498	8.15
675.62	36.15
675.743	22.15
675.865	40.15
675.987	6.15
676.109	28.15
676.231	18.15
676.354	40.15
676.476	-6.85
676.598	22.15
676.72	17.15
676.842	24.15
676.965	5.15
677.087	26.15
677.209	20.15
677.331	34.15
677.453	30.15
677.576	11.15
677.698	10.15
677.82	26.15
677.942	-2.85
678.064	4.15
678.187	15.15
678.309	22.15
678.431	8.15
678.553	31.15
678.675	26.15
678.798	32.15
678.92	3.15
679.042	17.15
679.164	7.15
679.286	40.15
679.409	16.15
679.531	-0.85
679.653	-1.85
679.775	-4.85
679.898	16.15
680.02	7.15
680.142	13.15
680.264	19.15
680.386	3.15
680.509	21.15
680.631	9.15
680.753	14.15
680.875	-2.85
680.998	18.15
681.12	0.15
681.242	21.15
681.364	1.15
681.486	-1.85
681.609	-9.85
681.731	3.15
681.853	-1.85
681.975	21.15
682.098	27.15
682.22	45.15
682.342	12.15
682.464	10.15
682.587	11.15
682.709	-6.85
682.831	-1.85
682.953	19.15
683.076	3.15
683.198	21.15
683.32	18.15
683.442	1.15
683.565	21.15
683.687	22.15
683.809	12.15
683.931	9.15
684.054	23.15
684.176	20.15
684.298	6.15
684.42	14.15
684.543	9.15
684.665	0.15
684.787	7.15
684.909	10.15
685.032	33.15
685.154	17.15
685.276	2.15
685.398	0.15
685.521	-8.85
685.643	15.15
685.765	18.15
685.887	19.15
686.01	7.15
686.132	29.15
686.254	12.15
686.377	12.15
686.499	4.15
686.621	16.15
686.743	8.15
686.866	20.15
686.988	35.15
687.11	29.15
687.232	15.15
687.355	4.15
687.477	17.15
687.599	18.15
687.722	13.15
687.844	16.15
687.966	29.15
688.088	28.15
688.211	19.15
688.333	21.15
688.455	13.15
688.578	10.15
688.7	27.15
688.822	18.15
688.944	12.15
689.067	58.15
689.189	8.15
689.311	-1.85
689.434	-1.85
689.556	14.15
689.678	18.15
689.801	9.15
689.923	7.15
690.045	16.15
690.167	32.15
690.29	27.15
690.412	8.15
690.534	11.15
690.657	3.15
690.779	18.15
690.901	14.15
691.024	31.15
691.146	14.15
691.268	12.15
691.391	0.15
691.513	43.15
691.635	44.15
691.758	28.15
691.88	14.15
692.002	-0.85
692.125	8.15
692.247	20.15
692.369	1.15
692.492	5.15
692.614	7.15
692.736	22.15
692.859	11.15
692.981	2.15
693.103	4.15
693.226	25.15
693.348	19.15
693.47	7.15
693.593	7.15
693.715	6.15
693.837	8.15
693.96	11.15
694.082	-11.85
694.204	-4.85
694.327	-1.85
694.449	-7.85
694.571	7.15
694.694	32.15
694.816	19.15
694.938	10.15
695.061	18.15
695.183	13.15
695.305	-1.85
695.428	18.15
695.55	-5.85
695.672	15.15
695.795	20.15
695.917	34.15
696.04	13.15
696.162	-0.85
696.284	-9.85
696.407	12.15
696.529	2.15
696.651	35.15
696.774	9.15
696.896	35.15
697.019	16.15
697.141	15.15
697.263	14.15
697.386	18.15
697.508	15.15
697.63	19.15
697.753	3.15
697.875	-2.85
697.998	-17.85
698.12	15.15
698.242	9.15
698.365	11.15
698.487	9.15
698.61	22.15
698.732	9.15
698.854	40.15
698.977	4.15
699.099	15.15
699.221	-13.85
699.344	18.15
699.466	9.15
699.589	8.15
699.711	0.15
699.834	24.15
699.956	26.15
700.078	16.15
700.201	4.15
700.323	27.15
700.446	8.15
700.568	-24.85
700.69	0.15
700.813	12.15
700.935	9.15
701.058	30.15
701.18	18.15
701.302	11.15
701.425	2.15
701.547	20.15
701.67	-6.85
701.792	23.15
701.915	3.15
702.037	-6.85
702.159	15.15
702.282	17.15
702.404	2.15
702.527	11.15
702.649	19.15
702.772	20.15
702.894	0.15
703.017	12.15
703.139	12.15
703.261	31.15
703.384	22.15
703.506	5.15
703.629	14.15
703.751	23.15
703.874	23.15
703.996	-3.85
704.119	-7.85
704.241	10.15
704.364	-1.85
704.486	14.15
704.608	11.15
704.731	18.15
704.853	30.15
704.976	11.15
705.098	10.15
705.221	22.15
705.343	17.15
705.466	11.15
705.588	18.15
705.711	34.15
705.833	36.15
705.956	8.15
706.078	26.15
706.201	12.15
706.323	2.15
706.446	9.15
