Data from LowRes_H2_15_26_11_07_2024_HR4C61881__10__15-28-14-637.txt Node

Date: Thu Nov 07 15:28:14 EST 2024
User: crc00042
Spectrometer: HR4C6188
Trigger mode: 4
Integration Time (sec): 1.000000E-1
Scans to average: 1
Electric dark correction enabled: true
Nonlinearity correction enabled: false
Boxcar width: 0
XAxis mode: Wavelengths
Number of Pixels in Spectrum: 3648
>>>>>Begin Spectral Data<<<<<
245.66	-118.77
245.797	-118.77
245.934	-118.77
246.071	-74.77
246.208	15.23
246.344	11.23
246.481	-18.77
246.618	4.23
246.755	13.23
246.892	8.23
247.029	-21.77
247.165	-16.77
247.302	16.23
247.439	13.23
247.576	5.23
247.713	-6.77
247.849	12.23
247.986	-19.77
248.123	23.23
248.26	-12.77
248.396	7.23
248.533	-2.77
248.67	-3.77
248.806	1.23
248.943	-8.77
249.08	-1.77
249.216	14.23
249.353	-18.77
249.49	-6.77
249.626	-2.77
249.763	-2.77
249.9	-10.77
250.036	-1.77
250.173	-0.77
250.309	9.23
250.446	11.23
250.582	2.23
250.719	1.23
250.856	6.23
250.992	-3.77
251.129	-2.77
251.265	-9.77
251.402	-18.77
251.538	-2.77
251.675	12.23
251.811	20.23
251.948	16.23
252.084	3.23
252.221	12.23
252.357	0.23
252.493	13.23
252.63	-4.77
252.766	10.23
252.903	18.23
253.039	-4.77
253.175	-2.77
253.312	-9.77
253.448	0.23
253.585	-8.77
253.721	12.23
253.857	-6.77
253.994	-24.77
254.13	-10.77
254.266	0.23
254.403	-5.77
254.539	16.23
254.675	30.23
254.811	3.23
254.948	9.23
255.084	-6.77
255.22	-19.77
255.356	4.23
255.493	2.23
255.629	2.23
255.765	10.23
255.901	16.23
256.037	3.23
256.174	6.23
256.31	-14.77
256.446	-17.77
256.582	-4.77
256.718	-3.77
256.854	14.23
256.991	1.23
257.127	15.23
257.263	-4.77
257.399	8.23
257.535	-5.77
257.671	-19.77
257.807	6.23
257.943	-8.77
258.079	-28.77
258.215	-0.77
258.351	6.23
258.487	0.23
258.623	12.23
258.759	-4.77
258.895	-15.77
259.031	5.23
259.167	-19.77
259.303	-2.77
259.439	-9.77
259.575	8.23
259.711	2.23
259.847	0.23
259.983	-2.77
260.119	1.23
260.255	-1.77
260.391	7.23
260.527	10.23
260.663	15.23
260.799	5.23
260.934	-11.77
261.07	-13.77
261.206	-5.77
261.342	-11.77
261.478	7.23
261.614	4.23
261.749	3.23
261.885	-18.77
262.021	-9.77
262.157	27.23
262.293	-9.77
262.428	-4.77
262.564	-4.77
262.7	1.23
262.836	-9.77
262.971	0.23
263.107	7.23
263.243	7.23
263.378	0.23
263.514	-9.77
263.65	-7.77
263.785	-13.77
263.921	-2.77
264.057	0.23
264.192	-3.77
264.328	14.23
264.464	-15.77
264.599	-10.77
264.735	20.23
264.871	-12.77
265.006	-3.77
265.142	-1.77
265.277	1.23
265.413	9.23
265.548	11.23
265.684	13.23
265.819	-11.77
265.955	-12.77
266.091	-20.77
266.226	-16.77
266.362	14.23
266.497	6.23
266.633	3.23
266.768	-10.77
266.903	3.23
267.039	-8.77
267.174	17.23
267.31	-14.77
267.445	-6.77
267.581	-8.77
267.716	13.23
267.851	4.23
267.987	8.23
268.122	36.23
268.258	-6.77
268.393	-11.77
268.528	5.23
268.664	-11.77
268.799	-18.77
268.934	-5.77
269.07	-15.77
269.205	7.23
269.34	22.23
269.476	0.23
269.611	0.23
269.746	16.23
269.881	14.23
270.017	10.23
270.152	1.23
270.287	8.23
270.422	13.23
270.558	-11.77
270.693	14.23
270.828	0.23
270.963	-6.77
271.098	-2.77
271.234	0.23
271.369	12.23
271.504	7.23
271.639	-4.77
271.774	-9.77
271.909	1.23
272.045	-28.77
272.18	-5.77
272.315	-7.77
272.45	27.23
272.585	-24.77
272.72	16.23
272.855	-18.77
272.99	0.23
273.125	-12.77
273.26	-14.77
273.395	-6.77
273.53	-17.77
273.665	-15.77
273.8	7.23
273.935	-0.77
274.07	10.23
274.205	1.23
274.34	0.23
274.475	-10.77
274.61	24.23
274.745	0.23
274.88	14.23
275.015	2.23
275.15	1.23
275.285	6.23
275.42	9.23
275.555	15.23
275.69	11.23
275.825	-1.77
275.959	11.23
276.094	-14.77
276.229	-12.77
276.364	1.23
276.499	-2.77
276.634	0.23
276.768	2.23
276.903	8.23
277.038	10.23
277.173	-1.77
277.308	-10.77
277.442	-0.77
277.577	-7.77
277.712	-6.77
277.847	-0.77
277.981	11.23
278.116	-9.77
278.251	14.23
278.386	9.23
278.52	6.23
278.655	-6.77
278.79	16.23
278.924	-8.77
279.059	13.23
279.194	-22.77
279.328	17.23
279.463	-8.77
279.598	24.23
279.732	20.23
279.867	4.23
280.001	-4.77
280.136	5.23
280.271	12.23
280.405	-3.77
280.54	-12.77
280.674	-20.77
280.809	29.23
280.943	5.23
281.078	2.23
281.213	-8.77
281.347	10.23
281.482	2.23
281.616	-5.77
281.751	4.23
281.885	-12.77
282.02	9.23
282.154	10.23
282.288	-15.77
282.423	-8.77
282.557	-16.77
282.692	-11.77
282.826	-7.77
282.961	15.23
283.095	4.23
283.229	2.23
283.364	-17.77
283.498	-6.77
283.633	12.23
283.767	-10.77
283.901	-20.77
284.036	8.23
284.17	-7.77
284.304	1.23
284.439	1.23
284.573	0.23
284.707	23.23
284.842	7.23
284.976	-25.77
285.11	3.23
285.244	15.23
285.379	66.23
285.513	-20.77
285.647	3.23
285.781	16.23
285.916	-4.77
286.05	-16.77
286.184	9.23
286.318	6.23
286.453	16.23
286.587	-8.77
286.721	-14.77
286.855	5.23
286.989	8.23
287.123	-6.77
287.258	-22.77
287.392	-11.77
287.526	19.23
287.66	3.23
287.794	-7.77
287.928	-5.77
288.062	10.23
288.196	-9.77
288.33	-0.77
288.464	13.23
288.598	23.23
288.733	-4.77
288.867	13.23
289.001	2.23
289.135	-3.77
289.269	-9.77
289.403	-3.77
289.537	7.23
289.671	33.23
289.805	-14.77
289.939	5.23
290.073	3.23
290.207	13.23
290.34	-5.77
290.474	-1.77
290.608	-11.77
290.742	-21.77
290.876	-2.77
291.01	5.23
291.144	28.23
291.278	19.23
291.412	-9.77
291.546	-3.77
291.679	-18.77
291.813	-1.77
291.947	15.23
292.081	0.23
292.215	-0.77
292.349	0.23
292.482	-1.77
292.616	9.23
292.75	1.23
292.884	-3.77
293.018	8.23
293.151	-37.77
293.285	4.23
293.419	-11.77
293.553	-15.77
293.686	-16.77
293.82	3.23
293.954	8.23
294.088	25.23
294.221	-2.77
294.355	-39.77
294.489	7.23
294.622	5.23
294.756	13.23
294.89	7.23
295.023	-3.77
295.157	22.23
295.291	-11.77
295.424	8.23
295.558	18.23
295.691	-4.77
295.825	8.23
295.959	-2.77
296.092	-19.77
296.226	-11.77
296.359	7.23
296.493	8.23
296.627	0.23
296.76	1.23
296.894	1.23
297.027	4.23
297.161	4.23
297.294	-0.77
297.428	-11.77
297.561	6.23
297.695	0.23
297.828	6.23
297.962	-3.77
298.095	3.23
298.229	6.23
298.362	-3.77
298.495	-19.77
298.629	-13.77
298.762	0.23
298.896	4.23
299.029	-19.77
299.162	-4.77
299.296	9.23
299.429	2.23
299.563	9.23
299.696	14.23
299.829	7.23
299.963	11.23
300.096	13.23
300.229	11.23
300.363	10.23
300.496	4.23
300.629	-15.77
300.763	-7.77
300.896	-4.77
301.029	16.23
301.162	0.23
301.296	-14.77
301.429	5.23
301.562	-25.77
301.695	16.23
301.829	8.23
301.962	10.23
302.095	3.23
302.228	-0.77
302.362	0.23
302.495	-15.77
302.628	0.23
302.761	-10.77
302.894	4.23
303.027	14.23
303.161	4.23
303.294	-6.77
303.427	19.23
303.56	7.23
303.693	-6.77
303.826	-8.77
303.959	-4.77
304.092	-0.77
304.225	8.23
304.359	-0.77
304.492	5.23
304.625	1.23
304.758	4.23
304.891	-7.77
305.024	6.23
305.157	3.23
305.29	-14.77
305.423	4.23
305.556	14.23
305.689	20.23
305.822	8.23
305.955	5.23
306.088	-8.77
306.221	-1.77
306.354	-11.77
306.487	-14.77
306.62	-15.77
306.752	-8.77
306.885	-3.77
307.018	-7.77
307.151	8.23
307.284	7.23
307.417	-22.77
307.55	17.23
307.683	6.23
307.816	22.23
307.948	19.23
308.081	17.23
308.214	18.23
308.347	4.23
308.48	-12.77
308.613	-6.77
308.745	8.23
308.878	-19.77
309.011	-16.77
309.144	4.23
309.277	-14.77
309.409	23.23
309.542	-0.77
309.675	19.23
309.808	-5.77
309.94	21.23
310.073	-17.77
310.206	-1.77
310.339	-1.77
310.471	-18.77
310.604	6.23
310.737	-6.77
310.869	9.23
311.002	4.23
311.135	6.23
311.267	-7.77
311.4	-3.77
311.533	12.23
311.665	10.23
311.798	-7.77
311.93	16.23
312.063	4.23
312.196	5.23
312.328	-16.77
312.461	0.23
312.593	1.23
312.726	19.23
312.859	11.23
312.991	12.23
313.124	-32.77
313.256	4.23
313.389	16.23
313.521	19.23
313.654	11.23
313.786	-20.77
313.919	-9.77
314.051	0.23
314.184	12.23
314.316	2.23
314.449	-18.77
314.581	-9.77
314.714	-12.77
314.846	10.23
314.978	-18.77
315.111	-16.77
315.243	-4.77
315.376	11.23
315.508	13.23
315.641	-7.77
315.773	11.23
315.905	7.23
316.038	-14.77
316.17	13.23
316.302	15.23
316.435	-14.77
316.567	-5.77
316.699	19.23
316.832	-18.77
316.964	-11.77
317.096	-12.77
317.229	-18.77
317.361	-20.77
317.493	-11.77
317.625	0.23
317.758	17.23
317.89	11.23
318.022	-0.77
318.155	5.23
318.287	-8.77
318.419	8.23
318.551	8.23
318.683	9.23
318.816	11.23
318.948	-11.77
319.08	-25.77
319.212	13.23
319.344	-0.77
319.477	-3.77
319.609	7.23
319.741	13.23
319.873	11.23
320.005	-6.77
320.137	-2.77
320.269	3.23
320.401	-6.77
320.534	2.23
320.666	-26.77
320.798	-8.77
320.93	-13.77
321.062	-0.77
321.194	-17.77
321.326	13.23
321.458	5.23
321.59	3.23
321.722	-2.77
321.854	11.23
321.986	-12.77
322.118	1.23
322.25	-5.77
322.382	1.23
322.514	-10.77
322.646	-14.77
322.778	6.23
322.91	-19.77
323.042	-11.77
323.174	15.23
323.306	-3.77
323.438	1.23
323.57	5.23
323.702	2.23
323.834	5.23
323.966	-10.77
324.097	11.23
324.229	26.23
324.361	-12.77
324.493	-0.77
324.625	-22.77
324.757	17.23
324.889	6.23
325.021	21.23
325.152	-0.77
325.284	33.23
325.416	1.23
325.548	12.23
325.68	3.23
325.811	29.23
325.943	19.23
326.075	-6.77
326.207	20.23
326.339	30.23
326.47	1.23
326.602	13.23
326.734	5.23
326.866	17.23
326.997	-13.77
327.129	-4.77
327.261	-19.77
327.392	-6.77
327.524	-7.77
327.656	-5.77
327.787	-10.77
327.919	-1.77
328.051	5.23
328.182	13.23
328.314	21.23
328.446	2.23
328.577	22.23
328.709	13.23
328.841	-17.77
328.972	-21.77
329.104	-9.77
329.235	2.23
329.367	3.23
329.499	12.23
329.63	0.23
329.762	-4.77
329.893	4.23
330.025	4.23
330.156	-14.77
330.288	26.23
330.419	30.23
330.551	5.23
330.683	-6.77
330.814	-17.77
330.946	7.23
331.077	-2.77
331.208	-4.77
331.34	12.23
331.471	-4.77
331.603	-2.77
331.734	-8.77
331.866	13.23
331.997	-5.77
332.129	18.23
332.26	11.23
332.392	25.23
332.523	-17.77
332.654	-25.77
332.786	-5.77
332.917	-13.77
333.048	-4.77
333.18	14.23
333.311	-39.77
333.443	1.23
333.574	-3.77
333.705	10.23
333.837	0.23
333.968	6.23
334.099	26.23
334.231	20.23
334.362	11.23
334.493	7.23
334.624	17.23
334.756	13.23
334.887	20.23
335.018	-5.77
335.15	1.23
335.281	11.23
335.412	23.23
335.543	-4.77
335.675	-2.77
335.806	2.23
335.937	5.23
336.068	18.23
336.199	34.23
336.331	10.23
336.462	-2.77
336.593	16.23
336.724	2.23
336.855	16.23
336.986	21.23
337.118	2.23
337.249	-10.77
337.38	8.23
337.511	-15.77
337.642	6.23
337.773	-2.77
337.904	-10.77
338.035	4.23
338.166	5.23
338.298	8.23
338.429	-8.77
338.56	1.23
338.691	13.23
338.822	5.23
338.953	16.23
339.084	10.23
339.215	15.23
339.346	-4.77
339.477	-3.77
339.608	-8.77
339.739	10.23
339.87	-1.77
340.001	23.23
340.132	-9.77
340.263	1.23
340.394	7.23
340.525	8.23
340.656	-6.77
340.787	0.23
340.918	35.23
341.049	11.23
341.179	5.23
341.31	-8.77
341.441	10.23
341.572	0.23
341.703	-20.77
341.834	-4.77
341.965	0.23
342.096	-0.77
342.227	12.23
342.357	10.23
342.488	12.23
342.619	8.23
342.75	14.23
342.881	-2.77
343.012	17.23
343.142	40.23
343.273	1.23
343.404	3.23
343.535	26.23
343.666	20.23
343.796	26.23
343.927	18.23
344.058	30.23
344.189	21.23
344.319	-9.77
344.45	-8.77
344.581	-12.77
344.712	-13.77
344.842	10.23
344.973	-6.77
345.104	20.23
345.234	1.23
345.365	-38.77
345.496	5.23
345.626	11.23
345.757	10.23
345.888	-9.77
346.018	22.23
346.149	0.23
346.28	11.23
346.41	-16.77
346.541	8.23
346.672	6.23
346.802	11.23
346.933	-4.77
347.063	21.23
347.194	20.23
347.325	11.23
347.455	5.23
347.586	8.23
347.716	5.23
347.847	6.23
347.977	2.23
348.108	11.23
348.238	17.23
348.369	7.23
348.499	12.23
348.63	-9.77
348.76	6.23
348.891	16.23
349.021	6.23
349.152	11.23
349.282	8.23
349.413	2.23
349.543	2.23
349.674	-4.77
349.804	-3.77
349.935	-13.77
350.065	-18.77
350.196	16.23
350.326	8.23
350.456	1.23
350.587	13.23
350.717	15.23
350.848	10.23
350.978	5.23
351.108	-15.77
351.239	-1.77
351.369	-4.77
351.499	2.23
351.63	9.23
351.76	-18.77
351.89	10.23
352.021	12.23
352.151	1.23
352.281	3.23
352.412	-3.77
352.542	13.23
352.672	7.23
352.803	-3.77
352.933	21.23
353.063	9.23
353.193	-4.77
353.324	-1.77
353.454	20.23
353.584	21.23
353.714	10.23
353.845	4.23
353.975	16.23
354.105	2.23
354.235	-1.77
354.365	-2.77
354.496	-3.77
354.626	10.23
354.756	0.23
354.886	9.23
355.016	19.23
355.146	2.23
355.277	8.23
355.407	4.23
355.537	-9.77
355.667	2.23
355.797	-7.77
355.927	-4.77
356.057	-4.77
356.187	-22.77
356.318	-5.77
356.448	4.23
356.578	13.23
356.708	22.23
356.838	-4.77
356.968	-8.77
357.098	16.23
357.228	4.23
357.358	-16.77
357.488	-6.77
357.618	11.23
357.748	0.23
357.878	2.23
358.008	-4.77
358.138	-14.77
358.268	-3.77
358.398	16.23
358.528	-22.77
358.658	4.23
358.788	3.23
358.918	-2.77
359.048	6.23
359.178	11.23
359.308	4.23
359.438	26.23
359.568	19.23
359.698	20.23
359.827	4.23
359.957	-1.77
360.087	16.23
360.217	2.23
360.347	9.23
360.477	25.23
360.607	-11.77
360.737	14.23
360.866	-18.77
360.996	-16.77
361.126	-4.77
361.256	13.23
361.386	8.23
361.516	9.23
361.645	4.23
361.775	7.23
361.905	-13.77
362.035	-0.77
362.165	6.23
362.294	4.23
362.424	16.23
362.554	0.23
362.684	-8.77
362.813	4.23
362.943	22.23
363.073	4.23
363.203	14.23
363.332	11.23
363.462	-0.77
363.592	-0.77
363.721	-6.77
363.851	9.23
363.981	4.23
364.111	-0.77
364.24	-16.77
364.37	12.23
364.5	18.23
364.629	7.23
364.759	4.23
364.888	-7.77
365.018	11.23
365.148	-1.77
365.277	13.23
365.407	12.23
365.537	24.23
365.666	14.23
365.796	0.23
365.925	-5.77
366.055	22.23
366.184	5.23
366.314	-6.77
366.444	9.23
366.573	2.23
366.703	-3.77
366.832	4.23
366.962	19.23
367.091	13.23
367.221	1.23
367.35	6.23
367.48	48.23
367.609	20.23
367.739	21.23
367.868	-17.77
367.998	11.23
368.127	33.23
368.257	21.23
368.386	23.23
368.516	22.23
368.645	7.23
368.775	5.23
368.904	-4.77
369.033	-3.77
369.163	15.23
369.292	-1.77
369.422	4.23
369.551	17.23
369.68	13.23
369.81	13.23
369.939	1.23
370.069	23.23
370.198	-4.77
370.327	-18.77
370.457	-8.77
370.586	6.23
370.715	-2.77
370.845	-24.77
370.974	3.23
371.103	13.23
371.233	3.23
371.362	5.23
371.491	1.23
371.621	17.23
371.75	19.23
371.879	-3.77
372.008	0.23
372.138	-11.77
372.267	12.23
372.396	7.23
372.525	-4.77
372.655	1.23
372.784	-0.77
372.913	1.23
373.042	7.23
373.172	3.23
373.301	-22.77
373.43	-16.77
373.559	-9.77
373.688	21.23
373.818	19.23
373.947	0.23
374.076	8.23
374.205	11.23
374.334	-4.77
374.463	-6.77
374.593	9.23
374.722	6.23
374.851	18.23
374.98	2.23
375.109	-3.77
375.238	13.23
375.367	27.23
375.496	-15.77
375.625	-0.77
375.755	8.23
375.884	14.23
376.013	4.23
376.142	-5.77
376.271	6.23
376.4	-1.77
376.529	6.23
376.658	3.23
376.787	1.23
376.916	1.23
377.045	-15.77
377.174	7.23
377.303	-20.77
377.432	11.23
377.561	19.23
377.69	9.23
377.819	31.23
377.948	2.23
378.077	-19.77
378.206	-7.77
378.335	-4.77
378.464	-3.77
378.593	19.23
378.722	-9.77
378.851	4.23
378.98	33.23
379.108	-1.77
379.237	-1.77
379.366	3.23
379.495	23.23
379.624	10.23
379.753	6.23
379.882	3.23
380.011	-4.77
380.14	4.23
380.268	15.23
380.397	18.23
380.526	11.23
380.655	-4.77
380.784	-18.77
380.913	-9.77
381.041	7.23
381.17	-10.77
381.299	-15.77
381.428	14.23
381.557	5.23
381.685	-0.77
381.814	12.23
381.943	22.23
382.072	8.23
382.2	-15.77
382.329	5.23
382.458	0.23
382.587	20.23
382.715	-3.77
382.844	14.23
382.973	1.23
383.102	0.23
383.23	-3.77
383.359	5.23
383.488	8.23
383.616	-3.77
383.745	-12.77
383.874	-14.77
384.003	4.23
384.131	-13.77
384.26	-13.77
384.389	13.23
384.517	-23.77
384.646	-5.77
384.774	7.23
384.903	17.23
385.032	21.23
385.16	6.23
385.289	2.23
385.418	-3.77
385.546	-0.77
385.675	6.23
385.803	24.23
385.932	12.23
386.06	-0.77
386.189	5.23
386.318	6.23
386.446	4.23
386.575	-3.77
386.703	25.23
386.832	1.23
386.96	-9.77
387.089	11.23
387.217	3.23
387.346	1.23
387.474	7.23
387.603	9.23
387.731	4.23
387.86	7.23
387.988	8.23
388.117	-0.77
388.245	18.23
388.374	-7.77
388.502	16.23
388.631	3.23
388.759	-10.77
388.888	3.23
389.016	-2.77
389.144	16.23
389.273	6.23
389.401	-10.77
389.53	-19.77
389.658	18.23
389.786	-14.77
389.915	-29.77
390.043	-2.77
390.172	15.23
390.3	22.23
390.428	-0.77
390.557	2.23
390.685	4.23
390.813	7.23
390.942	13.23
391.07	4.23
391.198	4.23
391.327	-1.77
391.455	0.23
391.583	23.23
391.712	12.23
391.84	0.23
391.968	8.23
392.096	-5.77
392.225	-11.77
392.353	-4.77
392.481	-0.77
392.609	22.23
392.738	10.23
392.866	4.23
392.994	-5.77
393.122	24.23
393.251	-2.77
393.379	5.23
393.507	-28.77
393.635	2.23
393.764	17.23
393.892	9.23
394.02	9.23
394.148	8.23
394.276	11.23
394.404	26.23
394.533	1.23
394.661	4.23
394.789	29.23
394.917	34.23
395.045	-15.77
395.173	-7.77
395.302	6.23
395.43	25.23
395.558	23.23
395.686	17.23
395.814	13.23
395.942	-24.77
396.07	-4.77
396.198	17.23
396.326	13.23
396.454	24.23
396.582	23.23
396.711	12.23
396.839	15.23
396.967	18.23
397.095	7.23
397.223	17.23
397.351	18.23
397.479	31.23
397.607	-5.77
397.735	15.23
397.863	16.23
397.991	13.23
398.119	-11.77
398.247	11.23
398.375	-11.77
398.503	23.23
398.631	0.23
398.759	13.23
398.887	-2.77
399.015	7.23
399.143	-5.77
399.271	14.23
399.399	19.23
399.526	25.23
399.654	19.23
399.782	-5.77
399.91	23.23
400.038	24.23
400.166	1.23
400.294	4.23
400.422	1.23
400.55	2.23
400.678	10.23
400.805	11.23
400.933	-12.77
401.061	1.23
401.189	6.23
401.317	25.23
401.445	27.23
401.573	29.23
401.7	-8.77
401.828	-15.77
401.956	-6.77
402.084	20.23
402.212	10.23
402.34	31.23
402.467	16.23
402.595	13.23
402.723	16.23
402.851	29.23
402.978	4.23
403.106	9.23
403.234	2.23
403.362	36.23
403.489	15.23
403.617	-3.77
403.745	20.23
403.873	5.23
404	25.23
404.128	14.23
404.256	30.23
404.384	22.23
404.511	14.23
404.639	-11.77
404.767	-6.77
404.894	6.23
405.022	18.23
405.15	24.23
405.277	-3.77
405.405	1.23
405.533	2.23
405.66	3.23
405.788	-32.77
405.916	-6.77
406.043	-9.77
406.171	-15.77
406.299	14.23
406.426	4.23
406.554	17.23
406.681	28.23
406.809	-3.77
406.937	0.23
407.064	-4.77
407.192	9.23
407.319	18.23
407.447	15.23
407.574	27.23
407.702	-3.77
407.83	-21.77
407.957	-3.77
408.085	-5.77
408.212	-3.77
408.34	-5.77
408.467	0.23
408.595	17.23
408.722	24.23
408.85	50.23
408.977	-7.77
409.105	7.23
409.232	8.23
409.36	-1.77
409.487	-1.77
409.615	20.23
409.742	19.23
409.87	27.23
409.997	26.23
410.125	38.23
410.252	56.23
410.379	52.23
410.507	28.23
410.634	1.23
410.762	-9.77
410.889	14.23
411.017	4.23
411.144	5.23
411.271	24.23
411.399	10.23
411.526	31.23
411.653	-0.77
411.781	7.23
411.908	-0.77
412.036	-5.77
412.163	15.23
412.29	12.23
412.418	1.23
412.545	17.23
412.672	-2.77
412.8	27.23
412.927	32.23
413.054	25.23
413.182	5.23
413.309	9.23
413.436	-0.77
413.564	4.23
413.691	12.23
413.818	16.23
413.945	9.23
414.073	7.23
414.2	6.23
414.327	16.23
414.454	0.23
414.582	-2.77
414.709	-4.77
414.836	6.23
414.963	-2.77
415.091	15.23
415.218	-6.77
415.345	11.23
415.472	6.23
415.6	-4.77
415.727	7.23
415.854	13.23
415.981	24.23
416.108	9.23
416.236	2.23
416.363	25.23
416.49	10.23
416.617	9.23
416.744	27.23
416.871	24.23
416.998	15.23
417.126	12.23
417.253	5.23
417.38	-5.77
417.507	14.23
417.634	13.23
417.761	23.23
417.888	17.23
418.015	14.23
418.143	12.23
418.27	33.23
418.397	0.23
418.524	27.23
418.651	3.23
418.778	19.23
418.905	46.23
419.032	11.23
419.159	5.23
419.286	27.23
419.413	28.23
419.54	29.23
419.667	-9.77
419.794	-11.77
419.921	11.23
420.048	9.23
420.175	20.23
420.302	-0.77
420.429	3.23
420.556	-6.77
420.683	-0.77
420.81	16.23
420.937	29.23
421.064	38.23
421.191	3.23
421.318	31.23
421.445	22.23
421.572	1.23
421.699	18.23
421.826	6.23
421.953	-6.77
422.08	-0.77
422.207	2.23
422.334	-3.77
422.461	21.23
422.588	3.23
422.714	20.23
422.841	27.23
422.968	24.23
423.095	5.23
423.222	2.23
423.349	21.23
423.476	12.23
423.603	-24.77
423.729	-6.77
423.856	9.23
423.983	23.23
424.11	-2.77
424.237	15.23
424.364	10.23
424.491	10.23
424.617	-22.77
424.744	-6.77
424.871	-0.77
424.998	1.23
425.125	3.23
425.251	20.23
425.378	-20.77
425.505	12.23
425.632	6.23
425.758	-11.77
425.885	9.23
426.012	15.23
426.139	20.23
426.266	8.23
426.392	20.23
426.519	38.23
426.646	15.23
426.772	17.23
426.899	6.23
427.026	24.23
427.153	11.23
427.279	21.23
427.406	9.23
427.533	-9.77
427.659	6.23
427.786	12.23
427.913	0.23
428.039	-8.77
428.166	5.23
428.293	12.23
428.419	12.23
428.546	10.23
428.673	-16.77
428.799	1.23
428.926	16.23
429.053	15.23
429.179	20.23
429.306	7.23
429.433	20.23
429.559	24.23
429.686	-9.77
429.812	0.23
429.939	1.23
430.066	0.23
430.192	0.23
430.319	17.23
430.445	-2.77
430.572	-2.77
430.699	5.23
430.825	-4.77
430.952	28.23
431.078	-3.77
431.205	7.23
431.331	8.23
431.458	-2.77
431.584	2.23
431.711	-4.77
431.837	18.23
431.964	1.23
432.09	-3.77
432.217	-0.77
432.343	4.23
432.47	26.23
432.596	22.23
432.723	-14.77
432.849	-8.77
432.976	12.23
433.102	3.23
433.229	2.23
433.355	27.23
433.482	57.23
433.608	157.23
433.735	133.23
433.861	132.23
433.987	152.23
434.114	199.23
434.24	191.23
434.367	57.23
434.493	5.23
434.62	18.23
434.746	18.23
434.872	15.23
434.999	12.23
435.125	11.23
435.252	6.23
435.378	6.23
435.504	-4.77
435.631	28.23
435.757	27.23
435.883	19.23
436.01	22.23
436.136	12.23
436.262	-2.77
436.389	2.23
436.515	19.23
436.641	19.23
436.768	16.23
436.894	25.23
437.02	10.23
437.147	12.23
437.273	2.23
437.399	-9.77
437.526	5.23
437.652	-1.77
437.778	5.23
437.904	-3.77
438.031	11.23
438.157	40.23
438.283	17.23
438.409	-0.77
438.536	1.23
438.662	16.23
438.788	15.23
438.914	24.23
439.041	16.23
439.167	26.23
439.293	-1.77
439.419	16.23
439.546	9.23
439.672	10.23
439.798	12.23
439.924	24.23
440.05	25.23
440.177	15.23
440.303	16.23
440.429	11.23
440.555	15.23
440.681	1.23
440.807	5.23
440.934	29.23
441.06	14.23
441.186	4.23
441.312	-7.77
441.438	15.23
441.564	2.23
441.69	29.23
441.816	9.23
441.943	18.23
442.069	-3.77
442.195	8.23
442.321	11.23
442.447	-0.77
442.573	4.23
442.699	-0.77
442.825	-8.77
442.951	-0.77
443.077	23.23
443.203	18.23
443.33	19.23
443.456	-11.77
443.582	17.23
443.708	2.23
443.834	27.23
443.96	27.23
444.086	5.23
444.212	14.23
444.338	15.23
444.464	28.23
444.59	9.23
444.716	17.23
444.842	2.23
444.968	4.23
445.094	11.23
445.22	5.23
445.346	-4.77
445.472	-6.77
445.598	6.23
445.724	12.23
445.85	20.23
445.976	22.23
446.102	6.23
446.228	16.23
446.354	23.23
446.48	8.23
446.605	7.23
446.731	20.23
446.857	1.23
446.983	14.23
447.109	8.23
447.235	8.23
447.361	14.23
447.487	33.23
447.613	22.23
447.739	10.23
447.865	-9.77
447.99	12.23
448.116	17.23
448.242	15.23
448.368	5.23
448.494	-0.77
448.62	11.23
448.746	24.23
448.872	3.23
448.997	2.23
449.123	3.23
449.249	36.23
449.375	22.23
449.501	1.23
449.627	2.23
449.752	24.23
449.878	-0.77
450.004	-5.77
450.13	6.23
450.256	9.23
450.381	1.23
450.507	1.23
450.633	-2.77
450.759	9.23
450.884	-10.77
451.01	13.23
451.136	22.23
451.262	27.23
451.388	11.23
451.513	11.23
451.639	10.23
451.765	-3.77
451.89	23.23
452.016	11.23
452.142	-13.77
452.268	9.23
452.393	9.23
452.519	-4.77
452.645	5.23
452.771	17.23
452.896	1.23
453.022	0.23
453.148	24.23
453.273	7.23
453.399	20.23
453.525	1.23
453.65	3.23
453.776	17.23
453.902	19.23
454.027	15.23
454.153	12.23
454.279	6.23
454.404	3.23
454.53	19.23
454.656	24.23
454.781	3.23
454.907	12.23
455.032	3.23
455.158	28.23
455.284	39.23
455.409	12.23
455.535	12.23
455.66	16.23
455.786	3.23
455.912	4.23
456.037	-2.77
456.163	28.23
456.288	24.23
456.414	-12.77
456.539	-20.77
456.665	19.23
456.791	9.23
456.916	18.23
457.042	23.23
457.167	-1.77
457.293	4.23
457.418	3.23
457.544	7.23
457.669	25.23
457.795	16.23
457.92	-0.77
458.046	5.23
458.171	5.23
458.297	2.23
458.422	-3.77
458.548	6.23
458.673	3.23
458.799	4.23
458.924	11.23
459.05	17.23
459.175	0.23
459.301	-2.77
459.426	22.23
459.552	-3.77
459.677	3.23
459.803	35.23
459.928	23.23
460.053	9.23
460.179	13.23
460.304	8.23
460.43	-9.77
460.555	9.23
460.681	3.23
460.806	3.23
460.931	3.23
461.057	14.23
461.182	11.23
461.308	37.23
461.433	10.23
461.558	-7.77
461.684	17.23
461.809	35.23
461.934	12.23
462.06	21.23
462.185	11.23
462.311	18.23
462.436	26.23
462.561	7.23
462.687	2.23
462.812	8.23
462.937	1.23
463.063	-6.77
463.188	10.23
463.313	10.23
463.439	0.23
463.564	-0.77
463.689	-3.77
463.814	5.23
463.94	3.23
464.065	27.23
464.19	20.23
464.316	0.23
464.441	-9.77
464.566	-15.77
464.692	-2.77
464.817	2.23
464.942	3.23
465.067	4.23
465.193	-10.77
465.318	19.23
465.443	0.23
465.568	-9.77
465.694	13.23
465.819	28.23
465.944	6.23
466.069	12.23
466.194	12.23
466.32	8.23
466.445	2.23
466.57	3.23
466.695	4.23
466.82	2.23
466.946	21.23
467.071	18.23
467.196	-2.77
467.321	20.23
467.446	-9.77
467.572	-9.77
467.697	-7.77
467.822	9.23
467.947	16.23
468.072	-6.77
468.197	-6.77
468.323	4.23
468.448	23.23
468.573	-23.77
468.698	15.23
468.823	0.23
468.948	17.23
469.073	-1.77
469.198	15.23
469.324	17.23
469.449	8.23
469.574	21.23
469.699	5.23
469.824	16.23
469.949	6.23
470.074	21.23
470.199	44.23
470.324	27.23
470.449	20.23
470.574	7.23
470.7	10.23
470.825	26.23
470.95	26.23
471.075	0.23
471.2	11.23
471.325	11.23
471.45	15.23
471.575	2.23
471.7	13.23
471.825	-0.77
471.95	1.23
472.075	3.23
472.2	3.23
472.325	18.23
472.45	16.23
472.575	12.23
472.7	8.23
472.825	12.23
472.95	15.23
473.075	12.23
473.2	-7.77
473.325	16.23
473.45	-7.77
473.575	-18.77
473.7	-9.77
473.825	0.23
473.95	24.23
474.075	47.23
474.2	10.23
474.325	-9.77
474.45	28.23
474.574	16.23
474.699	13.23
474.824	6.23
474.949	0.23
475.074	-5.77
475.199	27.23
475.324	9.23
475.449	14.23
475.574	34.23
475.699	26.23
475.824	14.23
475.949	18.23
476.073	1.23
476.198	0.23
476.323	17.23
476.448	7.23
476.573	1.23
476.698	17.23
476.823	32.23
476.947	17.23
477.072	12.23
477.197	4.23
477.322	13.23
477.447	-9.77
477.572	2.23
477.697	-0.77
477.821	3.23
477.946	10.23
478.071	-2.77
478.196	19.23
478.321	3.23
478.445	-2.77
478.57	8.23
478.695	8.23
478.82	21.23
478.945	20.23
479.069	7.23
479.194	-11.77
479.319	5.23
479.444	6.23
479.569	9.23
479.693	8.23
479.818	7.23
479.943	12.23
480.068	3.23
480.192	9.23
480.317	8.23
480.442	22.23
480.567	-10.77
480.691	20.23
480.816	-2.77
480.941	-8.77
481.066	21.23
481.19	22.23
481.315	17.23
481.44	18.23
481.564	-4.77
481.689	22.23
481.814	21.23
481.938	21.23
482.063	6.23
482.188	22.23
482.313	55.23
482.437	27.23
482.562	18.23
482.687	25.23
482.811	34.23
482.936	31.23
483.061	21.23
483.185	13.23
483.31	5.23
483.435	24.23
483.559	14.23
483.684	16.23
483.808	23.23
483.933	9.23
484.058	8.23
484.182	29.23
484.307	26.23
484.432	22.23
484.556	5.23
484.681	3.23
484.805	17.23
484.93	37.23
485.055	34.23
485.179	85.23
485.304	129.23
485.428	360.23
485.553	1220.23
485.678	1714.23
485.802	1577.23
485.927	1738.23
486.051	2625.23
486.176	1632.23
486.3	451.23
486.425	141.23
486.549	78.23
486.674	65.23
486.799	26.23
486.923	30.23
487.048	5.23
487.172	10.23
487.297	17.23
487.421	25.23
487.546	23.23
487.67	16.23
487.795	29.23
487.919	22.23
488.044	15.23
488.168	25.23
488.293	21.23
488.417	11.23
488.542	27.23
488.666	17.23
488.791	23.23
488.915	8.23
489.04	16.23
489.164	23.23
489.289	23.23
489.413	-4.77
489.538	18.23
489.662	27.23
489.786	12.23
489.911	20.23
490.035	16.23
490.16	7.23
490.284	5.23
490.409	-5.77
490.533	15.23
490.658	22.23
490.782	19.23
490.906	14.23
491.031	38.23
491.155	19.23
491.28	15.23
491.404	6.23
491.528	31.23
491.653	4.23
491.777	24.23
491.902	-3.77
492.026	18.23
492.15	28.23
492.275	31.23
492.399	17.23
492.524	3.23
492.648	28.23
492.772	26.23
492.897	9.23
493.021	4.23
493.145	18.23
493.27	19.23
493.394	11.23
493.518	13.23
493.643	6.23
493.767	25.23
493.891	17.23
494.016	10.23
494.14	34.23
494.264	20.23
494.389	3.23
494.513	5.23
494.637	1.23
494.762	2.23
494.886	24.23
495.01	13.23
495.134	9.23
495.259	40.23
495.383	23.23
495.507	21.23
495.632	23.23
495.756	51.23
495.88	19.23
496.004	36.23
496.129	-1.77
496.253	31.23
496.377	11.23
496.501	40.23
496.626	-1.77
496.75	11.23
496.874	10.23
496.998	-4.77
497.123	18.23
497.247	-3.77
497.371	20.23
497.495	14.23
497.62	20.23
497.744	-4.77
497.868	6.23
497.992	3.23
498.116	0.23
498.241	21.23
498.365	27.23
498.489	-4.77
498.613	18.23
498.737	0.23
498.862	15.23
498.986	-3.77
499.11	12.23
499.234	2.23
499.358	-0.77
499.482	11.23
499.607	9.23
499.731	11.23
499.855	39.23
499.979	29.23
500.103	20.23
500.227	28.23
500.351	25.23
500.476	5.23
500.6	11.23
500.724	15.23
500.848	-3.77
500.972	8.23
501.096	3.23
501.22	33.23
501.344	4.23
501.469	10.23
501.593	23.23
501.717	20.23
501.841	25.23
501.965	2.23
502.089	-3.77
502.213	19.23
502.337	15.23
502.461	-1.77
502.585	6.23
502.709	10.23
502.834	5.23
502.958	14.23
503.082	16.23
503.206	2.23
503.33	33.23
503.454	10.23
503.578	19.23
503.702	18.23
503.826	21.23
503.95	15.23
504.074	5.23
504.198	13.23
504.322	-6.77
504.446	-9.77
504.57	9.23
504.694	12.23
504.818	9.23
504.942	46.23
505.066	8.23
505.19	10.23
505.314	36.23
505.438	27.23
505.562	11.23
505.686	11.23
505.81	15.23
505.934	32.23
506.058	-0.77
506.182	4.23
506.306	17.23
506.43	8.23
506.554	17.23
506.678	3.23
506.802	8.23
506.926	7.23
507.05	15.23
507.174	27.23
507.298	31.23
507.422	12.23
507.546	25.23
507.67	21.23
507.794	-4.77
507.918	3.23
508.042	4.23
508.165	5.23
508.289	1.23
508.413	20.23
508.537	6.23
508.661	16.23
508.785	11.23
508.909	12.23
509.033	24.23
509.157	13.23
509.281	9.23
509.405	11.23
509.528	29.23
509.652	18.23
509.776	4.23
509.9	21.23
510.024	13.23
510.148	5.23
510.272	0.23
510.396	17.23
510.519	11.23
510.643	27.23
510.767	19.23
510.891	20.23
511.015	9.23
511.139	19.23
511.263	48.23
511.386	19.23
511.51	14.23
511.634	0.23
511.758	11.23
511.882	5.23
512.006	31.23
512.129	28.23
512.253	41.23
512.377	3.23
512.501	29.23
512.625	-2.77
512.748	11.23
512.872	0.23
512.996	11.23
513.12	22.23
513.244	9.23
513.367	13.23
513.491	-1.77
513.615	10.23
513.739	8.23
513.862	0.23
513.986	15.23
514.11	22.23
514.234	4.23
514.358	21.23
514.481	38.23
514.605	21.23
514.729	17.23
514.853	15.23
514.976	7.23
515.1	12.23
515.224	29.23
515.348	-9.77
515.471	20.23
515.595	29.23
515.719	15.23
515.842	29.23
515.966	24.23
516.09	16.23
516.214	0.23
516.337	23.23
516.461	23.23
516.585	20.23
516.708	16.23
516.832	18.23
516.956	15.23
517.08	15.23
517.203	1.23
517.327	22.23
517.451	47.23
517.574	57.23
517.698	21.23
517.822	12.23
517.945	28.23
518.069	34.23
518.193	50.23
518.316	49.23
518.44	27.23
518.564	15.23
518.687	27.23
518.811	30.23
518.935	57.23
519.058	37.23
519.182	28.23
519.306	31.23
519.429	9.23
519.553	34.23
519.676	37.23
519.8	28.23
519.924	7.23
520.047	18.23
520.171	4.23
520.294	9.23
520.418	15.23
520.542	10.23
520.665	17.23
520.789	11.23
520.913	-4.77
521.036	6.23
521.16	18.23
521.283	1.23
521.407	8.23
521.53	5.23
521.654	-3.77
521.778	14.23
521.901	14.23
522.025	-4.77
522.148	2.23
522.272	12.23
522.395	14.23
522.519	26.23
522.643	17.23
522.766	-10.77
522.89	-5.77
523.013	15.23
523.137	8.23
523.26	2.23
523.384	22.23
523.507	25.23
523.631	12.23
523.754	20.23
523.878	9.23
524.002	24.23
524.125	17.23
524.249	0.23
524.372	16.23
524.496	27.23
524.619	9.23
524.743	21.23
524.866	15.23
524.99	17.23
525.113	6.23
525.237	19.23
525.36	0.23
525.484	20.23
525.607	1.23
525.731	-5.77
525.854	9.23
525.978	34.23
526.101	3.23
526.224	-5.77
526.348	22.23
526.471	16.23
526.595	24.23
526.718	20.23
526.842	-0.77
526.965	28.23
527.089	21.23
527.212	16.23
527.336	11.23
527.459	20.23
527.582	17.23
527.706	27.23
527.829	23.23
527.953	-0.77
528.076	1.23
528.2	-15.77
528.323	26.23
528.446	20.23
528.57	10.23
528.693	9.23
528.817	3.23
528.94	24.23
529.064	29.23
529.187	14.23
529.31	14.23
529.434	20.23
529.557	15.23
529.68	4.23
529.804	7.23
529.927	8.23
530.051	6.23
530.174	9.23
530.297	8.23
530.421	30.23
530.544	27.23
530.668	4.23
530.791	-4.77
530.914	34.23
531.038	-2.77
531.161	13.23
531.284	13.23
531.408	26.23
531.531	-6.77
531.654	1.23
531.778	12.23
531.901	9.23
532.024	5.23
532.148	-2.77
532.271	4.23
532.394	19.23
532.518	15.23
532.641	11.23
532.764	24.23
532.888	40.23
533.011	-5.77
533.134	-1.77
533.258	30.23
533.381	-0.77
533.504	1.23
533.628	3.23
533.751	12.23
533.874	4.23
533.997	15.23
534.121	11.23
534.244	12.23
534.367	21.23
534.491	11.23
534.614	17.23
534.737	13.23
534.86	13.23
534.984	5.23
535.107	-4.77
535.23	12.23
535.354	13.23
535.477	10.23
535.6	20.23
535.723	12.23
535.847	17.23
535.97	-8.77
536.093	11.23
536.216	7.23
536.34	20.23
536.463	15.23
536.586	5.23
536.709	2.23
536.833	17.23
536.956	-12.77
537.079	2.23
537.202	19.23
537.325	2.23
537.449	-4.77
537.572	15.23
537.695	-15.77
537.818	1.23
537.941	7.23
538.065	6.23
538.188	-8.77
538.311	32.23
538.434	26.23
538.558	17.23
538.681	41.23
538.804	21.23
538.927	25.23
539.05	16.23
539.173	18.23
539.297	7.23
539.42	13.23
539.543	9.23
539.666	22.23
539.789	15.23
539.913	10.23
540.036	19.23
540.159	10.23
540.282	-6.77
540.405	-14.77
540.528	8.23
540.651	13.23
540.775	-2.77
540.898	10.23
541.021	-1.77
541.144	7.23
541.267	11.23
541.39	4.23
541.513	17.23
541.637	9.23
541.76	5.23
541.883	23.23
542.006	22.23
542.129	18.23
542.252	10.23
542.375	1.23
542.498	-4.77
542.622	15.23
542.745	19.23
542.868	40.23
542.991	27.23
543.114	14.23
543.237	30.23
543.36	21.23
543.483	19.23
543.606	26.23
543.73	25.23
543.853	4.23
543.976	12.23
544.099	25.23
544.222	14.23
544.345	8.23
544.468	8.23
544.591	-3.77
544.714	15.23
544.837	38.23
544.96	16.23
545.083	21.23
545.206	16.23
545.329	24.23
545.453	13.23
545.576	0.23
545.699	5.23
545.822	24.23
545.945	20.23
546.068	21.23
546.191	18.23
546.314	3.23
546.437	24.23
546.56	26.23
546.683	22.23
546.806	33.23
546.929	22.23
547.052	1.23
547.175	12.23
547.298	36.23
547.421	-13.77
547.544	4.23
547.667	14.23
547.79	11.23
547.913	-0.77
548.036	1.23
548.159	8.23
548.282	22.23
548.405	13.23
548.528	3.23
548.651	-3.77
548.774	25.23
548.897	-0.77
549.02	38.23
549.143	34.23
549.266	19.23
549.389	22.23
549.512	-6.77
549.635	35.23
549.758	28.23
549.881	12.23
550.004	16.23
550.127	13.23
550.25	-10.77
550.373	-26.77
550.496	11.23
550.619	14.23
550.742	20.23
550.865	6.23
550.988	20.23
551.111	35.23
551.234	21.23
551.356	-9.77
551.479	-14.77
551.602	12.23
551.725	16.23
551.848	26.23
551.971	24.23
552.094	16.23
552.217	-2.77
552.34	5.23
552.463	-18.77
552.586	6.23
552.709	6.23
552.832	7.23
552.955	24.23
553.077	14.23
553.2	16.23
553.323	-12.77
553.446	8.23
553.569	5.23
553.692	26.23
553.815	-9.77
553.938	3.23
554.061	11.23
554.184	3.23
554.306	23.23
554.429	24.23
554.552	15.23
554.675	-0.77
554.798	16.23
554.921	14.23
555.044	5.23
555.167	12.23
555.29	4.23
555.412	0.23
555.535	-12.77
555.658	8.23
555.781	11.23
555.904	2.23
556.027	20.23
556.15	4.23
556.272	8.23
556.395	25.23
556.518	6.23
556.641	10.23
556.764	11.23
556.887	11.23
557.01	0.23
557.132	-12.77
557.255	8.23
557.378	26.23
557.501	12.23
557.624	5.23
557.747	14.23
557.869	9.23
557.992	13.23
558.115	-3.77
558.238	1.23
558.361	3.23
558.483	34.23
558.606	21.23
558.729	0.23
558.852	28.23
558.975	25.23
559.098	23.23
559.22	12.23
559.343	13.23
559.466	6.23
559.589	-0.77
559.712	15.23
559.834	9.23
559.957	3.23
560.08	10.23
560.203	17.23
560.325	19.23
560.448	17.23
560.571	11.23
560.694	4.23
560.817	16.23
560.939	3.23
561.062	5.23
561.185	18.23
561.308	11.23
561.43	-4.77
561.553	0.23
561.676	0.23
561.799	14.23
561.921	1.23
562.044	1.23
562.167	-10.77
562.29	12.23
562.413	22.23
562.535	26.23
562.658	-0.77
562.781	4.23
562.903	-4.77
563.026	13.23
563.149	34.23
563.272	6.23
563.394	21.23
563.517	4.23
563.64	0.23
563.763	-4.77
563.885	21.23
564.008	45.23
564.131	22.23
564.254	-1.77
564.376	4.23
564.499	-6.77
564.622	13.23
564.744	23.23
564.867	17.23
564.99	19.23
565.113	13.23
565.235	15.23
565.358	-7.77
565.481	-24.77
565.603	4.23
565.726	3.23
565.849	31.23
565.971	52.23
566.094	7.23
566.217	7.23
566.34	11.23
566.462	22.23
566.585	8.23
566.708	9.23
566.83	20.23
566.953	31.23
567.076	8.23
567.198	12.23
567.321	-11.77
567.444	8.23
567.566	15.23
567.689	-2.77
567.812	6.23
567.934	24.23
568.057	19.23
568.18	22.23
568.302	3.23
568.425	-10.77
568.548	-2.77
568.67	13.23
568.793	15.23
568.916	15.23
569.038	4.23
569.161	9.23
569.283	-1.77
569.406	12.23
569.529	13.23
569.651	17.23
569.774	-6.77
569.897	1.23
570.019	18.23
570.142	11.23
570.265	3.23
570.387	7.23
570.51	23.23
570.632	26.23
570.755	4.23
570.878	-2.77
571	12.23
571.123	4.23
571.246	23.23
571.368	14.23
571.491	-13.77
571.613	-6.77
571.736	8.23
571.859	-1.77
571.981	-6.77
572.104	-10.77
572.226	20.23
572.349	-0.77
572.472	1.23
572.594	16.23
572.717	0.23
572.839	3.23
572.962	19.23
573.085	20.23
573.207	26.23
573.33	14.23
573.452	35.23
573.575	36.23
573.697	12.23
573.82	3.23
573.943	8.23
574.065	20.23
574.188	9.23
574.31	28.23
574.433	19.23
574.555	28.23
574.678	5.23
574.801	11.23
574.923	2.23
575.046	9.23
575.168	10.23
575.291	5.23
575.413	16.23
575.536	6.23
575.659	28.23
575.781	3.23
575.904	3.23
576.026	10.23
576.149	17.23
576.271	21.23
576.394	18.23
576.516	-4.77
576.639	0.23
576.761	-5.77
576.884	6.23
577.007	0.23
577.129	22.23
577.252	10.23
577.374	15.23
577.497	15.23
577.619	14.23
577.742	12.23
577.864	27.23
577.987	8.23
578.109	25.23
578.232	11.23
578.354	13.23
578.477	5.23
578.599	5.23
578.722	7.23
578.844	11.23
578.967	15.23
579.089	2.23
579.212	1.23
579.334	37.23
579.457	23.23
579.579	10.23
579.702	1.23
579.824	13.23
579.947	-11.77
580.069	-0.77
580.192	-19.77
580.314	12.23
580.437	3.23
580.559	53.23
580.682	15.23
580.804	15.23
580.927	17.23
581.049	35.23
581.172	25.23
581.294	15.23
581.417	21.23
581.539	23.23
581.662	33.23
581.784	22.23
581.907	28.23
582.029	5.23
582.152	13.23
582.274	15.23
582.396	8.23
582.519	13.23
582.641	-16.77
582.764	9.23
582.886	19.23
583.009	0.23
583.131	8.23
583.254	2.23
583.376	37.23
583.499	25.23
583.621	16.23
583.743	17.23
583.866	25.23
583.988	29.23
584.111	9.23
584.233	18.23
584.356	21.23
584.478	7.23
584.601	-13.77
584.723	-0.77
584.845	16.23
584.968	3.23
585.09	-3.77
585.213	20.23
585.335	4.23
585.458	8.23
585.58	-7.77
585.702	14.23
585.825	33.23
585.947	18.23
586.07	-3.77
586.192	-2.77
586.315	8.23
586.437	-11.77
586.559	8.23
586.682	5.23
586.804	24.23
586.927	4.23
587.049	7.23
587.171	4.23
587.294	23.23
587.416	24.23
587.539	13.23
587.661	9.23
587.783	8.23
587.906	12.23
588.028	19.23
588.151	7.23
588.273	27.23
588.395	13.23
588.518	6.23
588.64	-1.77
588.763	18.23
588.885	14.23
589.007	8.23
589.13	-14.77
589.252	-7.77
589.375	5.23
589.497	17.23
589.619	-3.77
589.742	6.23
589.864	11.23
589.986	3.23
590.109	-5.77
590.231	9.23
590.354	14.23
590.476	1.23
590.598	8.23
590.721	4.23
590.843	6.23
590.965	1.23
591.088	-0.77
591.21	-15.77
591.332	2.23
591.455	-5.77
591.577	7.23
591.7	13.23
591.822	-4.77
591.944	5.23
592.067	11.23
592.189	-15.77
592.311	2.23
592.434	-0.77
592.556	19.23
592.678	32.23
592.801	10.23
592.923	3.23
593.045	-4.77
593.168	19.23
593.29	3.23
593.412	-0.77
593.535	3.23
593.657	-4.77
593.779	1.23
593.902	23.23
594.024	5.23
594.146	18.23
594.269	17.23
594.391	-12.77
594.513	0.23
594.636	4.23
594.758	-0.77
594.88	9.23
595.003	21.23
595.125	-14.77
595.247	1.23
595.37	1.23
595.492	-3.77
595.614	15.23
595.737	-0.77
595.859	12.23
595.981	13.23
596.104	4.23
596.226	9.23
596.348	9.23
596.471	11.23
596.593	6.23
596.715	2.23
596.838	9.23
596.96	4.23
597.082	2.23
597.204	-4.77
597.327	14.23
597.449	8.23
597.571	26.23
597.694	33.23
597.816	11.23
597.938	-0.77
598.061	-3.77
598.183	11.23
598.305	13.23
598.427	0.23
598.55	15.23
598.672	39.23
598.794	3.23
598.917	1.23
599.039	17.23
599.161	0.23
599.283	12.23
599.406	31.23
599.528	32.23
599.65	41.23
599.773	20.23
599.895	26.23
600.017	29.23
600.139	23.23
600.262	8.23
600.384	7.23
600.506	-6.77
600.628	10.23
600.751	23.23
600.873	10.23
600.995	9.23
601.118	36.23
601.24	8.23
601.362	26.23
601.484	7.23
601.607	7.23
601.729	7.23
601.851	-4.77
601.973	12.23
602.096	16.23
602.218	4.23
602.34	21.23
602.462	25.23
602.585	3.23
602.707	-12.77
602.829	9.23
602.951	19.23
603.074	4.23
603.196	17.23
603.318	-2.77
603.44	28.23
603.563	7.23
603.685	-2.77
603.807	7.23
603.929	12.23
604.052	21.23
604.174	9.23
604.296	16.23
604.418	1.23
604.541	31.23
604.663	2.23
604.785	7.23
604.907	14.23
605.03	21.23
605.152	31.23
605.274	18.23
605.396	5.23
605.519	2.23
605.641	-0.77
605.763	13.23
605.885	22.23
606.008	-0.77
606.13	11.23
606.252	21.23
606.374	-9.77
606.496	-0.77
606.619	17.23
606.741	20.23
606.863	18.23
606.985	35.23
607.108	25.23
607.23	3.23
607.352	22.23
607.474	-5.77
607.596	-2.77
607.719	-14.77
607.841	1.23
607.963	7.23
608.085	4.23
608.207	50.23
608.33	16.23
608.452	-14.77
608.574	6.23
608.696	29.23
608.819	13.23
608.941	16.23
609.063	9.23
609.185	19.23
609.307	15.23
609.43	7.23
609.552	18.23
609.674	-11.77
609.796	23.23
609.918	28.23
610.041	7.23
610.163	9.23
610.285	17.23
610.407	19.23
610.529	4.23
610.652	16.23
610.774	34.23
610.896	14.23
611.018	14.23
611.14	-0.77
611.263	-5.77
611.385	-0.77
611.507	25.23
611.629	-3.77
611.751	17.23
611.873	24.23
611.996	27.23
612.118	15.23
612.24	5.23
612.362	10.23
612.484	0.23
612.607	20.23
612.729	35.23
612.851	27.23
612.973	10.23
613.095	-4.77
613.218	7.23
613.34	9.23
613.462	19.23
613.584	27.23
613.706	21.23
613.828	32.23
613.951	9.23
614.073	7.23
614.195	-2.77
614.317	19.23
614.439	10.23
614.561	15.23
614.684	14.23
614.806	17.23
614.928	16.23
615.05	23.23
615.172	19.23
615.294	17.23
615.417	1.23
615.539	-8.77
615.661	9.23
615.783	20.23
615.905	33.23
616.027	67.23
616.15	112.23
616.272	84.23
616.394	50.23
616.516	41.23
616.638	15.23
616.76	13.23
616.883	6.23
617.005	9.23
617.127	19.23
617.249	7.23
617.371	23.23
617.493	1.23
617.615	11.23
617.738	16.23
617.86	16.23
617.982	23.23
618.104	3.23
618.226	-6.77
618.348	-10.77
618.471	13.23
618.593	21.23
618.715	5.23
618.837	17.23
618.959	6.23
619.081	24.23
619.203	8.23
619.326	22.23
619.448	-3.77
619.57	32.23
619.692	12.23
619.814	23.23
619.936	1.23
620.058	9.23
620.181	17.23
620.303	12.23
620.425	17.23
620.547	5.23
620.669	12.23
620.791	18.23
620.913	5.23
621.036	0.23
621.158	22.23
621.28	14.23
621.402	-0.77
621.524	3.23
621.646	19.23
621.768	5.23
621.891	-19.77
622.013	9.23
622.135	-2.77
622.257	-10.77
622.379	4.23
622.501	-0.77
622.623	4.23
622.745	-0.77
622.868	-0.77
622.99	8.23
623.112	16.23
623.234	5.23
623.356	25.23
623.478	-2.77
623.6	16.23
623.722	8.23
623.845	16.23
623.967	1.23
624.089	2.23
624.211	6.23
624.333	17.23
624.455	18.23
624.577	-23.77
624.699	14.23
624.822	9.23
624.944	4.23
625.066	5.23
625.188	15.23
625.31	20.23
625.432	31.23
625.554	-3.77
625.676	17.23
625.799	-6.77
625.921	-2.77
626.043	19.23
626.165	19.23
626.287	-17.77
626.409	8.23
626.531	9.23
626.653	9.23
626.775	18.23
626.898	-0.77
627.02	-10.77
627.142	31.23
627.264	18.23
627.386	-1.77
627.508	4.23
627.63	-2.77
627.752	-0.77
627.874	13.23
627.997	31.23
628.119	14.23
628.241	16.23
628.363	19.23
628.485	8.23
628.607	4.23
628.729	-9.77
628.851	-5.77
628.973	9.23
629.096	-6.77
629.218	11.23
629.34	11.23
629.462	-0.77
629.584	4.23
629.706	10.23
629.828	34.23
629.95	15.23
630.072	0.23
630.195	19.23
630.317	19.23
630.439	13.23
630.561	21.23
630.683	-6.77
630.805	16.23
630.927	19.23
631.049	8.23
631.171	0.23
631.293	-3.77
631.416	13.23
631.538	8.23
631.66	5.23
631.782	-0.77
631.904	28.23
632.026	-2.77
632.148	17.23
632.27	7.23
632.392	5.23
632.514	17.23
632.637	14.23
632.759	-0.77
632.881	2.23
633.003	-8.77
633.125	4.23
633.247	-10.77
633.369	5.23
633.491	10.23
633.613	5.23
633.735	-0.77
633.858	13.23
633.98	9.23
634.102	-12.77
634.224	-2.77
634.346	-3.77
634.468	23.23
634.59	9.23
634.712	3.23
634.834	11.23
634.956	6.23
635.078	11.23
635.201	8.23
635.323	8.23
635.445	-15.77
635.567	-11.77
635.689	17.23
635.811	21.23
635.933	27.23
636.055	4.23
636.177	11.23
636.299	15.23
636.421	0.23
636.544	-12.77
636.666	11.23
636.788	8.23
636.91	33.23
637.032	8.23
637.154	0.23
637.276	33.23
637.398	23.23
637.52	13.23
637.642	17.23
637.764	19.23
637.887	7.23
638.009	4.23
638.131	16.23
638.253	4.23
638.375	-5.77
638.497	16.23
638.619	6.23
638.741	9.23
638.863	1.23
638.985	8.23
639.107	13.23
639.23	8.23
639.352	29.23
639.474	4.23
639.596	3.23
639.718	6.23
639.84	-4.77
639.962	3.23
640.084	7.23
640.206	25.23
640.328	13.23
640.45	11.23
640.573	11.23
640.695	-4.77
640.817	9.23
640.939	27.23
641.061	7.23
641.183	8.23
641.305	-12.77
641.427	-3.77
641.549	17.23
641.671	7.23
641.793	8.23
641.915	7.23
642.038	7.23
642.16	15.23
642.282	2.23
642.404	-6.77
642.526	4.23
642.648	-2.77
642.77	1.23
642.892	-0.77
643.014	23.23
643.136	10.23
643.258	16.23
643.381	25.23
643.503	36.23
643.625	11.23
643.747	-0.77
643.869	3.23
643.991	14.23
644.113	14.23
644.235	0.23
644.357	10.23
644.479	8.23
644.601	-9.77
644.723	-6.77
644.846	-2.77
644.968	-8.77
645.09	-7.77
645.212	5.23
645.334	8.23
645.456	10.23
645.578	15.23
645.7	9.23
645.822	-2.77
645.944	13.23
646.066	15.23
646.188	5.23
646.311	27.23
646.433	10.23
646.555	39.23
646.677	36.23
646.799	23.23
646.921	3.23
647.043	28.23
647.165	-15.77
647.287	-2.77
647.409	-2.77
647.531	38.23
647.654	-0.77
647.776	11.23
647.898	1.23
648.02	4.23
648.142	-4.77
648.264	1.23
648.386	5.23
648.508	-0.77
648.63	3.23
648.752	3.23
648.874	2.23
648.997	10.23
649.119	27.23
649.241	15.23
649.363	24.23
649.485	21.23
649.607	13.23
649.729	-10.77
649.851	4.23
649.973	21.23
650.095	14.23
650.217	-14.77
650.34	7.23
650.462	13.23
650.584	24.23
650.706	15.23
650.828	17.23
650.95	-5.77
651.072	9.23
651.194	6.23
651.316	5.23
651.438	10.23
651.56	5.23
651.683	-3.77
651.805	9.23
651.927	18.23
652.049	4.23
652.171	4.23
652.293	-0.77
652.415	-5.77
652.537	2.23
652.659	-11.77
652.781	4.23
652.903	16.23
653.026	32.23
653.148	21.23
653.27	23.23
653.392	17.23
653.514	-2.77
653.636	3.23
653.758	9.23
653.88	4.23
654.002	-16.77
654.124	3.23
654.247	8.23
654.369	33.23
654.491	18.23
654.613	0.23
654.735	4.23
654.857	32.23
654.979	35.23
655.101	25.23
655.223	48.23
655.345	29.23
655.468	30.23
655.59	32.23
655.712	41.23
655.834	27.23
655.956	30.23
656.078	39.23
656.2	40.23
656.322	35.23
656.444	13.23
656.566	54.23
656.689	57.23
656.811	45.23
656.933	89.23
657.055	83.23
657.177	154.23
657.299	231.23
657.421	506.23
657.543	1856.23
657.665	12427.23
657.787	15159.23
657.91	15179.23
658.032	15662.23
658.154	4549.23
658.276	3113.23
658.398	1094.23
658.52	980.23
658.642	441.23
658.764	560.23
658.886	251.23
659.009	380.23
659.131	195.23
659.253	314.23
659.375	131.23
659.497	227.23
659.619	128.23
659.741	207.23
659.863	97.23
659.985	156.23
660.108	82.23
660.23	142.23
660.352	63.23
660.474	123.23
660.596	65.23
660.718	127.23
660.84	59.23
660.962	98.23
661.084	47.23
661.207	96.23
661.329	48.23
661.451	67.23
661.573	41.23
661.695	91.23
661.817	48.23
661.939	91.23
662.061	60.23
662.184	78.23
662.306	43.23
662.428	92.23
662.55	42.23
662.672	66.23
662.794	49.23
662.916	59.23
663.038	38.23
663.161	68.23
663.283	32.23
663.405	71.23
663.527	28.23
663.649	53.23
663.771	30.23
663.893	54.23
664.015	20.23
664.138	48.23
664.26	27.23
664.382	52.23
664.504	13.23
664.626	45.23
664.748	14.23
664.87	38.23
664.992	34.23
665.115	51.23
665.237	30.23
665.359	32.23
665.481	13.23
665.603	47.23
665.725	16.23
665.847	6.23
665.97	8.23
666.092	52.23
666.214	37.23
666.336	41.23
666.458	26.23
666.58	35.23
666.702	-1.77
666.825	27.23
666.947	-0.77
667.069	42.23
667.191	21.23
667.313	31.23
667.435	4.23
667.557	21.23
667.68	-4.77
667.802	15.23
667.924	22.23
668.046	31.23
668.168	40.23
668.29	33.23
668.412	4.23
668.535	29.23
668.657	25.23
668.779	13.23
668.901	26.23
669.023	35.23
669.145	24.23
669.267	52.23
669.39	10.23
669.512	37.23
669.634	18.23
669.756	8.23
669.878	18.23
670	21.23
670.123	15.23
670.245	37.23
670.367	7.23
670.489	25.23
670.611	-1.77
670.733	22.23
670.856	-6.77
670.978	28.23
671.1	18.23
671.222	31.23
671.344	8.23
671.466	20.23
671.589	-3.77
671.711	10.23
671.833	7.23
671.955	15.23
672.077	14.23
672.199	44.23
672.322	38.23
672.444	23.23
672.566	41.23
672.688	25.23
672.81	21.23
672.932	27.23
673.055	17.23
673.177	21.23
673.299	23.23
673.421	10.23
673.543	17.23
673.665	33.23
673.788	32.23
673.91	-3.77
674.032	-3.77
674.154	23.23
674.276	17.23
674.399	6.23
674.521	-0.77
674.643	21.23
674.765	14.23
674.887	11.23
675.009	8.23
675.132	18.23
675.254	16.23
675.376	31.23
675.498	29.23
675.62	39.23
675.743	18.23
675.865	20.23
675.987	-2.77
676.109	-4.77
676.231	8.23
676.354	28.23
676.476	6.23
676.598	17.23
676.72	0.23
676.842	5.23
676.965	18.23
677.087	23.23
677.209	19.23
677.331	29.23
677.453	-0.77
677.576	18.23
677.698	23.23
677.82	9.23
677.942	-14.77
678.064	3.23
678.187	19.23
678.309	25.23
678.431	10.23
678.553	12.23
678.675	20.23
678.798	28.23
678.92	22.23
679.042	6.23
679.164	4.23
679.286	23.23
679.409	9.23
679.531	16.23
679.653	8.23
679.775	10.23
679.898	-1.77
680.02	-0.77
680.142	4.23
680.264	19.23
680.386	1.23
680.509	24.23
680.631	11.23
680.753	9.23
680.875	-15.77
680.998	-0.77
681.12	0.23
681.242	18.23
681.364	-2.77
681.486	19.23
681.609	-9.77
681.731	-2.77
681.853	12.23
681.975	-4.77
682.098	13.23
682.22	35.23
682.342	19.23
682.464	26.23
682.587	7.23
682.709	17.23
682.831	-3.77
682.953	-4.77
683.076	9.23
683.198	21.23
683.32	17.23
683.442	16.23
683.565	29.23
683.687	3.23
683.809	1.23
683.931	1.23
684.054	16.23
684.176	-8.77
684.298	15.23
684.42	14.23
684.543	11.23
684.665	5.23
684.787	-9.77
684.909	16.23
685.032	17.23
685.154	5.23
685.276	13.23
685.398	7.23
685.521	-7.77
685.643	-1.77
685.765	17.23
685.887	36.23
686.01	7.23
686.132	16.23
686.254	17.23
686.377	25.23
686.499	10.23
686.621	17.23
686.743	12.23
686.866	-4.77
686.988	11.23
687.11	32.23
687.232	2.23
687.355	-8.77
687.477	20.23
687.599	23.23
687.722	-6.77
687.844	0.23
687.966	4.23
688.088	2.23
688.211	34.23
688.333	16.23
688.455	10.23
688.578	17.23
688.7	7.23
688.822	10.23
688.944	-6.77
689.067	61.23
689.189	7.23
689.311	-20.77
689.434	-6.77
689.556	12.23
689.678	8.23
689.801	-6.77
689.923	10.23
690.045	23.23
690.167	17.23
690.29	22.23
690.412	12.23
690.534	16.23
690.657	-0.77
690.779	5.23
690.901	18.23
691.024	8.23
691.146	11.23
691.268	-9.77
691.391	12.23
691.513	18.23
691.635	25.23
691.758	21.23
691.88	14.23
692.002	-5.77
692.125	-0.77
692.247	2.23
692.369	7.23
692.492	-5.77
692.614	-0.77
692.736	4.23
692.859	11.23
692.981	4.23
693.103	15.23
693.226	14.23
693.348	28.23
693.47	25.23
693.593	16.23
693.715	-15.77
693.837	3.23
693.96	4.23
694.082	7.23
694.204	20.23
694.327	5.23
694.449	-8.77
694.571	4.23
694.694	5.23
694.816	23.23
694.938	1.23
695.061	29.23
695.183	16.23
695.305	3.23
695.428	11.23
695.55	11.23
695.672	-2.77
695.795	14.23
695.917	18.23
696.04	-5.77
696.162	-4.77
696.284	4.23
696.407	6.23
696.529	11.23
696.651	30.23
696.774	4.23
696.896	23.23
697.019	10.23
697.141	14.23
697.263	-2.77
697.386	-7.77
697.508	5.23
697.63	20.23
697.753	17.23
697.875	-2.77
697.998	6.23
698.12	23.23
698.242	7.23
698.365	-15.77
698.487	9.23
698.61	27.23
698.732	13.23
698.854	23.23
698.977	0.23
699.099	29.23
699.221	-8.77
699.344	15.23
699.466	20.23
699.589	19.23
699.711	-8.77
699.834	27.23
699.956	11.23
700.078	6.23
700.201	10.23
700.323	32.23
700.446	-4.77
700.568	13.23
700.69	15.23
700.813	7.23
700.935	8.23
701.058	4.23
701.18	4.23
701.302	21.23
701.425	2.23
701.547	1.23
701.67	2.23
701.792	8.23
701.915	-0.77
702.037	1.23
702.159	3.23
702.282	-3.77
702.404	1.23
702.527	13.23
702.649	28.23
702.772	18.23
702.894	3.23
703.017	21.23
703.139	8.23
703.261	32.23
703.384	13.23
703.506	-21.77
703.629	-0.77
703.751	18.23
703.874	-1.77
703.996	-15.77
704.119	-1.77
704.241	15.23
704.364	-2.77
704.486	16.23
704.608	19.23
704.731	8.23
704.853	14.23
704.976	-4.77
705.098	8.23
705.221	1.23
705.343	8.23
705.466	25.23
705.588	18.23
705.711	8.23
705.833	21.23
705.956	17.23
706.078	-2.77
706.201	25.23
706.323	3.23
706.446	10.23
