Data from LowRes_H2_15_26_11_07_2024_HR4C61881__43__15-28-17-937.txt Node

Date: Thu Nov 07 15:28:17 EST 2024
User: crc00042
Spectrometer: HR4C6188
Trigger mode: 4
Integration Time (sec): 1.000000E-1
Scans to average: 1
Electric dark correction enabled: true
Nonlinearity correction enabled: false
Boxcar width: 0
XAxis mode: Wavelengths
Number of Pixels in Spectrum: 3648
>>>>>Begin Spectral Data<<<<<
245.66	-101.69
245.797	-101.69
245.934	-101.69
246.071	-81.69
246.208	6.31
246.344	4.31
246.481	-6.69
246.618	-2.69
246.755	9.31
246.892	-1.69
247.029	2.31
247.165	-22.69
247.302	15.31
247.439	0.31
247.576	8.31
247.713	9.31
247.849	11.31
247.986	-26.69
248.123	13.31
248.26	3.31
248.396	21.31
248.533	4.31
248.67	-8.69
248.806	-0.69
248.943	-23.69
249.08	-4.69
249.216	5.31
249.353	-22.69
249.49	-1.69
249.626	7.31
249.763	6.31
249.9	0.31
250.036	12.31
250.173	13.31
250.309	5.31
250.446	18.31
250.582	-2.69
250.719	-15.69
250.856	-7.69
250.992	-17.69
251.129	-0.69
251.265	-26.69
251.402	-6.69
251.538	-6.69
251.675	-4.69
251.811	7.31
251.948	24.31
252.084	9.31
252.221	2.31
252.357	-2.69
252.493	26.31
252.63	3.31
252.766	25.31
252.903	-3.69
253.039	0.31
253.175	8.31
253.312	12.31
253.448	-2.69
253.585	-20.69
253.721	-15.69
253.857	-9.69
253.994	18.31
254.13	13.31
254.266	11.31
254.403	7.31
254.539	-7.69
254.675	7.31
254.811	13.31
254.948	15.31
255.084	7.31
255.22	-9.69
255.356	3.31
255.493	-1.69
255.629	-5.69
255.765	-4.69
255.901	8.31
256.037	13.31
256.174	0.31
256.31	-15.69
256.446	-3.69
256.582	0.31
256.718	-1.69
256.854	27.31
256.991	15.31
257.127	13.31
257.263	-12.69
257.399	6.31
257.535	-6.69
257.671	-13.69
257.807	-10.69
257.943	-20.69
258.079	-13.69
258.215	2.31
258.351	7.31
258.487	-10.69
258.623	11.31
258.759	12.31
258.895	-4.69
259.031	-3.69
259.167	-19.69
259.303	13.31
259.439	4.31
259.575	-2.69
259.711	3.31
259.847	-11.69
259.983	2.31
260.119	-6.69
260.255	5.31
260.391	1.31
260.527	2.31
260.663	1.31
260.799	2.31
260.934	-7.69
261.07	1.31
261.206	-21.69
261.342	3.31
261.478	25.31
261.614	12.31
261.749	-3.69
261.885	-2.69
262.021	-11.69
262.157	11.31
262.293	-1.69
262.428	-3.69
262.564	-2.69
262.7	11.31
262.836	15.31
262.971	6.31
263.107	-5.69
263.243	13.31
263.378	19.31
263.514	-24.69
263.65	-7.69
263.785	-14.69
263.921	-10.69
264.057	9.31
264.192	4.31
264.328	15.31
264.464	-15.69
264.599	18.31
264.735	12.31
264.871	8.31
265.006	10.31
265.142	13.31
265.277	-4.69
265.413	0.31
265.548	20.31
265.684	27.31
265.819	-7.69
265.955	-18.69
266.091	-11.69
266.226	-11.69
266.362	-0.69
266.497	12.31
266.633	15.31
266.768	-8.69
266.903	20.31
267.039	4.31
267.174	3.31
267.31	-7.69
267.445	-3.69
267.581	0.31
267.716	29.31
267.851	12.31
267.987	10.31
268.122	20.31
268.258	1.31
268.393	-9.69
268.528	20.31
268.664	-15.69
268.799	-11.69
268.934	5.31
269.07	-11.69
269.205	7.31
269.34	14.31
269.476	-9.69
269.611	0.31
269.746	17.31
269.881	-0.69
270.017	17.31
270.152	1.31
270.287	0.31
270.422	-3.69
270.558	1.31
270.693	23.31
270.828	-1.69
270.963	-5.69
271.098	-13.69
271.234	-1.69
271.369	14.31
271.504	-1.69
271.639	-7.69
271.774	-7.69
271.909	11.31
272.045	-22.69
272.18	-13.69
272.315	-15.69
272.45	10.31
272.585	-4.69
272.72	4.31
272.855	3.31
272.99	20.31
273.125	2.31
273.26	-8.69
273.395	-1.69
273.53	8.31
273.665	21.31
273.8	-4.69
273.935	8.31
274.07	-26.69
274.205	-5.69
274.34	-34.69
274.475	-7.69
274.61	20.31
274.745	-9.69
274.88	14.31
275.015	-20.69
275.15	4.31
275.285	11.31
275.42	6.31
275.555	16.31
275.69	4.31
275.825	19.31
275.959	10.31
276.094	-2.69
276.229	9.31
276.364	-11.69
276.499	-10.69
276.634	-4.69
276.768	2.31
276.903	5.31
277.038	7.31
277.173	-7.69
277.308	-16.69
277.442	-11.69
277.577	-24.69
277.712	8.31
277.847	-3.69
277.981	7.31
278.116	-24.69
278.251	2.31
278.386	6.31
278.52	12.31
278.655	0.31
278.79	-2.69
278.924	-1.69
279.059	4.31
279.194	-5.69
279.328	40.31
279.463	16.31
279.598	11.31
279.732	5.31
279.867	4.31
280.001	-10.69
280.136	-4.69
280.271	13.31
280.405	6.31
280.54	11.31
280.674	4.31
280.809	17.31
280.943	13.31
281.078	2.31
281.213	21.31
281.347	22.31
281.482	13.31
281.616	-19.69
281.751	3.31
281.885	-36.69
282.02	-2.69
282.154	3.31
282.288	-6.69
282.423	-15.69
282.557	-0.69
282.692	11.31
282.826	-7.69
282.961	13.31
283.095	-6.69
283.229	-17.69
283.364	-3.69
283.498	2.31
283.633	26.31
283.767	16.31
283.901	17.31
284.036	8.31
284.17	0.31
284.304	-3.69
284.439	-3.69
284.573	17.31
284.707	18.31
284.842	-11.69
284.976	-5.69
285.11	-19.69
285.244	13.31
285.379	36.31
285.513	-7.69
285.647	7.31
285.781	-14.69
285.916	17.31
286.05	5.31
286.184	32.31
286.318	9.31
286.453	-12.69
286.587	-28.69
286.721	-19.69
286.855	-8.69
286.989	4.31
287.123	0.31
287.258	1.31
287.392	-0.69
287.526	22.31
287.66	-0.69
287.794	2.31
287.928	-0.69
288.062	10.31
288.196	-1.69
288.33	19.31
288.464	5.31
288.598	4.31
288.733	9.31
288.867	36.31
289.001	19.31
289.135	-8.69
289.269	-24.69
289.403	6.31
289.537	-7.69
289.671	4.31
289.805	-14.69
289.939	4.31
290.073	3.31
290.207	17.31
290.34	-2.69
290.474	21.31
290.608	29.31
290.742	0.31
290.876	10.31
291.01	-0.69
291.144	22.31
291.278	28.31
291.412	12.31
291.546	9.31
291.679	-7.69
291.813	-6.69
291.947	-5.69
292.081	-2.69
292.215	1.31
292.349	24.31
292.482	12.31
292.616	-0.69
292.75	5.31
292.884	14.31
293.018	-10.69
293.151	-14.69
293.285	10.31
293.419	-5.69
293.553	-4.69
293.686	-10.69
293.82	17.31
293.954	5.31
294.088	22.31
294.221	4.31
294.355	9.31
294.489	8.31
294.622	-13.69
294.756	-4.69
294.89	7.31
295.023	5.31
295.157	-1.69
295.291	-9.69
295.424	20.31
295.558	12.31
295.691	2.31
295.825	-11.69
295.959	5.31
296.092	-4.69
296.226	-7.69
296.359	0.31
296.493	-3.69
296.627	-5.69
296.76	-2.69
296.894	10.31
297.027	15.31
297.161	17.31
297.294	-23.69
297.428	-3.69
297.561	16.31
297.695	-4.69
297.828	-13.69
297.962	-8.69
298.095	-8.69
298.229	-4.69
298.362	-10.69
298.495	-5.69
298.629	-5.69
298.762	-7.69
298.896	-4.69
299.029	-7.69
299.162	-6.69
299.296	-3.69
299.429	3.31
299.563	-4.69
299.696	4.31
299.829	-0.69
299.963	20.31
300.096	24.31
300.229	1.31
300.363	7.31
300.496	-4.69
300.629	-14.69
300.763	0.31
300.896	8.31
301.029	5.31
301.162	-10.69
301.296	-6.69
301.429	-5.69
301.562	-17.69
301.695	22.31
301.829	20.31
301.962	9.31
302.095	-2.69
302.228	-5.69
302.362	-6.69
302.495	-8.69
302.628	-3.69
302.761	0.31
302.894	16.31
303.027	-9.69
303.161	-2.69
303.294	-11.69
303.427	5.31
303.56	0.31
303.693	-7.69
303.826	-2.69
303.959	10.31
304.092	-0.69
304.225	-3.69
304.359	-18.69
304.492	-6.69
304.625	-2.69
304.758	13.31
304.891	-0.69
305.024	0.31
305.157	4.31
305.29	1.31
305.423	-3.69
305.556	21.31
305.689	27.31
305.822	-6.69
305.955	8.31
306.088	-6.69
306.221	3.31
306.354	-7.69
306.487	-14.69
306.62	-23.69
306.752	-2.69
306.885	6.31
307.018	-3.69
307.151	1.31
307.284	23.31
307.417	-6.69
307.55	4.31
307.683	2.31
307.816	16.31
307.948	6.31
308.081	9.31
308.214	27.31
308.347	4.31
308.48	-18.69
308.613	-4.69
308.745	7.31
308.878	-2.69
309.011	2.31
309.144	15.31
309.277	-18.69
309.409	4.31
309.542	-1.69
309.675	22.31
309.808	7.31
309.94	36.31
310.073	-7.69
310.206	-6.69
310.339	14.31
310.471	-12.69
310.604	-3.69
310.737	-18.69
310.869	4.31
311.002	4.31
311.135	-3.69
311.267	-15.69
311.4	5.31
311.533	22.31
311.665	1.31
311.798	5.31
311.93	11.31
312.063	3.31
312.196	8.31
312.328	6.31
312.461	-1.69
312.593	-0.69
312.726	25.31
312.859	13.31
312.991	15.31
313.124	-20.69
313.256	5.31
313.389	3.31
313.521	16.31
313.654	0.31
313.786	-0.69
313.919	5.31
314.051	-10.69
314.184	8.31
314.316	-2.69
314.449	-13.69
314.581	-10.69
314.714	-0.69
314.846	14.31
314.978	-11.69
315.111	-3.69
315.243	11.31
315.376	1.31
315.508	14.31
315.641	6.31
315.773	12.31
315.905	0.31
316.038	-3.69
316.17	2.31
316.302	9.31
316.435	7.31
316.567	-9.69
316.699	17.31
316.832	-26.69
316.964	-12.69
317.096	-7.69
317.229	-26.69
317.361	-19.69
317.493	-7.69
317.625	-11.69
317.758	1.31
317.89	5.31
318.022	-0.69
318.155	2.31
318.287	4.31
318.419	-3.69
318.551	-18.69
318.683	-3.69
318.816	-9.69
318.948	-14.69
319.08	3.31
319.212	-0.69
319.344	7.31
319.477	-0.69
319.609	-1.69
319.741	17.31
319.873	11.31
320.005	-6.69
320.137	9.31
320.269	10.31
320.401	17.31
320.534	-6.69
320.666	-0.69
320.798	-11.69
320.93	4.31
321.062	-22.69
321.194	-9.69
321.326	0.31
321.458	18.31
321.59	10.31
321.722	-8.69
321.854	-18.69
321.986	-11.69
322.118	-0.69
322.25	1.31
322.382	1.31
322.514	-5.69
322.646	-22.69
322.778	23.31
322.91	3.31
323.042	7.31
323.174	3.31
323.306	-21.69
323.438	-25.69
323.57	13.31
323.702	-3.69
323.834	-2.69
323.966	-9.69
324.097	8.31
324.229	1.31
324.361	5.31
324.493	-2.69
324.625	-32.69
324.757	7.31
324.889	9.31
325.021	12.31
325.152	7.31
325.284	32.31
325.416	-5.69
325.548	14.31
325.68	3.31
325.811	22.31
325.943	12.31
326.075	-7.69
326.207	3.31
326.339	6.31
326.47	-0.69
326.602	10.31
326.734	0.31
326.866	13.31
326.997	-3.69
327.129	-10.69
327.261	-9.69
327.392	3.31
327.524	-2.69
327.656	0.31
327.787	11.31
327.919	15.31
328.051	13.31
328.182	9.31
328.314	5.31
328.446	-27.69
328.577	18.31
328.709	15.31
328.841	-0.69
328.972	-25.69
329.104	-4.69
329.235	-8.69
329.367	-6.69
329.499	6.31
329.63	7.31
329.762	11.31
329.893	3.31
330.025	-4.69
330.156	4.31
330.288	12.31
330.419	18.31
330.551	10.31
330.683	2.31
330.814	-7.69
330.946	13.31
331.077	7.31
331.208	-13.69
331.34	1.31
331.471	-13.69
331.603	5.31
331.734	-8.69
331.866	5.31
331.997	9.31
332.129	-10.69
332.26	0.31
332.392	5.31
332.523	-2.69
332.654	4.31
332.786	3.31
332.917	-5.69
333.048	0.31
333.18	22.31
333.311	-19.69
333.443	5.31
333.574	-3.69
333.705	16.31
333.837	-1.69
333.968	-2.69
334.099	8.31
334.231	19.31
334.362	-4.69
334.493	9.31
334.624	27.31
334.756	8.31
334.887	4.31
335.018	6.31
335.15	14.31
335.281	14.31
335.412	8.31
335.543	0.31
335.675	-8.69
335.806	9.31
335.937	-7.69
336.068	16.31
336.199	30.31
336.331	9.31
336.462	-2.69
336.593	13.31
336.724	-13.69
336.855	-5.69
336.986	10.31
337.118	0.31
337.249	-2.69
337.38	9.31
337.511	-12.69
337.642	17.31
337.773	9.31
337.904	8.31
338.035	14.31
338.166	-13.69
338.298	18.31
338.429	4.31
338.56	12.31
338.691	37.31
338.822	13.31
338.953	9.31
339.084	21.31
339.215	0.31
339.346	-6.69
339.477	-4.69
339.608	-7.69
339.739	11.31
339.87	3.31
340.001	-8.69
340.132	17.31
340.263	3.31
340.394	7.31
340.525	0.31
340.656	-7.69
340.787	-4.69
340.918	14.31
341.049	7.31
341.179	17.31
341.31	-3.69
341.441	9.31
341.572	8.31
341.703	14.31
341.834	-4.69
341.965	5.31
342.096	-4.69
342.227	10.31
342.357	9.31
342.488	-11.69
342.619	3.31
342.75	10.31
342.881	-4.69
343.012	4.31
343.142	15.31
343.273	2.31
343.404	9.31
343.535	27.31
343.666	19.31
343.796	2.31
343.927	29.31
344.058	9.31
344.189	-4.69
344.319	16.31
344.45	20.31
344.581	14.31
344.712	-16.69
344.842	1.31
344.973	1.31
345.104	16.31
345.234	-22.69
345.365	-21.69
345.496	-5.69
345.626	11.31
345.757	16.31
345.888	-22.69
346.018	8.31
346.149	0.31
346.28	12.31
346.41	-24.69
346.541	-11.69
346.672	25.31
346.802	11.31
346.933	7.31
347.063	-4.69
347.194	-2.69
347.325	0.31
347.455	12.31
347.586	14.31
347.716	11.31
347.847	8.31
347.977	-1.69
348.108	4.31
348.238	8.31
348.369	2.31
348.499	8.31
348.63	-4.69
348.76	6.31
348.891	9.31
349.021	2.31
349.152	-11.69
349.282	1.31
349.413	7.31
349.543	13.31
349.674	0.31
349.804	-2.69
349.935	-9.69
350.065	-1.69
350.196	0.31
350.326	12.31
350.456	4.31
350.587	21.31
350.717	13.31
350.848	-4.69
350.978	-1.69
351.108	-1.69
351.239	3.31
351.369	7.31
351.499	-8.69
351.63	3.31
351.76	-3.69
351.89	3.31
352.021	-6.69
352.151	-7.69
352.281	28.31
352.412	44.31
352.542	25.31
352.672	23.31
352.803	5.31
352.933	14.31
353.063	4.31
353.193	4.31
353.324	4.31
353.454	3.31
353.584	13.31
353.714	3.31
353.845	-5.69
353.975	8.31
354.105	-1.69
354.235	-6.69
354.365	1.31
354.496	6.31
354.626	4.31
354.756	5.31
354.886	-4.69
355.016	9.31
355.146	8.31
355.277	27.31
355.407	9.31
355.537	8.31
355.667	22.31
355.797	14.31
355.927	6.31
356.057	18.31
356.187	-0.69
356.318	1.31
356.448	17.31
356.578	-1.69
356.708	20.31
356.838	10.31
356.968	-10.69
357.098	4.31
357.228	6.31
357.358	-6.69
357.488	7.31
357.618	29.31
357.748	15.31
357.878	12.31
358.008	9.31
358.138	24.31
358.268	11.31
358.398	-2.69
358.528	-18.69
358.658	1.31
358.788	15.31
358.918	0.31
359.048	-0.69
359.178	13.31
359.308	15.31
359.438	20.31
359.568	10.31
359.698	0.31
359.827	11.31
359.957	8.31
360.087	7.31
360.217	18.31
360.347	11.31
360.477	15.31
360.607	-22.69
360.737	-3.69
360.866	-6.69
360.996	-3.69
361.126	-11.69
361.256	15.31
361.386	5.31
361.516	23.31
361.645	2.31
361.775	6.31
361.905	-6.69
362.035	13.31
362.165	4.31
362.294	-0.69
362.424	20.31
362.554	24.31
362.684	-9.69
362.813	-4.69
362.943	4.31
363.073	22.31
363.203	8.31
363.332	0.31
363.462	18.31
363.592	1.31
363.721	-4.69
363.851	-6.69
363.981	11.31
364.111	8.31
364.24	-5.69
364.37	11.31
364.5	21.31
364.629	26.31
364.759	1.31
364.888	-0.69
365.018	0.31
365.148	14.31
365.277	24.31
365.407	4.31
365.537	21.31
365.666	26.31
365.796	-11.69
365.925	2.31
366.055	17.31
366.184	-11.69
366.314	2.31
366.444	25.31
366.573	11.31
366.703	-5.69
366.832	-0.69
366.962	22.31
367.091	27.31
367.221	21.31
367.35	4.31
367.48	45.31
367.609	-7.69
367.739	-5.69
367.868	-4.69
367.998	9.31
368.127	18.31
368.257	13.31
368.386	21.31
368.516	23.31
368.645	1.31
368.775	16.31
368.904	19.31
369.033	9.31
369.163	-20.69
369.292	12.31
369.422	26.31
369.551	17.31
369.68	21.31
369.81	28.31
369.939	-2.69
370.069	19.31
370.198	17.31
370.327	-11.69
370.457	18.31
370.586	1.31
370.715	13.31
370.845	-0.69
370.974	11.31
371.103	12.31
371.233	19.31
371.362	4.31
371.491	-12.69
371.621	9.31
371.75	6.31
371.879	-6.69
372.008	6.31
372.138	0.31
372.267	3.31
372.396	-7.69
372.525	3.31
372.655	-11.69
372.784	14.31
372.913	27.31
373.042	16.31
373.172	24.31
373.301	-18.69
373.43	-18.69
373.559	6.31
373.688	7.31
373.818	28.31
373.947	15.31
374.076	8.31
374.205	7.31
374.334	-5.69
374.463	1.31
374.593	18.31
374.722	13.31
374.851	30.31
374.98	7.31
375.109	12.31
375.238	18.31
375.367	18.31
375.496	-2.69
375.625	-4.69
375.755	18.31
375.884	24.31
376.013	5.31
376.142	-10.69
376.271	-3.69
376.4	-2.69
376.529	13.31
376.658	25.31
376.787	10.31
376.916	7.31
377.045	-4.69
377.174	0.31
377.303	-2.69
377.432	14.31
377.561	-3.69
377.69	8.31
377.819	27.31
377.948	0.31
378.077	-10.69
378.206	0.31
378.335	-3.69
378.464	5.31
378.593	21.31
378.722	8.31
378.851	-5.69
378.98	18.31
379.108	-6.69
379.237	8.31
379.366	18.31
379.495	17.31
379.624	19.31
379.753	1.31
379.882	4.31
380.011	5.31
380.14	-11.69
380.268	-2.69
380.397	5.31
380.526	26.31
380.655	-2.69
380.784	-7.69
380.913	15.31
381.041	0.31
381.17	-3.69
381.299	-0.69
381.428	17.31
381.557	10.31
381.685	19.31
381.814	8.31
381.943	11.31
382.072	-14.69
382.2	-6.69
382.329	8.31
382.458	4.31
382.587	23.31
382.715	22.31
382.844	15.31
382.973	-1.69
383.102	2.31
383.23	5.31
383.359	-15.69
383.488	18.31
383.616	11.31
383.745	7.31
383.874	13.31
384.003	-7.69
384.131	3.31
384.26	-4.69
384.389	11.31
384.517	0.31
384.646	-15.69
384.774	-7.69
384.903	7.31
385.032	14.31
385.16	7.31
385.289	-8.69
385.418	-14.69
385.546	0.31
385.675	17.31
385.803	4.31
385.932	12.31
386.06	-16.69
386.189	0.31
386.318	8.31
386.446	5.31
386.575	5.31
386.703	10.31
386.832	-5.69
386.96	-12.69
387.089	18.31
387.217	-2.69
387.346	-13.69
387.474	14.31
387.603	14.31
387.731	20.31
387.86	14.31
387.988	-5.69
388.117	18.31
388.245	1.31
388.374	1.31
388.502	1.31
388.631	-10.69
388.759	1.31
388.888	15.31
389.016	-20.69
389.144	-1.69
389.273	11.31
389.401	1.31
389.53	-24.69
389.658	-4.69
389.786	-26.69
389.915	-18.69
390.043	-10.69
390.172	22.31
390.3	19.31
390.428	13.31
390.557	-6.69
390.685	-3.69
390.813	29.31
390.942	32.31
391.07	-15.69
391.198	-10.69
391.327	16.31
391.455	-19.69
391.583	5.31
391.712	5.31
391.84	6.31
391.968	-6.69
392.096	-4.69
392.225	6.31
392.353	3.31
392.481	18.31
392.609	7.31
392.738	7.31
392.866	6.31
392.994	-4.69
393.122	16.31
393.251	-4.69
393.379	-9.69
393.507	-8.69
393.635	-1.69
393.764	26.31
393.892	9.31
394.02	6.31
394.148	1.31
394.276	0.31
394.404	24.31
394.533	-7.69
394.661	-0.69
394.789	17.31
394.917	24.31
395.045	-4.69
395.173	-1.69
395.302	-4.69
395.43	17.31
395.558	3.31
395.686	12.31
395.814	11.31
395.942	-8.69
396.07	-14.69
396.198	-10.69
396.326	5.31
396.454	19.31
396.582	6.31
396.711	8.31
396.839	3.31
396.967	-10.69
397.095	4.31
397.223	33.31
397.351	20.31
397.479	9.31
397.607	19.31
397.735	12.31
397.863	16.31
397.991	-1.69
398.119	-9.69
398.247	11.31
398.375	2.31
398.503	13.31
398.631	15.31
398.759	14.31
398.887	4.31
399.015	6.31
399.143	5.31
399.271	7.31
399.399	14.31
399.526	9.31
399.654	24.31
399.782	3.31
399.91	16.31
400.038	0.31
400.166	-10.69
400.294	0.31
400.422	0.31
400.55	4.31
400.678	13.31
400.805	-3.69
400.933	-0.69
401.061	16.31
401.189	-22.69
401.317	23.31
401.445	33.31
401.573	27.31
401.7	3.31
401.828	4.31
401.956	-11.69
402.084	14.31
402.212	23.31
402.34	5.31
402.467	7.31
402.595	11.31
402.723	25.31
402.851	19.31
402.978	7.31
403.106	12.31
403.234	-11.69
403.362	9.31
403.489	6.31
403.617	4.31
403.745	1.31
403.873	13.31
404	7.31
404.128	-5.69
404.256	17.31
404.384	12.31
404.511	10.31
404.639	-0.69
404.767	21.31
404.894	21.31
405.022	8.31
405.15	15.31
405.277	-15.69
405.405	14.31
405.533	17.31
405.66	2.31
405.788	-4.69
405.916	-10.69
406.043	-8.69
406.171	-6.69
406.299	3.31
406.426	-4.69
406.554	3.31
406.681	3.31
406.809	0.31
406.937	21.31
407.064	16.31
407.192	21.31
407.319	-1.69
407.447	-3.69
407.574	29.31
407.702	1.31
407.83	-9.69
407.957	1.31
408.085	20.31
408.212	11.31
408.34	2.31
408.467	-11.69
408.595	7.31
408.722	13.31
408.85	8.31
408.977	0.31
409.105	7.31
409.232	14.31
409.36	17.31
409.487	-2.69
409.615	1.31
409.742	19.31
409.87	13.31
409.997	36.31
410.125	44.31
410.252	65.31
410.379	60.31
410.507	40.31
410.634	22.31
410.762	17.31
410.889	15.31
411.017	17.31
411.144	17.31
411.271	-9.69
411.399	-2.69
411.526	12.31
411.653	13.31
411.781	26.31
411.908	15.31
412.036	-1.69
412.163	14.31
412.29	10.31
412.418	7.31
412.545	23.31
412.672	5.31
412.8	24.31
412.927	10.31
413.054	21.31
413.182	20.31
413.309	21.31
413.436	-2.69
413.564	-6.69
413.691	7.31
413.818	26.31
413.945	-9.69
414.073	13.31
414.2	16.31
414.327	6.31
414.454	10.31
414.582	-0.69
414.709	-8.69
414.836	-5.69
414.963	-9.69
415.091	11.31
415.218	11.31
415.345	0.31
415.472	-2.69
415.6	-8.69
415.727	9.31
415.854	-6.69
415.981	9.31
416.108	-7.69
416.236	5.31
416.363	12.31
416.49	-7.69
416.617	3.31
416.744	18.31
416.871	7.31
416.998	1.31
417.126	23.31
417.253	3.31
417.38	-8.69
417.507	-9.69
417.634	14.31
417.761	0.31
417.888	1.31
418.015	1.31
418.143	-2.69
418.27	32.31
418.397	11.31
418.524	8.31
418.651	-14.69
418.778	26.31
418.905	28.31
419.032	18.31
419.159	6.31
419.286	29.31
419.413	19.31
419.54	26.31
419.667	2.31
419.794	-11.69
419.921	19.31
420.048	24.31
420.175	14.31
420.302	-1.69
420.429	15.31
420.556	18.31
420.683	-8.69
420.81	0.31
420.937	15.31
421.064	4.31
421.191	10.31
421.318	23.31
421.445	27.31
421.572	-4.69
421.699	28.31
421.826	12.31
421.953	-2.69
422.08	-8.69
422.207	-3.69
422.334	-8.69
422.461	25.31
422.588	9.31
422.714	9.31
422.841	17.31
422.968	9.31
423.095	4.31
423.222	2.31
423.349	20.31
423.476	0.31
423.603	-18.69
423.729	7.31
423.856	15.31
423.983	20.31
424.11	-2.69
424.237	0.31
424.364	29.31
424.491	18.31
424.617	-11.69
424.744	10.31
424.871	5.31
424.998	-0.69
425.125	-10.69
425.251	15.31
425.378	2.31
425.505	-13.69
425.632	13.31
425.758	-10.69
425.885	17.31
426.012	8.31
426.139	38.31
426.266	10.31
426.392	16.31
426.519	14.31
426.646	-13.69
426.772	21.31
426.899	15.31
427.026	8.31
427.153	9.31
427.279	32.31
427.406	16.31
427.533	-1.69
427.659	20.31
427.786	-0.69
427.913	20.31
428.039	5.31
428.166	-17.69
428.293	9.31
428.419	-4.69
428.546	-1.69
428.673	-9.69
428.799	3.31
428.926	17.31
429.053	22.31
429.179	29.31
429.306	4.31
429.433	16.31
429.559	14.31
429.686	11.31
429.812	-2.69
429.939	-0.69
430.066	1.31
430.192	-2.69
430.319	20.31
430.445	1.31
430.572	12.31
430.699	-12.69
430.825	1.31
430.952	12.31
431.078	4.31
431.205	25.31
431.331	7.31
431.458	8.31
431.584	26.31
431.711	-6.69
431.837	1.31
431.964	2.31
432.09	19.31
432.217	-7.69
432.343	5.31
432.47	17.31
432.596	-3.69
432.723	-7.69
432.849	13.31
432.976	22.31
433.102	13.31
433.229	2.31
433.355	29.31
433.482	77.31
433.608	133.31
433.735	138.31
433.861	123.31
433.987	145.31
434.114	244.31
434.24	179.31
434.367	69.31
434.493	-6.69
434.62	23.31
434.746	27.31
434.872	14.31
434.999	18.31
435.125	15.31
435.252	3.31
435.378	11.31
435.504	15.31
435.631	28.31
435.757	-2.69
435.883	-1.69
436.01	23.31
436.136	5.31
436.262	16.31
436.389	5.31
436.515	20.31
436.641	8.31
436.768	17.31
436.894	1.31
437.02	19.31
437.147	22.31
437.273	6.31
437.399	17.31
437.526	28.31
437.652	-5.69
437.778	33.31
437.904	10.31
438.031	17.31
438.157	4.31
438.283	1.31
438.409	-3.69
438.536	-5.69
438.662	22.31
438.788	4.31
438.914	7.31
439.041	5.31
439.167	38.31
439.293	13.31
439.419	6.31
439.546	16.31
439.672	6.31
439.798	8.31
439.924	20.31
440.05	33.31
440.177	30.31
440.303	10.31
440.429	-3.69
440.555	34.31
440.681	16.31
440.807	12.31
440.934	15.31
441.06	35.31
441.186	0.31
441.312	17.31
441.438	12.31
441.564	17.31
441.69	17.31
441.816	9.31
441.943	-4.69
442.069	7.31
442.195	17.31
442.321	25.31
442.447	2.31
442.573	-2.69
442.699	-1.69
442.825	1.31
442.951	3.31
443.077	9.31
443.203	15.31
443.33	8.31
443.456	16.31
443.582	10.31
443.708	-10.69
443.834	20.31
443.96	9.31
444.086	3.31
444.212	28.31
444.338	38.31
444.464	33.31
444.59	32.31
444.716	9.31
444.842	11.31
444.968	1.31
445.094	16.31
445.22	9.31
445.346	-0.69
445.472	-2.69
445.598	4.31
445.724	19.31
445.85	-12.69
445.976	12.31
446.102	12.31
446.228	4.31
446.354	16.31
446.48	-4.69
446.605	15.31
446.731	18.31
446.857	-0.69
446.983	11.31
447.109	11.31
447.235	23.31
447.361	7.31
447.487	13.31
447.613	0.31
447.739	1.31
447.865	14.31
447.99	15.31
448.116	17.31
448.242	1.31
448.368	5.31
448.494	-2.69
448.62	20.31
448.746	5.31
448.872	16.31
448.997	4.31
449.123	0.31
449.249	23.31
449.375	32.31
449.501	-3.69
449.627	3.31
449.752	14.31
449.878	10.31
450.004	0.31
450.13	28.31
450.256	9.31
450.381	23.31
450.507	21.31
450.633	22.31
450.759	25.31
450.884	16.31
451.01	18.31
451.136	1.31
451.262	11.31
451.388	3.31
451.513	2.31
451.639	24.31
451.765	10.31
451.89	21.31
452.016	23.31
452.142	-3.69
452.268	8.31
452.393	-0.69
452.519	-8.69
452.645	9.31
452.771	21.31
452.896	1.31
453.022	1.31
453.148	14.31
453.273	14.31
453.399	29.31
453.525	-9.69
453.65	8.31
453.776	10.31
453.902	11.31
454.027	23.31
454.153	3.31
454.279	15.31
454.404	4.31
454.53	13.31
454.656	28.31
454.781	5.31
454.907	14.31
455.032	7.31
455.158	13.31
455.284	20.31
455.409	18.31
455.535	24.31
455.66	24.31
455.786	45.31
455.912	12.31
456.037	-6.69
456.163	-0.69
456.288	17.31
456.414	-0.69
456.539	-2.69
456.665	36.31
456.791	19.31
456.916	19.31
457.042	15.31
457.167	-3.69
457.293	14.31
457.418	12.31
457.544	11.31
457.669	-5.69
457.795	2.31
457.92	16.31
458.046	7.31
458.171	13.31
458.297	0.31
458.422	-11.69
458.548	-6.69
458.673	12.31
458.799	17.31
458.924	3.31
459.05	17.31
459.175	6.31
459.301	-8.69
459.426	22.31
459.552	0.31
459.677	-9.69
459.803	34.31
459.928	25.31
460.053	14.31
460.179	20.31
460.304	13.31
460.43	7.31
460.555	6.31
460.681	8.31
460.806	-8.69
460.931	12.31
461.057	18.31
461.182	3.31
461.308	19.31
461.433	18.31
461.558	-2.69
461.684	14.31
461.809	29.31
461.934	14.31
462.06	7.31
462.185	0.31
462.311	3.31
462.436	25.31
462.561	11.31
462.687	1.31
462.812	8.31
462.937	-2.69
463.063	-12.69
463.188	0.31
463.313	18.31
463.439	6.31
463.564	0.31
463.689	-0.69
463.814	8.31
463.94	6.31
464.065	19.31
464.19	13.31
464.316	3.31
464.441	-2.69
464.566	15.31
464.692	20.31
464.817	8.31
464.942	9.31
465.067	5.31
465.193	-8.69
465.318	-7.69
465.443	15.31
465.568	12.31
465.694	12.31
465.819	27.31
465.944	17.31
466.069	8.31
466.194	14.31
466.32	21.31
466.445	-6.69
466.57	-4.69
466.695	-5.69
466.82	9.31
466.946	20.31
467.071	23.31
467.196	7.31
467.321	8.31
467.446	1.31
467.572	6.31
467.697	2.31
467.822	4.31
467.947	4.31
468.072	-2.69
468.197	0.31
468.323	-16.69
468.448	-18.69
468.573	-0.69
468.698	12.31
468.823	11.31
468.948	26.31
469.073	31.31
469.198	13.31
469.324	34.31
469.449	-6.69
469.574	21.31
469.699	12.31
469.824	18.31
469.949	17.31
470.074	33.31
470.199	52.31
470.324	18.31
470.449	29.31
470.574	-1.69
470.7	16.31
470.825	27.31
470.95	33.31
471.075	4.31
471.2	5.31
471.325	13.31
471.45	1.31
471.575	-5.69
471.7	13.31
471.825	4.31
471.95	4.31
472.075	12.31
472.2	1.31
472.325	8.31
472.45	-3.69
472.575	19.31
472.7	-0.69
472.825	18.31
472.95	11.31
473.075	17.31
473.2	-17.69
473.325	3.31
473.45	-0.69
473.575	-10.69
473.7	-0.69
473.825	6.31
473.95	31.31
474.075	21.31
474.2	5.31
474.325	3.31
474.45	16.31
474.574	14.31
474.699	16.31
474.824	7.31
474.949	-4.69
475.074	-5.69
475.199	10.31
475.324	9.31
475.449	-11.69
475.574	-4.69
475.699	11.31
475.824	2.31
475.949	13.31
476.073	11.31
476.198	8.31
476.323	19.31
476.448	0.31
476.573	1.31
476.698	27.31
476.823	26.31
476.947	12.31
477.072	-2.69
477.197	0.31
477.322	-2.69
477.447	3.31
477.572	23.31
477.697	23.31
477.821	-0.69
477.946	25.31
478.071	25.31
478.196	13.31
478.321	19.31
478.445	17.31
478.57	8.31
478.695	8.31
478.82	17.31
478.945	12.31
479.069	0.31
479.194	10.31
479.319	8.31
479.444	27.31
479.569	7.31
479.693	23.31
479.818	21.31
479.943	18.31
480.068	21.31
480.192	29.31
480.317	23.31
480.442	20.31
480.567	-3.69
480.691	7.31
480.816	-1.69
480.941	4.31
481.066	19.31
481.19	45.31
481.315	15.31
481.44	16.31
481.564	-14.69
481.689	10.31
481.814	23.31
481.938	22.31
482.063	4.31
482.188	20.31
482.313	13.31
482.437	21.31
482.562	25.31
482.687	19.31
482.811	14.31
482.936	19.31
483.061	32.31
483.185	18.31
483.31	29.31
483.435	20.31
483.559	30.31
483.684	17.31
483.808	32.31
483.933	22.31
484.058	29.31
484.182	32.31
484.307	17.31
484.432	11.31
484.556	22.31
484.681	11.31
484.805	17.31
484.93	27.31
485.055	28.31
485.179	74.31
485.304	115.31
485.428	365.31
485.553	1255.31
485.678	1731.31
485.802	1611.31
485.927	1767.31
486.051	2683.31
486.176	1617.31
486.3	437.31
486.425	149.31
486.549	95.31
486.674	62.31
486.799	42.31
486.923	31.31
487.048	11.31
487.172	5.31
487.297	21.31
487.421	33.31
487.546	28.31
487.67	27.31
487.795	20.31
487.919	33.31
488.044	33.31
488.168	33.31
488.293	-0.69
488.417	-8.69
488.542	18.31
488.666	32.31
488.791	21.31
488.915	6.31
489.04	14.31
489.164	41.31
489.289	33.31
489.413	-7.69
489.538	20.31
489.662	29.31
489.786	11.31
489.911	16.31
490.035	9.31
490.16	-19.69
490.284	3.31
490.409	-7.69
490.533	6.31
490.658	45.31
490.782	12.31
490.906	13.31
491.031	25.31
491.155	30.31
491.28	13.31
491.404	15.31
491.528	29.31
491.653	32.31
491.777	24.31
491.902	-2.69
492.026	7.31
492.15	21.31
492.275	35.31
492.399	25.31
492.524	4.31
492.648	16.31
492.772	21.31
492.897	34.31
493.021	18.31
493.145	25.31
493.27	31.31
493.394	5.31
493.518	9.31
493.643	3.31
493.767	48.31
493.891	4.31
494.016	10.31
494.14	9.31
494.264	9.31
494.389	25.31
494.513	2.31
494.637	-6.69
494.762	21.31
494.886	28.31
495.01	29.31
495.134	8.31
495.259	20.31
495.383	19.31
495.507	14.31
495.632	38.31
495.756	21.31
495.88	19.31
496.004	14.31
496.129	10.31
496.253	14.31
496.377	3.31
496.501	28.31
496.626	6.31
496.75	14.31
496.874	29.31
496.998	13.31
497.123	41.31
497.247	25.31
497.371	6.31
497.495	2.31
497.62	9.31
497.744	8.31
497.868	11.31
497.992	3.31
498.116	-4.69
498.241	25.31
498.365	10.31
498.489	10.31
498.613	27.31
498.737	21.31
498.862	7.31
498.986	6.31
499.11	14.31
499.234	8.31
499.358	6.31
499.482	8.31
499.607	17.31
499.731	30.31
499.855	17.31
499.979	13.31
500.103	32.31
500.227	23.31
500.351	16.31
500.476	8.31
500.6	24.31
500.724	29.31
500.848	13.31
500.972	14.31
501.096	15.31
501.22	37.31
501.344	-0.69
501.469	4.31
501.593	11.31
501.717	15.31
501.841	18.31
501.965	19.31
502.089	17.31
502.213	16.31
502.337	9.31
502.461	15.31
502.585	8.31
502.709	25.31
502.834	10.31
502.958	4.31
503.082	11.31
503.206	16.31
503.33	13.31
503.454	27.31
503.578	28.31
503.702	19.31
503.826	19.31
503.95	30.31
504.074	13.31
504.198	12.31
504.322	-7.69
504.446	-8.69
504.57	6.31
504.694	-2.69
504.818	10.31
504.942	26.31
505.066	3.31
505.19	10.31
505.314	17.31
505.438	17.31
505.562	20.31
505.686	25.31
505.81	11.31
505.934	44.31
506.058	1.31
506.182	-10.69
506.306	20.31
506.43	6.31
506.554	7.31
506.678	9.31
506.802	8.31
506.926	11.31
507.05	7.31
507.174	20.31
507.298	13.31
507.422	5.31
507.546	27.31
507.67	19.31
507.794	-4.69
507.918	13.31
508.042	4.31
508.165	1.31
508.289	-6.69
508.413	-6.69
508.537	0.31
508.661	15.31
508.785	21.31
508.909	0.31
509.033	5.31
509.157	13.31
509.281	15.31
509.405	14.31
509.528	29.31
509.652	25.31
509.776	2.31
509.9	21.31
510.024	22.31
510.148	15.31
510.272	12.31
510.396	22.31
510.519	-7.69
510.643	11.31
510.767	10.31
510.891	10.31
511.015	10.31
511.139	8.31
511.263	22.31
511.386	22.31
511.51	18.31
511.634	13.31
511.758	7.31
511.882	3.31
512.006	9.31
512.129	19.31
512.253	31.31
512.377	0.31
512.501	15.31
512.625	25.31
512.748	16.31
512.872	3.31
512.996	-0.69
513.12	14.31
513.244	3.31
513.367	13.31
513.491	5.31
513.615	8.31
513.739	7.31
513.862	6.31
513.986	15.31
514.11	32.31
514.234	8.31
514.358	38.31
514.481	3.31
514.605	-8.69
514.729	3.31
514.853	12.31
514.976	-13.69
515.1	8.31
515.224	28.31
515.348	24.31
515.471	-9.69
515.595	7.31
515.719	-3.69
515.842	25.31
515.966	5.31
516.09	21.31
516.214	19.31
516.337	44.31
516.461	21.31
516.585	28.31
516.708	13.31
516.832	6.31
516.956	22.31
517.08	25.31
517.203	1.31
517.327	6.31
517.451	25.31
517.574	13.31
517.698	-4.69
517.822	4.31
517.945	27.31
518.069	21.31
518.193	51.31
518.316	43.31
518.44	25.31
518.564	19.31
518.687	12.31
518.811	15.31
518.935	43.31
519.058	24.31
519.182	24.31
519.306	41.31
519.429	32.31
519.553	65.31
519.676	48.31
519.8	21.31
519.924	17.31
520.047	24.31
520.171	15.31
520.294	8.31
520.418	18.31
520.542	24.31
520.665	17.31
520.789	11.31
520.913	-0.69
521.036	-1.69
521.16	2.31
521.283	13.31
521.407	9.31
521.53	-8.69
521.654	-0.69
521.778	14.31
521.901	15.31
522.025	-0.69
522.148	8.31
522.272	23.31
522.395	20.31
522.519	37.31
522.643	20.31
522.766	10.31
522.89	15.31
523.013	38.31
523.137	4.31
523.26	18.31
523.384	20.31
523.507	22.31
523.631	-1.69
523.754	5.31
523.878	-2.69
524.002	13.31
524.125	5.31
524.249	-13.69
524.372	8.31
524.496	15.31
524.619	17.31
524.743	4.31
524.866	4.31
524.99	13.31
525.113	13.31
525.237	24.31
525.36	22.31
525.484	13.31
525.607	-6.69
525.731	-15.69
525.854	-0.69
525.978	36.31
526.101	5.31
526.224	12.31
526.348	13.31
526.471	18.31
526.595	13.31
526.718	3.31
526.842	7.31
526.965	32.31
527.089	7.31
527.212	12.31
527.336	5.31
527.459	23.31
527.582	17.31
527.706	15.31
527.829	0.31
527.953	8.31
528.076	7.31
528.2	-2.69
528.323	11.31
528.446	19.31
528.57	9.31
528.693	36.31
528.817	9.31
528.94	33.31
529.064	48.31
529.187	8.31
529.31	5.31
529.434	-3.69
529.557	4.31
529.68	12.31
529.804	-5.69
529.927	-0.69
530.051	18.31
530.174	-1.69
530.297	-1.69
530.421	17.31
530.544	17.31
530.668	5.31
530.791	-11.69
530.914	9.31
531.038	6.31
531.161	-4.69
531.284	6.31
531.408	16.31
531.531	11.31
531.654	-6.69
531.778	20.31
531.901	1.31
532.024	16.31
532.148	-12.69
532.271	16.31
532.394	6.31
532.518	19.31
532.641	34.31
532.764	31.31
532.888	17.31
533.011	-0.69
533.134	-7.69
533.258	18.31
533.381	-6.69
533.504	1.31
533.628	13.31
533.751	20.31
533.874	7.31
533.997	-17.69
534.121	-12.69
534.244	-0.69
534.367	-0.69
534.491	-0.69
534.614	4.31
534.737	4.31
534.86	24.31
534.984	-6.69
535.107	1.31
535.23	14.31
535.354	21.31
535.477	2.31
535.6	19.31
535.723	24.31
535.847	-5.69
535.97	-7.69
536.093	9.31
536.216	10.31
536.34	23.31
536.463	11.31
536.586	4.31
536.709	9.31
536.833	14.31
536.956	6.31
537.079	-0.69
537.202	21.31
537.325	12.31
537.449	-8.69
537.572	13.31
537.695	9.31
537.818	-10.69
537.941	-10.69
538.065	-0.69
538.188	13.31
538.311	27.31
538.434	15.31
538.558	-5.69
538.681	13.31
538.804	17.31
538.927	13.31
539.05	12.31
539.173	14.31
539.297	-6.69
539.42	8.31
539.543	22.31
539.666	25.31
539.789	19.31
539.913	24.31
540.036	6.31
540.159	-3.69
540.282	0.31
540.405	-6.69
540.528	0.31
540.651	20.31
540.775	2.31
540.898	9.31
541.021	9.31
541.144	8.31
541.267	5.31
541.39	4.31
541.513	11.31
541.637	4.31
541.76	8.31
541.883	3.31
542.006	13.31
542.129	34.31
542.252	9.31
542.375	17.31
542.498	11.31
542.622	16.31
542.745	8.31
542.868	-13.69
542.991	25.31
543.114	24.31
543.237	35.31
543.36	19.31
543.483	18.31
543.606	19.31
543.73	21.31
543.853	1.31
543.976	1.31
544.099	26.31
544.222	13.31
544.345	6.31
544.468	-8.69
544.591	10.31
544.714	24.31
544.837	22.31
544.96	13.31
545.083	13.31
545.206	18.31
545.329	21.31
545.453	-2.69
545.576	12.31
545.699	15.31
545.822	12.31
545.945	16.31
546.068	0.31
546.191	19.31
546.314	18.31
546.437	20.31
546.56	23.31
546.683	8.31
546.806	12.31
546.929	-2.69
547.052	1.31
547.175	-11.69
547.298	13.31
547.421	13.31
547.544	14.31
547.667	23.31
547.79	3.31
547.913	2.31
548.036	2.31
548.159	16.31
548.282	-0.69
548.405	6.31
548.528	25.31
548.651	15.31
548.774	22.31
548.897	12.31
549.02	27.31
549.143	17.31
549.266	23.31
549.389	25.31
549.512	11.31
549.635	8.31
549.758	8.31
549.881	11.31
550.004	-3.69
550.127	11.31
550.25	5.31
550.373	3.31
550.496	8.31
550.619	11.31
550.742	15.31
550.865	-15.69
550.988	10.31
551.111	27.31
551.234	3.31
551.356	-6.69
551.479	3.31
551.602	2.31
551.725	18.31
551.848	12.31
551.971	31.31
552.094	15.31
552.217	6.31
552.34	-0.69
552.463	1.31
552.586	14.31
552.709	-0.69
552.832	15.31
552.955	12.31
553.077	7.31
553.2	15.31
553.323	-1.69
553.446	0.31
553.569	-6.69
553.692	3.31
553.815	-1.69
553.938	5.31
554.061	19.31
554.184	5.31
554.306	13.31
554.429	7.31
554.552	10.31
554.675	0.31
554.798	10.31
554.921	21.31
555.044	12.31
555.167	13.31
555.29	-0.69
555.412	1.31
555.535	13.31
555.658	9.31
555.781	9.31
555.904	19.31
556.027	8.31
556.15	15.31
556.272	11.31
556.395	3.31
556.518	4.31
556.641	1.31
556.764	21.31
556.887	24.31
557.01	9.31
557.132	-11.69
557.255	8.31
557.378	6.31
557.501	9.31
557.624	12.31
557.747	21.31
557.869	32.31
557.992	18.31
558.115	28.31
558.238	8.31
558.361	16.31
558.483	10.31
558.606	23.31
558.729	-10.69
558.852	40.31
558.975	26.31
559.098	23.31
559.22	9.31
559.343	18.31
559.466	20.31
559.589	16.31
559.712	22.31
559.834	13.31
559.957	18.31
560.08	11.31
560.203	19.31
560.325	28.31
560.448	28.31
560.571	11.31
560.694	-9.69
560.817	19.31
560.939	8.31
561.062	11.31
561.185	7.31
561.308	-0.69
561.43	-8.69
561.553	4.31
561.676	12.31
561.799	17.31
561.921	7.31
562.044	14.31
562.167	-2.69
562.29	26.31
562.413	7.31
562.535	18.31
562.658	16.31
562.781	13.31
562.903	8.31
563.026	9.31
563.149	27.31
563.272	9.31
563.394	4.31
563.517	1.31
563.64	-2.69
563.763	-0.69
563.885	16.31
564.008	31.31
564.131	21.31
564.254	-6.69
564.376	11.31
564.499	-20.69
564.622	-9.69
564.744	25.31
564.867	24.31
564.99	-2.69
565.113	2.31
565.235	26.31
565.358	-10.69
565.481	-14.69
565.603	5.31
565.726	-4.69
565.849	27.31
565.971	22.31
566.094	-3.69
566.217	7.31
566.34	0.31
566.462	14.31
566.585	21.31
566.708	47.31
566.83	10.31
566.953	39.31
567.076	5.31
567.198	1.31
567.321	-15.69
567.444	6.31
567.566	11.31
567.689	5.31
567.812	-19.69
567.934	6.31
568.057	6.31
568.18	11.31
568.302	9.31
568.425	-8.69
568.548	4.31
568.67	18.31
568.793	20.31
568.916	36.31
569.038	8.31
569.161	22.31
569.283	24.31
569.406	15.31
569.529	15.31
569.651	10.31
569.774	-3.69
569.897	12.31
570.019	24.31
570.142	21.31
570.265	6.31
570.387	7.31
570.51	1.31
570.632	19.31
570.755	6.31
570.878	0.31
571	10.31
571.123	6.31
571.246	21.31
571.368	1.31
571.491	-3.69
571.613	-0.69
571.736	-6.69
571.859	-4.69
571.981	4.31
572.104	27.31
572.226	19.31
572.349	-18.69
572.472	0.31
572.594	-16.69
572.717	0.31
572.839	-1.69
572.962	7.31
573.085	30.31
573.207	13.31
573.33	16.31
573.452	15.31
573.575	17.31
573.697	8.31
573.82	13.31
573.943	15.31
574.065	9.31
574.188	22.31
574.31	36.31
574.433	16.31
574.555	28.31
574.678	8.31
574.801	8.31
574.923	-0.69
575.046	0.31
575.168	2.31
575.291	5.31
575.413	3.31
575.536	3.31
575.659	8.31
575.781	17.31
575.904	17.31
576.026	21.31
576.149	5.31
576.271	29.31
576.394	10.31
576.516	1.31
576.639	8.31
576.761	-1.69
576.884	-1.69
577.007	9.31
577.129	16.31
577.252	11.31
577.374	19.31
577.497	15.31
577.619	4.31
577.742	-1.69
577.864	24.31
577.987	12.31
578.109	38.31
578.232	15.31
578.354	27.31
578.477	-5.69
578.599	12.31
578.722	14.31
578.844	15.31
578.967	16.31
579.089	18.31
579.212	10.31
579.334	34.31
579.457	16.31
579.579	12.31
579.702	-7.69
579.824	12.31
579.947	8.31
580.069	-0.69
580.192	1.31
580.314	11.31
580.437	9.31
580.559	32.31
580.682	11.31
580.804	16.31
580.927	16.31
581.049	33.31
581.172	15.31
581.294	24.31
581.417	30.31
581.539	19.31
581.662	17.31
581.784	16.31
581.907	16.31
582.029	13.31
582.152	3.31
582.274	18.31
582.396	17.31
582.519	15.31
582.641	-8.69
582.764	3.31
582.886	24.31
583.009	-6.69
583.131	-1.69
583.254	-4.69
583.376	23.31
583.499	6.31
583.621	21.31
583.743	9.31
583.866	17.31
583.988	15.31
584.111	10.31
584.233	2.31
584.356	31.31
584.478	-1.69
584.601	-2.69
584.723	-2.69
584.845	27.31
584.968	3.31
585.09	-23.69
585.213	16.31
585.335	-8.69
585.458	-3.69
585.58	-6.69
585.702	11.31
585.825	22.31
585.947	15.31
586.07	2.31
586.192	18.31
586.315	20.31
586.437	13.31
586.559	12.31
586.682	12.31
586.804	38.31
586.927	4.31
587.049	22.31
587.171	24.31
587.294	10.31
587.416	27.31
587.539	17.31
587.661	-0.69
587.783	-3.69
587.906	9.31
588.028	23.31
588.151	0.31
588.273	15.31
588.395	-3.69
588.518	9.31
588.64	20.31
588.763	32.31
588.885	18.31
589.007	10.31
589.13	2.31
589.252	-6.69
589.375	3.31
589.497	3.31
589.619	1.31
589.742	15.31
589.864	30.31
589.986	4.31
590.109	-21.69
590.231	10.31
590.354	-2.69
590.476	-18.69
590.598	-0.69
590.721	-1.69
590.843	-8.69
590.965	9.31
591.088	20.31
591.21	-8.69
591.332	16.31
591.455	-7.69
591.577	7.31
591.7	12.31
591.822	25.31
591.944	17.31
592.067	15.31
592.189	20.31
592.311	3.31
592.434	13.31
592.556	17.31
592.678	8.31
592.801	9.31
592.923	12.31
593.045	5.31
593.168	11.31
593.29	-5.69
593.412	7.31
593.535	-4.69
593.657	10.31
593.779	3.31
593.902	15.31
594.024	15.31
594.146	20.31
594.269	21.31
594.391	4.31
594.513	13.31
594.636	6.31
594.758	5.31
594.88	17.31
595.003	31.31
595.125	10.31
595.247	6.31
595.37	9.31
595.492	-3.69
595.614	40.31
595.737	3.31
595.859	7.31
595.981	-0.69
596.104	20.31
596.226	7.31
596.348	9.31
596.471	3.31
596.593	23.31
596.715	1.31
596.838	-7.69
596.96	1.31
597.082	21.31
597.204	9.31
597.327	15.31
597.449	22.31
597.571	22.31
597.694	25.31
597.816	23.31
597.938	-4.69
598.061	-2.69
598.183	15.31
598.305	30.31
598.427	24.31
598.55	26.31
598.672	24.31
598.794	33.31
598.917	8.31
599.039	11.31
599.161	11.31
599.283	13.31
599.406	8.31
599.528	9.31
599.65	19.31
599.773	1.31
599.895	13.31
600.017	33.31
600.139	2.31
600.262	-4.69
600.384	0.31
600.506	15.31
600.628	15.31
600.751	20.31
600.873	6.31
600.995	3.31
601.118	9.31
601.24	3.31
601.362	16.31
601.484	24.31
601.607	27.31
601.729	18.31
601.851	15.31
601.973	14.31
602.096	11.31
602.218	15.31
602.34	24.31
602.462	21.31
602.585	4.31
602.707	-10.69
602.829	15.31
602.951	3.31
603.074	0.31
603.196	27.31
603.318	-2.69
603.44	15.31
603.563	9.31
603.685	6.31
603.807	14.31
603.929	12.31
604.052	20.31
604.174	30.31
604.296	12.31
604.418	-0.69
604.541	33.31
604.663	-6.69
604.785	9.31
604.907	15.31
605.03	-11.69
605.152	28.31
605.274	8.31
605.396	8.31
605.519	2.31
605.641	-9.69
605.763	6.31
605.885	19.31
606.008	5.31
606.13	31.31
606.252	35.31
606.374	-4.69
606.496	16.31
606.619	17.31
606.741	19.31
606.863	31.31
606.985	33.31
607.108	23.31
607.23	8.31
607.352	7.31
607.474	0.31
607.596	26.31
607.719	3.31
607.841	16.31
607.963	13.31
608.085	18.31
608.207	55.31
608.33	10.31
608.452	-0.69
608.574	11.31
608.696	18.31
608.819	11.31
608.941	22.31
609.063	3.31
609.185	13.31
609.307	22.31
609.43	27.31
609.552	4.31
609.674	-12.69
609.796	15.31
609.918	12.31
610.041	19.31
610.163	22.31
610.285	0.31
610.407	17.31
610.529	0.31
610.652	12.31
610.774	12.31
610.896	4.31
611.018	14.31
611.14	26.31
611.263	4.31
611.385	9.31
611.507	12.31
611.629	-3.69
611.751	6.31
611.873	42.31
611.996	16.31
612.118	20.31
612.24	16.31
612.362	3.31
612.484	21.31
612.607	20.31
612.729	23.31
612.851	7.31
612.973	-4.69
613.095	10.31
613.218	19.31
613.34	23.31
613.462	14.31
613.584	20.31
613.706	9.31
613.828	45.31
613.951	19.31
614.073	15.31
614.195	5.31
614.317	14.31
614.439	7.31
614.561	-2.69
614.684	28.31
614.806	22.31
614.928	17.31
615.05	6.31
615.172	12.31
615.294	13.31
615.417	11.31
615.539	8.31
615.661	26.31
615.783	30.31
615.905	37.31
616.027	65.31
616.15	119.31
616.272	88.31
616.394	64.31
616.516	42.31
616.638	18.31
616.76	-3.69
616.883	11.31
617.005	13.31
617.127	6.31
617.249	2.31
617.371	7.31
617.493	3.31
617.615	25.31
617.738	15.31
617.86	9.31
617.982	1.31
618.104	5.31
618.226	-0.69
618.348	-9.69
618.471	19.31
618.593	25.31
618.715	10.31
618.837	31.31
618.959	11.31
619.081	24.31
619.203	18.31
619.326	25.31
619.448	17.31
619.57	3.31
619.692	15.31
619.814	22.31
619.936	12.31
620.058	7.31
620.181	13.31
620.303	5.31
620.425	6.31
620.547	15.31
620.669	4.31
620.791	11.31
620.913	13.31
621.036	-8.69
621.158	0.31
621.28	7.31
621.402	-6.69
621.524	15.31
621.646	17.31
621.768	2.31
621.891	-11.69
622.013	-4.69
622.135	-4.69
622.257	-10.69
622.379	-10.69
622.501	7.31
622.623	1.31
622.745	9.31
622.868	7.31
622.99	-0.69
623.112	-1.69
623.234	7.31
623.356	0.31
623.478	-17.69
623.6	13.31
623.722	-8.69
623.845	16.31
623.967	5.31
624.089	5.31
624.211	8.31
624.333	23.31
624.455	3.31
624.577	14.31
624.699	14.31
624.822	8.31
624.944	7.31
625.066	9.31
625.188	-6.69
625.31	16.31
625.432	22.31
625.554	13.31
625.676	18.31
625.799	6.31
625.921	16.31
626.043	21.31
626.165	-1.69
626.287	-14.69
626.409	28.31
626.531	7.31
626.653	12.31
626.775	11.31
626.898	14.31
627.02	-0.69
627.142	13.31
627.264	11.31
627.386	3.31
627.508	18.31
627.63	-0.69
627.752	-2.69
627.874	4.31
627.997	6.31
628.119	15.31
628.241	28.31
628.363	21.31
628.485	0.31
628.607	1.31
628.729	1.31
628.851	6.31
628.973	0.31
629.096	0.31
629.218	11.31
629.34	20.31
629.462	12.31
629.584	6.31
629.706	1.31
629.828	20.31
629.95	4.31
630.072	-4.69
630.195	0.31
630.317	9.31
630.439	11.31
630.561	-4.69
630.683	12.31
630.805	16.31
630.927	11.31
631.049	3.31
631.171	-6.69
631.293	-2.69
631.416	15.31
631.538	13.31
631.66	25.31
631.782	24.31
631.904	19.31
632.026	-2.69
632.148	-5.69
632.27	-2.69
632.392	19.31
632.514	17.31
632.637	21.31
632.759	19.31
632.881	6.31
633.003	13.31
633.125	3.31
633.247	3.31
633.369	4.31
633.491	17.31
633.613	21.31
633.735	10.31
633.858	21.31
633.98	14.31
634.102	-3.69
634.224	8.31
634.346	25.31
634.468	10.31
634.59	15.31
634.712	15.31
634.834	6.31
634.956	1.31
635.078	7.31
635.201	-11.69
635.323	-2.69
635.445	-12.69
635.567	-9.69
635.689	3.31
635.811	6.31
635.933	13.31
636.055	12.31
636.177	9.31
636.299	29.31
636.421	5.31
636.544	-24.69
636.666	12.31
636.788	14.31
636.91	25.31
637.032	0.31
637.154	16.31
637.276	44.31
637.398	27.31
637.52	15.31
637.642	16.31
637.764	18.31
637.887	-0.69
638.009	16.31
638.131	15.31
638.253	10.31
638.375	16.31
638.497	5.31
638.619	-11.69
638.741	10.31
638.863	4.31
638.985	12.31
639.107	7.31
639.23	14.31
639.352	20.31
639.474	9.31
639.596	8.31
639.718	8.31
639.84	12.31
639.962	5.31
640.084	31.31
640.206	16.31
640.328	9.31
640.45	16.31
640.573	-0.69
640.695	4.31
640.817	9.31
640.939	16.31
641.061	3.31
641.183	-8.69
641.305	14.31
641.427	4.31
641.549	-2.69
641.671	18.31
641.793	3.31
641.915	27.31
642.038	17.31
642.16	23.31
642.282	7.31
642.404	-9.69
642.526	18.31
642.648	24.31
642.77	4.31
642.892	3.31
643.014	36.31
643.136	14.31
643.258	12.31
643.381	19.31
643.503	19.31
643.625	1.31
643.747	5.31
643.869	4.31
643.991	7.31
644.113	37.31
644.235	13.31
644.357	26.31
644.479	14.31
644.601	9.31
644.723	12.31
644.846	-7.69
644.968	10.31
645.09	9.31
645.212	-0.69
645.334	13.31
645.456	2.31
645.578	5.31
645.7	-5.69
645.822	16.31
645.944	4.31
646.066	19.31
646.188	-10.69
646.311	9.31
646.433	7.31
646.555	51.31
646.677	40.31
646.799	34.31
646.921	16.31
647.043	38.31
647.165	-12.69
647.287	12.31
647.409	11.31
647.531	23.31
647.654	0.31
647.776	29.31
647.898	17.31
648.02	12.31
648.142	-5.69
648.264	-7.69
648.386	-2.69
648.508	20.31
648.63	3.31
648.752	28.31
648.874	3.31
648.997	16.31
649.119	8.31
649.241	11.31
649.363	32.31
649.485	18.31
649.607	-5.69
649.729	1.31
649.851	-3.69
649.973	7.31
650.095	19.31
650.217	-10.69
650.34	-8.69
650.462	13.31
650.584	15.31
650.706	23.31
650.828	19.31
650.95	-16.69
651.072	9.31
651.194	0.31
651.316	7.31
651.438	10.31
651.56	-6.69
651.683	4.31
651.805	10.31
651.927	5.31
652.049	7.31
652.171	2.31
652.293	-0.69
652.415	-6.69
652.537	-4.69
652.659	3.31
652.781	16.31
652.903	23.31
653.026	25.31
653.148	-3.69
653.27	8.31
653.392	15.31
653.514	16.31
653.636	3.31
653.758	-6.69
653.88	13.31
654.002	7.31
654.124	11.31
654.247	14.31
654.369	9.31
654.491	0.31
654.613	10.31
654.735	14.31
654.857	31.31
654.979	2.31
655.101	16.31
655.223	45.31
655.345	34.31
655.468	37.31
655.59	29.31
655.712	32.31
655.834	18.31
655.956	48.31
656.078	35.31
656.2	36.31
656.322	29.31
656.444	23.31
656.566	52.31
656.689	48.31
656.811	68.31
656.933	81.31
657.055	96.31
657.177	149.31
657.299	245.31
657.421	487.31
657.543	1895.31
657.665	12543.31
657.787	15172.31
657.91	15259.31
658.032	15662.31
658.154	4624.31
658.276	3496.31
658.398	1174.31
658.52	1009.31
658.642	476.31
658.764	590.31
658.886	273.31
659.009	414.31
659.131	239.31
659.253	301.31
659.375	161.31
659.497	256.31
659.619	132.31
659.741	221.31
659.863	96.31
659.985	163.31
660.108	107.31
660.23	172.31
660.352	59.31
660.474	147.31
660.596	71.31
660.718	133.31
660.84	58.31
660.962	110.31
661.084	53.31
661.207	108.31
661.329	65.31
661.451	82.31
661.573	49.31
661.695	109.31
661.817	64.31
661.939	104.31
662.061	44.31
662.184	83.31
662.306	48.31
662.428	93.31
662.55	67.31
662.672	61.31
662.794	45.31
662.916	53.31
663.038	31.31
663.161	71.31
663.283	58.31
663.405	71.31
663.527	27.31
663.649	63.31
663.771	42.31
663.893	56.31
664.015	32.31
664.138	51.31
664.26	38.31
664.382	67.31
664.504	29.31
664.626	33.31
664.748	20.31
664.87	36.31
664.992	43.31
665.115	48.31
665.237	25.31
665.359	36.31
665.481	29.31
665.603	50.31
665.725	18.31
665.847	20.31
665.97	13.31
666.092	36.31
666.214	31.31
666.336	29.31
666.458	22.31
666.58	35.31
666.702	0.31
666.825	30.31
666.947	-7.69
667.069	39.31
667.191	15.31
667.313	36.31
667.435	8.31
667.557	15.31
667.68	-6.69
667.802	18.31
667.924	13.31
668.046	33.31
668.168	28.31
668.29	42.31
668.412	13.31
668.535	41.31
668.657	27.31
668.779	25.31
668.901	22.31
669.023	25.31
669.145	27.31
669.267	39.31
669.39	13.31
669.512	44.31
669.634	18.31
669.756	31.31
669.878	3.31
670	33.31
670.123	13.31
670.245	36.31
670.367	5.31
670.489	32.31
670.611	5.31
670.733	10.31
670.856	9.31
670.978	22.31
671.1	20.31
671.222	25.31
671.344	-0.69
671.466	17.31
671.589	11.31
671.711	12.31
671.833	14.31
671.955	23.31
672.077	7.31
672.199	38.31
672.322	47.31
672.444	25.31
672.566	36.31
672.688	15.31
672.81	14.31
672.932	23.31
673.055	1.31
673.177	13.31
673.299	7.31
673.421	3.31
673.543	8.31
673.665	11.31
673.788	7.31
673.91	-3.69
674.032	-5.69
674.154	23.31
674.276	10.31
674.399	19.31
674.521	-7.69
674.643	18.31
674.765	3.31
674.887	43.31
675.009	16.31
675.132	14.31
675.254	5.31
675.376	23.31
675.498	-8.69
675.62	25.31
675.743	-3.69
675.865	30.31
675.987	4.31
676.109	15.31
676.231	8.31
676.354	33.31
676.476	-0.69
676.598	23.31
676.72	17.31
676.842	13.31
676.965	5.31
677.087	27.31
677.209	14.31
677.331	28.31
677.453	3.31
677.576	8.31
677.698	21.31
677.82	12.31
677.942	4.31
678.064	2.31
678.187	21.31
678.309	29.31
678.431	3.31
678.553	-0.69
678.675	33.31
678.798	25.31
678.92	8.31
679.042	17.31
679.164	8.31
679.286	21.31
679.409	-0.69
679.531	-0.69
679.653	12.31
679.775	5.31
679.898	9.31
680.02	16.31
680.142	-8.69
680.264	29.31
680.386	-3.69
680.509	35.31
680.631	5.31
680.753	6.31
680.875	10.31
680.998	23.31
681.12	4.31
681.242	22.31
681.364	-27.69
681.486	9.31
681.609	-4.69
681.731	10.31
681.853	0.31
681.975	8.31
682.098	10.31
682.22	31.31
682.342	-7.69
682.464	39.31
682.587	8.31
682.709	9.31
682.831	-13.69
682.953	-0.69
683.076	-11.69
683.198	7.31
683.32	5.31
683.442	20.31
683.565	23.31
683.687	20.31
683.809	17.31
683.931	7.31
684.054	29.31
684.176	16.31
684.298	25.31
684.42	11.31
684.543	7.31
684.665	13.31
684.787	8.31
684.909	7.31
685.032	18.31
685.154	5.31
685.276	0.31
685.398	6.31
685.521	-9.69
685.643	16.31
685.765	9.31
685.887	25.31
686.01	16.31
686.132	15.31
686.254	5.31
686.377	24.31
686.499	4.31
686.621	28.31
686.743	11.31
686.866	-0.69
686.988	32.31
687.11	27.31
687.232	4.31
687.355	-7.69
687.477	-11.69
687.599	-4.69
687.722	-4.69
687.844	11.31
687.966	15.31
688.088	4.31
688.211	14.31
688.333	32.31
688.455	12.31
688.578	21.31
688.7	13.31
688.822	23.31
688.944	-21.69
689.067	39.31
689.189	19.31
689.311	-3.69
689.434	4.31
689.556	1.31
689.678	20.31
689.801	12.31
689.923	-4.69
690.045	25.31
690.167	29.31
690.29	31.31
690.412	5.31
690.534	8.31
690.657	1.31
690.779	19.31
690.901	15.31
691.024	-1.69
691.146	2.31
691.268	0.31
691.391	16.31
691.513	7.31
691.635	9.31
691.758	28.31
691.88	12.31
692.002	1.31
692.125	7.31
692.247	3.31
692.369	-2.69
692.492	-0.69
692.614	0.31
692.736	7.31
692.859	-4.69
692.981	-5.69
693.103	0.31
693.226	22.31
693.348	32.31
693.47	9.31
693.593	1.31
693.715	-18.69
693.837	-20.69
693.96	-5.69
694.082	-18.69
694.204	12.31
694.327	10.31
694.449	2.31
694.571	8.31
694.694	15.31
694.816	28.31
694.938	3.31
695.061	1.31
695.183	12.31
695.305	5.31
695.428	14.31
695.55	-1.69
695.672	1.31
695.795	12.31
695.917	17.31
696.04	-4.69
696.162	-2.69
696.284	13.31
696.407	9.31
696.529	2.31
696.651	31.31
696.774	13.31
696.896	15.31
697.019	8.31
697.141	8.31
697.263	2.31
697.386	-2.69
697.508	5.31
697.63	6.31
697.753	2.31
697.875	3.31
697.998	-10.69
698.12	17.31
698.242	14.31
698.365	8.31
698.487	15.31
698.61	14.31
698.732	1.31
698.854	29.31
698.977	9.31
699.099	21.31
699.221	-6.69
699.344	-1.69
699.466	-2.69
699.589	-1.69
699.711	-3.69
699.834	2.31
699.956	-0.69
700.078	29.31
700.201	0.31
700.323	23.31
700.446	10.31
700.568	-1.69
700.69	14.31
700.813	19.31
700.935	7.31
701.058	24.31
701.18	17.31
701.302	10.31
701.425	5.31
701.547	13.31
701.67	9.31
701.792	9.31
701.915	3.31
702.037	-9.69
702.159	21.31
702.282	3.31
702.404	-6.69
702.527	18.31
702.649	10.31
702.772	2.31
702.894	1.31
703.017	13.31
703.139	20.31
703.261	28.31
703.384	22.31
703.506	-5.69
703.629	-20.69
703.751	-9.69
703.874	5.31
703.996	8.31
704.119	3.31
704.241	13.31
704.364	-14.69
704.486	24.31
704.608	12.31
704.731	35.31
704.853	13.31
704.976	18.31
705.098	11.31
705.221	8.31
705.343	7.31
705.466	0.31
705.588	14.31
705.711	8.31
705.833	15.31
705.956	7.31
706.078	17.31
706.201	11.31
706.323	5.31
706.446	9.31
