Data from LowRes_H2_15_26_11_07_2024_HR4C61881__3__15-28-13-937.txt Node

Date: Thu Nov 07 15:28:13 EST 2024
User: crc00042
Spectrometer: HR4C6188
Trigger mode: 4
Integration Time (sec): 1.000000E-1
Scans to average: 1
Electric dark correction enabled: true
Nonlinearity correction enabled: false
Boxcar width: 0
XAxis mode: Wavelengths
Number of Pixels in Spectrum: 3648
>>>>>Begin Spectral Data<<<<<
245.66	-76.15
245.797	-76.15
245.934	-76.15
246.071	-73.15
246.208	21.85
246.344	-0.15
246.481	-23.15
246.618	-22.15
246.755	20.85
246.892	-6.15
247.029	-9.15
247.165	-1.15
247.302	21.85
247.439	7.85
247.576	5.85
247.713	-7.15
247.849	18.85
247.986	-6.15
248.123	1.85
248.26	-15.15
248.396	19.85
248.533	-0.15
248.67	6.85
248.806	15.85
248.943	-18.15
249.08	-18.15
249.216	16.85
249.353	-15.15
249.49	0.85
249.626	-10.15
249.763	-2.15
249.9	-1.15
250.036	-6.15
250.173	8.85
250.309	-0.15
250.446	21.85
250.582	24.85
250.719	16.85
250.856	7.85
250.992	-19.15
251.129	5.85
251.265	-22.15
251.402	5.85
251.538	9.85
251.675	10.85
251.811	16.85
251.948	22.85
252.084	22.85
252.221	0.85
252.357	-6.15
252.493	19.85
252.63	9.85
252.766	33.85
252.903	-8.15
253.039	18.85
253.175	4.85
253.312	5.85
253.448	-3.15
253.585	-19.15
253.721	1.85
253.857	-7.15
253.994	9.85
254.13	-13.15
254.266	-6.15
254.403	11.85
254.539	4.85
254.675	23.85
254.811	11.85
254.948	4.85
255.084	-5.15
255.22	1.85
255.356	-8.15
255.493	9.85
255.629	18.85
255.765	2.85
255.901	16.85
256.037	15.85
256.174	9.85
256.31	-2.15
256.446	-2.15
256.582	5.85
256.718	1.85
256.854	7.85
256.991	-5.15
257.127	9.85
257.263	11.85
257.399	24.85
257.535	17.85
257.671	-12.15
257.807	-22.15
257.943	-7.15
258.079	-10.15
258.215	4.85
258.351	9.85
258.487	17.85
258.623	22.85
258.759	-2.15
258.895	-4.15
259.031	2.85
259.167	-18.15
259.303	15.85
259.439	6.85
259.575	5.85
259.711	8.85
259.847	-15.15
259.983	21.85
260.119	7.85
260.255	-12.15
260.391	11.85
260.527	10.85
260.663	16.85
260.799	6.85
260.934	-3.15
261.07	12.85
261.206	-4.15
261.342	1.85
261.478	19.85
261.614	15.85
261.749	8.85
261.885	3.85
262.021	22.85
262.157	19.85
262.293	14.85
262.428	6.85
262.564	1.85
262.7	13.85
262.836	-1.15
262.971	9.85
263.107	9.85
263.243	25.85
263.378	-0.15
263.514	-19.15
263.65	-9.15
263.785	-25.15
263.921	8.85
264.057	2.85
264.192	3.85
264.328	22.85
264.464	-9.15
264.599	26.85
264.735	29.85
264.871	9.85
265.006	16.85
265.142	-4.15
265.277	10.85
265.413	5.85
265.548	21.85
265.684	27.85
265.819	1.85
265.955	-9.15
266.091	-0.15
266.226	6.85
266.362	-4.15
266.497	10.85
266.633	5.85
266.768	4.85
266.903	20.85
267.039	15.85
267.174	29.85
267.31	5.85
267.445	-5.15
267.581	0.85
267.716	25.85
267.851	12.85
267.987	15.85
268.122	29.85
268.258	-17.15
268.393	-6.15
268.528	10.85
268.664	2.85
268.799	4.85
268.934	-6.15
269.07	-2.15
269.205	2.85
269.34	26.85
269.476	11.85
269.611	-3.15
269.746	18.85
269.881	11.85
270.017	30.85
270.152	8.85
270.287	-0.15
270.422	34.85
270.558	-4.15
270.693	22.85
270.828	10.85
270.963	-4.15
271.098	-2.15
271.234	4.85
271.369	23.85
271.504	3.85
271.639	-5.15
271.774	1.85
271.909	2.85
272.045	-31.15
272.18	-1.15
272.315	-15.15
272.45	14.85
272.585	-1.15
272.72	6.85
272.855	14.85
272.99	11.85
273.125	5.85
273.26	-13.15
273.395	3.85
273.53	8.85
273.665	29.85
273.8	-4.15
273.935	7.85
274.07	2.85
274.205	6.85
274.34	13.85
274.475	10.85
274.61	25.85
274.745	-2.15
274.88	19.85
275.015	15.85
275.15	8.85
275.285	12.85
275.42	4.85
275.555	32.85
275.69	5.85
275.825	14.85
275.959	15.85
276.094	11.85
276.229	5.85
276.364	2.85
276.499	0.85
276.634	-9.15
276.768	0.85
276.903	4.85
277.038	13.85
277.173	-0.15
277.308	-7.15
277.442	-7.15
277.577	-0.15
277.712	-7.15
277.847	6.85
277.981	5.85
278.116	-14.15
278.251	15.85
278.386	21.85
278.52	2.85
278.655	4.85
278.79	26.85
278.924	-7.15
279.059	11.85
279.194	-14.15
279.328	31.85
279.463	11.85
279.598	34.85
279.732	20.85
279.867	14.85
280.001	6.85
280.136	5.85
280.271	23.85
280.405	18.85
280.54	-0.15
280.674	-4.15
280.809	24.85
280.943	-0.15
281.078	-1.15
281.213	19.85
281.347	9.85
281.482	-3.15
281.616	3.85
281.751	4.85
281.885	-18.15
282.02	14.85
282.154	12.85
282.288	8.85
282.423	-12.15
282.557	-22.15
282.692	9.85
282.826	16.85
282.961	10.85
283.095	11.85
283.229	16.85
283.364	9.85
283.498	-0.15
283.633	4.85
283.767	-0.15
283.901	8.85
284.036	2.85
284.17	-6.15
284.304	-6.15
284.439	5.85
284.573	-2.15
284.707	-1.15
284.842	0.85
284.976	-3.15
285.11	0.85
285.244	-6.15
285.379	34.85
285.513	-9.15
285.647	18.85
285.781	26.85
285.916	-1.15
286.05	-11.15
286.184	30.85
286.318	19.85
286.453	10.85
286.587	-11.15
286.721	-7.15
286.855	15.85
286.989	27.85
287.123	10.85
287.258	1.85
287.392	-4.15
287.526	10.85
287.66	12.85
287.794	7.85
287.928	16.85
288.062	3.85
288.196	9.85
288.33	9.85
288.464	24.85
288.598	35.85
288.733	18.85
288.867	25.85
289.001	27.85
289.135	5.85
289.269	-7.15
289.403	-8.15
289.537	13.85
289.671	13.85
289.805	5.85
289.939	14.85
290.073	-1.15
290.207	17.85
290.34	0.85
290.474	11.85
290.608	14.85
290.742	2.85
290.876	8.85
291.01	16.85
291.144	30.85
291.278	31.85
291.412	-2.15
291.546	-11.15
291.679	-11.15
291.813	-3.15
291.947	15.85
292.081	-7.15
292.215	9.85
292.349	22.85
292.482	6.85
292.616	-12.15
292.75	11.85
292.884	11.85
293.018	-0.15
293.151	-19.15
293.285	23.85
293.419	13.85
293.553	13.85
293.686	-11.15
293.82	4.85
293.954	15.85
294.088	29.85
294.221	10.85
294.355	8.85
294.489	11.85
294.622	4.85
294.756	18.85
294.89	9.85
295.023	-11.15
295.157	11.85
295.291	4.85
295.424	15.85
295.558	-1.15
295.691	4.85
295.825	0.85
295.959	6.85
296.092	-13.15
296.226	-0.15
296.359	3.85
296.493	16.85
296.627	3.85
296.76	3.85
296.894	-0.15
297.027	-5.15
297.161	-2.15
297.294	-6.15
297.428	6.85
297.561	33.85
297.695	3.85
297.828	20.85
297.962	-8.15
298.095	-6.15
298.229	11.85
298.362	-5.15
298.495	-16.15
298.629	-18.15
298.762	10.85
298.896	-5.15
299.029	-6.15
299.162	14.85
299.296	21.85
299.429	4.85
299.563	10.85
299.696	28.85
299.829	8.85
299.963	18.85
300.096	7.85
300.229	7.85
300.363	11.85
300.496	-1.15
300.629	-5.15
300.763	3.85
300.896	-1.15
301.029	7.85
301.162	6.85
301.296	-12.15
301.429	-0.15
301.562	-18.15
301.695	7.85
301.829	-1.15
301.962	33.85
302.095	12.85
302.228	-23.15
302.362	8.85
302.495	8.85
302.628	10.85
302.761	3.85
302.894	-0.15
303.027	20.85
303.161	-14.15
303.294	-22.15
303.427	-4.15
303.56	10.85
303.693	4.85
303.826	17.85
303.959	-14.15
304.092	1.85
304.225	-14.15
304.359	11.85
304.492	14.85
304.625	-8.15
304.758	14.85
304.891	-9.15
305.024	-0.15
305.157	-19.15
305.29	-15.15
305.423	-7.15
305.556	17.85
305.689	32.85
305.822	3.85
305.955	-6.15
306.088	14.85
306.221	12.85
306.354	5.85
306.487	0.85
306.62	10.85
306.752	-10.15
306.885	-0.15
307.018	-20.15
307.151	19.85
307.284	28.85
307.417	12.85
307.55	18.85
307.683	9.85
307.816	22.85
307.948	17.85
308.081	27.85
308.214	-1.15
308.347	17.85
308.48	-4.15
308.613	-19.15
308.745	24.85
308.878	11.85
309.011	-0.15
309.144	16.85
309.277	11.85
309.409	25.85
309.542	-3.15
309.675	24.85
309.808	8.85
309.94	18.85
310.073	-2.15
310.206	2.85
310.339	7.85
310.471	-4.15
310.604	30.85
310.737	-8.15
310.869	7.85
311.002	17.85
311.135	11.85
311.267	-22.15
311.4	-8.15
311.533	31.85
311.665	-19.15
311.798	9.85
311.93	6.85
312.063	2.85
312.196	-2.15
312.328	0.85
312.461	6.85
312.593	-4.15
312.726	20.85
312.859	1.85
312.991	22.85
313.124	-17.15
313.256	-3.15
313.389	16.85
313.521	2.85
313.654	-2.15
313.786	-3.15
313.919	-14.15
314.051	16.85
314.184	15.85
314.316	24.85
314.449	-24.15
314.581	-10.15
314.714	-8.15
314.846	12.85
314.978	-21.15
315.111	-27.15
315.243	4.85
315.376	24.85
315.508	36.85
315.641	-10.15
315.773	19.85
315.905	25.85
316.038	-3.15
316.17	13.85
316.302	9.85
316.435	-8.15
316.567	-8.15
316.699	10.85
316.832	-12.15
316.964	0.85
317.096	19.85
317.229	-4.15
317.361	-27.15
317.493	7.85
317.625	-2.15
317.758	5.85
317.89	16.85
318.022	19.85
318.155	-1.15
318.287	14.85
318.419	17.85
318.551	3.85
318.683	17.85
318.816	-4.15
318.948	-11.15
319.08	4.85
319.212	9.85
319.344	11.85
319.477	20.85
319.609	20.85
319.741	5.85
319.873	4.85
320.005	-6.15
320.137	12.85
320.269	-7.15
320.401	6.85
320.534	15.85
320.666	-23.15
320.798	-5.15
320.93	-6.15
321.062	-6.15
321.194	-0.15
321.326	2.85
321.458	10.85
321.59	19.85
321.722	5.85
321.854	-10.15
321.986	10.85
322.118	15.85
322.25	2.85
322.382	8.85
322.514	-0.15
322.646	-7.15
322.778	0.85
322.91	3.85
323.042	2.85
323.174	0.85
323.306	-16.15
323.438	-10.15
323.57	1.85
323.702	0.85
323.834	-3.15
323.966	-4.15
324.097	12.85
324.229	30.85
324.361	17.85
324.493	13.85
324.625	-4.15
324.757	-9.15
324.889	-17.15
325.021	18.85
325.152	10.85
325.284	19.85
325.416	-1.15
325.548	24.85
325.68	-3.15
325.811	27.85
325.943	13.85
326.075	-2.15
326.207	20.85
326.339	15.85
326.47	11.85
326.602	14.85
326.734	8.85
326.866	10.85
326.997	-2.15
327.129	-5.15
327.261	-17.15
327.392	-6.15
327.524	13.85
327.656	26.85
327.787	12.85
327.919	9.85
328.051	-3.15
328.182	9.85
328.314	16.85
328.446	4.85
328.577	22.85
328.709	18.85
328.841	-7.15
328.972	1.85
329.104	12.85
329.235	7.85
329.367	-0.15
329.499	-1.15
329.63	14.85
329.762	-1.15
329.893	14.85
330.025	4.85
330.156	10.85
330.288	11.85
330.419	25.85
330.551	4.85
330.683	14.85
330.814	-2.15
330.946	15.85
331.077	-4.15
331.208	2.85
331.34	-3.15
331.471	7.85
331.603	3.85
331.734	-11.15
331.866	10.85
331.997	-1.15
332.129	5.85
332.26	-0.15
332.392	19.85
332.523	-11.15
332.654	-14.15
332.786	10.85
332.917	-19.15
333.048	23.85
333.18	21.85
333.311	3.85
333.443	1.85
333.574	0.85
333.705	10.85
333.837	1.85
333.968	13.85
334.099	11.85
334.231	22.85
334.362	7.85
334.493	28.85
334.624	17.85
334.756	17.85
334.887	22.85
335.018	-6.15
335.15	9.85
335.281	4.85
335.412	25.85
335.543	13.85
335.675	1.85
335.806	6.85
335.937	-5.15
336.068	16.85
336.199	20.85
336.331	4.85
336.462	-7.15
336.593	9.85
336.724	1.85
336.855	13.85
336.986	9.85
337.118	14.85
337.249	23.85
337.38	9.85
337.511	10.85
337.642	9.85
337.773	5.85
337.904	6.85
338.035	6.85
338.166	-8.15
338.298	14.85
338.429	2.85
338.56	8.85
338.691	19.85
338.822	7.85
338.953	8.85
339.084	26.85
339.215	9.85
339.346	5.85
339.477	13.85
339.608	4.85
339.739	-14.15
339.87	10.85
340.001	-7.15
340.132	-4.15
340.263	14.85
340.394	4.85
340.525	14.85
340.656	-8.15
340.787	0.85
340.918	14.85
341.049	6.85
341.179	17.85
341.31	9.85
341.441	18.85
341.572	-2.15
341.703	-6.15
341.834	-9.15
341.965	21.85
342.096	3.85
342.227	8.85
342.357	6.85
342.488	4.85
342.619	14.85
342.75	5.85
342.881	3.85
343.012	25.85
343.142	19.85
343.273	-7.15
343.404	2.85
343.535	39.85
343.666	8.85
343.796	20.85
343.927	13.85
344.058	23.85
344.189	17.85
344.319	14.85
344.45	9.85
344.581	5.85
344.712	8.85
344.842	2.85
344.973	-0.15
345.104	11.85
345.234	-1.15
345.365	-7.15
345.496	11.85
345.626	21.85
345.757	17.85
345.888	-7.15
346.018	4.85
346.149	-2.15
346.28	21.85
346.41	4.85
346.541	22.85
346.672	-8.15
346.802	19.85
346.933	10.85
347.063	6.85
347.194	-9.15
347.325	1.85
347.455	30.85
347.586	5.85
347.716	-1.15
347.847	7.85
347.977	5.85
348.108	15.85
348.238	10.85
348.369	13.85
348.499	26.85
348.63	2.85
348.76	7.85
348.891	12.85
349.021	5.85
349.152	10.85
349.282	6.85
349.413	9.85
349.543	1.85
349.674	-4.15
349.804	-8.15
349.935	1.85
350.065	0.85
350.196	-11.15
350.326	11.85
350.456	-17.15
350.587	2.85
350.717	6.85
350.848	18.85
350.978	20.85
351.108	3.85
351.239	29.85
351.369	12.85
351.499	3.85
351.63	20.85
351.76	13.85
351.89	2.85
352.021	24.85
352.151	16.85
352.281	13.85
352.412	10.85
352.542	12.85
352.672	15.85
352.803	6.85
352.933	15.85
353.063	18.85
353.193	14.85
353.324	10.85
353.454	9.85
353.584	17.85
353.714	0.85
353.845	1.85
353.975	7.85
354.105	4.85
354.235	3.85
354.365	8.85
354.496	-4.15
354.626	8.85
354.756	3.85
354.886	-1.15
355.016	19.85
355.146	3.85
355.277	22.85
355.407	10.85
355.537	11.85
355.667	11.85
355.797	5.85
355.927	4.85
356.057	14.85
356.187	4.85
356.318	1.85
356.448	0.85
356.578	9.85
356.708	40.85
356.838	18.85
356.968	15.85
357.098	15.85
357.228	27.85
357.358	1.85
357.488	-1.15
357.618	26.85
357.748	19.85
357.878	12.85
358.008	12.85
358.138	9.85
358.268	-3.15
358.398	22.85
358.528	-11.15
358.658	13.85
358.788	-3.15
358.918	15.85
359.048	9.85
359.178	25.85
359.308	19.85
359.438	43.85
359.568	17.85
359.698	17.85
359.827	-4.15
359.957	7.85
360.087	0.85
360.217	17.85
360.347	3.85
360.477	20.85
360.607	-15.15
360.737	14.85
360.866	3.85
360.996	-3.15
361.126	1.85
361.256	22.85
361.386	22.85
361.516	12.85
361.645	-11.15
361.775	17.85
361.905	-7.15
362.035	22.85
362.165	-5.15
362.294	17.85
362.424	28.85
362.554	21.85
362.684	-1.15
362.813	9.85
362.943	27.85
363.073	11.85
363.203	8.85
363.332	7.85
363.462	6.85
363.592	6.85
363.721	8.85
363.851	11.85
363.981	6.85
364.111	-5.15
364.24	-2.15
364.37	11.85
364.5	16.85
364.629	-5.15
364.759	-9.15
364.888	-1.15
365.018	3.85
365.148	3.85
365.277	29.85
365.407	14.85
365.537	2.85
365.666	14.85
365.796	21.85
365.925	-2.15
366.055	15.85
366.184	-14.15
366.314	-7.15
366.444	14.85
366.573	2.85
366.703	1.85
366.832	2.85
366.962	1.85
367.091	14.85
367.221	11.85
367.35	-16.15
367.48	13.85
367.609	7.85
367.739	15.85
367.868	-2.15
367.998	-0.15
368.127	1.85
368.257	12.85
368.386	17.85
368.516	17.85
368.645	10.85
368.775	17.85
368.904	7.85
369.033	17.85
369.163	13.85
369.292	15.85
369.422	20.85
369.551	7.85
369.68	9.85
369.81	35.85
369.939	-9.15
370.069	24.85
370.198	21.85
370.327	-4.15
370.457	11.85
370.586	15.85
370.715	1.85
370.845	0.85
370.974	7.85
371.103	32.85
371.233	23.85
371.362	4.85
371.491	-1.15
371.621	15.85
371.75	7.85
371.879	-3.15
372.008	-1.15
372.138	1.85
372.267	29.85
372.396	10.85
372.525	13.85
372.655	9.85
372.784	13.85
372.913	15.85
373.042	14.85
373.172	22.85
373.301	-8.15
373.43	-5.15
373.559	10.85
373.688	22.85
373.818	27.85
373.947	22.85
374.076	8.85
374.205	17.85
374.334	1.85
374.463	-1.15
374.593	16.85
374.722	14.85
374.851	33.85
374.98	-6.15
375.109	24.85
375.238	-0.15
375.367	40.85
375.496	6.85
375.625	4.85
375.755	18.85
375.884	55.85
376.013	25.85
376.142	1.85
376.271	3.85
376.4	11.85
376.529	-10.15
376.658	12.85
376.787	-4.15
376.916	12.85
377.045	10.85
377.174	16.85
377.303	9.85
377.432	28.85
377.561	8.85
377.69	-8.15
377.819	23.85
377.948	10.85
378.077	12.85
378.206	14.85
378.335	-3.15
378.464	16.85
378.593	36.85
378.722	23.85
378.851	14.85
378.98	30.85
379.108	-14.15
379.237	-12.15
379.366	-1.15
379.495	16.85
379.624	0.85
379.753	5.85
379.882	-2.15
380.011	12.85
380.14	-8.15
380.268	17.85
380.397	4.85
380.526	25.85
380.655	-9.15
380.784	-34.15
380.913	4.85
381.041	13.85
381.17	2.85
381.299	13.85
381.428	13.85
381.557	25.85
381.685	10.85
381.814	14.85
381.943	10.85
382.072	-10.15
382.2	-5.15
382.329	13.85
382.458	3.85
382.587	19.85
382.715	20.85
382.844	23.85
382.973	12.85
383.102	-4.15
383.23	-2.15
383.359	-1.15
383.488	4.85
383.616	-7.15
383.745	6.85
383.874	9.85
384.003	-0.15
384.131	-6.15
384.26	11.85
384.389	15.85
384.517	0.85
384.646	0.85
384.774	10.85
384.903	27.85
385.032	26.85
385.16	22.85
385.289	33.85
385.418	7.85
385.546	10.85
385.675	17.85
385.803	-1.15
385.932	6.85
386.06	8.85
386.189	8.85
386.318	14.85
386.446	1.85
386.575	24.85
386.703	4.85
386.832	-6.15
386.96	-7.15
387.089	27.85
387.217	0.85
387.346	5.85
387.474	0.85
387.603	9.85
387.731	14.85
387.86	24.85
387.988	17.85
388.117	22.85
388.245	25.85
388.374	1.85
388.502	18.85
388.631	-1.15
388.759	3.85
388.888	21.85
389.016	9.85
389.144	-2.15
389.273	5.85
389.401	6.85
389.53	-8.15
389.658	7.85
389.786	-15.15
389.915	-10.15
390.043	-0.15
390.172	-4.15
390.3	37.85
390.428	18.85
390.557	-0.15
390.685	11.85
390.813	25.85
390.942	32.85
391.07	4.85
391.198	9.85
391.327	21.85
391.455	1.85
391.583	18.85
391.712	13.85
391.84	9.85
391.968	11.85
392.096	7.85
392.225	9.85
392.353	4.85
392.481	10.85
392.609	29.85
392.738	22.85
392.866	15.85
392.994	-4.15
393.122	22.85
393.251	22.85
393.379	-10.15
393.507	-10.15
393.635	-10.15
393.764	9.85
393.892	0.85
394.02	12.85
394.148	-4.15
394.276	1.85
394.404	38.85
394.533	5.85
394.661	4.85
394.789	13.85
394.917	37.85
395.045	-3.15
395.173	-6.15
395.302	0.85
395.43	10.85
395.558	4.85
395.686	15.85
395.814	4.85
395.942	8.85
396.07	16.85
396.198	13.85
396.326	7.85
396.454	19.85
396.582	9.85
396.711	10.85
396.839	14.85
396.967	21.85
397.095	-1.15
397.223	17.85
397.351	21.85
397.479	19.85
397.607	3.85
397.735	19.85
397.863	28.85
397.991	26.85
398.119	2.85
398.247	5.85
398.375	7.85
398.503	17.85
398.631	30.85
398.759	8.85
398.887	16.85
399.015	-10.15
399.143	5.85
399.271	11.85
399.399	14.85
399.526	-0.15
399.654	7.85
399.782	-15.15
399.91	28.85
400.038	22.85
400.166	5.85
400.294	1.85
400.422	-3.15
400.55	21.85
400.678	9.85
400.805	13.85
400.933	5.85
401.061	4.85
401.189	24.85
401.317	35.85
401.445	39.85
401.573	18.85
401.7	22.85
401.828	-0.15
401.956	15.85
402.084	29.85
402.212	23.85
402.34	21.85
402.467	14.85
402.595	31.85
402.723	10.85
402.851	35.85
402.978	24.85
403.106	2.85
403.234	1.85
403.362	21.85
403.489	13.85
403.617	13.85
403.745	31.85
403.873	-2.15
404	10.85
404.128	25.85
404.256	12.85
404.384	25.85
404.511	32.85
404.639	-3.15
404.767	-7.15
404.894	7.85
405.022	5.85
405.15	44.85
405.277	-8.15
405.405	-2.15
405.533	2.85
405.66	-6.15
405.788	-13.15
405.916	-11.15
406.043	-0.15
406.171	0.85
406.299	20.85
406.426	5.85
406.554	25.85
406.681	31.85
406.809	23.85
406.937	12.85
407.064	13.85
407.192	24.85
407.319	24.85
407.447	-6.15
407.574	37.85
407.702	11.85
407.83	0.85
407.957	-10.15
408.085	14.85
408.212	18.85
408.34	4.85
408.467	8.85
408.595	15.85
408.722	33.85
408.85	25.85
408.977	9.85
409.105	29.85
409.232	15.85
409.36	-3.15
409.487	12.85
409.615	7.85
409.742	22.85
409.87	22.85
409.997	56.85
410.125	50.85
410.252	41.85
410.379	55.85
410.507	42.85
410.634	23.85
410.762	14.85
410.889	14.85
411.017	3.85
411.144	26.85
411.271	6.85
411.399	21.85
411.526	13.85
411.653	19.85
411.781	17.85
411.908	13.85
412.036	-6.15
412.163	42.85
412.29	9.85
412.418	7.85
412.545	27.85
412.672	16.85
412.8	31.85
412.927	28.85
413.054	11.85
413.182	18.85
413.309	19.85
413.436	6.85
413.564	3.85
413.691	9.85
413.818	-2.15
413.945	-10.15
414.073	10.85
414.2	17.85
414.327	22.85
414.454	22.85
414.582	20.85
414.709	0.85
414.836	9.85
414.963	7.85
415.091	4.85
415.218	7.85
415.345	26.85
415.472	9.85
415.6	-3.15
415.727	11.85
415.854	-8.15
415.981	9.85
416.108	6.85
416.236	2.85
416.363	29.85
416.49	11.85
416.617	20.85
416.744	24.85
416.871	21.85
416.998	22.85
417.126	5.85
417.253	13.85
417.38	17.85
417.507	15.85
417.634	7.85
417.761	29.85
417.888	21.85
418.015	17.85
418.143	21.85
418.27	24.85
418.397	12.85
418.524	21.85
418.651	16.85
418.778	24.85
418.905	37.85
419.032	29.85
419.159	23.85
419.286	40.85
419.413	25.85
419.54	36.85
419.667	0.85
419.794	5.85
419.921	13.85
420.048	7.85
420.175	14.85
420.302	2.85
420.429	20.85
420.556	5.85
420.683	3.85
420.81	10.85
420.937	5.85
421.064	-0.15
421.191	8.85
421.318	31.85
421.445	30.85
421.572	6.85
421.699	14.85
421.826	27.85
421.953	10.85
422.08	10.85
422.207	-2.15
422.334	-1.15
422.461	13.85
422.588	10.85
422.714	16.85
422.841	24.85
422.968	10.85
423.095	16.85
423.222	0.85
423.349	8.85
423.476	7.85
423.603	12.85
423.729	0.85
423.856	13.85
423.983	4.85
424.11	-7.15
424.237	17.85
424.364	16.85
424.491	13.85
424.617	-6.15
424.744	-6.15
424.871	13.85
424.998	9.85
425.125	-1.15
425.251	6.85
425.378	14.85
425.505	8.85
425.632	13.85
425.758	0.85
425.885	3.85
426.012	23.85
426.139	25.85
426.266	-7.15
426.392	25.85
426.519	21.85
426.646	10.85
426.772	23.85
426.899	11.85
427.026	18.85
427.153	15.85
427.279	21.85
427.406	9.85
427.533	-1.15
427.659	-8.15
427.786	6.85
427.913	29.85
428.039	16.85
428.166	-0.15
428.293	17.85
428.419	30.85
428.546	15.85
428.673	-6.15
428.799	10.85
428.926	28.85
429.053	21.85
429.179	18.85
429.306	28.85
429.433	19.85
429.559	29.85
429.686	4.85
429.812	-4.15
429.939	2.85
430.066	8.85
430.192	13.85
430.319	31.85
430.445	29.85
430.572	22.85
430.699	-0.15
430.825	-13.15
430.952	6.85
431.078	16.85
431.205	25.85
431.331	-16.15
431.458	29.85
431.584	31.85
431.711	11.85
431.837	10.85
431.964	10.85
432.09	11.85
432.217	-5.15
432.343	-0.15
432.47	25.85
432.596	8.85
432.723	-6.15
432.849	-6.15
432.976	6.85
433.102	14.85
433.229	12.85
433.355	38.85
433.482	57.85
433.608	135.85
433.735	136.85
433.861	137.85
433.987	168.85
434.114	238.85
434.24	186.85
434.367	64.85
434.493	16.85
434.62	7.85
434.746	14.85
434.872	0.85
434.999	15.85
435.125	1.85
435.252	1.85
435.378	-5.15
435.504	11.85
435.631	12.85
435.757	0.85
435.883	5.85
436.01	16.85
436.136	3.85
436.262	8.85
436.389	-4.15
436.515	26.85
436.641	24.85
436.768	14.85
436.894	17.85
437.02	14.85
437.147	28.85
437.273	21.85
437.399	22.85
437.526	24.85
437.652	1.85
437.778	20.85
437.904	4.85
438.031	19.85
438.157	27.85
438.283	10.85
438.409	-3.15
438.536	-4.15
438.662	22.85
438.788	36.85
438.914	18.85
439.041	13.85
439.167	34.85
439.293	13.85
439.419	0.85
439.546	19.85
439.672	17.85
439.798	14.85
439.924	1.85
440.05	14.85
440.177	22.85
440.303	-0.15
440.429	14.85
440.555	28.85
440.681	-6.15
440.807	30.85
440.934	13.85
441.06	26.85
441.186	20.85
441.312	0.85
441.438	18.85
441.564	23.85
441.69	25.85
441.816	25.85
441.943	23.85
442.069	31.85
442.195	16.85
442.321	23.85
442.447	1.85
442.573	9.85
442.699	6.85
442.825	-3.15
442.951	14.85
443.077	14.85
443.203	18.85
443.33	-8.15
443.456	-30.15
443.582	18.85
443.708	10.85
443.834	28.85
443.96	45.85
444.086	6.85
444.212	34.85
444.338	40.85
444.464	32.85
444.59	21.85
444.716	17.85
444.842	20.85
444.968	1.85
445.094	19.85
445.22	17.85
445.346	2.85
445.472	0.85
445.598	14.85
445.724	12.85
445.85	9.85
445.976	3.85
446.102	8.85
446.228	20.85
446.354	19.85
446.48	20.85
446.605	13.85
446.731	21.85
446.857	21.85
446.983	22.85
447.109	19.85
447.235	13.85
447.361	6.85
447.487	6.85
447.613	10.85
447.739	17.85
447.865	-2.15
447.99	29.85
448.116	8.85
448.242	-2.15
448.368	7.85
448.494	5.85
448.62	19.85
448.746	1.85
448.872	7.85
448.997	-12.15
449.123	-0.15
449.249	23.85
449.375	52.85
449.501	12.85
449.627	0.85
449.752	37.85
449.878	5.85
450.004	7.85
450.13	31.85
450.256	27.85
450.381	-4.15
450.507	15.85
450.633	14.85
450.759	35.85
450.884	16.85
451.01	10.85
451.136	5.85
451.262	10.85
451.388	15.85
451.513	1.85
451.639	-2.15
451.765	13.85
451.89	19.85
452.016	16.85
452.142	8.85
452.268	-2.15
452.393	17.85
452.519	4.85
452.645	8.85
452.771	-1.15
452.896	11.85
453.022	-2.15
453.148	28.85
453.273	28.85
453.399	22.85
453.525	13.85
453.65	13.85
453.776	22.85
453.902	24.85
454.027	32.85
454.153	14.85
454.279	25.85
454.404	9.85
454.53	19.85
454.656	42.85
454.781	16.85
454.907	7.85
455.032	19.85
455.158	27.85
455.284	28.85
455.409	26.85
455.535	29.85
455.66	6.85
455.786	35.85
455.912	12.85
456.037	10.85
456.163	25.85
456.288	31.85
456.414	14.85
456.539	0.85
456.665	25.85
456.791	5.85
456.916	-7.15
457.042	7.85
457.167	-11.15
457.293	-3.15
457.418	20.85
457.544	1.85
457.669	8.85
457.795	12.85
457.92	7.85
458.046	13.85
458.171	23.85
458.297	3.85
458.422	2.85
458.548	3.85
458.673	24.85
458.799	14.85
458.924	-3.15
459.05	9.85
459.175	14.85
459.301	8.85
459.426	18.85
459.552	7.85
459.677	16.85
459.803	25.85
459.928	17.85
460.053	9.85
460.179	26.85
460.304	35.85
460.43	8.85
460.555	4.85
460.681	15.85
460.806	15.85
460.931	4.85
461.057	16.85
461.182	4.85
461.308	36.85
461.433	30.85
461.558	15.85
461.684	22.85
461.809	22.85
461.934	10.85
462.06	-0.15
462.185	-4.15
462.311	12.85
462.436	18.85
462.561	15.85
462.687	16.85
462.812	13.85
462.937	19.85
463.063	14.85
463.188	7.85
463.313	26.85
463.439	17.85
463.564	5.85
463.689	13.85
463.814	12.85
463.94	8.85
464.065	19.85
464.19	22.85
464.316	-9.15
464.441	-2.15
464.566	-7.15
464.692	0.85
464.817	14.85
464.942	3.85
465.067	16.85
465.193	-7.15
465.318	9.85
465.443	11.85
465.568	15.85
465.694	12.85
465.819	20.85
465.944	2.85
466.069	13.85
466.194	7.85
466.32	15.85
466.445	16.85
466.57	2.85
466.695	0.85
466.82	23.85
466.946	31.85
467.071	5.85
467.196	0.85
467.321	19.85
467.446	11.85
467.572	5.85
467.697	-3.15
467.822	12.85
467.947	30.85
468.072	6.85
468.197	11.85
468.323	-9.15
468.448	-3.15
468.573	-4.15
468.698	-1.15
468.823	21.85
468.948	15.85
469.073	38.85
469.198	21.85
469.324	21.85
469.449	-3.15
469.574	18.85
469.699	25.85
469.824	25.85
469.949	28.85
470.074	22.85
470.199	40.85
470.324	27.85
470.449	20.85
470.574	5.85
470.7	13.85
470.825	34.85
470.95	35.85
471.075	-3.15
471.2	11.85
471.325	26.85
471.45	21.85
471.575	0.85
471.7	24.85
471.825	0.85
471.95	10.85
472.075	-2.15
472.2	-2.15
472.325	1.85
472.45	5.85
472.575	-7.15
472.7	9.85
472.825	24.85
472.95	20.85
473.075	19.85
473.2	7.85
473.325	17.85
473.45	6.85
473.575	-11.15
473.7	0.85
473.825	5.85
473.95	13.85
474.075	30.85
474.2	17.85
474.325	3.85
474.45	23.85
474.574	-8.15
474.699	4.85
474.824	17.85
474.949	11.85
475.074	9.85
475.199	38.85
475.324	15.85
475.449	3.85
475.574	9.85
475.699	-0.15
475.824	15.85
475.949	24.85
476.073	19.85
476.198	7.85
476.323	10.85
476.448	14.85
476.573	13.85
476.698	39.85
476.823	31.85
476.947	19.85
477.072	16.85
477.197	18.85
477.322	23.85
477.447	-3.15
477.572	23.85
477.697	26.85
477.821	34.85
477.946	36.85
478.071	16.85
478.196	21.85
478.321	25.85
478.445	5.85
478.57	-1.15
478.695	10.85
478.82	15.85
478.945	17.85
479.069	-2.15
479.194	17.85
479.319	16.85
479.444	12.85
479.569	10.85
479.693	11.85
479.818	36.85
479.943	21.85
480.068	7.85
480.192	19.85
480.317	17.85
480.442	27.85
480.567	6.85
480.691	21.85
480.816	21.85
480.941	7.85
481.066	8.85
481.19	24.85
481.315	10.85
481.44	21.85
481.564	-12.15
481.689	12.85
481.814	31.85
481.938	41.85
482.063	4.85
482.188	28.85
482.313	23.85
482.437	12.85
482.562	19.85
482.687	24.85
482.811	23.85
482.936	15.85
483.061	16.85
483.185	34.85
483.31	39.85
483.435	17.85
483.559	16.85
483.684	25.85
483.808	33.85
483.933	12.85
484.058	16.85
484.182	30.85
484.307	20.85
484.432	26.85
484.556	16.85
484.681	24.85
484.805	22.85
484.93	23.85
485.055	40.85
485.179	86.85
485.304	117.85
485.428	350.85
485.553	1236.85
485.678	1747.85
485.802	1632.85
485.927	1774.85
486.051	2638.85
486.176	1639.85
486.3	452.85
486.425	174.85
486.549	98.85
486.674	60.85
486.799	34.85
486.923	30.85
487.048	23.85
487.172	41.85
487.297	12.85
487.421	28.85
487.546	27.85
487.67	33.85
487.795	18.85
487.919	27.85
488.044	48.85
488.168	26.85
488.293	35.85
488.417	15.85
488.542	35.85
488.666	27.85
488.791	38.85
488.915	16.85
489.04	21.85
489.164	7.85
489.289	22.85
489.413	10.85
489.538	14.85
489.662	43.85
489.786	19.85
489.911	30.85
490.035	17.85
490.16	12.85
490.284	16.85
490.409	8.85
490.533	28.85
490.658	45.85
490.782	13.85
490.906	12.85
491.031	20.85
491.155	22.85
491.28	31.85
491.404	14.85
491.528	26.85
491.653	9.85
491.777	21.85
491.902	17.85
492.026	37.85
492.15	24.85
492.275	26.85
492.399	20.85
492.524	11.85
492.648	32.85
492.772	27.85
492.897	28.85
493.021	19.85
493.145	28.85
493.27	11.85
493.394	12.85
493.518	0.85
493.643	2.85
493.767	20.85
493.891	4.85
494.016	19.85
494.14	16.85
494.264	39.85
494.389	33.85
494.513	19.85
494.637	-6.15
494.762	31.85
494.886	17.85
495.01	13.85
495.134	19.85
495.259	10.85
495.383	15.85
495.507	21.85
495.632	49.85
495.756	32.85
495.88	31.85
496.004	24.85
496.129	15.85
496.253	13.85
496.377	13.85
496.501	34.85
496.626	3.85
496.75	17.85
496.874	24.85
496.998	19.85
497.123	33.85
497.247	5.85
497.371	8.85
497.495	23.85
497.62	15.85
497.744	26.85
497.868	6.85
497.992	20.85
498.116	21.85
498.241	32.85
498.365	29.85
498.489	4.85
498.613	34.85
498.737	18.85
498.862	12.85
498.986	-8.15
499.11	7.85
499.234	3.85
499.358	5.85
499.482	21.85
499.607	18.85
499.731	11.85
499.855	26.85
499.979	17.85
500.103	20.85
500.227	36.85
500.351	17.85
500.476	11.85
500.6	11.85
500.724	12.85
500.848	15.85
500.972	23.85
501.096	25.85
501.22	24.85
501.344	-1.15
501.469	6.85
501.593	19.85
501.717	37.85
501.841	26.85
501.965	18.85
502.089	5.85
502.213	25.85
502.337	11.85
502.461	8.85
502.585	21.85
502.709	10.85
502.834	9.85
502.958	16.85
503.082	13.85
503.206	20.85
503.33	12.85
503.454	25.85
503.578	25.85
503.702	31.85
503.826	10.85
503.95	27.85
504.074	-0.15
504.198	4.85
504.322	4.85
504.446	4.85
504.57	15.85
504.694	7.85
504.818	21.85
504.942	39.85
505.066	20.85
505.19	13.85
505.314	17.85
505.438	34.85
505.562	12.85
505.686	29.85
505.81	17.85
505.934	26.85
506.058	8.85
506.182	18.85
506.306	4.85
506.43	11.85
506.554	12.85
506.678	3.85
506.802	4.85
506.926	10.85
507.05	27.85
507.174	22.85
507.298	17.85
507.422	32.85
507.546	23.85
507.67	29.85
507.794	-8.15
507.918	5.85
508.042	22.85
508.165	15.85
508.289	6.85
508.413	2.85
508.537	-5.15
508.661	20.85
508.785	17.85
508.909	21.85
509.033	-9.15
509.157	8.85
509.281	3.85
509.405	15.85
509.528	37.85
509.652	35.85
509.776	16.85
509.9	26.85
510.024	10.85
510.148	15.85
510.272	24.85
510.396	25.85
510.519	5.85
510.643	29.85
510.767	13.85
510.891	22.85
511.015	12.85
511.139	16.85
511.263	44.85
511.386	9.85
511.51	26.85
511.634	9.85
511.758	18.85
511.882	6.85
512.006	30.85
512.129	33.85
512.253	40.85
512.377	8.85
512.501	22.85
512.625	3.85
512.748	13.85
512.872	7.85
512.996	1.85
513.12	6.85
513.244	4.85
513.367	15.85
513.491	13.85
513.615	30.85
513.739	3.85
513.862	21.85
513.986	18.85
514.11	43.85
514.234	9.85
514.358	22.85
514.481	31.85
514.605	10.85
514.729	25.85
514.853	28.85
514.976	9.85
515.1	12.85
515.224	46.85
515.348	4.85
515.471	26.85
515.595	25.85
515.719	21.85
515.842	24.85
515.966	8.85
516.09	30.85
516.214	32.85
516.337	40.85
516.461	25.85
516.585	29.85
516.708	9.85
516.832	27.85
516.956	27.85
517.08	32.85
517.203	12.85
517.327	17.85
517.451	35.85
517.574	38.85
517.698	11.85
517.822	27.85
517.945	46.85
518.069	52.85
518.193	64.85
518.316	39.85
518.44	30.85
518.564	14.85
518.687	15.85
518.811	25.85
518.935	66.85
519.058	40.85
519.182	48.85
519.306	34.85
519.429	18.85
519.553	57.85
519.676	33.85
519.8	22.85
519.924	11.85
520.047	26.85
520.171	-3.15
520.294	9.85
520.418	31.85
520.542	21.85
520.665	28.85
520.789	25.85
520.913	1.85
521.036	-11.15
521.16	22.85
521.283	30.85
521.407	15.85
521.53	-0.15
521.654	20.85
521.778	23.85
521.901	20.85
522.025	20.85
522.148	8.85
522.272	27.85
522.395	17.85
522.519	25.85
522.643	7.85
522.766	7.85
522.89	6.85
523.013	27.85
523.137	1.85
523.26	21.85
523.384	16.85
523.507	26.85
523.631	11.85
523.754	9.85
523.878	24.85
524.002	3.85
524.125	15.85
524.249	6.85
524.372	24.85
524.496	24.85
524.619	17.85
524.743	12.85
524.866	9.85
524.99	-2.15
525.113	-8.15
525.237	36.85
525.36	14.85
525.484	14.85
525.607	10.85
525.731	-0.15
525.854	21.85
525.978	15.85
526.101	17.85
526.224	1.85
526.348	19.85
526.471	18.85
526.595	13.85
526.718	7.85
526.842	-0.15
526.965	19.85
527.089	-3.15
527.212	29.85
527.336	24.85
527.459	17.85
527.582	14.85
527.706	40.85
527.829	10.85
527.953	21.85
528.076	-21.15
528.2	9.85
528.323	27.85
528.446	10.85
528.57	24.85
528.693	31.85
528.817	-0.15
528.94	17.85
529.064	49.85
529.187	21.85
529.31	-0.15
529.434	17.85
529.557	7.85
529.68	3.85
529.804	23.85
529.927	5.85
530.051	14.85
530.174	22.85
530.297	14.85
530.421	36.85
530.544	24.85
530.668	16.85
530.791	9.85
530.914	37.85
531.038	-3.15
531.161	-0.15
531.284	8.85
531.408	0.85
531.531	1.85
531.654	9.85
531.778	14.85
531.901	4.85
532.024	33.85
532.148	18.85
532.271	30.85
532.394	25.85
532.518	43.85
532.641	28.85
532.764	17.85
532.888	33.85
533.011	13.85
533.134	4.85
533.258	23.85
533.381	6.85
533.504	6.85
533.628	14.85
533.751	16.85
533.874	20.85
533.997	5.85
534.121	21.85
534.244	-2.15
534.367	25.85
534.491	15.85
534.614	28.85
534.737	26.85
534.86	19.85
534.984	6.85
535.107	-2.15
535.23	18.85
535.354	21.85
535.477	3.85
535.6	16.85
535.723	9.85
535.847	14.85
535.97	11.85
536.093	19.85
536.216	7.85
536.34	1.85
536.463	-3.15
536.586	14.85
536.709	15.85
536.833	23.85
536.956	0.85
537.079	22.85
537.202	29.85
537.325	13.85
537.449	10.85
537.572	15.85
537.695	6.85
537.818	28.85
537.941	14.85
538.065	21.85
538.188	0.85
538.311	6.85
538.434	26.85
538.558	11.85
538.681	5.85
538.804	15.85
538.927	17.85
539.05	14.85
539.173	15.85
539.297	-1.15
539.42	20.85
539.543	15.85
539.666	41.85
539.789	29.85
539.913	13.85
540.036	19.85
540.159	30.85
540.282	15.85
540.405	-10.15
540.528	-4.15
540.651	13.85
540.775	5.85
540.898	18.85
541.021	11.85
541.144	22.85
541.267	27.85
541.39	-0.15
541.513	20.85
541.637	3.85
541.76	6.85
541.883	1.85
542.006	27.85
542.129	33.85
542.252	25.85
542.375	4.85
542.498	0.85
542.622	11.85
542.745	11.85
542.868	28.85
542.991	33.85
543.114	29.85
543.237	37.85
543.36	21.85
543.483	22.85
543.606	27.85
543.73	32.85
543.853	8.85
543.976	7.85
544.099	19.85
544.222	4.85
544.345	15.85
544.468	-5.15
544.591	5.85
544.714	25.85
544.837	31.85
544.96	22.85
545.083	34.85
545.206	24.85
545.329	18.85
545.453	10.85
545.576	13.85
545.699	13.85
545.822	2.85
545.945	12.85
546.068	17.85
546.191	18.85
546.314	3.85
546.437	22.85
546.56	13.85
546.683	14.85
546.806	25.85
546.929	16.85
547.052	-4.15
547.175	21.85
547.298	23.85
547.421	13.85
547.544	-5.15
547.667	13.85
547.79	14.85
547.913	20.85
548.036	2.85
548.159	10.85
548.282	7.85
548.405	9.85
548.528	-1.15
548.651	6.85
548.774	30.85
548.897	20.85
549.02	15.85
549.143	28.85
549.266	15.85
549.389	23.85
549.512	4.85
549.635	31.85
549.758	15.85
549.881	10.85
550.004	27.85
550.127	20.85
550.25	7.85
550.373	-7.15
550.496	21.85
550.619	16.85
550.742	5.85
550.865	-3.15
550.988	27.85
551.111	27.85
551.234	27.85
551.356	6.85
551.479	-3.15
551.602	15.85
551.725	15.85
551.848	28.85
551.971	28.85
552.094	20.85
552.217	2.85
552.34	3.85
552.463	-0.15
552.586	15.85
552.709	11.85
552.832	12.85
552.955	35.85
553.077	17.85
553.2	37.85
553.323	-23.15
553.446	7.85
553.569	3.85
553.692	20.85
553.815	16.85
553.938	20.85
554.061	15.85
554.184	16.85
554.306	39.85
554.429	27.85
554.552	23.85
554.675	8.85
554.798	7.85
554.921	3.85
555.044	4.85
555.167	12.85
555.29	19.85
555.412	18.85
555.535	26.85
555.658	1.85
555.781	17.85
555.904	12.85
556.027	20.85
556.15	18.85
556.272	19.85
556.395	30.85
556.518	14.85
556.641	0.85
556.764	34.85
556.887	13.85
557.01	16.85
557.132	1.85
557.255	16.85
557.378	30.85
557.501	22.85
557.624	23.85
557.747	13.85
557.869	8.85
557.992	18.85
558.115	16.85
558.238	12.85
558.361	23.85
558.483	32.85
558.606	12.85
558.729	15.85
558.852	33.85
558.975	29.85
559.098	27.85
559.22	22.85
559.343	23.85
559.466	6.85
559.589	8.85
559.712	3.85
559.834	22.85
559.957	16.85
560.08	19.85
560.203	30.85
560.325	24.85
560.448	27.85
560.571	19.85
560.694	8.85
560.817	39.85
560.939	9.85
561.062	13.85
561.185	7.85
561.308	18.85
561.43	-1.15
561.553	12.85
561.676	25.85
561.799	21.85
561.921	15.85
562.044	5.85
562.167	11.85
562.29	25.85
562.413	17.85
562.535	36.85
562.658	5.85
562.781	6.85
562.903	5.85
563.026	3.85
563.149	24.85
563.272	21.85
563.394	26.85
563.517	1.85
563.64	17.85
563.763	13.85
563.885	16.85
564.008	33.85
564.131	19.85
564.254	9.85
564.376	12.85
564.499	-7.15
564.622	3.85
564.744	8.85
564.867	3.85
564.99	19.85
565.113	22.85
565.235	17.85
565.358	1.85
565.481	-4.15
565.603	7.85
565.726	-3.15
565.849	21.85
565.971	19.85
566.094	-3.15
566.217	12.85
566.34	2.85
566.462	13.85
566.585	9.85
566.708	31.85
566.83	28.85
566.953	32.85
567.076	18.85
567.198	4.85
567.321	9.85
567.444	25.85
567.566	11.85
567.689	-3.15
567.812	-10.15
567.934	9.85
568.057	11.85
568.18	10.85
568.302	8.85
568.425	11.85
568.548	17.85
568.67	17.85
568.793	22.85
568.916	19.85
569.038	17.85
569.161	15.85
569.283	11.85
569.406	0.85
569.529	-0.15
569.651	-7.15
569.774	-1.15
569.897	5.85
570.019	21.85
570.142	40.85
570.265	10.85
570.387	13.85
570.51	20.85
570.632	18.85
570.755	-4.15
570.878	15.85
571	24.85
571.123	-2.15
571.246	21.85
571.368	3.85
571.491	17.85
571.613	17.85
571.736	-5.15
571.859	19.85
571.981	7.85
572.104	-0.15
572.226	4.85
572.349	-7.15
572.472	3.85
572.594	30.85
572.717	16.85
572.839	-4.15
572.962	9.85
573.085	23.85
573.207	12.85
573.33	14.85
573.452	27.85
573.575	26.85
573.697	24.85
573.82	22.85
573.943	18.85
574.065	17.85
574.188	11.85
574.31	14.85
574.433	21.85
574.555	32.85
574.678	-5.15
574.801	20.85
574.923	6.85
575.046	9.85
575.168	9.85
575.291	-1.15
575.413	5.85
575.536	9.85
575.659	13.85
575.781	-11.15
575.904	-2.15
576.026	0.85
576.149	21.85
576.271	33.85
576.394	12.85
576.516	6.85
576.639	6.85
576.761	-7.15
576.884	-3.15
577.007	10.85
577.129	16.85
577.252	13.85
577.374	28.85
577.497	12.85
577.619	16.85
577.742	14.85
577.864	7.85
577.987	26.85
578.109	31.85
578.232	15.85
578.354	28.85
578.477	9.85
578.599	1.85
578.722	10.85
578.844	6.85
578.967	8.85
579.089	21.85
579.212	3.85
579.334	31.85
579.457	7.85
579.579	3.85
579.702	-12.15
579.824	21.85
579.947	3.85
580.069	-4.15
580.192	6.85
580.314	27.85
580.437	9.85
580.559	28.85
580.682	23.85
580.804	17.85
580.927	25.85
581.049	25.85
581.172	12.85
581.294	28.85
581.417	19.85
581.539	6.85
581.662	19.85
581.784	21.85
581.907	32.85
582.029	27.85
582.152	16.85
582.274	12.85
582.396	13.85
582.519	16.85
582.641	-0.15
582.764	10.85
582.886	36.85
583.009	21.85
583.131	11.85
583.254	7.85
583.376	44.85
583.499	19.85
583.621	4.85
583.743	12.85
583.866	4.85
583.988	22.85
584.111	30.85
584.233	24.85
584.356	26.85
584.478	21.85
584.601	4.85
584.723	8.85
584.845	19.85
584.968	16.85
585.09	2.85
585.213	12.85
585.335	0.85
585.458	-1.15
585.58	-2.15
585.702	28.85
585.825	26.85
585.947	10.85
586.07	-11.15
586.192	-11.15
586.315	31.85
586.437	3.85
586.559	6.85
586.682	1.85
586.804	15.85
586.927	-4.15
587.049	-5.15
587.171	10.85
587.294	20.85
587.416	31.85
587.539	7.85
587.661	0.85
587.783	6.85
587.906	14.85
588.028	20.85
588.151	11.85
588.273	34.85
588.395	-3.15
588.518	-20.15
588.64	8.85
588.763	25.85
588.885	23.85
589.007	30.85
589.13	3.85
589.252	4.85
589.375	31.85
589.497	37.85
589.619	30.85
589.742	13.85
589.864	23.85
589.986	-0.15
590.109	7.85
590.231	-0.15
590.354	13.85
590.476	2.85
590.598	8.85
590.721	-1.15
590.843	12.85
590.965	18.85
591.088	24.85
591.21	14.85
591.332	-0.15
591.455	-5.15
591.577	11.85
591.7	1.85
591.822	-2.15
591.944	16.85
592.067	22.85
592.189	7.85
592.311	24.85
592.434	4.85
592.556	21.85
592.678	27.85
592.801	25.85
592.923	4.85
593.045	7.85
593.168	7.85
593.29	7.85
593.412	-1.15
593.535	3.85
593.657	19.85
593.779	7.85
593.902	24.85
594.024	20.85
594.146	25.85
594.269	19.85
594.391	1.85
594.513	12.85
594.636	12.85
594.758	-4.15
594.88	24.85
595.003	25.85
595.125	11.85
595.247	20.85
595.37	18.85
595.492	-8.15
595.614	23.85
595.737	-10.15
595.859	6.85
595.981	-0.15
596.104	22.85
596.226	-4.15
596.348	15.85
596.471	17.85
596.593	14.85
596.715	-10.15
596.838	6.85
596.96	6.85
597.082	20.85
597.204	24.85
597.327	10.85
597.449	22.85
597.571	20.85
597.694	36.85
597.816	15.85
597.938	7.85
598.061	15.85
598.183	18.85
598.305	33.85
598.427	12.85
598.55	4.85
598.672	26.85
598.794	15.85
598.917	9.85
599.039	12.85
599.161	9.85
599.283	14.85
599.406	12.85
599.528	29.85
599.65	34.85
599.773	19.85
599.895	35.85
600.017	16.85
600.139	27.85
600.262	11.85
600.384	10.85
600.506	29.85
600.628	19.85
600.751	19.85
600.873	-0.15
600.995	15.85
601.118	31.85
601.24	19.85
601.362	30.85
601.484	29.85
601.607	3.85
601.729	19.85
601.851	5.85
601.973	13.85
602.096	28.85
602.218	30.85
602.34	26.85
602.462	18.85
602.585	13.85
602.707	-3.15
602.829	20.85
602.951	17.85
603.074	7.85
603.196	16.85
603.318	13.85
603.44	21.85
603.563	0.85
603.685	12.85
603.807	25.85
603.929	9.85
604.052	24.85
604.174	24.85
604.296	16.85
604.418	13.85
604.541	38.85
604.663	6.85
604.785	6.85
604.907	12.85
605.03	8.85
605.152	23.85
605.274	11.85
605.396	-1.15
605.519	3.85
605.641	2.85
605.763	-0.15
605.885	4.85
606.008	12.85
606.13	13.85
606.252	15.85
606.374	-9.15
606.496	6.85
606.619	12.85
606.741	12.85
606.863	35.85
606.985	26.85
607.108	14.85
607.23	10.85
607.352	16.85
607.474	1.85
607.596	10.85
607.719	7.85
607.841	4.85
607.963	4.85
608.085	9.85
608.207	45.85
608.33	22.85
608.452	-14.15
608.574	10.85
608.696	27.85
608.819	19.85
608.941	18.85
609.063	9.85
609.185	20.85
609.307	19.85
609.43	28.85
609.552	-9.15
609.674	-3.15
609.796	8.85
609.918	24.85
610.041	8.85
610.163	34.85
610.285	12.85
610.407	15.85
610.529	-0.15
610.652	17.85
610.774	1.85
610.896	6.85
611.018	20.85
611.14	18.85
611.263	-1.15
611.385	-8.15
611.507	12.85
611.629	-12.15
611.751	12.85
611.873	32.85
611.996	22.85
612.118	17.85
612.24	15.85
612.362	19.85
612.484	17.85
612.607	19.85
612.729	32.85
612.851	24.85
612.973	16.85
613.095	0.85
613.218	1.85
613.34	36.85
613.462	7.85
613.584	27.85
613.706	26.85
613.828	28.85
613.951	15.85
614.073	-1.15
614.195	-10.15
614.317	36.85
614.439	15.85
614.561	24.85
614.684	20.85
614.806	16.85
614.928	10.85
615.05	-0.15
615.172	15.85
615.294	24.85
615.417	36.85
615.539	9.85
615.661	12.85
615.783	31.85
615.905	31.85
616.027	81.85
616.15	110.85
616.272	100.85
616.394	52.85
616.516	37.85
616.638	19.85
616.76	12.85
616.883	27.85
617.005	6.85
617.127	-1.15
617.249	13.85
617.371	17.85
617.493	-2.15
617.615	21.85
617.738	15.85
617.86	12.85
617.982	19.85
618.104	17.85
618.226	18.85
618.348	-11.15
618.471	18.85
618.593	30.85
618.715	-10.15
618.837	11.85
618.959	12.85
619.081	27.85
619.203	13.85
619.326	5.85
619.448	11.85
619.57	27.85
619.692	14.85
619.814	20.85
619.936	12.85
620.058	30.85
620.181	22.85
620.303	18.85
620.425	27.85
620.547	12.85
620.669	-5.15
620.791	9.85
620.913	4.85
621.036	13.85
621.158	11.85
621.28	17.85
621.402	0.85
621.524	12.85
621.646	5.85
621.768	9.85
621.891	9.85
622.013	15.85
622.135	1.85
622.257	0.85
622.379	13.85
622.501	13.85
622.623	15.85
622.745	8.85
622.868	17.85
622.99	12.85
623.112	7.85
623.234	6.85
623.356	32.85
623.478	0.85
623.6	23.85
623.722	12.85
623.845	8.85
623.967	-6.15
624.089	18.85
624.211	3.85
624.333	29.85
624.455	9.85
624.577	16.85
624.699	23.85
624.822	25.85
624.944	5.85
625.066	-0.15
625.188	7.85
625.31	14.85
625.432	53.85
625.554	-0.15
625.676	32.85
625.799	1.85
625.921	-0.15
626.043	-0.15
626.165	0.85
626.287	3.85
626.409	4.85
626.531	8.85
626.653	10.85
626.775	15.85
626.898	20.85
627.02	9.85
627.142	16.85
627.264	19.85
627.386	12.85
627.508	10.85
627.63	16.85
627.752	22.85
627.874	13.85
627.997	35.85
628.119	34.85
628.241	25.85
628.363	16.85
628.485	16.85
628.607	13.85
628.729	5.85
628.851	0.85
628.973	7.85
629.096	3.85
629.218	18.85
629.34	24.85
629.462	-11.15
629.584	11.85
629.706	22.85
629.828	22.85
629.95	17.85
630.072	8.85
630.195	3.85
630.317	13.85
630.439	9.85
630.561	13.85
630.683	2.85
630.805	11.85
630.927	21.85
631.049	15.85
631.171	8.85
631.293	-2.15
631.416	14.85
631.538	21.85
631.66	7.85
631.782	39.85
631.904	29.85
632.026	21.85
632.148	16.85
632.27	4.85
632.392	15.85
632.514	17.85
632.637	13.85
632.759	13.85
632.881	5.85
633.003	-6.15
633.125	8.85
633.247	16.85
633.369	9.85
633.491	6.85
633.613	29.85
633.735	4.85
633.858	7.85
633.98	33.85
634.102	10.85
634.224	-15.15
634.346	8.85
634.468	12.85
634.59	19.85
634.712	6.85
634.834	13.85
634.956	0.85
635.078	9.85
635.201	4.85
635.323	17.85
635.445	0.85
635.567	14.85
635.689	15.85
635.811	1.85
635.933	0.85
636.055	12.85
636.177	6.85
636.299	35.85
636.421	0.85
636.544	5.85
636.666	26.85
636.788	28.85
636.91	14.85
637.032	9.85
637.154	13.85
637.276	35.85
637.398	41.85
637.52	29.85
637.642	7.85
637.764	24.85
637.887	-0.15
638.009	1.85
638.131	4.85
638.253	-4.15
638.375	21.85
638.497	19.85
638.619	-8.15
638.741	18.85
638.863	-6.15
638.985	4.85
639.107	1.85
639.23	-9.15
639.352	27.85
639.474	12.85
639.596	20.85
639.718	-0.15
639.84	16.85
639.962	19.85
640.084	27.85
640.206	25.85
640.328	-4.15
640.45	3.85
640.573	5.85
640.695	21.85
640.817	26.85
640.939	23.85
641.061	8.85
641.183	7.85
641.305	3.85
641.427	-7.15
641.549	-0.15
641.671	15.85
641.793	-3.15
641.915	14.85
642.038	8.85
642.16	7.85
642.282	7.85
642.404	5.85
642.526	16.85
642.648	15.85
642.77	4.85
642.892	12.85
643.014	11.85
643.136	11.85
643.258	29.85
643.381	35.85
643.503	19.85
643.625	6.85
643.747	-3.15
643.869	-14.15
643.991	9.85
644.113	17.85
644.235	-4.15
644.357	12.85
644.479	6.85
644.601	2.85
644.723	21.85
644.846	19.85
644.968	0.85
645.09	13.85
645.212	9.85
645.334	23.85
645.456	7.85
645.578	25.85
645.7	27.85
645.822	15.85
645.944	11.85
646.066	6.85
646.188	7.85
646.311	33.85
646.433	23.85
646.555	42.85
646.677	59.85
646.799	39.85
646.921	14.85
647.043	41.85
647.165	-6.15
647.287	26.85
647.409	7.85
647.531	23.85
647.654	-5.15
647.776	22.85
647.898	32.85
648.02	-0.15
648.142	7.85
648.264	14.85
648.386	12.85
648.508	-1.15
648.63	-4.15
648.752	5.85
648.874	7.85
648.997	15.85
649.119	21.85
649.241	17.85
649.363	32.85
649.485	19.85
649.607	17.85
649.729	-10.15
649.851	3.85
649.973	2.85
650.095	11.85
650.217	-6.15
650.34	-4.15
650.462	17.85
650.584	7.85
650.706	17.85
650.828	21.85
650.95	-2.15
651.072	19.85
651.194	-11.15
651.316	-3.15
651.438	21.85
651.56	3.85
651.683	7.85
651.805	1.85
651.927	5.85
652.049	8.85
652.171	6.85
652.293	5.85
652.415	-3.15
652.537	6.85
652.659	-1.15
652.781	25.85
652.903	33.85
653.026	29.85
653.148	13.85
653.27	11.85
653.392	5.85
653.514	18.85
653.636	14.85
653.758	-3.15
653.88	12.85
654.002	8.85
654.124	12.85
654.247	3.85
654.369	21.85
654.491	9.85
654.613	11.85
654.735	11.85
654.857	31.85
654.979	11.85
655.101	13.85
655.223	53.85
655.345	19.85
655.468	46.85
655.59	18.85
655.712	34.85
655.834	28.85
655.956	39.85
656.078	44.85
656.2	42.85
656.322	37.85
656.444	27.85
656.566	54.85
656.689	57.85
656.811	74.85
656.933	105.85
657.055	100.85
657.177	175.85
657.299	251.85
657.421	488.85
657.543	1841.85
657.665	12472.85
657.787	15170.85
657.91	15258.85
658.032	15666.85
658.154	4567.85
658.276	3348.85
658.398	1129.85
658.52	1021.85
658.642	465.85
658.764	588.85
658.886	261.85
659.009	407.85
659.131	207.85
659.253	305.85
659.375	174.85
659.497	248.85
659.619	139.85
659.741	207.85
659.863	107.85
659.985	166.85
660.108	87.85
660.23	145.85
660.352	71.85
660.474	151.85
660.596	84.85
660.718	148.85
660.84	64.85
660.962	131.85
661.084	50.85
661.207	99.85
661.329	75.85
661.451	101.85
661.573	49.85
661.695	102.85
661.817	42.85
661.939	112.85
662.061	62.85
662.184	84.85
662.306	51.85
662.428	77.85
662.55	60.85
662.672	61.85
662.794	47.85
662.916	69.85
663.038	38.85
663.161	79.85
663.283	52.85
663.405	71.85
663.527	39.85
663.649	85.85
663.771	41.85
663.893	50.85
664.015	29.85
664.138	47.85
664.26	32.85
664.382	67.85
664.504	33.85
664.626	48.85
664.748	26.85
664.87	33.85
664.992	37.85
665.115	49.85
665.237	34.85
665.359	44.85
665.481	30.85
665.603	58.85
665.725	28.85
665.847	31.85
665.97	23.85
666.092	48.85
666.214	27.85
666.336	33.85
666.458	26.85
666.58	46.85
666.702	14.85
666.825	36.85
666.947	10.85
667.069	30.85
667.191	15.85
667.313	46.85
667.435	9.85
667.557	41.85
667.68	5.85
667.802	12.85
667.924	15.85
668.046	53.85
668.168	37.85
668.29	57.85
668.412	18.85
668.535	36.85
668.657	6.85
668.779	16.85
668.901	11.85
669.023	32.85
669.145	24.85
669.267	42.85
669.39	12.85
669.512	30.85
669.634	14.85
669.756	18.85
669.878	10.85
670	30.85
670.123	25.85
670.245	30.85
670.367	21.85
670.489	20.85
670.611	0.85
670.733	31.85
670.856	15.85
670.978	27.85
671.1	30.85
671.222	23.85
671.344	15.85
671.466	12.85
671.589	9.85
671.711	12.85
671.833	-15.15
671.955	16.85
672.077	6.85
672.199	21.85
672.322	40.85
672.444	30.85
672.566	27.85
672.688	16.85
672.81	23.85
672.932	28.85
673.055	11.85
673.177	8.85
673.299	23.85
673.421	27.85
673.543	27.85
673.665	47.85
673.788	24.85
673.91	9.85
674.032	13.85
674.154	11.85
674.276	9.85
674.399	1.85
674.521	4.85
674.643	41.85
674.765	1.85
674.887	13.85
675.009	31.85
675.132	14.85
675.254	10.85
675.376	8.85
675.498	-0.15
675.62	45.85
675.743	10.85
675.865	37.85
675.987	-15.15
676.109	13.85
676.231	13.85
676.354	41.85
676.476	6.85
676.598	23.85
676.72	31.85
676.842	31.85
676.965	19.85
677.087	28.85
677.209	37.85
677.331	26.85
677.453	14.85
677.576	26.85
677.698	22.85
677.82	22.85
677.942	16.85
678.064	6.85
678.187	12.85
678.309	19.85
678.431	6.85
678.553	11.85
678.675	30.85
678.798	36.85
678.92	20.85
679.042	18.85
679.164	8.85
679.286	28.85
679.409	20.85
679.531	22.85
679.653	13.85
679.775	10.85
679.898	-5.15
680.02	6.85
680.142	23.85
680.264	15.85
680.386	3.85
680.509	24.85
680.631	14.85
680.753	36.85
680.875	11.85
680.998	22.85
681.12	6.85
681.242	24.85
681.364	-9.15
681.486	22.85
681.609	3.85
681.731	-3.15
681.853	-1.15
681.975	17.85
682.098	25.85
682.22	20.85
682.342	-4.15
682.464	31.85
682.587	13.85
682.709	16.85
682.831	4.85
682.953	21.85
683.076	7.85
683.198	9.85
683.32	10.85
683.442	26.85
683.565	18.85
683.687	19.85
683.809	24.85
683.931	-8.15
684.054	9.85
684.176	12.85
684.298	8.85
684.42	12.85
684.543	1.85
684.665	17.85
684.787	3.85
684.909	16.85
685.032	27.85
685.154	11.85
685.276	31.85
685.398	14.85
685.521	15.85
685.643	-0.15
685.765	-3.15
685.887	20.85
686.01	19.85
686.132	11.85
686.254	8.85
686.377	36.85
686.499	32.85
686.621	20.85
686.743	24.85
686.866	9.85
686.988	28.85
687.11	31.85
687.232	15.85
687.355	-1.15
687.477	20.85
687.599	22.85
687.722	8.85
687.844	19.85
687.966	9.85
688.088	19.85
688.211	35.85
688.333	29.85
688.455	3.85
688.578	40.85
688.7	-0.15
688.822	23.85
688.944	0.85
689.067	48.85
689.189	31.85
689.311	5.85
689.434	3.85
689.556	27.85
689.678	24.85
689.801	4.85
689.923	15.85
690.045	21.85
690.167	30.85
690.29	43.85
690.412	13.85
690.534	24.85
690.657	19.85
690.779	13.85
690.901	12.85
691.024	11.85
691.146	14.85
691.268	-0.15
691.391	33.85
691.513	39.85
691.635	21.85
691.758	35.85
691.88	28.85
692.002	15.85
692.125	0.85
692.247	0.85
692.369	-6.15
692.492	-0.15
692.614	10.85
692.736	0.85
692.859	-2.15
692.981	4.85
693.103	14.85
693.226	21.85
693.348	40.85
693.47	9.85
693.593	20.85
693.715	-11.15
693.837	1.85
693.96	-7.15
694.082	-2.15
694.204	25.85
694.327	21.85
694.449	-0.15
694.571	12.85
694.694	5.85
694.816	10.85
694.938	14.85
695.061	7.85
695.183	13.85
695.305	13.85
695.428	7.85
695.55	5.85
695.672	5.85
695.795	30.85
695.917	26.85
696.04	13.85
696.162	0.85
696.284	4.85
696.407	17.85
696.529	16.85
696.651	39.85
696.774	0.85
696.896	33.85
697.019	11.85
697.141	21.85
697.263	3.85
697.386	8.85
697.508	-2.15
697.63	10.85
697.753	11.85
697.875	8.85
697.998	7.85
698.12	12.85
698.242	13.85
698.365	13.85
698.487	11.85
698.61	23.85
698.732	22.85
698.854	23.85
698.977	8.85
699.099	17.85
699.221	7.85
699.344	18.85
699.466	4.85
699.589	27.85
699.711	17.85
699.834	15.85
699.956	11.85
700.078	7.85
700.201	3.85
700.323	40.85
700.446	7.85
700.568	10.85
700.69	15.85
700.813	38.85
700.935	-2.15
701.058	31.85
701.18	17.85
701.302	19.85
701.425	8.85
701.547	31.85
701.67	3.85
701.792	15.85
701.915	8.85
702.037	6.85
702.159	20.85
702.282	24.85
702.404	7.85
702.527	15.85
702.649	17.85
702.772	17.85
702.894	7.85
703.017	13.85
703.139	8.85
703.261	31.85
703.384	9.85
703.506	2.85
703.629	-2.15
703.751	15.85
703.874	15.85
703.996	11.85
704.119	-5.15
704.241	9.85
704.364	-5.15
704.486	25.85
704.608	18.85
704.731	15.85
704.853	19.85
704.976	3.85
705.098	16.85
705.221	2.85
705.343	3.85
705.466	23.85
705.588	16.85
705.711	17.85
705.833	23.85
705.956	3.85
706.078	7.85
706.201	4.85
706.323	4.85
706.446	4.85
