Data from LowRes_H2_15_26_11_07_2024_HR4C61881__0__15-28-13-637.txt Node

Date: Thu Nov 07 15:28:13 EST 2024
User: crc00042
Spectrometer: HR4C6188
Trigger mode: 4
Integration Time (sec): 1.000000E-1
Scans to average: 1
Electric dark correction enabled: true
Nonlinearity correction enabled: false
Boxcar width: 0
XAxis mode: Wavelengths
Number of Pixels in Spectrum: 3648
>>>>>Begin Spectral Data<<<<<
245.66	-93.15
245.797	-93.15
245.934	-93.15
246.071	-86.15
246.208	11.85
246.344	5.85
246.481	-1.15
246.618	-16.15
246.755	5.85
246.892	-3.15
247.029	1.85
247.165	-4.15
247.302	12.85
247.439	9.85
247.576	0.85
247.713	-16.15
247.849	34.85
247.986	-31.15
248.123	7.85
248.26	-1.15
248.396	17.85
248.533	-4.15
248.67	-26.15
248.806	9.85
248.943	-14.15
249.08	0.85
249.216	0.85
249.353	-8.15
249.49	-8.15
249.626	-3.15
249.763	-7.15
249.9	-7.15
250.036	13.85
250.173	1.85
250.309	-1.15
250.446	-0.15
250.582	-8.15
250.719	-12.15
250.856	-22.15
250.992	-20.15
251.129	-15.15
251.265	-19.15
251.402	26.85
251.538	-7.15
251.675	6.85
251.811	5.85
251.948	21.85
252.084	9.85
252.221	6.85
252.357	-13.15
252.493	14.85
252.63	0.85
252.766	22.85
252.903	-8.15
253.039	-7.15
253.175	-2.15
253.312	1.85
253.448	-3.15
253.585	-10.15
253.721	16.85
253.857	-8.15
253.994	7.85
254.13	4.85
254.266	3.85
254.403	-11.15
254.539	15.85
254.675	-0.15
254.811	-6.15
254.948	5.85
255.084	3.85
255.22	8.85
255.356	1.85
255.493	-2.15
255.629	-7.15
255.765	3.85
255.901	11.85
256.037	-12.15
256.174	0.85
256.31	-9.15
256.446	1.85
256.582	6.85
256.718	9.85
256.854	1.85
256.991	3.85
257.127	27.85
257.263	-2.15
257.399	-6.15
257.535	-6.15
257.671	-4.15
257.807	-12.15
257.943	-10.15
258.079	1.85
258.215	-10.15
258.351	5.85
258.487	11.85
258.623	45.85
258.759	1.85
258.895	0.85
259.031	12.85
259.167	-12.15
259.303	10.85
259.439	0.85
259.575	9.85
259.711	-14.15
259.847	0.85
259.983	7.85
260.119	-7.15
260.255	0.85
260.391	6.85
260.527	-6.15
260.663	11.85
260.799	9.85
260.934	-9.15
261.07	-3.15
261.206	-22.15
261.342	-6.15
261.478	14.85
261.614	-2.15
261.749	-20.15
261.885	3.85
262.021	-2.15
262.157	24.85
262.293	-7.15
262.428	-8.15
262.564	7.85
262.7	14.85
262.836	-2.15
262.971	6.85
263.107	3.85
263.243	10.85
263.378	-7.15
263.514	-29.15
263.65	-4.15
263.785	-22.15
263.921	-19.15
264.057	-12.15
264.192	6.85
264.328	14.85
264.464	-0.15
264.599	11.85
264.735	5.85
264.871	-20.15
265.006	6.85
265.142	5.85
265.277	2.85
265.413	10.85
265.548	-4.15
265.684	22.85
265.819	-0.15
265.955	-16.15
266.091	-22.15
266.226	-24.15
266.362	12.85
266.497	9.85
266.633	-0.15
266.768	-9.15
266.903	-5.15
267.039	12.85
267.174	19.85
267.31	10.85
267.445	6.85
267.581	-6.15
267.716	8.85
267.851	16.85
267.987	21.85
268.122	23.85
268.258	-2.15
268.393	-11.15
268.528	1.85
268.664	-9.15
268.799	-16.15
268.934	-2.15
269.07	-0.15
269.205	-4.15
269.34	20.85
269.476	11.85
269.611	3.85
269.746	29.85
269.881	-1.15
270.017	12.85
270.152	-10.15
270.287	15.85
270.422	17.85
270.558	-1.15
270.693	-7.15
270.828	-13.15
270.963	-15.15
271.098	-9.15
271.234	-10.15
271.369	17.85
271.504	-6.15
271.639	-14.15
271.774	-5.15
271.909	5.85
272.045	-27.15
272.18	0.85
272.315	-10.15
272.45	23.85
272.585	-23.15
272.72	-2.15
272.855	-10.15
272.99	3.85
273.125	-12.15
273.26	6.85
273.395	-18.15
273.53	-11.15
273.665	27.85
273.8	1.85
273.935	-5.15
274.07	-16.15
274.205	-18.15
274.34	4.85
274.475	-0.15
274.61	21.85
274.745	8.85
274.88	10.85
275.015	-16.15
275.15	-2.15
275.285	12.85
275.42	3.85
275.555	15.85
275.69	16.85
275.825	-2.15
275.959	21.85
276.094	2.85
276.229	-3.15
276.364	-12.15
276.499	-16.15
276.634	-7.15
276.768	2.85
276.903	9.85
277.038	22.85
277.173	-7.15
277.308	-6.15
277.442	7.85
277.577	-13.15
277.712	-6.15
277.847	12.85
277.981	6.85
278.116	-18.15
278.251	6.85
278.386	27.85
278.52	-3.15
278.655	-6.15
278.79	4.85
278.924	-5.15
279.059	5.85
279.194	-3.15
279.328	23.85
279.463	-4.15
279.598	17.85
279.732	20.85
279.867	8.85
280.001	20.85
280.136	4.85
280.271	19.85
280.405	-1.15
280.54	6.85
280.674	-12.15
280.809	13.85
280.943	2.85
281.078	5.85
281.213	16.85
281.347	23.85
281.482	-1.15
281.616	16.85
281.751	7.85
281.885	-1.15
282.02	-4.15
282.154	9.85
282.288	-26.15
282.423	-5.15
282.557	-9.15
282.692	19.85
282.826	5.85
282.961	11.85
283.095	-8.15
283.229	0.85
283.364	-4.15
283.498	10.85
283.633	16.85
283.767	14.85
283.901	10.85
284.036	4.85
284.17	22.85
284.304	0.85
284.439	8.85
284.573	3.85
284.707	9.85
284.842	6.85
284.976	7.85
285.11	-21.15
285.244	4.85
285.379	52.85
285.513	-14.15
285.647	13.85
285.781	10.85
285.916	3.85
286.05	4.85
286.184	25.85
286.318	26.85
286.453	-3.15
286.587	-9.15
286.721	-8.15
286.855	2.85
286.989	17.85
287.123	-23.15
287.258	-23.15
287.392	1.85
287.526	17.85
287.66	-8.15
287.794	-5.15
287.928	8.85
288.062	11.85
288.196	-6.15
288.33	17.85
288.464	33.85
288.598	10.85
288.733	-13.15
288.867	18.85
289.001	22.85
289.135	7.85
289.269	-1.15
289.403	-5.15
289.537	6.85
289.671	9.85
289.805	-3.15
289.939	-12.15
290.073	0.85
290.207	24.85
290.34	-3.15
290.474	3.85
290.608	-0.15
290.742	-1.15
290.876	-6.15
291.01	-5.15
291.144	14.85
291.278	20.85
291.412	-1.15
291.546	21.85
291.679	-6.15
291.813	13.85
291.947	3.85
292.081	-5.15
292.215	8.85
292.349	13.85
292.482	3.85
292.616	-5.15
292.75	14.85
292.884	2.85
293.018	6.85
293.151	-7.15
293.285	-6.15
293.419	-10.15
293.553	-6.15
293.686	-16.15
293.82	11.85
293.954	13.85
294.088	34.85
294.221	-4.15
294.355	4.85
294.489	-4.15
294.622	-14.15
294.756	-14.15
294.89	3.85
295.023	10.85
295.157	23.85
295.291	19.85
295.424	33.85
295.558	-4.15
295.691	-6.15
295.825	-4.15
295.959	-2.15
296.092	-13.15
296.226	6.85
296.359	7.85
296.493	1.85
296.627	0.85
296.76	-11.15
296.894	5.85
297.027	5.85
297.161	14.85
297.294	-15.15
297.428	12.85
297.561	40.85
297.695	3.85
297.828	-0.15
297.962	2.85
298.095	-23.15
298.229	2.85
298.362	-11.15
298.495	-10.15
298.629	0.85
298.762	9.85
298.896	9.85
299.029	4.85
299.162	10.85
299.296	4.85
299.429	2.85
299.563	-0.15
299.696	1.85
299.829	6.85
299.963	26.85
300.096	13.85
300.229	2.85
300.363	6.85
300.496	13.85
300.629	-7.15
300.763	8.85
300.896	10.85
301.029	-1.15
301.162	5.85
301.296	3.85
301.429	-9.15
301.562	-21.15
301.695	9.85
301.829	2.85
301.962	9.85
302.095	6.85
302.228	-19.15
302.362	5.85
302.495	0.85
302.628	10.85
302.761	-8.15
302.894	9.85
303.027	41.85
303.161	-7.15
303.294	6.85
303.427	-0.15
303.56	8.85
303.693	20.85
303.826	21.85
303.959	8.85
304.092	-18.15
304.225	-6.15
304.359	16.85
304.492	1.85
304.625	-4.15
304.758	20.85
304.891	1.85
305.024	0.85
305.157	-0.15
305.29	-21.15
305.423	7.85
305.556	0.85
305.689	9.85
305.822	-3.15
305.955	11.85
306.088	-10.15
306.221	-5.15
306.354	-7.15
306.487	-3.15
306.62	-14.15
306.752	-21.15
306.885	-1.15
307.018	1.85
307.151	6.85
307.284	21.85
307.417	-8.15
307.55	-0.15
307.683	-13.15
307.816	6.85
307.948	7.85
308.081	10.85
308.214	-2.15
308.347	12.85
308.48	-10.15
308.613	1.85
308.745	-1.15
308.878	16.85
309.011	-1.15
309.144	15.85
309.277	2.85
309.409	-8.15
309.542	-7.15
309.675	14.85
309.808	-5.15
309.94	23.85
310.073	-5.15
310.206	-13.15
310.339	2.85
310.471	10.85
310.604	5.85
310.737	-9.15
310.869	1.85
311.002	-2.15
311.135	2.85
311.267	-6.15
311.4	-9.15
311.533	9.85
311.665	-4.15
311.798	2.85
311.93	20.85
312.063	29.85
312.196	10.85
312.328	4.85
312.461	1.85
312.593	13.85
312.726	-9.15
312.859	4.85
312.991	15.85
313.124	-14.15
313.256	18.85
313.389	3.85
313.521	-5.15
313.654	-0.15
313.786	5.85
313.919	4.85
314.051	4.85
314.184	10.85
314.316	16.85
314.449	0.85
314.581	-1.15
314.714	10.85
314.846	8.85
314.978	-10.15
315.111	9.85
315.243	18.85
315.376	1.85
315.508	10.85
315.641	-0.15
315.773	33.85
315.905	5.85
316.038	6.85
316.17	-6.15
316.302	5.85
316.435	3.85
316.567	10.85
316.699	38.85
316.832	6.85
316.964	-14.15
317.096	-9.15
317.229	6.85
317.361	-31.15
317.493	-2.15
317.625	-21.15
317.758	-6.15
317.89	15.85
318.022	-2.15
318.155	-11.15
318.287	-2.15
318.419	0.85
318.551	0.85
318.683	6.85
318.816	2.85
318.948	-4.15
319.08	-10.15
319.212	-4.15
319.344	-6.15
319.477	15.85
319.609	-2.15
319.741	5.85
319.873	2.85
320.005	-4.15
320.137	16.85
320.269	5.85
320.401	9.85
320.534	0.85
320.666	-25.15
320.798	-3.15
320.93	-15.15
321.062	-11.15
321.194	-8.15
321.326	5.85
321.458	4.85
321.59	2.85
321.722	0.85
321.854	9.85
321.986	2.85
322.118	6.85
322.25	11.85
322.382	1.85
322.514	-10.15
322.646	-18.15
322.778	4.85
322.91	7.85
323.042	10.85
323.174	7.85
323.306	-11.15
323.438	-5.15
323.57	0.85
323.702	12.85
323.834	-18.15
323.966	-21.15
324.097	-6.15
324.229	-5.15
324.361	3.85
324.493	8.85
324.625	-2.15
324.757	21.85
324.889	14.85
325.021	16.85
325.152	22.85
325.284	22.85
325.416	-5.15
325.548	24.85
325.68	3.85
325.811	14.85
325.943	11.85
326.075	-19.15
326.207	-0.15
326.339	-7.15
326.47	-0.15
326.602	8.85
326.734	26.85
326.866	21.85
326.997	-5.15
327.129	-4.15
327.261	-16.15
327.392	-0.15
327.524	5.85
327.656	17.85
327.787	5.85
327.919	1.85
328.051	17.85
328.182	22.85
328.314	26.85
328.446	6.85
328.577	28.85
328.709	21.85
328.841	-21.15
328.972	-13.15
329.104	-12.15
329.235	-6.15
329.367	-3.15
329.499	-5.15
329.63	12.85
329.762	-0.15
329.893	12.85
330.025	6.85
330.156	-14.15
330.288	16.85
330.419	7.85
330.551	8.85
330.683	4.85
330.814	-2.15
330.946	5.85
331.077	5.85
331.208	-0.15
331.34	-13.15
331.471	-16.15
331.603	12.85
331.734	0.85
331.866	-0.15
331.997	3.85
332.129	1.85
332.26	-2.15
332.392	26.85
332.523	1.85
332.654	-5.15
332.786	1.85
332.917	-3.15
333.048	11.85
333.18	6.85
333.311	-2.15
333.443	10.85
333.574	20.85
333.705	20.85
333.837	-6.15
333.968	-8.15
334.099	8.85
334.231	17.85
334.362	1.85
334.493	16.85
334.624	3.85
334.756	4.85
334.887	1.85
335.018	0.85
335.15	17.85
335.281	-8.15
335.412	20.85
335.543	11.85
335.675	1.85
335.806	-6.15
335.937	-0.15
336.068	6.85
336.199	32.85
336.331	0.85
336.462	-7.15
336.593	0.85
336.724	1.85
336.855	4.85
336.986	9.85
337.118	16.85
337.249	6.85
337.38	11.85
337.511	0.85
337.642	-4.15
337.773	14.85
337.904	5.85
338.035	6.85
338.166	-10.15
338.298	14.85
338.429	6.85
338.56	13.85
338.691	13.85
338.822	7.85
338.953	2.85
339.084	6.85
339.215	11.85
339.346	3.85
339.477	12.85
339.608	8.85
339.739	-8.15
339.87	-3.15
340.001	-0.15
340.132	8.85
340.263	2.85
340.394	13.85
340.525	8.85
340.656	-24.15
340.787	-22.15
340.918	33.85
341.049	12.85
341.179	5.85
341.31	1.85
341.441	9.85
341.572	11.85
341.703	9.85
341.834	-3.15
341.965	-3.15
342.096	7.85
342.227	11.85
342.357	9.85
342.488	1.85
342.619	0.85
342.75	-1.15
342.881	-0.15
343.012	5.85
343.142	17.85
343.273	-21.15
343.404	5.85
343.535	44.85
343.666	21.85
343.796	14.85
343.927	19.85
344.058	9.85
344.189	8.85
344.319	23.85
344.45	10.85
344.581	3.85
344.712	-16.15
344.842	14.85
344.973	16.85
345.104	9.85
345.234	-0.15
345.365	-9.15
345.496	4.85
345.626	12.85
345.757	10.85
345.888	-8.15
346.018	13.85
346.149	-4.15
346.28	8.85
346.41	5.85
346.541	-4.15
346.672	-10.15
346.802	9.85
346.933	6.85
347.063	15.85
347.194	-1.15
347.325	0.85
347.455	18.85
347.586	7.85
347.716	-8.15
347.847	6.85
347.977	10.85
348.108	24.85
348.238	25.85
348.369	8.85
348.499	28.85
348.63	5.85
348.76	-3.15
348.891	-1.15
349.021	17.85
349.152	3.85
349.282	1.85
349.413	0.85
349.543	21.85
349.674	0.85
349.804	11.85
349.935	-3.15
350.065	-13.15
350.196	-7.15
350.326	11.85
350.456	5.85
350.587	31.85
350.717	23.85
350.848	8.85
350.978	17.85
351.108	-2.15
351.239	24.85
351.369	-3.15
351.499	10.85
351.63	23.85
351.76	17.85
351.89	4.85
352.021	3.85
352.151	-3.15
352.281	13.85
352.412	3.85
352.542	8.85
352.672	6.85
352.803	3.85
352.933	3.85
353.063	-7.15
353.193	15.85
353.324	10.85
353.454	12.85
353.584	32.85
353.714	-0.15
353.845	0.85
353.975	5.85
354.105	-13.15
354.235	9.85
354.365	17.85
354.496	16.85
354.626	18.85
354.756	-3.15
354.886	-6.15
355.016	4.85
355.146	4.85
355.277	10.85
355.407	8.85
355.537	-0.15
355.667	9.85
355.797	-6.15
355.927	-2.15
356.057	11.85
356.187	-29.15
356.318	-3.15
356.448	20.85
356.578	-2.15
356.708	14.85
356.838	12.85
356.968	1.85
357.098	11.85
357.228	4.85
357.358	7.85
357.488	-23.15
357.618	28.85
357.748	8.85
357.878	5.85
358.008	-11.15
358.138	-2.15
358.268	-22.15
358.398	17.85
358.528	2.85
358.658	-3.15
358.788	-5.15
358.918	8.85
359.048	5.85
359.178	8.85
359.308	11.85
359.438	9.85
359.568	25.85
359.698	16.85
359.827	3.85
359.957	9.85
360.087	0.85
360.217	-6.15
360.347	5.85
360.477	15.85
360.607	-6.15
360.737	22.85
360.866	-9.15
360.996	-7.15
361.126	-16.15
361.256	34.85
361.386	26.85
361.516	19.85
361.645	-7.15
361.775	0.85
361.905	-4.15
362.035	20.85
362.165	-16.15
362.294	24.85
362.424	27.85
362.554	12.85
362.684	-9.15
362.813	11.85
362.943	10.85
363.073	4.85
363.203	-15.15
363.332	7.85
363.462	-9.15
363.592	-25.15
363.721	-15.15
363.851	1.85
363.981	6.85
364.111	-1.15
364.24	-8.15
364.37	13.85
364.5	23.85
364.629	22.85
364.759	-24.15
364.888	-3.15
365.018	3.85
365.148	4.85
365.277	0.85
365.407	-0.15
365.537	15.85
365.666	2.85
365.796	0.85
365.925	-2.15
366.055	22.85
366.184	12.85
366.314	-1.15
366.444	13.85
366.573	1.85
366.703	13.85
366.832	10.85
366.962	5.85
367.091	13.85
367.221	1.85
367.35	-3.15
367.48	39.85
367.609	4.85
367.739	11.85
367.868	-10.15
367.998	11.85
368.127	12.85
368.257	8.85
368.386	19.85
368.516	20.85
368.645	0.85
368.775	-2.15
368.904	6.85
369.033	-2.15
369.163	12.85
369.292	24.85
369.422	21.85
369.551	11.85
369.68	24.85
369.81	25.85
369.939	-11.15
370.069	23.85
370.198	12.85
370.327	13.85
370.457	-10.15
370.586	12.85
370.715	-7.15
370.845	8.85
370.974	24.85
371.103	8.85
371.233	17.85
371.362	6.85
371.491	-16.15
371.621	15.85
371.75	6.85
371.879	-2.15
372.008	6.85
372.138	2.85
372.267	17.85
372.396	-1.15
372.525	6.85
372.655	-0.15
372.784	7.85
372.913	1.85
373.042	8.85
373.172	23.85
373.301	-15.15
373.43	-10.15
373.559	2.85
373.688	24.85
373.818	23.85
373.947	7.85
374.076	-8.15
374.205	25.85
374.334	0.85
374.463	5.85
374.593	6.85
374.722	8.85
374.851	20.85
374.98	7.85
375.109	1.85
375.238	9.85
375.367	23.85
375.496	-22.15
375.625	5.85
375.755	12.85
375.884	33.85
376.013	6.85
376.142	-9.15
376.271	-25.15
376.4	-7.15
376.529	-2.15
376.658	-4.15
376.787	-0.15
376.916	-0.15
377.045	1.85
377.174	0.85
377.303	5.85
377.432	27.85
377.561	26.85
377.69	8.85
377.819	18.85
377.948	-2.15
378.077	-2.15
378.206	-11.15
378.335	7.85
378.464	-11.15
378.593	9.85
378.722	-2.15
378.851	2.85
378.98	39.85
379.108	-8.15
379.237	-5.15
379.366	15.85
379.495	7.85
379.624	5.85
379.753	10.85
379.882	22.85
380.011	-0.15
380.14	-14.15
380.268	2.85
380.397	-15.15
380.526	20.85
380.655	-3.15
380.784	-6.15
380.913	3.85
381.041	4.85
381.17	-28.15
381.299	-15.15
381.428	0.85
381.557	11.85
381.685	1.85
381.814	2.85
381.943	12.85
382.072	-6.15
382.2	4.85
382.329	-11.15
382.458	5.85
382.587	17.85
382.715	23.85
382.844	7.85
382.973	10.85
383.102	5.85
383.23	7.85
383.359	-24.15
383.488	4.85
383.616	6.85
383.745	-4.15
383.874	19.85
384.003	1.85
384.131	-1.15
384.26	8.85
384.389	-3.15
384.517	-12.15
384.646	-6.15
384.774	-8.15
384.903	28.85
385.032	27.85
385.16	3.85
385.289	2.85
385.418	6.85
385.546	8.85
385.675	3.85
385.803	-1.15
385.932	8.85
386.06	-1.15
386.189	11.85
386.318	6.85
386.446	2.85
386.575	16.85
386.703	24.85
386.832	-9.15
386.96	-18.15
387.089	10.85
387.217	4.85
387.346	-20.15
387.474	5.85
387.603	15.85
387.731	9.85
387.86	6.85
387.988	5.85
388.117	9.85
388.245	3.85
388.374	8.85
388.502	15.85
388.631	0.85
388.759	-13.15
388.888	-3.15
389.016	1.85
389.144	5.85
389.273	17.85
389.401	-6.15
389.53	-0.15
389.658	9.85
389.786	-24.15
389.915	-22.15
390.043	-15.15
390.172	3.85
390.3	8.85
390.428	12.85
390.557	6.85
390.685	21.85
390.813	23.85
390.942	26.85
391.07	10.85
391.198	2.85
391.327	20.85
391.455	-9.15
391.583	35.85
391.712	13.85
391.84	14.85
391.968	-7.15
392.096	7.85
392.225	6.85
392.353	16.85
392.481	6.85
392.609	10.85
392.738	7.85
392.866	7.85
392.994	1.85
393.122	19.85
393.251	6.85
393.379	2.85
393.507	-3.15
393.635	-0.15
393.764	31.85
393.892	7.85
394.02	-9.15
394.148	-12.15
394.276	2.85
394.404	21.85
394.533	8.85
394.661	11.85
394.789	21.85
394.917	36.85
395.045	-16.15
395.173	-14.15
395.302	-0.15
395.43	14.85
395.558	13.85
395.686	20.85
395.814	27.85
395.942	9.85
396.07	24.85
396.198	2.85
396.326	-2.15
396.454	25.85
396.582	-1.15
396.711	14.85
396.839	23.85
396.967	9.85
397.095	-3.15
397.223	2.85
397.351	29.85
397.479	10.85
397.607	-10.15
397.735	3.85
397.863	14.85
397.991	17.85
398.119	-5.15
398.247	6.85
398.375	-3.15
398.503	13.85
398.631	19.85
398.759	2.85
398.887	15.85
399.015	11.85
399.143	-4.15
399.271	2.85
399.399	25.85
399.526	14.85
399.654	22.85
399.782	-9.15
399.91	21.85
400.038	13.85
400.166	5.85
400.294	4.85
400.422	5.85
400.55	13.85
400.678	4.85
400.805	-10.15
400.933	1.85
401.061	27.85
401.189	7.85
401.317	13.85
401.445	20.85
401.573	23.85
401.7	-5.15
401.828	-20.15
401.956	9.85
402.084	19.85
402.212	21.85
402.34	22.85
402.467	17.85
402.595	9.85
402.723	-8.15
402.851	15.85
402.978	10.85
403.106	17.85
403.234	7.85
403.362	34.85
403.489	28.85
403.617	12.85
403.745	4.85
403.873	6.85
404	7.85
404.128	12.85
404.256	11.85
404.384	21.85
404.511	11.85
404.639	-6.15
404.767	10.85
404.894	17.85
405.022	-1.15
405.15	17.85
405.277	-3.15
405.405	-8.15
405.533	11.85
405.66	3.85
405.788	-5.15
405.916	6.85
406.043	-14.15
406.171	-6.15
406.299	14.85
406.426	22.85
406.554	17.85
406.681	37.85
406.809	21.85
406.937	6.85
407.064	-11.15
407.192	1.85
407.319	8.85
407.447	-0.15
407.574	22.85
407.702	-16.15
407.83	-17.15
407.957	-4.15
408.085	0.85
408.212	30.85
408.34	2.85
408.467	-9.15
408.595	5.85
408.722	6.85
408.85	-0.15
408.977	-9.15
409.105	-2.15
409.232	6.85
409.36	18.85
409.487	3.85
409.615	5.85
409.742	26.85
409.87	20.85
409.997	36.85
410.125	41.85
410.252	61.85
410.379	39.85
410.507	44.85
410.634	2.85
410.762	17.85
410.889	17.85
411.017	22.85
411.144	28.85
411.271	6.85
411.399	20.85
411.526	4.85
411.653	27.85
411.781	28.85
411.908	17.85
412.036	-12.15
412.163	28.85
412.29	14.85
412.418	5.85
412.545	19.85
412.672	-14.15
412.8	28.85
412.927	7.85
413.054	34.85
413.182	10.85
413.309	10.85
413.436	16.85
413.564	20.85
413.691	24.85
413.818	21.85
413.945	-8.15
414.073	0.85
414.2	12.85
414.327	10.85
414.454	22.85
414.582	6.85
414.709	-1.15
414.836	8.85
414.963	4.85
415.091	1.85
415.218	12.85
415.345	9.85
415.472	7.85
415.6	-4.15
415.727	11.85
415.854	6.85
415.981	7.85
416.108	16.85
416.236	16.85
416.363	8.85
416.49	9.85
416.617	16.85
416.744	21.85
416.871	20.85
416.998	-7.15
417.126	0.85
417.253	-12.15
417.38	3.85
417.507	-10.15
417.634	13.85
417.761	12.85
417.888	1.85
418.015	13.85
418.143	5.85
418.27	28.85
418.397	-0.15
418.524	21.85
418.651	-2.15
418.778	-0.15
418.905	39.85
419.032	29.85
419.159	9.85
419.286	36.85
419.413	9.85
419.54	14.85
419.667	1.85
419.794	-19.15
419.921	-7.15
420.048	15.85
420.175	17.85
420.302	0.85
420.429	-0.15
420.556	3.85
420.683	-3.15
420.81	2.85
420.937	13.85
421.064	29.85
421.191	4.85
421.318	-0.15
421.445	40.85
421.572	9.85
421.699	21.85
421.826	0.85
421.953	9.85
422.08	-3.15
422.207	-11.15
422.334	1.85
422.461	34.85
422.588	4.85
422.714	12.85
422.841	24.85
422.968	2.85
423.095	-11.15
423.222	-3.15
423.349	10.85
423.476	15.85
423.603	23.85
423.729	15.85
423.856	22.85
423.983	16.85
424.11	-7.15
424.237	-3.15
424.364	0.85
424.491	-2.15
424.617	-13.15
424.744	-15.15
424.871	1.85
424.998	-2.15
425.125	-4.15
425.251	5.85
425.378	13.85
425.505	4.85
425.632	8.85
425.758	-10.15
425.885	21.85
426.012	22.85
426.139	19.85
426.266	0.85
426.392	29.85
426.519	9.85
426.646	-4.15
426.772	0.85
426.899	15.85
427.026	9.85
427.153	3.85
427.279	6.85
427.406	-2.15
427.533	-6.15
427.659	-4.15
427.786	22.85
427.913	21.85
428.039	10.85
428.166	4.85
428.293	14.85
428.419	14.85
428.546	28.85
428.673	7.85
428.799	-5.15
428.926	5.85
429.053	9.85
429.179	-0.15
429.306	15.85
429.433	24.85
429.559	32.85
429.686	-13.15
429.812	10.85
429.939	5.85
430.066	-18.15
430.192	2.85
430.319	18.85
430.445	9.85
430.572	10.85
430.699	5.85
430.825	-12.15
430.952	3.85
431.078	-2.15
431.205	17.85
431.331	6.85
431.458	-3.15
431.584	9.85
431.711	14.85
431.837	21.85
431.964	5.85
432.09	16.85
432.217	-8.15
432.343	7.85
432.47	33.85
432.596	2.85
432.723	5.85
432.849	-0.15
432.976	10.85
433.102	4.85
433.229	11.85
433.355	13.85
433.482	70.85
433.608	160.85
433.735	141.85
433.861	117.85
433.987	159.85
434.114	234.85
434.24	207.85
434.367	68.85
434.493	-0.15
434.62	10.85
434.746	36.85
434.872	18.85
434.999	13.85
435.125	20.85
435.252	4.85
435.378	-1.15
435.504	-4.15
435.631	-1.15
435.757	-13.15
435.883	4.85
436.01	15.85
436.136	16.85
436.262	15.85
436.389	3.85
436.515	16.85
436.641	21.85
436.768	10.85
436.894	10.85
437.02	7.85
437.147	44.85
437.273	16.85
437.399	-4.15
437.526	4.85
437.652	2.85
437.778	36.85
437.904	-7.15
438.031	5.85
438.157	11.85
438.283	16.85
438.409	8.85
438.536	-6.15
438.662	14.85
438.788	5.85
438.914	-7.15
439.041	19.85
439.167	32.85
439.293	10.85
439.419	10.85
439.546	16.85
439.672	3.85
439.798	16.85
439.924	33.85
440.05	42.85
440.177	22.85
440.303	0.85
440.429	17.85
440.555	32.85
440.681	14.85
440.807	1.85
440.934	18.85
441.06	0.85
441.186	0.85
441.312	19.85
441.438	11.85
441.564	13.85
441.69	40.85
441.816	13.85
441.943	10.85
442.069	8.85
442.195	-2.15
442.321	22.85
442.447	7.85
442.573	13.85
442.699	1.85
442.825	-3.15
442.951	6.85
443.077	7.85
443.203	19.85
443.33	18.85
443.456	-10.15
443.582	23.85
443.708	6.85
443.834	30.85
443.96	9.85
444.086	5.85
444.212	27.85
444.338	37.85
444.464	29.85
444.59	24.85
444.716	15.85
444.842	8.85
444.968	-5.15
445.094	-0.15
445.22	2.85
445.346	14.85
445.472	19.85
445.598	7.85
445.724	-7.15
445.85	4.85
445.976	13.85
446.102	7.85
446.228	16.85
446.354	25.85
446.48	-10.15
446.605	13.85
446.731	-7.15
446.857	-3.15
446.983	6.85
447.109	-0.15
447.235	8.85
447.361	2.85
447.487	19.85
447.613	6.85
447.739	13.85
447.865	-3.15
447.99	-16.15
448.116	21.85
448.242	6.85
448.368	4.85
448.494	1.85
448.62	-6.15
448.746	18.85
448.872	12.85
448.997	3.85
449.123	4.85
449.249	20.85
449.375	29.85
449.501	-2.15
449.627	1.85
449.752	39.85
449.878	8.85
450.004	-3.15
450.13	4.85
450.256	15.85
450.381	-1.15
450.507	5.85
450.633	28.85
450.759	30.85
450.884	-2.15
451.01	15.85
451.136	-3.15
451.262	3.85
451.388	3.85
451.513	-0.15
451.639	10.85
451.765	17.85
451.89	18.85
452.016	1.85
452.142	9.85
452.268	21.85
452.393	8.85
452.519	-11.15
452.645	4.85
452.771	18.85
452.896	-0.15
453.022	-5.15
453.148	28.85
453.273	12.85
453.399	5.85
453.525	4.85
453.65	-9.15
453.776	19.85
453.902	14.85
454.027	20.85
454.153	16.85
454.279	33.85
454.404	6.85
454.53	51.85
454.656	32.85
454.781	-22.15
454.907	5.85
455.032	-10.15
455.158	18.85
455.284	1.85
455.409	19.85
455.535	23.85
455.66	25.85
455.786	19.85
455.912	23.85
456.037	-8.15
456.163	10.85
456.288	23.85
456.414	-1.15
456.539	-4.15
456.665	13.85
456.791	1.85
456.916	4.85
457.042	15.85
457.167	7.85
457.293	-2.15
457.418	5.85
457.544	9.85
457.669	31.85
457.795	10.85
457.92	14.85
458.046	1.85
458.171	11.85
458.297	-7.15
458.422	10.85
458.548	11.85
458.673	13.85
458.799	-1.15
458.924	16.85
459.05	-6.15
459.175	11.85
459.301	17.85
459.426	11.85
459.552	7.85
459.677	9.85
459.803	33.85
459.928	8.85
460.053	6.85
460.179	18.85
460.304	21.85
460.43	-5.15
460.555	-4.15
460.681	-8.15
460.806	16.85
460.931	25.85
461.057	32.85
461.182	12.85
461.308	19.85
461.433	16.85
461.558	1.85
461.684	30.85
461.809	34.85
461.934	2.85
462.06	20.85
462.185	-12.15
462.311	0.85
462.436	17.85
462.561	11.85
462.687	1.85
462.812	6.85
462.937	-4.15
463.063	-4.15
463.188	3.85
463.313	21.85
463.439	9.85
463.564	8.85
463.689	19.85
463.814	19.85
463.94	6.85
464.065	16.85
464.19	27.85
464.316	-1.15
464.441	-3.15
464.566	10.85
464.692	0.85
464.817	-1.15
464.942	-6.15
465.067	10.85
465.193	-14.15
465.318	2.85
465.443	9.85
465.568	-1.15
465.694	-15.15
465.819	16.85
465.944	-14.15
466.069	-14.15
466.194	12.85
466.32	15.85
466.445	2.85
466.57	16.85
466.695	1.85
466.82	7.85
466.946	9.85
467.071	3.85
467.196	-13.15
467.321	6.85
467.446	12.85
467.572	8.85
467.697	-14.15
467.822	-4.15
467.947	19.85
468.072	3.85
468.197	8.85
468.323	-18.15
468.448	6.85
468.573	6.85
468.698	4.85
468.823	34.85
468.948	23.85
469.073	15.85
469.198	17.85
469.324	27.85
469.449	5.85
469.574	21.85
469.699	38.85
469.824	28.85
469.949	16.85
470.074	12.85
470.199	48.85
470.324	26.85
470.449	24.85
470.574	2.85
470.7	14.85
470.825	12.85
470.95	36.85
471.075	17.85
471.2	23.85
471.325	21.85
471.45	9.85
471.575	-3.15
471.7	18.85
471.825	4.85
471.95	4.85
472.075	-5.15
472.2	5.85
472.325	18.85
472.45	16.85
472.575	6.85
472.7	19.85
472.825	27.85
472.95	16.85
473.075	21.85
473.2	2.85
473.325	4.85
473.45	5.85
473.575	12.85
473.7	2.85
473.825	4.85
473.95	10.85
474.075	36.85
474.2	17.85
474.325	15.85
474.45	23.85
474.574	10.85
474.699	9.85
474.824	-0.15
474.949	-0.15
475.074	-13.15
475.199	11.85
475.324	23.85
475.449	6.85
475.574	12.85
475.699	14.85
475.824	6.85
475.949	8.85
476.073	-2.15
476.198	8.85
476.323	15.85
476.448	18.85
476.573	-0.15
476.698	19.85
476.823	19.85
476.947	15.85
477.072	11.85
477.197	28.85
477.322	1.85
477.447	-5.15
477.572	9.85
477.697	0.85
477.821	8.85
477.946	11.85
478.071	14.85
478.196	21.85
478.321	13.85
478.445	-0.15
478.57	4.85
478.695	23.85
478.82	32.85
478.945	28.85
479.069	10.85
479.194	9.85
479.319	11.85
479.444	9.85
479.569	0.85
479.693	19.85
479.818	11.85
479.943	12.85
480.068	7.85
480.192	23.85
480.317	15.85
480.442	5.85
480.567	11.85
480.691	7.85
480.816	21.85
480.941	-11.15
481.066	7.85
481.19	23.85
481.315	19.85
481.44	19.85
481.564	-3.15
481.689	20.85
481.814	30.85
481.938	15.85
482.063	10.85
482.188	24.85
482.313	39.85
482.437	4.85
482.562	34.85
482.687	47.85
482.811	25.85
482.936	13.85
483.061	25.85
483.185	28.85
483.31	29.85
483.435	3.85
483.559	18.85
483.684	13.85
483.808	19.85
483.933	24.85
484.058	22.85
484.182	12.85
484.307	24.85
484.432	24.85
484.556	-2.15
484.681	2.85
484.805	22.85
484.93	23.85
485.055	41.85
485.179	85.85
485.304	123.85
485.428	359.85
485.553	1241.85
485.678	1757.85
485.802	1617.85
485.927	1771.85
486.051	2640.85
486.176	1611.85
486.3	433.85
486.425	153.85
486.549	78.85
486.674	61.85
486.799	49.85
486.923	37.85
487.048	15.85
487.172	21.85
487.297	16.85
487.421	35.85
487.546	31.85
487.67	15.85
487.795	4.85
487.919	3.85
488.044	15.85
488.168	20.85
488.293	3.85
488.417	2.85
488.542	19.85
488.666	25.85
488.791	31.85
488.915	14.85
489.04	32.85
489.164	28.85
489.289	17.85
489.413	3.85
489.538	30.85
489.662	30.85
489.786	5.85
489.911	10.85
490.035	1.85
490.16	-3.15
490.284	4.85
490.409	-16.15
490.533	17.85
490.658	28.85
490.782	2.85
490.906	22.85
491.031	35.85
491.155	28.85
491.28	25.85
491.404	7.85
491.528	3.85
491.653	8.85
491.777	12.85
491.902	15.85
492.026	27.85
492.15	27.85
492.275	21.85
492.399	22.85
492.524	6.85
492.648	27.85
492.772	26.85
492.897	32.85
493.021	8.85
493.145	23.85
493.27	40.85
493.394	1.85
493.518	0.85
493.643	-6.15
493.767	25.85
493.891	0.85
494.016	2.85
494.14	10.85
494.264	3.85
494.389	29.85
494.513	4.85
494.637	1.85
494.762	27.85
494.886	33.85
495.01	21.85
495.134	30.85
495.259	20.85
495.383	1.85
495.507	-2.15
495.632	24.85
495.756	27.85
495.88	25.85
496.004	16.85
496.129	7.85
496.253	37.85
496.377	-3.15
496.501	22.85
496.626	4.85
496.75	11.85
496.874	16.85
496.998	15.85
497.123	51.85
497.247	11.85
497.371	24.85
497.495	20.85
497.62	20.85
497.744	9.85
497.868	-0.15
497.992	9.85
498.116	11.85
498.241	32.85
498.365	7.85
498.489	6.85
498.613	29.85
498.737	2.85
498.862	13.85
498.986	1.85
499.11	6.85
499.234	15.85
499.358	6.85
499.482	10.85
499.607	3.85
499.731	17.85
499.855	25.85
499.979	27.85
500.103	18.85
500.227	38.85
500.351	14.85
500.476	0.85
500.6	20.85
500.724	26.85
500.848	37.85
500.972	22.85
501.096	22.85
501.22	22.85
501.344	3.85
501.469	-0.15
501.593	17.85
501.717	9.85
501.841	6.85
501.965	-5.15
502.089	2.85
502.213	22.85
502.337	0.85
502.461	-9.15
502.585	18.85
502.709	23.85
502.834	13.85
502.958	16.85
503.082	24.85
503.206	28.85
503.33	29.85
503.454	29.85
503.578	21.85
503.702	36.85
503.826	7.85
503.95	29.85
504.074	5.85
504.198	-2.15
504.322	1.85
504.446	8.85
504.57	7.85
504.694	24.85
504.818	3.85
504.942	21.85
505.066	6.85
505.19	10.85
505.314	12.85
505.438	13.85
505.562	3.85
505.686	35.85
505.81	20.85
505.934	36.85
506.058	9.85
506.182	8.85
506.306	9.85
506.43	9.85
506.554	9.85
506.678	3.85
506.802	4.85
506.926	1.85
507.05	14.85
507.174	20.85
507.298	27.85
507.422	32.85
507.546	13.85
507.67	23.85
507.794	-7.15
507.918	18.85
508.042	8.85
508.165	8.85
508.289	3.85
508.413	8.85
508.537	-0.15
508.661	15.85
508.785	12.85
508.909	0.85
509.033	4.85
509.157	1.85
509.281	15.85
509.405	2.85
509.528	9.85
509.652	34.85
509.776	12.85
509.9	27.85
510.024	-4.15
510.148	5.85
510.272	19.85
510.396	29.85
510.519	5.85
510.643	14.85
510.767	21.85
510.891	20.85
511.015	19.85
511.139	15.85
511.263	24.85
511.386	7.85
511.51	22.85
511.634	15.85
511.758	7.85
511.882	-3.15
512.006	7.85
512.129	18.85
512.253	50.85
512.377	4.85
512.501	14.85
512.625	25.85
512.748	18.85
512.872	17.85
512.996	8.85
513.12	19.85
513.244	4.85
513.367	17.85
513.491	24.85
513.615	19.85
513.739	2.85
513.862	8.85
513.986	10.85
514.11	17.85
514.234	14.85
514.358	29.85
514.481	25.85
514.605	1.85
514.729	7.85
514.853	22.85
514.976	16.85
515.1	35.85
515.224	25.85
515.348	10.85
515.471	-4.15
515.595	19.85
515.719	15.85
515.842	38.85
515.966	12.85
516.09	30.85
516.214	19.85
516.337	25.85
516.461	26.85
516.585	12.85
516.708	19.85
516.832	15.85
516.956	4.85
517.08	6.85
517.203	12.85
517.327	7.85
517.451	29.85
517.574	53.85
517.698	31.85
517.822	23.85
517.945	31.85
518.069	12.85
518.193	36.85
518.316	27.85
518.44	31.85
518.564	18.85
518.687	15.85
518.811	27.85
518.935	52.85
519.058	21.85
519.182	34.85
519.306	43.85
519.429	26.85
519.553	55.85
519.676	32.85
519.8	17.85
519.924	1.85
520.047	32.85
520.171	-8.15
520.294	9.85
520.418	14.85
520.542	18.85
520.665	20.85
520.789	23.85
520.913	0.85
521.036	1.85
521.16	-4.15
521.283	9.85
521.407	8.85
521.53	8.85
521.654	-3.15
521.778	29.85
521.901	23.85
522.025	14.85
522.148	4.85
522.272	16.85
522.395	4.85
522.519	26.85
522.643	-1.15
522.766	0.85
522.89	0.85
523.013	28.85
523.137	-7.15
523.26	-4.15
523.384	15.85
523.507	22.85
523.631	0.85
523.754	-3.15
523.878	13.85
524.002	16.85
524.125	25.85
524.249	5.85
524.372	1.85
524.496	-1.15
524.619	-0.15
524.743	2.85
524.866	-1.15
524.99	2.85
525.113	2.85
525.237	10.85
525.36	-2.15
525.484	17.85
525.607	1.85
525.731	-16.15
525.854	20.85
525.978	12.85
526.101	0.85
526.224	-2.15
526.348	-9.15
526.471	12.85
526.595	3.85
526.718	13.85
526.842	3.85
526.965	5.85
527.089	7.85
527.212	16.85
527.336	1.85
527.459	19.85
527.582	22.85
527.706	27.85
527.829	17.85
527.953	22.85
528.076	10.85
528.2	0.85
528.323	20.85
528.446	31.85
528.57	9.85
528.693	4.85
528.817	14.85
528.94	36.85
529.064	54.85
529.187	2.85
529.31	9.85
529.434	-8.15
529.557	3.85
529.68	21.85
529.804	15.85
529.927	18.85
530.051	16.85
530.174	19.85
530.297	13.85
530.421	20.85
530.544	11.85
530.668	23.85
530.791	15.85
530.914	19.85
531.038	15.85
531.161	15.85
531.284	17.85
531.408	27.85
531.531	1.85
531.654	2.85
531.778	2.85
531.901	10.85
532.024	18.85
532.148	-7.15
532.271	18.85
532.394	11.85
532.518	19.85
532.641	21.85
532.764	24.85
532.888	12.85
533.011	7.85
533.134	-0.15
533.258	22.85
533.381	-3.15
533.504	-5.15
533.628	5.85
533.751	28.85
533.874	-11.15
533.997	0.85
534.121	5.85
534.244	2.85
534.367	1.85
534.491	-0.15
534.614	20.85
534.737	12.85
534.86	11.85
534.984	12.85
535.107	-17.15
535.23	9.85
535.354	15.85
535.477	-5.15
535.6	13.85
535.723	9.85
535.847	15.85
535.97	5.85
536.093	23.85
536.216	-8.15
536.34	11.85
536.463	4.85
536.586	19.85
536.709	28.85
536.833	14.85
536.956	5.85
537.079	4.85
537.202	2.85
537.325	-7.15
537.449	-8.15
537.572	19.85
537.695	-8.15
537.818	14.85
537.941	14.85
538.065	0.85
538.188	-3.15
538.311	16.85
538.434	18.85
538.558	1.85
538.681	24.85
538.804	22.85
538.927	7.85
539.05	14.85
539.173	7.85
539.297	5.85
539.42	9.85
539.543	11.85
539.666	30.85
539.789	26.85
539.913	26.85
540.036	9.85
540.159	17.85
540.282	0.85
540.405	0.85
540.528	4.85
540.651	21.85
540.775	12.85
540.898	6.85
541.021	-4.15
541.144	4.85
541.267	13.85
541.39	16.85
541.513	12.85
541.637	4.85
541.76	-2.15
541.883	-7.15
542.006	9.85
542.129	35.85
542.252	8.85
542.375	20.85
542.498	-1.15
542.622	38.85
542.745	12.85
542.868	15.85
542.991	27.85
543.114	29.85
543.237	21.85
543.36	18.85
543.483	12.85
543.606	14.85
543.73	11.85
543.853	20.85
543.976	8.85
544.099	19.85
544.222	9.85
544.345	21.85
544.468	17.85
544.591	8.85
544.714	10.85
544.837	29.85
544.96	6.85
545.083	5.85
545.206	2.85
545.329	11.85
545.453	13.85
545.576	5.85
545.699	3.85
545.822	9.85
545.945	35.85
546.068	-1.15
546.191	25.85
546.314	3.85
546.437	14.85
546.56	14.85
546.683	2.85
546.806	18.85
546.929	5.85
547.052	17.85
547.175	0.85
547.298	15.85
547.421	-4.15
547.544	0.85
547.667	20.85
547.79	11.85
547.913	-16.15
548.036	-16.15
548.159	5.85
548.282	8.85
548.405	-10.15
548.528	19.85
548.651	4.85
548.774	5.85
548.897	12.85
549.02	31.85
549.143	13.85
549.266	11.85
549.389	41.85
549.512	4.85
549.635	16.85
549.758	28.85
549.881	2.85
550.004	20.85
550.127	19.85
550.25	1.85
550.373	2.85
550.496	27.85
550.619	8.85
550.742	11.85
550.865	10.85
550.988	27.85
551.111	19.85
551.234	17.85
551.356	-0.15
551.479	-1.15
551.602	26.85
551.725	16.85
551.848	26.85
551.971	31.85
552.094	8.85
552.217	-0.15
552.34	-7.15
552.463	4.85
552.586	23.85
552.709	0.85
552.832	6.85
552.955	10.85
553.077	11.85
553.2	12.85
553.323	-9.15
553.446	15.85
553.569	11.85
553.692	3.85
553.815	9.85
553.938	4.85
554.061	11.85
554.184	5.85
554.306	10.85
554.429	19.85
554.552	1.85
554.675	7.85
554.798	19.85
554.921	29.85
555.044	7.85
555.167	13.85
555.29	3.85
555.412	-17.15
555.535	9.85
555.658	9.85
555.781	21.85
555.904	8.85
556.027	15.85
556.15	3.85
556.272	10.85
556.395	30.85
556.518	1.85
556.641	5.85
556.764	16.85
556.887	4.85
557.01	8.85
557.132	-5.15
557.255	-4.15
557.378	31.85
557.501	22.85
557.624	10.85
557.747	9.85
557.869	2.85
557.992	22.85
558.115	16.85
558.238	10.85
558.361	25.85
558.483	35.85
558.606	1.85
558.729	-2.15
558.852	31.85
558.975	20.85
559.098	5.85
559.22	13.85
559.343	13.85
559.466	15.85
559.589	-2.15
559.712	5.85
559.834	32.85
559.957	5.85
560.08	26.85
560.203	26.85
560.325	29.85
560.448	21.85
560.571	-10.15
560.694	0.85
560.817	24.85
560.939	12.85
561.062	4.85
561.185	2.85
561.308	12.85
561.43	-0.15
561.553	-8.15
561.676	13.85
561.799	26.85
561.921	-7.15
562.044	5.85
562.167	4.85
562.29	28.85
562.413	21.85
562.535	20.85
562.658	-7.15
562.781	3.85
562.903	7.85
563.026	15.85
563.149	21.85
563.272	15.85
563.394	0.85
563.517	-8.15
563.64	-7.15
563.763	-11.15
563.885	33.85
564.008	30.85
564.131	10.85
564.254	-17.15
564.376	-0.15
564.499	-15.15
564.622	7.85
564.744	30.85
564.867	11.85
564.99	10.85
565.113	19.85
565.235	14.85
565.358	4.85
565.481	-1.15
565.603	10.85
565.726	16.85
565.849	21.85
565.971	29.85
566.094	12.85
566.217	22.85
566.34	18.85
566.462	10.85
566.585	10.85
566.708	25.85
566.83	5.85
566.953	9.85
567.076	5.85
567.198	1.85
567.321	-1.15
567.444	28.85
567.566	0.85
567.689	-1.15
567.812	4.85
567.934	18.85
568.057	9.85
568.18	12.85
568.302	-5.15
568.425	-3.15
568.548	7.85
568.67	21.85
568.793	16.85
568.916	9.85
569.038	5.85
569.161	3.85
569.283	11.85
569.406	10.85
569.529	6.85
569.651	0.85
569.774	-6.15
569.897	12.85
570.019	8.85
570.142	7.85
570.265	15.85
570.387	2.85
570.51	2.85
570.632	10.85
570.755	6.85
570.878	-2.15
571	17.85
571.123	0.85
571.246	9.85
571.368	-8.15
571.491	4.85
571.613	-6.15
571.736	9.85
571.859	5.85
571.981	10.85
572.104	21.85
572.226	29.85
572.349	6.85
572.472	13.85
572.594	8.85
572.717	27.85
572.839	-0.15
572.962	8.85
573.085	9.85
573.207	16.85
573.33	9.85
573.452	20.85
573.575	12.85
573.697	-7.15
573.82	9.85
573.943	-3.15
574.065	0.85
574.188	6.85
574.31	23.85
574.433	17.85
574.555	7.85
574.678	5.85
574.801	15.85
574.923	2.85
575.046	-8.15
575.168	7.85
575.291	12.85
575.413	3.85
575.536	6.85
575.659	-10.15
575.781	-0.15
575.904	13.85
576.026	9.85
576.149	11.85
576.271	17.85
576.394	26.85
576.516	0.85
576.639	16.85
576.761	4.85
576.884	-0.15
577.007	2.85
577.129	17.85
577.252	5.85
577.374	41.85
577.497	17.85
577.619	4.85
577.742	5.85
577.864	23.85
577.987	24.85
578.109	28.85
578.232	2.85
578.354	15.85
578.477	3.85
578.599	-4.15
578.722	2.85
578.844	-0.15
578.967	20.85
579.089	2.85
579.212	-7.15
579.334	17.85
579.457	12.85
579.579	29.85
579.702	-4.15
579.824	1.85
579.947	-3.15
580.069	-0.15
580.192	-3.15
580.314	17.85
580.437	1.85
580.559	45.85
580.682	4.85
580.804	10.85
580.927	35.85
581.049	31.85
581.172	29.85
581.294	5.85
581.417	19.85
581.539	16.85
581.662	6.85
581.784	19.85
581.907	7.85
582.029	28.85
582.152	7.85
582.274	17.85
582.396	16.85
582.519	23.85
582.641	-8.15
582.764	16.85
582.886	24.85
583.009	-4.15
583.131	5.85
583.254	4.85
583.376	17.85
583.499	19.85
583.621	5.85
583.743	15.85
583.866	15.85
583.988	7.85
584.111	18.85
584.233	24.85
584.356	27.85
584.478	17.85
584.601	-11.15
584.723	5.85
584.845	19.85
584.968	1.85
585.09	5.85
585.213	7.85
585.335	1.85
585.458	-0.15
585.58	4.85
585.702	23.85
585.825	40.85
585.947	12.85
586.07	-20.15
586.192	-8.15
586.315	20.85
586.437	4.85
586.559	16.85
586.682	0.85
586.804	7.85
586.927	9.85
587.049	-13.15
587.171	25.85
587.294	31.85
587.416	21.85
587.539	16.85
587.661	-1.15
587.783	1.85
587.906	8.85
588.028	10.85
588.151	11.85
588.273	18.85
588.395	-3.15
588.518	14.85
588.64	25.85
588.763	19.85
588.885	13.85
589.007	6.85
589.13	6.85
589.252	4.85
589.375	16.85
589.497	7.85
589.619	3.85
589.742	10.85
589.864	29.85
589.986	11.85
590.109	7.85
590.231	9.85
590.354	8.85
590.476	-1.15
590.598	13.85
590.721	-7.15
590.843	17.85
590.965	13.85
591.088	6.85
591.21	4.85
591.332	13.85
591.455	-8.15
591.577	-4.15
591.7	9.85
591.822	-10.15
591.944	14.85
592.067	22.85
592.189	5.85
592.311	11.85
592.434	17.85
592.556	24.85
592.678	21.85
592.801	21.85
592.923	-6.15
593.045	14.85
593.168	6.85
593.29	9.85
593.412	23.85
593.535	-8.15
593.657	-0.15
593.779	14.85
593.902	18.85
594.024	6.85
594.146	21.85
594.269	29.85
594.391	-10.15
594.513	23.85
594.636	4.85
594.758	-15.15
594.88	23.85
595.003	30.85
595.125	14.85
595.247	23.85
595.37	29.85
595.492	-3.15
595.614	37.85
595.737	1.85
595.859	-11.15
595.981	12.85
596.104	5.85
596.226	19.85
596.348	6.85
596.471	7.85
596.593	13.85
596.715	-0.15
596.838	2.85
596.96	-2.15
597.082	4.85
597.204	4.85
597.327	13.85
597.449	-3.15
597.571	5.85
597.694	9.85
597.816	21.85
597.938	7.85
598.061	-5.15
598.183	17.85
598.305	13.85
598.427	6.85
598.55	-10.15
598.672	17.85
598.794	8.85
598.917	2.85
599.039	6.85
599.161	21.85
599.283	6.85
599.406	31.85
599.528	35.85
599.65	38.85
599.773	10.85
599.895	34.85
600.017	12.85
600.139	8.85
600.262	-3.15
600.384	5.85
600.506	7.85
600.628	16.85
600.751	13.85
600.873	21.85
600.995	2.85
601.118	19.85
601.24	2.85
601.362	31.85
601.484	20.85
601.607	24.85
601.729	4.85
601.851	13.85
601.973	16.85
602.096	15.85
602.218	9.85
602.34	1.85
602.462	20.85
602.585	9.85
602.707	6.85
602.829	10.85
602.951	7.85
603.074	-0.15
603.196	16.85
603.318	3.85
603.44	24.85
603.563	17.85
603.685	1.85
603.807	20.85
603.929	16.85
604.052	27.85
604.174	18.85
604.296	7.85
604.418	10.85
604.541	29.85
604.663	25.85
604.785	11.85
604.907	3.85
605.03	5.85
605.152	32.85
605.274	5.85
605.396	14.85
605.519	23.85
605.641	7.85
605.763	3.85
605.885	1.85
606.008	8.85
606.13	17.85
606.252	21.85
606.374	-3.15
606.496	-1.15
606.619	0.85
606.741	4.85
606.863	25.85
606.985	30.85
607.108	33.85
607.23	13.85
607.352	8.85
607.474	1.85
607.596	-8.15
607.719	-2.15
607.841	23.85
607.963	3.85
608.085	3.85
608.207	25.85
608.33	7.85
608.452	18.85
608.574	9.85
608.696	27.85
608.819	1.85
608.941	17.85
609.063	14.85
609.185	3.85
609.307	23.85
609.43	8.85
609.552	20.85
609.674	1.85
609.796	10.85
609.918	18.85
610.041	2.85
610.163	33.85
610.285	3.85
610.407	12.85
610.529	-10.15
610.652	10.85
610.774	23.85
610.896	18.85
611.018	4.85
611.14	6.85
611.263	-0.15
611.385	-5.15
611.507	15.85
611.629	13.85
611.751	11.85
611.873	41.85
611.996	28.85
612.118	23.85
612.24	8.85
612.362	17.85
612.484	29.85
612.607	13.85
612.729	8.85
612.851	5.85
612.973	-5.15
613.095	0.85
613.218	7.85
613.34	24.85
613.462	17.85
613.584	0.85
613.706	4.85
613.828	48.85
613.951	15.85
614.073	26.85
614.195	9.85
614.317	30.85
614.439	32.85
614.561	21.85
614.684	13.85
614.806	31.85
614.928	26.85
615.05	17.85
615.172	42.85
615.294	17.85
615.417	23.85
615.539	-0.15
615.661	5.85
615.783	19.85
615.905	16.85
616.027	89.85
616.15	118.85
616.272	80.85
616.394	43.85
616.516	32.85
616.638	22.85
616.76	23.85
616.883	20.85
617.005	11.85
617.127	16.85
617.249	9.85
617.371	16.85
617.493	11.85
617.615	8.85
617.738	-0.15
617.86	11.85
617.982	12.85
618.104	2.85
618.226	6.85
618.348	0.85
618.471	10.85
618.593	18.85
618.715	0.85
618.837	1.85
618.959	2.85
619.081	21.85
619.203	-2.15
619.326	9.85
619.448	-3.15
619.57	14.85
619.692	2.85
619.814	31.85
619.936	25.85
620.058	19.85
620.181	11.85
620.303	0.85
620.425	16.85
620.547	16.85
620.669	2.85
620.791	10.85
620.913	10.85
621.036	2.85
621.158	-5.15
621.28	20.85
621.402	14.85
621.524	8.85
621.646	1.85
621.768	4.85
621.891	-21.15
622.013	4.85
622.135	8.85
622.257	7.85
622.379	5.85
622.501	17.85
622.623	4.85
622.745	15.85
622.868	9.85
622.99	5.85
623.112	6.85
623.234	13.85
623.356	9.85
623.478	0.85
623.6	11.85
623.722	1.85
623.845	13.85
623.967	-2.15
624.089	20.85
624.211	5.85
624.333	7.85
624.455	2.85
624.577	9.85
624.699	17.85
624.822	14.85
624.944	4.85
625.066	-4.15
625.188	-25.15
625.31	3.85
625.432	25.85
625.554	12.85
625.676	4.85
625.799	13.85
625.921	4.85
626.043	6.85
626.165	3.85
626.287	-9.15
626.409	28.85
626.531	5.85
626.653	6.85
626.775	15.85
626.898	19.85
627.02	9.85
627.142	20.85
627.264	15.85
627.386	7.85
627.508	17.85
627.63	11.85
627.752	18.85
627.874	10.85
627.997	12.85
628.119	13.85
628.241	22.85
628.363	50.85
628.485	19.85
628.607	20.85
628.729	13.85
628.851	-11.15
628.973	-1.15
629.096	-18.15
629.218	22.85
629.34	15.85
629.462	11.85
629.584	-1.15
629.706	-9.15
629.828	9.85
629.95	12.85
630.072	-7.15
630.195	0.85
630.317	8.85
630.439	4.85
630.561	11.85
630.683	3.85
630.805	12.85
630.927	8.85
631.049	12.85
631.171	11.85
631.293	-0.15
631.416	9.85
631.538	-2.15
631.66	-0.15
631.782	5.85
631.904	30.85
632.026	13.85
632.148	21.85
632.27	2.85
632.392	16.85
632.514	17.85
632.637	0.85
632.759	7.85
632.881	8.85
633.003	4.85
633.125	1.85
633.247	-12.15
633.369	-3.15
633.491	15.85
633.613	14.85
633.735	2.85
633.858	23.85
633.98	7.85
634.102	12.85
634.224	7.85
634.346	14.85
634.468	17.85
634.59	-3.15
634.712	14.85
634.834	16.85
634.956	-5.15
635.078	-14.15
635.201	2.85
635.323	13.85
635.445	7.85
635.567	2.85
635.689	22.85
635.811	0.85
635.933	7.85
636.055	-1.15
636.177	11.85
636.299	31.85
636.421	1.85
636.544	-5.15
636.666	0.85
636.788	3.85
636.91	17.85
637.032	4.85
637.154	17.85
637.276	42.85
637.398	27.85
637.52	14.85
637.642	9.85
637.764	1.85
637.887	4.85
638.009	-2.15
638.131	9.85
638.253	-4.15
638.375	9.85
638.497	18.85
638.619	-0.15
638.741	13.85
638.863	15.85
638.985	1.85
639.107	11.85
639.23	0.85
639.352	1.85
639.474	21.85
639.596	13.85
639.718	-8.15
639.84	2.85
639.962	2.85
640.084	18.85
640.206	15.85
640.328	-11.15
640.45	-0.15
640.573	16.85
640.695	14.85
640.817	9.85
640.939	20.85
641.061	-2.15
641.183	5.85
641.305	17.85
641.427	15.85
641.549	6.85
641.671	5.85
641.793	-2.15
641.915	14.85
642.038	13.85
642.16	-4.15
642.282	2.85
642.404	16.85
642.526	9.85
642.648	14.85
642.77	-4.15
642.892	-5.15
643.014	12.85
643.136	12.85
643.258	8.85
643.381	22.85
643.503	34.85
643.625	6.85
643.747	-20.15
643.869	8.85
643.991	11.85
644.113	6.85
644.235	9.85
644.357	8.85
644.479	28.85
644.601	16.85
644.723	7.85
644.846	20.85
644.968	19.85
645.09	6.85
645.212	20.85
645.334	16.85
645.456	11.85
645.578	0.85
645.7	14.85
645.822	1.85
645.944	13.85
646.066	6.85
646.188	-23.15
646.311	21.85
646.433	1.85
646.555	47.85
646.677	41.85
646.799	34.85
646.921	33.85
647.043	25.85
647.165	0.85
647.287	10.85
647.409	13.85
647.531	24.85
647.654	-18.15
647.776	9.85
647.898	22.85
648.02	-3.15
648.142	-5.15
648.264	16.85
648.386	17.85
648.508	-6.15
648.63	11.85
648.752	19.85
648.874	8.85
648.997	-0.15
649.119	15.85
649.241	5.85
649.363	21.85
649.485	26.85
649.607	18.85
649.729	-14.15
649.851	9.85
649.973	11.85
650.095	13.85
650.217	2.85
650.34	8.85
650.462	15.85
650.584	3.85
650.706	11.85
650.828	9.85
650.95	3.85
651.072	19.85
651.194	12.85
651.316	-3.15
651.438	5.85
651.56	3.85
651.683	1.85
651.805	8.85
651.927	2.85
652.049	5.85
652.171	6.85
652.293	4.85
652.415	-12.15
652.537	-9.15
652.659	-8.15
652.781	11.85
652.903	3.85
653.026	15.85
653.148	6.85
653.27	9.85
653.392	5.85
653.514	9.85
653.636	6.85
653.758	4.85
653.88	-2.15
654.002	18.85
654.124	9.85
654.247	-12.15
654.369	25.85
654.491	12.85
654.613	21.85
654.735	-5.15
654.857	33.85
654.979	23.85
655.101	1.85
655.223	35.85
655.345	27.85
655.468	33.85
655.59	9.85
655.712	31.85
655.834	27.85
655.956	24.85
656.078	26.85
656.2	35.85
656.322	33.85
656.444	31.85
656.566	44.85
656.689	51.85
656.811	48.85
656.933	92.85
657.055	80.85
657.177	156.85
657.299	229.85
657.421	507.85
657.543	1839.85
657.665	12441.85
657.787	15153.85
657.91	15212.85
658.032	15662.85
658.154	4577.85
658.276	3177.85
658.398	1098.85
658.52	989.85
658.642	457.85
658.764	597.85
658.886	262.85
659.009	390.85
659.131	227.85
659.253	306.85
659.375	144.85
659.497	237.85
659.619	133.85
659.741	208.85
659.863	96.85
659.985	172.85
660.108	99.85
660.23	123.85
660.352	68.85
660.474	151.85
660.596	76.85
660.718	121.85
660.84	70.85
660.962	113.85
661.084	60.85
661.207	102.85
661.329	54.85
661.451	96.85
661.573	39.85
661.695	107.85
661.817	64.85
661.939	89.85
662.061	71.85
662.184	69.85
662.306	22.85
662.428	71.85
662.55	41.85
662.672	56.85
662.794	39.85
662.916	80.85
663.038	25.85
663.161	80.85
663.283	49.85
663.405	52.85
663.527	27.85
663.649	68.85
663.771	36.85
663.893	59.85
664.015	28.85
664.138	41.85
664.26	23.85
664.382	63.85
664.504	36.85
664.626	44.85
664.748	27.85
664.87	38.85
664.992	37.85
665.115	49.85
665.237	16.85
665.359	33.85
665.481	21.85
665.603	36.85
665.725	12.85
665.847	16.85
665.97	25.85
666.092	47.85
666.214	28.85
666.336	22.85
666.458	15.85
666.58	25.85
666.702	15.85
666.825	17.85
666.947	-5.15
667.069	32.85
667.191	15.85
667.313	48.85
667.435	16.85
667.557	32.85
667.68	11.85
667.802	18.85
667.924	8.85
668.046	37.85
668.168	27.85
668.29	31.85
668.412	17.85
668.535	21.85
668.657	23.85
668.779	24.85
668.901	10.85
669.023	32.85
669.145	17.85
669.267	48.85
669.39	19.85
669.512	27.85
669.634	22.85
669.756	15.85
669.878	15.85
670	22.85
670.123	-6.15
670.245	27.85
670.367	21.85
670.489	23.85
670.611	2.85
670.733	24.85
670.856	23.85
670.978	43.85
671.1	28.85
671.222	23.85
671.344	15.85
671.466	11.85
671.589	-3.15
671.711	9.85
671.833	3.85
671.955	18.85
672.077	-7.15
672.199	43.85
672.322	33.85
672.444	35.85
672.566	28.85
672.688	22.85
672.81	17.85
672.932	30.85
673.055	13.85
673.177	10.85
673.299	16.85
673.421	15.85
673.543	3.85
673.665	19.85
673.788	17.85
673.91	10.85
674.032	-16.15
674.154	-2.15
674.276	10.85
674.399	15.85
674.521	17.85
674.643	38.85
674.765	19.85
674.887	20.85
675.009	3.85
675.132	9.85
675.254	1.85
675.376	32.85
675.498	16.85
675.62	24.85
675.743	9.85
675.865	33.85
675.987	-0.15
676.109	25.85
676.231	18.85
676.354	38.85
676.476	12.85
676.598	29.85
676.72	4.85
676.842	13.85
676.965	20.85
677.087	19.85
677.209	30.85
677.331	22.85
677.453	-0.15
677.576	11.85
677.698	17.85
677.82	21.85
677.942	2.85
678.064	1.85
678.187	8.85
678.309	12.85
678.431	0.85
678.553	19.85
678.675	20.85
678.798	38.85
678.92	13.85
679.042	15.85
679.164	14.85
679.286	33.85
679.409	20.85
679.531	7.85
679.653	7.85
679.775	3.85
679.898	-2.15
680.02	-4.15
680.142	-19.15
680.264	26.85
680.386	-6.15
680.509	18.85
680.631	28.85
680.753	11.85
680.875	-11.15
680.998	11.85
681.12	-15.15
681.242	5.85
681.364	2.85
681.486	0.85
681.609	0.85
681.731	4.85
681.853	8.85
681.975	-8.15
682.098	15.85
682.22	36.85
682.342	2.85
682.464	11.85
682.587	6.85
682.709	0.85
682.831	-5.15
682.953	12.85
683.076	-10.15
683.198	12.85
683.32	14.85
683.442	3.85
683.565	5.85
683.687	5.85
683.809	7.85
683.931	14.85
684.054	20.85
684.176	25.85
684.298	19.85
684.42	1.85
684.543	5.85
684.665	11.85
684.787	-3.15
684.909	15.85
685.032	24.85
685.154	6.85
685.276	19.85
685.398	9.85
685.521	0.85
685.643	29.85
685.765	-5.15
685.887	5.85
686.01	10.85
686.132	14.85
686.254	27.85
686.377	16.85
686.499	1.85
686.621	2.85
686.743	-0.15
686.866	6.85
686.988	14.85
687.11	10.85
687.232	15.85
687.355	-6.15
687.477	7.85
687.599	-0.15
687.722	-12.15
687.844	9.85
687.966	9.85
688.088	24.85
688.211	32.85
688.333	6.85
688.455	8.85
688.578	6.85
688.7	13.85
688.822	22.85
688.944	-13.15
689.067	37.85
689.189	11.85
689.311	-6.15
689.434	-3.15
689.556	7.85
689.678	22.85
689.801	-1.15
689.923	6.85
690.045	29.85
690.167	16.85
690.29	20.85
690.412	6.85
690.534	20.85
690.657	4.85
690.779	9.85
690.901	10.85
691.024	27.85
691.146	9.85
691.268	8.85
691.391	15.85
691.513	11.85
691.635	16.85
691.758	33.85
691.88	19.85
692.002	12.85
692.125	14.85
692.247	3.85
692.369	20.85
692.492	-7.15
692.614	11.85
692.736	14.85
692.859	1.85
692.981	5.85
693.103	2.85
693.226	21.85
693.348	24.85
693.47	-0.15
693.593	-2.15
693.715	-1.15
693.837	-10.15
693.96	-4.15
694.082	-22.15
694.204	16.85
694.327	1.85
694.449	-4.15
694.571	2.85
694.694	20.85
694.816	28.85
694.938	5.85
695.061	7.85
695.183	5.85
695.305	1.85
695.428	7.85
695.55	8.85
695.672	-9.15
695.795	16.85
695.917	21.85
696.04	3.85
696.162	0.85
696.284	4.85
696.407	2.85
696.529	2.85
696.651	32.85
696.774	6.85
696.896	16.85
697.019	6.85
697.141	2.85
697.263	-0.15
697.386	1.85
697.508	18.85
697.63	8.85
697.753	10.85
697.875	5.85
697.998	1.85
698.12	17.85
698.242	22.85
698.365	25.85
698.487	24.85
698.61	22.85
698.732	9.85
698.854	13.85
698.977	2.85
699.099	15.85
699.221	-7.15
699.344	18.85
699.466	11.85
699.589	9.85
699.711	-14.15
699.834	-15.15
699.956	4.85
700.078	1.85
700.201	-0.15
700.323	25.85
700.446	2.85
700.568	-12.15
700.69	3.85
700.813	11.85
700.935	1.85
701.058	5.85
701.18	12.85
701.302	18.85
701.425	-11.15
701.547	16.85
701.67	16.85
701.792	3.85
701.915	13.85
702.037	-4.15
702.159	4.85
702.282	-11.15
702.404	-12.15
702.527	16.85
702.649	33.85
702.772	9.85
702.894	-0.15
703.017	25.85
703.139	7.85
703.261	25.85
703.384	7.85
703.506	-13.15
703.629	-10.15
703.751	12.85
703.874	5.85
703.996	8.85
704.119	-0.15
704.241	9.85
704.364	4.85
704.486	24.85
704.608	13.85
704.731	13.85
704.853	14.85
704.976	7.85
705.098	7.85
705.221	5.85
705.343	-1.15
705.466	3.85
705.588	14.85
705.711	11.85
705.833	1.85
705.956	14.85
706.078	12.85
706.201	16.85
706.323	-3.15
706.446	-2.15
