Data from LowRes_H2_15_26_11_07_2024_HR4C61881__85__15-28-22-136.txt Node

Date: Thu Nov 07 15:28:22 EST 2024
User: crc00042
Spectrometer: HR4C6188
Trigger mode: 4
Integration Time (sec): 1.000000E-1
Scans to average: 1
Electric dark correction enabled: true
Nonlinearity correction enabled: false
Boxcar width: 0
XAxis mode: Wavelengths
Number of Pixels in Spectrum: 3648
>>>>>Begin Spectral Data<<<<<
245.66	-98.08
245.797	-98.08
245.934	-98.08
246.071	-70.08
246.208	1.92
246.344	0.92
246.481	-6.08
246.618	2.92
246.755	7.92
246.892	-2.08
247.029	-4.08
247.165	-18.08
247.302	-7.08
247.439	-4.08
247.576	17.92
247.713	-6.08
247.849	35.92
247.986	-18.08
248.123	-4.08
248.26	-6.08
248.396	1.92
248.533	12.92
248.67	0.92
248.806	-17.08
248.943	-7.08
249.08	-6.08
249.216	1.92
249.353	-13.08
249.49	-13.08
249.626	-21.08
249.763	2.92
249.9	3.92
250.036	-12.08
250.173	-2.08
250.309	13.92
250.446	1.92
250.582	15.92
250.719	-8.08
250.856	-12.08
250.992	-17.08
251.129	-9.08
251.265	-6.08
251.402	-8.08
251.538	-7.08
251.675	-28.08
251.811	1.92
251.948	24.92
252.084	12.92
252.221	11.92
252.357	5.92
252.493	17.92
252.63	16.92
252.766	22.92
252.903	16.92
253.039	-5.08
253.175	3.92
253.312	7.92
253.448	-12.08
253.585	-27.08
253.721	17.92
253.857	-18.08
253.994	5.92
254.13	-10.08
254.266	-4.08
254.403	2.92
254.539	3.92
254.675	9.92
254.811	-12.08
254.948	-0.08
255.084	-8.08
255.22	-22.08
255.356	-0.08
255.493	-2.08
255.629	-2.08
255.765	3.92
255.901	8.92
256.037	2.92
256.174	17.92
256.31	9.92
256.446	-0.08
256.582	-10.08
256.718	13.92
256.854	1.92
256.991	17.92
257.127	23.92
257.263	0.92
257.399	8.92
257.535	-2.08
257.671	-4.08
257.807	-9.08
257.943	-5.08
258.079	-15.08
258.215	-5.08
258.351	19.92
258.487	5.92
258.623	-11.08
258.759	2.92
258.895	15.92
259.031	-7.08
259.167	1.92
259.303	13.92
259.439	-1.08
259.575	1.92
259.711	15.92
259.847	-4.08
259.983	13.92
260.119	-9.08
260.255	-3.08
260.391	8.92
260.527	10.92
260.663	22.92
260.799	-0.08
260.934	-23.08
261.07	-5.08
261.206	-13.08
261.342	-20.08
261.478	-4.08
261.614	11.92
261.749	-2.08
261.885	3.92
262.021	6.92
262.157	0.92
262.293	-2.08
262.428	5.92
262.564	-3.08
262.7	0.92
262.836	14.92
262.971	24.92
263.107	8.92
263.243	25.92
263.378	4.92
263.514	-22.08
263.65	-1.08
263.785	-28.08
263.921	-7.08
264.057	-6.08
264.192	14.92
264.328	22.92
264.464	-11.08
264.599	-0.08
264.735	4.92
264.871	-5.08
265.006	0.92
265.142	-7.08
265.277	4.92
265.413	2.92
265.548	17.92
265.684	4.92
265.819	9.92
265.955	-10.08
266.091	-7.08
266.226	-19.08
266.362	17.92
266.497	25.92
266.633	-10.08
266.768	0.92
266.903	14.92
267.039	-0.08
267.174	6.92
267.31	-2.08
267.445	-8.08
267.581	-8.08
267.716	18.92
267.851	26.92
267.987	19.92
268.122	10.92
268.258	-4.08
268.393	-9.08
268.528	-10.08
268.664	3.92
268.799	-25.08
268.934	3.92
269.07	-13.08
269.205	-22.08
269.34	17.92
269.476	20.92
269.611	-18.08
269.746	12.92
269.881	-4.08
270.017	4.92
270.152	-3.08
270.287	5.92
270.422	21.92
270.558	-16.08
270.693	7.92
270.828	-11.08
270.963	2.92
271.098	-20.08
271.234	-12.08
271.369	11.92
271.504	-2.08
271.639	-5.08
271.774	8.92
271.909	-4.08
272.045	-21.08
272.18	-10.08
272.315	8.92
272.45	7.92
272.585	-5.08
272.72	-2.08
272.855	-0.08
272.99	8.92
273.125	0.92
273.26	-14.08
273.395	-27.08
273.53	-11.08
273.665	26.92
273.8	5.92
273.935	6.92
274.07	7.92
274.205	15.92
274.34	-9.08
274.475	-19.08
274.61	8.92
274.745	2.92
274.88	18.92
275.015	-9.08
275.15	3.92
275.285	-2.08
275.42	4.92
275.555	11.92
275.69	12.92
275.825	-19.08
275.959	17.92
276.094	-6.08
276.229	-16.08
276.364	-10.08
276.499	10.92
276.634	12.92
276.768	14.92
276.903	8.92
277.038	25.92
277.173	22.92
277.308	5.92
277.442	10.92
277.577	-17.08
277.712	-3.08
277.847	-9.08
277.981	6.92
278.116	-7.08
278.251	-4.08
278.386	3.92
278.52	2.92
278.655	-2.08
278.79	8.92
278.924	23.92
279.059	35.92
279.194	-2.08
279.328	11.92
279.463	6.92
279.598	25.92
279.732	4.92
279.867	13.92
280.001	5.92
280.136	6.92
280.271	11.92
280.405	13.92
280.54	-0.08
280.674	-7.08
280.809	16.92
280.943	1.92
281.078	-14.08
281.213	17.92
281.347	15.92
281.482	-12.08
281.616	-10.08
281.751	-6.08
281.885	-17.08
282.02	8.92
282.154	12.92
282.288	-26.08
282.423	-14.08
282.557	-5.08
282.692	-2.08
282.826	1.92
282.961	-10.08
283.095	19.92
283.229	12.92
283.364	-1.08
283.498	-6.08
283.633	14.92
283.767	16.92
283.901	5.92
284.036	0.92
284.17	-0.08
284.304	-4.08
284.439	-4.08
284.573	0.92
284.707	17.92
284.842	-8.08
284.976	-18.08
285.11	-21.08
285.244	-13.08
285.379	26.92
285.513	-19.08
285.647	2.92
285.781	12.92
285.916	23.92
286.05	-15.08
286.184	30.92
286.318	9.92
286.453	-16.08
286.587	-10.08
286.721	-10.08
286.855	7.92
286.989	19.92
287.123	-4.08
287.258	-18.08
287.392	2.92
287.526	-4.08
287.66	5.92
287.794	1.92
287.928	-4.08
288.062	5.92
288.196	-12.08
288.33	-6.08
288.464	18.92
288.598	5.92
288.733	14.92
288.867	27.92
289.001	13.92
289.135	-24.08
289.269	-3.08
289.403	-9.08
289.537	3.92
289.671	14.92
289.805	-19.08
289.939	2.92
290.073	6.92
290.207	7.92
290.34	12.92
290.474	22.92
290.608	11.92
290.742	-1.08
290.876	-3.08
291.01	12.92
291.144	18.92
291.278	12.92
291.412	14.92
291.546	2.92
291.679	-0.08
291.813	-4.08
291.947	6.92
292.081	-16.08
292.215	8.92
292.349	14.92
292.482	3.92
292.616	7.92
292.75	3.92
292.884	13.92
293.018	4.92
293.151	-8.08
293.285	21.92
293.419	-8.08
293.553	-12.08
293.686	-7.08
293.82	-11.08
293.954	16.92
294.088	24.92
294.221	-4.08
294.355	-1.08
294.489	12.92
294.622	-4.08
294.756	5.92
294.89	8.92
295.023	15.92
295.157	12.92
295.291	7.92
295.424	19.92
295.558	-0.08
295.691	-11.08
295.825	-28.08
295.959	7.92
296.092	7.92
296.226	-2.08
296.359	14.92
296.493	23.92
296.627	4.92
296.76	5.92
296.894	8.92
297.027	23.92
297.161	3.92
297.294	-15.08
297.428	-6.08
297.561	26.92
297.695	-9.08
297.828	-3.08
297.962	-5.08
298.095	-4.08
298.229	0.92
298.362	-15.08
298.495	-4.08
298.629	-7.08
298.762	-0.08
298.896	-3.08
299.029	-10.08
299.162	8.92
299.296	-9.08
299.429	-0.08
299.563	-4.08
299.696	8.92
299.829	9.92
299.963	13.92
300.096	2.92
300.229	16.92
300.363	-11.08
300.496	7.92
300.629	-2.08
300.763	-16.08
300.896	0.92
301.029	20.92
301.162	0.92
301.296	-11.08
301.429	-1.08
301.562	-10.08
301.695	17.92
301.829	14.92
301.962	14.92
302.095	1.92
302.228	-19.08
302.362	-4.08
302.495	-7.08
302.628	5.92
302.761	25.92
302.894	10.92
303.027	5.92
303.161	-8.08
303.294	-4.08
303.427	2.92
303.56	-7.08
303.693	-3.08
303.826	-4.08
303.959	4.92
304.092	-1.08
304.225	-26.08
304.359	4.92
304.492	10.92
304.625	-0.08
304.758	20.92
304.891	4.92
305.024	5.92
305.157	-13.08
305.29	-16.08
305.423	-5.08
305.556	4.92
305.689	23.92
305.822	9.92
305.955	3.92
306.088	-5.08
306.221	0.92
306.354	-2.08
306.487	11.92
306.62	-11.08
306.752	10.92
306.885	-14.08
307.018	4.92
307.151	24.92
307.284	14.92
307.417	0.92
307.55	-10.08
307.683	6.92
307.816	43.92
307.948	15.92
308.081	22.92
308.214	14.92
308.347	4.92
308.48	-2.08
308.613	-18.08
308.745	10.92
308.878	-27.08
309.011	-3.08
309.144	20.92
309.277	5.92
309.409	17.92
309.542	6.92
309.675	27.92
309.808	3.92
309.94	16.92
310.073	-1.08
310.206	-15.08
310.339	1.92
310.471	-8.08
310.604	30.92
310.737	-7.08
310.869	7.92
311.002	3.92
311.135	11.92
311.267	-2.08
311.4	-12.08
311.533	21.92
311.665	-12.08
311.798	0.92
311.93	18.92
312.063	15.92
312.196	17.92
312.328	1.92
312.461	-6.08
312.593	21.92
312.726	22.92
312.859	3.92
312.991	20.92
313.124	-27.08
313.256	6.92
313.389	17.92
313.521	3.92
313.654	4.92
313.786	16.92
313.919	5.92
314.051	6.92
314.184	11.92
314.316	0.92
314.449	-27.08
314.581	-1.08
314.714	8.92
314.846	5.92
314.978	-17.08
315.111	-11.08
315.243	8.92
315.376	0.92
315.508	4.92
315.641	9.92
315.773	21.92
315.905	10.92
316.038	-2.08
316.17	-5.08
316.302	-0.08
316.435	-15.08
316.567	0.92
316.699	15.92
316.832	14.92
316.964	5.92
317.096	5.92
317.229	1.92
317.361	-19.08
317.493	-12.08
317.625	-9.08
317.758	20.92
317.89	6.92
318.022	3.92
318.155	-10.08
318.287	-2.08
318.419	-2.08
318.551	-1.08
318.683	-4.08
318.816	-9.08
318.948	-9.08
319.08	-9.08
319.212	-0.08
319.344	9.92
319.477	16.92
319.609	16.92
319.741	27.92
319.873	7.92
320.005	20.92
320.137	2.92
320.269	-2.08
320.401	1.92
320.534	-1.08
320.666	-19.08
320.798	-12.08
320.93	-13.08
321.062	-25.08
321.194	0.92
321.326	-1.08
321.458	-20.08
321.59	13.92
321.722	2.92
321.854	-4.08
321.986	0.92
322.118	0.92
322.25	-21.08
322.382	-1.08
322.514	9.92
322.646	-8.08
322.778	5.92
322.91	-12.08
323.042	12.92
323.174	7.92
323.306	-20.08
323.438	-11.08
323.57	14.92
323.702	9.92
323.834	16.92
323.966	-16.08
324.097	11.92
324.229	4.92
324.361	11.92
324.493	-2.08
324.625	5.92
324.757	12.92
324.889	-0.08
325.021	9.92
325.152	32.92
325.284	10.92
325.416	-2.08
325.548	20.92
325.68	4.92
325.811	13.92
325.943	-2.08
326.075	-10.08
326.207	-5.08
326.339	16.92
326.47	3.92
326.602	22.92
326.734	16.92
326.866	24.92
326.997	3.92
327.129	-15.08
327.261	-21.08
327.392	0.92
327.524	1.92
327.656	0.92
327.787	4.92
327.919	8.92
328.051	9.92
328.182	16.92
328.314	9.92
328.446	-5.08
328.577	5.92
328.709	0.92
328.841	-25.08
328.972	-1.08
329.104	-13.08
329.235	6.92
329.367	3.92
329.499	19.92
329.63	8.92
329.762	-15.08
329.893	6.92
330.025	-3.08
330.156	-11.08
330.288	-9.08
330.419	35.92
330.551	17.92
330.683	8.92
330.814	-18.08
330.946	25.92
331.077	-0.08
331.208	-0.08
331.34	-17.08
331.471	-29.08
331.603	-4.08
331.734	-14.08
331.866	4.92
331.997	19.92
332.129	12.92
332.26	3.92
332.392	16.92
332.523	-2.08
332.654	-7.08
332.786	-11.08
332.917	-0.08
333.048	5.92
333.18	7.92
333.311	-6.08
333.443	4.92
333.574	-0.08
333.705	5.92
333.837	-5.08
333.968	3.92
334.099	15.92
334.231	5.92
334.362	-18.08
334.493	34.92
334.624	9.92
334.756	-2.08
334.887	9.92
335.018	0.92
335.15	3.92
335.281	12.92
335.412	27.92
335.543	11.92
335.675	5.92
335.806	6.92
335.937	-0.08
336.068	8.92
336.199	30.92
336.331	9.92
336.462	-19.08
336.593	11.92
336.724	-2.08
336.855	5.92
336.986	8.92
337.118	16.92
337.249	7.92
337.38	19.92
337.511	-3.08
337.642	5.92
337.773	0.92
337.904	1.92
338.035	7.92
338.166	16.92
338.298	9.92
338.429	3.92
338.56	21.92
338.691	26.92
338.822	16.92
338.953	6.92
339.084	6.92
339.215	-2.08
339.346	10.92
339.477	1.92
339.608	3.92
339.739	-17.08
339.87	-9.08
340.001	1.92
340.132	10.92
340.263	10.92
340.394	-15.08
340.525	-7.08
340.656	11.92
340.787	-13.08
340.918	6.92
341.049	6.92
341.179	3.92
341.31	-7.08
341.441	-15.08
341.572	11.92
341.703	15.92
341.834	-10.08
341.965	-0.08
342.096	13.92
342.227	3.92
342.357	-0.08
342.488	11.92
342.619	7.92
342.75	-3.08
342.881	-25.08
343.012	29.92
343.142	19.92
343.273	-12.08
343.404	-5.08
343.535	29.92
343.666	24.92
343.796	15.92
343.927	37.92
344.058	16.92
344.189	10.92
344.319	22.92
344.45	10.92
344.581	-0.08
344.712	-15.08
344.842	12.92
344.973	-7.08
345.104	4.92
345.234	10.92
345.365	-8.08
345.496	-0.08
345.626	21.92
345.757	20.92
345.888	-12.08
346.018	11.92
346.149	6.92
346.28	13.92
346.41	-3.08
346.541	-0.08
346.672	10.92
346.802	-2.08
346.933	11.92
347.063	-2.08
347.194	9.92
347.325	23.92
347.455	6.92
347.586	-12.08
347.716	4.92
347.847	22.92
347.977	15.92
348.108	19.92
348.238	17.92
348.369	9.92
348.499	15.92
348.63	0.92
348.76	-0.08
348.891	-0.08
349.021	15.92
349.152	4.92
349.282	7.92
349.413	3.92
349.543	15.92
349.674	11.92
349.804	19.92
349.935	1.92
350.065	-16.08
350.196	-19.08
350.326	-12.08
350.456	-6.08
350.587	17.92
350.717	10.92
350.848	-4.08
350.978	1.92
351.108	-9.08
351.239	-1.08
351.369	-3.08
351.499	-9.08
351.63	0.92
351.76	-2.08
351.89	-4.08
352.021	24.92
352.151	-14.08
352.281	10.92
352.412	18.92
352.542	15.92
352.672	11.92
352.803	0.92
352.933	24.92
353.063	16.92
353.193	13.92
353.324	-11.08
353.454	27.92
353.584	21.92
353.714	2.92
353.845	19.92
353.975	0.92
354.105	-1.08
354.235	3.92
354.365	9.92
354.496	2.92
354.626	12.92
354.756	35.92
354.886	10.92
355.016	-4.08
355.146	-4.08
355.277	7.92
355.407	-8.08
355.537	9.92
355.667	11.92
355.797	9.92
355.927	-0.08
356.057	-2.08
356.187	-11.08
356.318	-2.08
356.448	-12.08
356.578	-12.08
356.708	21.92
356.838	1.92
356.968	-1.08
357.098	3.92
357.228	4.92
357.358	-1.08
357.488	-4.08
357.618	41.92
357.748	12.92
357.878	-2.08
358.008	4.92
358.138	-3.08
358.268	-4.08
358.398	3.92
358.528	-12.08
358.658	0.92
358.788	-7.08
358.918	11.92
359.048	6.92
359.178	23.92
359.308	19.92
359.438	30.92
359.568	1.92
359.698	-1.08
359.827	11.92
359.957	-7.08
360.087	14.92
360.217	-11.08
360.347	13.92
360.477	26.92
360.607	-17.08
360.737	12.92
360.866	10.92
360.996	-4.08
361.126	-2.08
361.256	20.92
361.386	1.92
361.516	16.92
361.645	4.92
361.775	23.92
361.905	-19.08
362.035	0.92
362.165	8.92
362.294	27.92
362.424	19.92
362.554	17.92
362.684	2.92
362.813	16.92
362.943	16.92
363.073	-4.08
363.203	10.92
363.332	-4.08
363.462	-11.08
363.592	-6.08
363.721	-3.08
363.851	10.92
363.981	11.92
364.111	1.92
364.24	4.92
364.37	14.92
364.5	21.92
364.629	5.92
364.759	-10.08
364.888	9.92
365.018	11.92
365.148	17.92
365.277	6.92
365.407	18.92
365.537	28.92
365.666	-5.08
365.796	1.92
365.925	8.92
366.055	5.92
366.184	7.92
366.314	9.92
366.444	11.92
366.573	15.92
366.703	-17.08
366.832	7.92
366.962	17.92
367.091	6.92
367.221	14.92
367.35	-1.08
367.48	52.92
367.609	13.92
367.739	23.92
367.868	6.92
367.998	16.92
368.127	17.92
368.257	21.92
368.386	22.92
368.516	4.92
368.645	15.92
368.775	9.92
368.904	17.92
369.033	-4.08
369.163	-14.08
369.292	19.92
369.422	-1.08
369.551	21.92
369.68	11.92
369.81	8.92
369.939	-2.08
370.069	30.92
370.198	4.92
370.327	-2.08
370.457	14.92
370.586	24.92
370.715	10.92
370.845	2.92
370.974	8.92
371.103	12.92
371.233	13.92
371.362	17.92
371.491	2.92
371.621	16.92
371.75	9.92
371.879	-19.08
372.008	10.92
372.138	3.92
372.267	18.92
372.396	8.92
372.525	-2.08
372.655	17.92
372.784	4.92
372.913	9.92
373.042	17.92
373.172	38.92
373.301	-9.08
373.43	-1.08
373.559	-1.08
373.688	3.92
373.818	19.92
373.947	4.92
374.076	14.92
374.205	18.92
374.334	-12.08
374.463	0.92
374.593	6.92
374.722	22.92
374.851	26.92
374.98	5.92
375.109	5.92
375.238	16.92
375.367	42.92
375.496	-0.08
375.625	-19.08
375.755	28.92
375.884	1.92
376.013	11.92
376.142	-2.08
376.271	-12.08
376.4	-0.08
376.529	17.92
376.658	22.92
376.787	-4.08
376.916	13.92
377.045	23.92
377.174	7.92
377.303	6.92
377.432	26.92
377.561	25.92
377.69	1.92
377.819	13.92
377.948	5.92
378.077	-2.08
378.206	2.92
378.335	-4.08
378.464	-6.08
378.593	23.92
378.722	8.92
378.851	19.92
378.98	31.92
379.108	-0.08
379.237	-5.08
379.366	23.92
379.495	22.92
379.624	18.92
379.753	5.92
379.882	8.92
380.011	7.92
380.14	-16.08
380.268	12.92
380.397	-3.08
380.526	26.92
380.655	6.92
380.784	-2.08
380.913	0.92
381.041	-11.08
381.17	-15.08
381.299	9.92
381.428	-2.08
381.557	8.92
381.685	11.92
381.814	-6.08
381.943	-1.08
382.072	-13.08
382.2	-19.08
382.329	2.92
382.458	-10.08
382.587	11.92
382.715	38.92
382.844	9.92
382.973	14.92
383.102	7.92
383.23	-4.08
383.359	-7.08
383.488	2.92
383.616	10.92
383.745	8.92
383.874	12.92
384.003	9.92
384.131	-10.08
384.26	17.92
384.389	15.92
384.517	2.92
384.646	-3.08
384.774	4.92
384.903	47.92
385.032	15.92
385.16	0.92
385.289	8.92
385.418	5.92
385.546	5.92
385.675	8.92
385.803	36.92
385.932	6.92
386.06	-3.08
386.189	10.92
386.318	-0.08
386.446	-10.08
386.575	0.92
386.703	-11.08
386.832	-0.08
386.96	-19.08
387.089	17.92
387.217	12.92
387.346	12.92
387.474	15.92
387.603	14.92
387.731	0.92
387.86	13.92
387.988	7.92
388.117	24.92
388.245	7.92
388.374	-8.08
388.502	13.92
388.631	-2.08
388.759	0.92
388.888	3.92
389.016	-0.08
389.144	11.92
389.273	10.92
389.401	5.92
389.53	-20.08
389.658	18.92
389.786	-21.08
389.915	-2.08
390.043	-23.08
390.172	-7.08
390.3	28.92
390.428	7.92
390.557	-2.08
390.685	1.92
390.813	-8.08
390.942	12.92
391.07	9.92
391.198	7.92
391.327	-2.08
391.455	-13.08
391.583	21.92
391.712	9.92
391.84	5.92
391.968	-17.08
392.096	0.92
392.225	0.92
392.353	11.92
392.481	20.92
392.609	25.92
392.738	15.92
392.866	15.92
392.994	5.92
393.122	37.92
393.251	2.92
393.379	-12.08
393.507	-11.08
393.635	-15.08
393.764	6.92
393.892	14.92
394.02	-10.08
394.148	-4.08
394.276	6.92
394.404	31.92
394.533	6.92
394.661	12.92
394.789	24.92
394.917	47.92
395.045	-2.08
395.173	-13.08
395.302	-6.08
395.43	16.92
395.558	12.92
395.686	18.92
395.814	17.92
395.942	5.92
396.07	13.92
396.198	9.92
396.326	20.92
396.454	35.92
396.582	27.92
396.711	5.92
396.839	13.92
396.967	25.92
397.095	17.92
397.223	21.92
397.351	33.92
397.479	14.92
397.607	0.92
397.735	17.92
397.863	14.92
397.991	23.92
398.119	6.92
398.247	3.92
398.375	4.92
398.503	12.92
398.631	17.92
398.759	7.92
398.887	5.92
399.015	-5.08
399.143	7.92
399.271	20.92
399.399	10.92
399.526	16.92
399.654	5.92
399.782	0.92
399.91	12.92
400.038	20.92
400.166	1.92
400.294	-3.08
400.422	5.92
400.55	16.92
400.678	-2.08
400.805	7.92
400.933	-10.08
401.061	11.92
401.189	7.92
401.317	13.92
401.445	19.92
401.573	12.92
401.7	-10.08
401.828	-2.08
401.956	2.92
402.084	-0.08
402.212	10.92
402.34	3.92
402.467	14.92
402.595	11.92
402.723	11.92
402.851	23.92
402.978	7.92
403.106	18.92
403.234	11.92
403.362	18.92
403.489	13.92
403.617	6.92
403.745	5.92
403.873	2.92
404	12.92
404.128	1.92
404.256	25.92
404.384	26.92
404.511	17.92
404.639	16.92
404.767	8.92
404.894	20.92
405.022	22.92
405.15	-3.08
405.277	-3.08
405.405	10.92
405.533	6.92
405.66	13.92
405.788	-5.08
405.916	-0.08
406.043	3.92
406.171	4.92
406.299	15.92
406.426	24.92
406.554	23.92
406.681	6.92
406.809	19.92
406.937	9.92
407.064	13.92
407.192	11.92
407.319	-1.08
407.447	-8.08
407.574	45.92
407.702	6.92
407.83	-13.08
407.957	-14.08
408.085	-12.08
408.212	6.92
408.34	-4.08
408.467	2.92
408.595	8.92
408.722	27.92
408.85	21.92
408.977	-6.08
409.105	-1.08
409.232	10.92
409.36	-0.08
409.487	8.92
409.615	12.92
409.742	23.92
409.87	22.92
409.997	34.92
410.125	56.92
410.252	47.92
410.379	66.92
410.507	39.92
410.634	5.92
410.762	14.92
410.889	12.92
411.017	9.92
411.144	12.92
411.271	5.92
411.399	18.92
411.526	14.92
411.653	19.92
411.781	16.92
411.908	10.92
412.036	11.92
412.163	19.92
412.29	10.92
412.418	-3.08
412.545	1.92
412.672	-2.08
412.8	23.92
412.927	29.92
413.054	36.92
413.182	4.92
413.309	5.92
413.436	-4.08
413.564	-8.08
413.691	11.92
413.818	19.92
413.945	-19.08
414.073	1.92
414.2	-7.08
414.327	-0.08
414.454	8.92
414.582	15.92
414.709	-17.08
414.836	3.92
414.963	10.92
415.091	10.92
415.218	-2.08
415.345	5.92
415.472	16.92
415.6	-6.08
415.727	17.92
415.854	0.92
415.981	2.92
416.108	12.92
416.236	5.92
416.363	11.92
416.49	0.92
416.617	21.92
416.744	15.92
416.871	15.92
416.998	5.92
417.126	-6.08
417.253	5.92
417.38	9.92
417.507	-4.08
417.634	6.92
417.761	19.92
417.888	21.92
418.015	-5.08
418.143	5.92
418.27	19.92
418.397	13.92
418.524	30.92
418.651	15.92
418.778	8.92
418.905	25.92
419.032	17.92
419.159	4.92
419.286	27.92
419.413	22.92
419.54	26.92
419.667	0.92
419.794	3.92
419.921	10.92
420.048	9.92
420.175	0.92
420.302	17.92
420.429	5.92
420.556	3.92
420.683	-8.08
420.81	-6.08
420.937	9.92
421.064	12.92
421.191	3.92
421.318	9.92
421.445	19.92
421.572	-11.08
421.699	20.92
421.826	4.92
421.953	-0.08
422.08	0.92
422.207	-2.08
422.334	7.92
422.461	17.92
422.588	-0.08
422.714	21.92
422.841	31.92
422.968	18.92
423.095	23.92
423.222	-23.08
423.349	5.92
423.476	1.92
423.603	-11.08
423.729	-3.08
423.856	9.92
423.983	29.92
424.11	-1.08
424.237	6.92
424.364	15.92
424.491	21.92
424.617	-10.08
424.744	-19.08
424.871	7.92
424.998	7.92
425.125	-20.08
425.251	4.92
425.378	-4.08
425.505	15.92
425.632	14.92
425.758	-3.08
425.885	4.92
426.012	28.92
426.139	40.92
426.266	4.92
426.392	15.92
426.519	14.92
426.646	12.92
426.772	17.92
426.899	-0.08
427.026	15.92
427.153	24.92
427.279	13.92
427.406	12.92
427.533	-6.08
427.659	4.92
427.786	23.92
427.913	27.92
428.039	10.92
428.166	10.92
428.293	14.92
428.419	38.92
428.546	11.92
428.673	13.92
428.799	-10.08
428.926	-1.08
429.053	25.92
429.179	11.92
429.306	3.92
429.433	33.92
429.559	14.92
429.686	8.92
429.812	-8.08
429.939	17.92
430.066	21.92
430.192	13.92
430.319	5.92
430.445	-1.08
430.572	9.92
430.699	9.92
430.825	-0.08
430.952	19.92
431.078	19.92
431.205	8.92
431.331	-6.08
431.458	24.92
431.584	9.92
431.711	-6.08
431.837	-11.08
431.964	9.92
432.09	5.92
432.217	9.92
432.343	-0.08
432.47	26.92
432.596	4.92
432.723	-6.08
432.849	-8.08
432.976	6.92
433.102	5.92
433.229	9.92
433.355	20.92
433.482	62.92
433.608	157.92
433.735	150.92
433.861	140.92
433.987	132.92
434.114	238.92
434.24	192.92
434.367	51.92
434.493	26.92
434.62	19.92
434.746	25.92
434.872	5.92
434.999	8.92
435.125	21.92
435.252	3.92
435.378	6.92
435.504	-7.08
435.631	11.92
435.757	-0.08
435.883	-3.08
436.01	9.92
436.136	-3.08
436.262	4.92
436.389	11.92
436.515	12.92
436.641	6.92
436.768	12.92
436.894	12.92
437.02	17.92
437.147	31.92
437.273	8.92
437.399	-9.08
437.526	21.92
437.652	12.92
437.778	17.92
437.904	16.92
438.031	-8.08
438.157	11.92
438.283	8.92
438.409	-19.08
438.536	1.92
438.662	24.92
438.788	7.92
438.914	11.92
439.041	24.92
439.167	44.92
439.293	-9.08
439.419	23.92
439.546	13.92
439.672	14.92
439.798	7.92
439.924	23.92
440.05	21.92
440.177	24.92
440.303	-2.08
440.429	-2.08
440.555	5.92
440.681	8.92
440.807	21.92
440.934	-0.08
441.06	2.92
441.186	6.92
441.312	13.92
441.438	17.92
441.564	31.92
441.69	21.92
441.816	16.92
441.943	4.92
442.069	12.92
442.195	12.92
442.321	3.92
442.447	5.92
442.573	4.92
442.699	-10.08
442.825	-8.08
442.951	16.92
443.077	4.92
443.203	10.92
443.33	-6.08
443.456	-6.08
443.582	-7.08
443.708	7.92
443.834	17.92
443.96	11.92
444.086	9.92
444.212	48.92
444.338	15.92
444.464	28.92
444.59	5.92
444.716	-1.08
444.842	16.92
444.968	-7.08
445.094	2.92
445.22	5.92
445.346	-5.08
445.472	5.92
445.598	10.92
445.724	3.92
445.85	-2.08
445.976	4.92
446.102	21.92
446.228	21.92
446.354	2.92
446.48	9.92
446.605	16.92
446.731	25.92
446.857	-4.08
446.983	17.92
447.109	24.92
447.235	14.92
447.361	-11.08
447.487	17.92
447.613	6.92
447.739	1.92
447.865	6.92
447.99	7.92
448.116	6.92
448.242	13.92
448.368	7.92
448.494	-8.08
448.62	10.92
448.746	-0.08
448.872	14.92
448.997	-8.08
449.123	9.92
449.249	37.92
449.375	33.92
449.501	-0.08
449.627	12.92
449.752	26.92
449.878	-8.08
450.004	-5.08
450.13	25.92
450.256	12.92
450.381	2.92
450.507	2.92
450.633	6.92
450.759	30.92
450.884	4.92
451.01	21.92
451.136	4.92
451.262	11.92
451.388	21.92
451.513	-14.08
451.639	10.92
451.765	12.92
451.89	24.92
452.016	3.92
452.142	-6.08
452.268	1.92
452.393	19.92
452.519	-4.08
452.645	12.92
452.771	9.92
452.896	9.92
453.022	0.92
453.148	22.92
453.273	1.92
453.399	7.92
453.525	-15.08
453.65	0.92
453.776	22.92
453.902	20.92
454.027	18.92
454.153	23.92
454.279	11.92
454.404	7.92
454.53	12.92
454.656	36.92
454.781	32.92
454.907	4.92
455.032	-7.08
455.158	22.92
455.284	21.92
455.409	16.92
455.535	9.92
455.66	11.92
455.786	12.92
455.912	14.92
456.037	-7.08
456.163	4.92
456.288	12.92
456.414	-11.08
456.539	-12.08
456.665	9.92
456.791	13.92
456.916	0.92
457.042	7.92
457.167	10.92
457.293	18.92
457.418	4.92
457.544	8.92
457.669	12.92
457.795	5.92
457.92	17.92
458.046	9.92
458.171	7.92
458.297	11.92
458.422	-1.08
458.548	-6.08
458.673	14.92
458.799	14.92
458.924	-7.08
459.05	10.92
459.175	11.92
459.301	5.92
459.426	21.92
459.552	5.92
459.677	-2.08
459.803	17.92
459.928	26.92
460.053	11.92
460.179	12.92
460.304	33.92
460.43	-3.08
460.555	16.92
460.681	7.92
460.806	0.92
460.931	19.92
461.057	7.92
461.182	6.92
461.308	25.92
461.433	9.92
461.558	-1.08
461.684	28.92
461.809	36.92
461.934	-2.08
462.06	19.92
462.185	-4.08
462.311	11.92
462.436	3.92
462.561	10.92
462.687	8.92
462.812	15.92
462.937	16.92
463.063	15.92
463.188	4.92
463.313	22.92
463.439	0.92
463.564	8.92
463.689	15.92
463.814	24.92
463.94	2.92
464.065	18.92
464.19	14.92
464.316	-1.08
464.441	-4.08
464.566	-4.08
464.692	11.92
464.817	5.92
464.942	1.92
465.067	1.92
465.193	-23.08
465.318	5.92
465.443	15.92
465.568	17.92
465.694	-2.08
465.819	30.92
465.944	20.92
466.069	8.92
466.194	13.92
466.32	26.92
466.445	-0.08
466.57	2.92
466.695	-3.08
466.82	17.92
466.946	1.92
467.071	22.92
467.196	1.92
467.321	27.92
467.446	1.92
467.572	8.92
467.697	-0.08
467.822	19.92
467.947	23.92
468.072	-4.08
468.197	14.92
468.323	3.92
468.448	0.92
468.573	-0.08
468.698	0.92
468.823	13.92
468.948	13.92
469.073	16.92
469.198	30.92
469.324	38.92
469.449	1.92
469.574	20.92
469.699	22.92
469.824	20.92
469.949	17.92
470.074	27.92
470.199	43.92
470.324	30.92
470.449	23.92
470.574	13.92
470.7	2.92
470.825	21.92
470.95	53.92
471.075	1.92
471.2	13.92
471.325	35.92
471.45	-6.08
471.575	3.92
471.7	24.92
471.825	2.92
471.95	4.92
472.075	-15.08
472.2	26.92
472.325	15.92
472.45	4.92
472.575	26.92
472.7	2.92
472.825	6.92
472.95	3.92
473.075	9.92
473.2	11.92
473.325	8.92
473.45	21.92
473.575	18.92
473.7	0.92
473.825	1.92
473.95	27.92
474.075	28.92
474.2	-9.08
474.325	11.92
474.45	28.92
474.574	23.92
474.699	34.92
474.824	24.92
474.949	0.92
475.074	-15.08
475.199	20.92
475.324	20.92
475.449	6.92
475.574	19.92
475.699	12.92
475.824	9.92
475.949	11.92
476.073	13.92
476.198	-2.08
476.323	12.92
476.448	4.92
476.573	13.92
476.698	26.92
476.823	28.92
476.947	8.92
477.072	13.92
477.197	6.92
477.322	8.92
477.447	25.92
477.572	28.92
477.697	9.92
477.821	25.92
477.946	14.92
478.071	15.92
478.196	14.92
478.321	11.92
478.445	11.92
478.57	24.92
478.695	14.92
478.82	24.92
478.945	6.92
479.069	-2.08
479.194	1.92
479.319	23.92
479.444	17.92
479.569	3.92
479.693	5.92
479.818	9.92
479.943	30.92
480.068	6.92
480.192	14.92
480.317	22.92
480.442	9.92
480.567	0.92
480.691	12.92
480.816	19.92
480.941	-17.08
481.066	8.92
481.19	15.92
481.315	38.92
481.44	12.92
481.564	-0.08
481.689	35.92
481.814	20.92
481.938	15.92
482.063	15.92
482.188	22.92
482.313	11.92
482.437	13.92
482.562	27.92
482.687	26.92
482.811	21.92
482.936	16.92
483.061	39.92
483.185	21.92
483.31	48.92
483.435	7.92
483.559	8.92
483.684	19.92
483.808	19.92
483.933	21.92
484.058	17.92
484.182	11.92
484.307	30.92
484.432	23.92
484.556	16.92
484.681	19.92
484.805	14.92
484.93	26.92
485.055	43.92
485.179	75.92
485.304	116.92
485.428	368.92
485.553	1286.92
485.678	1807.92
485.802	1698.92
485.927	1892.92
486.051	2737.92
486.176	1673.92
486.3	479.92
486.425	147.92
486.549	90.92
486.674	82.92
486.799	41.92
486.923	14.92
487.048	25.92
487.172	25.92
487.297	25.92
487.421	36.92
487.546	16.92
487.67	35.92
487.795	6.92
487.919	7.92
488.044	14.92
488.168	10.92
488.293	10.92
488.417	5.92
488.542	20.92
488.666	41.92
488.791	27.92
488.915	21.92
489.04	17.92
489.164	41.92
489.289	51.92
489.413	3.92
489.538	34.92
489.662	31.92
489.786	10.92
489.911	13.92
490.035	31.92
490.16	15.92
490.284	9.92
490.409	-0.08
490.533	17.92
490.658	19.92
490.782	19.92
490.906	24.92
491.031	41.92
491.155	18.92
491.28	21.92
491.404	17.92
491.528	25.92
491.653	17.92
491.777	27.92
491.902	14.92
492.026	20.92
492.15	7.92
492.275	9.92
492.399	22.92
492.524	10.92
492.648	26.92
492.772	14.92
492.897	21.92
493.021	9.92
493.145	30.92
493.27	26.92
493.394	12.92
493.518	6.92
493.643	-0.08
493.767	30.92
493.891	24.92
494.016	10.92
494.14	19.92
494.264	20.92
494.389	22.92
494.513	-14.08
494.637	0.92
494.762	16.92
494.886	11.92
495.01	21.92
495.134	39.92
495.259	17.92
495.383	6.92
495.507	10.92
495.632	17.92
495.756	53.92
495.88	41.92
496.004	16.92
496.129	7.92
496.253	33.92
496.377	24.92
496.501	27.92
496.626	-4.08
496.75	25.92
496.874	14.92
496.998	0.92
497.123	25.92
497.247	13.92
497.371	-0.08
497.495	18.92
497.62	-15.08
497.744	9.92
497.868	18.92
497.992	8.92
498.116	-8.08
498.241	12.92
498.365	-5.08
498.489	2.92
498.613	9.92
498.737	11.92
498.862	-0.08
498.986	-3.08
499.11	7.92
499.234	5.92
499.358	6.92
499.482	8.92
499.607	-0.08
499.731	15.92
499.855	10.92
499.979	15.92
500.103	19.92
500.227	19.92
500.351	15.92
500.476	5.92
500.6	20.92
500.724	22.92
500.848	0.92
500.972	23.92
501.096	1.92
501.22	15.92
501.344	4.92
501.469	-8.08
501.593	17.92
501.717	22.92
501.841	17.92
501.965	15.92
502.089	13.92
502.213	21.92
502.337	23.92
502.461	9.92
502.585	11.92
502.709	11.92
502.834	23.92
502.958	2.92
503.082	-7.08
503.206	16.92
503.33	14.92
503.454	26.92
503.578	-0.08
503.702	-0.08
503.826	16.92
503.95	34.92
504.074	27.92
504.198	16.92
504.322	-8.08
504.446	5.92
504.57	15.92
504.694	26.92
504.818	24.92
504.942	44.92
505.066	30.92
505.19	17.92
505.314	13.92
505.438	19.92
505.562	10.92
505.686	13.92
505.81	29.92
505.934	24.92
506.058	13.92
506.182	26.92
506.306	7.92
506.43	1.92
506.554	6.92
506.678	5.92
506.802	11.92
506.926	32.92
507.05	27.92
507.174	15.92
507.298	20.92
507.422	-4.08
507.546	9.92
507.67	19.92
507.794	1.92
507.918	13.92
508.042	11.92
508.165	-4.08
508.289	-0.08
508.413	10.92
508.537	11.92
508.661	23.92
508.785	16.92
508.909	21.92
509.033	-0.08
509.157	-4.08
509.281	14.92
509.405	-0.08
509.528	33.92
509.652	18.92
509.776	3.92
509.9	24.92
510.024	11.92
510.148	21.92
510.272	12.92
510.396	19.92
510.519	-4.08
510.643	11.92
510.767	-6.08
510.891	-2.08
511.015	20.92
511.139	20.92
511.263	24.92
511.386	6.92
511.51	3.92
511.634	22.92
511.758	20.92
511.882	1.92
512.006	18.92
512.129	23.92
512.253	46.92
512.377	12.92
512.501	7.92
512.625	3.92
512.748	9.92
512.872	2.92
512.996	2.92
513.12	27.92
513.244	9.92
513.367	11.92
513.491	-1.08
513.615	9.92
513.739	-6.08
513.862	-8.08
513.986	15.92
514.11	23.92
514.234	19.92
514.358	21.92
514.481	8.92
514.605	16.92
514.729	17.92
514.853	28.92
514.976	26.92
515.1	21.92
515.224	9.92
515.348	24.92
515.471	-0.08
515.595	15.92
515.719	11.92
515.842	17.92
515.966	1.92
516.09	36.92
516.214	9.92
516.337	24.92
516.461	21.92
516.585	17.92
516.708	21.92
516.832	22.92
516.956	29.92
517.08	21.92
517.203	10.92
517.327	8.92
517.451	22.92
517.574	34.92
517.698	6.92
517.822	27.92
517.945	33.92
518.069	36.92
518.193	65.92
518.316	49.92
518.44	38.92
518.564	28.92
518.687	20.92
518.811	32.92
518.935	64.92
519.058	45.92
519.182	19.92
519.306	43.92
519.429	18.92
519.553	63.92
519.676	28.92
519.8	21.92
519.924	11.92
520.047	24.92
520.171	-1.08
520.294	12.92
520.418	19.92
520.542	13.92
520.665	20.92
520.789	14.92
520.913	13.92
521.036	-6.08
521.16	-4.08
521.283	16.92
521.407	8.92
521.53	17.92
521.654	9.92
521.778	15.92
521.901	11.92
522.025	12.92
522.148	-3.08
522.272	26.92
522.395	21.92
522.519	20.92
522.643	0.92
522.766	4.92
522.89	-11.08
523.013	10.92
523.137	4.92
523.26	0.92
523.384	10.92
523.507	8.92
523.631	16.92
523.754	-1.08
523.878	-4.08
524.002	8.92
524.125	15.92
524.249	-0.08
524.372	19.92
524.496	27.92
524.619	7.92
524.743	13.92
524.866	1.92
524.99	14.92
525.113	4.92
525.237	17.92
525.36	21.92
525.484	13.92
525.607	8.92
525.731	-3.08
525.854	23.92
525.978	26.92
526.101	-8.08
526.224	1.92
526.348	16.92
526.471	12.92
526.595	17.92
526.718	13.92
526.842	9.92
526.965	10.92
527.089	7.92
527.212	13.92
527.336	2.92
527.459	11.92
527.582	9.92
527.706	26.92
527.829	14.92
527.953	20.92
528.076	-14.08
528.2	7.92
528.323	16.92
528.446	32.92
528.57	19.92
528.693	16.92
528.817	12.92
528.94	15.92
529.064	16.92
529.187	5.92
529.31	2.92
529.434	-0.08
529.557	0.92
529.68	4.92
529.804	16.92
529.927	14.92
530.051	1.92
530.174	3.92
530.297	13.92
530.421	29.92
530.544	35.92
530.668	13.92
530.791	-4.08
530.914	24.92
531.038	4.92
531.161	10.92
531.284	4.92
531.408	15.92
531.531	0.92
531.654	6.92
531.778	3.92
531.901	-4.08
532.024	5.92
532.148	-5.08
532.271	3.92
532.394	18.92
532.518	40.92
532.641	14.92
532.764	19.92
532.888	11.92
533.011	8.92
533.134	-1.08
533.258	32.92
533.381	-8.08
533.504	8.92
533.628	-0.08
533.751	24.92
533.874	17.92
533.997	16.92
534.121	4.92
534.244	33.92
534.367	10.92
534.491	16.92
534.614	28.92
534.737	25.92
534.86	21.92
534.984	11.92
535.107	13.92
535.23	2.92
535.354	18.92
535.477	6.92
535.6	17.92
535.723	1.92
535.847	20.92
535.97	15.92
536.093	2.92
536.216	-0.08
536.34	11.92
536.463	2.92
536.586	2.92
536.709	16.92
536.833	17.92
536.956	13.92
537.079	9.92
537.202	22.92
537.325	3.92
537.449	-18.08
537.572	5.92
537.695	-13.08
537.818	3.92
537.941	1.92
538.065	9.92
538.188	6.92
538.311	25.92
538.434	13.92
538.558	19.92
538.681	20.92
538.804	31.92
538.927	12.92
539.05	26.92
539.173	10.92
539.297	11.92
539.42	17.92
539.543	14.92
539.666	29.92
539.789	12.92
539.913	13.92
540.036	28.92
540.159	28.92
540.282	12.92
540.405	3.92
540.528	23.92
540.651	25.92
540.775	-4.08
540.898	11.92
541.021	-0.08
541.144	9.92
541.267	16.92
541.39	5.92
541.513	1.92
541.637	-2.08
541.76	-0.08
541.883	9.92
542.006	11.92
542.129	21.92
542.252	7.92
542.375	12.92
542.498	1.92
542.622	25.92
542.745	0.92
542.868	-2.08
542.991	15.92
543.114	26.92
543.237	42.92
543.36	23.92
543.483	12.92
543.606	34.92
543.73	31.92
543.853	11.92
543.976	3.92
544.099	10.92
544.222	19.92
544.345	3.92
544.468	11.92
544.591	15.92
544.714	14.92
544.837	22.92
544.96	12.92
545.083	18.92
545.206	10.92
545.329	25.92
545.453	3.92
545.576	1.92
545.699	-1.08
545.822	14.92
545.945	8.92
546.068	6.92
546.191	15.92
546.314	-13.08
546.437	8.92
546.56	6.92
546.683	23.92
546.806	24.92
546.929	8.92
547.052	-4.08
547.175	-2.08
547.298	18.92
547.421	-6.08
547.544	-10.08
547.667	11.92
547.79	8.92
547.913	-8.08
548.036	-22.08
548.159	7.92
548.282	6.92
548.405	9.92
548.528	15.92
548.651	-1.08
548.774	3.92
548.897	25.92
549.02	10.92
549.143	42.92
549.266	12.92
549.389	18.92
549.512	-15.08
549.635	21.92
549.758	21.92
549.881	0.92
550.004	1.92
550.127	6.92
550.25	9.92
550.373	4.92
550.496	16.92
550.619	12.92
550.742	-3.08
550.865	-2.08
550.988	12.92
551.111	16.92
551.234	12.92
551.356	-2.08
551.479	-0.08
551.602	9.92
551.725	0.92
551.848	18.92
551.971	35.92
552.094	26.92
552.217	-7.08
552.34	-4.08
552.463	1.92
552.586	10.92
552.709	3.92
552.832	9.92
552.955	16.92
553.077	30.92
553.2	7.92
553.323	0.92
553.446	3.92
553.569	6.92
553.692	16.92
553.815	11.92
553.938	18.92
554.061	31.92
554.184	16.92
554.306	25.92
554.429	16.92
554.552	19.92
554.675	2.92
554.798	-1.08
554.921	17.92
555.044	11.92
555.167	-7.08
555.29	-3.08
555.412	3.92
555.535	4.92
555.658	-9.08
555.781	12.92
555.904	1.92
556.027	15.92
556.15	12.92
556.272	0.92
556.395	11.92
556.518	-8.08
556.641	-0.08
556.764	12.92
556.887	14.92
557.01	12.92
557.132	-16.08
557.255	14.92
557.378	12.92
557.501	6.92
557.624	10.92
557.747	8.92
557.869	5.92
557.992	24.92
558.115	20.92
558.238	17.92
558.361	31.92
558.483	30.92
558.606	-7.08
558.729	-5.08
558.852	16.92
558.975	27.92
559.098	35.92
559.22	18.92
559.343	5.92
559.466	24.92
559.589	19.92
559.712	24.92
559.834	2.92
559.957	10.92
560.08	16.92
560.203	6.92
560.325	21.92
560.448	27.92
560.571	9.92
560.694	11.92
560.817	26.92
560.939	28.92
561.062	19.92
561.185	16.92
561.308	-7.08
561.43	3.92
561.553	4.92
561.676	3.92
561.799	21.92
561.921	-2.08
562.044	2.92
562.167	3.92
562.29	32.92
562.413	12.92
562.535	32.92
562.658	-13.08
562.781	-4.08
562.903	0.92
563.026	2.92
563.149	47.92
563.272	12.92
563.394	18.92
563.517	17.92
563.64	14.92
563.763	10.92
563.885	10.92
564.008	13.92
564.131	12.92
564.254	-17.08
564.376	25.92
564.499	-10.08
564.622	12.92
564.744	21.92
564.867	12.92
564.99	10.92
565.113	13.92
565.235	7.92
565.358	0.92
565.481	-24.08
565.603	-5.08
565.726	0.92
565.849	31.92
565.971	19.92
566.094	-0.08
566.217	14.92
566.34	1.92
566.462	9.92
566.585	0.92
566.708	23.92
566.83	18.92
566.953	32.92
567.076	9.92
567.198	10.92
567.321	10.92
567.444	10.92
567.566	7.92
567.689	-0.08
567.812	1.92
567.934	17.92
568.057	14.92
568.18	15.92
568.302	15.92
568.425	1.92
568.548	3.92
568.67	12.92
568.793	-1.08
568.916	1.92
569.038	13.92
569.161	4.92
569.283	16.92
569.406	-3.08
569.529	0.92
569.651	5.92
569.774	14.92
569.897	-7.08
570.019	29.92
570.142	16.92
570.265	1.92
570.387	0.92
570.51	6.92
570.632	12.92
570.755	11.92
570.878	-4.08
571	20.92
571.123	5.92
571.246	23.92
571.368	-0.08
571.491	0.92
571.613	-12.08
571.736	0.92
571.859	2.92
571.981	23.92
572.104	7.92
572.226	26.92
572.349	7.92
572.472	9.92
572.594	10.92
572.717	11.92
572.839	23.92
572.962	12.92
573.085	9.92
573.207	23.92
573.33	17.92
573.452	28.92
573.575	14.92
573.697	14.92
573.82	15.92
573.943	0.92
574.065	20.92
574.188	14.92
574.31	22.92
574.433	23.92
574.555	19.92
574.678	13.92
574.801	11.92
574.923	-2.08
575.046	11.92
575.168	17.92
575.291	-10.08
575.413	22.92
575.536	18.92
575.659	21.92
575.781	25.92
575.904	13.92
576.026	19.92
576.149	5.92
576.271	10.92
576.394	9.92
576.516	5.92
576.639	6.92
576.761	3.92
576.884	-5.08
577.007	3.92
577.129	19.92
577.252	13.92
577.374	27.92
577.497	26.92
577.619	11.92
577.742	-8.08
577.864	24.92
577.987	19.92
578.109	20.92
578.232	19.92
578.354	21.92
578.477	2.92
578.599	0.92
578.722	13.92
578.844	-2.08
578.967	11.92
579.089	10.92
579.212	5.92
579.334	12.92
579.457	-13.08
579.579	-7.08
579.702	-6.08
579.824	6.92
579.947	-14.08
580.069	3.92
580.192	-2.08
580.314	27.92
580.437	9.92
580.559	41.92
580.682	4.92
580.804	24.92
580.927	31.92
581.049	41.92
581.172	12.92
581.294	9.92
581.417	34.92
581.539	25.92
581.662	8.92
581.784	13.92
581.907	21.92
582.029	4.92
582.152	-14.08
582.274	15.92
582.396	9.92
582.519	26.92
582.641	-11.08
582.764	-2.08
582.886	24.92
583.009	0.92
583.131	3.92
583.254	11.92
583.376	28.92
583.499	17.92
583.621	10.92
583.743	19.92
583.866	14.92
583.988	8.92
584.111	33.92
584.233	18.92
584.356	9.92
584.478	2.92
584.601	2.92
584.723	27.92
584.845	10.92
584.968	5.92
585.09	-5.08
585.213	28.92
585.335	3.92
585.458	17.92
585.58	9.92
585.702	24.92
585.825	30.92
585.947	16.92
586.07	-9.08
586.192	2.92
586.315	15.92
586.437	3.92
586.559	-6.08
586.682	0.92
586.804	23.92
586.927	18.92
587.049	15.92
587.171	16.92
587.294	24.92
587.416	36.92
587.539	14.92
587.661	-7.08
587.783	9.92
587.906	2.92
588.028	7.92
588.151	16.92
588.273	19.92
588.395	11.92
588.518	12.92
588.64	7.92
588.763	19.92
588.885	-0.08
589.007	19.92
589.13	1.92
589.252	3.92
589.375	14.92
589.497	-4.08
589.619	0.92
589.742	6.92
589.864	5.92
589.986	15.92
590.109	8.92
590.231	-0.08
590.354	8.92
590.476	7.92
590.598	2.92
590.721	3.92
590.843	16.92
590.965	3.92
591.088	10.92
591.21	13.92
591.332	27.92
591.455	3.92
591.577	13.92
591.7	10.92
591.822	5.92
591.944	4.92
592.067	-0.08
592.189	3.92
592.311	16.92
592.434	-3.08
592.556	9.92
592.678	23.92
592.801	5.92
592.923	-2.08
593.045	9.92
593.168	3.92
593.29	7.92
593.412	18.92
593.535	13.92
593.657	12.92
593.779	8.92
593.902	13.92
594.024	24.92
594.146	20.92
594.269	17.92
594.391	-5.08
594.513	15.92
594.636	0.92
594.758	0.92
594.88	8.92
595.003	5.92
595.125	13.92
595.247	31.92
595.37	14.92
595.492	7.92
595.614	32.92
595.737	18.92
595.859	7.92
595.981	36.92
596.104	5.92
596.226	3.92
596.348	9.92
596.471	0.92
596.593	18.92
596.715	0.92
596.838	6.92
596.96	-6.08
597.082	21.92
597.204	15.92
597.327	27.92
597.449	3.92
597.571	13.92
597.694	22.92
597.816	11.92
597.938	15.92
598.061	8.92
598.183	-10.08
598.305	12.92
598.427	6.92
598.55	23.92
598.672	19.92
598.794	27.92
598.917	8.92
599.039	9.92
599.161	16.92
599.283	17.92
599.406	11.92
599.528	3.92
599.65	33.92
599.773	11.92
599.895	35.92
600.017	9.92
600.139	2.92
600.262	-4.08
600.384	28.92
600.506	11.92
600.628	1.92
600.751	0.92
600.873	7.92
600.995	-6.08
601.118	29.92
601.24	15.92
601.362	15.92
601.484	7.92
601.607	17.92
601.729	12.92
601.851	19.92
601.973	17.92
602.096	12.92
602.218	19.92
602.34	13.92
602.462	24.92
602.585	11.92
602.707	-1.08
602.829	14.92
602.951	26.92
603.074	-7.08
603.196	11.92
603.318	0.92
603.44	27.92
603.563	5.92
603.685	-7.08
603.807	0.92
603.929	13.92
604.052	19.92
604.174	18.92
604.296	21.92
604.418	0.92
604.541	21.92
604.663	-10.08
604.785	0.92
604.907	23.92
605.03	12.92
605.152	43.92
605.274	21.92
605.396	17.92
605.519	18.92
605.641	22.92
605.763	9.92
605.885	9.92
606.008	23.92
606.13	15.92
606.252	23.92
606.374	-6.08
606.496	-2.08
606.619	7.92
606.741	2.92
606.863	40.92
606.985	41.92
607.108	16.92
607.23	19.92
607.352	9.92
607.474	22.92
607.596	-0.08
607.719	5.92
607.841	16.92
607.963	8.92
608.085	3.92
608.207	35.92
608.33	16.92
608.452	3.92
608.574	-0.08
608.696	29.92
608.819	27.92
608.941	7.92
609.063	8.92
609.185	26.92
609.307	20.92
609.43	17.92
609.552	8.92
609.674	3.92
609.796	18.92
609.918	35.92
610.041	18.92
610.163	30.92
610.285	21.92
610.407	10.92
610.529	-4.08
610.652	-7.08
610.774	18.92
610.896	18.92
611.018	10.92
611.14	22.92
611.263	9.92
611.385	4.92
611.507	17.92
611.629	-4.08
611.751	3.92
611.873	29.92
611.996	5.92
612.118	34.92
612.24	8.92
612.362	22.92
612.484	12.92
612.607	33.92
612.729	27.92
612.851	15.92
612.973	8.92
613.095	-3.08
613.218	8.92
613.34	44.92
613.462	22.92
613.584	6.92
613.706	7.92
613.828	12.92
613.951	12.92
614.073	-9.08
614.195	-1.08
614.317	30.92
614.439	22.92
614.561	4.92
614.684	21.92
614.806	22.92
614.928	21.92
615.05	19.92
615.172	15.92
615.294	24.92
615.417	17.92
615.539	2.92
615.661	5.92
615.783	32.92
615.905	28.92
616.027	73.92
616.15	99.92
616.272	80.92
616.394	30.92
616.516	40.92
616.638	25.92
616.76	11.92
616.883	-4.08
617.005	-1.08
617.127	-7.08
617.249	10.92
617.371	-6.08
617.493	-5.08
617.615	22.92
617.738	31.92
617.86	17.92
617.982	0.92
618.104	-7.08
618.226	-6.08
618.348	-8.08
618.471	17.92
618.593	12.92
618.715	-1.08
618.837	9.92
618.959	6.92
619.081	18.92
619.203	4.92
619.326	3.92
619.448	14.92
619.57	15.92
619.692	9.92
619.814	14.92
619.936	31.92
620.058	1.92
620.181	16.92
620.303	3.92
620.425	14.92
620.547	-8.08
620.669	16.92
620.791	15.92
620.913	8.92
621.036	4.92
621.158	10.92
621.28	19.92
621.402	-24.08
621.524	1.92
621.646	15.92
621.768	1.92
621.891	-4.08
622.013	23.92
622.135	7.92
622.257	-2.08
622.379	-2.08
622.501	-3.08
622.623	15.92
622.745	4.92
622.868	-0.08
622.99	9.92
623.112	5.92
623.234	2.92
623.356	14.92
623.478	5.92
623.6	18.92
623.722	-0.08
623.845	10.92
623.967	-12.08
624.089	-2.08
624.211	4.92
624.333	11.92
624.455	15.92
624.577	11.92
624.699	28.92
624.822	22.92
624.944	-10.08
625.066	13.92
625.188	8.92
625.31	13.92
625.432	22.92
625.554	-11.08
625.676	23.92
625.799	19.92
625.921	15.92
626.043	14.92
626.165	19.92
626.287	-7.08
626.409	12.92
626.531	-0.08
626.653	12.92
626.775	18.92
626.898	12.92
627.02	7.92
627.142	23.92
627.264	6.92
627.386	0.92
627.508	15.92
627.63	0.92
627.752	9.92
627.874	17.92
627.997	16.92
628.119	29.92
628.241	11.92
628.363	20.92
628.485	20.92
628.607	2.92
628.729	-0.08
628.851	0.92
628.973	5.92
629.096	-4.08
629.218	-4.08
629.34	13.92
629.462	-2.08
629.584	-2.08
629.706	16.92
629.828	28.92
629.95	12.92
630.072	2.92
630.195	30.92
630.317	36.92
630.439	17.92
630.561	40.92
630.683	2.92
630.805	14.92
630.927	6.92
631.049	14.92
631.171	1.92
631.293	19.92
631.416	19.92
631.538	16.92
631.66	8.92
631.782	-3.08
631.904	9.92
632.026	5.92
632.148	10.92
632.27	3.92
632.392	3.92
632.514	13.92
632.637	12.92
632.759	11.92
632.881	-0.08
633.003	-10.08
633.125	-0.08
633.247	7.92
633.369	5.92
633.491	1.92
633.613	20.92
633.735	6.92
633.858	14.92
633.98	10.92
634.102	10.92
634.224	4.92
634.346	0.92
634.468	17.92
634.59	7.92
634.712	14.92
634.834	13.92
634.956	-18.08
635.078	-1.08
635.201	-8.08
635.323	1.92
635.445	-7.08
635.567	-12.08
635.689	29.92
635.811	5.92
635.933	-1.08
636.055	-0.08
636.177	11.92
636.299	23.92
636.421	1.92
636.544	-2.08
636.666	19.92
636.788	7.92
636.91	9.92
637.032	1.92
637.154	18.92
637.276	30.92
637.398	25.92
637.52	17.92
637.642	27.92
637.764	29.92
637.887	-2.08
638.009	19.92
638.131	16.92
638.253	7.92
638.375	19.92
638.497	19.92
638.619	10.92
638.741	6.92
638.863	-9.08
638.985	-9.08
639.107	6.92
639.23	-5.08
639.352	19.92
639.474	-2.08
639.596	16.92
639.718	22.92
639.84	14.92
639.962	-6.08
640.084	11.92
640.206	21.92
640.328	15.92
640.45	6.92
640.573	-2.08
640.695	21.92
640.817	3.92
640.939	15.92
641.061	-3.08
641.183	3.92
641.305	0.92
641.427	12.92
641.549	20.92
641.671	-4.08
641.793	-6.08
641.915	13.92
642.038	19.92
642.16	18.92
642.282	18.92
642.404	8.92
642.526	9.92
642.648	11.92
642.77	12.92
642.892	5.92
643.014	18.92
643.136	9.92
643.258	19.92
643.381	25.92
643.503	20.92
643.625	-1.08
643.747	-8.08
643.869	13.92
643.991	18.92
644.113	14.92
644.235	-4.08
644.357	10.92
644.479	26.92
644.601	-0.08
644.723	12.92
644.846	24.92
644.968	2.92
645.09	11.92
645.212	0.92
645.334	15.92
645.456	20.92
645.578	13.92
645.7	4.92
645.822	7.92
645.944	15.92
646.066	3.92
646.188	-4.08
646.311	26.92
646.433	14.92
646.555	48.92
646.677	38.92
646.799	48.92
646.921	18.92
647.043	39.92
647.165	14.92
647.287	6.92
647.409	3.92
647.531	32.92
647.654	-19.08
647.776	19.92
647.898	20.92
648.02	4.92
648.142	5.92
648.264	13.92
648.386	1.92
648.508	6.92
648.63	-5.08
648.752	-0.08
648.874	11.92
648.997	12.92
649.119	27.92
649.241	18.92
649.363	7.92
649.485	11.92
649.607	2.92
649.729	1.92
649.851	3.92
649.973	-6.08
650.095	19.92
650.217	-2.08
650.34	13.92
650.462	1.92
650.584	-3.08
650.706	16.92
650.828	21.92
650.95	1.92
651.072	10.92
651.194	-0.08
651.316	-11.08
651.438	10.92
651.56	7.92
651.683	4.92
651.805	-4.08
651.927	7.92
652.049	-0.08
652.171	11.92
652.293	0.92
652.415	-16.08
652.537	-2.08
652.659	-2.08
652.781	19.92
652.903	33.92
653.026	40.92
653.148	20.92
653.27	3.92
653.392	13.92
653.514	7.92
653.636	1.92
653.758	24.92
653.88	6.92
654.002	7.92
654.124	12.92
654.247	-2.08
654.369	16.92
654.491	12.92
654.613	9.92
654.735	1.92
654.857	23.92
654.979	22.92
655.101	19.92
655.223	44.92
655.345	20.92
655.468	17.92
655.59	26.92
655.712	28.92
655.834	41.92
655.956	37.92
656.078	45.92
656.2	59.92
656.322	45.92
656.444	38.92
656.566	56.92
656.689	49.92
656.811	56.92
656.933	101.92
657.055	90.92
657.177	178.92
657.299	244.92
657.421	520.92
657.543	1956.92
657.665	12754.92
657.787	15205.92
657.91	15375.92
658.032	15662.92
658.154	4787.92
658.276	4614.92
658.398	1354.92
658.52	1106.92
658.642	531.92
658.764	615.92
658.886	285.92
659.009	427.92
659.131	233.92
659.253	299.92
659.375	161.92
659.497	257.92
659.619	139.92
659.741	205.92
659.863	112.92
659.985	162.92
660.108	102.92
660.23	147.92
660.352	84.92
660.474	163.92
660.596	87.92
660.718	144.92
660.84	76.92
660.962	132.92
661.084	52.92
661.207	95.92
661.329	70.92
661.451	98.92
661.573	54.92
661.695	100.92
661.817	77.92
661.939	108.92
662.061	83.92
662.184	76.92
662.306	45.92
662.428	75.92
662.55	57.92
662.672	64.92
662.794	47.92
662.916	84.92
663.038	32.92
663.161	70.92
663.283	66.92
663.405	77.92
663.527	24.92
663.649	64.92
663.771	38.92
663.893	44.92
664.015	25.92
664.138	30.92
664.26	21.92
664.382	55.92
664.504	36.92
664.626	23.92
664.748	8.92
664.87	34.92
664.992	42.92
665.115	63.92
665.237	36.92
665.359	41.92
665.481	20.92
665.603	59.92
665.725	30.92
665.847	27.92
665.97	22.92
666.092	57.92
666.214	35.92
666.336	22.92
666.458	25.92
666.58	54.92
666.702	7.92
666.825	32.92
666.947	-10.08
667.069	30.92
667.191	25.92
667.313	45.92
667.435	17.92
667.557	32.92
667.68	28.92
667.802	17.92
667.924	14.92
668.046	46.92
668.168	14.92
668.29	52.92
668.412	19.92
668.535	31.92
668.657	2.92
668.779	27.92
668.901	33.92
669.023	36.92
669.145	9.92
669.267	37.92
669.39	11.92
669.512	33.92
669.634	4.92
669.756	7.92
669.878	15.92
670	35.92
670.123	16.92
670.245	50.92
670.367	27.92
670.489	36.92
670.611	6.92
670.733	24.92
670.856	19.92
670.978	45.92
671.1	22.92
671.222	32.92
671.344	29.92
671.466	13.92
671.589	16.92
671.711	28.92
671.833	13.92
671.955	23.92
672.077	-1.08
672.199	26.92
672.322	49.92
672.444	30.92
672.566	35.92
672.688	34.92
672.81	14.92
672.932	40.92
673.055	8.92
673.177	13.92
673.299	23.92
673.421	14.92
673.543	11.92
673.665	36.92
673.788	15.92
673.91	8.92
674.032	-4.08
674.154	12.92
674.276	14.92
674.399	18.92
674.521	22.92
674.643	22.92
674.765	-4.08
674.887	50.92
675.009	9.92
675.132	17.92
675.254	16.92
675.376	32.92
675.498	16.92
675.62	34.92
675.743	5.92
675.865	21.92
675.987	1.92
676.109	11.92
676.231	10.92
676.354	26.92
676.476	11.92
676.598	18.92
676.72	7.92
676.842	32.92
676.965	-3.08
677.087	14.92
677.209	16.92
677.331	44.92
677.453	22.92
677.576	11.92
677.698	19.92
677.82	27.92
677.942	6.92
678.064	17.92
678.187	6.92
678.309	11.92
678.431	5.92
678.553	16.92
678.675	27.92
678.798	31.92
678.92	4.92
679.042	8.92
679.164	7.92
679.286	21.92
679.409	4.92
679.531	-1.08
679.653	-8.08
679.775	-1.08
679.898	0.92
680.02	6.92
680.142	-3.08
680.264	7.92
680.386	-2.08
680.509	29.92
680.631	39.92
680.753	21.92
680.875	8.92
680.998	35.92
681.12	15.92
681.242	32.92
681.364	3.92
681.486	19.92
681.609	16.92
681.731	-4.08
681.853	-11.08
681.975	-0.08
682.098	16.92
682.22	29.92
682.342	1.92
682.464	34.92
682.587	11.92
682.709	16.92
682.831	1.92
682.953	19.92
683.076	13.92
683.198	8.92
683.32	12.92
683.442	23.92
683.565	9.92
683.687	20.92
683.809	17.92
683.931	2.92
684.054	26.92
684.176	20.92
684.298	14.92
684.42	16.92
684.543	3.92
684.665	13.92
684.787	0.92
684.909	-4.08
685.032	-0.08
685.154	-20.08
685.276	8.92
685.398	11.92
685.521	4.92
685.643	19.92
685.765	16.92
685.887	27.92
686.01	26.92
686.132	15.92
686.254	17.92
686.377	29.92
686.499	23.92
686.621	15.92
686.743	11.92
686.866	23.92
686.988	25.92
687.11	28.92
687.232	6.92
687.355	-5.08
687.477	-12.08
687.599	27.92
687.722	-0.08
687.844	0.92
687.966	6.92
688.088	11.92
688.211	28.92
688.333	38.92
688.455	20.92
688.578	20.92
688.7	18.92
688.822	-5.08
688.944	-7.08
689.067	61.92
689.189	3.92
689.311	-6.08
689.434	13.92
689.556	8.92
689.678	5.92
689.801	-12.08
689.923	19.92
690.045	19.92
690.167	33.92
690.29	21.92
690.412	9.92
690.534	20.92
690.657	6.92
690.779	20.92
690.901	16.92
691.024	11.92
691.146	20.92
691.268	9.92
691.391	23.92
691.513	49.92
691.635	34.92
691.758	33.92
691.88	32.92
692.002	9.92
692.125	11.92
692.247	5.92
692.369	-3.08
692.492	-13.08
692.614	0.92
692.736	5.92
692.859	-2.08
692.981	-0.08
693.103	9.92
693.226	20.92
693.348	41.92
693.47	5.92
693.593	17.92
693.715	-10.08
693.837	7.92
693.96	8.92
694.082	-0.08
694.204	23.92
694.327	16.92
694.449	3.92
694.571	11.92
694.694	12.92
694.816	10.92
694.938	3.92
695.061	4.92
695.183	6.92
695.305	0.92
695.428	22.92
695.55	-2.08
695.672	1.92
695.795	17.92
695.917	12.92
696.04	-12.08
696.162	4.92
696.284	33.92
696.407	14.92
696.529	3.92
696.651	26.92
696.774	8.92
696.896	12.92
697.019	-14.08
697.141	20.92
697.263	8.92
697.386	-2.08
697.508	2.92
697.63	12.92
697.753	-0.08
697.875	5.92
697.998	14.92
698.12	25.92
698.242	14.92
698.365	0.92
698.487	8.92
698.61	8.92
698.732	1.92
698.854	14.92
698.977	4.92
699.099	18.92
699.221	2.92
699.344	9.92
699.466	13.92
699.589	16.92
699.711	0.92
699.834	12.92
699.956	10.92
700.078	6.92
700.201	-14.08
700.323	10.92
700.446	12.92
700.568	13.92
700.69	23.92
700.813	23.92
700.935	-13.08
701.058	3.92
701.18	9.92
701.302	7.92
701.425	-0.08
701.547	-6.08
701.67	-4.08
701.792	4.92
701.915	5.92
702.037	1.92
702.159	-0.08
702.282	3.92
702.404	5.92
702.527	-5.08
702.649	19.92
702.772	10.92
702.894	2.92
703.017	19.92
703.139	7.92
703.261	20.92
703.384	8.92
703.506	-12.08
703.629	14.92
703.751	17.92
703.874	3.92
703.996	-3.08
704.119	-6.08
704.241	34.92
704.364	-3.08
704.486	4.92
704.608	5.92
704.731	12.92
704.853	2.92
704.976	4.92
705.098	9.92
705.221	7.92
705.343	-1.08
705.466	-6.08
705.588	15.92
705.711	15.92
705.833	11.92
705.956	19.92
706.078	18.92
706.201	2.92
706.323	23.92
706.446	-7.08
