Data from LowRes_H2_15_26_11_07_2024_HR4C61881__24__15-28-16-037.txt Node

Date: Thu Nov 07 15:28:16 EST 2024
User: crc00042
Spectrometer: HR4C6188
Trigger mode: 4
Integration Time (sec): 1.000000E-1
Scans to average: 1
Electric dark correction enabled: true
Nonlinearity correction enabled: false
Boxcar width: 0
XAxis mode: Wavelengths
Number of Pixels in Spectrum: 3648
>>>>>Begin Spectral Data<<<<<
245.66	-115.69
245.797	-115.69
245.934	-115.69
246.071	-76.69
246.208	3.31
246.344	-1.69
246.481	-4.69
246.618	0.31
246.755	35.31
246.892	8.31
247.029	-25.69
247.165	-14.69
247.302	10.31
247.439	-13.69
247.576	16.31
247.713	-21.69
247.849	18.31
247.986	-6.69
248.123	11.31
248.26	13.31
248.396	6.31
248.533	-11.69
248.67	-4.69
248.806	5.31
248.943	3.31
249.08	7.31
249.216	11.31
249.353	-12.69
249.49	8.31
249.626	-2.69
249.763	-18.69
249.9	-21.69
250.036	-21.69
250.173	4.31
250.309	-6.69
250.446	10.31
250.582	-12.69
250.719	-25.69
250.856	-12.69
250.992	0.31
251.129	1.31
251.265	-14.69
251.402	-19.69
251.538	-18.69
251.675	-9.69
251.811	20.31
251.948	17.31
252.084	-2.69
252.221	-14.69
252.357	-10.69
252.493	36.31
252.63	1.31
252.766	9.31
252.903	6.31
253.039	3.31
253.175	-6.69
253.312	1.31
253.448	-15.69
253.585	-13.69
253.721	10.31
253.857	6.31
253.994	5.31
254.13	-29.69
254.266	-7.69
254.403	10.31
254.539	29.31
254.675	10.31
254.811	6.31
254.948	11.31
255.084	-4.69
255.22	-4.69
255.356	-4.69
255.493	11.31
255.629	7.31
255.765	-10.69
255.901	12.31
256.037	2.31
256.174	-11.69
256.31	-10.69
256.446	-4.69
256.582	-2.69
256.718	25.31
256.854	2.31
256.991	12.31
257.127	31.31
257.263	5.31
257.399	1.31
257.535	-6.69
257.671	-7.69
257.807	-30.69
257.943	-6.69
258.079	-11.69
258.215	-9.69
258.351	9.31
258.487	10.31
258.623	16.31
258.759	-9.69
258.895	15.31
259.031	7.31
259.167	-15.69
259.303	18.31
259.439	-0.69
259.575	-12.69
259.711	15.31
259.847	-10.69
259.983	11.31
260.119	-10.69
260.255	-11.69
260.391	17.31
260.527	21.31
260.663	16.31
260.799	-0.69
260.934	11.31
261.07	-8.69
261.206	0.31
261.342	-4.69
261.478	14.31
261.614	-0.69
261.749	11.31
261.885	0.31
262.021	14.31
262.157	2.31
262.293	-7.69
262.428	-4.69
262.564	1.31
262.7	10.31
262.836	3.31
262.971	19.31
263.107	12.31
263.243	18.31
263.378	7.31
263.514	-20.69
263.65	6.31
263.785	-16.69
263.921	-7.69
264.057	3.31
264.192	-11.69
264.328	12.31
264.464	-6.69
264.599	0.31
264.735	9.31
264.871	3.31
265.006	8.31
265.142	-6.69
265.277	-9.69
265.413	14.31
265.548	9.31
265.684	29.31
265.819	10.31
265.955	-10.69
266.091	-12.69
266.226	-11.69
266.362	-6.69
266.497	2.31
266.633	-13.69
266.768	-8.69
266.903	11.31
267.039	3.31
267.174	21.31
267.31	-7.69
267.445	-12.69
267.581	7.31
267.716	16.31
267.851	9.31
267.987	-5.69
268.122	8.31
268.258	-7.69
268.393	-6.69
268.528	6.31
268.664	-0.69
268.799	-13.69
268.934	3.31
269.07	-13.69
269.205	8.31
269.34	23.31
269.476	9.31
269.611	-29.69
269.746	-4.69
269.881	-1.69
270.017	5.31
270.152	16.31
270.287	7.31
270.422	9.31
270.558	7.31
270.693	7.31
270.828	1.31
270.963	-4.69
271.098	-5.69
271.234	5.31
271.369	12.31
271.504	-8.69
271.639	2.31
271.774	-10.69
271.909	-4.69
272.045	-12.69
272.18	0.31
272.315	-13.69
272.45	17.31
272.585	-9.69
272.72	-1.69
272.855	4.31
272.99	9.31
273.125	3.31
273.26	-7.69
273.395	5.31
273.53	9.31
273.665	4.31
273.8	0.31
273.935	15.31
274.07	-7.69
274.205	14.31
274.34	4.31
274.475	25.31
274.61	18.31
274.745	-11.69
274.88	20.31
275.015	-2.69
275.15	1.31
275.285	15.31
275.42	9.31
275.555	13.31
275.69	4.31
275.825	11.31
275.959	11.31
276.094	-4.69
276.229	-6.69
276.364	-12.69
276.499	-8.69
276.634	1.31
276.768	12.31
276.903	9.31
277.038	15.31
277.173	13.31
277.308	6.31
277.442	-12.69
277.577	-15.69
277.712	1.31
277.847	0.31
277.981	9.31
278.116	-11.69
278.251	8.31
278.386	15.31
278.52	4.31
278.655	8.31
278.79	17.31
278.924	1.31
279.059	16.31
279.194	-8.69
279.328	24.31
279.463	13.31
279.598	12.31
279.732	10.31
279.867	12.31
280.001	8.31
280.136	-5.69
280.271	-3.69
280.405	-3.69
280.54	2.31
280.674	5.31
280.809	36.31
280.943	3.31
281.078	18.31
281.213	21.31
281.347	16.31
281.482	18.31
281.616	-4.69
281.751	0.31
281.885	-24.69
282.02	15.31
282.154	28.31
282.288	-7.69
282.423	10.31
282.557	-31.69
282.692	9.31
282.826	6.31
282.961	5.31
283.095	0.31
283.229	8.31
283.364	-7.69
283.498	-1.69
283.633	5.31
283.767	9.31
283.901	-14.69
284.036	5.31
284.17	-19.69
284.304	-15.69
284.439	-0.69
284.573	-7.69
284.707	2.31
284.842	-14.69
284.976	-3.69
285.11	-18.69
285.244	10.31
285.379	47.31
285.513	-9.69
285.647	9.31
285.781	-3.69
285.916	16.31
286.05	-3.69
286.184	28.31
286.318	-0.69
286.453	-16.69
286.587	-27.69
286.721	-21.69
286.855	11.31
286.989	23.31
287.123	6.31
287.258	-7.69
287.392	2.31
287.526	-17.69
287.66	5.31
287.794	-12.69
287.928	3.31
288.062	1.31
288.196	-2.69
288.33	2.31
288.464	4.31
288.598	15.31
288.733	-14.69
288.867	24.31
289.001	-13.69
289.135	4.31
289.269	-5.69
289.403	2.31
289.537	16.31
289.671	9.31
289.805	-9.69
289.939	32.31
290.073	4.31
290.207	9.31
290.34	-6.69
290.474	-1.69
290.608	-10.69
290.742	-4.69
290.876	-1.69
291.01	-8.69
291.144	17.31
291.278	0.31
291.412	-7.69
291.546	-4.69
291.679	-17.69
291.813	-12.69
291.947	2.31
292.081	-13.69
292.215	-8.69
292.349	5.31
292.482	11.31
292.616	-3.69
292.75	19.31
292.884	19.31
293.018	4.31
293.151	-23.69
293.285	-15.69
293.419	-22.69
293.553	-7.69
293.686	-14.69
293.82	-12.69
293.954	15.31
294.088	24.31
294.221	-11.69
294.355	1.31
294.489	3.31
294.622	-10.69
294.756	4.31
294.89	8.31
295.023	11.31
295.157	2.31
295.291	3.31
295.424	16.31
295.558	10.31
295.691	-9.69
295.825	-2.69
295.959	-3.69
296.092	-9.69
296.226	-0.69
296.359	9.31
296.493	-4.69
296.627	15.31
296.76	0.31
296.894	-0.69
297.027	13.31
297.161	-11.69
297.294	-5.69
297.428	-6.69
297.561	21.31
297.695	-12.69
297.828	-4.69
297.962	-1.69
298.095	-8.69
298.229	-9.69
298.362	5.31
298.495	-24.69
298.629	-0.69
298.762	-6.69
298.896	-10.69
299.029	-14.69
299.162	-3.69
299.296	6.31
299.429	8.31
299.563	-4.69
299.696	0.31
299.829	24.31
299.963	-2.69
300.096	29.31
300.229	-4.69
300.363	15.31
300.496	6.31
300.629	-12.69
300.763	-4.69
300.896	-1.69
301.029	17.31
301.162	-5.69
301.296	-9.69
301.429	-8.69
301.562	-19.69
301.695	0.31
301.829	-2.69
301.962	22.31
302.095	14.31
302.228	-7.69
302.362	0.31
302.495	-7.69
302.628	10.31
302.761	0.31
302.894	1.31
303.027	11.31
303.161	6.31
303.294	-0.69
303.427	-0.69
303.56	-1.69
303.693	3.31
303.826	13.31
303.959	3.31
304.092	-5.69
304.225	-6.69
304.359	-8.69
304.492	5.31
304.625	-14.69
304.758	9.31
304.891	-2.69
305.024	4.31
305.157	-1.69
305.29	-1.69
305.423	-5.69
305.556	11.31
305.689	28.31
305.822	9.31
305.955	3.31
306.088	11.31
306.221	-5.69
306.354	-10.69
306.487	15.31
306.62	-2.69
306.752	-4.69
306.885	4.31
307.018	2.31
307.151	8.31
307.284	5.31
307.417	-14.69
307.55	2.31
307.683	-3.69
307.816	14.31
307.948	4.31
308.081	1.31
308.214	-0.69
308.347	27.31
308.48	-10.69
308.613	-24.69
308.745	10.31
308.878	-6.69
309.011	-0.69
309.144	2.31
309.277	-6.69
309.409	11.31
309.542	-12.69
309.675	18.31
309.808	5.31
309.94	19.31
310.073	-9.69
310.206	-12.69
310.339	13.31
310.471	-11.69
310.604	24.31
310.737	-15.69
310.869	1.31
311.002	-7.69
311.135	-9.69
311.267	-14.69
311.4	7.31
311.533	14.31
311.665	-18.69
311.798	-4.69
311.93	6.31
312.063	20.31
312.196	5.31
312.328	-11.69
312.461	-8.69
312.593	8.31
312.726	20.31
312.859	-20.69
312.991	-2.69
313.124	-16.69
313.256	-7.69
313.389	6.31
313.521	2.31
313.654	-2.69
313.786	-9.69
313.919	-0.69
314.051	-3.69
314.184	4.31
314.316	-3.69
314.449	-5.69
314.581	-22.69
314.714	-3.69
314.846	13.31
314.978	-14.69
315.111	-6.69
315.243	7.31
315.376	5.31
315.508	8.31
315.641	2.31
315.773	33.31
315.905	8.31
316.038	-2.69
316.17	13.31
316.302	2.31
316.435	9.31
316.567	-10.69
316.699	27.31
316.832	-6.69
316.964	-3.69
317.096	-10.69
317.229	-13.69
317.361	-21.69
317.493	-0.69
317.625	-4.69
317.758	13.31
317.89	7.31
318.022	-8.69
318.155	3.31
318.287	-7.69
318.419	-4.69
318.551	7.31
318.683	4.31
318.816	3.31
318.948	-9.69
319.08	-14.69
319.212	3.31
319.344	5.31
319.477	15.31
319.609	-6.69
319.741	16.31
319.873	1.31
320.005	7.31
320.137	-10.69
320.269	8.31
320.401	21.31
320.534	-6.69
320.666	3.31
320.798	-29.69
320.93	-12.69
321.062	-13.69
321.194	-16.69
321.326	-5.69
321.458	24.31
321.59	-3.69
321.722	-12.69
321.854	6.31
321.986	3.31
322.118	8.31
322.25	3.31
322.382	12.31
322.514	-22.69
322.646	-8.69
322.778	12.31
322.91	-4.69
323.042	12.31
323.174	5.31
323.306	1.31
323.438	-25.69
323.57	1.31
323.702	10.31
323.834	-15.69
323.966	-11.69
324.097	7.31
324.229	12.31
324.361	5.31
324.493	4.31
324.625	-8.69
324.757	8.31
324.889	-9.69
325.021	15.31
325.152	14.31
325.284	19.31
325.416	-4.69
325.548	14.31
325.68	10.31
325.811	5.31
325.943	4.31
326.075	-15.69
326.207	1.31
326.339	12.31
326.47	-0.69
326.602	19.31
326.734	17.31
326.866	25.31
326.997	-1.69
327.129	10.31
327.261	-28.69
327.392	-15.69
327.524	8.31
327.656	-3.69
327.787	24.31
327.919	4.31
328.051	11.31
328.182	33.31
328.314	30.31
328.446	9.31
328.577	40.31
328.709	11.31
328.841	-29.69
328.972	-29.69
329.104	-5.69
329.235	5.31
329.367	-3.69
329.499	0.31
329.63	4.31
329.762	12.31
329.893	14.31
330.025	-11.69
330.156	-13.69
330.288	14.31
330.419	9.31
330.551	1.31
330.683	2.31
330.814	-0.69
330.946	18.31
331.077	1.31
331.208	-11.69
331.34	-6.69
331.471	-17.69
331.603	-8.69
331.734	-19.69
331.866	-4.69
331.997	0.31
332.129	-16.69
332.26	-1.69
332.392	12.31
332.523	9.31
332.654	-1.69
332.786	0.31
332.917	-4.69
333.048	23.31
333.18	25.31
333.311	3.31
333.443	-7.69
333.574	7.31
333.705	10.31
333.837	8.31
333.968	2.31
334.099	23.31
334.231	16.31
334.362	-3.69
334.493	12.31
334.624	18.31
334.756	22.31
334.887	15.31
335.018	10.31
335.15	23.31
335.281	-0.69
335.412	13.31
335.543	13.31
335.675	-17.69
335.806	5.31
335.937	10.31
336.068	5.31
336.199	35.31
336.331	5.31
336.462	10.31
336.593	8.31
336.724	-4.69
336.855	1.31
336.986	8.31
337.118	11.31
337.249	9.31
337.38	-5.69
337.511	6.31
337.642	5.31
337.773	2.31
337.904	15.31
338.035	5.31
338.166	6.31
338.298	3.31
338.429	-10.69
338.56	19.31
338.691	21.31
338.822	10.31
338.953	1.31
339.084	8.31
339.215	8.31
339.346	6.31
339.477	-10.69
339.608	8.31
339.739	5.31
339.87	-7.69
340.001	-7.69
340.132	12.31
340.263	9.31
340.394	15.31
340.525	4.31
340.656	-2.69
340.787	-8.69
340.918	15.31
341.049	4.31
341.179	19.31
341.31	7.31
341.441	-3.69
341.572	18.31
341.703	-11.69
341.834	-7.69
341.965	7.31
342.096	-3.69
342.227	-8.69
342.357	-17.69
342.488	1.31
342.619	2.31
342.75	-0.69
342.881	-3.69
343.012	23.31
343.142	34.31
343.273	-13.69
343.404	0.31
343.535	26.31
343.666	-4.69
343.796	24.31
343.927	24.31
344.058	11.31
344.189	18.31
344.319	5.31
344.45	14.31
344.581	25.31
344.712	-12.69
344.842	11.31
344.973	-6.69
345.104	16.31
345.234	-12.69
345.365	-4.69
345.496	13.31
345.626	8.31
345.757	11.31
345.888	-1.69
346.018	14.31
346.149	-11.69
346.28	32.31
346.41	-6.69
346.541	6.31
346.672	-6.69
346.802	-8.69
346.933	7.31
347.063	1.31
347.194	5.31
347.325	-10.69
347.455	9.31
347.586	-4.69
347.716	-3.69
347.847	18.31
347.977	22.31
348.108	24.31
348.238	1.31
348.369	1.31
348.499	1.31
348.63	-3.69
348.76	10.31
348.891	7.31
349.021	4.31
349.152	22.31
349.282	14.31
349.413	-1.69
349.543	6.31
349.674	-12.69
349.804	1.31
349.935	0.31
350.065	-6.69
350.196	-18.69
350.326	-18.69
350.456	-13.69
350.587	11.31
350.717	-2.69
350.848	4.31
350.978	7.31
351.108	7.31
351.239	25.31
351.369	12.31
351.499	-5.69
351.63	26.31
351.76	-2.69
351.89	7.31
352.021	17.31
352.151	8.31
352.281	18.31
352.412	25.31
352.542	-0.69
352.672	11.31
352.803	9.31
352.933	-3.69
353.063	3.31
353.193	23.31
353.324	-3.69
353.454	22.31
353.584	11.31
353.714	8.31
353.845	-3.69
353.975	11.31
354.105	14.31
354.235	16.31
354.365	20.31
354.496	-6.69
354.626	11.31
354.756	9.31
354.886	2.31
355.016	3.31
355.146	-10.69
355.277	8.31
355.407	11.31
355.537	9.31
355.667	28.31
355.797	-1.69
355.927	-1.69
356.057	0.31
356.187	-13.69
356.318	-24.69
356.448	-2.69
356.578	6.31
356.708	23.31
356.838	12.31
356.968	3.31
357.098	-6.69
357.228	13.31
357.358	19.31
357.488	-8.69
357.618	37.31
357.748	26.31
357.878	20.31
358.008	-4.69
358.138	-2.69
358.268	2.31
358.398	10.31
358.528	-12.69
358.658	3.31
358.788	-9.69
358.918	-0.69
359.048	-6.69
359.178	33.31
359.308	22.31
359.438	9.31
359.568	15.31
359.698	5.31
359.827	13.31
359.957	3.31
360.087	4.31
360.217	-0.69
360.347	17.31
360.477	-0.69
360.607	-21.69
360.737	21.31
360.866	8.31
360.996	-8.69
361.126	-18.69
361.256	12.31
361.386	4.31
361.516	6.31
361.645	-17.69
361.775	11.31
361.905	-13.69
362.035	7.31
362.165	4.31
362.294	5.31
362.424	7.31
362.554	16.31
362.684	-2.69
362.813	-10.69
362.943	20.31
363.073	-0.69
363.203	-2.69
363.332	2.31
363.462	6.31
363.592	7.31
363.721	-2.69
363.851	-5.69
363.981	16.31
364.111	-8.69
364.24	-6.69
364.37	23.31
364.5	24.31
364.629	4.31
364.759	-3.69
364.888	-10.69
365.018	-3.69
365.148	9.31
365.277	6.31
365.407	8.31
365.537	25.31
365.666	5.31
365.796	1.31
365.925	28.31
366.055	12.31
366.184	4.31
366.314	-0.69
366.444	28.31
366.573	15.31
366.703	-7.69
366.832	33.31
366.962	12.31
367.091	4.31
367.221	6.31
367.35	-0.69
367.48	54.31
367.609	33.31
367.739	10.31
367.868	-7.69
367.998	-7.69
368.127	16.31
368.257	17.31
368.386	38.31
368.516	39.31
368.645	-2.69
368.775	0.31
368.904	-7.69
369.033	-7.69
369.163	-12.69
369.292	22.31
369.422	16.31
369.551	7.31
369.68	16.31
369.81	17.31
369.939	-0.69
370.069	2.31
370.198	18.31
370.327	-12.69
370.457	-0.69
370.586	9.31
370.715	7.31
370.845	-9.69
370.974	11.31
371.103	14.31
371.233	36.31
371.362	28.31
371.491	5.31
371.621	17.31
371.75	14.31
371.879	-3.69
372.008	0.31
372.138	3.31
372.267	16.31
372.396	-7.69
372.525	5.31
372.655	19.31
372.784	-10.69
372.913	-15.69
373.042	14.31
373.172	9.31
373.301	-16.69
373.43	-17.69
373.559	4.31
373.688	16.31
373.818	17.31
373.947	22.31
374.076	-3.69
374.205	5.31
374.334	8.31
374.463	-4.69
374.593	20.31
374.722	11.31
374.851	17.31
374.98	-0.69
375.109	13.31
375.238	11.31
375.367	27.31
375.496	-11.69
375.625	5.31
375.755	17.31
375.884	26.31
376.013	13.31
376.142	-1.69
376.271	-4.69
376.4	16.31
376.529	-5.69
376.658	13.31
376.787	11.31
376.916	3.31
377.045	-1.69
377.174	8.31
377.303	9.31
377.432	38.31
377.561	11.31
377.69	7.31
377.819	24.31
377.948	5.31
378.077	-6.69
378.206	-8.69
378.335	4.31
378.464	8.31
378.593	28.31
378.722	-7.69
378.851	5.31
378.98	29.31
379.108	-12.69
379.237	4.31
379.366	1.31
379.495	14.31
379.624	0.31
379.753	-6.69
379.882	6.31
380.011	15.31
380.14	-7.69
380.268	4.31
380.397	10.31
380.526	31.31
380.655	9.31
380.784	-13.69
380.913	-8.69
381.041	-9.69
381.17	-3.69
381.299	11.31
381.428	13.31
381.557	8.31
381.685	15.31
381.814	5.31
381.943	9.31
382.072	-0.69
382.2	-15.69
382.329	2.31
382.458	4.31
382.587	11.31
382.715	16.31
382.844	-2.69
382.973	-4.69
383.102	-2.69
383.23	-0.69
383.359	2.31
383.488	33.31
383.616	16.31
383.745	7.31
383.874	-8.69
384.003	-7.69
384.131	-0.69
384.26	-1.69
384.389	5.31
384.517	-8.69
384.646	-7.69
384.774	0.31
384.903	22.31
385.032	13.31
385.16	9.31
385.289	0.31
385.418	4.31
385.546	22.31
385.675	17.31
385.803	-0.69
385.932	10.31
386.06	-19.69
386.189	18.31
386.318	24.31
386.446	0.31
386.575	-4.69
386.703	5.31
386.832	-5.69
386.96	-22.69
387.089	16.31
387.217	13.31
387.346	-5.69
387.474	3.31
387.603	2.31
387.731	8.31
387.86	19.31
387.988	10.31
388.117	12.31
388.245	19.31
388.374	-10.69
388.502	2.31
388.631	-3.69
388.759	0.31
388.888	-5.69
389.016	-9.69
389.144	-2.69
389.273	11.31
389.401	-4.69
389.53	-26.69
389.658	8.31
389.786	-8.69
389.915	-3.69
390.043	2.31
390.172	21.31
390.3	14.31
390.428	21.31
390.557	5.31
390.685	13.31
390.813	11.31
390.942	17.31
391.07	-3.69
391.198	-3.69
391.327	-5.69
391.455	-27.69
391.583	8.31
391.712	-6.69
391.84	3.31
391.968	-15.69
392.096	-12.69
392.225	-3.69
392.353	19.31
392.481	4.31
392.609	17.31
392.738	16.31
392.866	16.31
392.994	-3.69
393.122	25.31
393.251	0.31
393.379	2.31
393.507	-0.69
393.635	-1.69
393.764	21.31
393.892	29.31
394.02	-10.69
394.148	-3.69
394.276	18.31
394.404	22.31
394.533	6.31
394.661	16.31
394.789	11.31
394.917	36.31
395.045	4.31
395.173	-17.69
395.302	2.31
395.43	11.31
395.558	9.31
395.686	8.31
395.814	14.31
395.942	-23.69
396.07	11.31
396.198	7.31
396.326	7.31
396.454	16.31
396.582	19.31
396.711	19.31
396.839	23.31
396.967	17.31
397.095	6.31
397.223	7.31
397.351	20.31
397.479	22.31
397.607	0.31
397.735	35.31
397.863	20.31
397.991	7.31
398.119	-7.69
398.247	0.31
398.375	3.31
398.503	16.31
398.631	16.31
398.759	19.31
398.887	0.31
399.015	4.31
399.143	1.31
399.271	5.31
399.399	8.31
399.526	-10.69
399.654	12.31
399.782	-16.69
399.91	12.31
400.038	19.31
400.166	2.31
400.294	-11.69
400.422	-10.69
400.55	7.31
400.678	3.31
400.805	2.31
400.933	-0.69
401.061	29.31
401.189	12.31
401.317	25.31
401.445	24.31
401.573	24.31
401.7	-0.69
401.828	-7.69
401.956	-0.69
402.084	21.31
402.212	11.31
402.34	16.31
402.467	4.31
402.595	28.31
402.723	8.31
402.851	10.31
402.978	-1.69
403.106	21.31
403.234	12.31
403.362	29.31
403.489	15.31
403.617	7.31
403.745	4.31
403.873	-27.69
404	2.31
404.128	11.31
404.256	8.31
404.384	30.31
404.511	2.31
404.639	-16.69
404.767	-0.69
404.894	5.31
405.022	2.31
405.15	24.31
405.277	-8.69
405.405	18.31
405.533	5.31
405.66	8.31
405.788	-32.69
405.916	-9.69
406.043	-13.69
406.171	2.31
406.299	22.31
406.426	13.31
406.554	9.31
406.681	4.31
406.809	1.31
406.937	5.31
407.064	9.31
407.192	20.31
407.319	18.31
407.447	-1.69
407.574	18.31
407.702	-7.69
407.83	4.31
407.957	-13.69
408.085	-3.69
408.212	-4.69
408.34	22.31
408.467	5.31
408.595	24.31
408.722	27.31
408.85	15.31
408.977	-5.69
409.105	9.31
409.232	10.31
409.36	-6.69
409.487	-6.69
409.615	29.31
409.742	26.31
409.87	33.31
409.997	34.31
410.125	35.31
410.252	36.31
410.379	42.31
410.507	43.31
410.634	19.31
410.762	-0.69
410.889	23.31
411.017	7.31
411.144	27.31
411.271	5.31
411.399	6.31
411.526	3.31
411.653	14.31
411.781	25.31
411.908	22.31
412.036	10.31
412.163	28.31
412.29	23.31
412.418	-4.69
412.545	9.31
412.672	4.31
412.8	23.31
412.927	35.31
413.054	24.31
413.182	10.31
413.309	9.31
413.436	-10.69
413.564	15.31
413.691	19.31
413.818	20.31
413.945	-16.69
414.073	5.31
414.2	4.31
414.327	24.31
414.454	5.31
414.582	13.31
414.709	-12.69
414.836	8.31
414.963	8.31
415.091	18.31
415.218	4.31
415.345	6.31
415.472	2.31
415.6	3.31
415.727	-8.69
415.854	-3.69
415.981	9.31
416.108	11.31
416.236	25.31
416.363	17.31
416.49	-11.69
416.617	3.31
416.744	12.31
416.871	16.31
416.998	1.31
417.126	-0.69
417.253	7.31
417.38	10.31
417.507	8.31
417.634	9.31
417.761	15.31
417.888	36.31
418.015	2.31
418.143	5.31
418.27	15.31
418.397	10.31
418.524	19.31
418.651	-7.69
418.778	2.31
418.905	13.31
419.032	2.31
419.159	-0.69
419.286	30.31
419.413	15.31
419.54	48.31
419.667	0.31
419.794	-21.69
419.921	-5.69
420.048	16.31
420.175	6.31
420.302	2.31
420.429	20.31
420.556	12.31
420.683	0.31
420.81	4.31
420.937	16.31
421.064	7.31
421.191	2.31
421.318	20.31
421.445	23.31
421.572	-24.69
421.699	23.31
421.826	9.31
421.953	20.31
422.08	-4.69
422.207	-0.69
422.334	-4.69
422.461	20.31
422.588	2.31
422.714	12.31
422.841	9.31
422.968	9.31
423.095	19.31
423.222	-0.69
423.349	12.31
423.476	13.31
423.603	-8.69
423.729	-0.69
423.856	10.31
423.983	27.31
424.11	9.31
424.237	3.31
424.364	17.31
424.491	3.31
424.617	-16.69
424.744	10.31
424.871	10.31
424.998	4.31
425.125	-4.69
425.251	6.31
425.378	-8.69
425.505	-0.69
425.632	-4.69
425.758	-4.69
425.885	-5.69
426.012	10.31
426.139	26.31
426.266	7.31
426.392	13.31
426.519	-2.69
426.646	12.31
426.772	33.31
426.899	-3.69
427.026	21.31
427.153	12.31
427.279	18.31
427.406	-4.69
427.533	-0.69
427.659	9.31
427.786	0.31
427.913	20.31
428.039	-1.69
428.166	1.31
428.293	-0.69
428.419	4.31
428.546	-0.69
428.673	-18.69
428.799	-2.69
428.926	-7.69
429.053	29.31
429.179	4.31
429.306	9.31
429.433	20.31
429.559	26.31
429.686	5.31
429.812	5.31
429.939	5.31
430.066	11.31
430.192	-4.69
430.319	18.31
430.445	-14.69
430.572	3.31
430.699	-12.69
430.825	-11.69
430.952	16.31
431.078	15.31
431.205	13.31
431.331	12.31
431.458	9.31
431.584	12.31
431.711	-12.69
431.837	13.31
431.964	3.31
432.09	-10.69
432.217	-3.69
432.343	0.31
432.47	19.31
432.596	19.31
432.723	3.31
432.849	4.31
432.976	2.31
433.102	16.31
433.229	12.31
433.355	45.31
433.482	93.31
433.608	165.31
433.735	147.31
433.861	138.31
433.987	158.31
434.114	223.31
434.24	198.31
434.367	56.31
434.493	7.31
434.62	15.31
434.746	34.31
434.872	26.31
434.999	30.31
435.125	8.31
435.252	-6.69
435.378	0.31
435.504	9.31
435.631	20.31
435.757	2.31
435.883	23.31
436.01	15.31
436.136	-4.69
436.262	-4.69
436.389	18.31
436.515	16.31
436.641	8.31
436.768	21.31
436.894	1.31
437.02	14.31
437.147	33.31
437.273	18.31
437.399	2.31
437.526	23.31
437.652	7.31
437.778	25.31
437.904	-16.69
438.031	9.31
438.157	3.31
438.283	13.31
438.409	-14.69
438.536	-14.69
438.662	-0.69
438.788	17.31
438.914	18.31
439.041	16.31
439.167	46.31
439.293	14.31
439.419	8.31
439.546	9.31
439.672	-11.69
439.798	23.31
439.924	25.31
440.05	30.31
440.177	7.31
440.303	1.31
440.429	-4.69
440.555	-2.69
440.681	1.31
440.807	25.31
440.934	3.31
441.06	-4.69
441.186	19.31
441.312	9.31
441.438	14.31
441.564	23.31
441.69	19.31
441.816	0.31
441.943	5.31
442.069	23.31
442.195	37.31
442.321	30.31
442.447	-14.69
442.573	0.31
442.699	0.31
442.825	-9.69
442.951	23.31
443.077	17.31
443.203	33.31
443.33	4.31
443.456	-5.69
443.582	23.31
443.708	13.31
443.834	19.31
443.96	17.31
444.086	13.31
444.212	17.31
444.338	11.31
444.464	15.31
444.59	30.31
444.716	11.31
444.842	9.31
444.968	-12.69
445.094	13.31
445.22	12.31
445.346	4.31
445.472	-1.69
445.598	24.31
445.724	-12.69
445.85	8.31
445.976	18.31
446.102	23.31
446.228	21.31
446.354	5.31
446.48	-4.69
446.605	5.31
446.731	26.31
446.857	12.31
446.983	5.31
447.109	15.31
447.235	16.31
447.361	-5.69
447.487	1.31
447.613	34.31
447.739	3.31
447.865	5.31
447.99	0.31
448.116	17.31
448.242	3.31
448.368	9.31
448.494	-12.69
448.62	4.31
448.746	-2.69
448.872	7.31
448.997	11.31
449.123	6.31
449.249	28.31
449.375	16.31
449.501	-2.69
449.627	-6.69
449.752	31.31
449.878	-0.69
450.004	12.31
450.13	16.31
450.256	11.31
450.381	11.31
450.507	26.31
450.633	4.31
450.759	23.31
450.884	15.31
451.01	33.31
451.136	14.31
451.262	9.31
451.388	22.31
451.513	2.31
451.639	14.31
451.765	30.31
451.89	34.31
452.016	3.31
452.142	13.31
452.268	18.31
452.393	38.31
452.519	-18.69
452.645	1.31
452.771	3.31
452.896	4.31
453.022	-21.69
453.148	22.31
453.273	19.31
453.399	28.31
453.525	-2.69
453.65	5.31
453.776	14.31
453.902	23.31
454.027	23.31
454.153	-9.69
454.279	21.31
454.404	12.31
454.53	13.31
454.656	13.31
454.781	11.31
454.907	9.31
455.032	6.31
455.158	22.31
455.284	11.31
455.409	-2.69
455.535	19.31
455.66	15.31
455.786	24.31
455.912	12.31
456.037	-9.69
456.163	10.31
456.288	16.31
456.414	1.31
456.539	-17.69
456.665	8.31
456.791	11.31
456.916	0.31
457.042	12.31
457.167	0.31
457.293	16.31
457.418	13.31
457.544	4.31
457.669	-0.69
457.795	6.31
457.92	21.31
458.046	15.31
458.171	8.31
458.297	0.31
458.422	-4.69
458.548	0.31
458.673	26.31
458.799	7.31
458.924	-4.69
459.05	12.31
459.175	-0.69
459.301	13.31
459.426	17.31
459.552	1.31
459.677	16.31
459.803	39.31
459.928	21.31
460.053	11.31
460.179	8.31
460.304	24.31
460.43	-8.69
460.555	2.31
460.681	8.31
460.806	14.31
460.931	13.31
461.057	1.31
461.182	7.31
461.308	33.31
461.433	22.31
461.558	9.31
461.684	26.31
461.809	14.31
461.934	12.31
462.06	19.31
462.185	-6.69
462.311	-0.69
462.436	31.31
462.561	18.31
462.687	6.31
462.812	-4.69
462.937	-7.69
463.063	3.31
463.188	-12.69
463.313	12.31
463.439	13.31
463.564	-5.69
463.689	-8.69
463.814	2.31
463.94	12.31
464.065	38.31
464.19	22.31
464.316	-4.69
464.441	-1.69
464.566	5.31
464.692	16.31
464.817	2.31
464.942	-4.69
465.067	-0.69
465.193	-22.69
465.318	-3.69
465.443	10.31
465.568	17.31
465.694	13.31
465.819	28.31
465.944	3.31
466.069	5.31
466.194	10.31
466.32	11.31
466.445	13.31
466.57	-1.69
466.695	-6.69
466.82	19.31
466.946	33.31
467.071	14.31
467.196	0.31
467.321	28.31
467.446	5.31
467.572	12.31
467.697	-1.69
467.822	1.31
467.947	27.31
468.072	14.31
468.197	-18.69
468.323	-2.69
468.448	1.31
468.573	5.31
468.698	10.31
468.823	15.31
468.948	24.31
469.073	14.31
469.198	21.31
469.324	21.31
469.449	5.31
469.574	15.31
469.699	20.31
469.824	21.31
469.949	18.31
470.074	19.31
470.199	41.31
470.324	22.31
470.449	12.31
470.574	16.31
470.7	19.31
470.825	6.31
470.95	27.31
471.075	-17.69
471.2	25.31
471.325	28.31
471.45	8.31
471.575	0.31
471.7	32.31
471.825	4.31
471.95	9.31
472.075	8.31
472.2	22.31
472.325	7.31
472.45	5.31
472.575	19.31
472.7	31.31
472.825	21.31
472.95	11.31
473.075	14.31
473.2	2.31
473.325	2.31
473.45	5.31
473.575	-2.69
473.7	15.31
473.825	15.31
473.95	13.31
474.075	22.31
474.2	15.31
474.325	7.31
474.45	33.31
474.574	9.31
474.699	29.31
474.824	1.31
474.949	7.31
475.074	15.31
475.199	8.31
475.324	34.31
475.449	0.31
475.574	10.31
475.699	17.31
475.824	7.31
475.949	6.31
476.073	13.31
476.198	20.31
476.323	14.31
476.448	23.31
476.573	14.31
476.698	31.31
476.823	13.31
476.947	10.31
477.072	28.31
477.197	20.31
477.322	0.31
477.447	5.31
477.572	20.31
477.697	1.31
477.821	0.31
477.946	17.31
478.071	34.31
478.196	28.31
478.321	12.31
478.445	8.31
478.57	5.31
478.695	11.31
478.82	4.31
478.945	6.31
479.069	6.31
479.194	-1.69
479.319	11.31
479.444	27.31
479.569	11.31
479.693	15.31
479.818	12.31
479.943	22.31
480.068	15.31
480.192	7.31
480.317	26.31
480.442	17.31
480.567	11.31
480.691	-0.69
480.816	12.31
480.941	10.31
481.066	28.31
481.19	26.31
481.315	2.31
481.44	0.31
481.564	-14.69
481.689	30.31
481.814	26.31
481.938	29.31
482.063	10.31
482.188	38.31
482.313	44.31
482.437	18.31
482.562	12.31
482.687	42.31
482.811	29.31
482.936	16.31
483.061	34.31
483.185	33.31
483.31	45.31
483.435	22.31
483.559	16.31
483.684	19.31
483.808	43.31
483.933	21.31
484.058	10.31
484.182	18.31
484.307	10.31
484.432	35.31
484.556	18.31
484.681	0.31
484.805	17.31
484.93	26.31
485.055	61.31
485.179	84.31
485.304	105.31
485.428	368.31
485.553	1249.31
485.678	1736.31
485.802	1602.31
485.927	1778.31
486.051	2633.31
486.176	1600.31
486.3	456.31
486.425	151.31
486.549	76.31
486.674	64.31
486.799	12.31
486.923	38.31
487.048	17.31
487.172	23.31
487.297	37.31
487.421	21.31
487.546	23.31
487.67	39.31
487.795	-1.69
487.919	40.31
488.044	35.31
488.168	31.31
488.293	22.31
488.417	1.31
488.542	12.31
488.666	26.31
488.791	28.31
488.915	10.31
489.04	19.31
489.164	34.31
489.289	30.31
489.413	11.31
489.538	26.31
489.662	16.31
489.786	13.31
489.911	28.31
490.035	2.31
490.16	-5.69
490.284	-8.69
490.409	-16.69
490.533	7.31
490.658	48.31
490.782	16.31
490.906	11.31
491.031	5.31
491.155	4.31
491.28	8.31
491.404	15.31
491.528	21.31
491.653	28.31
491.777	12.31
491.902	15.31
492.026	32.31
492.15	16.31
492.275	27.31
492.399	19.31
492.524	16.31
492.648	21.31
492.772	17.31
492.897	34.31
493.021	13.31
493.145	38.31
493.27	7.31
493.394	23.31
493.518	-7.69
493.643	13.31
493.767	20.31
493.891	-10.69
494.016	9.31
494.14	24.31
494.264	15.31
494.389	33.31
494.513	0.31
494.637	5.31
494.762	23.31
494.886	43.31
495.01	21.31
495.134	22.31
495.259	3.31
495.383	8.31
495.507	19.31
495.632	16.31
495.756	53.31
495.88	11.31
496.004	18.31
496.129	19.31
496.253	21.31
496.377	21.31
496.501	35.31
496.626	8.31
496.75	20.31
496.874	19.31
496.998	13.31
497.123	18.31
497.247	7.31
497.371	12.31
497.495	16.31
497.62	3.31
497.744	11.31
497.868	13.31
497.992	9.31
498.116	4.31
498.241	11.31
498.365	-2.69
498.489	12.31
498.613	35.31
498.737	11.31
498.862	-0.69
498.986	-6.69
499.11	1.31
499.234	9.31
499.358	-2.69
499.482	2.31
499.607	11.31
499.731	11.31
499.855	28.31
499.979	17.31
500.103	24.31
500.227	26.31
500.351	8.31
500.476	16.31
500.6	11.31
500.724	37.31
500.848	5.31
500.972	10.31
501.096	9.31
501.22	27.31
501.344	11.31
501.469	6.31
501.593	22.31
501.717	15.31
501.841	35.31
501.965	13.31
502.089	14.31
502.213	8.31
502.337	8.31
502.461	15.31
502.585	6.31
502.709	22.31
502.834	6.31
502.958	3.31
503.082	3.31
503.206	15.31
503.33	17.31
503.454	17.31
503.578	25.31
503.702	21.31
503.826	13.31
503.95	28.31
504.074	13.31
504.198	9.31
504.322	-1.69
504.446	5.31
504.57	12.31
504.694	15.31
504.818	7.31
504.942	40.31
505.066	20.31
505.19	17.31
505.314	19.31
505.438	5.31
505.562	13.31
505.686	17.31
505.81	5.31
505.934	28.31
506.058	-1.69
506.182	16.31
506.306	11.31
506.43	4.31
506.554	3.31
506.678	-7.69
506.802	22.31
506.926	24.31
507.05	42.31
507.174	13.31
507.298	6.31
507.422	7.31
507.546	24.31
507.67	13.31
507.794	-15.69
507.918	8.31
508.042	20.31
508.165	18.31
508.289	7.31
508.413	7.31
508.537	5.31
508.661	23.31
508.785	9.31
508.909	7.31
509.033	10.31
509.157	10.31
509.281	-3.69
509.405	7.31
509.528	39.31
509.652	12.31
509.776	11.31
509.9	19.31
510.024	15.31
510.148	7.31
510.272	21.31
510.396	31.31
510.519	-4.69
510.643	19.31
510.767	13.31
510.891	11.31
511.015	4.31
511.139	14.31
511.263	21.31
511.386	5.31
511.51	21.31
511.634	7.31
511.758	4.31
511.882	9.31
512.006	23.31
512.129	1.31
512.253	35.31
512.377	8.31
512.501	25.31
512.625	11.31
512.748	13.31
512.872	3.31
512.996	-2.69
513.12	8.31
513.244	0.31
513.367	29.31
513.491	-1.69
513.615	21.31
513.739	8.31
513.862	6.31
513.986	23.31
514.11	19.31
514.234	24.31
514.358	22.31
514.481	27.31
514.605	23.31
514.729	14.31
514.853	19.31
514.976	4.31
515.1	10.31
515.224	16.31
515.348	-0.69
515.471	3.31
515.595	22.31
515.719	13.31
515.842	18.31
515.966	9.31
516.09	26.31
516.214	6.31
516.337	27.31
516.461	23.31
516.585	16.31
516.708	10.31
516.832	31.31
516.956	16.31
517.08	8.31
517.203	6.31
517.327	12.31
517.451	38.31
517.574	24.31
517.698	-5.69
517.822	-2.69
517.945	15.31
518.069	28.31
518.193	51.31
518.316	27.31
518.44	33.31
518.564	39.31
518.687	17.31
518.811	35.31
518.935	40.31
519.058	23.31
519.182	31.31
519.306	41.31
519.429	25.31
519.553	31.31
519.676	33.31
519.8	24.31
519.924	13.31
520.047	24.31
520.171	-0.69
520.294	5.31
520.418	13.31
520.542	2.31
520.665	14.31
520.789	10.31
520.913	4.31
521.036	-5.69
521.16	-3.69
521.283	5.31
521.407	11.31
521.53	6.31
521.654	-7.69
521.778	17.31
521.901	20.31
522.025	22.31
522.148	11.31
522.272	2.31
522.395	11.31
522.519	16.31
522.643	23.31
522.766	-8.69
522.89	3.31
523.013	20.31
523.137	8.31
523.26	6.31
523.384	20.31
523.507	21.31
523.631	13.31
523.754	7.31
523.878	10.31
524.002	18.31
524.125	5.31
524.249	-10.69
524.372	1.31
524.496	13.31
524.619	19.31
524.743	7.31
524.866	21.31
524.99	13.31
525.113	3.31
525.237	22.31
525.36	21.31
525.484	10.31
525.607	-2.69
525.731	-0.69
525.854	16.31
525.978	25.31
526.101	14.31
526.224	9.31
526.348	10.31
526.471	20.31
526.595	17.31
526.718	-7.69
526.842	-0.69
526.965	19.31
527.089	12.31
527.212	21.31
527.336	21.31
527.459	23.31
527.582	7.31
527.706	25.31
527.829	12.31
527.953	5.31
528.076	7.31
528.2	5.31
528.323	22.31
528.446	29.31
528.57	4.31
528.693	37.31
528.817	-1.69
528.94	19.31
529.064	42.31
529.187	3.31
529.31	8.31
529.434	12.31
529.557	8.31
529.68	1.31
529.804	-0.69
529.927	-4.69
530.051	13.31
530.174	-6.69
530.297	20.31
530.421	39.31
530.544	22.31
530.668	22.31
530.791	14.31
530.914	37.31
531.038	9.31
531.161	15.31
531.284	10.31
531.408	15.31
531.531	-0.69
531.654	4.31
531.778	4.31
531.901	5.31
532.024	22.31
532.148	9.31
532.271	26.31
532.394	8.31
532.518	29.31
532.641	11.31
532.764	44.31
532.888	29.31
533.011	2.31
533.134	9.31
533.258	39.31
533.381	5.31
533.504	16.31
533.628	4.31
533.751	5.31
533.874	15.31
533.997	-2.69
534.121	1.31
534.244	5.31
534.367	5.31
534.491	15.31
534.614	12.31
534.737	13.31
534.86	-9.69
534.984	11.31
535.107	2.31
535.23	13.31
535.354	1.31
535.477	12.31
535.6	-2.69
535.723	-6.69
535.847	-2.69
535.97	-1.69
536.093	6.31
536.216	-7.69
536.34	20.31
536.463	8.31
536.586	25.31
536.709	15.31
536.833	28.31
536.956	15.31
537.079	4.31
537.202	7.31
537.325	-2.69
537.449	-5.69
537.572	29.31
537.695	-0.69
537.818	13.31
537.941	13.31
538.065	21.31
538.188	2.31
538.311	22.31
538.434	19.31
538.558	22.31
538.681	21.31
538.804	9.31
538.927	23.31
539.05	-9.69
539.173	13.31
539.297	11.31
539.42	21.31
539.543	29.31
539.666	23.31
539.789	13.31
539.913	6.31
540.036	21.31
540.159	16.31
540.282	-18.69
540.405	5.31
540.528	16.31
540.651	27.31
540.775	17.31
540.898	15.31
541.021	13.31
541.144	15.31
541.267	13.31
541.39	11.31
541.513	23.31
541.637	8.31
541.76	-0.69
541.883	5.31
542.006	19.31
542.129	27.31
542.252	0.31
542.375	29.31
542.498	1.31
542.622	13.31
542.745	0.31
542.868	10.31
542.991	21.31
543.114	23.31
543.237	28.31
543.36	25.31
543.483	11.31
543.606	24.31
543.73	24.31
543.853	25.31
543.976	6.31
544.099	36.31
544.222	24.31
544.345	2.31
544.468	-4.69
544.591	4.31
544.714	20.31
544.837	23.31
544.96	21.31
545.083	30.31
545.206	18.31
545.329	33.31
545.453	12.31
545.576	13.31
545.699	4.31
545.822	20.31
545.945	32.31
546.068	14.31
546.191	24.31
546.314	29.31
546.437	28.31
546.56	10.31
546.683	4.31
546.806	23.31
546.929	7.31
547.052	-10.69
547.175	18.31
547.298	1.31
547.421	-4.69
547.544	0.31
547.667	19.31
547.79	-0.69
547.913	-0.69
548.036	-8.69
548.159	0.31
548.282	25.31
548.405	3.31
548.528	13.31
548.651	14.31
548.774	19.31
548.897	20.31
549.02	24.31
549.143	20.31
549.266	24.31
549.389	7.31
549.512	4.31
549.635	19.31
549.758	14.31
549.881	-8.69
550.004	13.31
550.127	15.31
550.25	16.31
550.373	-5.69
550.496	16.31
550.619	18.31
550.742	-6.69
550.865	-31.69
550.988	26.31
551.111	26.31
551.234	30.31
551.356	-1.69
551.479	3.31
551.602	8.31
551.725	13.31
551.848	41.31
551.971	37.31
552.094	17.31
552.217	6.31
552.34	6.31
552.463	-11.69
552.586	13.31
552.709	-5.69
552.832	1.31
552.955	25.31
553.077	12.31
553.2	7.31
553.323	-21.69
553.446	16.31
553.569	8.31
553.692	15.31
553.815	14.31
553.938	21.31
554.061	15.31
554.184	15.31
554.306	25.31
554.429	9.31
554.552	4.31
554.675	16.31
554.798	37.31
554.921	25.31
555.044	12.31
555.167	1.31
555.29	13.31
555.412	0.31
555.535	13.31
555.658	0.31
555.781	23.31
555.904	21.31
556.027	10.31
556.15	14.31
556.272	-3.69
556.395	12.31
556.518	-11.69
556.641	18.31
556.764	26.31
556.887	10.31
557.01	3.31
557.132	0.31
557.255	8.31
557.378	5.31
557.501	-4.69
557.624	8.31
557.747	-5.69
557.869	1.31
557.992	19.31
558.115	21.31
558.238	17.31
558.361	29.31
558.483	20.31
558.606	11.31
558.729	-12.69
558.852	30.31
558.975	16.31
559.098	11.31
559.22	3.31
559.343	18.31
559.466	6.31
559.589	-4.69
559.712	16.31
559.834	12.31
559.957	-1.69
560.08	15.31
560.203	-1.69
560.325	38.31
560.448	42.31
560.571	18.31
560.694	13.31
560.817	18.31
560.939	1.31
561.062	-7.69
561.185	-0.69
561.308	16.31
561.43	-6.69
561.553	8.31
561.676	2.31
561.799	15.31
561.921	2.31
562.044	4.31
562.167	5.31
562.29	26.31
562.413	24.31
562.535	24.31
562.658	3.31
562.781	-4.69
562.903	5.31
563.026	25.31
563.149	27.31
563.272	20.31
563.394	19.31
563.517	18.31
563.64	5.31
563.763	-7.69
563.885	7.31
564.008	15.31
564.131	10.31
564.254	5.31
564.376	14.31
564.499	-16.69
564.622	2.31
564.744	12.31
564.867	-2.69
564.99	10.31
565.113	8.31
565.235	3.31
565.358	-4.69
565.481	8.31
565.603	23.31
565.726	-14.69
565.849	1.31
565.971	1.31
566.094	-10.69
566.217	-5.69
566.34	5.31
566.462	30.31
566.585	11.31
566.708	25.31
566.83	5.31
566.953	22.31
567.076	1.31
567.198	3.31
567.321	-14.69
567.444	13.31
567.566	-8.69
567.689	-12.69
567.812	3.31
567.934	9.31
568.057	14.31
568.18	7.31
568.302	13.31
568.425	-7.69
568.548	-2.69
568.67	5.31
568.793	13.31
568.916	11.31
569.038	4.31
569.161	15.31
569.283	16.31
569.406	13.31
569.529	15.31
569.651	-0.69
569.774	6.31
569.897	-14.69
570.019	28.31
570.142	22.31
570.265	7.31
570.387	-0.69
570.51	18.31
570.632	29.31
570.755	9.31
570.878	-7.69
571	19.31
571.123	7.31
571.246	30.31
571.368	5.31
571.491	7.31
571.613	11.31
571.736	3.31
571.859	13.31
571.981	1.31
572.104	4.31
572.226	21.31
572.349	-4.69
572.472	7.31
572.594	7.31
572.717	9.31
572.839	-4.69
572.962	21.31
573.085	3.31
573.207	1.31
573.33	24.31
573.452	35.31
573.575	25.31
573.697	27.31
573.82	19.31
573.943	4.31
574.065	14.31
574.188	14.31
574.31	22.31
574.433	19.31
574.555	25.31
574.678	21.31
574.801	1.31
574.923	6.31
575.046	3.31
575.168	-7.69
575.291	5.31
575.413	8.31
575.536	-2.69
575.659	9.31
575.781	1.31
575.904	-7.69
576.026	4.31
576.149	0.31
576.271	9.31
576.394	7.31
576.516	9.31
576.639	20.31
576.761	5.31
576.884	4.31
577.007	4.31
577.129	20.31
577.252	10.31
577.374	25.31
577.497	-7.69
577.619	-6.69
577.742	-3.69
577.864	12.31
577.987	18.31
578.109	28.31
578.232	12.31
578.354	35.31
578.477	-1.69
578.599	2.31
578.722	29.31
578.844	7.31
578.967	10.31
579.089	6.31
579.212	7.31
579.334	18.31
579.457	0.31
579.579	2.31
579.702	-3.69
579.824	5.31
579.947	5.31
580.069	6.31
580.192	5.31
580.314	12.31
580.437	3.31
580.559	39.31
580.682	9.31
580.804	19.31
580.927	11.31
581.049	28.31
581.172	26.31
581.294	15.31
581.417	36.31
581.539	16.31
581.662	15.31
581.784	30.31
581.907	21.31
582.029	24.31
582.152	6.31
582.274	28.31
582.396	21.31
582.519	-0.69
582.641	-13.69
582.764	-4.69
582.886	24.31
583.009	16.31
583.131	10.31
583.254	6.31
583.376	19.31
583.499	-3.69
583.621	11.31
583.743	12.31
583.866	11.31
583.988	17.31
584.111	16.31
584.233	13.31
584.356	7.31
584.478	5.31
584.601	3.31
584.723	-0.69
584.845	17.31
584.968	-9.69
585.09	-2.69
585.213	26.31
585.335	-2.69
585.458	4.31
585.58	8.31
585.702	22.31
585.825	22.31
585.947	25.31
586.07	3.31
586.192	6.31
586.315	17.31
586.437	-2.69
586.559	-0.69
586.682	-3.69
586.804	8.31
586.927	-0.69
587.049	3.31
587.171	24.31
587.294	16.31
587.416	27.31
587.539	-3.69
587.661	10.31
587.783	9.31
587.906	4.31
588.028	21.31
588.151	16.31
588.273	6.31
588.395	-14.69
588.518	7.31
588.64	13.31
588.763	16.31
588.885	6.31
589.007	-0.69
589.13	-12.69
589.252	3.31
589.375	-4.69
589.497	-0.69
589.619	6.31
589.742	4.31
589.864	32.31
589.986	-3.69
590.109	-0.69
590.231	-12.69
590.354	17.31
590.476	0.31
590.598	-7.69
590.721	-0.69
590.843	15.31
590.965	12.31
591.088	28.31
591.21	10.31
591.332	19.31
591.455	-7.69
591.577	-22.69
591.7	0.31
591.822	5.31
591.944	25.31
592.067	20.31
592.189	7.31
592.311	4.31
592.434	3.31
592.556	5.31
592.678	11.31
592.801	3.31
592.923	9.31
593.045	15.31
593.168	22.31
593.29	6.31
593.412	18.31
593.535	1.31
593.657	-4.69
593.779	13.31
593.902	17.31
594.024	21.31
594.146	4.31
594.269	29.31
594.391	-5.69
594.513	26.31
594.636	7.31
594.758	7.31
594.88	20.31
595.003	13.31
595.125	0.31
595.247	11.31
595.37	11.31
595.492	10.31
595.614	16.31
595.737	7.31
595.859	-2.69
595.981	8.31
596.104	22.31
596.226	9.31
596.348	1.31
596.471	3.31
596.593	29.31
596.715	1.31
596.838	1.31
596.96	-0.69
597.082	17.31
597.204	27.31
597.327	21.31
597.449	6.31
597.571	-6.69
597.694	25.31
597.816	9.31
597.938	-2.69
598.061	19.31
598.183	-3.69
598.305	19.31
598.427	14.31
598.55	7.31
598.672	25.31
598.794	8.31
598.917	-6.69
599.039	4.31
599.161	13.31
599.283	14.31
599.406	9.31
599.528	19.31
599.65	27.31
599.773	24.31
599.895	33.31
600.017	32.31
600.139	3.31
600.262	-0.69
600.384	8.31
600.506	7.31
600.628	16.31
600.751	8.31
600.873	12.31
600.995	17.31
601.118	16.31
601.24	1.31
601.362	20.31
601.484	4.31
601.607	6.31
601.729	9.31
601.851	-1.69
601.973	17.31
602.096	15.31
602.218	27.31
602.34	11.31
602.462	27.31
602.585	5.31
602.707	1.31
602.829	15.31
602.951	-11.69
603.074	1.31
603.196	13.31
603.318	-13.69
603.44	16.31
603.563	14.31
603.685	-0.69
603.807	9.31
603.929	7.31
604.052	17.31
604.174	12.31
604.296	8.31
604.418	11.31
604.541	13.31
604.663	12.31
604.785	5.31
604.907	4.31
605.03	5.31
605.152	45.31
605.274	13.31
605.396	15.31
605.519	13.31
605.641	1.31
605.763	3.31
605.885	-0.69
606.008	8.31
606.13	25.31
606.252	14.31
606.374	-7.69
606.496	-11.69
606.619	11.31
606.741	9.31
606.863	27.31
606.985	35.31
607.108	25.31
607.23	13.31
607.352	12.31
607.474	14.31
607.596	17.31
607.719	9.31
607.841	18.31
607.963	16.31
608.085	2.31
608.207	33.31
608.33	23.31
608.452	22.31
608.574	8.31
608.696	27.31
608.819	12.31
608.941	5.31
609.063	21.31
609.185	6.31
609.307	4.31
609.43	23.31
609.552	15.31
609.674	-7.69
609.796	7.31
609.918	18.31
610.041	-10.69
610.163	11.31
610.285	10.31
610.407	16.31
610.529	-11.69
610.652	0.31
610.774	17.31
610.896	20.31
611.018	11.31
611.14	8.31
611.263	16.31
611.385	-6.69
611.507	19.31
611.629	-0.69
611.751	12.31
611.873	25.31
611.996	3.31
612.118	16.31
612.24	1.31
612.362	12.31
612.484	35.31
612.607	12.31
612.729	24.31
612.851	10.31
612.973	12.31
613.095	22.31
613.218	24.31
613.34	12.31
613.462	4.31
613.584	1.31
613.706	10.31
613.828	34.31
613.951	-6.69
614.073	5.31
614.195	3.31
614.317	35.31
614.439	25.31
614.561	29.31
614.684	9.31
614.806	7.31
614.928	27.31
615.05	18.31
615.172	35.31
615.294	26.31
615.417	4.31
615.539	-6.69
615.661	12.31
615.783	15.31
615.905	35.31
616.027	82.31
616.15	84.31
616.272	76.31
616.394	46.31
616.516	28.31
616.638	11.31
616.76	0.31
616.883	3.31
617.005	-4.69
617.127	2.31
617.249	11.31
617.371	22.31
617.493	7.31
617.615	13.31
617.738	11.31
617.86	25.31
617.982	4.31
618.104	5.31
618.226	16.31
618.348	-3.69
618.471	5.31
618.593	15.31
618.715	-10.69
618.837	-5.69
618.959	4.31
619.081	44.31
619.203	20.31
619.326	17.31
619.448	16.31
619.57	-0.69
619.692	6.31
619.814	29.31
619.936	15.31
620.058	27.31
620.181	15.31
620.303	3.31
620.425	-4.69
620.547	4.31
620.669	3.31
620.791	3.31
620.913	4.31
621.036	21.31
621.158	12.31
621.28	27.31
621.402	-8.69
621.524	23.31
621.646	15.31
621.768	1.31
621.891	-10.69
622.013	8.31
622.135	11.31
622.257	1.31
622.379	7.31
622.501	-0.69
622.623	15.31
622.745	22.31
622.868	25.31
622.99	27.31
623.112	13.31
623.234	-2.69
623.356	0.31
623.478	-2.69
623.6	17.31
623.722	-3.69
623.845	9.31
623.967	15.31
624.089	11.31
624.211	15.31
624.333	-3.69
624.455	13.31
624.577	31.31
624.699	22.31
624.822	5.31
624.944	12.31
625.066	9.31
625.188	9.31
625.31	12.31
625.432	21.31
625.554	5.31
625.676	39.31
625.799	26.31
625.921	4.31
626.043	11.31
626.165	-0.69
626.287	-22.69
626.409	4.31
626.531	8.31
626.653	17.31
626.775	13.31
626.898	8.31
627.02	19.31
627.142	24.31
627.264	19.31
627.386	3.31
627.508	15.31
627.63	5.31
627.752	11.31
627.874	7.31
627.997	32.31
628.119	16.31
628.241	17.31
628.363	15.31
628.485	19.31
628.607	5.31
628.729	6.31
628.851	3.31
628.973	1.31
629.096	2.31
629.218	-3.69
629.34	30.31
629.462	12.31
629.584	6.31
629.706	17.31
629.828	30.31
629.95	15.31
630.072	10.31
630.195	10.31
630.317	3.31
630.439	3.31
630.561	20.31
630.683	5.31
630.805	11.31
630.927	27.31
631.049	37.31
631.171	-6.69
631.293	16.31
631.416	7.31
631.538	4.31
631.66	8.31
631.782	17.31
631.904	12.31
632.026	9.31
632.148	26.31
632.27	3.31
632.392	19.31
632.514	17.31
632.637	15.31
632.759	-0.69
632.881	-2.69
633.003	5.31
633.125	-2.69
633.247	22.31
633.369	-3.69
633.491	24.31
633.613	26.31
633.735	10.31
633.858	20.31
633.98	13.31
634.102	3.31
634.224	2.31
634.346	4.31
634.468	11.31
634.59	32.31
634.712	15.31
634.834	-7.69
634.956	4.31
635.078	-4.69
635.201	-2.69
635.323	17.31
635.445	-10.69
635.567	-1.69
635.689	19.31
635.811	-2.69
635.933	2.31
636.055	7.31
636.177	-14.69
636.299	27.31
636.421	15.31
636.544	-6.69
636.666	20.31
636.788	12.31
636.91	14.31
637.032	-3.69
637.154	38.31
637.276	44.31
637.398	24.31
637.52	13.31
637.642	4.31
637.764	-11.69
637.887	-0.69
638.009	-0.69
638.131	-2.69
638.253	7.31
638.375	15.31
638.497	9.31
638.619	1.31
638.741	-0.69
638.863	-6.69
638.985	5.31
639.107	15.31
639.23	-1.69
639.352	24.31
639.474	-7.69
639.596	18.31
639.718	-10.69
639.84	0.31
639.962	8.31
640.084	14.31
640.206	20.31
640.328	11.31
640.45	18.31
640.573	24.31
640.695	21.31
640.817	32.31
640.939	30.31
641.061	25.31
641.183	7.31
641.305	3.31
641.427	-5.69
641.549	13.31
641.671	28.31
641.793	15.31
641.915	32.31
642.038	6.31
642.16	16.31
642.282	5.31
642.404	15.31
642.526	13.31
642.648	21.31
642.77	3.31
642.892	-6.69
643.014	31.31
643.136	11.31
643.258	8.31
643.381	11.31
643.503	27.31
643.625	5.31
643.747	-3.69
643.869	2.31
643.991	17.31
644.113	11.31
644.235	11.31
644.357	-0.69
644.479	14.31
644.601	-12.69
644.723	2.31
644.846	4.31
644.968	19.31
645.09	15.31
645.212	0.31
645.334	13.31
645.456	27.31
645.578	32.31
645.7	15.31
645.822	28.31
645.944	24.31
646.066	-0.69
646.188	7.31
646.311	17.31
646.433	7.31
646.555	56.31
646.677	40.31
646.799	30.31
646.921	17.31
647.043	35.31
647.165	-0.69
647.287	5.31
647.409	18.31
647.531	17.31
647.654	3.31
647.776	30.31
647.898	3.31
648.02	11.31
648.142	16.31
648.264	7.31
648.386	7.31
648.508	0.31
648.63	5.31
648.752	4.31
648.874	15.31
648.997	-2.69
649.119	20.31
649.241	8.31
649.363	12.31
649.485	9.31
649.607	21.31
649.729	-12.69
649.851	12.31
649.973	3.31
650.095	18.31
650.217	13.31
650.34	-10.69
650.462	29.31
650.584	12.31
650.706	16.31
650.828	9.31
650.95	-10.69
651.072	17.31
651.194	6.31
651.316	3.31
651.438	19.31
651.56	4.31
651.683	-3.69
651.805	-8.69
651.927	12.31
652.049	-9.69
652.171	2.31
652.293	18.31
652.415	-0.69
652.537	-4.69
652.659	4.31
652.781	16.31
652.903	8.31
653.026	43.31
653.148	7.31
653.27	7.31
653.392	8.31
653.514	-3.69
653.636	2.31
653.758	20.31
653.88	-7.69
654.002	-1.69
654.124	5.31
654.247	14.31
654.369	31.31
654.491	1.31
654.613	19.31
654.735	22.31
654.857	16.31
654.979	19.31
655.101	21.31
655.223	38.31
655.345	44.31
655.468	33.31
655.59	12.31
655.712	34.31
655.834	31.31
655.956	41.31
656.078	26.31
656.2	41.31
656.322	27.31
656.444	11.31
656.566	49.31
656.689	44.31
656.811	68.31
656.933	98.31
657.055	120.31
657.177	165.31
657.299	250.31
657.421	479.31
657.543	1882.31
657.665	12520.31
657.787	15168.31
657.91	15233.31
658.032	15662.31
658.154	4618.31
658.276	3276.31
658.398	1111.31
658.52	996.31
658.642	477.31
658.764	580.31
658.886	266.31
659.009	407.31
659.131	201.31
659.253	293.31
659.375	153.31
659.497	234.31
659.619	131.31
659.741	205.31
659.863	92.31
659.985	173.31
660.108	93.31
660.23	162.31
660.352	67.31
660.474	133.31
660.596	70.31
660.718	115.31
660.84	60.31
660.962	123.31
661.084	52.31
661.207	88.31
661.329	59.31
661.451	93.31
661.573	49.31
661.695	112.31
661.817	54.31
661.939	104.31
662.061	75.31
662.184	72.31
662.306	45.31
662.428	68.31
662.55	61.31
662.672	54.31
662.794	35.31
662.916	66.31
663.038	53.31
663.161	89.31
663.283	50.31
663.405	81.31
663.527	27.31
663.649	67.31
663.771	22.31
663.893	53.31
664.015	27.31
664.138	56.31
664.26	22.31
664.382	35.31
664.504	23.31
664.626	29.31
664.748	25.31
664.87	49.31
664.992	29.31
665.115	44.31
665.237	24.31
665.359	40.31
665.481	23.31
665.603	49.31
665.725	6.31
665.847	29.31
665.97	28.31
666.092	38.31
666.214	17.31
666.336	41.31
666.458	31.31
666.58	30.31
666.702	15.31
666.825	32.31
666.947	12.31
667.069	40.31
667.191	22.31
667.313	35.31
667.435	4.31
667.557	7.31
667.68	-5.69
667.802	33.31
667.924	28.31
668.046	31.31
668.168	17.31
668.29	56.31
668.412	13.31
668.535	18.31
668.657	20.31
668.779	34.31
668.901	12.31
669.023	31.31
669.145	15.31
669.267	43.31
669.39	18.31
669.512	23.31
669.634	12.31
669.756	19.31
669.878	17.31
670	38.31
670.123	20.31
670.245	35.31
670.367	15.31
670.489	33.31
670.611	12.31
670.733	17.31
670.856	4.31
670.978	14.31
671.1	16.31
671.222	22.31
671.344	3.31
671.466	25.31
671.589	3.31
671.711	24.31
671.833	-7.69
671.955	17.31
672.077	3.31
672.199	31.31
672.322	31.31
672.444	7.31
672.566	24.31
672.688	19.31
672.81	28.31
672.932	35.31
673.055	3.31
673.177	9.31
673.299	18.31
673.421	-6.69
673.543	3.31
673.665	27.31
673.788	19.31
673.91	19.31
674.032	4.31
674.154	23.31
674.276	22.31
674.399	9.31
674.521	5.31
674.643	19.31
674.765	9.31
674.887	26.31
675.009	24.31
675.132	5.31
675.254	5.31
675.376	8.31
675.498	14.31
675.62	45.31
675.743	24.31
675.865	27.31
675.987	1.31
676.109	17.31
676.231	18.31
676.354	29.31
676.476	8.31
676.598	19.31
676.72	25.31
676.842	25.31
676.965	5.31
677.087	13.31
677.209	18.31
677.331	32.31
677.453	11.31
677.576	20.31
677.698	6.31
677.82	13.31
677.942	-4.69
678.064	8.31
678.187	1.31
678.309	2.31
678.431	0.31
678.553	20.31
678.675	32.31
678.798	18.31
678.92	7.31
679.042	19.31
679.164	15.31
679.286	24.31
679.409	21.31
679.531	2.31
679.653	5.31
679.775	1.31
679.898	-2.69
680.02	4.31
680.142	12.31
680.264	36.31
680.386	0.31
680.509	28.31
680.631	17.31
680.753	18.31
680.875	1.31
680.998	13.31
681.12	5.31
681.242	18.31
681.364	21.31
681.486	9.31
681.609	-3.69
681.731	-13.69
681.853	4.31
681.975	15.31
682.098	23.31
682.22	32.31
682.342	4.31
682.464	31.31
682.587	11.31
682.709	11.31
682.831	5.31
682.953	-2.69
683.076	4.31
683.198	27.31
683.32	5.31
683.442	22.31
683.565	7.31
683.687	-2.69
683.809	-0.69
683.931	-8.69
684.054	21.31
684.176	20.31
684.298	19.31
684.42	0.31
684.543	0.31
684.665	1.31
684.787	8.31
684.909	26.31
685.032	16.31
685.154	0.31
685.276	-0.69
685.398	-4.69
685.521	5.31
685.643	20.31
685.765	28.31
685.887	6.31
686.01	2.31
686.132	15.31
686.254	12.31
686.377	18.31
686.499	7.31
686.621	24.31
686.743	26.31
686.866	23.31
686.988	25.31
687.11	30.31
687.232	5.31
687.355	8.31
687.477	5.31
687.599	16.31
687.722	23.31
687.844	25.31
687.966	11.31
688.088	17.31
688.211	16.31
688.333	12.31
688.455	6.31
688.578	17.31
688.7	21.31
688.822	9.31
688.944	8.31
689.067	54.31
689.189	22.31
689.311	3.31
689.434	-5.69
689.556	10.31
689.678	17.31
689.801	-6.69
689.923	-3.69
690.045	21.31
690.167	10.31
690.29	23.31
690.412	10.31
690.534	32.31
690.657	17.31
690.779	13.31
690.901	10.31
691.024	2.31
691.146	12.31
691.268	-8.69
691.391	17.31
691.513	34.31
691.635	6.31
691.758	26.31
691.88	21.31
692.002	-5.69
692.125	-6.69
692.247	5.31
692.369	2.31
692.492	12.31
692.614	-7.69
692.736	-10.69
692.859	-11.69
692.981	-7.69
693.103	-6.69
693.226	20.31
693.348	27.31
693.47	10.31
693.593	-2.69
693.715	-11.69
693.837	-2.69
693.96	4.31
694.082	-8.69
694.204	10.31
694.327	1.31
694.449	-7.69
694.571	-5.69
694.694	5.31
694.816	1.31
694.938	3.31
695.061	13.31
695.183	13.31
695.305	9.31
695.428	27.31
695.55	1.31
695.672	-7.69
695.795	22.31
695.917	29.31
696.04	-7.69
696.162	14.31
696.284	23.31
696.407	2.31
696.529	-2.69
696.651	25.31
696.774	0.31
696.896	27.31
697.019	4.31
697.141	23.31
697.263	2.31
697.386	12.31
697.508	1.31
697.63	26.31
697.753	-7.69
697.875	-0.69
697.998	4.31
698.12	9.31
698.242	9.31
698.365	7.31
698.487	-4.69
698.61	18.31
698.732	3.31
698.854	11.31
698.977	6.31
699.099	24.31
699.221	-12.69
699.344	9.31
699.466	-0.69
699.589	6.31
699.711	7.31
699.834	6.31
699.956	9.31
700.078	11.31
700.201	1.31
700.323	9.31
700.446	-4.69
700.568	4.31
700.69	20.31
700.813	16.31
700.935	-1.69
701.058	10.31
701.18	15.31
701.302	2.31
701.425	3.31
701.547	7.31
701.67	3.31
701.792	8.31
701.915	-0.69
702.037	7.31
702.159	33.31
702.282	15.31
702.404	-7.69
702.527	10.31
702.649	30.31
702.772	31.31
702.894	9.31
703.017	21.31
703.139	17.31
703.261	32.31
703.384	19.31
703.506	0.31
703.629	13.31
703.751	8.31
703.874	2.31
703.996	-13.69
704.119	-0.69
704.241	0.31
704.364	-18.69
704.486	12.31
704.608	4.31
704.731	9.31
704.853	3.31
704.976	-1.69
705.098	10.31
705.221	6.31
705.343	15.31
705.466	14.31
705.588	19.31
705.711	16.31
705.833	32.31
705.956	7.31
706.078	3.31
706.201	5.31
706.323	0.31
706.446	12.31
