Data from LowRes_H2_15_26_11_07_2024_HR4C61881__35__15-28-17-137.txt Node

Date: Thu Nov 07 15:28:17 EST 2024
User: crc00042
Spectrometer: HR4C6188
Trigger mode: 4
Integration Time (sec): 1.000000E-1
Scans to average: 1
Electric dark correction enabled: true
Nonlinearity correction enabled: false
Boxcar width: 0
XAxis mode: Wavelengths
Number of Pixels in Spectrum: 3648
>>>>>Begin Spectral Data<<<<<
245.66	-103.23
245.797	-103.23
245.934	-103.23
246.071	-73.23
246.208	-2.23
246.344	2.77
246.481	-10.23
246.618	-1.23
246.755	13.77
246.892	0.77
247.029	-16.23
247.165	-8.23
247.302	9.77
247.439	4.77
247.576	3.77
247.713	-12.23
247.849	9.77
247.986	2.77
248.123	8.77
248.26	2.77
248.396	24.77
248.533	-1.23
248.67	3.77
248.806	6.77
248.943	-0.23
249.08	-9.23
249.216	-0.23
249.353	-26.23
249.49	-9.23
249.626	19.77
249.763	11.77
249.9	-32.23
250.036	11.77
250.173	1.77
250.309	34.77
250.446	8.77
250.582	1.77
250.719	-15.23
250.856	7.77
250.992	-6.23
251.129	-4.23
251.265	2.77
251.402	1.77
251.538	-4.23
251.675	5.77
251.811	18.77
251.948	17.77
252.084	-8.23
252.221	-6.23
252.357	-8.23
252.493	23.77
252.63	-2.23
252.766	-3.23
252.903	-1.23
253.039	-12.23
253.175	8.77
253.312	1.77
253.448	0.77
253.585	-31.23
253.721	15.77
253.857	9.77
253.994	1.77
254.13	-12.23
254.266	-4.23
254.403	14.77
254.539	6.77
254.675	1.77
254.811	-5.23
254.948	-3.23
255.084	-8.23
255.22	-13.23
255.356	-9.23
255.493	4.77
255.629	6.77
255.765	-0.23
255.901	3.77
256.037	15.77
256.174	7.77
256.31	-4.23
256.446	-17.23
256.582	3.77
256.718	1.77
256.854	36.77
256.991	6.77
257.127	22.77
257.263	-4.23
257.399	14.77
257.535	-2.23
257.671	-10.23
257.807	-19.23
257.943	-8.23
258.079	-20.23
258.215	-2.23
258.351	18.77
258.487	-4.23
258.623	21.77
258.759	20.77
258.895	3.77
259.031	-11.23
259.167	-31.23
259.303	18.77
259.439	-3.23
259.575	-3.23
259.711	5.77
259.847	-0.23
259.983	6.77
260.119	15.77
260.255	-0.23
260.391	11.77
260.527	2.77
260.663	24.77
260.799	15.77
260.934	20.77
261.07	-15.23
261.206	-7.23
261.342	-10.23
261.478	23.77
261.614	6.77
261.749	1.77
261.885	-3.23
262.021	7.77
262.157	26.77
262.293	2.77
262.428	-8.23
262.564	12.77
262.7	6.77
262.836	-9.23
262.971	19.77
263.107	21.77
263.243	17.77
263.378	-12.23
263.514	-11.23
263.65	-3.23
263.785	-10.23
263.921	0.77
264.057	-5.23
264.192	7.77
264.328	21.77
264.464	-12.23
264.599	16.77
264.735	13.77
264.871	-8.23
265.006	15.77
265.142	1.77
265.277	19.77
265.413	15.77
265.548	7.77
265.684	10.77
265.819	12.77
265.955	3.77
266.091	-19.23
266.226	6.77
266.362	16.77
266.497	15.77
266.633	-5.23
266.768	-7.23
266.903	11.77
267.039	28.77
267.174	14.77
267.31	-11.23
267.445	12.77
267.581	3.77
267.716	10.77
267.851	36.77
267.987	26.77
268.122	22.77
268.258	2.77
268.393	2.77
268.528	15.77
268.664	-20.23
268.799	-6.23
268.934	11.77
269.07	-1.23
269.205	5.77
269.34	9.77
269.476	-20.23
269.611	-3.23
269.746	24.77
269.881	17.77
270.017	17.77
270.152	9.77
270.287	-2.23
270.422	25.77
270.558	2.77
270.693	4.77
270.828	1.77
270.963	-9.23
271.098	4.77
271.234	-1.23
271.369	34.77
271.504	5.77
271.639	0.77
271.774	7.77
271.909	-7.23
272.045	-20.23
272.18	-3.23
272.315	-14.23
272.45	3.77
272.585	-14.23
272.72	0.77
272.855	2.77
272.99	25.77
273.125	10.77
273.26	-22.23
273.395	-18.23
273.53	0.77
273.665	25.77
273.8	16.77
273.935	20.77
274.07	-1.23
274.205	-3.23
274.34	-2.23
274.475	2.77
274.61	12.77
274.745	2.77
274.88	27.77
275.015	-24.23
275.15	5.77
275.285	16.77
275.42	-3.23
275.555	22.77
275.69	-10.23
275.825	-7.23
275.959	13.77
276.094	-10.23
276.229	-17.23
276.364	-6.23
276.499	-10.23
276.634	0.77
276.768	-10.23
276.903	-3.23
277.038	13.77
277.173	4.77
277.308	-6.23
277.442	11.77
277.577	5.77
277.712	4.77
277.847	-2.23
277.981	11.77
278.116	-2.23
278.251	2.77
278.386	19.77
278.52	21.77
278.655	1.77
278.79	15.77
278.924	7.77
279.059	28.77
279.194	-9.23
279.328	40.77
279.463	15.77
279.598	22.77
279.732	-0.23
279.867	17.77
280.001	-0.23
280.136	9.77
280.271	-1.23
280.405	13.77
280.54	0.77
280.674	3.77
280.809	35.77
280.943	10.77
281.078	-9.23
281.213	2.77
281.347	16.77
281.482	20.77
281.616	-2.23
281.751	-7.23
281.885	-28.23
282.02	-2.23
282.154	7.77
282.288	-12.23
282.423	-7.23
282.557	-7.23
282.692	0.77
282.826	-10.23
282.961	8.77
283.095	9.77
283.229	-1.23
283.364	0.77
283.498	8.77
283.633	21.77
283.767	16.77
283.901	-13.23
284.036	0.77
284.17	-0.23
284.304	3.77
284.439	7.77
284.573	13.77
284.707	26.77
284.842	3.77
284.976	-6.23
285.11	-6.23
285.244	-10.23
285.379	36.77
285.513	-17.23
285.647	-5.23
285.781	-1.23
285.916	14.77
286.05	11.77
286.184	26.77
286.318	16.77
286.453	-19.23
286.587	2.77
286.721	-11.23
286.855	25.77
286.989	28.77
287.123	14.77
287.258	-31.23
287.392	-0.23
287.526	-3.23
287.66	-1.23
287.794	-2.23
287.928	-15.23
288.062	1.77
288.196	13.77
288.33	9.77
288.464	26.77
288.598	6.77
288.733	-6.23
288.867	9.77
289.001	34.77
289.135	-0.23
289.269	0.77
289.403	5.77
289.537	28.77
289.671	37.77
289.805	-8.23
289.939	9.77
290.073	1.77
290.207	20.77
290.34	-5.23
290.474	20.77
290.608	24.77
290.742	5.77
290.876	8.77
291.01	-1.23
291.144	18.77
291.278	25.77
291.412	6.77
291.546	7.77
291.679	0.77
291.813	4.77
291.947	14.77
292.081	-13.23
292.215	12.77
292.349	10.77
292.482	8.77
292.616	10.77
292.75	5.77
292.884	8.77
293.018	10.77
293.151	-15.23
293.285	-3.23
293.419	-16.23
293.553	-9.23
293.686	-2.23
293.82	10.77
293.954	21.77
294.088	19.77
294.221	-3.23
294.355	-6.23
294.489	16.77
294.622	7.77
294.756	12.77
294.89	2.77
295.023	-0.23
295.157	14.77
295.291	3.77
295.424	12.77
295.558	9.77
295.691	-2.23
295.825	-12.23
295.959	25.77
296.092	4.77
296.226	7.77
296.359	13.77
296.493	18.77
296.627	13.77
296.76	22.77
296.894	2.77
297.027	9.77
297.161	3.77
297.294	-10.23
297.428	-2.23
297.561	12.77
297.695	-4.23
297.828	-2.23
297.962	-1.23
298.095	-10.23
298.229	9.77
298.362	-20.23
298.495	-15.23
298.629	-7.23
298.762	-18.23
298.896	6.77
299.029	-15.23
299.162	10.77
299.296	4.77
299.429	1.77
299.563	4.77
299.696	20.77
299.829	10.77
299.963	16.77
300.096	10.77
300.229	11.77
300.363	-4.23
300.496	2.77
300.629	-5.23
300.763	-0.23
300.896	19.77
301.029	14.77
301.162	5.77
301.296	4.77
301.429	11.77
301.562	-19.23
301.695	3.77
301.829	8.77
301.962	10.77
302.095	-1.23
302.228	-28.23
302.362	9.77
302.495	8.77
302.628	13.77
302.761	-4.23
302.894	4.77
303.027	18.77
303.161	-6.23
303.294	-5.23
303.427	28.77
303.56	0.77
303.693	-0.23
303.826	2.77
303.959	-1.23
304.092	-7.23
304.225	-4.23
304.359	0.77
304.492	7.77
304.625	14.77
304.758	20.77
304.891	-0.23
305.024	2.77
305.157	-1.23
305.29	-4.23
305.423	-7.23
305.556	5.77
305.689	26.77
305.822	13.77
305.955	6.77
306.088	7.77
306.221	-10.23
306.354	20.77
306.487	-4.23
306.62	-8.23
306.752	8.77
306.885	15.77
307.018	3.77
307.151	-1.23
307.284	15.77
307.417	3.77
307.55	15.77
307.683	-3.23
307.816	22.77
307.948	12.77
308.081	25.77
308.214	10.77
308.347	27.77
308.48	11.77
308.613	-17.23
308.745	11.77
308.878	5.77
309.011	5.77
309.144	4.77
309.277	-12.23
309.409	12.77
309.542	18.77
309.675	-4.23
309.808	5.77
309.94	15.77
310.073	4.77
310.206	-6.23
310.339	4.77
310.471	-33.23
310.604	11.77
310.737	5.77
310.869	5.77
311.002	1.77
311.135	12.77
311.267	-13.23
311.4	-7.23
311.533	11.77
311.665	4.77
311.798	8.77
311.93	5.77
312.063	25.77
312.196	19.77
312.328	19.77
312.461	14.77
312.593	-1.23
312.726	23.77
312.859	0.77
312.991	12.77
313.124	-9.23
313.256	5.77
313.389	5.77
313.521	6.77
313.654	4.77
313.786	-18.23
313.919	-5.23
314.051	-2.23
314.184	10.77
314.316	14.77
314.449	-0.23
314.581	3.77
314.714	-8.23
314.846	7.77
314.978	-7.23
315.111	3.77
315.243	22.77
315.376	8.77
315.508	14.77
315.641	-6.23
315.773	7.77
315.905	5.77
316.038	-8.23
316.17	-2.23
316.302	15.77
316.435	7.77
316.567	0.77
316.699	23.77
316.832	3.77
316.964	-10.23
317.096	-10.23
317.229	-12.23
317.361	-12.23
317.493	2.77
317.625	0.77
317.758	9.77
317.89	8.77
318.022	15.77
318.155	0.77
318.287	11.77
318.419	27.77
318.551	1.77
318.683	-1.23
318.816	3.77
318.948	-8.23
319.08	-16.23
319.212	7.77
319.344	26.77
319.477	8.77
319.609	-0.23
319.741	-2.23
319.873	24.77
320.005	10.77
320.137	1.77
320.269	-5.23
320.401	4.77
320.534	9.77
320.666	-8.23
320.798	-14.23
320.93	8.77
321.062	-18.23
321.194	14.77
321.326	2.77
321.458	13.77
321.59	7.77
321.722	-5.23
321.854	-1.23
321.986	-0.23
322.118	4.77
322.25	-11.23
322.382	10.77
322.514	7.77
322.646	5.77
322.778	9.77
322.91	-5.23
323.042	7.77
323.174	-16.23
323.306	-7.23
323.438	-17.23
323.57	-3.23
323.702	-3.23
323.834	12.77
323.966	-13.23
324.097	10.77
324.229	33.77
324.361	21.77
324.493	35.77
324.625	18.77
324.757	13.77
324.889	13.77
325.021	12.77
325.152	29.77
325.284	25.77
325.416	1.77
325.548	13.77
325.68	7.77
325.811	27.77
325.943	22.77
326.075	1.77
326.207	20.77
326.339	20.77
326.47	-5.23
326.602	3.77
326.734	12.77
326.866	22.77
326.997	-10.23
327.129	-4.23
327.261	-2.23
327.392	-8.23
327.524	-13.23
327.656	2.77
327.787	0.77
327.919	4.77
328.051	-5.23
328.182	14.77
328.314	19.77
328.446	-1.23
328.577	7.77
328.709	14.77
328.841	-7.23
328.972	6.77
329.104	-2.23
329.235	-4.23
329.367	-5.23
329.499	8.77
329.63	17.77
329.762	6.77
329.893	7.77
330.025	9.77
330.156	-19.23
330.288	-0.23
330.419	32.77
330.551	28.77
330.683	13.77
330.814	-2.23
330.946	3.77
331.077	-7.23
331.208	-11.23
331.34	-14.23
331.471	-10.23
331.603	4.77
331.734	-17.23
331.866	13.77
331.997	3.77
332.129	-2.23
332.26	-6.23
332.392	12.77
332.523	-5.23
332.654	-17.23
332.786	7.77
332.917	0.77
333.048	29.77
333.18	19.77
333.311	-4.23
333.443	14.77
333.574	-6.23
333.705	12.77
333.837	-5.23
333.968	14.77
334.099	15.77
334.231	18.77
334.362	0.77
334.493	18.77
334.624	3.77
334.756	6.77
334.887	13.77
335.018	16.77
335.15	0.77
335.281	0.77
335.412	4.77
335.543	6.77
335.675	2.77
335.806	3.77
335.937	-7.23
336.068	8.77
336.199	33.77
336.331	20.77
336.462	-8.23
336.593	2.77
336.724	-1.23
336.855	17.77
336.986	14.77
337.118	5.77
337.249	36.77
337.38	24.77
337.511	7.77
337.642	5.77
337.773	13.77
337.904	28.77
338.035	14.77
338.166	2.77
338.298	7.77
338.429	-0.23
338.56	-5.23
338.691	5.77
338.822	12.77
338.953	-5.23
339.084	10.77
339.215	21.77
339.346	14.77
339.477	22.77
339.608	-6.23
339.739	-1.23
339.87	-0.23
340.001	-7.23
340.132	8.77
340.263	1.77
340.394	0.77
340.525	7.77
340.656	-7.23
340.787	-5.23
340.918	17.77
341.049	0.77
341.179	14.77
341.31	17.77
341.441	11.77
341.572	16.77
341.703	8.77
341.834	-3.23
341.965	14.77
342.096	-11.23
342.227	12.77
342.357	8.77
342.488	4.77
342.619	-1.23
342.75	4.77
342.881	0.77
343.012	11.77
343.142	13.77
343.273	3.77
343.404	6.77
343.535	37.77
343.666	16.77
343.796	28.77
343.927	29.77
344.058	27.77
344.189	14.77
344.319	5.77
344.45	1.77
344.581	12.77
344.712	-3.23
344.842	5.77
344.973	14.77
345.104	11.77
345.234	-3.23
345.365	-11.23
345.496	1.77
345.626	4.77
345.757	24.77
345.888	-5.23
346.018	13.77
346.149	10.77
346.28	20.77
346.41	4.77
346.541	4.77
346.672	2.77
346.802	11.77
346.933	11.77
347.063	10.77
347.194	4.77
347.325	3.77
347.455	17.77
347.586	-2.23
347.716	7.77
347.847	12.77
347.977	11.77
348.108	15.77
348.238	11.77
348.369	3.77
348.499	10.77
348.63	19.77
348.76	-9.23
348.891	17.77
349.021	32.77
349.152	16.77
349.282	-1.23
349.413	2.77
349.543	24.77
349.674	-7.23
349.804	4.77
349.935	10.77
350.065	-1.23
350.196	2.77
350.326	16.77
350.456	3.77
350.587	23.77
350.717	14.77
350.848	18.77
350.978	15.77
351.108	-6.23
351.239	4.77
351.369	4.77
351.499	12.77
351.63	14.77
351.76	16.77
351.89	12.77
352.021	7.77
352.151	-9.23
352.281	13.77
352.412	15.77
352.542	23.77
352.672	5.77
352.803	-8.23
352.933	15.77
353.063	19.77
353.193	0.77
353.324	2.77
353.454	22.77
353.584	20.77
353.714	14.77
353.845	-7.23
353.975	2.77
354.105	-12.23
354.235	6.77
354.365	11.77
354.496	8.77
354.626	10.77
354.756	21.77
354.886	0.77
355.016	16.77
355.146	12.77
355.277	10.77
355.407	6.77
355.537	24.77
355.667	17.77
355.797	4.77
355.927	-8.23
356.057	2.77
356.187	5.77
356.318	6.77
356.448	25.77
356.578	-8.23
356.708	14.77
356.838	1.77
356.968	6.77
357.098	10.77
357.228	24.77
357.358	-8.23
357.488	-16.23
357.618	37.77
357.748	14.77
357.878	8.77
358.008	-0.23
358.138	-11.23
358.268	-3.23
358.398	20.77
358.528	1.77
358.658	-4.23
358.788	-4.23
358.918	9.77
359.048	3.77
359.178	7.77
359.308	26.77
359.438	20.77
359.568	16.77
359.698	8.77
359.827	6.77
359.957	7.77
360.087	12.77
360.217	8.77
360.347	5.77
360.477	18.77
360.607	17.77
360.737	21.77
360.866	7.77
360.996	-11.23
361.126	-2.23
361.256	19.77
361.386	35.77
361.516	23.77
361.645	-4.23
361.775	23.77
361.905	-6.23
362.035	8.77
362.165	6.77
362.294	14.77
362.424	15.77
362.554	15.77
362.684	6.77
362.813	1.77
362.943	8.77
363.073	11.77
363.203	-0.23
363.332	5.77
363.462	7.77
363.592	4.77
363.721	14.77
363.851	24.77
363.981	11.77
364.111	-5.23
364.24	-11.23
364.37	3.77
364.5	27.77
364.629	21.77
364.759	-18.23
364.888	6.77
365.018	16.77
365.148	14.77
365.277	24.77
365.407	16.77
365.537	16.77
365.666	8.77
365.796	24.77
365.925	12.77
366.055	-0.23
366.184	12.77
366.314	10.77
366.444	19.77
366.573	11.77
366.703	-2.23
366.832	11.77
366.962	5.77
367.091	22.77
367.221	7.77
367.35	7.77
367.48	37.77
367.609	11.77
367.739	14.77
367.868	-12.23
367.998	9.77
368.127	16.77
368.257	18.77
368.386	24.77
368.516	19.77
368.645	7.77
368.775	20.77
368.904	20.77
369.033	15.77
369.163	-0.23
369.292	35.77
369.422	12.77
369.551	22.77
369.68	16.77
369.81	16.77
369.939	-5.23
370.069	28.77
370.198	8.77
370.327	-6.23
370.457	13.77
370.586	16.77
370.715	4.77
370.845	-0.23
370.974	3.77
371.103	30.77
371.233	24.77
371.362	16.77
371.491	-0.23
371.621	21.77
371.75	11.77
371.879	-1.23
372.008	20.77
372.138	8.77
372.267	5.77
372.396	20.77
372.525	7.77
372.655	14.77
372.784	-0.23
372.913	-11.23
373.042	4.77
373.172	19.77
373.301	-6.23
373.43	6.77
373.559	7.77
373.688	17.77
373.818	36.77
373.947	17.77
374.076	20.77
374.205	21.77
374.334	2.77
374.463	-15.23
374.593	23.77
374.722	26.77
374.851	21.77
374.98	5.77
375.109	0.77
375.238	7.77
375.367	33.77
375.496	-8.23
375.625	-15.23
375.755	23.77
375.884	18.77
376.013	20.77
376.142	-15.23
376.271	0.77
376.4	11.77
376.529	7.77
376.658	21.77
376.787	6.77
376.916	10.77
377.045	-3.23
377.174	-5.23
377.303	7.77
377.432	24.77
377.561	16.77
377.69	15.77
377.819	24.77
377.948	-1.23
378.077	-14.23
378.206	2.77
378.335	0.77
378.464	6.77
378.593	16.77
378.722	4.77
378.851	-0.23
378.98	14.77
379.108	-17.23
379.237	-10.23
379.366	9.77
379.495	9.77
379.624	19.77
379.753	23.77
379.882	23.77
380.011	15.77
380.14	-0.23
380.268	7.77
380.397	-6.23
380.526	31.77
380.655	-2.23
380.784	-20.23
380.913	-16.23
381.041	8.77
381.17	-10.23
381.299	3.77
381.428	4.77
381.557	12.77
381.685	9.77
381.814	12.77
381.943	-3.23
382.072	2.77
382.2	0.77
382.329	5.77
382.458	1.77
382.587	17.77
382.715	16.77
382.844	3.77
382.973	10.77
383.102	4.77
383.23	2.77
383.359	-0.23
383.488	9.77
383.616	13.77
383.745	8.77
383.874	8.77
384.003	0.77
384.131	-14.23
384.26	9.77
384.389	7.77
384.517	-3.23
384.646	-20.23
384.774	-9.23
384.903	23.77
385.032	20.77
385.16	-0.23
385.289	2.77
385.418	0.77
385.546	-4.23
385.675	24.77
385.803	4.77
385.932	10.77
386.06	-19.23
386.189	5.77
386.318	12.77
386.446	6.77
386.575	8.77
386.703	12.77
386.832	-13.23
386.96	-12.23
387.089	13.77
387.217	4.77
387.346	1.77
387.474	9.77
387.603	-1.23
387.731	5.77
387.86	14.77
387.988	15.77
388.117	24.77
388.245	8.77
388.374	15.77
388.502	30.77
388.631	-16.23
388.759	2.77
388.888	4.77
389.016	6.77
389.144	-4.23
389.273	15.77
389.401	13.77
389.53	-11.23
389.658	16.77
389.786	4.77
389.915	-6.23
390.043	-16.23
390.172	23.77
390.3	22.77
390.428	22.77
390.557	14.77
390.685	27.77
390.813	4.77
390.942	5.77
391.07	-2.23
391.198	9.77
391.327	9.77
391.455	-5.23
391.583	3.77
391.712	1.77
391.84	21.77
391.968	0.77
392.096	9.77
392.225	2.77
392.353	11.77
392.481	11.77
392.609	10.77
392.738	11.77
392.866	19.77
392.994	-5.23
393.122	27.77
393.251	-16.23
393.379	2.77
393.507	-8.23
393.635	14.77
393.764	7.77
393.892	24.77
394.02	-6.23
394.148	-4.23
394.276	2.77
394.404	29.77
394.533	18.77
394.661	18.77
394.789	19.77
394.917	35.77
395.045	0.77
395.173	-13.23
395.302	10.77
395.43	26.77
395.558	15.77
395.686	-5.23
395.814	6.77
395.942	4.77
396.07	-0.23
396.198	19.77
396.326	23.77
396.454	34.77
396.582	18.77
396.711	13.77
396.839	21.77
396.967	-4.23
397.095	2.77
397.223	13.77
397.351	17.77
397.479	35.77
397.607	10.77
397.735	37.77
397.863	23.77
397.991	6.77
398.119	-7.23
398.247	-5.23
398.375	21.77
398.503	43.77
398.631	11.77
398.759	0.77
398.887	-14.23
399.015	3.77
399.143	3.77
399.271	22.77
399.399	7.77
399.526	25.77
399.654	19.77
399.782	10.77
399.91	26.77
400.038	18.77
400.166	14.77
400.294	8.77
400.422	-3.23
400.55	14.77
400.678	-2.23
400.805	19.77
400.933	7.77
401.061	26.77
401.189	14.77
401.317	3.77
401.445	21.77
401.573	15.77
401.7	0.77
401.828	-6.23
401.956	4.77
402.084	18.77
402.212	7.77
402.34	7.77
402.467	22.77
402.595	1.77
402.723	-0.23
402.851	24.77
402.978	1.77
403.106	14.77
403.234	-1.23
403.362	43.77
403.489	18.77
403.617	14.77
403.745	7.77
403.873	4.77
404	19.77
404.128	0.77
404.256	0.77
404.384	28.77
404.511	18.77
404.639	-6.23
404.767	11.77
404.894	4.77
405.022	5.77
405.15	4.77
405.277	-0.23
405.405	0.77
405.533	4.77
405.66	-3.23
405.788	-18.23
405.916	-9.23
406.043	-1.23
406.171	-3.23
406.299	12.77
406.426	4.77
406.554	11.77
406.681	14.77
406.809	23.77
406.937	7.77
407.064	1.77
407.192	28.77
407.319	26.77
407.447	3.77
407.574	18.77
407.702	10.77
407.83	15.77
407.957	-7.23
408.085	13.77
408.212	1.77
408.34	-6.23
408.467	9.77
408.595	8.77
408.722	12.77
408.85	19.77
408.977	22.77
409.105	6.77
409.232	-0.23
409.36	5.77
409.487	3.77
409.615	22.77
409.742	27.77
409.87	31.77
409.997	40.77
410.125	51.77
410.252	70.77
410.379	63.77
410.507	35.77
410.634	2.77
410.762	16.77
410.889	24.77
411.017	-3.23
411.144	17.77
411.271	3.77
411.399	9.77
411.526	18.77
411.653	16.77
411.781	43.77
411.908	17.77
412.036	2.77
412.163	27.77
412.29	46.77
412.418	28.77
412.545	8.77
412.672	2.77
412.8	51.77
412.927	22.77
413.054	34.77
413.182	20.77
413.309	19.77
413.436	6.77
413.564	10.77
413.691	8.77
413.818	29.77
413.945	-17.23
414.073	-5.23
414.2	11.77
414.327	27.77
414.454	8.77
414.582	-0.23
414.709	0.77
414.836	15.77
414.963	11.77
415.091	14.77
415.218	-1.23
415.345	6.77
415.472	14.77
415.6	3.77
415.727	18.77
415.854	24.77
415.981	6.77
416.108	-1.23
416.236	10.77
416.363	-0.23
416.49	2.77
416.617	18.77
416.744	18.77
416.871	36.77
416.998	5.77
417.126	-3.23
417.253	11.77
417.38	-6.23
417.507	-2.23
417.634	20.77
417.761	12.77
417.888	25.77
418.015	4.77
418.143	11.77
418.27	30.77
418.397	20.77
418.524	20.77
418.651	15.77
418.778	10.77
418.905	30.77
419.032	18.77
419.159	8.77
419.286	14.77
419.413	7.77
419.54	14.77
419.667	-3.23
419.794	6.77
419.921	10.77
420.048	10.77
420.175	19.77
420.302	0.77
420.429	20.77
420.556	11.77
420.683	-13.23
420.81	-3.23
420.937	16.77
421.064	-3.23
421.191	16.77
421.318	14.77
421.445	19.77
421.572	-1.23
421.699	18.77
421.826	9.77
421.953	-0.23
422.08	21.77
422.207	-4.23
422.334	-17.23
422.461	29.77
422.588	-3.23
422.714	18.77
422.841	34.77
422.968	17.77
423.095	9.77
423.222	-8.23
423.349	1.77
423.476	19.77
423.603	7.77
423.729	7.77
423.856	-0.23
423.983	30.77
424.11	-7.23
424.237	18.77
424.364	17.77
424.491	4.77
424.617	-2.23
424.744	6.77
424.871	9.77
424.998	-3.23
425.125	19.77
425.251	3.77
425.378	-11.23
425.505	12.77
425.632	8.77
425.758	9.77
425.885	7.77
426.012	24.77
426.139	28.77
426.266	12.77
426.392	24.77
426.519	10.77
426.646	5.77
426.772	46.77
426.899	8.77
427.026	16.77
427.153	21.77
427.279	29.77
427.406	13.77
427.533	5.77
427.659	10.77
427.786	-4.23
427.913	11.77
428.039	6.77
428.166	11.77
428.293	0.77
428.419	21.77
428.546	2.77
428.673	-1.23
428.799	-0.23
428.926	15.77
429.053	39.77
429.179	19.77
429.306	-6.23
429.433	25.77
429.559	27.77
429.686	-0.23
429.812	9.77
429.939	15.77
430.066	-4.23
430.192	-12.23
430.319	17.77
430.445	-6.23
430.572	16.77
430.699	-2.23
430.825	1.77
430.952	5.77
431.078	7.77
431.205	22.77
431.331	12.77
431.458	6.77
431.584	14.77
431.711	10.77
431.837	-0.23
431.964	-11.23
432.09	15.77
432.217	-3.23
432.343	3.77
432.47	17.77
432.596	3.77
432.723	5.77
432.849	-3.23
432.976	8.77
433.102	28.77
433.229	0.77
433.355	39.77
433.482	74.77
433.608	154.77
433.735	122.77
433.861	108.77
433.987	143.77
434.114	231.77
434.24	217.77
434.367	68.77
434.493	5.77
434.62	10.77
434.746	15.77
434.872	14.77
434.999	35.77
435.125	3.77
435.252	16.77
435.378	9.77
435.504	2.77
435.631	7.77
435.757	19.77
435.883	23.77
436.01	12.77
436.136	-1.23
436.262	-4.23
436.389	27.77
436.515	13.77
436.641	8.77
436.768	13.77
436.894	13.77
437.02	3.77
437.147	17.77
437.273	18.77
437.399	-3.23
437.526	19.77
437.652	3.77
437.778	12.77
437.904	-7.23
438.031	11.77
438.157	7.77
438.283	6.77
438.409	5.77
438.536	11.77
438.662	6.77
438.788	25.77
438.914	18.77
439.041	13.77
439.167	43.77
439.293	0.77
439.419	11.77
439.546	6.77
439.672	6.77
439.798	21.77
439.924	12.77
440.05	29.77
440.177	17.77
440.303	0.77
440.429	16.77
440.555	17.77
440.681	-0.23
440.807	18.77
440.934	2.77
441.06	1.77
441.186	13.77
441.312	6.77
441.438	28.77
441.564	22.77
441.69	28.77
441.816	19.77
441.943	9.77
442.069	15.77
442.195	11.77
442.321	30.77
442.447	2.77
442.573	-5.23
442.699	17.77
442.825	5.77
442.951	19.77
443.077	16.77
443.203	23.77
443.33	3.77
443.456	-12.23
443.582	12.77
443.708	24.77
443.834	24.77
443.96	19.77
444.086	11.77
444.212	17.77
444.338	22.77
444.464	29.77
444.59	20.77
444.716	14.77
444.842	18.77
444.968	1.77
445.094	11.77
445.22	6.77
445.346	-5.23
445.472	-2.23
445.598	24.77
445.724	-10.23
445.85	18.77
445.976	2.77
446.102	9.77
446.228	16.77
446.354	21.77
446.48	13.77
446.605	11.77
446.731	29.77
446.857	-3.23
446.983	7.77
447.109	21.77
447.235	8.77
447.361	4.77
447.487	20.77
447.613	1.77
447.739	4.77
447.865	0.77
447.99	10.77
448.116	17.77
448.242	22.77
448.368	7.77
448.494	-18.23
448.62	12.77
448.746	23.77
448.872	12.77
448.997	-11.23
449.123	-4.23
449.249	25.77
449.375	15.77
449.501	13.77
449.627	14.77
449.752	31.77
449.878	8.77
450.004	11.77
450.13	9.77
450.256	8.77
450.381	-2.23
450.507	19.77
450.633	28.77
450.759	23.77
450.884	4.77
451.01	16.77
451.136	6.77
451.262	12.77
451.388	21.77
451.513	7.77
451.639	11.77
451.765	6.77
451.89	14.77
452.016	29.77
452.142	11.77
452.268	21.77
452.393	11.77
452.519	-16.23
452.645	-0.23
452.771	4.77
452.896	2.77
453.022	7.77
453.148	40.77
453.273	18.77
453.399	7.77
453.525	10.77
453.65	3.77
453.776	34.77
453.902	24.77
454.027	11.77
454.153	17.77
454.279	12.77
454.404	14.77
454.53	22.77
454.656	46.77
454.781	3.77
454.907	19.77
455.032	19.77
455.158	29.77
455.284	35.77
455.409	10.77
455.535	27.77
455.66	11.77
455.786	0.77
455.912	17.77
456.037	5.77
456.163	11.77
456.288	9.77
456.414	-3.23
456.539	-8.23
456.665	36.77
456.791	28.77
456.916	-4.23
457.042	8.77
457.167	0.77
457.293	17.77
457.418	4.77
457.544	3.77
457.669	15.77
457.795	25.77
457.92	13.77
458.046	27.77
458.171	11.77
458.297	-9.23
458.422	3.77
458.548	7.77
458.673	27.77
458.799	-2.23
458.924	-1.23
459.05	12.77
459.175	0.77
459.301	5.77
459.426	21.77
459.552	36.77
459.677	9.77
459.803	22.77
459.928	27.77
460.053	26.77
460.179	34.77
460.304	17.77
460.43	-2.23
460.555	14.77
460.681	15.77
460.806	6.77
460.931	11.77
461.057	6.77
461.182	-3.23
461.308	11.77
461.433	19.77
461.558	15.77
461.684	30.77
461.809	19.77
461.934	12.77
462.06	11.77
462.185	5.77
462.311	24.77
462.436	24.77
462.561	12.77
462.687	13.77
462.812	16.77
462.937	4.77
463.063	-1.23
463.188	-5.23
463.313	16.77
463.439	6.77
463.564	11.77
463.689	15.77
463.814	16.77
463.94	-1.23
464.065	29.77
464.19	30.77
464.316	3.77
464.441	-1.23
464.566	10.77
464.692	14.77
464.817	24.77
464.942	2.77
465.067	5.77
465.193	-12.23
465.318	13.77
465.443	14.77
465.568	13.77
465.694	8.77
465.819	37.77
465.944	28.77
466.069	21.77
466.194	28.77
466.32	17.77
466.445	4.77
466.57	1.77
466.695	13.77
466.82	23.77
466.946	21.77
467.071	23.77
467.196	6.77
467.321	24.77
467.446	-3.23
467.572	8.77
467.697	-5.23
467.822	-1.23
467.947	11.77
468.072	-4.23
468.197	1.77
468.323	9.77
468.448	17.77
468.573	3.77
468.698	12.77
468.823	24.77
468.948	8.77
469.073	7.77
469.198	21.77
469.324	28.77
469.449	9.77
469.574	21.77
469.699	30.77
469.824	35.77
469.949	-8.23
470.074	24.77
470.199	45.77
470.324	22.77
470.449	15.77
470.574	12.77
470.7	16.77
470.825	19.77
470.95	24.77
471.075	9.77
471.2	8.77
471.325	21.77
471.45	2.77
471.575	3.77
471.7	30.77
471.825	5.77
471.95	17.77
472.075	-1.23
472.2	11.77
472.325	3.77
472.45	8.77
472.575	5.77
472.7	3.77
472.825	23.77
472.95	31.77
473.075	18.77
473.2	18.77
473.325	23.77
473.45	5.77
473.575	-9.23
473.7	7.77
473.825	4.77
473.95	19.77
474.075	20.77
474.2	2.77
474.325	16.77
474.45	21.77
474.574	18.77
474.699	20.77
474.824	13.77
474.949	-5.23
475.074	-1.23
475.199	23.77
475.324	12.77
475.449	12.77
475.574	32.77
475.699	13.77
475.824	13.77
475.949	20.77
476.073	11.77
476.198	13.77
476.323	8.77
476.448	11.77
476.573	14.77
476.698	22.77
476.823	11.77
476.947	21.77
477.072	4.77
477.197	5.77
477.322	13.77
477.447	16.77
477.572	18.77
477.697	4.77
477.821	6.77
477.946	34.77
478.071	20.77
478.196	14.77
478.321	6.77
478.445	19.77
478.57	0.77
478.695	14.77
478.82	14.77
478.945	7.77
479.069	3.77
479.194	7.77
479.319	18.77
479.444	27.77
479.569	19.77
479.693	20.77
479.818	23.77
479.943	23.77
480.068	10.77
480.192	7.77
480.317	27.77
480.442	26.77
480.567	10.77
480.691	1.77
480.816	2.77
480.941	-7.23
481.066	9.77
481.19	27.77
481.315	28.77
481.44	20.77
481.564	6.77
481.689	30.77
481.814	16.77
481.938	28.77
482.063	9.77
482.188	19.77
482.313	40.77
482.437	32.77
482.562	35.77
482.687	54.77
482.811	40.77
482.936	22.77
483.061	27.77
483.185	33.77
483.31	31.77
483.435	-16.23
483.559	8.77
483.684	20.77
483.808	33.77
483.933	3.77
484.058	11.77
484.182	22.77
484.307	21.77
484.432	12.77
484.556	6.77
484.681	13.77
484.805	36.77
484.93	40.77
485.055	48.77
485.179	75.77
485.304	108.77
485.428	368.77
485.553	1233.77
485.678	1735.77
485.802	1638.77
485.927	1756.77
486.051	2642.77
486.176	1632.77
486.3	456.77
486.425	150.77
486.549	87.77
486.674	68.77
486.799	42.77
486.923	38.77
487.048	43.77
487.172	20.77
487.297	26.77
487.421	22.77
487.546	28.77
487.67	25.77
487.795	31.77
487.919	28.77
488.044	25.77
488.168	33.77
488.293	31.77
488.417	31.77
488.542	24.77
488.666	25.77
488.791	51.77
488.915	29.77
489.04	28.77
489.164	34.77
489.289	17.77
489.413	16.77
489.538	15.77
489.662	28.77
489.786	-4.23
489.911	23.77
490.035	9.77
490.16	-0.23
490.284	15.77
490.409	5.77
490.533	11.77
490.658	46.77
490.782	30.77
490.906	20.77
491.031	16.77
491.155	34.77
491.28	34.77
491.404	26.77
491.528	15.77
491.653	8.77
491.777	18.77
491.902	17.77
492.026	22.77
492.15	26.77
492.275	38.77
492.399	37.77
492.524	18.77
492.648	28.77
492.772	11.77
492.897	39.77
493.021	11.77
493.145	47.77
493.27	32.77
493.394	25.77
493.518	-1.23
493.643	9.77
493.767	27.77
493.891	3.77
494.016	7.77
494.14	8.77
494.264	15.77
494.389	8.77
494.513	6.77
494.637	10.77
494.762	34.77
494.886	42.77
495.01	27.77
495.134	16.77
495.259	24.77
495.383	16.77
495.507	22.77
495.632	32.77
495.756	39.77
495.88	37.77
496.004	8.77
496.129	10.77
496.253	21.77
496.377	14.77
496.501	35.77
496.626	12.77
496.75	14.77
496.874	17.77
496.998	22.77
497.123	17.77
497.247	2.77
497.371	20.77
497.495	12.77
497.62	31.77
497.744	15.77
497.868	8.77
497.992	26.77
498.116	16.77
498.241	24.77
498.365	16.77
498.489	12.77
498.613	37.77
498.737	1.77
498.862	21.77
498.986	20.77
499.11	27.77
499.234	8.77
499.358	-2.23
499.482	18.77
499.607	12.77
499.731	19.77
499.855	35.77
499.979	9.77
500.103	19.77
500.227	28.77
500.351	19.77
500.476	14.77
500.6	12.77
500.724	21.77
500.848	26.77
500.972	25.77
501.096	32.77
501.22	36.77
501.344	16.77
501.469	11.77
501.593	12.77
501.717	2.77
501.841	25.77
501.965	11.77
502.089	-4.23
502.213	24.77
502.337	6.77
502.461	15.77
502.585	19.77
502.709	17.77
502.834	2.77
502.958	-5.23
503.082	6.77
503.206	27.77
503.33	20.77
503.454	19.77
503.578	31.77
503.702	23.77
503.826	24.77
503.95	10.77
504.074	10.77
504.198	17.77
504.322	3.77
504.446	9.77
504.57	7.77
504.694	19.77
504.818	15.77
504.942	34.77
505.066	27.77
505.19	16.77
505.314	7.77
505.438	14.77
505.562	-12.23
505.686	18.77
505.81	14.77
505.934	26.77
506.058	10.77
506.182	7.77
506.306	35.77
506.43	-1.23
506.554	12.77
506.678	0.77
506.802	14.77
506.926	27.77
507.05	23.77
507.174	36.77
507.298	17.77
507.422	24.77
507.546	31.77
507.67	14.77
507.794	10.77
507.918	21.77
508.042	22.77
508.165	0.77
508.289	4.77
508.413	22.77
508.537	4.77
508.661	35.77
508.785	21.77
508.909	14.77
509.033	11.77
509.157	16.77
509.281	22.77
509.405	19.77
509.528	39.77
509.652	25.77
509.776	14.77
509.9	40.77
510.024	26.77
510.148	7.77
510.272	21.77
510.396	24.77
510.519	-5.23
510.643	19.77
510.767	14.77
510.891	10.77
511.015	4.77
511.139	12.77
511.263	40.77
511.386	28.77
511.51	19.77
511.634	10.77
511.758	16.77
511.882	-8.23
512.006	32.77
512.129	26.77
512.253	39.77
512.377	6.77
512.501	14.77
512.625	19.77
512.748	3.77
512.872	-0.23
512.996	7.77
513.12	26.77
513.244	12.77
513.367	27.77
513.491	25.77
513.615	28.77
513.739	12.77
513.862	-4.23
513.986	23.77
514.11	21.77
514.234	-2.23
514.358	12.77
514.481	34.77
514.605	0.77
514.729	3.77
514.853	36.77
514.976	10.77
515.1	17.77
515.224	40.77
515.348	17.77
515.471	11.77
515.595	30.77
515.719	6.77
515.842	20.77
515.966	15.77
516.09	21.77
516.214	21.77
516.337	29.77
516.461	11.77
516.585	7.77
516.708	22.77
516.832	23.77
516.956	23.77
517.08	31.77
517.203	8.77
517.327	27.77
517.451	25.77
517.574	47.77
517.698	9.77
517.822	45.77
517.945	39.77
518.069	18.77
518.193	34.77
518.316	35.77
518.44	21.77
518.564	19.77
518.687	26.77
518.811	42.77
518.935	66.77
519.058	42.77
519.182	41.77
519.306	42.77
519.429	23.77
519.553	65.77
519.676	28.77
519.8	14.77
519.924	6.77
520.047	14.77
520.171	-3.23
520.294	-2.23
520.418	6.77
520.542	10.77
520.665	24.77
520.789	12.77
520.913	-9.23
521.036	-15.23
521.16	8.77
521.283	19.77
521.407	0.77
521.53	11.77
521.654	10.77
521.778	33.77
521.901	19.77
522.025	13.77
522.148	8.77
522.272	32.77
522.395	-6.23
522.519	10.77
522.643	3.77
522.766	-5.23
522.89	15.77
523.013	33.77
523.137	7.77
523.26	23.77
523.384	16.77
523.507	16.77
523.631	10.77
523.754	9.77
523.878	3.77
524.002	13.77
524.125	-1.23
524.249	-1.23
524.372	17.77
524.496	24.77
524.619	23.77
524.743	16.77
524.866	21.77
524.99	21.77
525.113	5.77
525.237	22.77
525.36	-5.23
525.484	14.77
525.607	8.77
525.731	12.77
525.854	19.77
525.978	43.77
526.101	10.77
526.224	-4.23
526.348	20.77
526.471	19.77
526.595	9.77
526.718	20.77
526.842	7.77
526.965	12.77
527.089	7.77
527.212	3.77
527.336	6.77
527.459	31.77
527.582	13.77
527.706	12.77
527.829	16.77
527.953	14.77
528.076	4.77
528.2	8.77
528.323	18.77
528.446	22.77
528.57	34.77
528.693	32.77
528.817	8.77
528.94	19.77
529.064	39.77
529.187	1.77
529.31	4.77
529.434	-1.23
529.557	-0.23
529.68	14.77
529.804	7.77
529.927	28.77
530.051	6.77
530.174	2.77
530.297	19.77
530.421	15.77
530.544	18.77
530.668	32.77
530.791	-7.23
530.914	26.77
531.038	5.77
531.161	8.77
531.284	19.77
531.408	14.77
531.531	3.77
531.654	-4.23
531.778	16.77
531.901	6.77
532.024	22.77
532.148	22.77
532.271	10.77
532.394	20.77
532.518	31.77
532.641	20.77
532.764	25.77
532.888	18.77
533.011	4.77
533.134	15.77
533.258	32.77
533.381	13.77
533.504	17.77
533.628	28.77
533.751	17.77
533.874	8.77
533.997	13.77
534.121	16.77
534.244	15.77
534.367	-11.23
534.491	12.77
534.614	12.77
534.737	25.77
534.86	19.77
534.984	-6.23
535.107	15.77
535.23	15.77
535.354	3.77
535.477	-2.23
535.6	12.77
535.723	12.77
535.847	22.77
535.97	7.77
536.093	25.77
536.216	5.77
536.34	9.77
536.463	22.77
536.586	8.77
536.709	20.77
536.833	31.77
536.956	4.77
537.079	14.77
537.202	26.77
537.325	-6.23
537.449	-1.23
537.572	16.77
537.695	-1.23
537.818	-6.23
537.941	-8.23
538.065	8.77
538.188	-1.23
538.311	24.77
538.434	26.77
538.558	25.77
538.681	23.77
538.804	4.77
538.927	25.77
539.05	8.77
539.173	16.77
539.297	0.77
539.42	15.77
539.543	-0.23
539.666	29.77
539.789	24.77
539.913	12.77
540.036	11.77
540.159	13.77
540.282	15.77
540.405	8.77
540.528	15.77
540.651	19.77
540.775	15.77
540.898	25.77
541.021	9.77
541.144	2.77
541.267	-6.23
541.39	9.77
541.513	27.77
541.637	12.77
541.76	2.77
541.883	26.77
542.006	28.77
542.129	24.77
542.252	10.77
542.375	7.77
542.498	2.77
542.622	21.77
542.745	25.77
542.868	11.77
542.991	26.77
543.114	19.77
543.237	18.77
543.36	33.77
543.483	14.77
543.606	16.77
543.73	26.77
543.853	16.77
543.976	11.77
544.099	20.77
544.222	17.77
544.345	8.77
544.468	-2.23
544.591	18.77
544.714	22.77
544.837	31.77
544.96	19.77
545.083	28.77
545.206	8.77
545.329	25.77
545.453	18.77
545.576	9.77
545.699	6.77
545.822	16.77
545.945	28.77
546.068	5.77
546.191	7.77
546.314	11.77
546.437	14.77
546.56	24.77
546.683	17.77
546.806	14.77
546.929	3.77
547.052	-9.23
547.175	6.77
547.298	29.77
547.421	0.77
547.544	11.77
547.667	16.77
547.79	15.77
547.913	-5.23
548.036	-6.23
548.159	13.77
548.282	9.77
548.405	5.77
548.528	12.77
548.651	-1.23
548.774	9.77
548.897	12.77
549.02	23.77
549.143	44.77
549.266	30.77
549.389	14.77
549.512	-9.23
549.635	23.77
549.758	15.77
549.881	3.77
550.004	12.77
550.127	20.77
550.25	14.77
550.373	4.77
550.496	6.77
550.619	17.77
550.742	17.77
550.865	14.77
550.988	22.77
551.111	32.77
551.234	20.77
551.356	1.77
551.479	-8.23
551.602	26.77
551.725	18.77
551.848	26.77
551.971	20.77
552.094	18.77
552.217	8.77
552.34	11.77
552.463	-7.23
552.586	10.77
552.709	2.77
552.832	7.77
552.955	19.77
553.077	22.77
553.2	11.77
553.323	-4.23
553.446	8.77
553.569	3.77
553.692	18.77
553.815	14.77
553.938	25.77
554.061	42.77
554.184	8.77
554.306	14.77
554.429	4.77
554.552	28.77
554.675	-5.23
554.798	2.77
554.921	12.77
555.044	10.77
555.167	3.77
555.29	9.77
555.412	4.77
555.535	20.77
555.658	9.77
555.781	18.77
555.904	12.77
556.027	26.77
556.15	30.77
556.272	17.77
556.395	18.77
556.518	9.77
556.641	-0.23
556.764	22.77
556.887	26.77
557.01	-5.23
557.132	-22.23
557.255	14.77
557.378	14.77
557.501	17.77
557.624	20.77
557.747	27.77
557.869	23.77
557.992	16.77
558.115	4.77
558.238	8.77
558.361	20.77
558.483	34.77
558.606	20.77
558.729	14.77
558.852	33.77
558.975	27.77
559.098	15.77
559.22	23.77
559.343	34.77
559.466	14.77
559.589	14.77
559.712	19.77
559.834	0.77
559.957	25.77
560.08	23.77
560.203	27.77
560.325	27.77
560.448	31.77
560.571	26.77
560.694	-3.23
560.817	16.77
560.939	18.77
561.062	0.77
561.185	14.77
561.308	4.77
561.43	2.77
561.553	-1.23
561.676	5.77
561.799	16.77
561.921	10.77
562.044	2.77
562.167	6.77
562.29	32.77
562.413	32.77
562.535	36.77
562.658	29.77
562.781	7.77
562.903	-1.23
563.026	16.77
563.149	32.77
563.272	14.77
563.394	17.77
563.517	26.77
563.64	2.77
563.763	15.77
563.885	37.77
564.008	24.77
564.131	32.77
564.254	11.77
564.376	12.77
564.499	0.77
564.622	9.77
564.744	21.77
564.867	-2.23
564.99	9.77
565.113	11.77
565.235	16.77
565.358	6.77
565.481	-11.23
565.603	0.77
565.726	16.77
565.849	16.77
565.971	20.77
566.094	18.77
566.217	6.77
566.34	10.77
566.462	22.77
566.585	16.77
566.708	39.77
566.83	19.77
566.953	40.77
567.076	14.77
567.198	6.77
567.321	2.77
567.444	14.77
567.566	6.77
567.689	-2.23
567.812	6.77
567.934	-4.23
568.057	11.77
568.18	10.77
568.302	7.77
568.425	15.77
568.548	15.77
568.67	19.77
568.793	13.77
568.916	13.77
569.038	14.77
569.161	14.77
569.283	22.77
569.406	14.77
569.529	8.77
569.651	7.77
569.774	1.77
569.897	2.77
570.019	16.77
570.142	17.77
570.265	28.77
570.387	17.77
570.51	14.77
570.632	22.77
570.755	13.77
570.878	20.77
571	-4.23
571.123	0.77
571.246	29.77
571.368	21.77
571.491	12.77
571.613	6.77
571.736	-13.23
571.859	16.77
571.981	-15.23
572.104	-5.23
572.226	36.77
572.349	12.77
572.472	2.77
572.594	13.77
572.717	12.77
572.839	12.77
572.962	18.77
573.085	22.77
573.207	5.77
573.33	12.77
573.452	42.77
573.575	30.77
573.697	12.77
573.82	14.77
573.943	-6.23
574.065	23.77
574.188	6.77
574.31	34.77
574.433	12.77
574.555	22.77
574.678	4.77
574.801	27.77
574.923	4.77
575.046	12.77
575.168	12.77
575.291	6.77
575.413	16.77
575.536	19.77
575.659	22.77
575.781	13.77
575.904	4.77
576.026	18.77
576.149	11.77
576.271	23.77
576.394	22.77
576.516	12.77
576.639	15.77
576.761	-13.23
576.884	-4.23
577.007	2.77
577.129	6.77
577.252	6.77
577.374	30.77
577.497	13.77
577.619	23.77
577.742	34.77
577.864	25.77
577.987	19.77
578.109	23.77
578.232	11.77
578.354	26.77
578.477	9.77
578.599	4.77
578.722	-3.23
578.844	-2.23
578.967	21.77
579.089	11.77
579.212	2.77
579.334	22.77
579.457	17.77
579.579	14.77
579.702	9.77
579.824	11.77
579.947	0.77
580.069	-9.23
580.192	5.77
580.314	28.77
580.437	13.77
580.559	32.77
580.682	23.77
580.804	21.77
580.927	23.77
581.049	36.77
581.172	24.77
581.294	11.77
581.417	24.77
581.539	12.77
581.662	4.77
581.784	17.77
581.907	8.77
582.029	15.77
582.152	8.77
582.274	23.77
582.396	12.77
582.519	-1.23
582.641	-5.23
582.764	10.77
582.886	24.77
583.009	9.77
583.131	11.77
583.254	6.77
583.376	27.77
583.499	23.77
583.621	12.77
583.743	6.77
583.866	31.77
583.988	2.77
584.111	5.77
584.233	5.77
584.356	7.77
584.478	8.77
584.601	10.77
584.723	21.77
584.845	28.77
584.968	2.77
585.09	8.77
585.213	24.77
585.335	8.77
585.458	14.77
585.58	13.77
585.702	15.77
585.825	27.77
585.947	15.77
586.07	1.77
586.192	-5.23
586.315	25.77
586.437	-7.23
586.559	15.77
586.682	-1.23
586.804	18.77
586.927	5.77
587.049	1.77
587.171	17.77
587.294	9.77
587.416	20.77
587.539	-0.23
587.661	-11.23
587.783	-3.23
587.906	-1.23
588.028	17.77
588.151	20.77
588.273	28.77
588.395	-5.23
588.518	9.77
588.64	12.77
588.763	19.77
588.885	16.77
589.007	21.77
589.13	-12.23
589.252	-4.23
589.375	21.77
589.497	4.77
589.619	13.77
589.742	8.77
589.864	32.77
589.986	20.77
590.109	-5.23
590.231	4.77
590.354	18.77
590.476	-7.23
590.598	2.77
590.721	-9.23
590.843	4.77
590.965	30.77
591.088	18.77
591.21	23.77
591.332	12.77
591.455	-9.23
591.577	0.77
591.7	40.77
591.822	10.77
591.944	4.77
592.067	17.77
592.189	10.77
592.311	18.77
592.434	8.77
592.556	6.77
592.678	-6.23
592.801	12.77
592.923	4.77
593.045	3.77
593.168	5.77
593.29	14.77
593.412	20.77
593.535	7.77
593.657	16.77
593.779	20.77
593.902	40.77
594.024	8.77
594.146	35.77
594.269	3.77
594.391	16.77
594.513	18.77
594.636	16.77
594.758	3.77
594.88	19.77
595.003	24.77
595.125	9.77
595.247	29.77
595.37	31.77
595.492	14.77
595.614	36.77
595.737	16.77
595.859	4.77
595.981	9.77
596.104	15.77
596.226	4.77
596.348	-3.23
596.471	5.77
596.593	26.77
596.715	13.77
596.838	11.77
596.96	3.77
597.082	30.77
597.204	10.77
597.327	14.77
597.449	-10.23
597.571	10.77
597.694	42.77
597.816	20.77
597.938	16.77
598.061	13.77
598.183	0.77
598.305	27.77
598.427	12.77
598.55	6.77
598.672	31.77
598.794	18.77
598.917	0.77
599.039	2.77
599.161	29.77
599.283	15.77
599.406	20.77
599.528	28.77
599.65	29.77
599.773	12.77
599.895	34.77
600.017	17.77
600.139	22.77
600.262	19.77
600.384	30.77
600.506	32.77
600.628	30.77
600.751	25.77
600.873	19.77
600.995	4.77
601.118	20.77
601.24	0.77
601.362	22.77
601.484	23.77
601.607	20.77
601.729	22.77
601.851	4.77
601.973	6.77
602.096	27.77
602.218	19.77
602.34	29.77
602.462	22.77
602.585	14.77
602.707	20.77
602.829	37.77
602.951	19.77
603.074	-5.23
603.196	26.77
603.318	15.77
603.44	17.77
603.563	0.77
603.685	2.77
603.807	22.77
603.929	10.77
604.052	19.77
604.174	34.77
604.296	28.77
604.418	28.77
604.541	31.77
604.663	2.77
604.785	19.77
604.907	7.77
605.03	1.77
605.152	34.77
605.274	6.77
605.396	18.77
605.519	23.77
605.641	8.77
605.763	16.77
605.885	23.77
606.008	8.77
606.13	15.77
606.252	26.77
606.374	4.77
606.496	-11.23
606.619	1.77
606.741	6.77
606.863	36.77
606.985	20.77
607.108	15.77
607.23	16.77
607.352	6.77
607.474	15.77
607.596	16.77
607.719	14.77
607.841	13.77
607.963	3.77
608.085	6.77
608.207	40.77
608.33	11.77
608.452	-3.23
608.574	3.77
608.696	7.77
608.819	22.77
608.941	19.77
609.063	14.77
609.185	9.77
609.307	24.77
609.43	44.77
609.552	3.77
609.674	5.77
609.796	9.77
609.918	14.77
610.041	6.77
610.163	15.77
610.285	16.77
610.407	8.77
610.529	-11.23
610.652	19.77
610.774	30.77
610.896	22.77
611.018	21.77
611.14	10.77
611.263	15.77
611.385	12.77
611.507	29.77
611.629	2.77
611.751	18.77
611.873	27.77
611.996	23.77
612.118	20.77
612.24	11.77
612.362	23.77
612.484	21.77
612.607	4.77
612.729	27.77
612.851	15.77
612.973	13.77
613.095	8.77
613.218	16.77
613.34	17.77
613.462	15.77
613.584	15.77
613.706	16.77
613.828	38.77
613.951	11.77
614.073	14.77
614.195	-3.23
614.317	22.77
614.439	33.77
614.561	18.77
614.684	24.77
614.806	29.77
614.928	6.77
615.05	6.77
615.172	28.77
615.294	20.77
615.417	12.77
615.539	11.77
615.661	13.77
615.783	31.77
615.905	23.77
616.027	61.77
616.15	110.77
616.272	87.77
616.394	53.77
616.516	43.77
616.638	25.77
616.76	6.77
616.883	22.77
617.005	12.77
617.127	20.77
617.249	6.77
617.371	12.77
617.493	3.77
617.615	17.77
617.738	10.77
617.86	16.77
617.982	15.77
618.104	5.77
618.226	0.77
618.348	-9.23
618.471	15.77
618.593	2.77
618.715	-7.23
618.837	18.77
618.959	16.77
619.081	25.77
619.203	18.77
619.326	10.77
619.448	12.77
619.57	21.77
619.692	28.77
619.814	28.77
619.936	18.77
620.058	16.77
620.181	16.77
620.303	17.77
620.425	24.77
620.547	5.77
620.669	20.77
620.791	22.77
620.913	-1.23
621.036	19.77
621.158	7.77
621.28	13.77
621.402	3.77
621.524	-1.23
621.646	12.77
621.768	10.77
621.891	0.77
622.013	14.77
622.135	-6.23
622.257	17.77
622.379	7.77
622.501	11.77
622.623	21.77
622.745	2.77
622.868	-0.23
622.99	11.77
623.112	2.77
623.234	7.77
623.356	25.77
623.478	2.77
623.6	18.77
623.722	9.77
623.845	-5.23
623.967	-1.23
624.089	15.77
624.211	2.77
624.333	4.77
624.455	16.77
624.577	11.77
624.699	29.77
624.822	20.77
624.944	11.77
625.066	-5.23
625.188	15.77
625.31	7.77
625.432	20.77
625.554	10.77
625.676	17.77
625.799	2.77
625.921	10.77
626.043	12.77
626.165	8.77
626.287	-10.23
626.409	7.77
626.531	5.77
626.653	7.77
626.775	17.77
626.898	17.77
627.02	0.77
627.142	22.77
627.264	12.77
627.386	-5.23
627.508	6.77
627.63	2.77
627.752	22.77
627.874	15.77
627.997	26.77
628.119	36.77
628.241	31.77
628.363	40.77
628.485	13.77
628.607	12.77
628.729	18.77
628.851	15.77
628.973	8.77
629.096	17.77
629.218	22.77
629.34	6.77
629.462	-0.23
629.584	9.77
629.706	10.77
629.828	36.77
629.95	34.77
630.072	7.77
630.195	14.77
630.317	5.77
630.439	10.77
630.561	6.77
630.683	15.77
630.805	14.77
630.927	35.77
631.049	12.77
631.171	18.77
631.293	29.77
631.416	8.77
631.538	15.77
631.66	30.77
631.782	18.77
631.904	21.77
632.026	17.77
632.148	14.77
632.27	-4.23
632.392	15.77
632.514	25.77
632.637	36.77
632.759	17.77
632.881	-0.23
633.003	-7.23
633.125	-7.23
633.247	12.77
633.369	4.77
633.491	10.77
633.613	22.77
633.735	2.77
633.858	-0.23
633.98	25.77
634.102	7.77
634.224	13.77
634.346	15.77
634.468	22.77
634.59	23.77
634.712	18.77
634.834	35.77
634.956	-8.23
635.078	2.77
635.201	10.77
635.323	14.77
635.445	1.77
635.567	-4.23
635.689	25.77
635.811	7.77
635.933	18.77
636.055	4.77
636.177	9.77
636.299	16.77
636.421	9.77
636.544	-0.23
636.666	21.77
636.788	12.77
636.91	13.77
637.032	6.77
637.154	23.77
637.276	34.77
637.398	21.77
637.52	22.77
637.642	-0.23
637.764	19.77
637.887	13.77
638.009	-1.23
638.131	12.77
638.253	3.77
638.375	20.77
638.497	19.77
638.619	-6.23
638.741	14.77
638.863	-13.23
638.985	-5.23
639.107	1.77
639.23	12.77
639.352	18.77
639.474	15.77
639.596	9.77
639.718	2.77
639.84	15.77
639.962	20.77
640.084	19.77
640.206	21.77
640.328	0.77
640.45	1.77
640.573	-16.23
640.695	-1.23
640.817	20.77
640.939	12.77
641.061	-11.23
641.183	6.77
641.305	5.77
641.427	-2.23
641.549	5.77
641.671	8.77
641.793	22.77
641.915	22.77
642.038	0.77
642.16	-5.23
642.282	3.77
642.404	5.77
642.526	12.77
642.648	-0.23
642.77	12.77
642.892	6.77
643.014	21.77
643.136	11.77
643.258	11.77
643.381	30.77
643.503	32.77
643.625	8.77
643.747	9.77
643.869	9.77
643.991	6.77
644.113	23.77
644.235	9.77
644.357	20.77
644.479	23.77
644.601	7.77
644.723	14.77
644.846	19.77
644.968	10.77
645.09	-16.23
645.212	5.77
645.334	15.77
645.456	11.77
645.578	18.77
645.7	26.77
645.822	12.77
645.944	20.77
646.066	2.77
646.188	-1.23
646.311	40.77
646.433	12.77
646.555	51.77
646.677	46.77
646.799	33.77
646.921	14.77
647.043	30.77
647.165	-7.23
647.287	8.77
647.409	10.77
647.531	26.77
647.654	-8.23
647.776	14.77
647.898	33.77
648.02	7.77
648.142	10.77
648.264	2.77
648.386	1.77
648.508	3.77
648.63	5.77
648.752	13.77
648.874	-0.23
648.997	14.77
649.119	15.77
649.241	9.77
649.363	33.77
649.485	28.77
649.607	24.77
649.729	18.77
649.851	6.77
649.973	3.77
650.095	-1.23
650.217	4.77
650.34	14.77
650.462	22.77
650.584	2.77
650.706	5.77
650.828	33.77
650.95	-4.23
651.072	12.77
651.194	-8.23
651.316	7.77
651.438	12.77
651.56	-11.23
651.683	14.77
651.805	3.77
651.927	12.77
652.049	16.77
652.171	2.77
652.293	3.77
652.415	-8.23
652.537	-7.23
652.659	1.77
652.781	35.77
652.903	29.77
653.026	40.77
653.148	13.77
653.27	20.77
653.392	22.77
653.514	24.77
653.636	2.77
653.758	-0.23
653.88	2.77
654.002	-1.23
654.124	10.77
654.247	-5.23
654.369	39.77
654.491	18.77
654.613	8.77
654.735	2.77
654.857	26.77
654.979	42.77
655.101	41.77
655.223	48.77
655.345	30.77
655.468	26.77
655.59	18.77
655.712	30.77
655.834	16.77
655.956	25.77
656.078	35.77
656.2	48.77
656.322	39.77
656.444	35.77
656.566	45.77
656.689	52.77
656.811	70.77
656.933	98.77
657.055	90.77
657.177	148.77
657.299	234.77
657.421	494.77
657.543	1852.77
657.665	12496.77
657.787	15166.77
657.91	15222.77
658.032	15665.77
658.154	4581.77
658.276	3387.77
658.398	1126.77
658.52	1038.77
658.642	477.77
658.764	591.77
658.886	254.77
659.009	412.77
659.131	218.77
659.253	320.77
659.375	167.77
659.497	251.77
659.619	111.77
659.741	205.77
659.863	98.77
659.985	163.77
660.108	95.77
660.23	172.77
660.352	100.77
660.474	152.77
660.596	84.77
660.718	137.77
660.84	62.77
660.962	116.77
661.084	61.77
661.207	103.77
661.329	77.77
661.451	100.77
661.573	36.77
661.695	113.77
661.817	71.77
661.939	108.77
662.061	54.77
662.184	84.77
662.306	47.77
662.428	76.77
662.55	49.77
662.672	70.77
662.794	53.77
662.916	58.77
663.038	35.77
663.161	71.77
663.283	50.77
663.405	85.77
663.527	29.77
663.649	52.77
663.771	19.77
663.893	50.77
664.015	31.77
664.138	37.77
664.26	19.77
664.382	65.77
664.504	7.77
664.626	43.77
664.748	15.77
664.87	26.77
664.992	35.77
665.115	51.77
665.237	36.77
665.359	36.77
665.481	15.77
665.603	53.77
665.725	19.77
665.847	22.77
665.97	19.77
666.092	40.77
666.214	41.77
666.336	24.77
666.458	31.77
666.58	50.77
666.702	19.77
666.825	29.77
666.947	8.77
667.069	29.77
667.191	31.77
667.313	51.77
667.435	22.77
667.557	18.77
667.68	2.77
667.802	27.77
667.924	15.77
668.046	57.77
668.168	16.77
668.29	34.77
668.412	8.77
668.535	46.77
668.657	10.77
668.779	46.77
668.901	31.77
669.023	35.77
669.145	19.77
669.267	51.77
669.39	10.77
669.512	21.77
669.634	11.77
669.756	19.77
669.878	13.77
670	23.77
670.123	18.77
670.245	54.77
670.367	7.77
670.489	26.77
670.611	-0.23
670.733	11.77
670.856	5.77
670.978	21.77
671.1	26.77
671.222	47.77
671.344	28.77
671.466	16.77
671.589	4.77
671.711	26.77
671.833	6.77
671.955	26.77
672.077	8.77
672.199	44.77
672.322	40.77
672.444	21.77
672.566	45.77
672.688	14.77
672.81	15.77
672.932	21.77
673.055	-3.23
673.177	6.77
673.299	-3.23
673.421	9.77
673.543	12.77
673.665	22.77
673.788	6.77
673.91	14.77
674.032	-3.23
674.154	29.77
674.276	26.77
674.399	16.77
674.521	18.77
674.643	22.77
674.765	2.77
674.887	19.77
675.009	-0.23
675.132	-0.23
675.254	-1.23
675.376	11.77
675.498	16.77
675.62	12.77
675.743	4.77
675.865	24.77
675.987	8.77
676.109	20.77
676.231	20.77
676.354	46.77
676.476	9.77
676.598	32.77
676.72	5.77
676.842	30.77
676.965	13.77
677.087	30.77
677.209	22.77
677.331	20.77
677.453	18.77
677.576	24.77
677.698	19.77
677.82	29.77
677.942	14.77
678.064	10.77
678.187	8.77
678.309	16.77
678.431	6.77
678.553	24.77
678.675	33.77
678.798	36.77
678.92	13.77
679.042	27.77
679.164	-1.23
679.286	13.77
679.409	10.77
679.531	6.77
679.653	16.77
679.775	18.77
679.898	27.77
680.02	16.77
680.142	11.77
680.264	13.77
680.386	3.77
680.509	10.77
680.631	13.77
680.753	7.77
680.875	-1.23
680.998	32.77
681.12	10.77
681.242	16.77
681.364	2.77
681.486	10.77
681.609	-4.23
681.731	1.77
681.853	-4.23
681.975	26.77
682.098	19.77
682.22	36.77
682.342	12.77
682.464	35.77
682.587	15.77
682.709	-0.23
682.831	0.77
682.953	12.77
683.076	15.77
683.198	15.77
683.32	15.77
683.442	17.77
683.565	9.77
683.687	22.77
683.809	6.77
683.931	7.77
684.054	18.77
684.176	27.77
684.298	17.77
684.42	18.77
684.543	6.77
684.665	7.77
684.787	-12.23
684.909	4.77
685.032	1.77
685.154	-15.23
685.276	24.77
685.398	20.77
685.521	8.77
685.643	15.77
685.765	19.77
685.887	25.77
686.01	13.77
686.132	-9.23
686.254	5.77
686.377	8.77
686.499	10.77
686.621	16.77
686.743	22.77
686.866	16.77
686.988	29.77
687.11	24.77
687.232	31.77
687.355	19.77
687.477	8.77
687.599	11.77
687.722	11.77
687.844	7.77
687.966	8.77
688.088	8.77
688.211	30.77
688.333	18.77
688.455	16.77
688.578	23.77
688.7	8.77
688.822	26.77
688.944	-23.23
689.067	36.77
689.189	22.77
689.311	3.77
689.434	-2.23
689.556	18.77
689.678	15.77
689.801	13.77
689.923	26.77
690.045	15.77
690.167	17.77
690.29	28.77
690.412	10.77
690.534	20.77
690.657	12.77
690.779	14.77
690.901	-3.23
691.024	6.77
691.146	-2.23
691.268	7.77
691.391	2.77
691.513	21.77
691.635	16.77
691.758	38.77
691.88	18.77
692.002	-3.23
692.125	-1.23
692.247	13.77
692.369	-0.23
692.492	12.77
692.614	3.77
692.736	3.77
692.859	-4.23
692.981	-5.23
693.103	-1.23
693.226	6.77
693.348	23.77
693.47	20.77
693.593	12.77
693.715	-5.23
693.837	-8.23
693.96	10.77
694.082	4.77
694.204	17.77
694.327	-1.23
694.449	-9.23
694.571	11.77
694.694	27.77
694.816	22.77
694.938	3.77
695.061	14.77
695.183	13.77
695.305	10.77
695.428	15.77
695.55	-5.23
695.672	12.77
695.795	19.77
695.917	24.77
696.04	2.77
696.162	22.77
696.284	15.77
696.407	15.77
696.529	9.77
696.651	35.77
696.774	-3.23
696.896	27.77
697.019	18.77
697.141	16.77
697.263	11.77
697.386	8.77
697.508	18.77
697.63	19.77
697.753	3.77
697.875	13.77
697.998	6.77
698.12	11.77
698.242	4.77
698.365	11.77
698.487	6.77
698.61	24.77
698.732	28.77
698.854	14.77
698.977	9.77
699.099	30.77
699.221	9.77
699.344	9.77
699.466	-0.23
699.589	25.77
699.711	6.77
699.834	-4.23
699.956	-6.23
700.078	1.77
700.201	-0.23
700.323	36.77
700.446	33.77
700.568	15.77
700.69	9.77
700.813	14.77
700.935	5.77
701.058	12.77
701.18	2.77
701.302	15.77
701.425	6.77
701.547	26.77
701.67	-1.23
701.792	6.77
701.915	-4.23
702.037	10.77
702.159	0.77
702.282	0.77
702.404	2.77
702.527	25.77
702.649	26.77
702.772	27.77
702.894	5.77
703.017	9.77
703.139	14.77
703.261	23.77
703.384	24.77
703.506	-2.23
703.629	7.77
703.751	10.77
703.874	28.77
703.996	12.77
704.119	2.77
704.241	14.77
704.364	-6.23
704.486	17.77
704.608	16.77
704.731	-1.23
704.853	28.77
704.976	4.77
705.098	27.77
705.221	2.77
705.343	5.77
705.466	36.77
705.588	26.77
705.711	8.77
705.833	13.77
705.956	18.77
706.078	14.77
706.201	28.77
706.323	19.77
706.446	2.77
