Data from LowRes_H2_15_26_11_07_2024_HR4C61881__92__15-28-22-836.txt Node

Date: Thu Nov 07 15:28:22 EST 2024
User: crc00042
Spectrometer: HR4C6188
Trigger mode: 4
Integration Time (sec): 1.000000E-1
Scans to average: 1
Electric dark correction enabled: true
Nonlinearity correction enabled: false
Boxcar width: 0
XAxis mode: Wavelengths
Number of Pixels in Spectrum: 3648
>>>>>Begin Spectral Data<<<<<
245.66	-116.85
245.797	-116.85
245.934	-116.85
246.071	-77.85
246.208	10.15
246.344	17.15
246.481	-8.85
246.618	-12.85
246.755	30.15
246.892	-6.85
247.029	-13.85
247.165	-21.85
247.302	11.15
247.439	-5.85
247.576	13.15
247.713	-11.85
247.849	15.15
247.986	-4.85
248.123	1.15
248.26	-7.85
248.396	10.15
248.533	0.15
248.67	-21.85
248.806	0.15
248.943	-17.85
249.08	1.15
249.216	14.15
249.353	-14.85
249.49	-20.85
249.626	0.15
249.763	-0.85
249.9	4.15
250.036	2.15
250.173	9.15
250.309	-7.85
250.446	6.15
250.582	1.15
250.719	-10.85
250.856	-5.85
250.992	-5.85
251.129	-3.85
251.265	13.15
251.402	-5.85
251.538	-5.85
251.675	5.15
251.811	5.15
251.948	18.15
252.084	12.15
252.221	0.15
252.357	15.15
252.493	40.15
252.63	9.15
252.766	26.15
252.903	-5.85
253.039	0.15
253.175	23.15
253.312	1.15
253.448	4.15
253.585	-10.85
253.721	1.15
253.857	-1.85
253.994	9.15
254.13	17.15
254.266	20.15
254.403	4.15
254.539	-1.85
254.675	18.15
254.811	2.15
254.948	-6.85
255.084	0.15
255.22	-13.85
255.356	-6.85
255.493	-1.85
255.629	-0.85
255.765	-0.85
255.901	21.15
256.037	11.15
256.174	0.15
256.31	-2.85
256.446	1.15
256.582	4.15
256.718	28.15
256.854	20.15
256.991	15.15
257.127	17.15
257.263	8.15
257.399	5.15
257.535	-3.85
257.671	3.15
257.807	-10.85
257.943	3.15
258.079	-4.85
258.215	-5.85
258.351	13.15
258.487	9.15
258.623	28.15
258.759	1.15
258.895	-13.85
259.031	-9.85
259.167	-24.85
259.303	11.15
259.439	-1.85
259.575	-10.85
259.711	0.15
259.847	-9.85
259.983	-6.85
260.119	-29.85
260.255	-14.85
260.391	15.15
260.527	-7.85
260.663	6.15
260.799	13.15
260.934	11.15
261.07	5.15
261.206	5.15
261.342	-22.85
261.478	-4.85
261.614	5.15
261.749	9.15
261.885	15.15
262.021	19.15
262.157	19.15
262.293	-5.85
262.428	-4.85
262.564	10.15
262.7	9.15
262.836	-5.85
262.971	26.15
263.107	6.15
263.243	23.15
263.378	-10.85
263.514	-18.85
263.65	12.15
263.785	-13.85
263.921	-4.85
264.057	3.15
264.192	1.15
264.328	17.15
264.464	-4.85
264.599	-3.85
264.735	17.15
264.871	-16.85
265.006	12.15
265.142	13.15
265.277	2.15
265.413	19.15
265.548	17.15
265.684	3.15
265.819	4.15
265.955	-13.85
266.091	-7.85
266.226	-6.85
266.362	12.15
266.497	21.15
266.633	-0.85
266.768	-5.85
266.903	29.15
267.039	25.15
267.174	22.15
267.31	-3.85
267.445	-6.85
267.581	-22.85
267.716	1.15
267.851	21.15
267.987	12.15
268.122	14.15
268.258	2.15
268.393	-12.85
268.528	4.15
268.664	-5.85
268.799	-13.85
268.934	14.15
269.07	-9.85
269.205	1.15
269.34	14.15
269.476	7.15
269.611	-3.85
269.746	9.15
269.881	13.15
270.017	15.15
270.152	11.15
270.287	15.15
270.422	20.15
270.558	0.15
270.693	2.15
270.828	-5.85
270.963	-5.85
271.098	-13.85
271.234	-0.85
271.369	18.15
271.504	1.15
271.639	-12.85
271.774	8.15
271.909	12.15
272.045	-17.85
272.18	-22.85
272.315	0.15
272.45	0.15
272.585	-9.85
272.72	-3.85
272.855	5.15
272.99	22.15
273.125	4.15
273.26	15.15
273.395	-10.85
273.53	-3.85
273.665	2.15
273.8	-1.85
273.935	8.15
274.07	0.15
274.205	7.15
274.34	-10.85
274.475	10.15
274.61	18.15
274.745	0.15
274.88	20.15
275.015	-3.85
275.15	2.15
275.285	9.15
275.42	11.15
275.555	31.15
275.69	19.15
275.825	4.15
275.959	2.15
276.094	-8.85
276.229	0.15
276.364	-12.85
276.499	6.15
276.634	-4.85
276.768	4.15
276.903	11.15
277.038	18.15
277.173	0.15
277.308	-6.85
277.442	-10.85
277.577	8.15
277.712	10.15
277.847	9.15
277.981	-2.85
278.116	-12.85
278.251	6.15
278.386	17.15
278.52	2.15
278.655	6.15
278.79	22.15
278.924	-7.85
279.059	13.15
279.194	7.15
279.328	35.15
279.463	15.15
279.598	24.15
279.732	8.15
279.867	16.15
280.001	3.15
280.136	-5.85
280.271	22.15
280.405	12.15
280.54	10.15
280.674	-5.85
280.809	18.15
280.943	8.15
281.078	1.15
281.213	38.15
281.347	17.15
281.482	4.15
281.616	-6.85
281.751	3.15
281.885	3.15
282.02	-7.85
282.154	15.15
282.288	-6.85
282.423	-11.85
282.557	-1.85
282.692	-13.85
282.826	4.15
282.961	27.15
283.095	3.15
283.229	-11.85
283.364	-20.85
283.498	-3.85
283.633	4.15
283.767	11.15
283.901	7.15
284.036	-7.85
284.17	-11.85
284.304	-7.85
284.439	12.15
284.573	4.15
284.707	13.15
284.842	-2.85
284.976	11.15
285.11	-18.85
285.244	1.15
285.379	64.15
285.513	-1.85
285.647	3.15
285.781	7.15
285.916	14.15
286.05	-3.85
286.184	20.15
286.318	1.15
286.453	-8.85
286.587	-11.85
286.721	-32.85
286.855	10.15
286.989	1.15
287.123	-15.85
287.258	-6.85
287.392	-18.85
287.526	5.15
287.66	-5.85
287.794	-1.85
287.928	-13.85
288.062	9.15
288.196	-5.85
288.33	-6.85
288.464	4.15
288.598	4.15
288.733	14.15
288.867	12.15
289.001	12.15
289.135	0.15
289.269	-9.85
289.403	-9.85
289.537	13.15
289.671	19.15
289.805	-27.85
289.939	8.15
290.073	-6.85
290.207	20.15
290.34	2.15
290.474	36.15
290.608	-4.85
290.742	0.15
290.876	6.15
291.01	-1.85
291.144	17.15
291.278	14.15
291.412	4.15
291.546	-1.85
291.679	-14.85
291.813	0.15
291.947	-1.85
292.081	-9.85
292.215	-5.85
292.349	4.15
292.482	9.15
292.616	5.15
292.75	-11.85
292.884	9.15
293.018	-7.85
293.151	-17.85
293.285	-9.85
293.419	-14.85
293.553	-3.85
293.686	-18.85
293.82	3.15
293.954	18.15
294.088	29.15
294.221	1.15
294.355	6.15
294.489	1.15
294.622	-9.85
294.756	6.15
294.89	9.15
295.023	7.15
295.157	12.15
295.291	-6.85
295.424	2.15
295.558	-0.85
295.691	-5.85
295.825	-13.85
295.959	10.15
296.092	6.15
296.226	-2.85
296.359	-0.85
296.493	9.15
296.627	-10.85
296.76	-7.85
296.894	3.15
297.027	-3.85
297.161	-13.85
297.294	-11.85
297.428	4.15
297.561	38.15
297.695	-13.85
297.828	-3.85
297.962	3.15
298.095	1.15
298.229	22.15
298.362	4.15
298.495	-11.85
298.629	-7.85
298.762	-2.85
298.896	5.15
299.029	-7.85
299.162	-0.85
299.296	0.15
299.429	-12.85
299.563	11.15
299.696	0.15
299.829	12.15
299.963	23.15
300.096	25.15
300.229	6.15
300.363	5.15
300.496	-2.85
300.629	-13.85
300.763	-8.85
300.896	-4.85
301.029	-6.85
301.162	-3.85
301.296	-16.85
301.429	-10.85
301.562	-19.85
301.695	20.15
301.829	14.15
301.962	12.15
302.095	10.15
302.228	-16.85
302.362	-7.85
302.495	-4.85
302.628	0.15
302.761	6.15
302.894	7.15
303.027	3.15
303.161	23.15
303.294	-1.85
303.427	24.15
303.56	-2.85
303.693	-17.85
303.826	-0.85
303.959	-4.85
304.092	3.15
304.225	0.15
304.359	12.15
304.492	34.15
304.625	-2.85
304.758	5.15
304.891	0.15
305.024	-9.85
305.157	-16.85
305.29	-22.85
305.423	-3.85
305.556	22.15
305.689	24.15
305.822	-4.85
305.955	13.15
306.088	-22.85
306.221	2.15
306.354	-3.85
306.487	-7.85
306.62	-7.85
306.752	-12.85
306.885	-11.85
307.018	0.15
307.151	10.15
307.284	9.15
307.417	-8.85
307.55	6.15
307.683	8.15
307.816	20.15
307.948	4.15
308.081	9.15
308.214	0.15
308.347	23.15
308.48	-8.85
308.613	1.15
308.745	23.15
308.878	21.15
309.011	9.15
309.144	27.15
309.277	-0.85
309.409	8.15
309.542	2.15
309.675	29.15
309.808	11.15
309.94	11.15
310.073	5.15
310.206	-3.85
310.339	12.15
310.471	0.15
310.604	7.15
310.737	-7.85
310.869	4.15
311.002	4.15
311.135	12.15
311.267	-11.85
311.4	-5.85
311.533	20.15
311.665	-10.85
311.798	-11.85
311.93	16.15
312.063	3.15
312.196	-10.85
312.328	-2.85
312.461	-16.85
312.593	-7.85
312.726	-8.85
312.859	7.15
312.991	12.15
313.124	-9.85
313.256	12.15
313.389	-8.85
313.521	-14.85
313.654	-1.85
313.786	-4.85
313.919	-28.85
314.051	-19.85
314.184	-4.85
314.316	2.15
314.449	-26.85
314.581	-8.85
314.714	8.15
314.846	5.15
314.978	-22.85
315.111	-1.85
315.243	5.15
315.376	15.15
315.508	13.15
315.641	2.15
315.773	33.15
315.905	16.15
316.038	4.15
316.17	-17.85
316.302	13.15
316.435	4.15
316.567	23.15
316.699	17.15
316.832	-6.85
316.964	-0.85
317.096	-4.85
317.229	-7.85
317.361	-16.85
317.493	7.15
317.625	-19.85
317.758	13.15
317.89	5.15
318.022	-1.85
318.155	-5.85
318.287	12.15
318.419	16.15
318.551	1.15
318.683	-5.85
318.816	-2.85
318.948	1.15
319.08	-15.85
319.212	1.15
319.344	1.15
319.477	1.15
319.609	20.15
319.741	28.15
319.873	5.15
320.005	-6.85
320.137	1.15
320.269	33.15
320.401	1.15
320.534	10.15
320.666	-7.85
320.798	-23.85
320.93	-6.85
321.062	-6.85
321.194	8.15
321.326	7.15
321.458	12.15
321.59	15.15
321.722	-4.85
321.854	11.15
321.986	1.15
322.118	-13.85
322.25	12.15
322.382	-0.85
322.514	-3.85
322.646	-1.85
322.778	24.15
322.91	-5.85
323.042	0.15
323.174	-5.85
323.306	-22.85
323.438	-8.85
323.57	5.15
323.702	-0.85
323.834	-1.85
323.966	-7.85
324.097	-1.85
324.229	1.15
324.361	17.15
324.493	0.15
324.625	-10.85
324.757	1.15
324.889	-3.85
325.021	13.15
325.152	26.15
325.284	25.15
325.416	6.15
325.548	8.15
325.68	5.15
325.811	5.15
325.943	7.15
326.075	-16.85
326.207	3.15
326.339	7.15
326.47	7.15
326.602	1.15
326.734	18.15
326.866	9.15
326.997	8.15
327.129	-3.85
327.261	-9.85
327.392	-6.85
327.524	16.15
327.656	2.15
327.787	4.15
327.919	5.15
328.051	19.15
328.182	22.15
328.314	17.15
328.446	-9.85
328.577	17.15
328.709	13.15
328.841	-1.85
328.972	-13.85
329.104	-11.85
329.235	5.15
329.367	-5.85
329.499	-1.85
329.63	4.15
329.762	6.15
329.893	23.15
330.025	15.15
330.156	19.15
330.288	5.15
330.419	17.15
330.551	18.15
330.683	16.15
330.814	-12.85
330.946	17.15
331.077	7.15
331.208	-5.85
331.34	4.15
331.471	-7.85
331.603	6.15
331.734	-12.85
331.866	-0.85
331.997	13.15
332.129	6.15
332.26	3.15
332.392	10.15
332.523	1.15
332.654	-9.85
332.786	-2.85
332.917	7.15
333.048	29.15
333.18	7.15
333.311	-9.85
333.443	13.15
333.574	0.15
333.705	16.15
333.837	-8.85
333.968	3.15
334.099	19.15
334.231	18.15
334.362	-6.85
334.493	24.15
334.624	1.15
334.756	11.15
334.887	20.15
335.018	6.15
335.15	-7.85
335.281	9.15
335.412	13.15
335.543	-3.85
335.675	-4.85
335.806	25.15
335.937	21.15
336.068	-5.85
336.199	31.15
336.331	-2.85
336.462	11.15
336.593	28.15
336.724	11.15
336.855	1.15
336.986	14.15
337.118	13.15
337.249	12.15
337.38	22.15
337.511	3.15
337.642	15.15
337.773	5.15
337.904	5.15
338.035	2.15
338.166	-13.85
338.298	19.15
338.429	9.15
338.56	0.15
338.691	14.15
338.822	-3.85
338.953	1.15
339.084	16.15
339.215	34.15
339.346	6.15
339.477	6.15
339.608	1.15
339.739	-12.85
339.87	8.15
340.001	-18.85
340.132	6.15
340.263	8.15
340.394	21.15
340.525	26.15
340.656	4.15
340.787	-19.85
340.918	26.15
341.049	4.15
341.179	15.15
341.31	-6.85
341.441	8.15
341.572	-6.85
341.703	13.15
341.834	5.15
341.965	28.15
342.096	15.15
342.227	14.15
342.357	-3.85
342.488	0.15
342.619	3.15
342.75	2.15
342.881	-13.85
343.012	18.15
343.142	29.15
343.273	-17.85
343.404	11.15
343.535	27.15
343.666	7.15
343.796	11.15
343.927	21.15
344.058	7.15
344.189	23.15
344.319	1.15
344.45	5.15
344.581	-4.85
344.712	-13.85
344.842	1.15
344.973	1.15
345.104	0.15
345.234	-6.85
345.365	-27.85
345.496	6.15
345.626	26.15
345.757	22.15
345.888	-17.85
346.018	21.15
346.149	10.15
346.28	15.15
346.41	-9.85
346.541	13.15
346.672	5.15
346.802	16.15
346.933	1.15
347.063	4.15
347.194	8.15
347.325	17.15
347.455	16.15
347.586	12.15
347.716	-3.85
347.847	14.15
347.977	13.15
348.108	16.15
348.238	2.15
348.369	12.15
348.499	-13.85
348.63	-5.85
348.76	1.15
348.891	-2.85
349.021	1.15
349.152	13.15
349.282	-7.85
349.413	-15.85
349.543	8.15
349.674	4.15
349.804	9.15
349.935	9.15
350.065	8.15
350.196	-21.85
350.326	0.15
350.456	12.15
350.587	21.15
350.717	9.15
350.848	14.15
350.978	14.15
351.108	4.15
351.239	2.15
351.369	-4.85
351.499	-9.85
351.63	11.15
351.76	0.15
351.89	-4.85
352.021	3.15
352.151	-11.85
352.281	22.15
352.412	16.15
352.542	20.15
352.672	-1.85
352.803	-8.85
352.933	5.15
353.063	19.15
353.193	7.15
353.324	5.15
353.454	18.15
353.584	14.15
353.714	-4.85
353.845	24.15
353.975	13.15
354.105	0.15
354.235	17.15
354.365	21.15
354.496	4.15
354.626	9.15
354.756	32.15
354.886	2.15
355.016	7.15
355.146	7.15
355.277	10.15
355.407	6.15
355.537	-2.85
355.667	-0.85
355.797	-13.85
355.927	-3.85
356.057	10.15
356.187	-10.85
356.318	-2.85
356.448	5.15
356.578	17.15
356.708	5.15
356.838	-3.85
356.968	2.15
357.098	-1.85
357.228	4.15
357.358	-5.85
357.488	8.15
357.618	19.15
357.748	8.15
357.878	29.15
358.008	-6.85
358.138	9.15
358.268	3.15
358.398	23.15
358.528	7.15
358.658	5.15
358.788	-7.85
358.918	21.15
359.048	-0.85
359.178	27.15
359.308	18.15
359.438	34.15
359.568	22.15
359.698	14.15
359.827	-5.85
359.957	21.15
360.087	16.15
360.217	-8.85
360.347	6.15
360.477	20.15
360.607	-6.85
360.737	34.15
360.866	-4.85
360.996	-12.85
361.126	9.15
361.256	7.15
361.386	31.15
361.516	19.15
361.645	0.15
361.775	21.15
361.905	0.15
362.035	6.15
362.165	6.15
362.294	1.15
362.424	13.15
362.554	10.15
362.684	-6.85
362.813	-22.85
362.943	20.15
363.073	7.15
363.203	0.15
363.332	-8.85
363.462	-10.85
363.592	2.15
363.721	-2.85
363.851	-1.85
363.981	15.15
364.111	0.15
364.24	12.15
364.37	15.15
364.5	19.15
364.629	23.15
364.759	2.15
364.888	-1.85
365.018	3.15
365.148	0.15
365.277	-4.85
365.407	1.15
365.537	20.15
365.666	0.15
365.796	20.15
365.925	9.15
366.055	10.15
366.184	4.15
366.314	18.15
366.444	9.15
366.573	23.15
366.703	0.15
366.832	26.15
366.962	-2.85
367.091	29.15
367.221	8.15
367.35	7.15
367.48	45.15
367.609	-2.85
367.739	11.15
367.868	2.15
367.998	10.15
368.127	16.15
368.257	24.15
368.386	22.15
368.516	9.15
368.645	13.15
368.775	4.15
368.904	5.15
369.033	-3.85
369.163	-8.85
369.292	0.15
369.422	-0.85
369.551	20.15
369.68	11.15
369.81	17.15
369.939	5.15
370.069	25.15
370.198	4.15
370.327	-10.85
370.457	15.15
370.586	5.15
370.715	-3.85
370.845	-1.85
370.974	8.15
371.103	10.15
371.233	8.15
371.362	8.15
371.491	-1.85
371.621	22.15
371.75	17.15
371.879	-1.85
372.008	11.15
372.138	15.15
372.267	28.15
372.396	7.15
372.525	-1.85
372.655	-1.85
372.784	10.15
372.913	17.15
373.042	10.15
373.172	37.15
373.301	6.15
373.43	5.15
373.559	26.15
373.688	9.15
373.818	31.15
373.947	19.15
374.076	3.15
374.205	7.15
374.334	12.15
374.463	-5.85
374.593	9.15
374.722	-6.85
374.851	-5.85
374.98	5.15
375.109	3.15
375.238	10.15
375.367	14.15
375.496	-7.85
375.625	-1.85
375.755	11.15
375.884	22.15
376.013	22.15
376.142	-13.85
376.271	-0.85
376.4	14.15
376.529	0.15
376.658	-5.85
376.787	11.15
376.916	-1.85
377.045	10.15
377.174	19.15
377.303	17.15
377.432	26.15
377.561	12.15
377.69	12.15
377.819	8.15
377.948	8.15
378.077	-1.85
378.206	-19.85
378.335	7.15
378.464	2.15
378.593	24.15
378.722	5.15
378.851	10.15
378.98	37.15
379.108	-1.85
379.237	-4.85
379.366	1.15
379.495	10.15
379.624	5.15
379.753	13.15
379.882	9.15
380.011	-5.85
380.14	-11.85
380.268	-4.85
380.397	7.15
380.526	34.15
380.655	-0.85
380.784	-17.85
380.913	2.15
381.041	-0.85
381.17	-12.85
381.299	9.15
381.428	19.15
381.557	13.15
381.685	-4.85
381.814	9.15
381.943	6.15
382.072	5.15
382.2	2.15
382.329	4.15
382.458	5.15
382.587	14.15
382.715	31.15
382.844	1.15
382.973	6.15
383.102	-10.85
383.23	-11.85
383.359	-14.85
383.488	-2.85
383.616	14.15
383.745	-27.85
383.874	15.15
384.003	-2.85
384.131	4.15
384.26	8.15
384.389	9.15
384.517	-6.85
384.646	3.15
384.774	-2.85
384.903	23.15
385.032	20.15
385.16	-0.85
385.289	5.15
385.418	11.15
385.546	13.15
385.675	4.15
385.803	5.15
385.932	22.15
386.06	6.15
386.189	-21.85
386.318	-3.85
386.446	-13.85
386.575	18.15
386.703	15.15
386.832	5.15
386.96	-17.85
387.089	16.15
387.217	5.15
387.346	4.15
387.474	2.15
387.603	-2.85
387.731	2.15
387.86	16.15
387.988	16.15
388.117	35.15
388.245	11.15
388.374	-4.85
388.502	18.15
388.631	-10.85
388.759	2.15
388.888	7.15
389.016	-0.85
389.144	-7.85
389.273	-2.85
389.401	-4.85
389.53	3.15
389.658	9.15
389.786	-1.85
389.915	-4.85
390.043	10.15
390.172	9.15
390.3	30.15
390.428	11.15
390.557	18.15
390.685	-4.85
390.813	11.15
390.942	21.15
391.07	7.15
391.198	2.15
391.327	-1.85
391.455	0.15
391.583	26.15
391.712	13.15
391.84	0.15
391.968	-10.85
392.096	4.15
392.225	-7.85
392.353	5.15
392.481	-6.85
392.609	16.15
392.738	15.15
392.866	23.15
392.994	-10.85
393.122	23.15
393.251	0.15
393.379	-8.85
393.507	-11.85
393.635	-10.85
393.764	18.15
393.892	8.15
394.02	10.15
394.148	-2.85
394.276	12.15
394.404	30.15
394.533	18.15
394.661	-11.85
394.789	6.15
394.917	14.15
395.045	-8.85
395.173	-11.85
395.302	9.15
395.43	-4.85
395.558	13.15
395.686	17.15
395.814	11.15
395.942	-0.85
396.07	-3.85
396.198	14.15
396.326	19.15
396.454	25.15
396.582	18.15
396.711	1.15
396.839	1.15
396.967	5.15
397.095	-8.85
397.223	37.15
397.351	20.15
397.479	21.15
397.607	8.15
397.735	26.15
397.863	35.15
397.991	16.15
398.119	3.15
398.247	7.15
398.375	-2.85
398.503	1.15
398.631	-2.85
398.759	8.15
398.887	4.15
399.015	5.15
399.143	6.15
399.271	6.15
399.399	12.15
399.526	20.15
399.654	32.15
399.782	-4.85
399.91	12.15
400.038	19.15
400.166	4.15
400.294	2.15
400.422	2.15
400.55	15.15
400.678	-5.85
400.805	0.15
400.933	5.15
401.061	19.15
401.189	-4.85
401.317	15.15
401.445	24.15
401.573	18.15
401.7	11.15
401.828	7.15
401.956	9.15
402.084	40.15
402.212	31.15
402.34	13.15
402.467	22.15
402.595	0.15
402.723	0.15
402.851	12.15
402.978	12.15
403.106	15.15
403.234	15.15
403.362	24.15
403.489	31.15
403.617	5.15
403.745	-9.85
403.873	8.15
404	15.15
404.128	10.15
404.256	21.15
404.384	19.15
404.511	23.15
404.639	10.15
404.767	-15.85
404.894	0.15
405.022	13.15
405.15	25.15
405.277	20.15
405.405	3.15
405.533	-6.85
405.66	2.15
405.788	-4.85
405.916	-21.85
406.043	-12.85
406.171	-1.85
406.299	9.15
406.426	31.15
406.554	5.15
406.681	22.15
406.809	14.15
406.937	3.15
407.064	1.15
407.192	9.15
407.319	3.15
407.447	5.15
407.574	28.15
407.702	13.15
407.83	7.15
407.957	-3.85
408.085	11.15
408.212	8.15
408.34	11.15
408.467	10.15
408.595	25.15
408.722	9.15
408.85	27.15
408.977	14.15
409.105	36.15
409.232	17.15
409.36	6.15
409.487	19.15
409.615	14.15
409.742	28.15
409.87	32.15
409.997	38.15
410.125	42.15
410.252	37.15
410.379	53.15
410.507	44.15
410.634	18.15
410.762	8.15
410.889	17.15
411.017	15.15
411.144	26.15
411.271	-10.85
411.399	15.15
411.526	10.15
411.653	30.15
411.781	28.15
411.908	29.15
412.036	9.15
412.163	13.15
412.29	18.15
412.418	5.15
412.545	26.15
412.672	20.15
412.8	27.15
412.927	17.15
413.054	22.15
413.182	10.15
413.309	0.15
413.436	-10.85
413.564	29.15
413.691	19.15
413.818	25.15
413.945	-6.85
414.073	-1.85
414.2	15.15
414.327	4.15
414.454	24.15
414.582	5.15
414.709	5.15
414.836	1.15
414.963	1.15
415.091	20.15
415.218	15.15
415.345	10.15
415.472	20.15
415.6	-15.85
415.727	19.15
415.854	10.15
415.981	16.15
416.108	25.15
416.236	17.15
416.363	17.15
416.49	0.15
416.617	15.15
416.744	24.15
416.871	13.15
416.998	1.15
417.126	14.15
417.253	5.15
417.38	9.15
417.507	6.15
417.634	13.15
417.761	26.15
417.888	21.15
418.015	13.15
418.143	24.15
418.27	30.15
418.397	2.15
418.524	4.15
418.651	-4.85
418.778	21.15
418.905	43.15
419.032	16.15
419.159	2.15
419.286	40.15
419.413	23.15
419.54	30.15
419.667	2.15
419.794	-4.85
419.921	4.15
420.048	19.15
420.175	14.15
420.302	8.15
420.429	24.15
420.556	4.15
420.683	3.15
420.81	7.15
420.937	9.15
421.064	22.15
421.191	18.15
421.318	18.15
421.445	30.15
421.572	-4.85
421.699	26.15
421.826	25.15
421.953	5.15
422.08	16.15
422.207	-3.85
422.334	-1.85
422.461	11.15
422.588	2.15
422.714	20.15
422.841	46.15
422.968	38.15
423.095	19.15
423.222	5.15
423.349	27.15
423.476	4.15
423.603	4.15
423.729	-4.85
423.856	4.15
423.983	21.15
424.11	6.15
424.237	10.15
424.364	2.15
424.491	-5.85
424.617	-16.85
424.744	-11.85
424.871	8.15
424.998	8.15
425.125	-1.85
425.251	9.15
425.378	17.15
425.505	23.15
425.632	10.15
425.758	1.15
425.885	16.15
426.012	7.15
426.139	22.15
426.266	18.15
426.392	6.15
426.519	23.15
426.646	8.15
426.772	14.15
426.899	1.15
427.026	20.15
427.153	21.15
427.279	17.15
427.406	15.15
427.533	-8.85
427.659	16.15
427.786	11.15
427.913	38.15
428.039	14.15
428.166	10.15
428.293	5.15
428.419	25.15
428.546	8.15
428.673	-1.85
428.799	19.15
428.926	21.15
429.053	25.15
429.179	25.15
429.306	15.15
429.433	35.15
429.559	29.15
429.686	-3.85
429.812	3.15
429.939	7.15
430.066	1.15
430.192	-3.85
430.319	13.15
430.445	12.15
430.572	-8.85
430.699	-14.85
430.825	16.15
430.952	22.15
431.078	11.15
431.205	1.15
431.331	5.15
431.458	29.15
431.584	7.15
431.711	-4.85
431.837	19.15
431.964	-2.85
432.09	2.15
432.217	12.15
432.343	5.15
432.47	25.15
432.596	10.15
432.723	1.15
432.849	-18.85
432.976	6.15
433.102	23.15
433.229	23.15
433.355	42.15
433.482	90.15
433.608	169.15
433.735	166.15
433.861	129.15
433.987	156.15
434.114	237.15
434.24	192.15
434.367	77.15
434.493	10.15
434.62	23.15
434.746	25.15
434.872	10.15
434.999	29.15
435.125	5.15
435.252	-2.85
435.378	4.15
435.504	6.15
435.631	27.15
435.757	8.15
435.883	-0.85
436.01	15.15
436.136	6.15
436.262	20.15
436.389	16.15
436.515	14.15
436.641	23.15
436.768	15.15
436.894	16.15
437.02	21.15
437.147	30.15
437.273	31.15
437.399	8.15
437.526	18.15
437.652	2.15
437.778	22.15
437.904	4.15
438.031	9.15
438.157	2.15
438.283	12.15
438.409	3.15
438.536	6.15
438.662	11.15
438.788	7.15
438.914	16.15
439.041	20.15
439.167	27.15
439.293	8.15
439.419	14.15
439.546	15.15
439.672	4.15
439.798	12.15
439.924	11.15
440.05	15.15
440.177	30.15
440.303	2.15
440.429	9.15
440.555	33.15
440.681	6.15
440.807	24.15
440.934	15.15
441.06	10.15
441.186	29.15
441.312	9.15
441.438	-1.85
441.564	17.15
441.69	37.15
441.816	29.15
441.943	12.15
442.069	29.15
442.195	23.15
442.321	28.15
442.447	11.15
442.573	18.15
442.699	-5.85
442.825	1.15
442.951	-0.85
443.077	19.15
443.203	29.15
443.33	15.15
443.456	-1.85
443.582	20.15
443.708	8.15
443.834	14.15
443.96	17.15
444.086	10.15
444.212	18.15
444.338	28.15
444.464	20.15
444.59	19.15
444.716	14.15
444.842	24.15
444.968	9.15
445.094	16.15
445.22	12.15
445.346	2.15
445.472	7.15
445.598	6.15
445.724	1.15
445.85	14.15
445.976	2.15
446.102	22.15
446.228	10.15
446.354	9.15
446.48	-0.85
446.605	-3.85
446.731	5.15
446.857	9.15
446.983	15.15
447.109	13.15
447.235	8.15
447.361	-9.85
447.487	4.15
447.613	22.15
447.739	4.15
447.865	6.15
447.99	2.15
448.116	1.15
448.242	15.15
448.368	11.15
448.494	17.15
448.62	31.15
448.746	14.15
448.872	-4.85
448.997	-7.85
449.123	-13.85
449.249	37.15
449.375	12.15
449.501	11.15
449.627	-5.85
449.752	32.15
449.878	0.15
450.004	-3.85
450.13	26.15
450.256	28.15
450.381	18.15
450.507	16.15
450.633	13.15
450.759	26.15
450.884	22.15
451.01	28.15
451.136	5.15
451.262	26.15
451.388	15.15
451.513	11.15
451.639	19.15
451.765	11.15
451.89	17.15
452.016	-6.85
452.142	0.15
452.268	13.15
452.393	16.15
452.519	2.15
452.645	8.15
452.771	12.15
452.896	4.15
453.022	-3.85
453.148	35.15
453.273	9.15
453.399	16.15
453.525	1.15
453.65	4.15
453.776	15.15
453.902	11.15
454.027	21.15
454.153	18.15
454.279	12.15
454.404	0.15
454.53	37.15
454.656	37.15
454.781	18.15
454.907	5.15
455.032	4.15
455.158	32.15
455.284	31.15
455.409	14.15
455.535	26.15
455.66	18.15
455.786	25.15
455.912	11.15
456.037	-9.85
456.163	3.15
456.288	25.15
456.414	-10.85
456.539	0.15
456.665	10.15
456.791	11.15
456.916	12.15
457.042	5.15
457.167	-3.85
457.293	6.15
457.418	-0.85
457.544	2.15
457.669	9.15
457.795	8.15
457.92	15.15
458.046	11.15
458.171	25.15
458.297	13.15
458.422	13.15
458.548	-6.85
458.673	13.15
458.799	6.15
458.924	21.15
459.05	22.15
459.175	-5.85
459.301	0.15
459.426	9.15
459.552	21.15
459.677	1.15
459.803	23.15
459.928	2.15
460.053	9.15
460.179	18.15
460.304	31.15
460.43	-4.85
460.555	8.15
460.681	-1.85
460.806	-0.85
460.931	24.15
461.057	18.15
461.182	19.15
461.308	2.15
461.433	32.15
461.558	5.15
461.684	9.15
461.809	17.15
461.934	-11.85
462.06	21.15
462.185	-5.85
462.311	12.15
462.436	27.15
462.561	12.15
462.687	19.15
462.812	1.15
462.937	4.15
463.063	-0.85
463.188	-5.85
463.313	1.15
463.439	17.15
463.564	12.15
463.689	5.15
463.814	13.15
463.94	5.15
464.065	14.15
464.19	18.15
464.316	-1.85
464.441	12.15
464.566	-7.85
464.692	20.15
464.817	24.15
464.942	5.15
465.067	10.15
465.193	-22.85
465.318	-2.85
465.443	-7.85
465.568	1.15
465.694	8.15
465.819	32.15
465.944	27.15
466.069	9.15
466.194	22.15
466.32	37.15
466.445	6.15
466.57	6.15
466.695	0.15
466.82	9.15
466.946	20.15
467.071	22.15
467.196	16.15
467.321	22.15
467.446	7.15
467.572	-3.85
467.697	-6.85
467.822	5.15
467.947	3.15
468.072	10.15
468.197	2.15
468.323	1.15
468.448	14.15
468.573	9.15
468.698	13.15
468.823	29.15
468.948	17.15
469.073	3.15
469.198	25.15
469.324	35.15
469.449	8.15
469.574	24.15
469.699	42.15
469.824	25.15
469.949	23.15
470.074	16.15
470.199	46.15
470.324	9.15
470.449	19.15
470.574	16.15
470.7	1.15
470.825	32.15
470.95	22.15
471.075	-0.85
471.2	18.15
471.325	14.15
471.45	11.15
471.575	0.15
471.7	23.15
471.825	26.15
471.95	14.15
472.075	8.15
472.2	3.15
472.325	18.15
472.45	7.15
472.575	6.15
472.7	3.15
472.825	14.15
472.95	26.15
473.075	0.15
473.2	3.15
473.325	-3.85
473.45	13.15
473.575	2.15
473.7	16.15
473.825	11.15
473.95	33.15
474.075	4.15
474.2	-2.85
474.325	10.15
474.45	25.15
474.574	10.15
474.699	19.15
474.824	1.15
474.949	2.15
475.074	18.15
475.199	35.15
475.324	33.15
475.449	2.15
475.574	12.15
475.699	17.15
475.824	18.15
475.949	19.15
476.073	-0.85
476.198	9.15
476.323	21.15
476.448	10.15
476.573	-5.85
476.698	10.15
476.823	10.15
476.947	21.15
477.072	13.15
477.197	10.15
477.322	7.15
477.447	9.15
477.572	12.15
477.697	24.15
477.821	14.15
477.946	8.15
478.071	18.15
478.196	29.15
478.321	18.15
478.445	1.15
478.57	8.15
478.695	17.15
478.82	16.15
478.945	9.15
479.069	3.15
479.194	13.15
479.319	21.15
479.444	15.15
479.569	11.15
479.693	4.15
479.818	23.15
479.943	20.15
480.068	5.15
480.192	16.15
480.317	10.15
480.442	1.15
480.567	9.15
480.691	1.15
480.816	7.15
480.941	0.15
481.066	12.15
481.19	23.15
481.315	15.15
481.44	6.15
481.564	8.15
481.689	35.15
481.814	26.15
481.938	17.15
482.063	14.15
482.188	8.15
482.313	34.15
482.437	2.15
482.562	19.15
482.687	15.15
482.811	25.15
482.936	35.15
483.061	22.15
483.185	15.15
483.31	19.15
483.435	16.15
483.559	30.15
483.684	14.15
483.808	29.15
483.933	7.15
484.058	6.15
484.182	18.15
484.307	11.15
484.432	14.15
484.556	14.15
484.681	-7.85
484.805	6.15
484.93	25.15
485.055	38.15
485.179	85.15
485.304	112.15
485.428	355.15
485.553	1287.15
485.678	1802.15
485.802	1703.15
485.927	1868.15
486.051	2742.15
486.176	1689.15
486.3	463.15
486.425	156.15
486.549	87.15
486.674	67.15
486.799	40.15
486.923	22.15
487.048	33.15
487.172	18.15
487.297	29.15
487.421	23.15
487.546	33.15
487.67	26.15
487.795	17.15
487.919	21.15
488.044	24.15
488.168	20.15
488.293	20.15
488.417	1.15
488.542	34.15
488.666	35.15
488.791	31.15
488.915	14.15
489.04	33.15
489.164	24.15
489.289	18.15
489.413	16.15
489.538	27.15
489.662	30.15
489.786	11.15
489.911	24.15
490.035	20.15
490.16	14.15
490.284	-5.85
490.409	-9.85
490.533	9.15
490.658	14.15
490.782	12.15
490.906	12.15
491.031	27.15
491.155	16.15
491.28	36.15
491.404	8.15
491.528	23.15
491.653	19.15
491.777	31.15
491.902	3.15
492.026	17.15
492.15	16.15
492.275	35.15
492.399	33.15
492.524	18.15
492.648	38.15
492.772	19.15
492.897	27.15
493.021	32.15
493.145	26.15
493.27	26.15
493.394	17.15
493.518	1.15
493.643	0.15
493.767	11.15
493.891	-0.85
494.016	20.15
494.14	21.15
494.264	22.15
494.389	29.15
494.513	12.15
494.637	14.15
494.762	27.15
494.886	45.15
495.01	17.15
495.134	16.15
495.259	26.15
495.383	7.15
495.507	12.15
495.632	19.15
495.756	26.15
495.88	33.15
496.004	28.15
496.129	4.15
496.253	3.15
496.377	16.15
496.501	34.15
496.626	3.15
496.75	11.15
496.874	4.15
496.998	-5.85
497.123	24.15
497.247	2.15
497.371	21.15
497.495	17.15
497.62	23.15
497.744	12.15
497.868	4.15
497.992	9.15
498.116	11.15
498.241	22.15
498.365	15.15
498.489	11.15
498.613	34.15
498.737	-0.85
498.862	1.15
498.986	4.15
499.11	-10.85
499.234	9.15
499.358	-1.85
499.482	0.15
499.607	22.15
499.731	29.15
499.855	28.15
499.979	25.15
500.103	11.15
500.227	6.15
500.351	15.15
500.476	32.15
500.6	21.15
500.724	6.15
500.848	7.15
500.972	23.15
501.096	17.15
501.22	27.15
501.344	18.15
501.469	5.15
501.593	22.15
501.717	30.15
501.841	18.15
501.965	9.15
502.089	13.15
502.213	29.15
502.337	22.15
502.461	11.15
502.585	9.15
502.709	10.15
502.834	3.15
502.958	9.15
503.082	21.15
503.206	20.15
503.33	10.15
503.454	29.15
503.578	9.15
503.702	0.15
503.826	19.15
503.95	24.15
504.074	2.15
504.198	-1.85
504.322	-1.85
504.446	8.15
504.57	14.15
504.694	13.15
504.818	10.15
504.942	16.15
505.066	10.15
505.19	2.15
505.314	29.15
505.438	20.15
505.562	2.15
505.686	28.15
505.81	7.15
505.934	22.15
506.058	14.15
506.182	17.15
506.306	28.15
506.43	-1.85
506.554	15.15
506.678	16.15
506.802	12.15
506.926	18.15
507.05	20.15
507.174	34.15
507.298	23.15
507.422	22.15
507.546	20.15
507.67	20.15
507.794	5.15
507.918	10.15
508.042	4.15
508.165	-3.85
508.289	1.15
508.413	17.15
508.537	-5.85
508.661	24.15
508.785	5.15
508.909	6.15
509.033	14.15
509.157	10.15
509.281	4.15
509.405	13.15
509.528	7.15
509.652	23.15
509.776	20.15
509.9	13.15
510.024	20.15
510.148	20.15
510.272	28.15
510.396	16.15
510.519	7.15
510.643	31.15
510.767	18.15
510.891	9.15
511.015	11.15
511.139	1.15
511.263	27.15
511.386	1.15
511.51	11.15
511.634	-5.85
511.758	10.15
511.882	-5.85
512.006	32.15
512.129	17.15
512.253	34.15
512.377	16.15
512.501	17.15
512.625	0.15
512.748	-6.85
512.872	1.15
512.996	1.15
513.12	5.15
513.244	-3.85
513.367	26.15
513.491	23.15
513.615	16.15
513.739	2.15
513.862	14.15
513.986	10.15
514.11	24.15
514.234	6.15
514.358	4.15
514.481	47.15
514.605	6.15
514.729	11.15
514.853	16.15
514.976	-3.85
515.1	9.15
515.224	21.15
515.348	-5.85
515.471	-5.85
515.595	11.15
515.719	0.15
515.842	20.15
515.966	-5.85
516.09	34.15
516.214	9.15
516.337	38.15
516.461	25.15
516.585	25.15
516.708	11.15
516.832	32.15
516.956	18.15
517.08	21.15
517.203	-5.85
517.327	20.15
517.451	46.15
517.574	52.15
517.698	17.15
517.822	11.15
517.945	38.15
518.069	40.15
518.193	38.15
518.316	20.15
518.44	42.15
518.564	7.15
518.687	6.15
518.811	32.15
518.935	59.15
519.058	47.15
519.182	21.15
519.306	34.15
519.429	28.15
519.553	64.15
519.676	21.15
519.8	7.15
519.924	-8.85
520.047	16.15
520.171	13.15
520.294	7.15
520.418	12.15
520.542	10.15
520.665	34.15
520.789	2.15
520.913	-13.85
521.036	-9.85
521.16	0.15
521.283	-2.85
521.407	-2.85
521.53	-6.85
521.654	-5.85
521.778	23.15
521.901	7.15
522.025	-4.85
522.148	5.15
522.272	24.15
522.395	7.15
522.519	19.15
522.643	-1.85
522.766	15.15
522.89	10.15
523.013	16.15
523.137	6.15
523.26	0.15
523.384	21.15
523.507	16.15
523.631	9.15
523.754	10.15
523.878	0.15
524.002	17.15
524.125	3.15
524.249	8.15
524.372	22.15
524.496	15.15
524.619	4.15
524.743	4.15
524.866	-4.85
524.99	6.15
525.113	6.15
525.237	22.15
525.36	17.15
525.484	5.15
525.607	-10.85
525.731	-19.85
525.854	9.15
525.978	22.15
526.101	6.15
526.224	19.15
526.348	23.15
526.471	14.15
526.595	22.15
526.718	15.15
526.842	9.15
526.965	9.15
527.089	-0.85
527.212	9.15
527.336	10.15
527.459	12.15
527.582	1.15
527.706	23.15
527.829	26.15
527.953	21.15
528.076	6.15
528.2	3.15
528.323	27.15
528.446	37.15
528.57	16.15
528.693	37.15
528.817	19.15
528.94	9.15
529.064	45.15
529.187	17.15
529.31	4.15
529.434	5.15
529.557	0.15
529.68	0.15
529.804	20.15
529.927	4.15
530.051	19.15
530.174	1.15
530.297	7.15
530.421	12.15
530.544	21.15
530.668	15.15
530.791	11.15
530.914	16.15
531.038	9.15
531.161	11.15
531.284	18.15
531.408	28.15
531.531	-1.85
531.654	-6.85
531.778	18.15
531.901	18.15
532.024	20.15
532.148	7.15
532.271	38.15
532.394	18.15
532.518	45.15
532.641	19.15
532.764	28.15
532.888	15.15
533.011	13.15
533.134	-3.85
533.258	9.15
533.381	7.15
533.504	7.15
533.628	-5.85
533.751	1.15
533.874	6.15
533.997	15.15
534.121	8.15
534.244	16.15
534.367	2.15
534.491	20.15
534.614	6.15
534.737	14.15
534.86	-1.85
534.984	3.15
535.107	19.15
535.23	3.15
535.354	0.15
535.477	-10.85
535.6	4.15
535.723	7.15
535.847	12.15
535.97	9.15
536.093	0.15
536.216	17.15
536.34	16.15
536.463	10.15
536.586	19.15
536.709	11.15
536.833	8.15
536.956	30.15
537.079	-0.85
537.202	26.15
537.325	22.15
537.449	8.15
537.572	15.15
537.695	1.15
537.818	13.15
537.941	-6.85
538.065	9.15
538.188	-15.85
538.311	25.15
538.434	24.15
538.558	4.15
538.681	3.15
538.804	10.15
538.927	18.15
539.05	17.15
539.173	-6.85
539.297	-2.85
539.42	13.15
539.543	11.15
539.666	22.15
539.789	19.15
539.913	8.15
540.036	19.15
540.159	11.15
540.282	-4.85
540.405	-2.85
540.528	13.15
540.651	13.15
540.775	11.15
540.898	26.15
541.021	14.15
541.144	10.15
541.267	3.15
541.39	5.15
541.513	32.15
541.637	7.15
541.76	-6.85
541.883	-8.85
542.006	5.15
542.129	21.15
542.252	-13.85
542.375	7.15
542.498	0.15
542.622	27.15
542.745	17.15
542.868	23.15
542.991	28.15
543.114	34.15
543.237	51.15
543.36	20.15
543.483	23.15
543.606	21.15
543.73	39.15
543.853	7.15
543.976	5.15
544.099	24.15
544.222	23.15
544.345	5.15
544.468	9.15
544.591	13.15
544.714	17.15
544.837	35.15
544.96	4.15
545.083	22.15
545.206	18.15
545.329	45.15
545.453	25.15
545.576	13.15
545.699	18.15
545.822	12.15
545.945	19.15
546.068	7.15
546.191	17.15
546.314	19.15
546.437	11.15
546.56	8.15
546.683	10.15
546.806	20.15
546.929	0.15
547.052	-15.85
547.175	1.15
547.298	19.15
547.421	-9.85
547.544	11.15
547.667	30.15
547.79	27.15
547.913	-13.85
548.036	2.15
548.159	8.15
548.282	7.15
548.405	14.15
548.528	13.15
548.651	8.15
548.774	12.15
548.897	21.15
549.02	41.15
549.143	38.15
549.266	11.15
549.389	24.15
549.512	13.15
549.635	32.15
549.758	26.15
549.881	-18.85
550.004	4.15
550.127	-3.85
550.25	21.15
550.373	-5.85
550.496	8.15
550.619	10.15
550.742	22.15
550.865	0.15
550.988	29.15
551.111	11.15
551.234	20.15
551.356	-0.85
551.479	-4.85
551.602	7.15
551.725	1.15
551.848	22.15
551.971	34.15
552.094	10.15
552.217	2.15
552.34	7.15
552.463	-2.85
552.586	8.15
552.709	9.15
552.832	0.15
552.955	28.15
553.077	21.15
553.2	1.15
553.323	10.15
553.446	7.15
553.569	13.15
553.692	7.15
553.815	7.15
553.938	10.15
554.061	6.15
554.184	6.15
554.306	-1.85
554.429	5.15
554.552	17.15
554.675	4.15
554.798	20.15
554.921	18.15
555.044	-1.85
555.167	0.15
555.29	-2.85
555.412	11.15
555.535	-1.85
555.658	-14.85
555.781	16.15
555.904	21.15
556.027	30.15
556.15	-0.85
556.272	16.15
556.395	9.15
556.518	5.15
556.641	1.15
556.764	14.15
556.887	22.15
557.01	-0.85
557.132	-6.85
557.255	6.15
557.378	7.15
557.501	0.15
557.624	24.15
557.747	17.15
557.869	14.15
557.992	32.15
558.115	28.15
558.238	12.15
558.361	13.15
558.483	22.15
558.606	15.15
558.729	1.15
558.852	34.15
558.975	40.15
559.098	20.15
559.22	13.15
559.343	5.15
559.466	14.15
559.589	10.15
559.712	9.15
559.834	12.15
559.957	3.15
560.08	5.15
560.203	20.15
560.325	21.15
560.448	20.15
560.571	4.15
560.694	8.15
560.817	25.15
560.939	14.15
561.062	14.15
561.185	22.15
561.308	18.15
561.43	-8.85
561.553	14.15
561.676	1.15
561.799	13.15
561.921	20.15
562.044	13.15
562.167	0.15
562.29	28.15
562.413	22.15
562.535	30.15
562.658	-17.85
562.781	0.15
562.903	9.15
563.026	17.15
563.149	28.15
563.272	26.15
563.394	7.15
563.517	-0.85
563.64	3.15
563.763	7.15
563.885	20.15
564.008	21.15
564.131	17.15
564.254	7.15
564.376	18.15
564.499	4.15
564.622	11.15
564.744	-6.85
564.867	13.15
564.99	7.15
565.113	14.15
565.235	12.15
565.358	1.15
565.481	5.15
565.603	-1.85
565.726	-0.85
565.849	11.15
565.971	25.15
566.094	13.15
566.217	26.15
566.34	17.15
566.462	18.15
566.585	20.15
566.708	19.15
566.83	28.15
566.953	12.15
567.076	11.15
567.198	20.15
567.321	2.15
567.444	21.15
567.566	-3.85
567.689	7.15
567.812	5.15
567.934	-2.85
568.057	5.15
568.18	14.15
568.302	9.15
568.425	1.15
568.548	17.15
568.67	17.15
568.793	24.15
568.916	5.15
569.038	16.15
569.161	24.15
569.283	18.15
569.406	22.15
569.529	24.15
569.651	6.15
569.774	4.15
569.897	27.15
570.019	28.15
570.142	33.15
570.265	20.15
570.387	15.15
570.51	19.15
570.632	19.15
570.755	18.15
570.878	21.15
571	9.15
571.123	5.15
571.246	6.15
571.368	4.15
571.491	10.15
571.613	-3.85
571.736	-12.85
571.859	-0.85
571.981	7.15
572.104	-4.85
572.226	2.15
572.349	-20.85
572.472	-2.85
572.594	10.15
572.717	18.15
572.839	-0.85
572.962	3.15
573.085	10.15
573.207	10.15
573.33	6.15
573.452	5.15
573.575	14.15
573.697	14.15
573.82	6.15
573.943	16.15
574.065	10.15
574.188	8.15
574.31	28.15
574.433	26.15
574.555	49.15
574.678	17.15
574.801	8.15
574.923	-5.85
575.046	7.15
575.168	-3.85
575.291	13.15
575.413	11.15
575.536	14.15
575.659	24.15
575.781	-7.85
575.904	14.15
576.026	16.15
576.149	15.15
576.271	25.15
576.394	26.15
576.516	8.15
576.639	15.15
576.761	1.15
576.884	-8.85
577.007	16.15
577.129	13.15
577.252	16.15
577.374	36.15
577.497	20.15
577.619	17.15
577.742	2.15
577.864	35.15
577.987	14.15
578.109	30.15
578.232	25.15
578.354	13.15
578.477	4.15
578.599	16.15
578.722	21.15
578.844	21.15
578.967	10.15
579.089	14.15
579.212	-10.85
579.334	27.15
579.457	0.15
579.579	15.15
579.702	11.15
579.824	17.15
579.947	9.15
580.069	9.15
580.192	6.15
580.314	15.15
580.437	4.15
580.559	17.15
580.682	10.15
580.804	6.15
580.927	25.15
581.049	18.15
581.172	31.15
581.294	22.15
581.417	11.15
581.539	13.15
581.662	36.15
581.784	17.15
581.907	12.15
582.029	16.15
582.152	-5.85
582.274	4.15
582.396	14.15
582.519	14.15
582.641	-9.85
582.764	11.15
582.886	20.15
583.009	6.15
583.131	9.15
583.254	18.15
583.376	37.15
583.499	20.15
583.621	5.15
583.743	22.15
583.866	22.15
583.988	1.15
584.111	29.15
584.233	11.15
584.356	18.15
584.478	-2.85
584.601	7.15
584.723	7.15
584.845	32.15
584.968	1.15
585.09	-1.85
585.213	5.15
585.335	-12.85
585.458	6.15
585.58	12.15
585.702	20.15
585.825	17.15
585.947	19.15
586.07	-2.85
586.192	-2.85
586.315	-3.85
586.437	-1.85
586.559	2.15
586.682	-8.85
586.804	-1.85
586.927	-3.85
587.049	12.15
587.171	13.15
587.294	31.15
587.416	30.15
587.539	20.15
587.661	-2.85
587.783	-2.85
587.906	24.15
588.028	25.15
588.151	0.15
588.273	25.15
588.395	5.15
588.518	9.15
588.64	17.15
588.763	17.15
588.885	20.15
589.007	21.15
589.13	-2.85
589.252	0.15
589.375	18.15
589.497	11.15
589.619	17.15
589.742	4.15
589.864	10.15
589.986	14.15
590.109	-2.85
590.231	9.15
590.354	17.15
590.476	0.15
590.598	7.15
590.721	1.15
590.843	0.15
590.965	2.15
591.088	25.15
591.21	10.15
591.332	3.15
591.455	-1.85
591.577	6.15
591.7	21.15
591.822	13.15
591.944	26.15
592.067	8.15
592.189	1.15
592.311	11.15
592.434	-8.85
592.556	21.15
592.678	20.15
592.801	25.15
592.923	20.15
593.045	18.15
593.168	14.15
593.29	11.15
593.412	28.15
593.535	10.15
593.657	17.15
593.779	29.15
593.902	28.15
594.024	1.15
594.146	28.15
594.269	10.15
594.391	5.15
594.513	10.15
594.636	13.15
594.758	-18.85
594.88	2.15
595.003	24.15
595.125	-3.85
595.247	12.15
595.37	18.15
595.492	8.15
595.614	35.15
595.737	15.15
595.859	22.15
595.981	14.15
596.104	14.15
596.226	11.15
596.348	7.15
596.471	0.15
596.593	20.15
596.715	-2.85
596.838	2.15
596.96	-6.85
597.082	18.15
597.204	6.15
597.327	-1.85
597.449	5.15
597.571	19.15
597.694	26.15
597.816	21.15
597.938	8.15
598.061	8.15
598.183	1.15
598.305	19.15
598.427	19.15
598.55	1.15
598.672	9.15
598.794	16.15
598.917	12.15
599.039	14.15
599.161	17.15
599.283	2.15
599.406	16.15
599.528	10.15
599.65	34.15
599.773	34.15
599.895	38.15
600.017	32.15
600.139	4.15
600.262	-6.85
600.384	20.15
600.506	16.15
600.628	20.15
600.751	8.15
600.873	14.15
600.995	19.15
601.118	28.15
601.24	14.15
601.362	20.15
601.484	13.15
601.607	22.15
601.729	16.15
601.851	3.15
601.973	6.15
602.096	9.15
602.218	2.15
602.34	10.15
602.462	17.15
602.585	7.15
602.707	14.15
602.829	23.15
602.951	20.15
603.074	6.15
603.196	8.15
603.318	7.15
603.44	21.15
603.563	10.15
603.685	15.15
603.807	10.15
603.929	14.15
604.052	30.15
604.174	12.15
604.296	21.15
604.418	18.15
604.541	30.15
604.663	10.15
604.785	8.15
604.907	5.15
605.03	6.15
605.152	49.15
605.274	10.15
605.396	7.15
605.519	-7.85
605.641	13.15
605.763	17.15
605.885	10.15
606.008	-1.85
606.13	21.15
606.252	16.15
606.374	-2.85
606.496	-6.85
606.619	21.15
606.741	2.15
606.863	25.15
606.985	29.15
607.108	27.15
607.23	27.15
607.352	12.15
607.474	-10.85
607.596	13.15
607.719	-10.85
607.841	6.15
607.963	10.15
608.085	6.15
608.207	46.15
608.33	17.15
608.452	16.15
608.574	7.15
608.696	17.15
608.819	7.15
608.941	9.15
609.063	13.15
609.185	6.15
609.307	7.15
609.43	40.15
609.552	22.15
609.674	2.15
609.796	6.15
609.918	16.15
610.041	5.15
610.163	13.15
610.285	-1.85
610.407	5.15
610.529	-9.85
610.652	9.15
610.774	17.15
610.896	7.15
611.018	5.15
611.14	6.15
611.263	-18.85
611.385	5.15
611.507	15.15
611.629	6.15
611.751	18.15
611.873	32.15
611.996	13.15
612.118	15.15
612.24	13.15
612.362	21.15
612.484	34.15
612.607	34.15
612.729	41.15
612.851	17.15
612.973	-2.85
613.095	-4.85
613.218	2.15
613.34	17.15
613.462	9.15
613.584	15.15
613.706	-6.85
613.828	35.15
613.951	12.15
614.073	19.15
614.195	3.15
614.317	23.15
614.439	23.15
614.561	18.15
614.684	31.15
614.806	20.15
614.928	20.15
615.05	-3.85
615.172	24.15
615.294	24.15
615.417	10.15
615.539	-9.85
615.661	-3.85
615.783	30.15
615.905	34.15
616.027	65.15
616.15	115.15
616.272	86.15
616.394	65.15
616.516	28.15
616.638	22.15
616.76	18.15
616.883	26.15
617.005	4.15
617.127	3.15
617.249	8.15
617.371	26.15
617.493	8.15
617.615	20.15
617.738	33.15
617.86	19.15
617.982	-8.85
618.104	10.15
618.226	5.15
618.348	14.15
618.471	13.15
618.593	20.15
618.715	8.15
618.837	-5.85
618.959	24.15
619.081	32.15
619.203	13.15
619.326	9.15
619.448	2.15
619.57	4.15
619.692	14.15
619.814	25.15
619.936	17.15
620.058	3.15
620.181	0.15
620.303	9.15
620.425	6.15
620.547	2.15
620.669	10.15
620.791	10.15
620.913	1.15
621.036	3.15
621.158	18.15
621.28	23.15
621.402	5.15
621.524	1.15
621.646	14.15
621.768	-6.85
621.891	7.15
622.013	4.15
622.135	-1.85
622.257	6.15
622.379	-10.85
622.501	5.15
622.623	2.15
622.745	25.15
622.868	9.15
622.99	12.15
623.112	7.15
623.234	13.15
623.356	24.15
623.478	5.15
623.6	28.15
623.722	7.15
623.845	7.15
623.967	0.15
624.089	0.15
624.211	18.15
624.333	17.15
624.455	8.15
624.577	11.15
624.699	8.15
624.822	13.15
624.944	2.15
625.066	-1.85
625.188	5.15
625.31	8.15
625.432	16.15
625.554	17.15
625.676	30.15
625.799	5.15
625.921	7.15
626.043	8.15
626.165	8.15
626.287	-19.85
626.409	17.15
626.531	-3.85
626.653	1.15
626.775	18.15
626.898	8.15
627.02	12.15
627.142	34.15
627.264	16.15
627.386	5.15
627.508	23.15
627.63	8.15
627.752	34.15
627.874	20.15
627.997	16.15
628.119	9.15
628.241	15.15
628.363	7.15
628.485	16.15
628.607	-9.85
628.729	-7.85
628.851	4.15
628.973	5.15
629.096	1.15
629.218	10.15
629.34	19.15
629.462	-6.85
629.584	-13.85
629.706	-1.85
629.828	14.15
629.95	1.15
630.072	8.15
630.195	11.15
630.317	18.15
630.439	-7.85
630.561	19.15
630.683	10.15
630.805	18.15
630.927	6.15
631.049	-6.85
631.171	8.15
631.293	28.15
631.416	25.15
631.538	17.15
631.66	0.15
631.782	17.15
631.904	16.15
632.026	1.15
632.148	18.15
632.27	-14.85
632.392	10.15
632.514	21.15
632.637	-6.85
632.759	3.15
632.881	2.15
633.003	14.15
633.125	11.15
633.247	-8.85
633.369	2.15
633.491	10.15
633.613	29.15
633.735	14.15
633.858	13.15
633.98	13.15
634.102	2.15
634.224	0.15
634.346	-6.85
634.468	7.15
634.59	17.15
634.712	-10.85
634.834	-2.85
634.956	3.15
635.078	14.15
635.201	9.15
635.323	13.15
635.445	-4.85
635.567	-11.85
635.689	15.15
635.811	8.15
635.933	9.15
636.055	11.15
636.177	12.15
636.299	23.15
636.421	14.15
636.544	-8.85
636.666	21.15
636.788	19.15
636.91	13.15
637.032	1.15
637.154	14.15
637.276	37.15
637.398	30.15
637.52	30.15
637.642	8.15
637.764	14.15
637.887	6.15
638.009	13.15
638.131	23.15
638.253	8.15
638.375	17.15
638.497	8.15
638.619	-10.85
638.741	5.15
638.863	-7.85
638.985	0.15
639.107	-1.85
639.23	-5.85
639.352	31.15
639.474	-0.85
639.596	12.15
639.718	3.15
639.84	7.15
639.962	6.15
640.084	26.15
640.206	27.15
640.328	10.15
640.45	18.15
640.573	6.15
640.695	15.15
640.817	8.15
640.939	16.15
641.061	19.15
641.183	5.15
641.305	15.15
641.427	9.15
641.549	-3.85
641.671	20.15
641.793	8.15
641.915	15.15
642.038	12.15
642.16	12.15
642.282	8.15
642.404	2.15
642.526	20.15
642.648	-7.85
642.77	0.15
642.892	12.15
643.014	11.15
643.136	29.15
643.258	14.15
643.381	21.15
643.503	30.15
643.625	9.15
643.747	0.15
643.869	7.15
643.991	23.15
644.113	-3.85
644.235	6.15
644.357	5.15
644.479	19.15
644.601	22.15
644.723	4.15
644.846	16.15
644.968	7.15
645.09	5.15
645.212	-9.85
645.334	13.15
645.456	12.15
645.578	12.15
645.7	23.15
645.822	18.15
645.944	26.15
646.066	-1.85
646.188	-4.85
646.311	35.15
646.433	14.15
646.555	48.15
646.677	37.15
646.799	30.15
646.921	2.15
647.043	26.15
647.165	-2.85
647.287	3.15
647.409	8.15
647.531	41.15
647.654	-20.85
647.776	16.15
647.898	8.15
648.02	-1.85
648.142	-3.85
648.264	1.15
648.386	9.15
648.508	3.15
648.63	14.15
648.752	3.15
648.874	19.15
648.997	1.15
649.119	25.15
649.241	11.15
649.363	10.15
649.485	4.15
649.607	14.15
649.729	3.15
649.851	7.15
649.973	1.15
650.095	7.15
650.217	-9.85
650.34	-1.85
650.462	-3.85
650.584	15.15
650.706	21.15
650.828	10.15
650.95	-3.85
651.072	33.15
651.194	-3.85
651.316	-1.85
651.438	5.15
651.56	2.15
651.683	4.15
651.805	8.15
651.927	5.15
652.049	11.15
652.171	1.15
652.293	0.15
652.415	6.15
652.537	1.15
652.659	-6.85
652.781	17.15
652.903	22.15
653.026	22.15
653.148	7.15
653.27	12.15
653.392	18.15
653.514	17.15
653.636	17.15
653.758	-1.85
653.88	14.15
654.002	5.15
654.124	3.15
654.247	7.15
654.369	19.15
654.491	11.15
654.613	22.15
654.735	6.15
654.857	30.15
654.979	6.15
655.101	13.15
655.223	45.15
655.345	29.15
655.468	41.15
655.59	28.15
655.712	16.15
655.834	25.15
655.956	52.15
656.078	44.15
656.2	39.15
656.322	36.15
656.444	16.15
656.566	45.15
656.689	72.15
656.811	68.15
656.933	105.15
657.055	100.15
657.177	151.15
657.299	238.15
657.421	530.15
657.543	1921.15
657.665	12746.15
657.787	15196.15
657.91	15364.15
658.032	15663.15
658.154	4758.15
658.276	4638.15
658.398	1396.15
658.52	1114.15
658.642	518.15
658.764	616.15
658.886	309.15
659.009	433.15
659.131	236.15
659.253	332.15
659.375	176.15
659.497	267.15
659.619	146.15
659.741	208.15
659.863	114.15
659.985	178.15
660.108	118.15
660.23	159.15
660.352	95.15
660.474	152.15
660.596	94.15
660.718	130.15
660.84	66.15
660.962	116.15
661.084	58.15
661.207	93.15
661.329	71.15
661.451	111.15
661.573	55.15
661.695	115.15
661.817	64.15
661.939	107.15
662.061	73.15
662.184	68.15
662.306	45.15
662.428	85.15
662.55	50.15
662.672	55.15
662.794	51.15
662.916	70.15
663.038	52.15
663.161	83.15
663.283	48.15
663.405	61.15
663.527	25.15
663.649	73.15
663.771	41.15
663.893	61.15
664.015	49.15
664.138	51.15
664.26	33.15
664.382	41.15
664.504	16.15
664.626	30.15
664.748	20.15
664.87	36.15
664.992	30.15
665.115	57.15
665.237	38.15
665.359	37.15
665.481	19.15
665.603	58.15
665.725	33.15
665.847	29.15
665.97	26.15
666.092	53.15
666.214	37.15
666.336	37.15
666.458	31.15
666.58	32.15
666.702	19.15
666.825	30.15
666.947	11.15
667.069	53.15
667.191	19.15
667.313	41.15
667.435	12.15
667.557	28.15
667.68	-4.85
667.802	19.15
667.924	15.15
668.046	45.15
668.168	28.15
668.29	51.15
668.412	27.15
668.535	33.15
668.657	7.15
668.779	26.15
668.901	16.15
669.023	47.15
669.145	30.15
669.267	41.15
669.39	33.15
669.512	29.15
669.634	17.15
669.756	22.15
669.878	29.15
670	32.15
670.123	6.15
670.245	51.15
670.367	20.15
670.489	38.15
670.611	1.15
670.733	14.15
670.856	25.15
670.978	24.15
671.1	20.15
671.222	26.15
671.344	-0.85
671.466	18.15
671.589	10.15
671.711	14.15
671.833	15.15
671.955	25.15
672.077	11.15
672.199	30.15
672.322	41.15
672.444	35.15
672.566	26.15
672.688	5.15
672.81	19.15
672.932	27.15
673.055	18.15
673.177	10.15
673.299	8.15
673.421	3.15
673.543	12.15
673.665	38.15
673.788	14.15
673.91	12.15
674.032	-5.85
674.154	25.15
674.276	25.15
674.399	1.15
674.521	12.15
674.643	29.15
674.765	9.15
674.887	22.15
675.009	11.15
675.132	18.15
675.254	16.15
675.376	14.15
675.498	0.15
675.62	28.15
675.743	20.15
675.865	27.15
675.987	-0.85
676.109	34.15
676.231	18.15
676.354	27.15
676.476	6.15
676.598	12.15
676.72	-1.85
676.842	25.15
676.965	12.15
677.087	10.15
677.209	27.15
677.331	32.15
677.453	10.15
677.576	22.15
677.698	9.15
677.82	14.15
677.942	9.15
678.064	17.15
678.187	11.15
678.309	18.15
678.431	9.15
678.553	7.15
678.675	21.15
678.798	36.15
678.92	27.15
679.042	33.15
679.164	19.15
679.286	55.15
679.409	-2.85
679.531	-4.85
679.653	0.15
679.775	21.15
679.898	4.15
680.02	11.15
680.142	-7.85
680.264	33.15
680.386	-4.85
680.509	14.15
680.631	1.15
680.753	11.15
680.875	-7.85
680.998	18.15
681.12	9.15
681.242	30.15
681.364	-5.85
681.486	22.15
681.609	-9.85
681.731	4.15
681.853	-4.85
681.975	-2.85
682.098	13.15
682.22	23.15
682.342	8.15
682.464	23.15
682.587	12.15
682.709	20.15
682.831	8.15
682.953	14.15
683.076	24.15
683.198	18.15
683.32	14.15
683.442	10.15
683.565	30.15
683.687	12.15
683.809	8.15
683.931	-5.85
684.054	17.15
684.176	16.15
684.298	27.15
684.42	9.15
684.543	-2.85
684.665	7.15
684.787	13.15
684.909	-2.85
685.032	35.15
685.154	0.15
685.276	11.15
685.398	-6.85
685.521	5.15
685.643	16.15
685.765	7.15
685.887	12.15
686.01	12.15
686.132	14.15
686.254	8.15
686.377	14.15
686.499	5.15
686.621	23.15
686.743	14.15
686.866	9.15
686.988	24.15
687.11	18.15
687.232	19.15
687.355	8.15
687.477	13.15
687.599	38.15
687.722	0.15
687.844	14.15
687.966	3.15
688.088	8.15
688.211	26.15
688.333	14.15
688.455	14.15
688.578	29.15
688.7	27.15
688.822	13.15
688.944	9.15
689.067	54.15
689.189	27.15
689.311	-7.85
689.434	7.15
689.556	15.15
689.678	32.15
689.801	18.15
689.923	14.15
690.045	17.15
690.167	27.15
690.29	17.15
690.412	9.15
690.534	25.15
690.657	-1.85
690.779	8.15
690.901	13.15
691.024	0.15
691.146	-11.85
691.268	4.15
691.391	7.15
691.513	42.15
691.635	19.15
691.758	36.15
691.88	18.15
692.002	5.15
692.125	-1.85
692.247	-4.85
692.369	0.15
692.492	-2.85
692.614	1.15
692.736	7.15
692.859	10.15
692.981	1.15
693.103	24.15
693.226	13.15
693.348	36.15
693.47	7.15
693.593	0.15
693.715	-7.85
693.837	-3.85
693.96	2.15
694.082	2.15
694.204	20.15
694.327	18.15
694.449	-3.85
694.571	-6.85
694.694	14.15
694.816	20.15
694.938	4.15
695.061	7.15
695.183	10.15
695.305	8.15
695.428	20.15
695.55	4.15
695.672	1.15
695.795	28.15
695.917	19.15
696.04	17.15
696.162	0.15
696.284	-11.85
696.407	7.15
696.529	4.15
696.651	5.15
696.774	5.15
696.896	25.15
697.019	9.15
697.141	2.15
697.263	20.15
697.386	4.15
697.508	4.15
697.63	16.15
697.753	3.15
697.875	3.15
697.998	0.15
698.12	19.15
698.242	8.15
698.365	20.15
698.487	8.15
698.61	27.15
698.732	25.15
698.854	16.15
698.977	-10.85
699.099	18.15
699.221	-4.85
699.344	16.15
699.466	1.15
699.589	-5.85
699.711	-13.85
699.834	8.15
699.956	6.15
700.078	2.15
700.201	2.15
700.323	15.15
700.446	12.15
700.568	4.15
700.69	30.15
700.813	29.15
700.935	3.15
701.058	5.15
701.18	12.15
701.302	8.15
701.425	-1.85
701.547	11.15
701.67	-2.85
701.792	5.15
701.915	6.15
702.037	7.15
702.159	14.15
702.282	8.15
702.404	-5.85
702.527	-0.85
702.649	25.15
702.772	21.15
702.894	-6.85
703.017	4.15
703.139	29.15
703.261	23.15
703.384	26.15
703.506	-9.85
703.629	-7.85
703.751	16.15
703.874	4.15
703.996	13.15
704.119	-4.85
704.241	11.15
704.364	11.15
704.486	-0.85
704.608	0.15
704.731	13.15
704.853	1.15
704.976	-1.85
705.098	12.15
705.221	-4.85
705.343	5.15
705.466	25.15
705.588	32.15
705.711	12.15
705.833	17.15
705.956	9.15
706.078	26.15
706.201	-5.85
706.323	4.15
706.446	-3.85
