Data from LowRes_H2_15_26_11_07_2024_HR4C61881__45__15-28-18-137.txt Node

Date: Thu Nov 07 15:28:18 EST 2024
User: crc00042
Spectrometer: HR4C6188
Trigger mode: 4
Integration Time (sec): 1.000000E-1
Scans to average: 1
Electric dark correction enabled: true
Nonlinearity correction enabled: false
Boxcar width: 0
XAxis mode: Wavelengths
Number of Pixels in Spectrum: 3648
>>>>>Begin Spectral Data<<<<<
245.66	-80.69
245.797	-80.69
245.934	-80.69
246.071	-76.69
246.208	-3.69
246.344	10.31
246.481	-6.69
246.618	-0.69
246.755	16.31
246.892	-8.69
247.029	-17.69
247.165	-13.69
247.302	18.31
247.439	1.31
247.576	4.31
247.713	-7.69
247.849	21.31
247.986	-16.69
248.123	0.31
248.26	7.31
248.396	31.31
248.533	9.31
248.67	3.31
248.806	1.31
248.943	-18.69
249.08	-2.69
249.216	9.31
249.353	-15.69
249.49	0.31
249.626	-11.69
249.763	-13.69
249.9	-5.69
250.036	-19.69
250.173	-13.69
250.309	4.31
250.446	-1.69
250.582	4.31
250.719	-11.69
250.856	13.31
250.992	-9.69
251.129	0.31
251.265	-3.69
251.402	8.31
251.538	8.31
251.675	-8.69
251.811	3.31
251.948	11.31
252.084	17.31
252.221	10.31
252.357	-7.69
252.493	23.31
252.63	1.31
252.766	23.31
252.903	-10.69
253.039	2.31
253.175	3.31
253.312	10.31
253.448	-1.69
253.585	-13.69
253.721	4.31
253.857	-12.69
253.994	4.31
254.13	-17.69
254.266	11.31
254.403	8.31
254.539	2.31
254.675	12.31
254.811	2.31
254.948	7.31
255.084	-19.69
255.22	-25.69
255.356	17.31
255.493	-6.69
255.629	5.31
255.765	24.31
255.901	3.31
256.037	3.31
256.174	12.31
256.31	-0.69
256.446	-18.69
256.582	5.31
256.718	-5.69
256.854	8.31
256.991	10.31
257.127	25.31
257.263	7.31
257.399	11.31
257.535	-8.69
257.671	-15.69
257.807	-12.69
257.943	-16.69
258.079	-0.69
258.215	2.31
258.351	20.31
258.487	-4.69
258.623	24.31
258.759	-8.69
258.895	-6.69
259.031	-2.69
259.167	-10.69
259.303	27.31
259.439	5.31
259.575	-7.69
259.711	-7.69
259.847	-5.69
259.983	15.31
260.119	-5.69
260.255	-16.69
260.391	12.31
260.527	12.31
260.663	10.31
260.799	1.31
260.934	-8.69
261.07	4.31
261.206	-8.69
261.342	-17.69
261.478	28.31
261.614	2.31
261.749	-2.69
261.885	-18.69
262.021	8.31
262.157	29.31
262.293	-8.69
262.428	9.31
262.564	2.31
262.7	3.31
262.836	1.31
262.971	15.31
263.107	1.31
263.243	15.31
263.378	3.31
263.514	-29.69
263.65	-6.69
263.785	-8.69
263.921	6.31
264.057	8.31
264.192	9.31
264.328	24.31
264.464	-9.69
264.599	0.31
264.735	13.31
264.871	2.31
265.006	24.31
265.142	9.31
265.277	16.31
265.413	25.31
265.548	32.31
265.684	22.31
265.819	-14.69
265.955	-18.69
266.091	-8.69
266.226	-5.69
266.362	8.31
266.497	2.31
266.633	3.31
266.768	-5.69
266.903	12.31
267.039	12.31
267.174	21.31
267.31	-8.69
267.445	-10.69
267.581	9.31
267.716	15.31
267.851	12.31
267.987	8.31
268.122	13.31
268.258	1.31
268.393	0.31
268.528	8.31
268.664	6.31
268.799	-4.69
268.934	-0.69
269.07	-3.69
269.205	12.31
269.34	19.31
269.476	-12.69
269.611	-5.69
269.746	5.31
269.881	-3.69
270.017	16.31
270.152	-3.69
270.287	0.31
270.422	14.31
270.558	2.31
270.693	38.31
270.828	8.31
270.963	-8.69
271.098	-17.69
271.234	-5.69
271.369	22.31
271.504	-15.69
271.639	-4.69
271.774	-4.69
271.909	2.31
272.045	-29.69
272.18	-11.69
272.315	-1.69
272.45	4.31
272.585	-12.69
272.72	-0.69
272.855	-11.69
272.99	10.31
273.125	-12.69
273.26	-7.69
273.395	-4.69
273.53	-12.69
273.665	21.31
273.8	0.31
273.935	-11.69
274.07	-3.69
274.205	10.31
274.34	3.31
274.475	-3.69
274.61	-8.69
274.745	-2.69
274.88	10.31
275.015	-11.69
275.15	0.31
275.285	-9.69
275.42	-4.69
275.555	28.31
275.69	10.31
275.825	9.31
275.959	12.31
276.094	5.31
276.229	-1.69
276.364	-2.69
276.499	-1.69
276.634	-1.69
276.768	-3.69
276.903	10.31
277.038	4.31
277.173	-7.69
277.308	2.31
277.442	0.31
277.577	-12.69
277.712	-3.69
277.847	19.31
277.981	12.31
278.116	-23.69
278.251	-3.69
278.386	1.31
278.52	17.31
278.655	-3.69
278.79	8.31
278.924	9.31
279.059	2.31
279.194	-17.69
279.328	19.31
279.463	12.31
279.598	9.31
279.732	4.31
279.867	5.31
280.001	6.31
280.136	-10.69
280.271	-5.69
280.405	2.31
280.54	0.31
280.674	-2.69
280.809	30.31
280.943	10.31
281.078	-4.69
281.213	26.31
281.347	18.31
281.482	12.31
281.616	-13.69
281.751	-16.69
281.885	-13.69
282.02	0.31
282.154	19.31
282.288	-7.69
282.423	-12.69
282.557	-10.69
282.692	-0.69
282.826	0.31
282.961	21.31
283.095	1.31
283.229	5.31
283.364	-15.69
283.498	3.31
283.633	-11.69
283.767	-5.69
283.901	-12.69
284.036	2.31
284.17	-11.69
284.304	-5.69
284.439	13.31
284.573	-3.69
284.707	20.31
284.842	-18.69
284.976	1.31
285.11	-3.69
285.244	13.31
285.379	34.31
285.513	-9.69
285.647	10.31
285.781	-1.69
285.916	3.31
286.05	5.31
286.184	23.31
286.318	2.31
286.453	-10.69
286.587	-11.69
286.721	6.31
286.855	17.31
286.989	7.31
287.123	-14.69
287.258	-15.69
287.392	-6.69
287.526	7.31
287.66	9.31
287.794	0.31
287.928	17.31
288.062	-11.69
288.196	7.31
288.33	0.31
288.464	12.31
288.598	21.31
288.733	-3.69
288.867	16.31
289.001	4.31
289.135	5.31
289.269	-32.69
289.403	-0.69
289.537	1.31
289.671	6.31
289.805	-9.69
289.939	6.31
290.073	14.31
290.207	25.31
290.34	13.31
290.474	16.31
290.608	8.31
290.742	-2.69
290.876	6.31
291.01	-22.69
291.144	32.31
291.278	13.31
291.412	15.31
291.546	3.31
291.679	-21.69
291.813	-2.69
291.947	6.31
292.081	-15.69
292.215	11.31
292.349	19.31
292.482	15.31
292.616	-9.69
292.75	-9.69
292.884	-1.69
293.018	18.31
293.151	-7.69
293.285	19.31
293.419	-12.69
293.553	-2.69
293.686	3.31
293.82	-0.69
293.954	19.31
294.088	19.31
294.221	3.31
294.355	-10.69
294.489	1.31
294.622	9.31
294.756	17.31
294.89	16.31
295.023	9.31
295.157	15.31
295.291	-0.69
295.424	13.31
295.558	-3.69
295.691	20.31
295.825	0.31
295.959	-19.69
296.092	-7.69
296.226	-14.69
296.359	12.31
296.493	12.31
296.627	6.31
296.76	10.31
296.894	12.31
297.027	8.31
297.161	7.31
297.294	-3.69
297.428	-1.69
297.561	23.31
297.695	-16.69
297.828	-11.69
297.962	1.31
298.095	4.31
298.229	-2.69
298.362	-0.69
298.495	-10.69
298.629	1.31
298.762	2.31
298.896	-5.69
299.029	-12.69
299.162	-21.69
299.296	-5.69
299.429	-19.69
299.563	5.31
299.696	-1.69
299.829	-0.69
299.963	20.31
300.096	16.31
300.229	9.31
300.363	7.31
300.496	18.31
300.629	-14.69
300.763	-4.69
300.896	12.31
301.029	2.31
301.162	-3.69
301.296	-15.69
301.429	-2.69
301.562	-20.69
301.695	23.31
301.829	31.31
301.962	15.31
302.095	8.31
302.228	-26.69
302.362	8.31
302.495	9.31
302.628	1.31
302.761	-10.69
302.894	-3.69
303.027	4.31
303.161	-6.69
303.294	-15.69
303.427	31.31
303.56	-2.69
303.693	-11.69
303.826	-1.69
303.959	3.31
304.092	1.31
304.225	-0.69
304.359	17.31
304.492	13.31
304.625	-0.69
304.758	28.31
304.891	-3.69
305.024	-0.69
305.157	-23.69
305.29	-12.69
305.423	-1.69
305.556	7.31
305.689	18.31
305.822	1.31
305.955	-2.69
306.088	-5.69
306.221	5.31
306.354	-4.69
306.487	-14.69
306.62	-22.69
306.752	11.31
306.885	14.31
307.018	20.31
307.151	-0.69
307.284	0.31
307.417	-0.69
307.55	0.31
307.683	5.31
307.816	13.31
307.948	2.31
308.081	12.31
308.214	13.31
308.347	-9.69
308.48	-3.69
308.613	-32.69
308.745	-1.69
308.878	-20.69
309.011	-4.69
309.144	-0.69
309.277	-3.69
309.409	13.31
309.542	1.31
309.675	20.31
309.808	4.31
309.94	32.31
310.073	-4.69
310.206	-23.69
310.339	5.31
310.471	-10.69
310.604	30.31
310.737	-7.69
310.869	-7.69
311.002	5.31
311.135	5.31
311.267	-0.69
311.4	-17.69
311.533	13.31
311.665	0.31
311.798	-6.69
311.93	-11.69
312.063	-5.69
312.196	3.31
312.328	-6.69
312.461	5.31
312.593	-2.69
312.726	6.31
312.859	12.31
312.991	-9.69
313.124	-18.69
313.256	7.31
313.389	8.31
313.521	-8.69
313.654	-3.69
313.786	-41.69
313.919	-13.69
314.051	7.31
314.184	-2.69
314.316	6.31
314.449	-8.69
314.581	3.31
314.714	5.31
314.846	5.31
314.978	-4.69
315.111	-11.69
315.243	3.31
315.376	-2.69
315.508	14.31
315.641	-7.69
315.773	4.31
315.905	10.31
316.038	5.31
316.17	2.31
316.302	-9.69
316.435	-35.69
316.567	-10.69
316.699	19.31
316.832	-7.69
316.964	-2.69
317.096	-11.69
317.229	-9.69
317.361	-18.69
317.493	-8.69
317.625	-14.69
317.758	-7.69
317.89	11.31
318.022	-4.69
318.155	9.31
318.287	20.31
318.419	6.31
318.551	-16.69
318.683	10.31
318.816	7.31
318.948	-0.69
319.08	-0.69
319.212	1.31
319.344	4.31
319.477	-24.69
319.609	13.31
319.741	38.31
319.873	5.31
320.005	7.31
320.137	-2.69
320.269	14.31
320.401	-3.69
320.534	-3.69
320.666	-13.69
320.798	-3.69
320.93	1.31
321.062	-12.69
321.194	-6.69
321.326	12.31
321.458	-6.69
321.59	-0.69
321.722	-8.69
321.854	-11.69
321.986	-4.69
322.118	16.31
322.25	-4.69
322.382	-10.69
322.514	-13.69
322.646	-5.69
322.778	17.31
322.91	-4.69
323.042	6.31
323.174	9.31
323.306	-11.69
323.438	-24.69
323.57	-0.69
323.702	7.31
323.834	-0.69
323.966	-21.69
324.097	-1.69
324.229	13.31
324.361	-0.69
324.493	4.31
324.625	-9.69
324.757	13.31
324.889	15.31
325.021	6.31
325.152	19.31
325.284	6.31
325.416	-10.69
325.548	16.31
325.68	-9.69
325.811	20.31
325.943	-1.69
326.075	-13.69
326.207	-19.69
326.339	-5.69
326.47	-10.69
326.602	18.31
326.734	19.31
326.866	29.31
326.997	0.31
327.129	4.31
327.261	-2.69
327.392	-8.69
327.524	-7.69
327.656	-1.69
327.787	17.31
327.919	19.31
328.051	18.31
328.182	26.31
328.314	17.31
328.446	-10.69
328.577	13.31
328.709	13.31
328.841	-0.69
328.972	-9.69
329.104	3.31
329.235	-3.69
329.367	17.31
329.499	22.31
329.63	8.31
329.762	2.31
329.893	6.31
330.025	-11.69
330.156	-18.69
330.288	5.31
330.419	0.31
330.551	7.31
330.683	7.31
330.814	-0.69
330.946	12.31
331.077	-1.69
331.208	-8.69
331.34	-1.69
331.471	-18.69
331.603	-0.69
331.734	-8.69
331.866	5.31
331.997	14.31
332.129	9.31
332.26	-0.69
332.392	4.31
332.523	-6.69
332.654	-13.69
332.786	10.31
332.917	-11.69
333.048	15.31
333.18	3.31
333.311	-4.69
333.443	-1.69
333.574	13.31
333.705	34.31
333.837	-10.69
333.968	5.31
334.099	15.31
334.231	26.31
334.362	-3.69
334.493	20.31
334.624	25.31
334.756	-2.69
334.887	-2.69
335.018	5.31
335.15	26.31
335.281	-1.69
335.412	16.31
335.543	2.31
335.675	-6.69
335.806	5.31
335.937	3.31
336.068	19.31
336.199	24.31
336.331	-3.69
336.462	14.31
336.593	31.31
336.724	14.31
336.855	-7.69
336.986	11.31
337.118	16.31
337.249	23.31
337.38	6.31
337.511	-1.69
337.642	4.31
337.773	10.31
337.904	-3.69
338.035	22.31
338.166	8.31
338.298	8.31
338.429	5.31
338.56	15.31
338.691	4.31
338.822	12.31
338.953	20.31
339.084	23.31
339.215	33.31
339.346	-4.69
339.477	6.31
339.608	-8.69
339.739	-5.69
339.87	3.31
340.001	-8.69
340.132	6.31
340.263	0.31
340.394	8.31
340.525	22.31
340.656	-8.69
340.787	-21.69
340.918	26.31
341.049	9.31
341.179	4.31
341.31	4.31
341.441	2.31
341.572	14.31
341.703	15.31
341.834	-2.69
341.965	23.31
342.096	11.31
342.227	7.31
342.357	-3.69
342.488	9.31
342.619	15.31
342.75	0.31
342.881	-7.69
343.012	3.31
343.142	16.31
343.273	-6.69
343.404	3.31
343.535	33.31
343.666	24.31
343.796	21.31
343.927	7.31
344.058	19.31
344.189	19.31
344.319	3.31
344.45	1.31
344.581	10.31
344.712	-24.69
344.842	7.31
344.973	2.31
345.104	-12.69
345.234	1.31
345.365	-8.69
345.496	-12.69
345.626	-0.69
345.757	4.31
345.888	-18.69
346.018	7.31
346.149	0.31
346.28	26.31
346.41	-14.69
346.541	1.31
346.672	-19.69
346.802	1.31
346.933	11.31
347.063	4.31
347.194	-2.69
347.325	1.31
347.455	17.31
347.586	-16.69
347.716	-15.69
347.847	13.31
347.977	6.31
348.108	21.31
348.238	6.31
348.369	-4.69
348.499	12.31
348.63	9.31
348.76	5.31
348.891	23.31
349.021	12.31
349.152	23.31
349.282	40.31
349.413	-7.69
349.543	7.31
349.674	-6.69
349.804	7.31
349.935	0.31
350.065	-7.69
350.196	-18.69
350.326	4.31
350.456	-9.69
350.587	19.31
350.717	-2.69
350.848	14.31
350.978	7.31
351.108	-24.69
351.239	16.31
351.369	21.31
351.499	14.31
351.63	16.31
351.76	20.31
351.89	6.31
352.021	-0.69
352.151	-5.69
352.281	25.31
352.412	6.31
352.542	5.31
352.672	13.31
352.803	6.31
352.933	10.31
353.063	20.31
353.193	8.31
353.324	-14.69
353.454	1.31
353.584	8.31
353.714	1.31
353.845	23.31
353.975	13.31
354.105	0.31
354.235	16.31
354.365	-0.69
354.496	-2.69
354.626	-2.69
354.756	9.31
354.886	-12.69
355.016	10.31
355.146	-4.69
355.277	3.31
355.407	6.31
355.537	31.31
355.667	6.31
355.797	-17.69
355.927	-1.69
356.057	3.31
356.187	3.31
356.318	17.31
356.448	28.31
356.578	-2.69
356.708	9.31
356.838	13.31
356.968	20.31
357.098	18.31
357.228	13.31
357.358	-18.69
357.488	-11.69
357.618	16.31
357.748	8.31
357.878	-11.69
358.008	2.31
358.138	-2.69
358.268	5.31
358.398	16.31
358.528	-8.69
358.658	7.31
358.788	5.31
358.918	10.31
359.048	8.31
359.178	17.31
359.308	6.31
359.438	22.31
359.568	14.31
359.698	0.31
359.827	13.31
359.957	16.31
360.087	21.31
360.217	-7.69
360.347	-11.69
360.477	14.31
360.607	-4.69
360.737	30.31
360.866	10.31
360.996	-11.69
361.126	-9.69
361.256	17.31
361.386	7.31
361.516	8.31
361.645	-11.69
361.775	7.31
361.905	-14.69
362.035	-2.69
362.165	1.31
362.294	0.31
362.424	23.31
362.554	22.31
362.684	-2.69
362.813	1.31
362.943	24.31
363.073	8.31
363.203	2.31
363.332	4.31
363.462	-15.69
363.592	-9.69
363.721	-8.69
363.851	11.31
363.981	14.31
364.111	-3.69
364.24	-0.69
364.37	-15.69
364.5	18.31
364.629	4.31
364.759	-17.69
364.888	-0.69
365.018	8.31
365.148	19.31
365.277	14.31
365.407	28.31
365.537	15.31
365.666	11.31
365.796	-3.69
365.925	-0.69
366.055	3.31
366.184	-8.69
366.314	-2.69
366.444	23.31
366.573	9.31
366.703	6.31
366.832	9.31
366.962	12.31
367.091	16.31
367.221	7.31
367.35	-12.69
367.48	32.31
367.609	4.31
367.739	2.31
367.868	-11.69
367.998	7.31
368.127	29.31
368.257	23.31
368.386	34.31
368.516	18.31
368.645	0.31
368.775	24.31
368.904	12.31
369.033	-7.69
369.163	0.31
369.292	2.31
369.422	17.31
369.551	29.31
369.68	24.31
369.81	12.31
369.939	11.31
370.069	32.31
370.198	14.31
370.327	-14.69
370.457	9.31
370.586	9.31
370.715	-23.69
370.845	-8.69
370.974	0.31
371.103	20.31
371.233	14.31
371.362	13.31
371.491	-1.69
371.621	3.31
371.75	7.31
371.879	6.31
372.008	7.31
372.138	-0.69
372.267	18.31
372.396	32.31
372.525	12.31
372.655	2.31
372.784	4.31
372.913	7.31
373.042	13.31
373.172	36.31
373.301	-6.69
373.43	-15.69
373.559	9.31
373.688	15.31
373.818	22.31
373.947	23.31
374.076	19.31
374.205	10.31
374.334	2.31
374.463	-3.69
374.593	4.31
374.722	9.31
374.851	16.31
374.98	-7.69
375.109	-10.69
375.238	11.31
375.367	9.31
375.496	-19.69
375.625	-6.69
375.755	8.31
375.884	27.31
376.013	6.31
376.142	-7.69
376.271	-1.69
376.4	13.31
376.529	15.31
376.658	14.31
376.787	6.31
376.916	16.31
377.045	-8.69
377.174	4.31
377.303	-8.69
377.432	3.31
377.561	20.31
377.69	15.31
377.819	30.31
377.948	13.31
378.077	-9.69
378.206	-26.69
378.335	-10.69
378.464	-10.69
378.593	40.31
378.722	5.31
378.851	-6.69
378.98	16.31
379.108	-4.69
379.237	-13.69
379.366	10.31
379.495	27.31
379.624	2.31
379.753	5.31
379.882	10.31
380.011	-10.69
380.14	-8.69
380.268	20.31
380.397	-9.69
380.526	8.31
380.655	-8.69
380.784	-4.69
380.913	2.31
381.041	7.31
381.17	-6.69
381.299	14.31
381.428	20.31
381.557	3.31
381.685	-2.69
381.814	17.31
381.943	-2.69
382.072	2.31
382.2	-3.69
382.329	-4.69
382.458	1.31
382.587	41.31
382.715	21.31
382.844	26.31
382.973	8.31
383.102	2.31
383.23	5.31
383.359	-6.69
383.488	7.31
383.616	-2.69
383.745	-12.69
383.874	12.31
384.003	7.31
384.131	2.31
384.26	0.31
384.389	28.31
384.517	-9.69
384.646	-20.69
384.774	-10.69
384.903	17.31
385.032	8.31
385.16	16.31
385.289	0.31
385.418	-11.69
385.546	-7.69
385.675	8.31
385.803	13.31
385.932	-18.69
386.06	-25.69
386.189	11.31
386.318	-1.69
386.446	4.31
386.575	7.31
386.703	9.31
386.832	-5.69
386.96	-12.69
387.089	16.31
387.217	3.31
387.346	-12.69
387.474	13.31
387.603	4.31
387.731	26.31
387.86	19.31
387.988	9.31
388.117	27.31
388.245	18.31
388.374	-17.69
388.502	30.31
388.631	-0.69
388.759	-8.69
388.888	9.31
389.016	4.31
389.144	12.31
389.273	8.31
389.401	-16.69
389.53	-7.69
389.658	3.31
389.786	7.31
389.915	-14.69
390.043	-9.69
390.172	9.31
390.3	20.31
390.428	21.31
390.557	1.31
390.685	5.31
390.813	9.31
390.942	18.31
391.07	8.31
391.198	11.31
391.327	-6.69
391.455	-7.69
391.583	22.31
391.712	-0.69
391.84	-18.69
391.968	-12.69
392.096	-4.69
392.225	-0.69
392.353	-0.69
392.481	5.31
392.609	10.31
392.738	8.31
392.866	13.31
392.994	-11.69
393.122	12.31
393.251	-1.69
393.379	-10.69
393.507	-21.69
393.635	2.31
393.764	10.31
393.892	4.31
394.02	-12.69
394.148	1.31
394.276	5.31
394.404	26.31
394.533	1.31
394.661	-6.69
394.789	26.31
394.917	18.31
395.045	2.31
395.173	1.31
395.302	-17.69
395.43	11.31
395.558	21.31
395.686	29.31
395.814	18.31
395.942	17.31
396.07	5.31
396.198	-1.69
396.326	1.31
396.454	21.31
396.582	21.31
396.711	-2.69
396.839	13.31
396.967	1.31
397.095	-0.69
397.223	10.31
397.351	14.31
397.479	-4.69
397.607	8.31
397.735	22.31
397.863	20.31
397.991	23.31
398.119	4.31
398.247	20.31
398.375	1.31
398.503	11.31
398.631	29.31
398.759	16.31
398.887	6.31
399.015	13.31
399.143	-2.69
399.271	20.31
399.399	8.31
399.526	17.31
399.654	13.31
399.782	-5.69
399.91	9.31
400.038	37.31
400.166	-2.69
400.294	8.31
400.422	-19.69
400.55	25.31
400.678	-5.69
400.805	-2.69
400.933	7.31
401.061	7.31
401.189	-9.69
401.317	15.31
401.445	22.31
401.573	14.31
401.7	7.31
401.828	-9.69
401.956	-1.69
402.084	22.31
402.212	17.31
402.34	-5.69
402.467	11.31
402.595	1.31
402.723	8.31
402.851	31.31
402.978	1.31
403.106	19.31
403.234	11.31
403.362	19.31
403.489	31.31
403.617	6.31
403.745	-3.69
403.873	-12.69
404	0.31
404.128	-2.69
404.256	2.31
404.384	13.31
404.511	22.31
404.639	17.31
404.767	-7.69
404.894	-0.69
405.022	5.31
405.15	35.31
405.277	-6.69
405.405	5.31
405.533	15.31
405.66	5.31
405.788	-14.69
405.916	-8.69
406.043	-11.69
406.171	-20.69
406.299	12.31
406.426	-11.69
406.554	8.31
406.681	16.31
406.809	6.31
406.937	7.31
407.064	7.31
407.192	11.31
407.319	24.31
407.447	4.31
407.574	27.31
407.702	14.31
407.83	-2.69
407.957	-2.69
408.085	-5.69
408.212	8.31
408.34	15.31
408.467	5.31
408.595	11.31
408.722	14.31
408.85	12.31
408.977	2.31
409.105	17.31
409.232	6.31
409.36	9.31
409.487	11.31
409.615	12.31
409.742	28.31
409.87	28.31
409.997	45.31
410.125	41.31
410.252	57.31
410.379	57.31
410.507	47.31
410.634	21.31
410.762	2.31
410.889	29.31
411.017	24.31
411.144	24.31
411.271	3.31
411.399	13.31
411.526	-2.69
411.653	10.31
411.781	19.31
411.908	16.31
412.036	8.31
412.163	29.31
412.29	31.31
412.418	1.31
412.545	9.31
412.672	8.31
412.8	14.31
412.927	4.31
413.054	28.31
413.182	20.31
413.309	2.31
413.436	-16.69
413.564	-8.69
413.691	-2.69
413.818	29.31
413.945	-7.69
414.073	-0.69
414.2	-12.69
414.327	-3.69
414.454	2.31
414.582	-4.69
414.709	-2.69
414.836	9.31
414.963	12.31
415.091	13.31
415.218	12.31
415.345	22.31
415.472	-12.69
415.6	9.31
415.727	17.31
415.854	6.31
415.981	10.31
416.108	0.31
416.236	7.31
416.363	26.31
416.49	13.31
416.617	-0.69
416.744	15.31
416.871	-4.69
416.998	-2.69
417.126	13.31
417.253	4.31
417.38	13.31
417.507	-2.69
417.634	1.31
417.761	16.31
417.888	8.31
418.015	15.31
418.143	23.31
418.27	20.31
418.397	-4.69
418.524	10.31
418.651	-2.69
418.778	-1.69
418.905	17.31
419.032	0.31
419.159	2.31
419.286	24.31
419.413	0.31
419.54	7.31
419.667	-14.69
419.794	-8.69
419.921	17.31
420.048	8.31
420.175	37.31
420.302	12.31
420.429	10.31
420.556	1.31
420.683	-13.69
420.81	-3.69
420.937	15.31
421.064	17.31
421.191	-2.69
421.318	20.31
421.445	17.31
421.572	-10.69
421.699	38.31
421.826	11.31
421.953	14.31
422.08	21.31
422.207	-12.69
422.334	0.31
422.461	6.31
422.588	-2.69
422.714	9.31
422.841	39.31
422.968	19.31
423.095	-3.69
423.222	-7.69
423.349	12.31
423.476	5.31
423.603	-8.69
423.729	7.31
423.856	15.31
423.983	9.31
424.11	8.31
424.237	25.31
424.364	24.31
424.491	21.31
424.617	-4.69
424.744	9.31
424.871	29.31
424.998	2.31
425.125	4.31
425.251	5.31
425.378	-4.69
425.505	-7.69
425.632	-2.69
425.758	-7.69
425.885	-2.69
426.012	1.31
426.139	20.31
426.266	20.31
426.392	21.31
426.519	23.31
426.646	-5.69
426.772	20.31
426.899	3.31
427.026	13.31
427.153	12.31
427.279	17.31
427.406	-6.69
427.533	-6.69
427.659	-3.69
427.786	-0.69
427.913	22.31
428.039	7.31
428.166	5.31
428.293	2.31
428.419	17.31
428.546	8.31
428.673	-4.69
428.799	-5.69
428.926	-9.69
429.053	34.31
429.179	19.31
429.306	7.31
429.433	19.31
429.559	17.31
429.686	4.31
429.812	-3.69
429.939	-9.69
430.066	0.31
430.192	1.31
430.319	8.31
430.445	16.31
430.572	6.31
430.699	-6.69
430.825	-2.69
430.952	1.31
431.078	1.31
431.205	11.31
431.331	9.31
431.458	22.31
431.584	17.31
431.711	-0.69
431.837	8.31
431.964	-3.69
432.09	13.31
432.217	-12.69
432.343	1.31
432.47	5.31
432.596	11.31
432.723	11.31
432.849	-1.69
432.976	3.31
433.102	11.31
433.229	16.31
433.355	24.31
433.482	64.31
433.608	155.31
433.735	138.31
433.861	133.31
433.987	142.31
434.114	242.31
434.24	204.31
434.367	71.31
434.493	-0.69
434.62	36.31
434.746	28.31
434.872	9.31
434.999	10.31
435.125	4.31
435.252	6.31
435.378	11.31
435.504	4.31
435.631	19.31
435.757	6.31
435.883	9.31
436.01	11.31
436.136	10.31
436.262	3.31
436.389	3.31
436.515	13.31
436.641	4.31
436.768	6.31
436.894	11.31
437.02	21.31
437.147	27.31
437.273	19.31
437.399	3.31
437.526	14.31
437.652	0.31
437.778	-0.69
437.904	-4.69
438.031	-10.69
438.157	-2.69
438.283	9.31
438.409	1.31
438.536	18.31
438.662	8.31
438.788	23.31
438.914	15.31
439.041	7.31
439.167	27.31
439.293	7.31
439.419	2.31
439.546	24.31
439.672	1.31
439.798	4.31
439.924	4.31
440.05	24.31
440.177	15.31
440.303	13.31
440.429	5.31
440.555	14.31
440.681	2.31
440.807	15.31
440.934	26.31
441.06	14.31
441.186	7.31
441.312	3.31
441.438	17.31
441.564	17.31
441.69	17.31
441.816	26.31
441.943	8.31
442.069	5.31
442.195	23.31
442.321	20.31
442.447	6.31
442.573	10.31
442.699	5.31
442.825	4.31
442.951	19.31
443.077	24.31
443.203	28.31
443.33	11.31
443.456	-0.69
443.582	6.31
443.708	-2.69
443.834	23.31
443.96	15.31
444.086	18.31
444.212	20.31
444.338	19.31
444.464	8.31
444.59	26.31
444.716	2.31
444.842	13.31
444.968	4.31
445.094	16.31
445.22	7.31
445.346	-3.69
445.472	24.31
445.598	13.31
445.724	16.31
445.85	4.31
445.976	3.31
446.102	30.31
446.228	25.31
446.354	15.31
446.48	0.31
446.605	15.31
446.731	23.31
446.857	19.31
446.983	24.31
447.109	12.31
447.235	17.31
447.361	-11.69
447.487	17.31
447.613	7.31
447.739	7.31
447.865	-3.69
447.99	16.31
448.116	4.31
448.242	7.31
448.368	-2.69
448.494	10.31
448.62	-0.69
448.746	-3.69
448.872	13.31
448.997	-17.69
449.123	8.31
449.249	27.31
449.375	24.31
449.501	12.31
449.627	3.31
449.752	31.31
449.878	-0.69
450.004	8.31
450.13	12.31
450.256	-5.69
450.381	5.31
450.507	22.31
450.633	21.31
450.759	27.31
450.884	17.31
451.01	18.31
451.136	7.31
451.262	17.31
451.388	-2.69
451.513	3.31
451.639	17.31
451.765	14.31
451.89	26.31
452.016	2.31
452.142	-6.69
452.268	5.31
452.393	21.31
452.519	4.31
452.645	12.31
452.771	8.31
452.896	-12.69
453.022	-1.69
453.148	21.31
453.273	12.31
453.399	2.31
453.525	-7.69
453.65	-5.69
453.776	15.31
453.902	16.31
454.027	34.31
454.153	33.31
454.279	19.31
454.404	-6.69
454.53	19.31
454.656	37.31
454.781	8.31
454.907	9.31
455.032	-0.69
455.158	36.31
455.284	32.31
455.409	14.31
455.535	13.31
455.66	12.31
455.786	21.31
455.912	6.31
456.037	0.31
456.163	15.31
456.288	23.31
456.414	-10.69
456.539	-16.69
456.665	12.31
456.791	18.31
456.916	6.31
457.042	13.31
457.167	-14.69
457.293	5.31
457.418	-0.69
457.544	2.31
457.669	2.31
457.795	19.31
457.92	5.31
458.046	9.31
458.171	21.31
458.297	7.31
458.422	-4.69
458.548	15.31
458.673	5.31
458.799	7.31
458.924	5.31
459.05	7.31
459.175	-0.69
459.301	-0.69
459.426	16.31
459.552	7.31
459.677	-0.69
459.803	22.31
459.928	14.31
460.053	3.31
460.179	16.31
460.304	26.31
460.43	4.31
460.555	2.31
460.681	-12.69
460.806	14.31
460.931	22.31
461.057	25.31
461.182	4.31
461.308	24.31
461.433	17.31
461.558	6.31
461.684	15.31
461.809	19.31
461.934	14.31
462.06	34.31
462.185	-7.69
462.311	10.31
462.436	16.31
462.561	14.31
462.687	6.31
462.812	13.31
462.937	13.31
463.063	10.31
463.188	-3.69
463.313	34.31
463.439	3.31
463.564	-10.69
463.689	-1.69
463.814	1.31
463.94	3.31
464.065	22.31
464.19	22.31
464.316	-0.69
464.441	6.31
464.566	4.31
464.692	-2.69
464.817	6.31
464.942	3.31
465.067	17.31
465.193	-4.69
465.318	4.31
465.443	-4.69
465.568	6.31
465.694	-0.69
465.819	31.31
465.944	3.31
466.069	11.31
466.194	4.31
466.32	15.31
466.445	1.31
466.57	6.31
466.695	-7.69
466.82	7.31
466.946	9.31
467.071	14.31
467.196	6.31
467.321	17.31
467.446	-7.69
467.572	22.31
467.697	8.31
467.822	2.31
467.947	15.31
468.072	-1.69
468.197	1.31
468.323	-13.69
468.448	-0.69
468.573	0.31
468.698	-2.69
468.823	8.31
468.948	24.31
469.073	19.31
469.198	11.31
469.324	40.31
469.449	-13.69
469.574	25.31
469.699	17.31
469.824	17.31
469.949	6.31
470.074	11.31
470.199	58.31
470.324	8.31
470.449	18.31
470.574	11.31
470.7	-1.69
470.825	3.31
470.95	44.31
471.075	13.31
471.2	3.31
471.325	11.31
471.45	5.31
471.575	8.31
471.7	3.31
471.825	9.31
471.95	8.31
472.075	-0.69
472.2	2.31
472.325	-14.69
472.45	-15.69
472.575	-0.69
472.7	21.31
472.825	19.31
472.95	26.31
473.075	16.31
473.2	17.31
473.325	4.31
473.45	-9.69
473.575	12.31
473.7	28.31
473.825	2.31
473.95	5.31
474.075	15.31
474.2	-5.69
474.325	0.31
474.45	30.31
474.574	4.31
474.699	0.31
474.824	29.31
474.949	4.31
475.074	23.31
475.199	28.31
475.324	16.31
475.449	11.31
475.574	13.31
475.699	9.31
475.824	16.31
475.949	-1.69
476.073	8.31
476.198	5.31
476.323	6.31
476.448	4.31
476.573	22.31
476.698	4.31
476.823	13.31
476.947	17.31
477.072	18.31
477.197	21.31
477.322	15.31
477.447	-4.69
477.572	5.31
477.697	14.31
477.821	17.31
477.946	21.31
478.071	19.31
478.196	22.31
478.321	15.31
478.445	5.31
478.57	-9.69
478.695	3.31
478.82	13.31
478.945	27.31
479.069	7.31
479.194	7.31
479.319	3.31
479.444	-0.69
479.569	8.31
479.693	13.31
479.818	11.31
479.943	9.31
480.068	9.31
480.192	10.31
480.317	14.31
480.442	11.31
480.567	13.31
480.691	1.31
480.816	-0.69
480.941	-2.69
481.066	14.31
481.19	23.31
481.315	25.31
481.44	12.31
481.564	3.31
481.689	21.31
481.814	18.31
481.938	25.31
482.063	5.31
482.188	20.31
482.313	35.31
482.437	16.31
482.562	16.31
482.687	32.31
482.811	22.31
482.936	19.31
483.061	35.31
483.185	7.31
483.31	22.31
483.435	35.31
483.559	12.31
483.684	3.31
483.808	31.31
483.933	25.31
484.058	12.31
484.182	17.31
484.307	20.31
484.432	24.31
484.556	12.31
484.681	6.31
484.805	22.31
484.93	24.31
485.055	52.31
485.179	88.31
485.304	111.31
485.428	372.31
485.553	1249.31
485.678	1693.31
485.802	1620.31
485.927	1813.31
486.051	2634.31
486.176	1612.31
486.3	456.31
486.425	158.31
486.549	65.31
486.674	69.31
486.799	45.31
486.923	20.31
487.048	38.31
487.172	8.31
487.297	31.31
487.421	25.31
487.546	21.31
487.67	4.31
487.795	4.31
487.919	21.31
488.044	29.31
488.168	31.31
488.293	5.31
488.417	1.31
488.542	28.31
488.666	27.31
488.791	14.31
488.915	23.31
489.04	26.31
489.164	35.31
489.289	48.31
489.413	14.31
489.538	29.31
489.662	31.31
489.786	18.31
489.911	1.31
490.035	17.31
490.16	-3.69
490.284	3.31
490.409	-7.69
490.533	5.31
490.658	34.31
490.782	16.31
490.906	16.31
491.031	21.31
491.155	8.31
491.28	5.31
491.404	-2.69
491.528	36.31
491.653	17.31
491.777	25.31
491.902	-0.69
492.026	17.31
492.15	23.31
492.275	55.31
492.399	18.31
492.524	13.31
492.648	29.31
492.772	17.31
492.897	5.31
493.021	9.31
493.145	40.31
493.27	27.31
493.394	14.31
493.518	4.31
493.643	7.31
493.767	12.31
493.891	-4.69
494.016	16.31
494.14	-6.69
494.264	18.31
494.389	28.31
494.513	14.31
494.637	-1.69
494.762	26.31
494.886	47.31
495.01	25.31
495.134	11.31
495.259	14.31
495.383	5.31
495.507	15.31
495.632	20.31
495.756	32.31
495.88	15.31
496.004	8.31
496.129	-2.69
496.253	16.31
496.377	20.31
496.501	15.31
496.626	7.31
496.75	6.31
496.874	16.31
496.998	12.31
497.123	25.31
497.247	20.31
497.371	8.31
497.495	32.31
497.62	17.31
497.744	4.31
497.868	-2.69
497.992	19.31
498.116	9.31
498.241	12.31
498.365	16.31
498.489	-0.69
498.613	31.31
498.737	6.31
498.862	12.31
498.986	-4.69
499.11	3.31
499.234	3.31
499.358	-4.69
499.482	11.31
499.607	17.31
499.731	16.31
499.855	21.31
499.979	16.31
500.103	23.31
500.227	18.31
500.351	8.31
500.476	12.31
500.6	-0.69
500.724	20.31
500.848	12.31
500.972	29.31
501.096	5.31
501.22	43.31
501.344	7.31
501.469	16.31
501.593	11.31
501.717	14.31
501.841	13.31
501.965	20.31
502.089	-2.69
502.213	21.31
502.337	2.31
502.461	-3.69
502.585	9.31
502.709	26.31
502.834	2.31
502.958	-2.69
503.082	6.31
503.206	15.31
503.33	26.31
503.454	23.31
503.578	15.31
503.702	24.31
503.826	23.31
503.95	27.31
504.074	12.31
504.198	-0.69
504.322	-2.69
504.446	7.31
504.57	13.31
504.694	10.31
504.818	15.31
504.942	34.31
505.066	25.31
505.19	11.31
505.314	1.31
505.438	13.31
505.562	-0.69
505.686	35.31
505.81	21.31
505.934	14.31
506.058	6.31
506.182	16.31
506.306	14.31
506.43	-0.69
506.554	14.31
506.678	9.31
506.802	13.31
506.926	13.31
507.05	27.31
507.174	30.31
507.298	34.31
507.422	22.31
507.546	23.31
507.67	21.31
507.794	-3.69
507.918	17.31
508.042	27.31
508.165	13.31
508.289	-7.69
508.413	5.31
508.537	8.31
508.661	6.31
508.785	21.31
508.909	30.31
509.033	10.31
509.157	19.31
509.281	8.31
509.405	7.31
509.528	20.31
509.652	27.31
509.776	17.31
509.9	21.31
510.024	9.31
510.148	13.31
510.272	12.31
510.396	16.31
510.519	-0.69
510.643	32.31
510.767	2.31
510.891	35.31
511.015	4.31
511.139	11.31
511.263	36.31
511.386	16.31
511.51	-8.69
511.634	0.31
511.758	-8.69
511.882	-6.69
512.006	22.31
512.129	19.31
512.253	38.31
512.377	11.31
512.501	18.31
512.625	24.31
512.748	17.31
512.872	-1.69
512.996	12.31
513.12	-4.69
513.244	-4.69
513.367	20.31
513.491	16.31
513.615	23.31
513.739	5.31
513.862	16.31
513.986	24.31
514.11	19.31
514.234	5.31
514.358	20.31
514.481	12.31
514.605	-6.69
514.729	28.31
514.853	24.31
514.976	-7.69
515.1	6.31
515.224	25.31
515.348	3.31
515.471	-7.69
515.595	18.31
515.719	9.31
515.842	30.31
515.966	11.31
516.09	30.31
516.214	5.31
516.337	23.31
516.461	24.31
516.585	33.31
516.708	27.31
516.832	22.31
516.956	12.31
517.08	5.31
517.203	5.31
517.327	12.31
517.451	11.31
517.574	25.31
517.698	21.31
517.822	13.31
517.945	10.31
518.069	18.31
518.193	26.31
518.316	28.31
518.44	26.31
518.564	19.31
518.687	22.31
518.811	19.31
518.935	46.31
519.058	38.31
519.182	21.31
519.306	43.31
519.429	29.31
519.553	47.31
519.676	13.31
519.8	24.31
519.924	-4.69
520.047	0.31
520.171	21.31
520.294	13.31
520.418	21.31
520.542	11.31
520.665	19.31
520.789	20.31
520.913	8.31
521.036	3.31
521.16	7.31
521.283	20.31
521.407	3.31
521.53	10.31
521.654	-11.69
521.778	18.31
521.901	2.31
522.025	6.31
522.148	16.31
522.272	23.31
522.395	9.31
522.519	26.31
522.643	-14.69
522.766	15.31
522.89	-4.69
523.013	20.31
523.137	-19.69
523.26	3.31
523.384	15.31
523.507	6.31
523.631	2.31
523.754	16.31
523.878	16.31
524.002	25.31
524.125	17.31
524.249	-13.69
524.372	-2.69
524.496	-4.69
524.619	2.31
524.743	14.31
524.866	-2.69
524.99	5.31
525.113	-21.69
525.237	34.31
525.36	19.31
525.484	5.31
525.607	3.31
525.731	-15.69
525.854	5.31
525.978	42.31
526.101	8.31
526.224	-7.69
526.348	36.31
526.471	21.31
526.595	16.31
526.718	-4.69
526.842	-1.69
526.965	24.31
527.089	22.31
527.212	18.31
527.336	16.31
527.459	14.31
527.582	-0.69
527.706	19.31
527.829	10.31
527.953	11.31
528.076	-3.69
528.2	1.31
528.323	19.31
528.446	18.31
528.57	23.31
528.693	9.31
528.817	-5.69
528.94	10.31
529.064	30.31
529.187	-0.69
529.31	-9.69
529.434	7.31
529.557	3.31
529.68	13.31
529.804	10.31
529.927	-2.69
530.051	-0.69
530.174	6.31
530.297	18.31
530.421	25.31
530.544	19.31
530.668	9.31
530.791	-19.69
530.914	14.31
531.038	13.31
531.161	16.31
531.284	-6.69
531.408	24.31
531.531	11.31
531.654	19.31
531.778	2.31
531.901	-5.69
532.024	12.31
532.148	15.31
532.271	29.31
532.394	12.31
532.518	17.31
532.641	25.31
532.764	21.31
532.888	25.31
533.011	3.31
533.134	-6.69
533.258	18.31
533.381	3.31
533.504	5.31
533.628	14.31
533.751	19.31
533.874	9.31
533.997	11.31
534.121	-0.69
534.244	4.31
534.367	9.31
534.491	9.31
534.614	19.31
534.737	6.31
534.86	22.31
534.984	11.31
535.107	2.31
535.23	12.31
535.354	27.31
535.477	4.31
535.6	10.31
535.723	4.31
535.847	13.31
535.97	2.31
536.093	22.31
536.216	5.31
536.34	6.31
536.463	-3.69
536.586	26.31
536.709	28.31
536.833	17.31
536.956	16.31
537.079	8.31
537.202	12.31
537.325	3.31
537.449	0.31
537.572	10.31
537.695	12.31
537.818	13.31
537.941	-9.69
538.065	14.31
538.188	8.31
538.311	29.31
538.434	20.31
538.558	23.31
538.681	13.31
538.804	19.31
538.927	31.31
539.05	17.31
539.173	14.31
539.297	5.31
539.42	9.31
539.543	19.31
539.666	19.31
539.789	20.31
539.913	10.31
540.036	19.31
540.159	-5.69
540.282	6.31
540.405	12.31
540.528	20.31
540.651	16.31
540.775	9.31
540.898	16.31
541.021	9.31
541.144	12.31
541.267	9.31
541.39	-1.69
541.513	12.31
541.637	2.31
541.76	7.31
541.883	-6.69
542.006	14.31
542.129	29.31
542.252	9.31
542.375	24.31
542.498	4.31
542.622	22.31
542.745	13.31
542.868	17.31
542.991	11.31
543.114	23.31
543.237	28.31
543.36	27.31
543.483	16.31
543.606	25.31
543.73	25.31
543.853	13.31
543.976	13.31
544.099	19.31
544.222	12.31
544.345	-12.69
544.468	13.31
544.591	5.31
544.714	17.31
544.837	30.31
544.96	13.31
545.083	29.31
545.206	18.31
545.329	29.31
545.453	35.31
545.576	13.31
545.699	16.31
545.822	8.31
545.945	7.31
546.068	-12.69
546.191	13.31
546.314	0.31
546.437	9.31
546.56	5.31
546.683	-3.69
546.806	19.31
546.929	20.31
547.052	13.31
547.175	-7.69
547.298	24.31
547.421	-0.69
547.544	-7.69
547.667	36.31
547.79	8.31
547.913	-9.69
548.036	-1.69
548.159	7.31
548.282	11.31
548.405	-6.69
548.528	6.31
548.651	4.31
548.774	22.31
548.897	18.31
549.02	28.31
549.143	21.31
549.266	13.31
549.389	18.31
549.512	-6.69
549.635	27.31
549.758	5.31
549.881	6.31
550.004	10.31
550.127	16.31
550.25	6.31
550.373	-8.69
550.496	16.31
550.619	15.31
550.742	16.31
550.865	1.31
550.988	7.31
551.111	32.31
551.234	14.31
551.356	13.31
551.479	-1.69
551.602	3.31
551.725	25.31
551.848	31.31
551.971	20.31
552.094	9.31
552.217	5.31
552.34	6.31
552.463	-4.69
552.586	20.31
552.709	8.31
552.832	5.31
552.955	5.31
553.077	31.31
553.2	7.31
553.323	23.31
553.446	14.31
553.569	2.31
553.692	15.31
553.815	-7.69
553.938	31.31
554.061	29.31
554.184	-2.69
554.306	22.31
554.429	13.31
554.552	22.31
554.675	5.31
554.798	8.31
554.921	35.31
555.044	5.31
555.167	5.31
555.29	12.31
555.412	13.31
555.535	13.31
555.658	8.31
555.781	28.31
555.904	6.31
556.027	17.31
556.15	9.31
556.272	-13.69
556.395	-3.69
556.518	-1.69
556.641	12.31
556.764	25.31
556.887	13.31
557.01	9.31
557.132	10.31
557.255	19.31
557.378	23.31
557.501	12.31
557.624	4.31
557.747	3.31
557.869	9.31
557.992	16.31
558.115	14.31
558.238	9.31
558.361	30.31
558.483	31.31
558.606	13.31
558.729	9.31
558.852	38.31
558.975	26.31
559.098	16.31
559.22	14.31
559.343	21.31
559.466	12.31
559.589	-3.69
559.712	7.31
559.834	6.31
559.957	-3.69
560.08	25.31
560.203	19.31
560.325	18.31
560.448	19.31
560.571	17.31
560.694	11.31
560.817	16.31
560.939	14.31
561.062	-24.69
561.185	3.31
561.308	-3.69
561.43	-1.69
561.553	15.31
561.676	4.31
561.799	26.31
561.921	3.31
562.044	17.31
562.167	-0.69
562.29	11.31
562.413	3.31
562.535	-5.69
562.658	3.31
562.781	8.31
562.903	1.31
563.026	2.31
563.149	24.31
563.272	14.31
563.394	20.31
563.517	11.31
563.64	-4.69
563.763	13.31
563.885	27.31
564.008	31.31
564.131	13.31
564.254	-6.69
564.376	23.31
564.499	6.31
564.622	8.31
564.744	10.31
564.867	11.31
564.99	1.31
565.113	-2.69
565.235	22.31
565.358	14.31
565.481	-15.69
565.603	5.31
565.726	4.31
565.849	42.31
565.971	18.31
566.094	7.31
566.217	5.31
566.34	5.31
566.462	13.31
566.585	6.31
566.708	26.31
566.83	-2.69
566.953	36.31
567.076	10.31
567.198	4.31
567.321	15.31
567.444	18.31
567.566	20.31
567.689	-0.69
567.812	1.31
567.934	20.31
568.057	13.31
568.18	29.31
568.302	17.31
568.425	2.31
568.548	4.31
568.67	22.31
568.793	0.31
568.916	-5.69
569.038	7.31
569.161	0.31
569.283	3.31
569.406	23.31
569.529	15.31
569.651	-10.69
569.774	5.31
569.897	-4.69
570.019	21.31
570.142	11.31
570.265	15.31
570.387	6.31
570.51	30.31
570.632	21.31
570.755	12.31
570.878	1.31
571	17.31
571.123	-5.69
571.246	14.31
571.368	9.31
571.491	-5.69
571.613	-2.69
571.736	5.31
571.859	2.31
571.981	-16.69
572.104	0.31
572.226	9.31
572.349	16.31
572.472	-6.69
572.594	-2.69
572.717	11.31
572.839	-21.69
572.962	15.31
573.085	4.31
573.207	20.31
573.33	7.31
573.452	17.31
573.575	28.31
573.697	5.31
573.82	-11.69
573.943	-10.69
574.065	9.31
574.188	5.31
574.31	25.31
574.433	25.31
574.555	44.31
574.678	-3.69
574.801	4.31
574.923	-7.69
575.046	14.31
575.168	3.31
575.291	1.31
575.413	3.31
575.536	-0.69
575.659	16.31
575.781	-11.69
575.904	12.31
576.026	-0.69
576.149	0.31
576.271	16.31
576.394	9.31
576.516	0.31
576.639	18.31
576.761	7.31
576.884	2.31
577.007	0.31
577.129	9.31
577.252	7.31
577.374	15.31
577.497	0.31
577.619	-2.69
577.742	-2.69
577.864	30.31
577.987	14.31
578.109	12.31
578.232	21.31
578.354	20.31
578.477	7.31
578.599	13.31
578.722	1.31
578.844	0.31
578.967	13.31
579.089	13.31
579.212	3.31
579.334	12.31
579.457	0.31
579.579	17.31
579.702	1.31
579.824	24.31
579.947	10.31
580.069	-4.69
580.192	1.31
580.314	24.31
580.437	13.31
580.559	34.31
580.682	8.31
580.804	24.31
580.927	24.31
581.049	34.31
581.172	28.31
581.294	23.31
581.417	25.31
581.539	6.31
581.662	13.31
581.784	15.31
581.907	23.31
582.029	24.31
582.152	12.31
582.274	28.31
582.396	1.31
582.519	13.31
582.641	0.31
582.764	5.31
582.886	32.31
583.009	4.31
583.131	9.31
583.254	15.31
583.376	52.31
583.499	26.31
583.621	13.31
583.743	13.31
583.866	18.31
583.988	-7.69
584.111	16.31
584.233	-4.69
584.356	16.31
584.478	9.31
584.601	-2.69
584.723	3.31
584.845	12.31
584.968	10.31
585.09	-10.69
585.213	22.31
585.335	1.31
585.458	8.31
585.58	12.31
585.702	12.31
585.825	10.31
585.947	0.31
586.07	-16.69
586.192	5.31
586.315	16.31
586.437	4.31
586.559	10.31
586.682	-11.69
586.804	19.31
586.927	15.31
587.049	13.31
587.171	26.31
587.294	-3.69
587.416	26.31
587.539	11.31
587.661	-4.69
587.783	-2.69
587.906	3.31
588.028	10.31
588.151	-16.69
588.273	25.31
588.395	5.31
588.518	12.31
588.64	19.31
588.763	20.31
588.885	34.31
589.007	21.31
589.13	-8.69
589.252	2.31
589.375	14.31
589.497	20.31
589.619	11.31
589.742	20.31
589.864	49.31
589.986	21.31
590.109	10.31
590.231	-7.69
590.354	3.31
590.476	-2.69
590.598	2.31
590.721	0.31
590.843	15.31
590.965	13.31
591.088	11.31
591.21	3.31
591.332	-3.69
591.455	-9.69
591.577	-8.69
591.7	3.31
591.822	5.31
591.944	-8.69
592.067	-0.69
592.189	-6.69
592.311	13.31
592.434	11.31
592.556	15.31
592.678	-5.69
592.801	-0.69
592.923	19.31
593.045	9.31
593.168	26.31
593.29	16.31
593.412	21.31
593.535	-18.69
593.657	-0.69
593.779	17.31
593.902	18.31
594.024	12.31
594.146	9.31
594.269	13.31
594.391	2.31
594.513	35.31
594.636	8.31
594.758	-4.69
594.88	19.31
595.003	8.31
595.125	-5.69
595.247	6.31
595.37	4.31
595.492	8.31
595.614	21.31
595.737	11.31
595.859	15.31
595.981	7.31
596.104	8.31
596.226	-1.69
596.348	3.31
596.471	24.31
596.593	28.31
596.715	3.31
596.838	6.31
596.96	13.31
597.082	13.31
597.204	16.31
597.327	3.31
597.449	9.31
597.571	9.31
597.694	26.31
597.816	0.31
597.938	-6.69
598.061	13.31
598.183	20.31
598.305	24.31
598.427	1.31
598.55	4.31
598.672	43.31
598.794	19.31
598.917	15.31
599.039	3.31
599.161	12.31
599.283	11.31
599.406	15.31
599.528	21.31
599.65	22.31
599.773	7.31
599.895	27.31
600.017	14.31
600.139	-5.69
600.262	0.31
600.384	12.31
600.506	5.31
600.628	38.31
600.751	34.31
600.873	31.31
600.995	17.31
601.118	27.31
601.24	-1.69
601.362	28.31
601.484	17.31
601.607	24.31
601.729	5.31
601.851	20.31
601.973	17.31
602.096	10.31
602.218	23.31
602.34	26.31
602.462	14.31
602.585	32.31
602.707	-0.69
602.829	24.31
602.951	9.31
603.074	2.31
603.196	2.31
603.318	-0.69
603.44	25.31
603.563	8.31
603.685	-2.69
603.807	32.31
603.929	0.31
604.052	15.31
604.174	27.31
604.296	12.31
604.418	17.31
604.541	32.31
604.663	20.31
604.785	9.31
604.907	16.31
605.03	15.31
605.152	28.31
605.274	13.31
605.396	-1.69
605.519	10.31
605.641	9.31
605.763	14.31
605.885	-7.69
606.008	21.31
606.13	31.31
606.252	21.31
606.374	-0.69
606.496	-7.69
606.619	9.31
606.741	-1.69
606.863	14.31
606.985	25.31
607.108	18.31
607.23	13.31
607.352	6.31
607.474	0.31
607.596	2.31
607.719	8.31
607.841	27.31
607.963	13.31
608.085	19.31
608.207	27.31
608.33	20.31
608.452	-4.69
608.574	3.31
608.696	20.31
608.819	-0.69
608.941	-4.69
609.063	4.31
609.185	19.31
609.307	4.31
609.43	11.31
609.552	19.31
609.674	-2.69
609.796	27.31
609.918	12.31
610.041	9.31
610.163	22.31
610.285	15.31
610.407	14.31
610.529	-11.69
610.652	1.31
610.774	15.31
610.896	22.31
611.018	-4.69
611.14	-5.69
611.263	-0.69
611.385	10.31
611.507	13.31
611.629	-3.69
611.751	8.31
611.873	34.31
611.996	4.31
612.118	18.31
612.24	7.31
612.362	24.31
612.484	31.31
612.607	5.31
612.729	49.31
612.851	19.31
612.973	7.31
613.095	4.31
613.218	0.31
613.34	35.31
613.462	21.31
613.584	6.31
613.706	-3.69
613.828	49.31
613.951	20.31
614.073	13.31
614.195	-0.69
614.317	18.31
614.439	14.31
614.561	19.31
614.684	13.31
614.806	0.31
614.928	15.31
615.05	17.31
615.172	13.31
615.294	13.31
615.417	2.31
615.539	7.31
615.661	19.31
615.783	41.31
615.905	35.31
616.027	58.31
616.15	99.31
616.272	83.31
616.394	47.31
616.516	33.31
616.638	19.31
616.76	15.31
616.883	10.31
617.005	-9.69
617.127	-2.69
617.249	13.31
617.371	11.31
617.493	-3.69
617.615	15.31
617.738	12.31
617.86	4.31
617.982	5.31
618.104	-2.69
618.226	-2.69
618.348	4.31
618.471	21.31
618.593	24.31
618.715	1.31
618.837	4.31
618.959	-1.69
619.081	19.31
619.203	9.31
619.326	5.31
619.448	14.31
619.57	11.31
619.692	3.31
619.814	24.31
619.936	15.31
620.058	7.31
620.181	17.31
620.303	7.31
620.425	21.31
620.547	6.31
620.669	6.31
620.791	2.31
620.913	10.31
621.036	9.31
621.158	8.31
621.28	16.31
621.402	-3.69
621.524	6.31
621.646	14.31
621.768	-3.69
621.891	-21.69
622.013	-3.69
622.135	-0.69
622.257	-0.69
622.379	11.31
622.501	4.31
622.623	10.31
622.745	6.31
622.868	13.31
622.99	3.31
623.112	10.31
623.234	8.31
623.356	10.31
623.478	3.31
623.6	15.31
623.722	2.31
623.845	10.31
623.967	17.31
624.089	10.31
624.211	23.31
624.333	21.31
624.455	5.31
624.577	12.31
624.699	11.31
624.822	28.31
624.944	15.31
625.066	5.31
625.188	3.31
625.31	3.31
625.432	31.31
625.554	9.31
625.676	23.31
625.799	10.31
625.921	8.31
626.043	24.31
626.165	8.31
626.287	-5.69
626.409	25.31
626.531	14.31
626.653	10.31
626.775	8.31
626.898	12.31
627.02	20.31
627.142	16.31
627.264	7.31
627.386	0.31
627.508	13.31
627.63	7.31
627.752	18.31
627.874	8.31
627.997	10.31
628.119	7.31
628.241	17.31
628.363	11.31
628.485	10.31
628.607	2.31
628.729	3.31
628.851	1.31
628.973	9.31
629.096	-5.69
629.218	4.31
629.34	10.31
629.462	3.31
629.584	-3.69
629.706	13.31
629.828	25.31
629.95	17.31
630.072	-10.69
630.195	5.31
630.317	20.31
630.439	0.31
630.561	27.31
630.683	10.31
630.805	2.31
630.927	16.31
631.049	7.31
631.171	-0.69
631.293	22.31
631.416	7.31
631.538	-7.69
631.66	18.31
631.782	18.31
631.904	25.31
632.026	8.31
632.148	3.31
632.27	-4.69
632.392	9.31
632.514	1.31
632.637	16.31
632.759	-4.69
632.881	12.31
633.003	2.31
633.125	-0.69
633.247	-0.69
633.369	-4.69
633.491	11.31
633.613	22.31
633.735	-2.69
633.858	15.31
633.98	5.31
634.102	-5.69
634.224	3.31
634.346	9.31
634.468	8.31
634.59	15.31
634.712	4.31
634.834	2.31
634.956	2.31
635.078	2.31
635.201	7.31
635.323	-1.69
635.445	-0.69
635.567	3.31
635.689	14.31
635.811	16.31
635.933	5.31
636.055	0.31
636.177	20.31
636.299	24.31
636.421	-4.69
636.544	-23.69
636.666	14.31
636.788	19.31
636.91	16.31
637.032	-9.69
637.154	-6.69
637.276	34.31
637.398	14.31
637.52	22.31
637.642	10.31
637.764	19.31
637.887	5.31
638.009	12.31
638.131	5.31
638.253	-6.69
638.375	7.31
638.497	8.31
638.619	0.31
638.741	9.31
638.863	-7.69
638.985	8.31
639.107	0.31
639.23	-3.69
639.352	11.31
639.474	15.31
639.596	16.31
639.718	11.31
639.84	8.31
639.962	15.31
640.084	8.31
640.206	18.31
640.328	4.31
640.45	3.31
640.573	3.31
640.695	1.31
640.817	12.31
640.939	13.31
641.061	-0.69
641.183	13.31
641.305	-3.69
641.427	4.31
641.549	14.31
641.671	20.31
641.793	-5.69
641.915	36.31
642.038	10.31
642.16	11.31
642.282	2.31
642.404	14.31
642.526	21.31
642.648	10.31
642.77	4.31
642.892	22.31
643.014	22.31
643.136	11.31
643.258	8.31
643.381	23.31
643.503	21.31
643.625	-7.69
643.747	-10.69
643.869	-0.69
643.991	18.31
644.113	12.31
644.235	-1.69
644.357	23.31
644.479	12.31
644.601	0.31
644.723	6.31
644.846	25.31
644.968	5.31
645.09	11.31
645.212	-6.69
645.334	20.31
645.456	32.31
645.578	19.31
645.7	4.31
645.822	13.31
645.944	15.31
646.066	12.31
646.188	10.31
646.311	14.31
646.433	0.31
646.555	44.31
646.677	29.31
646.799	16.31
646.921	14.31
647.043	31.31
647.165	-12.69
647.287	9.31
647.409	19.31
647.531	23.31
647.654	-0.69
647.776	16.31
647.898	17.31
648.02	9.31
648.142	-8.69
648.264	6.31
648.386	2.31
648.508	-7.69
648.63	5.31
648.752	17.31
648.874	7.31
648.997	15.31
649.119	14.31
649.241	13.31
649.363	29.31
649.485	11.31
649.607	-14.69
649.729	4.31
649.851	9.31
649.973	19.31
650.095	20.31
650.217	3.31
650.34	-14.69
650.462	7.31
650.584	19.31
650.706	2.31
650.828	8.31
650.95	-11.69
651.072	13.31
651.194	0.31
651.316	-1.69
651.438	3.31
651.56	-11.69
651.683	-16.69
651.805	5.31
651.927	9.31
652.049	7.31
652.171	13.31
652.293	0.31
652.415	-4.69
652.537	-10.69
652.659	-4.69
652.781	16.31
652.903	26.31
653.026	35.31
653.148	4.31
653.27	16.31
653.392	27.31
653.514	2.31
653.636	8.31
653.758	13.31
653.88	3.31
654.002	-1.69
654.124	10.31
654.247	8.31
654.369	27.31
654.491	5.31
654.613	23.31
654.735	0.31
654.857	22.31
654.979	18.31
655.101	17.31
655.223	50.31
655.345	45.31
655.468	34.31
655.59	19.31
655.712	27.31
655.834	31.31
655.956	51.31
656.078	26.31
656.2	41.31
656.322	37.31
656.444	14.31
656.566	52.31
656.689	52.31
656.811	58.31
656.933	75.31
657.055	79.31
657.177	152.31
657.299	247.31
657.421	503.31
657.543	1887.31
657.665	12596.31
657.787	15175.31
657.91	15281.31
658.032	15662.31
658.154	4657.31
658.276	3552.31
658.398	1156.31
658.52	1049.31
658.642	490.31
658.764	589.31
658.886	259.31
659.009	436.31
659.131	223.31
659.253	314.31
659.375	168.31
659.497	242.31
659.619	159.31
659.741	219.31
659.863	121.31
659.985	184.31
660.108	109.31
660.23	140.31
660.352	80.31
660.474	152.31
660.596	76.31
660.718	111.31
660.84	61.31
660.962	127.31
661.084	58.31
661.207	92.31
661.329	53.31
661.451	85.31
661.573	43.31
661.695	109.31
661.817	63.31
661.939	114.31
662.061	61.31
662.184	58.31
662.306	26.31
662.428	85.31
662.55	60.31
662.672	72.31
662.794	51.31
662.916	63.31
663.038	31.31
663.161	80.31
663.283	50.31
663.405	81.31
663.527	23.31
663.649	60.31
663.771	16.31
663.893	57.31
664.015	40.31
664.138	43.31
664.26	33.31
664.382	47.31
664.504	25.31
664.626	25.31
664.748	12.31
664.87	28.31
664.992	33.31
665.115	53.31
665.237	38.31
665.359	32.31
665.481	21.31
665.603	57.31
665.725	14.31
665.847	31.31
665.97	29.31
666.092	51.31
666.214	36.31
666.336	49.31
666.458	24.31
666.58	44.31
666.702	15.31
666.825	31.31
666.947	4.31
667.069	9.31
667.191	18.31
667.313	41.31
667.435	17.31
667.557	24.31
667.68	11.31
667.802	32.31
667.924	8.31
668.046	29.31
668.168	27.31
668.29	56.31
668.412	17.31
668.535	38.31
668.657	25.31
668.779	9.31
668.901	23.31
669.023	27.31
669.145	16.31
669.267	36.31
669.39	25.31
669.512	26.31
669.634	9.31
669.756	22.31
669.878	17.31
670	32.31
670.123	7.31
670.245	27.31
670.367	11.31
670.489	31.31
670.611	6.31
670.733	16.31
670.856	2.31
670.978	27.31
671.1	34.31
671.222	23.31
671.344	28.31
671.466	10.31
671.589	-0.69
671.711	27.31
671.833	5.31
671.955	24.31
672.077	18.31
672.199	32.31
672.322	11.31
672.444	32.31
672.566	25.31
672.688	19.31
672.81	13.31
672.932	19.31
673.055	10.31
673.177	14.31
673.299	9.31
673.421	6.31
673.543	16.31
673.665	23.31
673.788	15.31
673.91	1.31
674.032	-0.69
674.154	21.31
674.276	9.31
674.399	11.31
674.521	14.31
674.643	24.31
674.765	-0.69
674.887	13.31
675.009	18.31
675.132	5.31
675.254	5.31
675.376	13.31
675.498	0.31
675.62	27.31
675.743	0.31
675.865	15.31
675.987	-1.69
676.109	15.31
676.231	20.31
676.354	37.31
676.476	8.31
676.598	16.31
676.72	15.31
676.842	17.31
676.965	-2.69
677.087	20.31
677.209	18.31
677.331	21.31
677.453	18.31
677.576	15.31
677.698	16.31
677.82	17.31
677.942	-5.69
678.064	17.31
678.187	8.31
678.309	-1.69
678.431	1.31
678.553	13.31
678.675	37.31
678.798	38.31
678.92	17.31
679.042	-2.69
679.164	9.31
679.286	25.31
679.409	8.31
679.531	-6.69
679.653	1.31
679.775	17.31
679.898	-0.69
680.02	21.31
680.142	-0.69
680.264	29.31
680.386	-4.69
680.509	21.31
680.631	21.31
680.753	11.31
680.875	4.31
680.998	9.31
681.12	8.31
681.242	16.31
681.364	-7.69
681.486	20.31
681.609	-7.69
681.731	-8.69
681.853	-4.69
681.975	-8.69
682.098	12.31
682.22	27.31
682.342	-2.69
682.464	5.31
682.587	12.31
682.709	0.31
682.831	0.31
682.953	11.31
683.076	5.31
683.198	14.31
683.32	2.31
683.442	12.31
683.565	21.31
683.687	2.31
683.809	4.31
683.931	9.31
684.054	8.31
684.176	22.31
684.298	-7.69
684.42	7.31
684.543	-3.69
684.665	31.31
684.787	27.31
684.909	9.31
685.032	24.31
685.154	-5.69
685.276	17.31
685.398	9.31
685.521	-7.69
685.643	17.31
685.765	14.31
685.887	26.31
686.01	18.31
686.132	13.31
686.254	28.31
686.377	27.31
686.499	28.31
686.621	20.31
686.743	13.31
686.866	16.31
686.988	34.31
687.11	36.31
687.232	10.31
687.355	8.31
687.477	-7.69
687.599	16.31
687.722	10.31
687.844	13.31
687.966	4.31
688.088	8.31
688.211	29.31
688.333	27.31
688.455	5.31
688.578	17.31
688.7	17.31
688.822	17.31
688.944	-4.69
689.067	50.31
689.189	24.31
689.311	6.31
689.434	-3.69
689.556	7.31
689.678	15.31
689.801	11.31
689.923	-1.69
690.045	40.31
690.167	9.31
690.29	27.31
690.412	4.31
690.534	31.31
690.657	9.31
690.779	4.31
690.901	-5.69
691.024	-11.69
691.146	1.31
691.268	13.31
691.391	22.31
691.513	25.31
691.635	15.31
691.758	22.31
691.88	21.31
692.002	3.31
692.125	2.31
692.247	14.31
692.369	-1.69
692.492	8.31
692.614	-7.69
692.736	-12.69
692.859	-3.69
692.981	18.31
693.103	-12.69
693.226	12.31
693.348	38.31
693.47	14.31
693.593	24.31
693.715	-1.69
693.837	10.31
693.96	6.31
694.082	5.31
694.204	21.31
694.327	9.31
694.449	-7.69
694.571	21.31
694.694	15.31
694.816	25.31
694.938	1.31
695.061	-5.69
695.183	11.31
695.305	1.31
695.428	3.31
695.55	-6.69
695.672	9.31
695.795	16.31
695.917	36.31
696.04	10.31
696.162	12.31
696.284	1.31
696.407	8.31
696.529	25.31
696.651	21.31
696.774	-1.69
696.896	20.31
697.019	22.31
697.141	9.31
697.263	9.31
697.386	11.31
697.508	18.31
697.63	18.31
697.753	3.31
697.875	23.31
697.998	15.31
698.12	17.31
698.242	5.31
698.365	29.31
698.487	0.31
698.61	10.31
698.732	15.31
698.854	13.31
698.977	26.31
699.099	25.31
699.221	-3.69
699.344	9.31
699.466	6.31
699.589	12.31
699.711	0.31
699.834	-5.69
699.956	2.31
700.078	22.31
700.201	0.31
700.323	13.31
700.446	1.31
700.568	8.31
700.69	27.31
700.813	2.31
700.935	-12.69
701.058	14.31
701.18	9.31
701.302	15.31
701.425	4.31
701.547	25.31
701.67	-5.69
701.792	16.31
701.915	10.31
702.037	19.31
702.159	12.31
702.282	25.31
702.404	12.31
702.527	0.31
702.649	36.31
702.772	10.31
702.894	16.31
703.017	28.31
703.139	6.31
703.261	12.31
703.384	17.31
703.506	7.31
703.629	-4.69
703.751	-5.69
703.874	19.31
703.996	9.31
704.119	-5.69
704.241	9.31
704.364	7.31
704.486	17.31
704.608	16.31
704.731	-2.69
704.853	15.31
704.976	3.31
705.098	32.31
705.221	9.31
705.343	18.31
705.466	21.31
705.588	10.31
705.711	5.31
705.833	8.31
705.956	5.31
706.078	10.31
706.201	10.31
706.323	1.31
706.446	9.31
