Data from LowRes_H2_15_26_11_07_2024_HR4C61881__38__15-28-17-437.txt Node

Date: Thu Nov 07 15:28:17 EST 2024
User: crc00042
Spectrometer: HR4C6188
Trigger mode: 4
Integration Time (sec): 1.000000E-1
Scans to average: 1
Electric dark correction enabled: true
Nonlinearity correction enabled: false
Boxcar width: 0
XAxis mode: Wavelengths
Number of Pixels in Spectrum: 3648
>>>>>Begin Spectral Data<<<<<
245.66	-94.38
245.797	-94.38
245.934	-94.38
246.071	-85.38
246.208	11.62
246.344	7.62
246.481	-11.38
246.618	-1.38
246.755	10.62
246.892	2.62
247.029	6.62
247.165	-19.38
247.302	4.62
247.439	-3.38
247.576	6.62
247.713	-7.38
247.849	19.62
247.986	-15.38
248.123	6.62
248.26	-6.38
248.396	23.62
248.533	18.62
248.67	9.62
248.806	-11.38
248.943	-1.38
249.08	-1.38
249.216	12.62
249.353	7.62
249.49	-8.38
249.626	-18.38
249.763	-2.38
249.9	-3.38
250.036	-6.38
250.173	-4.38
250.309	8.62
250.446	-2.38
250.582	-2.38
250.719	-22.38
250.856	-9.38
250.992	-5.38
251.129	-5.38
251.265	-9.38
251.402	6.62
251.538	10.62
251.675	-2.38
251.811	15.62
251.948	35.62
252.084	10.62
252.221	-10.38
252.357	-19.38
252.493	19.62
252.63	7.62
252.766	15.62
252.903	3.62
253.039	-18.38
253.175	-7.38
253.312	7.62
253.448	-18.38
253.585	-18.38
253.721	9.62
253.857	8.62
253.994	0.62
254.13	9.62
254.266	8.62
254.403	7.62
254.539	-9.38
254.675	10.62
254.811	8.62
254.948	-1.38
255.084	-30.38
255.22	1.62
255.356	-7.38
255.493	16.62
255.629	4.62
255.765	5.62
255.901	23.62
256.037	18.62
256.174	-4.38
256.31	1.62
256.446	2.62
256.582	-10.38
256.718	-4.38
256.854	12.62
256.991	16.62
257.127	24.62
257.263	10.62
257.399	15.62
257.535	-10.38
257.671	3.62
257.807	-16.38
257.943	-16.38
258.079	2.62
258.215	-3.38
258.351	17.62
258.487	1.62
258.623	2.62
258.759	-10.38
258.895	3.62
259.031	4.62
259.167	-19.38
259.303	12.62
259.439	0.62
259.575	-17.38
259.711	2.62
259.847	8.62
259.983	7.62
260.119	-3.38
260.255	4.62
260.391	3.62
260.527	3.62
260.663	21.62
260.799	19.62
260.934	-6.38
261.07	-7.38
261.206	-20.38
261.342	-3.38
261.478	11.62
261.614	12.62
261.749	-2.38
261.885	17.62
262.021	11.62
262.157	20.62
262.293	7.62
262.428	8.62
262.564	20.62
262.7	-2.38
262.836	2.62
262.971	24.62
263.107	10.62
263.243	37.62
263.378	11.62
263.514	-12.38
263.65	2.62
263.785	-9.38
263.921	0.62
264.057	-1.38
264.192	-6.38
264.328	22.62
264.464	2.62
264.599	14.62
264.735	23.62
264.871	-10.38
265.006	14.62
265.142	3.62
265.277	2.62
265.413	15.62
265.548	10.62
265.684	13.62
265.819	2.62
265.955	0.62
266.091	-0.38
266.226	-17.38
266.362	-9.38
266.497	2.62
266.633	-17.38
266.768	-8.38
266.903	15.62
267.039	11.62
267.174	12.62
267.31	4.62
267.445	9.62
267.581	0.62
267.716	6.62
267.851	-4.38
267.987	7.62
268.122	9.62
268.258	-10.38
268.393	-13.38
268.528	19.62
268.664	-3.38
268.799	-22.38
268.934	-9.38
269.07	-16.38
269.205	2.62
269.34	19.62
269.476	12.62
269.611	-10.38
269.746	10.62
269.881	0.62
270.017	9.62
270.152	-4.38
270.287	9.62
270.422	18.62
270.558	1.62
270.693	1.62
270.828	-11.38
270.963	-4.38
271.098	-5.38
271.234	-9.38
271.369	-4.38
271.504	-7.38
271.639	-7.38
271.774	4.62
271.909	13.62
272.045	-17.38
272.18	-4.38
272.315	10.62
272.45	10.62
272.585	-21.38
272.72	3.62
272.855	11.62
272.99	23.62
273.125	-2.38
273.26	3.62
273.395	-5.38
273.53	-3.38
273.665	-1.38
273.8	-3.38
273.935	6.62
274.07	3.62
274.205	24.62
274.34	12.62
274.475	8.62
274.61	11.62
274.745	-8.38
274.88	14.62
275.015	-5.38
275.15	14.62
275.285	-0.38
275.42	-2.38
275.555	19.62
275.69	15.62
275.825	0.62
275.959	11.62
276.094	7.62
276.229	-4.38
276.364	-9.38
276.499	-2.38
276.634	-1.38
276.768	6.62
276.903	-1.38
277.038	22.62
277.173	7.62
277.308	-4.38
277.442	-11.38
277.577	-24.38
277.712	3.62
277.847	5.62
277.981	17.62
278.116	-18.38
278.251	10.62
278.386	6.62
278.52	6.62
278.655	9.62
278.79	8.62
278.924	5.62
279.059	13.62
279.194	-1.38
279.328	33.62
279.463	13.62
279.598	15.62
279.732	11.62
279.867	-11.38
280.001	24.62
280.136	-10.38
280.271	19.62
280.405	28.62
280.54	8.62
280.674	-4.38
280.809	15.62
280.943	18.62
281.078	-4.38
281.213	29.62
281.347	6.62
281.482	19.62
281.616	18.62
281.751	-0.38
281.885	-36.38
282.02	5.62
282.154	2.62
282.288	-11.38
282.423	-13.38
282.557	1.62
282.692	18.62
282.826	4.62
282.961	14.62
283.095	3.62
283.229	-13.38
283.364	-4.38
283.498	-1.38
283.633	1.62
283.767	16.62
283.901	-1.38
284.036	22.62
284.17	2.62
284.304	6.62
284.439	-3.38
284.573	-0.38
284.707	16.62
284.842	4.62
284.976	4.62
285.11	-7.38
285.244	7.62
285.379	26.62
285.513	0.62
285.647	6.62
285.781	11.62
285.916	24.62
286.05	10.62
286.184	32.62
286.318	23.62
286.453	-0.38
286.587	-6.38
286.721	-7.38
286.855	3.62
286.989	16.62
287.123	6.62
287.258	-6.38
287.392	-4.38
287.526	12.62
287.66	4.62
287.794	4.62
287.928	7.62
288.062	5.62
288.196	-1.38
288.33	11.62
288.464	22.62
288.598	4.62
288.733	5.62
288.867	25.62
289.001	2.62
289.135	-12.38
289.269	-11.38
289.403	-5.38
289.537	3.62
289.671	9.62
289.805	-15.38
289.939	3.62
290.073	9.62
290.207	22.62
290.34	-9.38
290.474	13.62
290.608	18.62
290.742	-10.38
290.876	-0.38
291.01	1.62
291.144	35.62
291.278	16.62
291.412	-4.38
291.546	0.62
291.679	8.62
291.813	-1.38
291.947	6.62
292.081	6.62
292.215	5.62
292.349	18.62
292.482	1.62
292.616	-6.38
292.75	-4.38
292.884	12.62
293.018	14.62
293.151	-23.38
293.285	2.62
293.419	-2.38
293.553	8.62
293.686	-8.38
293.82	2.62
293.954	17.62
294.088	21.62
294.221	6.62
294.355	1.62
294.489	-10.38
294.622	-16.38
294.756	7.62
294.89	11.62
295.023	5.62
295.157	11.62
295.291	14.62
295.424	26.62
295.558	7.62
295.691	12.62
295.825	4.62
295.959	-1.38
296.092	-3.38
296.226	-10.38
296.359	-5.38
296.493	14.62
296.627	-3.38
296.76	1.62
296.894	-9.38
297.027	-1.38
297.161	1.62
297.294	2.62
297.428	8.62
297.561	30.62
297.695	-3.38
297.828	4.62
297.962	-17.38
298.095	-10.38
298.229	-11.38
298.362	-7.38
298.495	-16.38
298.629	1.62
298.762	5.62
298.896	7.62
299.029	-13.38
299.162	-12.38
299.296	16.62
299.429	3.62
299.563	-1.38
299.696	10.62
299.829	10.62
299.963	14.62
300.096	10.62
300.229	-6.38
300.363	-5.38
300.496	7.62
300.629	-25.38
300.763	-7.38
300.896	-3.38
301.029	11.62
301.162	-7.38
301.296	-3.38
301.429	-8.38
301.562	-27.38
301.695	1.62
301.829	12.62
301.962	23.62
302.095	-14.38
302.228	6.62
302.362	-3.38
302.495	-12.38
302.628	4.62
302.761	11.62
302.894	9.62
303.027	22.62
303.161	18.62
303.294	2.62
303.427	8.62
303.56	7.62
303.693	-10.38
303.826	-5.38
303.959	0.62
304.092	2.62
304.225	-23.38
304.359	18.62
304.492	12.62
304.625	-18.38
304.758	6.62
304.891	-2.38
305.024	6.62
305.157	-7.38
305.29	-8.38
305.423	2.62
305.556	16.62
305.689	18.62
305.822	-0.38
305.955	-5.38
306.088	-7.38
306.221	-7.38
306.354	-10.38
306.487	-2.38
306.62	-2.38
306.752	0.62
306.885	22.62
307.018	-7.38
307.151	10.62
307.284	22.62
307.417	2.62
307.55	18.62
307.683	14.62
307.816	25.62
307.948	30.62
308.081	25.62
308.214	11.62
308.347	30.62
308.48	-3.38
308.613	-10.38
308.745	13.62
308.878	-13.38
309.011	-5.38
309.144	-0.38
309.277	-1.38
309.409	21.62
309.542	0.62
309.675	14.62
309.808	8.62
309.94	37.62
310.073	-11.38
310.206	-12.38
310.339	12.62
310.471	-8.38
310.604	27.62
310.737	3.62
310.869	6.62
311.002	8.62
311.135	-11.38
311.267	-20.38
311.4	8.62
311.533	11.62
311.665	9.62
311.798	-12.38
311.93	10.62
312.063	21.62
312.196	18.62
312.328	-1.38
312.461	-7.38
312.593	9.62
312.726	21.62
312.859	5.62
312.991	6.62
313.124	-23.38
313.256	16.62
313.389	8.62
313.521	-5.38
313.654	-5.38
313.786	-22.38
313.919	1.62
314.051	21.62
314.184	42.62
314.316	-2.38
314.449	-4.38
314.581	3.62
314.714	11.62
314.846	13.62
314.978	-6.38
315.111	3.62
315.243	34.62
315.376	5.62
315.508	7.62
315.641	17.62
315.773	28.62
315.905	6.62
316.038	7.62
316.17	-2.38
316.302	14.62
316.435	17.62
316.567	4.62
316.699	17.62
316.832	-3.38
316.964	-2.38
317.096	-14.38
317.229	-14.38
317.361	-18.38
317.493	-1.38
317.625	-14.38
317.758	3.62
317.89	13.62
318.022	2.62
318.155	-18.38
318.287	-8.38
318.419	0.62
318.551	3.62
318.683	-4.38
318.816	-0.38
318.948	10.62
319.08	-1.38
319.212	14.62
319.344	30.62
319.477	4.62
319.609	29.62
319.741	9.62
319.873	6.62
320.005	13.62
320.137	0.62
320.269	5.62
320.401	6.62
320.534	-5.38
320.666	-24.38
320.798	-10.38
320.93	4.62
321.062	-18.38
321.194	11.62
321.326	12.62
321.458	18.62
321.59	11.62
321.722	-14.38
321.854	7.62
321.986	13.62
322.118	13.62
322.25	1.62
322.382	-21.38
322.514	0.62
322.646	-11.38
322.778	32.62
322.91	0.62
323.042	0.62
323.174	9.62
323.306	-14.38
323.438	-11.38
323.57	-1.38
323.702	8.62
323.834	-0.38
323.966	2.62
324.097	18.62
324.229	20.62
324.361	8.62
324.493	-6.38
324.625	0.62
324.757	7.62
324.889	1.62
325.021	6.62
325.152	16.62
325.284	10.62
325.416	-7.38
325.548	22.62
325.68	8.62
325.811	24.62
325.943	28.62
326.075	-14.38
326.207	-2.38
326.339	7.62
326.47	-4.38
326.602	17.62
326.734	4.62
326.866	36.62
326.997	6.62
327.129	-1.38
327.261	-11.38
327.392	-11.38
327.524	12.62
327.656	6.62
327.787	12.62
327.919	-13.38
328.051	-7.38
328.182	6.62
328.314	19.62
328.446	-2.38
328.577	21.62
328.709	5.62
328.841	-17.38
328.972	-4.38
329.104	-2.38
329.235	5.62
329.367	-6.38
329.499	-6.38
329.63	7.62
329.762	21.62
329.893	17.62
330.025	9.62
330.156	-14.38
330.288	-0.38
330.419	24.62
330.551	18.62
330.683	4.62
330.814	8.62
330.946	8.62
331.077	-1.38
331.208	-18.38
331.34	9.62
331.471	0.62
331.603	5.62
331.734	7.62
331.866	-6.38
331.997	-1.38
332.129	-1.38
332.26	-10.38
332.392	4.62
332.523	-5.38
332.654	-19.38
332.786	-4.38
332.917	-14.38
333.048	20.62
333.18	17.62
333.311	2.62
333.443	0.62
333.574	12.62
333.705	13.62
333.837	-14.38
333.968	6.62
334.099	5.62
334.231	20.62
334.362	-9.38
334.493	3.62
334.624	13.62
334.756	15.62
334.887	0.62
335.018	1.62
335.15	-6.38
335.281	-4.38
335.412	10.62
335.543	20.62
335.675	1.62
335.806	-3.38
335.937	4.62
336.068	5.62
336.199	29.62
336.331	9.62
336.462	0.62
336.593	-1.38
336.724	-11.38
336.855	16.62
336.986	16.62
337.118	1.62
337.249	7.62
337.38	13.62
337.511	-11.38
337.642	5.62
337.773	-8.38
337.904	5.62
338.035	1.62
338.166	10.62
338.298	19.62
338.429	-6.38
338.56	18.62
338.691	12.62
338.822	14.62
338.953	22.62
339.084	23.62
339.215	5.62
339.346	2.62
339.477	5.62
339.608	20.62
339.739	12.62
339.87	10.62
340.001	2.62
340.132	4.62
340.263	16.62
340.394	-1.38
340.525	6.62
340.656	3.62
340.787	2.62
340.918	22.62
341.049	18.62
341.179	3.62
341.31	5.62
341.441	8.62
341.572	13.62
341.703	6.62
341.834	-9.38
341.965	16.62
342.096	2.62
342.227	11.62
342.357	8.62
342.488	7.62
342.619	10.62
342.75	23.62
342.881	-18.38
343.012	10.62
343.142	20.62
343.273	-1.38
343.404	6.62
343.535	23.62
343.666	16.62
343.796	23.62
343.927	3.62
344.058	14.62
344.189	21.62
344.319	19.62
344.45	-2.38
344.581	-4.38
344.712	-24.38
344.842	3.62
344.973	-15.38
345.104	8.62
345.234	-14.38
345.365	-11.38
345.496	-1.38
345.626	1.62
345.757	5.62
345.888	-19.38
346.018	9.62
346.149	7.62
346.28	26.62
346.41	-13.38
346.541	-10.38
346.672	-8.38
346.802	-17.38
346.933	-8.38
347.063	-2.38
347.194	5.62
347.325	-0.38
347.455	25.62
347.586	7.62
347.716	-16.38
347.847	16.62
347.977	8.62
348.108	11.62
348.238	10.62
348.369	22.62
348.499	14.62
348.63	-8.38
348.76	-9.38
348.891	3.62
349.021	30.62
349.152	23.62
349.282	7.62
349.413	1.62
349.543	15.62
349.674	15.62
349.804	16.62
349.935	-5.38
350.065	-29.38
350.196	-3.38
350.326	-8.38
350.456	-12.38
350.587	13.62
350.717	8.62
350.848	4.62
350.978	9.62
351.108	5.62
351.239	12.62
351.369	-2.38
351.499	6.62
351.63	15.62
351.76	16.62
351.89	0.62
352.021	19.62
352.151	19.62
352.281	19.62
352.412	17.62
352.542	9.62
352.672	1.62
352.803	9.62
352.933	1.62
353.063	11.62
353.193	8.62
353.324	-5.38
353.454	7.62
353.584	17.62
353.714	5.62
353.845	9.62
353.975	5.62
354.105	7.62
354.235	7.62
354.365	5.62
354.496	2.62
354.626	5.62
354.756	23.62
354.886	13.62
355.016	13.62
355.146	-5.38
355.277	11.62
355.407	-15.38
355.537	7.62
355.667	7.62
355.797	4.62
355.927	-17.38
356.057	4.62
356.187	-12.38
356.318	4.62
356.448	28.62
356.578	14.62
356.708	28.62
356.838	5.62
356.968	3.62
357.098	1.62
357.228	10.62
357.358	2.62
357.488	-7.38
357.618	26.62
357.748	15.62
357.878	0.62
358.008	9.62
358.138	16.62
358.268	9.62
358.398	23.62
358.528	-1.38
358.658	9.62
358.788	5.62
358.918	13.62
359.048	5.62
359.178	22.62
359.308	28.62
359.438	22.62
359.568	27.62
359.698	22.62
359.827	5.62
359.957	-7.38
360.087	0.62
360.217	23.62
360.347	20.62
360.477	30.62
360.607	0.62
360.737	20.62
360.866	-10.38
360.996	-6.38
361.126	12.62
361.256	26.62
361.386	15.62
361.516	13.62
361.645	-5.38
361.775	4.62
361.905	-11.38
362.035	10.62
362.165	8.62
362.294	2.62
362.424	10.62
362.554	6.62
362.684	-5.38
362.813	-4.38
362.943	-7.38
363.073	-2.38
363.203	1.62
363.332	-8.38
363.462	-14.38
363.592	-0.38
363.721	8.62
363.851	23.62
363.981	14.62
364.111	6.62
364.24	-5.38
364.37	0.62
364.5	14.62
364.629	-0.38
364.759	6.62
364.888	-6.38
365.018	6.62
365.148	-4.38
365.277	13.62
365.407	16.62
365.537	17.62
365.666	10.62
365.796	-9.38
365.925	7.62
366.055	16.62
366.184	5.62
366.314	7.62
366.444	4.62
366.573	15.62
366.703	2.62
366.832	4.62
366.962	15.62
367.091	22.62
367.221	8.62
367.35	4.62
367.48	46.62
367.609	5.62
367.739	13.62
367.868	-18.38
367.998	-1.38
368.127	22.62
368.257	18.62
368.386	20.62
368.516	40.62
368.645	6.62
368.775	12.62
368.904	18.62
369.033	-3.38
369.163	-8.38
369.292	19.62
369.422	-4.38
369.551	20.62
369.68	25.62
369.81	19.62
369.939	-4.38
370.069	35.62
370.198	32.62
370.327	-6.38
370.457	-0.38
370.586	11.62
370.715	-17.38
370.845	-10.38
370.974	16.62
371.103	13.62
371.233	16.62
371.362	9.62
371.491	-1.38
371.621	17.62
371.75	14.62
371.879	0.62
372.008	-5.38
372.138	3.62
372.267	14.62
372.396	-1.38
372.525	7.62
372.655	-3.38
372.784	1.62
372.913	3.62
373.042	-0.38
373.172	9.62
373.301	-21.38
373.43	-9.38
373.559	8.62
373.688	8.62
373.818	24.62
373.947	18.62
374.076	10.62
374.205	30.62
374.334	4.62
374.463	3.62
374.593	14.62
374.722	-6.38
374.851	20.62
374.98	6.62
375.109	0.62
375.238	22.62
375.367	23.62
375.496	-7.38
375.625	15.62
375.755	24.62
375.884	19.62
376.013	19.62
376.142	-19.38
376.271	3.62
376.4	21.62
376.529	7.62
376.658	8.62
376.787	12.62
376.916	24.62
377.045	3.62
377.174	14.62
377.303	4.62
377.432	29.62
377.561	16.62
377.69	13.62
377.819	13.62
377.948	14.62
378.077	-1.38
378.206	13.62
378.335	9.62
378.464	-5.38
378.593	26.62
378.722	-3.38
378.851	1.62
378.98	14.62
379.108	-6.38
379.237	-23.38
379.366	16.62
379.495	14.62
379.624	16.62
379.753	18.62
379.882	16.62
380.011	3.62
380.14	-1.38
380.268	18.62
380.397	2.62
380.526	26.62
380.655	-17.38
380.784	-9.38
380.913	-3.38
381.041	2.62
381.17	-10.38
381.299	-8.38
381.428	16.62
381.557	9.62
381.685	-7.38
381.814	12.62
381.943	4.62
382.072	-17.38
382.2	5.62
382.329	0.62
382.458	4.62
382.587	28.62
382.715	27.62
382.844	38.62
382.973	16.62
383.102	-7.38
383.23	-0.38
383.359	-6.38
383.488	-12.38
383.616	-11.38
383.745	-9.38
383.874	10.62
384.003	2.62
384.131	-13.38
384.26	-22.38
384.389	7.62
384.517	-17.38
384.646	7.62
384.774	4.62
384.903	23.62
385.032	17.62
385.16	9.62
385.289	-6.38
385.418	9.62
385.546	-7.38
385.675	12.62
385.803	6.62
385.932	-3.38
386.06	-1.38
386.189	-2.38
386.318	3.62
386.446	-7.38
386.575	9.62
386.703	12.62
386.832	7.62
386.96	-27.38
387.089	2.62
387.217	6.62
387.346	-3.38
387.474	13.62
387.603	23.62
387.731	2.62
387.86	19.62
387.988	12.62
388.117	22.62
388.245	15.62
388.374	-3.38
388.502	17.62
388.631	14.62
388.759	2.62
388.888	10.62
389.016	11.62
389.144	0.62
389.273	7.62
389.401	-7.38
389.53	-10.38
389.658	6.62
389.786	1.62
389.915	0.62
390.043	5.62
390.172	14.62
390.3	22.62
390.428	12.62
390.557	13.62
390.685	7.62
390.813	25.62
390.942	3.62
391.07	-1.38
391.198	-3.38
391.327	-6.38
391.455	-17.38
391.583	27.62
391.712	29.62
391.84	15.62
391.968	-0.38
392.096	8.62
392.225	-11.38
392.353	23.62
392.481	-16.38
392.609	2.62
392.738	6.62
392.866	9.62
392.994	-7.38
393.122	34.62
393.251	7.62
393.379	-16.38
393.507	-12.38
393.635	5.62
393.764	10.62
393.892	2.62
394.02	-0.38
394.148	13.62
394.276	13.62
394.404	33.62
394.533	4.62
394.661	-1.38
394.789	13.62
394.917	22.62
395.045	-2.38
395.173	-13.38
395.302	4.62
395.43	4.62
395.558	25.62
395.686	-2.38
395.814	-2.38
395.942	1.62
396.07	-13.38
396.198	1.62
396.326	12.62
396.454	7.62
396.582	14.62
396.711	-3.38
396.839	22.62
396.967	19.62
397.095	8.62
397.223	-1.38
397.351	17.62
397.479	21.62
397.607	0.62
397.735	18.62
397.863	24.62
397.991	11.62
398.119	-14.38
398.247	-6.38
398.375	-8.38
398.503	11.62
398.631	22.62
398.759	14.62
398.887	18.62
399.015	-12.38
399.143	-9.38
399.271	-5.38
399.399	13.62
399.526	10.62
399.654	5.62
399.782	-16.38
399.91	17.62
400.038	32.62
400.166	5.62
400.294	3.62
400.422	-13.38
400.55	15.62
400.678	-7.38
400.805	-9.38
400.933	9.62
401.061	21.62
401.189	13.62
401.317	6.62
401.445	19.62
401.573	27.62
401.7	8.62
401.828	-10.38
401.956	8.62
402.084	10.62
402.212	18.62
402.34	-10.38
402.467	19.62
402.595	17.62
402.723	19.62
402.851	35.62
402.978	7.62
403.106	10.62
403.234	8.62
403.362	24.62
403.489	18.62
403.617	20.62
403.745	-11.38
403.873	-2.38
404	14.62
404.128	-0.38
404.256	14.62
404.384	12.62
404.511	11.62
404.639	-1.38
404.767	-0.38
404.894	8.62
405.022	17.62
405.15	8.62
405.277	-6.38
405.405	1.62
405.533	-3.38
405.66	-9.38
405.788	-5.38
405.916	4.62
406.043	-7.38
406.171	2.62
406.299	26.62
406.426	8.62
406.554	2.62
406.681	26.62
406.809	3.62
406.937	-12.38
407.064	-8.38
407.192	18.62
407.319	3.62
407.447	3.62
407.574	43.62
407.702	17.62
407.83	-4.38
407.957	-6.38
408.085	6.62
408.212	13.62
408.34	13.62
408.467	2.62
408.595	-1.38
408.722	19.62
408.85	5.62
408.977	-6.38
409.105	7.62
409.232	-2.38
409.36	17.62
409.487	17.62
409.615	17.62
409.742	29.62
409.87	27.62
409.997	19.62
410.125	36.62
410.252	58.62
410.379	54.62
410.507	47.62
410.634	4.62
410.762	15.62
410.889	34.62
411.017	5.62
411.144	22.62
411.271	-1.38
411.399	23.62
411.526	13.62
411.653	4.62
411.781	36.62
411.908	35.62
412.036	15.62
412.163	26.62
412.29	33.62
412.418	16.62
412.545	26.62
412.672	1.62
412.8	47.62
412.927	17.62
413.054	24.62
413.182	6.62
413.309	19.62
413.436	11.62
413.564	5.62
413.691	6.62
413.818	17.62
413.945	-17.38
414.073	-1.38
414.2	-3.38
414.327	13.62
414.454	9.62
414.582	1.62
414.709	-4.38
414.836	-5.38
414.963	-0.38
415.091	26.62
415.218	0.62
415.345	-3.38
415.472	0.62
415.6	-1.38
415.727	13.62
415.854	26.62
415.981	9.62
416.108	-3.38
416.236	21.62
416.363	12.62
416.49	-1.38
416.617	-10.38
416.744	8.62
416.871	7.62
416.998	11.62
417.126	21.62
417.253	8.62
417.38	0.62
417.507	7.62
417.634	-0.38
417.761	-3.38
417.888	7.62
418.015	-0.38
418.143	14.62
418.27	30.62
418.397	5.62
418.524	20.62
418.651	-11.38
418.778	9.62
418.905	20.62
419.032	24.62
419.159	5.62
419.286	34.62
419.413	26.62
419.54	23.62
419.667	14.62
419.794	-3.38
419.921	6.62
420.048	19.62
420.175	13.62
420.302	-6.38
420.429	1.62
420.556	-1.38
420.683	8.62
420.81	6.62
420.937	-3.38
421.064	21.62
421.191	-0.38
421.318	45.62
421.445	23.62
421.572	5.62
421.699	11.62
421.826	26.62
421.953	17.62
422.08	7.62
422.207	-10.38
422.334	-0.38
422.461	26.62
422.588	0.62
422.714	13.62
422.841	22.62
422.968	11.62
423.095	2.62
423.222	0.62
423.349	3.62
423.476	16.62
423.603	-17.38
423.729	-26.38
423.856	-0.38
423.983	10.62
424.11	11.62
424.237	19.62
424.364	11.62
424.491	10.62
424.617	10.62
424.744	10.62
424.871	14.62
424.998	11.62
425.125	3.62
425.251	17.62
425.378	-9.38
425.505	4.62
425.632	18.62
425.758	11.62
425.885	1.62
426.012	-7.38
426.139	20.62
426.266	-6.38
426.392	-3.38
426.519	9.62
426.646	-1.38
426.772	21.62
426.899	10.62
427.026	13.62
427.153	17.62
427.279	-3.38
427.406	5.62
427.533	-2.38
427.659	1.62
427.786	15.62
427.913	25.62
428.039	20.62
428.166	-0.38
428.293	6.62
428.419	14.62
428.546	6.62
428.673	-4.38
428.799	5.62
428.926	13.62
429.053	25.62
429.179	15.62
429.306	25.62
429.433	32.62
429.559	21.62
429.686	6.62
429.812	-2.38
429.939	6.62
430.066	2.62
430.192	3.62
430.319	12.62
430.445	-4.38
430.572	0.62
430.699	-2.38
430.825	-0.38
430.952	26.62
431.078	6.62
431.205	-3.38
431.331	-9.38
431.458	26.62
431.584	13.62
431.711	1.62
431.837	21.62
431.964	12.62
432.09	4.62
432.217	-2.38
432.343	11.62
432.47	24.62
432.596	13.62
432.723	-1.38
432.849	-2.38
432.976	7.62
433.102	6.62
433.229	20.62
433.355	41.62
433.482	72.62
433.608	159.62
433.735	144.62
433.861	128.62
433.987	167.62
434.114	251.62
434.24	207.62
434.367	71.62
434.493	11.62
434.62	5.62
434.746	43.62
434.872	8.62
434.999	4.62
435.125	17.62
435.252	1.62
435.378	12.62
435.504	11.62
435.631	16.62
435.757	-1.38
435.883	17.62
436.01	17.62
436.136	13.62
436.262	20.62
436.389	5.62
436.515	27.62
436.641	14.62
436.768	8.62
436.894	22.62
437.02	12.62
437.147	30.62
437.273	21.62
437.399	9.62
437.526	8.62
437.652	15.62
437.778	22.62
437.904	-10.38
438.031	0.62
438.157	12.62
438.283	9.62
438.409	1.62
438.536	-1.38
438.662	23.62
438.788	12.62
438.914	29.62
439.041	12.62
439.167	29.62
439.293	1.62
439.419	16.62
439.546	23.62
439.672	14.62
439.798	17.62
439.924	14.62
440.05	23.62
440.177	34.62
440.303	16.62
440.429	-10.38
440.555	-2.38
440.681	-5.38
440.807	3.62
440.934	15.62
441.06	7.62
441.186	7.62
441.312	10.62
441.438	15.62
441.564	29.62
441.69	30.62
441.816	9.62
441.943	4.62
442.069	12.62
442.195	21.62
442.321	11.62
442.447	-2.38
442.573	-3.38
442.699	6.62
442.825	0.62
442.951	11.62
443.077	25.62
443.203	13.62
443.33	5.62
443.456	10.62
443.582	1.62
443.708	0.62
443.834	12.62
443.96	28.62
444.086	9.62
444.212	30.62
444.338	23.62
444.464	27.62
444.59	11.62
444.716	0.62
444.842	9.62
444.968	-3.38
445.094	4.62
445.22	13.62
445.346	-0.38
445.472	5.62
445.598	9.62
445.724	2.62
445.85	11.62
445.976	-1.38
446.102	14.62
446.228	23.62
446.354	32.62
446.48	12.62
446.605	20.62
446.731	11.62
446.857	13.62
446.983	14.62
447.109	16.62
447.235	9.62
447.361	5.62
447.487	28.62
447.613	28.62
447.739	11.62
447.865	9.62
447.99	16.62
448.116	10.62
448.242	12.62
448.368	7.62
448.494	1.62
448.62	24.62
448.746	29.62
448.872	18.62
448.997	6.62
449.123	-5.38
449.249	23.62
449.375	16.62
449.501	-8.38
449.627	-1.38
449.752	28.62
449.878	3.62
450.004	6.62
450.13	22.62
450.256	14.62
450.381	21.62
450.507	4.62
450.633	13.62
450.759	19.62
450.884	4.62
451.01	20.62
451.136	19.62
451.262	13.62
451.388	13.62
451.513	0.62
451.639	32.62
451.765	19.62
451.89	27.62
452.016	1.62
452.142	1.62
452.268	4.62
452.393	5.62
452.519	6.62
452.645	11.62
452.771	10.62
452.896	-10.38
453.022	6.62
453.148	28.62
453.273	0.62
453.399	-5.38
453.525	-11.38
453.65	0.62
453.776	30.62
453.902	28.62
454.027	24.62
454.153	29.62
454.279	-0.38
454.404	7.62
454.53	21.62
454.656	13.62
454.781	5.62
454.907	5.62
455.032	3.62
455.158	23.62
455.284	20.62
455.409	25.62
455.535	17.62
455.66	10.62
455.786	28.62
455.912	8.62
456.037	4.62
456.163	12.62
456.288	22.62
456.414	-1.38
456.539	-3.38
456.665	26.62
456.791	17.62
456.916	8.62
457.042	21.62
457.167	-1.38
457.293	16.62
457.418	16.62
457.544	2.62
457.669	-7.38
457.795	15.62
457.92	10.62
458.046	11.62
458.171	11.62
458.297	9.62
458.422	-3.38
458.548	-1.38
458.673	22.62
458.799	19.62
458.924	-3.38
459.05	23.62
459.175	3.62
459.301	18.62
459.426	17.62
459.552	5.62
459.677	9.62
459.803	32.62
459.928	26.62
460.053	10.62
460.179	-4.38
460.304	20.62
460.43	11.62
460.555	26.62
460.681	9.62
460.806	-6.38
460.931	22.62
461.057	18.62
461.182	10.62
461.308	26.62
461.433	29.62
461.558	6.62
461.684	28.62
461.809	26.62
461.934	-1.38
462.06	21.62
462.185	-10.38
462.311	-6.38
462.436	12.62
462.561	8.62
462.687	18.62
462.812	15.62
462.937	6.62
463.063	-3.38
463.188	15.62
463.313	14.62
463.439	2.62
463.564	9.62
463.689	10.62
463.814	3.62
463.94	8.62
464.065	12.62
464.19	41.62
464.316	2.62
464.441	19.62
464.566	10.62
464.692	20.62
464.817	11.62
464.942	12.62
465.067	13.62
465.193	1.62
465.318	13.62
465.443	-5.38
465.568	5.62
465.694	11.62
465.819	23.62
465.944	13.62
466.069	15.62
466.194	13.62
466.32	15.62
466.445	-9.38
466.57	4.62
466.695	9.62
466.82	19.62
466.946	28.62
467.071	6.62
467.196	-0.38
467.321	22.62
467.446	15.62
467.572	0.62
467.697	-2.38
467.822	10.62
467.947	15.62
468.072	7.62
468.197	1.62
468.323	-3.38
468.448	12.62
468.573	2.62
468.698	-5.38
468.823	4.62
468.948	16.62
469.073	24.62
469.198	21.62
469.324	37.62
469.449	7.62
469.574	19.62
469.699	16.62
469.824	15.62
469.949	15.62
470.074	33.62
470.199	47.62
470.324	18.62
470.449	24.62
470.574	4.62
470.7	3.62
470.825	10.62
470.95	37.62
471.075	-2.38
471.2	20.62
471.325	13.62
471.45	20.62
471.575	2.62
471.7	19.62
471.825	-4.38
471.95	-1.38
472.075	1.62
472.2	2.62
472.325	2.62
472.45	3.62
472.575	15.62
472.7	19.62
472.825	20.62
472.95	13.62
473.075	10.62
473.2	0.62
473.325	17.62
473.45	1.62
473.575	-4.38
473.7	9.62
473.825	12.62
473.95	3.62
474.075	39.62
474.2	1.62
474.325	0.62
474.45	26.62
474.574	28.62
474.699	18.62
474.824	18.62
474.949	-2.38
475.074	17.62
475.199	24.62
475.324	4.62
475.449	11.62
475.574	21.62
475.699	14.62
475.824	20.62
475.949	17.62
476.073	4.62
476.198	10.62
476.323	13.62
476.448	8.62
476.573	16.62
476.698	25.62
476.823	13.62
476.947	13.62
477.072	28.62
477.197	22.62
477.322	8.62
477.447	4.62
477.572	18.62
477.697	23.62
477.821	7.62
477.946	24.62
478.071	35.62
478.196	32.62
478.321	8.62
478.445	11.62
478.57	8.62
478.695	7.62
478.82	20.62
478.945	6.62
479.069	8.62
479.194	8.62
479.319	30.62
479.444	25.62
479.569	10.62
479.693	33.62
479.818	21.62
479.943	17.62
480.068	-4.38
480.192	20.62
480.317	27.62
480.442	21.62
480.567	15.62
480.691	18.62
480.816	9.62
480.941	7.62
481.066	26.62
481.19	29.62
481.315	20.62
481.44	11.62
481.564	-1.38
481.689	34.62
481.814	19.62
481.938	22.62
482.063	26.62
482.188	25.62
482.313	22.62
482.437	-2.38
482.562	24.62
482.687	31.62
482.811	16.62
482.936	38.62
483.061	24.62
483.185	26.62
483.31	34.62
483.435	22.62
483.559	9.62
483.684	14.62
483.808	26.62
483.933	17.62
484.058	16.62
484.182	26.62
484.307	21.62
484.432	22.62
484.556	9.62
484.681	20.62
484.805	25.62
484.93	42.62
485.055	41.62
485.179	78.62
485.304	132.62
485.428	346.62
485.553	1220.62
485.678	1740.62
485.802	1606.62
485.927	1792.62
486.051	2606.62
486.176	1587.62
486.3	452.62
486.425	145.62
486.549	70.62
486.674	81.62
486.799	50.62
486.923	14.62
487.048	32.62
487.172	28.62
487.297	37.62
487.421	35.62
487.546	19.62
487.67	10.62
487.795	14.62
487.919	17.62
488.044	22.62
488.168	18.62
488.293	17.62
488.417	12.62
488.542	20.62
488.666	31.62
488.791	25.62
488.915	20.62
489.04	24.62
489.164	28.62
489.289	34.62
489.413	15.62
489.538	18.62
489.662	30.62
489.786	-8.38
489.911	21.62
490.035	14.62
490.16	9.62
490.284	14.62
490.409	-14.38
490.533	17.62
490.658	44.62
490.782	10.62
490.906	19.62
491.031	25.62
491.155	21.62
491.28	31.62
491.404	10.62
491.528	23.62
491.653	16.62
491.777	25.62
491.902	20.62
492.026	40.62
492.15	24.62
492.275	48.62
492.399	30.62
492.524	1.62
492.648	22.62
492.772	25.62
492.897	25.62
493.021	21.62
493.145	36.62
493.27	16.62
493.394	-10.38
493.518	9.62
493.643	11.62
493.767	23.62
493.891	-6.38
494.016	9.62
494.14	3.62
494.264	18.62
494.389	27.62
494.513	21.62
494.637	10.62
494.762	20.62
494.886	15.62
495.01	14.62
495.134	12.62
495.259	29.62
495.383	1.62
495.507	6.62
495.632	38.62
495.756	45.62
495.88	34.62
496.004	18.62
496.129	9.62
496.253	23.62
496.377	18.62
496.501	30.62
496.626	8.62
496.75	0.62
496.874	21.62
496.998	8.62
497.123	16.62
497.247	12.62
497.371	-3.38
497.495	6.62
497.62	15.62
497.744	0.62
497.868	8.62
497.992	9.62
498.116	-0.38
498.241	13.62
498.365	12.62
498.489	17.62
498.613	48.62
498.737	15.62
498.862	5.62
498.986	1.62
499.11	32.62
499.234	9.62
499.358	2.62
499.482	-2.38
499.607	3.62
499.731	22.62
499.855	1.62
499.979	4.62
500.103	25.62
500.227	32.62
500.351	13.62
500.476	-4.38
500.6	0.62
500.724	24.62
500.848	23.62
500.972	14.62
501.096	15.62
501.22	27.62
501.344	0.62
501.469	-1.38
501.593	23.62
501.717	17.62
501.841	20.62
501.965	20.62
502.089	13.62
502.213	5.62
502.337	12.62
502.461	10.62
502.585	9.62
502.709	16.62
502.834	16.62
502.958	19.62
503.082	10.62
503.206	25.62
503.33	21.62
503.454	25.62
503.578	26.62
503.702	28.62
503.826	9.62
503.95	24.62
504.074	19.62
504.198	14.62
504.322	4.62
504.446	15.62
504.57	12.62
504.694	10.62
504.818	13.62
504.942	33.62
505.066	14.62
505.19	10.62
505.314	33.62
505.438	31.62
505.562	16.62
505.686	14.62
505.81	1.62
505.934	27.62
506.058	5.62
506.182	8.62
506.306	26.62
506.43	3.62
506.554	6.62
506.678	-2.38
506.802	15.62
506.926	18.62
507.05	20.62
507.174	21.62
507.298	34.62
507.422	20.62
507.546	28.62
507.67	17.62
507.794	1.62
507.918	16.62
508.042	14.62
508.165	8.62
508.289	21.62
508.413	3.62
508.537	2.62
508.661	23.62
508.785	33.62
508.909	12.62
509.033	15.62
509.157	-0.38
509.281	6.62
509.405	16.62
509.528	28.62
509.652	25.62
509.776	2.62
509.9	11.62
510.024	13.62
510.148	9.62
510.272	34.62
510.396	16.62
510.519	-8.38
510.643	33.62
510.767	17.62
510.891	25.62
511.015	4.62
511.139	21.62
511.263	42.62
511.386	16.62
511.51	17.62
511.634	10.62
511.758	1.62
511.882	-8.38
512.006	24.62
512.129	29.62
512.253	25.62
512.377	-10.38
512.501	12.62
512.625	22.62
512.748	15.62
512.872	0.62
512.996	4.62
513.12	21.62
513.244	8.62
513.367	18.62
513.491	23.62
513.615	2.62
513.739	3.62
513.862	17.62
513.986	25.62
514.11	21.62
514.234	22.62
514.358	25.62
514.481	25.62
514.605	4.62
514.729	11.62
514.853	23.62
514.976	-10.38
515.1	9.62
515.224	20.62
515.348	9.62
515.471	4.62
515.595	9.62
515.719	-2.38
515.842	33.62
515.966	4.62
516.09	41.62
516.214	13.62
516.337	60.62
516.461	13.62
516.585	22.62
516.708	18.62
516.832	26.62
516.956	18.62
517.08	14.62
517.203	12.62
517.327	17.62
517.451	31.62
517.574	34.62
517.698	15.62
517.822	22.62
517.945	22.62
518.069	22.62
518.193	42.62
518.316	37.62
518.44	39.62
518.564	34.62
518.687	22.62
518.811	31.62
518.935	49.62
519.058	39.62
519.182	51.62
519.306	27.62
519.429	31.62
519.553	65.62
519.676	36.62
519.8	15.62
519.924	2.62
520.047	22.62
520.171	13.62
520.294	13.62
520.418	22.62
520.542	-3.38
520.665	14.62
520.789	10.62
520.913	1.62
521.036	-13.38
521.16	-11.38
521.283	-9.38
521.407	16.62
521.53	7.62
521.654	-5.38
521.778	19.62
521.901	3.62
522.025	19.62
522.148	-3.38
522.272	31.62
522.395	-1.38
522.519	20.62
522.643	8.62
522.766	6.62
522.89	10.62
523.013	26.62
523.137	-1.38
523.26	3.62
523.384	17.62
523.507	20.62
523.631	10.62
523.754	6.62
523.878	19.62
524.002	44.62
524.125	8.62
524.249	4.62
524.372	21.62
524.496	17.62
524.619	21.62
524.743	0.62
524.866	3.62
524.99	22.62
525.113	15.62
525.237	27.62
525.36	9.62
525.484	16.62
525.607	0.62
525.731	-9.38
525.854	18.62
525.978	20.62
526.101	-1.38
526.224	-8.38
526.348	12.62
526.471	23.62
526.595	13.62
526.718	-6.38
526.842	-9.38
526.965	7.62
527.089	9.62
527.212	19.62
527.336	13.62
527.459	34.62
527.582	14.62
527.706	16.62
527.829	22.62
527.953	22.62
528.076	11.62
528.2	-4.38
528.323	26.62
528.446	30.62
528.57	27.62
528.693	28.62
528.817	16.62
528.94	4.62
529.064	30.62
529.187	3.62
529.31	11.62
529.434	-3.38
529.557	14.62
529.68	-3.38
529.804	11.62
529.927	25.62
530.051	12.62
530.174	4.62
530.297	9.62
530.421	29.62
530.544	16.62
530.668	15.62
530.791	9.62
530.914	24.62
531.038	9.62
531.161	10.62
531.284	0.62
531.408	22.62
531.531	3.62
531.654	5.62
531.778	10.62
531.901	7.62
532.024	15.62
532.148	10.62
532.271	10.62
532.394	2.62
532.518	26.62
532.641	17.62
532.764	30.62
532.888	36.62
533.011	-14.38
533.134	-0.38
533.258	25.62
533.381	1.62
533.504	13.62
533.628	8.62
533.751	22.62
533.874	9.62
533.997	2.62
534.121	-5.38
534.244	3.62
534.367	4.62
534.491	21.62
534.614	-8.38
534.737	13.62
534.86	14.62
534.984	-8.38
535.107	10.62
535.23	4.62
535.354	16.62
535.477	-9.38
535.6	13.62
535.723	23.62
535.847	13.62
535.97	-2.38
536.093	17.62
536.216	1.62
536.34	37.62
536.463	4.62
536.586	29.62
536.709	16.62
536.833	22.62
536.956	15.62
537.079	26.62
537.202	11.62
537.325	4.62
537.449	-9.38
537.572	5.62
537.695	-13.38
537.818	-3.38
537.941	9.62
538.065	14.62
538.188	2.62
538.311	23.62
538.434	12.62
538.558	7.62
538.681	35.62
538.804	25.62
538.927	17.62
539.05	21.62
539.173	18.62
539.297	16.62
539.42	22.62
539.543	1.62
539.666	32.62
539.789	28.62
539.913	16.62
540.036	6.62
540.159	14.62
540.282	-10.38
540.405	-0.38
540.528	10.62
540.651	9.62
540.775	-1.38
540.898	25.62
541.021	18.62
541.144	12.62
541.267	18.62
541.39	20.62
541.513	5.62
541.637	-4.38
541.76	2.62
541.883	3.62
542.006	20.62
542.129	38.62
542.252	6.62
542.375	0.62
542.498	-0.38
542.622	4.62
542.745	12.62
542.868	7.62
542.991	12.62
543.114	13.62
543.237	34.62
543.36	39.62
543.483	16.62
543.606	29.62
543.73	26.62
543.853	13.62
543.976	7.62
544.099	11.62
544.222	9.62
544.345	8.62
544.468	21.62
544.591	28.62
544.714	33.62
544.837	10.62
544.96	3.62
545.083	17.62
545.206	-3.38
545.329	12.62
545.453	8.62
545.576	5.62
545.699	7.62
545.822	10.62
545.945	16.62
546.068	9.62
546.191	-2.38
546.314	0.62
546.437	20.62
546.56	14.62
546.683	-0.38
546.806	18.62
546.929	13.62
547.052	4.62
547.175	-1.38
547.298	-0.38
547.421	-11.38
547.544	0.62
547.667	1.62
547.79	21.62
547.913	-9.38
548.036	3.62
548.159	13.62
548.282	6.62
548.405	-1.38
548.528	17.62
548.651	5.62
548.774	6.62
548.897	11.62
549.02	30.62
549.143	35.62
549.266	23.62
549.389	7.62
549.512	11.62
549.635	32.62
549.758	17.62
549.881	4.62
550.004	9.62
550.127	31.62
550.25	6.62
550.373	0.62
550.496	7.62
550.619	2.62
550.742	0.62
550.865	2.62
550.988	32.62
551.111	18.62
551.234	28.62
551.356	3.62
551.479	1.62
551.602	8.62
551.725	3.62
551.848	7.62
551.971	32.62
552.094	31.62
552.217	4.62
552.34	7.62
552.463	-10.38
552.586	5.62
552.709	-3.38
552.832	9.62
552.955	14.62
553.077	27.62
553.2	30.62
553.323	7.62
553.446	21.62
553.569	0.62
553.692	6.62
553.815	2.62
553.938	21.62
554.061	17.62
554.184	5.62
554.306	24.62
554.429	14.62
554.552	8.62
554.675	4.62
554.798	20.62
554.921	26.62
555.044	24.62
555.167	-7.38
555.29	-14.38
555.412	12.62
555.535	25.62
555.658	3.62
555.781	12.62
555.904	12.62
556.027	2.62
556.15	10.62
556.272	-6.38
556.395	20.62
556.518	9.62
556.641	9.62
556.764	14.62
556.887	12.62
557.01	9.62
557.132	-9.38
557.255	-5.38
557.378	12.62
557.501	18.62
557.624	28.62
557.747	13.62
557.869	34.62
557.992	6.62
558.115	2.62
558.238	12.62
558.361	2.62
558.483	33.62
558.606	20.62
558.729	10.62
558.852	46.62
558.975	22.62
559.098	27.62
559.22	32.62
559.343	1.62
559.466	13.62
559.589	12.62
559.712	31.62
559.834	7.62
559.957	9.62
560.08	12.62
560.203	30.62
560.325	38.62
560.448	24.62
560.571	13.62
560.694	4.62
560.817	27.62
560.939	4.62
561.062	8.62
561.185	14.62
561.308	10.62
561.43	-5.38
561.553	16.62
561.676	-4.38
561.799	20.62
561.921	-7.38
562.044	6.62
562.167	-1.38
562.29	42.62
562.413	9.62
562.535	18.62
562.658	5.62
562.781	13.62
562.903	16.62
563.026	13.62
563.149	25.62
563.272	16.62
563.394	20.62
563.517	22.62
563.64	-2.38
563.763	9.62
563.885	32.62
564.008	26.62
564.131	13.62
564.254	11.62
564.376	17.62
564.499	-8.38
564.622	13.62
564.744	11.62
564.867	16.62
564.99	14.62
565.113	9.62
565.235	26.62
565.358	-2.38
565.481	-19.38
565.603	2.62
565.726	5.62
565.849	17.62
565.971	16.62
566.094	17.62
566.217	34.62
566.34	17.62
566.462	17.62
566.585	5.62
566.708	26.62
566.83	10.62
566.953	34.62
567.076	14.62
567.198	11.62
567.321	17.62
567.444	24.62
567.566	13.62
567.689	1.62
567.812	6.62
567.934	3.62
568.057	-1.38
568.18	21.62
568.302	7.62
568.425	-2.38
568.548	13.62
568.67	26.62
568.793	-3.38
568.916	11.62
569.038	8.62
569.161	22.62
569.283	22.62
569.406	29.62
569.529	-13.38
569.651	9.62
569.774	-12.38
569.897	-1.38
570.019	32.62
570.142	38.62
570.265	1.62
570.387	10.62
570.51	24.62
570.632	26.62
570.755	11.62
570.878	9.62
571	7.62
571.123	-5.38
571.246	8.62
571.368	2.62
571.491	0.62
571.613	-5.38
571.736	-6.38
571.859	14.62
571.981	-4.38
572.104	-0.38
572.226	5.62
572.349	-25.38
572.472	7.62
572.594	19.62
572.717	-0.38
572.839	-4.38
572.962	14.62
573.085	15.62
573.207	-4.38
573.33	14.62
573.452	21.62
573.575	13.62
573.697	8.62
573.82	16.62
573.943	6.62
574.065	19.62
574.188	22.62
574.31	27.62
574.433	19.62
574.555	21.62
574.678	-2.38
574.801	11.62
574.923	4.62
575.046	12.62
575.168	4.62
575.291	10.62
575.413	9.62
575.536	8.62
575.659	22.62
575.781	13.62
575.904	8.62
576.026	9.62
576.149	-0.38
576.271	17.62
576.394	40.62
576.516	24.62
576.639	14.62
576.761	-5.38
576.884	6.62
577.007	11.62
577.129	6.62
577.252	26.62
577.374	13.62
577.497	2.62
577.619	12.62
577.742	7.62
577.864	8.62
577.987	9.62
578.109	40.62
578.232	9.62
578.354	22.62
578.477	23.62
578.599	18.62
578.722	13.62
578.844	14.62
578.967	34.62
579.089	4.62
579.212	-2.38
579.334	6.62
579.457	21.62
579.579	11.62
579.702	-7.38
579.824	4.62
579.947	1.62
580.069	4.62
580.192	1.62
580.314	10.62
580.437	8.62
580.559	28.62
580.682	33.62
580.804	6.62
580.927	12.62
581.049	45.62
581.172	23.62
581.294	28.62
581.417	9.62
581.539	22.62
581.662	12.62
581.784	4.62
581.907	31.62
582.029	16.62
582.152	5.62
582.274	24.62
582.396	24.62
582.519	4.62
582.641	3.62
582.764	5.62
582.886	27.62
583.009	15.62
583.131	12.62
583.254	-3.38
583.376	35.62
583.499	19.62
583.621	22.62
583.743	24.62
583.866	9.62
583.988	-5.38
584.111	11.62
584.233	20.62
584.356	26.62
584.478	10.62
584.601	-18.38
584.723	9.62
584.845	16.62
584.968	12.62
585.09	-2.38
585.213	8.62
585.335	-7.38
585.458	-5.38
585.58	1.62
585.702	5.62
585.825	30.62
585.947	13.62
586.07	-6.38
586.192	3.62
586.315	33.62
586.437	5.62
586.559	16.62
586.682	-6.38
586.804	8.62
586.927	-13.38
587.049	-11.38
587.171	18.62
587.294	25.62
587.416	40.62
587.539	10.62
587.661	-9.38
587.783	8.62
587.906	0.62
588.028	-1.38
588.151	24.62
588.273	35.62
588.395	11.62
588.518	-4.38
588.64	10.62
588.763	16.62
588.885	14.62
589.007	25.62
589.13	1.62
589.252	-16.38
589.375	3.62
589.497	30.62
589.619	37.62
589.742	29.62
589.864	24.62
589.986	6.62
590.109	4.62
590.231	10.62
590.354	16.62
590.476	-9.38
590.598	-0.38
590.721	-8.38
590.843	18.62
590.965	20.62
591.088	16.62
591.21	7.62
591.332	32.62
591.455	-9.38
591.577	-6.38
591.7	2.62
591.822	8.62
591.944	18.62
592.067	12.62
592.189	17.62
592.311	21.62
592.434	7.62
592.556	25.62
592.678	16.62
592.801	17.62
592.923	20.62
593.045	4.62
593.168	17.62
593.29	20.62
593.412	31.62
593.535	-3.38
593.657	7.62
593.779	4.62
593.902	5.62
594.024	2.62
594.146	23.62
594.269	38.62
594.391	0.62
594.513	18.62
594.636	7.62
594.758	0.62
594.88	6.62
595.003	15.62
595.125	12.62
595.247	14.62
595.37	12.62
595.492	10.62
595.614	23.62
595.737	-0.38
595.859	11.62
595.981	3.62
596.104	25.62
596.226	4.62
596.348	26.62
596.471	20.62
596.593	21.62
596.715	6.62
596.838	24.62
596.96	-5.38
597.082	11.62
597.204	21.62
597.327	12.62
597.449	13.62
597.571	10.62
597.694	22.62
597.816	2.62
597.938	16.62
598.061	12.62
598.183	25.62
598.305	23.62
598.427	16.62
598.55	5.62
598.672	16.62
598.794	1.62
598.917	-5.38
599.039	22.62
599.161	5.62
599.283	13.62
599.406	15.62
599.528	37.62
599.65	48.62
599.773	28.62
599.895	46.62
600.017	44.62
600.139	18.62
600.262	3.62
600.384	3.62
600.506	12.62
600.628	19.62
600.751	25.62
600.873	-3.38
600.995	6.62
601.118	25.62
601.24	13.62
601.362	23.62
601.484	19.62
601.607	19.62
601.729	3.62
601.851	-9.38
601.973	-3.38
602.096	30.62
602.218	23.62
602.34	15.62
602.462	9.62
602.585	21.62
602.707	-0.38
602.829	21.62
602.951	22.62
603.074	-1.38
603.196	19.62
603.318	7.62
603.44	19.62
603.563	1.62
603.685	2.62
603.807	14.62
603.929	21.62
604.052	30.62
604.174	9.62
604.296	16.62
604.418	30.62
604.541	38.62
604.663	6.62
604.785	29.62
604.907	7.62
605.03	1.62
605.152	29.62
605.274	2.62
605.396	20.62
605.519	9.62
605.641	6.62
605.763	13.62
605.885	17.62
606.008	8.62
606.13	21.62
606.252	14.62
606.374	-7.38
606.496	10.62
606.619	20.62
606.741	28.62
606.863	21.62
606.985	14.62
607.108	25.62
607.23	36.62
607.352	21.62
607.474	8.62
607.596	-6.38
607.719	-4.38
607.841	8.62
607.963	20.62
608.085	6.62
608.207	32.62
608.33	16.62
608.452	0.62
608.574	21.62
608.696	20.62
608.819	-5.38
608.941	5.62
609.063	12.62
609.185	9.62
609.307	8.62
609.43	13.62
609.552	14.62
609.674	18.62
609.796	30.62
609.918	19.62
610.041	11.62
610.163	22.62
610.285	25.62
610.407	5.62
610.529	4.62
610.652	10.62
610.774	14.62
610.896	9.62
611.018	14.62
611.14	11.62
611.263	4.62
611.385	10.62
611.507	1.62
611.629	2.62
611.751	11.62
611.873	14.62
611.996	0.62
612.118	22.62
612.24	11.62
612.362	12.62
612.484	29.62
612.607	26.62
612.729	33.62
612.851	7.62
612.973	5.62
613.095	1.62
613.218	12.62
613.34	29.62
613.462	10.62
613.584	16.62
613.706	15.62
613.828	30.62
613.951	16.62
614.073	9.62
614.195	0.62
614.317	18.62
614.439	24.62
614.561	21.62
614.684	18.62
614.806	28.62
614.928	10.62
615.05	9.62
615.172	7.62
615.294	10.62
615.417	9.62
615.539	12.62
615.661	14.62
615.783	24.62
615.905	28.62
616.027	69.62
616.15	107.62
616.272	92.62
616.394	54.62
616.516	37.62
616.638	18.62
616.76	16.62
616.883	-2.38
617.005	-3.38
617.127	12.62
617.249	14.62
617.371	-5.38
617.493	1.62
617.615	22.62
617.738	4.62
617.86	9.62
617.982	16.62
618.104	4.62
618.226	2.62
618.348	-1.38
618.471	12.62
618.593	12.62
618.715	-8.38
618.837	27.62
618.959	7.62
619.081	15.62
619.203	-5.38
619.326	17.62
619.448	19.62
619.57	10.62
619.692	12.62
619.814	27.62
619.936	12.62
620.058	13.62
620.181	16.62
620.303	9.62
620.425	19.62
620.547	2.62
620.669	6.62
620.791	17.62
620.913	1.62
621.036	16.62
621.158	16.62
621.28	2.62
621.402	-14.38
621.524	20.62
621.646	2.62
621.768	-10.38
621.891	-2.38
622.013	13.62
622.135	19.62
622.257	12.62
622.379	4.62
622.501	15.62
622.623	10.62
622.745	6.62
622.868	9.62
622.99	-2.38
623.112	4.62
623.234	16.62
623.356	19.62
623.478	5.62
623.6	12.62
623.722	14.62
623.845	23.62
623.967	8.62
624.089	16.62
624.211	1.62
624.333	8.62
624.455	3.62
624.577	-4.38
624.699	21.62
624.822	9.62
624.944	0.62
625.066	11.62
625.188	3.62
625.31	18.62
625.432	30.62
625.554	17.62
625.676	30.62
625.799	1.62
625.921	4.62
626.043	17.62
626.165	27.62
626.287	-4.38
626.409	9.62
626.531	8.62
626.653	16.62
626.775	12.62
626.898	7.62
627.02	4.62
627.142	13.62
627.264	-6.38
627.386	0.62
627.508	10.62
627.63	9.62
627.752	14.62
627.874	11.62
627.997	10.62
628.119	38.62
628.241	30.62
628.363	12.62
628.485	-5.38
628.607	10.62
628.729	8.62
628.851	17.62
628.973	6.62
629.096	-15.38
629.218	1.62
629.34	1.62
629.462	-4.38
629.584	4.62
629.706	18.62
629.828	9.62
629.95	12.62
630.072	7.62
630.195	22.62
630.317	13.62
630.439	-2.38
630.561	6.62
630.683	-14.38
630.805	22.62
630.927	8.62
631.049	4.62
631.171	-2.38
631.293	1.62
631.416	6.62
631.538	0.62
631.66	6.62
631.782	29.62
631.904	17.62
632.026	-2.38
632.148	17.62
632.27	3.62
632.392	10.62
632.514	7.62
632.637	10.62
632.759	3.62
632.881	-6.38
633.003	-1.38
633.125	-1.38
633.247	-10.38
633.369	0.62
633.491	20.62
633.613	25.62
633.735	1.62
633.858	29.62
633.98	26.62
634.102	-1.38
634.224	-5.38
634.346	2.62
634.468	3.62
634.59	18.62
634.712	9.62
634.834	23.62
634.956	2.62
635.078	2.62
635.201	-4.38
635.323	14.62
635.445	-2.38
635.567	-10.38
635.689	28.62
635.811	12.62
635.933	5.62
636.055	8.62
636.177	3.62
636.299	20.62
636.421	-0.38
636.544	-21.38
636.666	22.62
636.788	13.62
636.91	8.62
637.032	15.62
637.154	16.62
637.276	33.62
637.398	18.62
637.52	12.62
637.642	15.62
637.764	14.62
637.887	-5.38
638.009	10.62
638.131	12.62
638.253	-4.38
638.375	12.62
638.497	4.62
638.619	4.62
638.741	8.62
638.863	-3.38
638.985	-5.38
639.107	-10.38
639.23	-0.38
639.352	4.62
639.474	9.62
639.596	3.62
639.718	-2.38
639.84	5.62
639.962	10.62
640.084	24.62
640.206	20.62
640.328	-11.38
640.45	11.62
640.573	16.62
640.695	2.62
640.817	5.62
640.939	22.62
641.061	20.62
641.183	12.62
641.305	16.62
641.427	11.62
641.549	16.62
641.671	16.62
641.793	20.62
641.915	23.62
642.038	22.62
642.16	2.62
642.282	6.62
642.404	9.62
642.526	22.62
642.648	13.62
642.77	14.62
642.892	11.62
643.014	28.62
643.136	16.62
643.258	18.62
643.381	27.62
643.503	23.62
643.625	3.62
643.747	6.62
643.869	13.62
643.991	21.62
644.113	12.62
644.235	4.62
644.357	16.62
644.479	21.62
644.601	-3.38
644.723	-5.38
644.846	19.62
644.968	14.62
645.09	12.62
645.212	-7.38
645.334	6.62
645.456	13.62
645.578	12.62
645.7	-5.38
645.822	-0.38
645.944	9.62
646.066	20.62
646.188	18.62
646.311	29.62
646.433	5.62
646.555	40.62
646.677	56.62
646.799	33.62
646.921	24.62
647.043	25.62
647.165	-2.38
647.287	9.62
647.409	20.62
647.531	23.62
647.654	-6.38
647.776	14.62
647.898	8.62
648.02	4.62
648.142	6.62
648.264	-0.38
648.386	6.62
648.508	-3.38
648.63	3.62
648.752	-4.38
648.874	8.62
648.997	8.62
649.119	17.62
649.241	0.62
649.363	28.62
649.485	20.62
649.607	-6.38
649.729	7.62
649.851	0.62
649.973	4.62
650.095	5.62
650.217	-0.38
650.34	5.62
650.462	10.62
650.584	9.62
650.706	15.62
650.828	6.62
650.95	-19.38
651.072	22.62
651.194	-12.38
651.316	-15.38
651.438	-2.38
651.56	2.62
651.683	4.62
651.805	18.62
651.927	-4.38
652.049	11.62
652.171	6.62
652.293	27.62
652.415	0.62
652.537	-6.38
652.659	2.62
652.781	26.62
652.903	21.62
653.026	23.62
653.148	9.62
653.27	20.62
653.392	29.62
653.514	10.62
653.636	10.62
653.758	14.62
653.88	4.62
654.002	23.62
654.124	20.62
654.247	21.62
654.369	30.62
654.491	-0.38
654.613	3.62
654.735	4.62
654.857	33.62
654.979	13.62
655.101	21.62
655.223	50.62
655.345	40.62
655.468	46.62
655.59	10.62
655.712	28.62
655.834	19.62
655.956	40.62
656.078	16.62
656.2	44.62
656.322	44.62
656.444	23.62
656.566	49.62
656.689	66.62
656.811	64.62
656.933	86.62
657.055	109.62
657.177	148.62
657.299	230.62
657.421	500.62
657.543	1890.62
657.665	12563.62
657.787	15164.62
657.91	15257.62
658.032	15663.62
658.154	4663.62
658.276	3435.62
658.398	1158.62
658.52	1036.62
658.642	475.62
658.764	596.62
658.886	264.62
659.009	420.62
659.131	223.62
659.253	305.62
659.375	148.62
659.497	243.62
659.619	148.62
659.741	201.62
659.863	94.62
659.985	173.62
660.108	92.62
660.23	137.62
660.352	90.62
660.474	135.62
660.596	64.62
660.718	125.62
660.84	49.62
660.962	118.62
661.084	55.62
661.207	92.62
661.329	59.62
661.451	96.62
661.573	40.62
661.695	110.62
661.817	61.62
661.939	95.62
662.061	73.62
662.184	81.62
662.306	42.62
662.428	77.62
662.55	43.62
662.672	76.62
662.794	52.62
662.916	61.62
663.038	34.62
663.161	77.62
663.283	46.62
663.405	59.62
663.527	18.62
663.649	58.62
663.771	28.62
663.893	46.62
664.015	40.62
664.138	37.62
664.26	38.62
664.382	55.62
664.504	29.62
664.626	34.62
664.748	25.62
664.87	25.62
664.992	43.62
665.115	52.62
665.237	13.62
665.359	36.62
665.481	27.62
665.603	51.62
665.725	18.62
665.847	21.62
665.97	31.62
666.092	48.62
666.214	27.62
666.336	35.62
666.458	26.62
666.58	42.62
666.702	7.62
666.825	39.62
666.947	6.62
667.069	27.62
667.191	24.62
667.313	44.62
667.435	4.62
667.557	26.62
667.68	8.62
667.802	20.62
667.924	0.62
668.046	27.62
668.168	18.62
668.29	39.62
668.412	19.62
668.535	20.62
668.657	26.62
668.779	23.62
668.901	43.62
669.023	44.62
669.145	22.62
669.267	44.62
669.39	42.62
669.512	24.62
669.634	8.62
669.756	17.62
669.878	18.62
670	32.62
670.123	5.62
670.245	33.62
670.367	28.62
670.489	34.62
670.611	18.62
670.733	11.62
670.856	21.62
670.978	24.62
671.1	16.62
671.222	44.62
671.344	14.62
671.466	32.62
671.589	-9.38
671.711	12.62
671.833	8.62
671.955	26.62
672.077	10.62
672.199	56.62
672.322	27.62
672.444	25.62
672.566	22.62
672.688	17.62
672.81	12.62
672.932	42.62
673.055	16.62
673.177	6.62
673.299	25.62
673.421	8.62
673.543	27.62
673.665	38.62
673.788	17.62
673.91	24.62
674.032	2.62
674.154	20.62
674.276	26.62
674.399	21.62
674.521	23.62
674.643	62.62
674.765	12.62
674.887	24.62
675.009	27.62
675.132	12.62
675.254	12.62
675.376	15.62
675.498	1.62
675.62	17.62
675.743	8.62
675.865	11.62
675.987	6.62
676.109	21.62
676.231	15.62
676.354	40.62
676.476	18.62
676.598	38.62
676.72	16.62
676.842	31.62
676.965	25.62
677.087	23.62
677.209	28.62
677.331	27.62
677.453	12.62
677.576	6.62
677.698	7.62
677.82	17.62
677.942	-5.38
678.064	8.62
678.187	20.62
678.309	13.62
678.431	13.62
678.553	21.62
678.675	37.62
678.798	25.62
678.92	1.62
679.042	12.62
679.164	-1.38
679.286	9.62
679.409	9.62
679.531	-4.38
679.653	-8.38
679.775	6.62
679.898	10.62
680.02	12.62
680.142	-0.38
680.264	15.62
680.386	9.62
680.509	30.62
680.631	7.62
680.753	12.62
680.875	-3.38
680.998	30.62
681.12	-3.38
681.242	16.62
681.364	-3.38
681.486	17.62
681.609	0.62
681.731	-1.38
681.853	7.62
681.975	0.62
682.098	15.62
682.22	22.62
682.342	22.62
682.464	31.62
682.587	9.62
682.709	17.62
682.831	3.62
682.953	13.62
683.076	8.62
683.198	11.62
683.32	16.62
683.442	21.62
683.565	18.62
683.687	13.62
683.809	-3.38
683.931	-7.38
684.054	12.62
684.176	22.62
684.298	34.62
684.42	17.62
684.543	18.62
684.665	41.62
684.787	6.62
684.909	2.62
685.032	8.62
685.154	8.62
685.276	5.62
685.398	15.62
685.521	0.62
685.643	9.62
685.765	3.62
685.887	22.62
686.01	17.62
686.132	8.62
686.254	19.62
686.377	15.62
686.499	12.62
686.621	23.62
686.743	20.62
686.866	18.62
686.988	36.62
687.11	9.62
687.232	21.62
687.355	5.62
687.477	27.62
687.599	26.62
687.722	8.62
687.844	18.62
687.966	12.62
688.088	8.62
688.211	42.62
688.333	23.62
688.455	11.62
688.578	17.62
688.7	7.62
688.822	16.62
688.944	-12.38
689.067	43.62
689.189	14.62
689.311	7.62
689.434	-9.38
689.556	18.62
689.678	14.62
689.801	5.62
689.923	8.62
690.045	20.62
690.167	30.62
690.29	16.62
690.412	-1.38
690.534	6.62
690.657	1.62
690.779	8.62
690.901	16.62
691.024	17.62
691.146	5.62
691.268	3.62
691.391	22.62
691.513	40.62
691.635	25.62
691.758	10.62
691.88	10.62
692.002	17.62
692.125	0.62
692.247	8.62
692.369	-3.38
692.492	-0.38
692.614	16.62
692.736	0.62
692.859	0.62
692.981	-6.38
693.103	7.62
693.226	21.62
693.348	43.62
693.47	18.62
693.593	3.62
693.715	10.62
693.837	-17.38
693.96	11.62
694.082	15.62
694.204	9.62
694.327	-5.38
694.449	-3.38
694.571	2.62
694.694	21.62
694.816	8.62
694.938	0.62
695.061	5.62
695.183	9.62
695.305	27.62
695.428	25.62
695.55	-5.38
695.672	-3.38
695.795	24.62
695.917	21.62
696.04	9.62
696.162	4.62
696.284	5.62
696.407	1.62
696.529	-0.38
696.651	44.62
696.774	11.62
696.896	17.62
697.019	14.62
697.141	6.62
697.263	21.62
697.386	4.62
697.508	4.62
697.63	22.62
697.753	3.62
697.875	5.62
697.998	-6.38
698.12	11.62
698.242	-3.38
698.365	5.62
698.487	2.62
698.61	4.62
698.732	14.62
698.854	35.62
698.977	15.62
699.099	33.62
699.221	6.62
699.344	8.62
699.466	17.62
699.589	16.62
699.711	6.62
699.834	2.62
699.956	-5.38
700.078	17.62
700.201	2.62
700.323	25.62
700.446	7.62
700.568	10.62
700.69	10.62
700.813	2.62
700.935	0.62
701.058	18.62
701.18	1.62
701.302	16.62
701.425	13.62
701.547	8.62
701.67	16.62
701.792	14.62
701.915	0.62
702.037	2.62
702.159	4.62
702.282	2.62
702.404	16.62
702.527	37.62
702.649	31.62
702.772	10.62
702.894	17.62
703.017	18.62
703.139	1.62
703.261	18.62
703.384	25.62
703.506	-4.38
703.629	-5.38
703.751	20.62
703.874	21.62
703.996	2.62
704.119	-7.38
704.241	26.62
704.364	-4.38
704.486	24.62
704.608	1.62
704.731	5.62
704.853	15.62
704.976	-2.38
705.098	8.62
705.221	12.62
705.343	14.62
705.466	8.62
705.588	21.62
705.711	14.62
705.833	9.62
705.956	18.62
706.078	21.62
706.201	21.62
706.323	19.62
706.446	-2.38
