Data from LowRes_H2_15_26_11_07_2024_HR4C61881__22__15-28-15-837.txt Node

Date: Thu Nov 07 15:28:15 EST 2024
User: crc00042
Spectrometer: HR4C6188
Trigger mode: 4
Integration Time (sec): 1.000000E-1
Scans to average: 1
Electric dark correction enabled: true
Nonlinearity correction enabled: false
Boxcar width: 0
XAxis mode: Wavelengths
Number of Pixels in Spectrum: 3648
>>>>>Begin Spectral Data<<<<<
245.66	-110.54
245.797	-110.54
245.934	-110.54
246.071	-80.54
246.208	23.46
246.344	-6.54
246.481	1.46
246.618	-12.54
246.755	14.46
246.892	-0.54
247.029	-5.54
247.165	-8.54
247.302	6.46
247.439	-7.54
247.576	7.46
247.713	-2.54
247.849	20.46
247.986	-6.54
248.123	29.46
248.26	-15.54
248.396	-10.54
248.533	-2.54
248.67	-9.54
248.806	-12.54
248.943	-15.54
249.08	9.46
249.216	23.46
249.353	-12.54
249.49	-10.54
249.626	8.46
249.763	-13.54
249.9	-13.54
250.036	-12.54
250.173	16.46
250.309	6.46
250.446	4.46
250.582	-5.54
250.719	-13.54
250.856	4.46
250.992	-11.54
251.129	-1.54
251.265	-14.54
251.402	12.46
251.538	-6.54
251.675	-13.54
251.811	4.46
251.948	-3.54
252.084	-8.54
252.221	4.46
252.357	1.46
252.493	28.46
252.63	-7.54
252.766	22.46
252.903	3.46
253.039	-1.54
253.175	-3.54
253.312	13.46
253.448	-1.54
253.585	-3.54
253.721	-8.54
253.857	-12.54
253.994	16.46
254.13	8.46
254.266	0.46
254.403	-0.54
254.539	-13.54
254.675	-10.54
254.811	7.46
254.948	7.46
255.084	-13.54
255.22	-8.54
255.356	-4.54
255.493	-8.54
255.629	-10.54
255.765	1.46
255.901	6.46
256.037	3.46
256.174	6.46
256.31	-1.54
256.446	8.46
256.582	4.46
256.718	25.46
256.854	22.46
256.991	15.46
257.127	13.46
257.263	3.46
257.399	36.46
257.535	7.46
257.671	-8.54
257.807	-13.54
257.943	-9.54
258.079	-11.54
258.215	9.46
258.351	11.46
258.487	-1.54
258.623	1.46
258.759	-6.54
258.895	-5.54
259.031	-1.54
259.167	0.46
259.303	-16.54
259.439	-1.54
259.575	-1.54
259.711	-5.54
259.847	-12.54
259.983	8.46
260.119	-6.54
260.255	1.46
260.391	7.46
260.527	6.46
260.663	16.46
260.799	14.46
260.934	0.46
261.07	-7.54
261.206	-11.54
261.342	-19.54
261.478	21.46
261.614	10.46
261.749	4.46
261.885	6.46
262.021	-0.54
262.157	25.46
262.293	-3.54
262.428	-4.54
262.564	-3.54
262.7	-9.54
262.836	-1.54
262.971	21.46
263.107	14.46
263.243	4.46
263.378	5.46
263.514	-6.54
263.65	-9.54
263.785	-23.54
263.921	-3.54
264.057	1.46
264.192	16.46
264.328	30.46
264.464	-11.54
264.599	11.46
264.735	14.46
264.871	-12.54
265.006	2.46
265.142	-6.54
265.277	1.46
265.413	9.46
265.548	2.46
265.684	12.46
265.819	5.46
265.955	-13.54
266.091	-28.54
266.226	-15.54
266.362	6.46
266.497	16.46
266.633	-15.54
266.768	-4.54
266.903	6.46
267.039	8.46
267.174	11.46
267.31	-10.54
267.445	-22.54
267.581	-11.54
267.716	6.46
267.851	31.46
267.987	18.46
268.122	29.46
268.258	-20.54
268.393	0.46
268.528	-0.54
268.664	-13.54
268.799	-18.54
268.934	-9.54
269.07	-11.54
269.205	3.46
269.34	21.46
269.476	18.46
269.611	-10.54
269.746	25.46
269.881	2.46
270.017	40.46
270.152	15.46
270.287	0.46
270.422	20.46
270.558	-12.54
270.693	10.46
270.828	-6.54
270.963	-4.54
271.098	-9.54
271.234	-6.54
271.369	13.46
271.504	4.46
271.639	-4.54
271.774	-5.54
271.909	2.46
272.045	-8.54
272.18	-1.54
272.315	-4.54
272.45	14.46
272.585	-15.54
272.72	-11.54
272.855	5.46
272.99	14.46
273.125	-1.54
273.26	-6.54
273.395	-24.54
273.53	11.46
273.665	8.46
273.8	0.46
273.935	-6.54
274.07	9.46
274.205	19.46
274.34	-21.54
274.475	-7.54
274.61	12.46
274.745	3.46
274.88	29.46
275.015	-12.54
275.15	3.46
275.285	12.46
275.42	-12.54
275.555	10.46
275.69	4.46
275.825	-6.54
275.959	2.46
276.094	3.46
276.229	-1.54
276.364	4.46
276.499	-0.54
276.634	-0.54
276.768	-13.54
276.903	8.46
277.038	9.46
277.173	-13.54
277.308	-4.54
277.442	-27.54
277.577	-13.54
277.712	1.46
277.847	4.46
277.981	20.46
278.116	-5.54
278.251	26.46
278.386	5.46
278.52	-1.54
278.655	-5.54
278.79	8.46
278.924	33.46
279.059	26.46
279.194	-0.54
279.328	26.46
279.463	14.46
279.598	20.46
279.732	13.46
279.867	1.46
280.001	17.46
280.136	9.46
280.271	-0.54
280.405	-2.54
280.54	6.46
280.674	-9.54
280.809	34.46
280.943	12.46
281.078	4.46
281.213	22.46
281.347	5.46
281.482	10.46
281.616	11.46
281.751	7.46
281.885	-20.54
282.02	6.46
282.154	17.46
282.288	-4.54
282.423	2.46
282.557	-10.54
282.692	9.46
282.826	-1.54
282.961	13.46
283.095	-4.54
283.229	-0.54
283.364	-27.54
283.498	3.46
283.633	8.46
283.767	10.46
283.901	4.46
284.036	-11.54
284.17	-15.54
284.304	-14.54
284.439	-0.54
284.573	-2.54
284.707	11.46
284.842	-11.54
284.976	-4.54
285.11	-21.54
285.244	12.46
285.379	48.46
285.513	-12.54
285.647	2.46
285.781	1.46
285.916	-0.54
286.05	3.46
286.184	7.46
286.318	21.46
286.453	-6.54
286.587	-9.54
286.721	-5.54
286.855	16.46
286.989	19.46
287.123	7.46
287.258	2.46
287.392	-7.54
287.526	-4.54
287.66	-3.54
287.794	3.46
287.928	-8.54
288.062	-4.54
288.196	-19.54
288.33	5.46
288.464	17.46
288.598	30.46
288.733	3.46
288.867	19.46
289.001	3.46
289.135	-0.54
289.269	-10.54
289.403	3.46
289.537	-10.54
289.671	1.46
289.805	-12.54
289.939	-6.54
290.073	-4.54
290.207	11.46
290.34	-11.54
290.474	8.46
290.608	6.46
290.742	5.46
290.876	3.46
291.01	-12.54
291.144	8.46
291.278	19.46
291.412	6.46
291.546	-23.54
291.679	-6.54
291.813	10.46
291.947	8.46
292.081	-19.54
292.215	16.46
292.349	7.46
292.482	3.46
292.616	-2.54
292.75	-11.54
292.884	3.46
293.018	-11.54
293.151	-14.54
293.285	3.46
293.419	-13.54
293.553	-8.54
293.686	-17.54
293.82	12.46
293.954	18.46
294.088	33.46
294.221	16.46
294.355	-12.54
294.489	-5.54
294.622	-20.54
294.756	3.46
294.89	10.46
295.023	3.46
295.157	-4.54
295.291	10.46
295.424	16.46
295.558	11.46
295.691	8.46
295.825	-1.54
295.959	1.46
296.092	3.46
296.226	-0.54
296.359	5.46
296.493	-2.54
296.627	-0.54
296.76	-11.54
296.894	12.46
297.027	9.46
297.161	0.46
297.294	-7.54
297.428	-7.54
297.561	6.46
297.695	-3.54
297.828	-16.54
297.962	-11.54
298.095	-26.54
298.229	6.46
298.362	-17.54
298.495	-11.54
298.629	1.46
298.762	16.46
298.896	1.46
299.029	-11.54
299.162	-1.54
299.296	8.46
299.429	-19.54
299.563	-10.54
299.696	11.46
299.829	9.46
299.963	24.46
300.096	12.46
300.229	9.46
300.363	21.46
300.496	21.46
300.629	-28.54
300.763	-7.54
300.896	-4.54
301.029	0.46
301.162	2.46
301.296	-8.54
301.429	-6.54
301.562	-13.54
301.695	16.46
301.829	20.46
301.962	18.46
302.095	6.46
302.228	-11.54
302.362	-1.54
302.495	-22.54
302.628	-9.54
302.761	3.46
302.894	-10.54
303.027	25.46
303.161	-12.54
303.294	-17.54
303.427	-6.54
303.56	4.46
303.693	8.46
303.826	0.46
303.959	-14.54
304.092	-5.54
304.225	-12.54
304.359	-11.54
304.492	-0.54
304.625	-3.54
304.758	13.46
304.891	-8.54
305.024	-7.54
305.157	-6.54
305.29	-19.54
305.423	3.46
305.556	3.46
305.689	22.46
305.822	8.46
305.955	12.46
306.088	-2.54
306.221	-4.54
306.354	2.46
306.487	13.46
306.62	-19.54
306.752	-9.54
306.885	-5.54
307.018	7.46
307.151	2.46
307.284	9.46
307.417	-10.54
307.55	5.46
307.683	11.46
307.816	18.46
307.948	5.46
308.081	18.46
308.214	5.46
308.347	9.46
308.48	-0.54
308.613	-22.54
308.745	7.46
308.878	-4.54
309.011	0.46
309.144	24.46
309.277	-1.54
309.409	19.46
309.542	4.46
309.675	36.46
309.808	17.46
309.94	30.46
310.073	-4.54
310.206	1.46
310.339	8.46
310.471	5.46
310.604	32.46
310.737	-12.54
310.869	-6.54
311.002	5.46
311.135	-3.54
311.267	-14.54
311.4	-3.54
311.533	10.46
311.665	-15.54
311.798	-1.54
311.93	3.46
312.063	9.46
312.196	1.46
312.328	-2.54
312.461	-3.54
312.593	6.46
312.726	-7.54
312.859	20.46
312.991	14.46
313.124	-21.54
313.256	11.46
313.389	7.46
313.521	-15.54
313.654	-24.54
313.786	-12.54
313.919	-0.54
314.051	11.46
314.184	-8.54
314.316	0.46
314.449	-13.54
314.581	-21.54
314.714	-24.54
314.846	-4.54
314.978	11.46
315.111	-6.54
315.243	17.46
315.376	22.46
315.508	16.46
315.641	0.46
315.773	36.46
315.905	-3.54
316.038	-4.54
316.17	6.46
316.302	4.46
316.435	-6.54
316.567	-11.54
316.699	16.46
316.832	0.46
316.964	7.46
317.096	0.46
317.229	-24.54
317.361	-15.54
317.493	-9.54
317.625	20.46
317.758	18.46
317.89	9.46
318.022	-18.54
318.155	-11.54
318.287	8.46
318.419	-0.54
318.551	-5.54
318.683	-10.54
318.816	-18.54
318.948	-12.54
319.08	-9.54
319.212	0.46
319.344	10.46
319.477	1.46
319.609	-14.54
319.741	-3.54
319.873	-11.54
320.005	2.46
320.137	18.46
320.269	28.46
320.401	-0.54
320.534	-5.54
320.666	-17.54
320.798	-27.54
320.93	-12.54
321.062	-22.54
321.194	-5.54
321.326	13.46
321.458	22.46
321.59	7.46
321.722	-9.54
321.854	1.46
321.986	9.46
322.118	20.46
322.25	-8.54
322.382	-13.54
322.514	-10.54
322.646	-18.54
322.778	9.46
322.91	-13.54
323.042	1.46
323.174	-2.54
323.306	-16.54
323.438	-23.54
323.57	2.46
323.702	0.46
323.834	15.46
323.966	-19.54
324.097	-5.54
324.229	7.46
324.361	-2.54
324.493	10.46
324.625	-1.54
324.757	5.46
324.889	11.46
325.021	2.46
325.152	-10.54
325.284	18.46
325.416	-2.54
325.548	-1.54
325.68	4.46
325.811	26.46
325.943	20.46
326.075	-28.54
326.207	6.46
326.339	-5.54
326.47	0.46
326.602	-6.54
326.734	24.46
326.866	10.46
326.997	-13.54
327.129	-17.54
327.261	-4.54
327.392	-18.54
327.524	-7.54
327.656	7.46
327.787	15.46
327.919	-11.54
328.051	-0.54
328.182	17.46
328.314	32.46
328.446	11.46
328.577	7.46
328.709	8.46
328.841	-12.54
328.972	-13.54
329.104	7.46
329.235	7.46
329.367	-15.54
329.499	-3.54
329.63	13.46
329.762	9.46
329.893	2.46
330.025	-7.54
330.156	-12.54
330.288	-5.54
330.419	20.46
330.551	7.46
330.683	-13.54
330.814	-17.54
330.946	14.46
331.077	2.46
331.208	-17.54
331.34	-19.54
331.471	-21.54
331.603	5.46
331.734	-0.54
331.866	7.46
331.997	-17.54
332.129	-5.54
332.26	4.46
332.392	19.46
332.523	10.46
332.654	-13.54
332.786	-3.54
332.917	-19.54
333.048	16.46
333.18	20.46
333.311	-14.54
333.443	6.46
333.574	10.46
333.705	16.46
333.837	-10.54
333.968	-14.54
334.099	16.46
334.231	22.46
334.362	13.46
334.493	-0.54
334.624	-4.54
334.756	-2.54
334.887	16.46
335.018	12.46
335.15	6.46
335.281	-3.54
335.412	5.46
335.543	11.46
335.675	11.46
335.806	-8.54
335.937	-11.54
336.068	-0.54
336.199	15.46
336.331	-0.54
336.462	-0.54
336.593	8.46
336.724	-3.54
336.855	5.46
336.986	15.46
337.118	9.46
337.249	8.46
337.38	-1.54
337.511	0.46
337.642	8.46
337.773	2.46
337.904	3.46
338.035	15.46
338.166	8.46
338.298	9.46
338.429	-8.54
338.56	10.46
338.691	26.46
338.822	8.46
338.953	22.46
339.084	0.46
339.215	5.46
339.346	-5.54
339.477	-7.54
339.608	-14.54
339.739	-6.54
339.87	6.46
340.001	-5.54
340.132	5.46
340.263	10.46
340.394	6.46
340.525	17.46
340.656	5.46
340.787	-17.54
340.918	35.46
341.049	21.46
341.179	18.46
341.31	4.46
341.441	-1.54
341.572	-5.54
341.703	0.46
341.834	-9.54
341.965	14.46
342.096	12.46
342.227	6.46
342.357	-10.54
342.488	16.46
342.619	2.46
342.75	3.46
342.881	-8.54
343.012	27.46
343.142	24.46
343.273	10.46
343.404	1.46
343.535	36.46
343.666	16.46
343.796	4.46
343.927	15.46
344.058	33.46
344.189	12.46
344.319	6.46
344.45	5.46
344.581	2.46
344.712	-19.54
344.842	-8.54
344.973	15.46
345.104	4.46
345.234	0.46
345.365	-3.54
345.496	4.46
345.626	19.46
345.757	6.46
345.888	-25.54
346.018	7.46
346.149	-0.54
346.28	13.46
346.41	1.46
346.541	14.46
346.672	-12.54
346.802	12.46
346.933	-0.54
347.063	23.46
347.194	-6.54
347.325	-6.54
347.455	19.46
347.586	-7.54
347.716	-15.54
347.847	8.46
347.977	8.46
348.108	15.46
348.238	15.46
348.369	3.46
348.499	7.46
348.63	-11.54
348.76	6.46
348.891	16.46
349.021	13.46
349.152	13.46
349.282	8.46
349.413	-12.54
349.543	31.46
349.674	3.46
349.804	9.46
349.935	-5.54
350.065	1.46
350.196	-6.54
350.326	-1.54
350.456	-12.54
350.587	20.46
350.717	13.46
350.848	13.46
350.978	7.46
351.108	-13.54
351.239	15.46
351.369	11.46
351.499	-4.54
351.63	10.46
351.76	15.46
351.89	12.46
352.021	22.46
352.151	-20.54
352.281	1.46
352.412	19.46
352.542	9.46
352.672	0.46
352.803	1.46
352.933	11.46
353.063	10.46
353.193	8.46
353.324	2.46
353.454	20.46
353.584	22.46
353.714	14.46
353.845	8.46
353.975	12.46
354.105	-5.54
354.235	-2.54
354.365	1.46
354.496	8.46
354.626	23.46
354.756	17.46
354.886	4.46
355.016	15.46
355.146	6.46
355.277	3.46
355.407	5.46
355.537	-4.54
355.667	5.46
355.797	7.46
355.927	-10.54
356.057	-2.54
356.187	-4.54
356.318	-21.54
356.448	0.46
356.578	22.46
356.708	24.46
356.838	5.46
356.968	10.46
357.098	5.46
357.228	13.46
357.358	-7.54
357.488	10.46
357.618	26.46
357.748	24.46
357.878	0.46
358.008	-4.54
358.138	3.46
358.268	-3.54
358.398	22.46
358.528	-10.54
358.658	3.46
358.788	19.46
358.918	10.46
359.048	5.46
359.178	24.46
359.308	-0.54
359.438	35.46
359.568	9.46
359.698	11.46
359.827	-0.54
359.957	15.46
360.087	8.46
360.217	-12.54
360.347	2.46
360.477	5.46
360.607	1.46
360.737	28.46
360.866	7.46
360.996	-19.54
361.126	-8.54
361.256	16.46
361.386	27.46
361.516	24.46
361.645	-20.54
361.775	21.46
361.905	-5.54
362.035	12.46
362.165	22.46
362.294	22.46
362.424	19.46
362.554	20.46
362.684	-15.54
362.813	-16.54
362.943	18.46
363.073	5.46
363.203	-13.54
363.332	-3.54
363.462	-6.54
363.592	-13.54
363.721	-5.54
363.851	19.46
363.981	15.46
364.111	-5.54
364.24	-14.54
364.37	15.46
364.5	24.46
364.629	2.46
364.759	-15.54
364.888	-14.54
365.018	-4.54
365.148	5.46
365.277	31.46
365.407	14.46
365.537	-6.54
365.666	12.46
365.796	8.46
365.925	14.46
366.055	16.46
366.184	-13.54
366.314	19.46
366.444	19.46
366.573	7.46
366.703	11.46
366.832	-1.54
366.962	16.46
367.091	19.46
367.221	10.46
367.35	0.46
367.48	50.46
367.609	12.46
367.739	-0.54
367.868	3.46
367.998	20.46
368.127	30.46
368.257	35.46
368.386	27.46
368.516	22.46
368.645	-3.54
368.775	13.46
368.904	11.46
369.033	-17.54
369.163	-10.54
369.292	17.46
369.422	11.46
369.551	4.46
369.68	20.46
369.81	24.46
369.939	8.46
370.069	4.46
370.198	19.46
370.327	-13.54
370.457	12.46
370.586	12.46
370.715	13.46
370.845	-16.54
370.974	2.46
371.103	-12.54
371.233	-0.54
371.362	-4.54
371.491	-0.54
371.621	2.46
371.75	15.46
371.879	-13.54
372.008	-3.54
372.138	2.46
372.267	0.46
372.396	-9.54
372.525	4.46
372.655	12.46
372.784	-11.54
372.913	10.46
373.042	0.46
373.172	10.46
373.301	-13.54
373.43	-32.54
373.559	4.46
373.688	15.46
373.818	24.46
373.947	13.46
374.076	-0.54
374.205	22.46
374.334	-0.54
374.463	-28.54
374.593	2.46
374.722	9.46
374.851	6.46
374.98	-20.54
375.109	-2.54
375.238	5.46
375.367	25.46
375.496	-6.54
375.625	-10.54
375.755	18.46
375.884	15.46
376.013	8.46
376.142	-11.54
376.271	-14.54
376.4	-1.54
376.529	-0.54
376.658	3.46
376.787	-3.54
376.916	11.46
377.045	6.46
377.174	13.46
377.303	-10.54
377.432	15.46
377.561	21.46
377.69	14.46
377.819	13.46
377.948	15.46
378.077	3.46
378.206	3.46
378.335	-3.54
378.464	17.46
378.593	25.46
378.722	6.46
378.851	6.46
378.98	9.46
379.108	-12.54
379.237	12.46
379.366	5.46
379.495	38.46
379.624	19.46
379.753	24.46
379.882	-0.54
380.011	-3.54
380.14	4.46
380.268	7.46
380.397	-3.54
380.526	31.46
380.655	-3.54
380.784	-9.54
380.913	-7.54
381.041	4.46
381.17	-19.54
381.299	-6.54
381.428	14.46
381.557	14.46
381.685	-10.54
381.814	26.46
381.943	24.46
382.072	-8.54
382.2	-7.54
382.329	2.46
382.458	-2.54
382.587	19.46
382.715	28.46
382.844	1.46
382.973	2.46
383.102	-4.54
383.23	3.46
383.359	-13.54
383.488	2.46
383.616	9.46
383.745	-18.54
383.874	-21.54
384.003	-16.54
384.131	-9.54
384.26	6.46
384.389	3.46
384.517	-9.54
384.646	-6.54
384.774	0.46
384.903	19.46
385.032	16.46
385.16	-5.54
385.289	8.46
385.418	6.46
385.546	8.46
385.675	10.46
385.803	-3.54
385.932	15.46
386.06	-11.54
386.189	-9.54
386.318	4.46
386.446	-3.54
386.575	17.46
386.703	14.46
386.832	-10.54
386.96	-9.54
387.089	17.46
387.217	12.46
387.346	11.46
387.474	11.46
387.603	0.46
387.731	15.46
387.86	18.46
387.988	12.46
388.117	17.46
388.245	28.46
388.374	10.46
388.502	11.46
388.631	-3.54
388.759	26.46
388.888	-5.54
389.016	-0.54
389.144	-6.54
389.273	3.46
389.401	4.46
389.53	-15.54
389.658	16.46
389.786	3.46
389.915	-14.54
390.043	-8.54
390.172	9.46
390.3	20.46
390.428	18.46
390.557	-12.54
390.685	16.46
390.813	24.46
390.942	18.46
391.07	18.46
391.198	11.46
391.327	-7.54
391.455	-22.54
391.583	13.46
391.712	9.46
391.84	6.46
391.968	-20.54
392.096	16.46
392.225	-14.54
392.353	-4.54
392.481	-10.54
392.609	4.46
392.738	-0.54
392.866	3.46
392.994	-11.54
393.122	16.46
393.251	-5.54
393.379	-13.54
393.507	-31.54
393.635	-1.54
393.764	7.46
393.892	12.46
394.02	-15.54
394.148	-0.54
394.276	-0.54
394.404	16.46
394.533	5.46
394.661	2.46
394.789	18.46
394.917	19.46
395.045	7.46
395.173	-19.54
395.302	1.46
395.43	14.46
395.558	16.46
395.686	11.46
395.814	4.46
395.942	-3.54
396.07	10.46
396.198	19.46
396.326	15.46
396.454	32.46
396.582	26.46
396.711	8.46
396.839	12.46
396.967	23.46
397.095	-0.54
397.223	19.46
397.351	24.46
397.479	2.46
397.607	9.46
397.735	26.46
397.863	10.46
397.991	8.46
398.119	6.46
398.247	-6.54
398.375	-2.54
398.503	-12.54
398.631	-0.54
398.759	-8.54
398.887	3.46
399.015	1.46
399.143	-0.54
399.271	14.46
399.399	-1.54
399.526	5.46
399.654	12.46
399.782	-2.54
399.91	20.46
400.038	32.46
400.166	4.46
400.294	-2.54
400.422	-4.54
400.55	-3.54
400.678	-1.54
400.805	4.46
400.933	0.46
401.061	19.46
401.189	8.46
401.317	22.46
401.445	16.46
401.573	24.46
401.7	-1.54
401.828	3.46
401.956	0.46
402.084	16.46
402.212	11.46
402.34	1.46
402.467	5.46
402.595	4.46
402.723	-2.54
402.851	9.46
402.978	7.46
403.106	16.46
403.234	12.46
403.362	29.46
403.489	19.46
403.617	-0.54
403.745	-14.54
403.873	-6.54
404	5.46
404.128	-5.54
404.256	39.46
404.384	25.46
404.511	9.46
404.639	6.46
404.767	-0.54
404.894	15.46
405.022	9.46
405.15	24.46
405.277	11.46
405.405	-14.54
405.533	3.46
405.66	-7.54
405.788	-17.54
405.916	-17.54
406.043	-13.54
406.171	5.46
406.299	17.46
406.426	14.46
406.554	-4.54
406.681	31.46
406.809	-0.54
406.937	9.46
407.064	9.46
407.192	-9.54
407.319	1.46
407.447	-9.54
407.574	38.46
407.702	15.46
407.83	-4.54
407.957	-11.54
408.085	1.46
408.212	8.46
408.34	13.46
408.467	-3.54
408.595	6.46
408.722	24.46
408.85	27.46
408.977	6.46
409.105	-3.54
409.232	9.46
409.36	4.46
409.487	8.46
409.615	7.46
409.742	12.46
409.87	32.46
409.997	33.46
410.125	52.46
410.252	46.46
410.379	43.46
410.507	37.46
410.634	15.46
410.762	-5.54
410.889	25.46
411.017	-9.54
411.144	-0.54
411.271	12.46
411.399	16.46
411.526	-1.54
411.653	9.46
411.781	11.46
411.908	-3.54
412.036	-8.54
412.163	22.46
412.29	19.46
412.418	11.46
412.545	26.46
412.672	-9.54
412.8	35.46
412.927	10.46
413.054	33.46
413.182	11.46
413.309	0.46
413.436	-5.54
413.564	2.46
413.691	-3.54
413.818	32.46
413.945	-10.54
414.073	10.46
414.2	25.46
414.327	12.46
414.454	16.46
414.582	-5.54
414.709	-7.54
414.836	4.46
414.963	3.46
415.091	6.46
415.218	-2.54
415.345	-9.54
415.472	10.46
415.6	-8.54
415.727	29.46
415.854	13.46
415.981	5.46
416.108	3.46
416.236	8.46
416.363	-2.54
416.49	-7.54
416.617	11.46
416.744	5.46
416.871	14.46
416.998	6.46
417.126	-1.54
417.253	0.46
417.38	9.46
417.507	-3.54
417.634	17.46
417.761	25.46
417.888	15.46
418.015	-1.54
418.143	-3.54
418.27	30.46
418.397	-12.54
418.524	12.46
418.651	2.46
418.778	8.46
418.905	26.46
419.032	6.46
419.159	11.46
419.286	29.46
419.413	12.46
419.54	19.46
419.667	14.46
419.794	-6.54
419.921	19.46
420.048	14.46
420.175	10.46
420.302	-0.54
420.429	3.46
420.556	-5.54
420.683	-7.54
420.81	13.46
420.937	8.46
421.064	17.46
421.191	11.46
421.318	26.46
421.445	16.46
421.572	-7.54
421.699	22.46
421.826	18.46
421.953	-5.54
422.08	-6.54
422.207	-1.54
422.334	-18.54
422.461	29.46
422.588	7.46
422.714	12.46
422.841	26.46
422.968	12.46
423.095	-7.54
423.222	0.46
423.349	1.46
423.476	5.46
423.603	-1.54
423.729	-9.54
423.856	18.46
423.983	9.46
424.11	0.46
424.237	10.46
424.364	-1.54
424.491	14.46
424.617	-22.54
424.744	-5.54
424.871	6.46
424.998	-7.54
425.125	3.46
425.251	5.46
425.378	-13.54
425.505	15.46
425.632	5.46
425.758	0.46
425.885	12.46
426.012	20.46
426.139	19.46
426.266	13.46
426.392	26.46
426.519	4.46
426.646	10.46
426.772	5.46
426.899	11.46
427.026	12.46
427.153	6.46
427.279	18.46
427.406	-8.54
427.533	-0.54
427.659	-18.54
427.786	12.46
427.913	42.46
428.039	20.46
428.166	-8.54
428.293	12.46
428.419	23.46
428.546	1.46
428.673	-16.54
428.799	0.46
428.926	8.46
429.053	34.46
429.179	11.46
429.306	6.46
429.433	24.46
429.559	4.46
429.686	-7.54
429.812	1.46
429.939	2.46
430.066	18.46
430.192	-0.54
430.319	23.46
430.445	-1.54
430.572	6.46
430.699	-4.54
430.825	-9.54
430.952	14.46
431.078	14.46
431.205	7.46
431.331	1.46
431.458	10.46
431.584	10.46
431.711	-4.54
431.837	3.46
431.964	2.46
432.09	13.46
432.217	-17.54
432.343	-0.54
432.47	18.46
432.596	-7.54
432.723	-6.54
432.849	2.46
432.976	-1.54
433.102	-7.54
433.229	-9.54
433.355	26.46
433.482	71.46
433.608	154.46
433.735	146.46
433.861	113.46
433.987	132.46
434.114	206.46
434.24	201.46
434.367	68.46
434.493	9.46
434.62	25.46
434.746	9.46
434.872	10.46
434.999	29.46
435.125	3.46
435.252	6.46
435.378	12.46
435.504	-1.54
435.631	22.46
435.757	3.46
435.883	10.46
436.01	12.46
436.136	-0.54
436.262	15.46
436.389	0.46
436.515	18.46
436.641	22.46
436.768	15.46
436.894	7.46
437.02	19.46
437.147	32.46
437.273	9.46
437.399	-1.54
437.526	22.46
437.652	19.46
437.778	23.46
437.904	-3.54
438.031	1.46
438.157	12.46
438.283	5.46
438.409	3.46
438.536	-12.54
438.662	14.46
438.788	19.46
438.914	18.46
439.041	16.46
439.167	27.46
439.293	-22.54
439.419	-10.54
439.546	4.46
439.672	-0.54
439.798	15.46
439.924	6.46
440.05	21.46
440.177	18.46
440.303	10.46
440.429	8.46
440.555	10.46
440.681	10.46
440.807	22.46
440.934	17.46
441.06	0.46
441.186	2.46
441.312	4.46
441.438	21.46
441.564	16.46
441.69	24.46
441.816	18.46
441.943	18.46
442.069	-4.54
442.195	24.46
442.321	10.46
442.447	-17.54
442.573	10.46
442.699	11.46
442.825	-12.54
442.951	21.46
443.077	26.46
443.203	17.46
443.33	3.46
443.456	-10.54
443.582	11.46
443.708	7.46
443.834	17.46
443.96	26.46
444.086	13.46
444.212	24.46
444.338	5.46
444.464	25.46
444.59	22.46
444.716	7.46
444.842	7.46
444.968	-3.54
445.094	4.46
445.22	-6.54
445.346	-1.54
445.472	1.46
445.598	0.46
445.724	0.46
445.85	-4.54
445.976	19.46
446.102	39.46
446.228	23.46
446.354	9.46
446.48	3.46
446.605	10.46
446.731	7.46
446.857	1.46
446.983	6.46
447.109	2.46
447.235	23.46
447.361	8.46
447.487	13.46
447.613	1.46
447.739	15.46
447.865	8.46
447.99	24.46
448.116	23.46
448.242	19.46
448.368	12.46
448.494	6.46
448.62	13.46
448.746	-3.54
448.872	6.46
448.997	-19.54
449.123	-3.54
449.249	18.46
449.375	25.46
449.501	1.46
449.627	-4.54
449.752	20.46
449.878	-2.54
450.004	3.46
450.13	5.46
450.256	16.46
450.381	4.46
450.507	3.46
450.633	16.46
450.759	7.46
450.884	1.46
451.01	25.46
451.136	2.46
451.262	7.46
451.388	-7.54
451.513	-18.54
451.639	4.46
451.765	2.46
451.89	9.46
452.016	9.46
452.142	0.46
452.268	6.46
452.393	15.46
452.519	11.46
452.645	16.46
452.771	6.46
452.896	-5.54
453.022	2.46
453.148	15.46
453.273	14.46
453.399	6.46
453.525	-10.54
453.65	-6.54
453.776	34.46
453.902	22.46
454.027	17.46
454.153	28.46
454.279	43.46
454.404	0.46
454.53	21.46
454.656	33.46
454.781	7.46
454.907	22.46
455.032	-13.54
455.158	17.46
455.284	27.46
455.409	17.46
455.535	18.46
455.66	5.46
455.786	10.46
455.912	-1.54
456.037	-7.54
456.163	17.46
456.288	22.46
456.414	-12.54
456.539	-8.54
456.665	5.46
456.791	-10.54
456.916	-7.54
457.042	5.46
457.167	17.46
457.293	16.46
457.418	-1.54
457.544	17.46
457.669	3.46
457.795	0.46
457.92	4.46
458.046	17.46
458.171	21.46
458.297	9.46
458.422	-4.54
458.548	-5.54
458.673	0.46
458.799	-0.54
458.924	-21.54
459.05	4.46
459.175	0.46
459.301	12.46
459.426	38.46
459.552	26.46
459.677	4.46
459.803	22.46
459.928	1.46
460.053	4.46
460.179	9.46
460.304	16.46
460.43	-6.54
460.555	28.46
460.681	0.46
460.806	13.46
460.931	1.46
461.057	13.46
461.182	-5.54
461.308	3.46
461.433	27.46
461.558	5.46
461.684	11.46
461.809	9.46
461.934	18.46
462.06	15.46
462.185	-13.54
462.311	15.46
462.436	19.46
462.561	13.46
462.687	0.46
462.812	15.46
462.937	4.46
463.063	-11.54
463.188	-4.54
463.313	6.46
463.439	22.46
463.564	31.46
463.689	15.46
463.814	41.46
463.94	25.46
464.065	13.46
464.19	32.46
464.316	-1.54
464.441	2.46
464.566	-8.54
464.692	8.46
464.817	8.46
464.942	6.46
465.067	15.46
465.193	-27.54
465.318	-0.54
465.443	2.46
465.568	10.46
465.694	14.46
465.819	26.46
465.944	18.46
466.069	-8.54
466.194	8.46
466.32	12.46
466.445	25.46
466.57	-8.54
466.695	-8.54
466.82	16.46
466.946	17.46
467.071	2.46
467.196	3.46
467.321	22.46
467.446	-7.54
467.572	5.46
467.697	4.46
467.822	12.46
467.947	13.46
468.072	-1.54
468.197	-8.54
468.323	-11.54
468.448	0.46
468.573	12.46
468.698	-1.54
468.823	15.46
468.948	21.46
469.073	22.46
469.198	23.46
469.324	8.46
469.449	9.46
469.574	33.46
469.699	5.46
469.824	18.46
469.949	11.46
470.074	10.46
470.199	26.46
470.324	15.46
470.449	15.46
470.574	12.46
470.7	10.46
470.825	22.46
470.95	28.46
471.075	-8.54
471.2	7.46
471.325	17.46
471.45	13.46
471.575	-3.54
471.7	0.46
471.825	11.46
471.95	12.46
472.075	9.46
472.2	-9.54
472.325	1.46
472.45	0.46
472.575	8.46
472.7	4.46
472.825	13.46
472.95	16.46
473.075	-1.54
473.2	2.46
473.325	3.46
473.45	-5.54
473.575	-7.54
473.7	11.46
473.825	14.46
473.95	4.46
474.075	21.46
474.2	0.46
474.325	4.46
474.45	20.46
474.574	2.46
474.699	24.46
474.824	24.46
474.949	1.46
475.074	15.46
475.199	10.46
475.324	20.46
475.449	-1.54
475.574	-8.54
475.699	1.46
475.824	1.46
475.949	14.46
476.073	-7.54
476.198	7.46
476.323	22.46
476.448	4.46
476.573	-1.54
476.698	22.46
476.823	21.46
476.947	15.46
477.072	7.46
477.197	-5.54
477.322	16.46
477.447	-5.54
477.572	5.46
477.697	7.46
477.821	7.46
477.946	9.46
478.071	13.46
478.196	35.46
478.321	-1.54
478.445	0.46
478.57	0.46
478.695	4.46
478.82	15.46
478.945	8.46
479.069	9.46
479.194	7.46
479.319	15.46
479.444	21.46
479.569	10.46
479.693	19.46
479.818	17.46
479.943	19.46
480.068	24.46
480.192	14.46
480.317	17.46
480.442	4.46
480.567	15.46
480.691	10.46
480.816	15.46
480.941	8.46
481.066	13.46
481.19	39.46
481.315	18.46
481.44	0.46
481.564	1.46
481.689	30.46
481.814	25.46
481.938	24.46
482.063	8.46
482.188	32.46
482.313	44.46
482.437	15.46
482.562	27.46
482.687	25.46
482.811	41.46
482.936	36.46
483.061	41.46
483.185	24.46
483.31	25.46
483.435	7.46
483.559	19.46
483.684	0.46
483.808	29.46
483.933	21.46
484.058	1.46
484.182	7.46
484.307	9.46
484.432	10.46
484.556	0.46
484.681	10.46
484.805	32.46
484.93	19.46
485.055	42.46
485.179	82.46
485.304	126.46
485.428	347.46
485.553	1252.46
485.678	1690.46
485.802	1595.46
485.927	1764.46
486.051	2625.46
486.176	1578.46
486.3	427.46
486.425	136.46
486.549	79.46
486.674	52.46
486.799	46.46
486.923	23.46
487.048	24.46
487.172	23.46
487.297	28.46
487.421	34.46
487.546	18.46
487.67	23.46
487.795	-0.54
487.919	2.46
488.044	30.46
488.168	26.46
488.293	11.46
488.417	0.46
488.542	11.46
488.666	10.46
488.791	22.46
488.915	18.46
489.04	9.46
489.164	21.46
489.289	31.46
489.413	34.46
489.538	10.46
489.662	12.46
489.786	22.46
489.911	17.46
490.035	2.46
490.16	3.46
490.284	20.46
490.409	-2.54
490.533	31.46
490.658	48.46
490.782	22.46
490.906	23.46
491.031	3.46
491.155	16.46
491.28	27.46
491.404	10.46
491.528	20.46
491.653	-1.54
491.777	14.46
491.902	12.46
492.026	20.46
492.15	13.46
492.275	39.46
492.399	25.46
492.524	23.46
492.648	33.46
492.772	19.46
492.897	32.46
493.021	-2.54
493.145	20.46
493.27	4.46
493.394	-3.54
493.518	0.46
493.643	-12.54
493.767	10.46
493.891	13.46
494.016	22.46
494.14	10.46
494.264	25.46
494.389	15.46
494.513	23.46
494.637	-0.54
494.762	20.46
494.886	19.46
495.01	12.46
495.134	11.46
495.259	24.46
495.383	14.46
495.507	16.46
495.632	33.46
495.756	43.46
495.88	3.46
496.004	16.46
496.129	-10.54
496.253	6.46
496.377	12.46
496.501	33.46
496.626	-9.54
496.75	12.46
496.874	28.46
496.998	10.46
497.123	26.46
497.247	6.46
497.371	-10.54
497.495	7.46
497.62	-0.54
497.744	9.46
497.868	6.46
497.992	13.46
498.116	-11.54
498.241	8.46
498.365	0.46
498.489	21.46
498.613	31.46
498.737	5.46
498.862	7.46
498.986	0.46
499.11	7.46
499.234	8.46
499.358	-0.54
499.482	5.46
499.607	11.46
499.731	14.46
499.855	16.46
499.979	18.46
500.103	10.46
500.227	14.46
500.351	27.46
500.476	15.46
500.6	-5.54
500.724	-1.54
500.848	6.46
500.972	14.46
501.096	36.46
501.22	32.46
501.344	13.46
501.469	24.46
501.593	14.46
501.717	15.46
501.841	24.46
501.965	22.46
502.089	6.46
502.213	28.46
502.337	-1.54
502.461	-6.54
502.585	-8.54
502.709	8.46
502.834	2.46
502.958	6.46
503.082	1.46
503.206	8.46
503.33	27.46
503.454	16.46
503.578	18.46
503.702	32.46
503.826	17.46
503.95	40.46
504.074	31.46
504.198	10.46
504.322	17.46
504.446	14.46
504.57	3.46
504.694	8.46
504.818	18.46
504.942	36.46
505.066	13.46
505.19	11.46
505.314	16.46
505.438	15.46
505.562	7.46
505.686	30.46
505.81	12.46
505.934	22.46
506.058	7.46
506.182	14.46
506.306	8.46
506.43	10.46
506.554	14.46
506.678	9.46
506.802	18.46
506.926	20.46
507.05	16.46
507.174	15.46
507.298	38.46
507.422	10.46
507.546	8.46
507.67	33.46
507.794	10.46
507.918	18.46
508.042	13.46
508.165	-5.54
508.289	2.46
508.413	4.46
508.537	11.46
508.661	17.46
508.785	27.46
508.909	22.46
509.033	-4.54
509.157	3.46
509.281	9.46
509.405	3.46
509.528	30.46
509.652	21.46
509.776	12.46
509.9	31.46
510.024	11.46
510.148	10.46
510.272	27.46
510.396	29.46
510.519	12.46
510.643	44.46
510.767	13.46
510.891	15.46
511.015	10.46
511.139	21.46
511.263	29.46
511.386	12.46
511.51	-6.54
511.634	-2.54
511.758	2.46
511.882	6.46
512.006	14.46
512.129	14.46
512.253	36.46
512.377	13.46
512.501	38.46
512.625	16.46
512.748	20.46
512.872	7.46
512.996	10.46
513.12	17.46
513.244	-2.54
513.367	-9.54
513.491	26.46
513.615	14.46
513.739	2.46
513.862	5.46
513.986	14.46
514.11	13.46
514.234	3.46
514.358	7.46
514.481	26.46
514.605	13.46
514.729	8.46
514.853	18.46
514.976	2.46
515.1	9.46
515.224	28.46
515.348	9.46
515.471	8.46
515.595	23.46
515.719	6.46
515.842	41.46
515.966	20.46
516.09	46.46
516.214	7.46
516.337	26.46
516.461	19.46
516.585	19.46
516.708	20.46
516.832	16.46
516.956	11.46
517.08	-4.54
517.203	11.46
517.327	4.46
517.451	35.46
517.574	30.46
517.698	-5.54
517.822	24.46
517.945	20.46
518.069	39.46
518.193	47.46
518.316	24.46
518.44	28.46
518.564	15.46
518.687	18.46
518.811	42.46
518.935	48.46
519.058	32.46
519.182	34.46
519.306	23.46
519.429	21.46
519.553	51.46
519.676	31.46
519.8	22.46
519.924	6.46
520.047	11.46
520.171	12.46
520.294	3.46
520.418	14.46
520.542	1.46
520.665	31.46
520.789	10.46
520.913	-5.54
521.036	-5.54
521.16	-17.54
521.283	6.46
521.407	15.46
521.53	-1.54
521.654	-10.54
521.778	30.46
521.901	25.46
522.025	12.46
522.148	-0.54
522.272	8.46
522.395	15.46
522.519	12.46
522.643	-4.54
522.766	9.46
522.89	6.46
523.013	22.46
523.137	-17.54
523.26	-1.54
523.384	6.46
523.507	5.46
523.631	12.46
523.754	1.46
523.878	6.46
524.002	25.46
524.125	10.46
524.249	-10.54
524.372	14.46
524.496	16.46
524.619	2.46
524.743	26.46
524.866	11.46
524.99	15.46
525.113	3.46
525.237	23.46
525.36	4.46
525.484	8.46
525.607	9.46
525.731	14.46
525.854	19.46
525.978	37.46
526.101	2.46
526.224	-5.54
526.348	5.46
526.471	13.46
526.595	22.46
526.718	4.46
526.842	11.46
526.965	7.46
527.089	18.46
527.212	14.46
527.336	-7.54
527.459	16.46
527.582	7.46
527.706	28.46
527.829	22.46
527.953	6.46
528.076	6.46
528.2	17.46
528.323	11.46
528.446	23.46
528.57	17.46
528.693	33.46
528.817	6.46
528.94	22.46
529.064	54.46
529.187	16.46
529.31	8.46
529.434	7.46
529.557	-7.54
529.68	-12.54
529.804	-1.54
529.927	15.46
530.051	10.46
530.174	-1.54
530.297	19.46
530.421	37.46
530.544	9.46
530.668	15.46
530.791	-2.54
530.914	6.46
531.038	23.46
531.161	-5.54
531.284	-2.54
531.408	20.46
531.531	3.46
531.654	-1.54
531.778	22.46
531.901	-3.54
532.024	4.46
532.148	0.46
532.271	6.46
532.394	16.46
532.518	28.46
532.641	28.46
532.764	25.46
532.888	32.46
533.011	-2.54
533.134	2.46
533.258	21.46
533.381	3.46
533.504	-8.54
533.628	-16.54
533.751	9.46
533.874	6.46
533.997	5.46
534.121	-1.54
534.244	1.46
534.367	4.46
534.491	9.46
534.614	18.46
534.737	33.46
534.86	22.46
534.984	3.46
535.107	4.46
535.23	5.46
535.354	11.46
535.477	-2.54
535.6	-6.54
535.723	15.46
535.847	12.46
535.97	-17.54
536.093	24.46
536.216	-16.54
536.34	15.46
536.463	-1.54
536.586	7.46
536.709	11.46
536.833	10.46
536.956	2.46
537.079	10.46
537.202	20.46
537.325	5.46
537.449	-9.54
537.572	27.46
537.695	15.46
537.818	17.46
537.941	-7.54
538.065	6.46
538.188	0.46
538.311	4.46
538.434	26.46
538.558	10.46
538.681	6.46
538.804	10.46
538.927	15.46
539.05	15.46
539.173	22.46
539.297	3.46
539.42	15.46
539.543	19.46
539.666	15.46
539.789	20.46
539.913	7.46
540.036	8.46
540.159	4.46
540.282	-3.54
540.405	-5.54
540.528	6.46
540.651	15.46
540.775	7.46
540.898	2.46
541.021	16.46
541.144	29.46
541.267	6.46
541.39	9.46
541.513	24.46
541.637	-6.54
541.76	0.46
541.883	15.46
542.006	23.46
542.129	29.46
542.252	1.46
542.375	16.46
542.498	11.46
542.622	16.46
542.745	27.46
542.868	10.46
542.991	9.46
543.114	-1.54
543.237	14.46
543.36	30.46
543.483	9.46
543.606	24.46
543.73	27.46
543.853	-0.54
543.976	7.46
544.099	26.46
544.222	18.46
544.345	-1.54
544.468	18.46
544.591	18.46
544.714	9.46
544.837	26.46
544.96	18.46
545.083	17.46
545.206	25.46
545.329	17.46
545.453	4.46
545.576	-4.54
545.699	28.46
545.822	22.46
545.945	37.46
546.068	6.46
546.191	13.46
546.314	17.46
546.437	27.46
546.56	-5.54
546.683	-1.54
546.806	7.46
546.929	19.46
547.052	0.46
547.175	13.46
547.298	23.46
547.421	0.46
547.544	6.46
547.667	15.46
547.79	19.46
547.913	8.46
548.036	-6.54
548.159	0.46
548.282	-5.54
548.405	2.46
548.528	15.46
548.651	29.46
548.774	-3.54
548.897	19.46
549.02	14.46
549.143	24.46
549.266	4.46
549.389	30.46
549.512	2.46
549.635	22.46
549.758	25.46
549.881	11.46
550.004	16.46
550.127	16.46
550.25	1.46
550.373	11.46
550.496	26.46
550.619	-1.54
550.742	10.46
550.865	4.46
550.988	8.46
551.111	2.46
551.234	10.46
551.356	3.46
551.479	-5.54
551.602	3.46
551.725	17.46
551.848	15.46
551.971	28.46
552.094	11.46
552.217	16.46
552.34	4.46
552.463	-7.54
552.586	12.46
552.709	0.46
552.832	-4.54
552.955	-0.54
553.077	21.46
553.2	20.46
553.323	-8.54
553.446	16.46
553.569	-12.54
553.692	7.46
553.815	-3.54
553.938	9.46
554.061	22.46
554.184	3.46
554.306	24.46
554.429	21.46
554.552	16.46
554.675	2.46
554.798	20.46
554.921	25.46
555.044	-3.54
555.167	-1.54
555.29	12.46
555.412	1.46
555.535	17.46
555.658	-1.54
555.781	3.46
555.904	12.46
556.027	14.46
556.15	6.46
556.272	-2.54
556.395	9.46
556.518	-0.54
556.641	8.46
556.764	17.46
556.887	7.46
557.01	-10.54
557.132	-10.54
557.255	16.46
557.378	10.46
557.501	7.46
557.624	22.46
557.747	11.46
557.869	9.46
557.992	22.46
558.115	19.46
558.238	-3.54
558.361	16.46
558.483	21.46
558.606	16.46
558.729	-1.54
558.852	25.46
558.975	21.46
559.098	18.46
559.22	19.46
559.343	5.46
559.466	5.46
559.589	7.46
559.712	13.46
559.834	2.46
559.957	-1.54
560.08	-3.54
560.203	42.46
560.325	18.46
560.448	27.46
560.571	14.46
560.694	18.46
560.817	18.46
560.939	11.46
561.062	9.46
561.185	18.46
561.308	9.46
561.43	-12.54
561.553	9.46
561.676	16.46
561.799	5.46
561.921	10.46
562.044	-3.54
562.167	-5.54
562.29	31.46
562.413	13.46
562.535	16.46
562.658	-7.54
562.781	5.46
562.903	10.46
563.026	28.46
563.149	39.46
563.272	18.46
563.394	11.46
563.517	5.46
563.64	-5.54
563.763	-4.54
563.885	1.46
564.008	25.46
564.131	26.46
564.254	-0.54
564.376	0.46
564.499	-1.54
564.622	8.46
564.744	1.46
564.867	-12.54
564.99	8.46
565.113	13.46
565.235	-6.54
565.358	2.46
565.481	-11.54
565.603	-1.54
565.726	-3.54
565.849	19.46
565.971	20.46
566.094	12.46
566.217	6.46
566.34	21.46
566.462	11.46
566.585	26.46
566.708	26.46
566.83	11.46
566.953	27.46
567.076	8.46
567.198	16.46
567.321	5.46
567.444	8.46
567.566	7.46
567.689	1.46
567.812	-5.54
567.934	10.46
568.057	23.46
568.18	17.46
568.302	1.46
568.425	17.46
568.548	5.46
568.67	12.46
568.793	18.46
568.916	25.46
569.038	10.46
569.161	6.46
569.283	-6.54
569.406	-3.54
569.529	6.46
569.651	-3.54
569.774	0.46
569.897	4.46
570.019	34.46
570.142	29.46
570.265	22.46
570.387	19.46
570.51	4.46
570.632	34.46
570.755	2.46
570.878	7.46
571	10.46
571.123	2.46
571.246	15.46
571.368	4.46
571.491	11.46
571.613	1.46
571.736	5.46
571.859	0.46
571.981	0.46
572.104	-3.54
572.226	2.46
572.349	-16.54
572.472	8.46
572.594	17.46
572.717	11.46
572.839	4.46
572.962	20.46
573.085	20.46
573.207	-2.54
573.33	15.46
573.452	13.46
573.575	15.46
573.697	2.46
573.82	1.46
573.943	-8.54
574.065	11.46
574.188	20.46
574.31	35.46
574.433	-3.54
574.555	30.46
574.678	9.46
574.801	30.46
574.923	11.46
575.046	-0.54
575.168	8.46
575.291	-0.54
575.413	13.46
575.536	7.46
575.659	22.46
575.781	9.46
575.904	9.46
576.026	-4.54
576.149	3.46
576.271	12.46
576.394	31.46
576.516	15.46
576.639	17.46
576.761	-4.54
576.884	9.46
577.007	19.46
577.129	16.46
577.252	7.46
577.374	28.46
577.497	11.46
577.619	-1.54
577.742	2.46
577.864	26.46
577.987	9.46
578.109	9.46
578.232	16.46
578.354	31.46
578.477	9.46
578.599	2.46
578.722	5.46
578.844	-6.54
578.967	18.46
579.089	-3.54
579.212	-6.54
579.334	12.46
579.457	6.46
579.579	14.46
579.702	-8.54
579.824	19.46
579.947	1.46
580.069	1.46
580.192	0.46
580.314	7.46
580.437	5.46
580.559	36.46
580.682	8.46
580.804	14.46
580.927	22.46
581.049	31.46
581.172	18.46
581.294	21.46
581.417	17.46
581.539	9.46
581.662	20.46
581.784	29.46
581.907	15.46
582.029	13.46
582.152	2.46
582.274	2.46
582.396	17.46
582.519	9.46
582.641	4.46
582.764	-5.54
582.886	21.46
583.009	2.46
583.131	5.46
583.254	3.46
583.376	13.46
583.499	4.46
583.621	17.46
583.743	30.46
583.866	18.46
583.988	12.46
584.111	15.46
584.233	28.46
584.356	15.46
584.478	4.46
584.601	-8.54
584.723	-1.54
584.845	15.46
584.968	18.46
585.09	-9.54
585.213	6.46
585.335	6.46
585.458	8.46
585.58	-3.54
585.702	19.46
585.825	18.46
585.947	19.46
586.07	7.46
586.192	14.46
586.315	8.46
586.437	2.46
586.559	4.46
586.682	-6.54
586.804	39.46
586.927	-5.54
587.049	11.46
587.171	9.46
587.294	14.46
587.416	13.46
587.539	16.46
587.661	0.46
587.783	-5.54
587.906	-1.54
588.028	28.46
588.151	13.46
588.273	31.46
588.395	17.46
588.518	-1.54
588.64	-5.54
588.763	18.46
588.885	20.46
589.007	16.46
589.13	16.46
589.252	-6.54
589.375	6.46
589.497	-6.54
589.619	12.46
589.742	7.46
589.864	20.46
589.986	6.46
590.109	19.46
590.231	20.46
590.354	17.46
590.476	-12.54
590.598	-5.54
590.721	-4.54
590.843	-1.54
590.965	5.46
591.088	9.46
591.21	1.46
591.332	18.46
591.455	-5.54
591.577	-8.54
591.7	2.46
591.822	14.46
591.944	15.46
592.067	2.46
592.189	5.46
592.311	3.46
592.434	-0.54
592.556	19.46
592.678	9.46
592.801	8.46
592.923	16.46
593.045	19.46
593.168	8.46
593.29	2.46
593.412	14.46
593.535	13.46
593.657	-3.54
593.779	10.46
593.902	16.46
594.024	13.46
594.146	29.46
594.269	24.46
594.391	-1.54
594.513	8.46
594.636	-9.54
594.758	-9.54
594.88	10.46
595.003	19.46
595.125	9.46
595.247	23.46
595.37	3.46
595.492	-0.54
595.614	27.46
595.737	3.46
595.859	32.46
595.981	15.46
596.104	5.46
596.226	6.46
596.348	9.46
596.471	-5.54
596.593	18.46
596.715	8.46
596.838	11.46
596.96	9.46
597.082	16.46
597.204	20.46
597.327	5.46
597.449	-3.54
597.571	17.46
597.694	23.46
597.816	14.46
597.938	11.46
598.061	0.46
598.183	4.46
598.305	25.46
598.427	-1.54
598.55	-3.54
598.672	11.46
598.794	28.46
598.917	14.46
599.039	8.46
599.161	0.46
599.283	3.46
599.406	12.46
599.528	13.46
599.65	47.46
599.773	11.46
599.895	40.46
600.017	21.46
600.139	6.46
600.262	-0.54
600.384	0.46
600.506	10.46
600.628	29.46
600.751	33.46
600.873	-5.54
600.995	-11.54
601.118	9.46
601.24	11.46
601.362	16.46
601.484	11.46
601.607	16.46
601.729	25.46
601.851	11.46
601.973	14.46
602.096	7.46
602.218	7.46
602.34	16.46
602.462	1.46
602.585	10.46
602.707	-9.54
602.829	23.46
602.951	16.46
603.074	3.46
603.196	3.46
603.318	-1.54
603.44	19.46
603.563	23.46
603.685	2.46
603.807	8.46
603.929	9.46
604.052	17.46
604.174	23.46
604.296	18.46
604.418	37.46
604.541	39.46
604.663	5.46
604.785	7.46
604.907	19.46
605.03	10.46
605.152	49.46
605.274	0.46
605.396	8.46
605.519	28.46
605.641	-4.54
605.763	8.46
605.885	5.46
606.008	16.46
606.13	11.46
606.252	13.46
606.374	-7.54
606.496	-2.54
606.619	0.46
606.741	22.46
606.863	19.46
606.985	25.46
607.108	14.46
607.23	17.46
607.352	0.46
607.474	4.46
607.596	18.46
607.719	15.46
607.841	19.46
607.963	2.46
608.085	-3.54
608.207	32.46
608.33	25.46
608.452	14.46
608.574	-5.54
608.696	36.46
608.819	16.46
608.941	5.46
609.063	7.46
609.185	10.46
609.307	10.46
609.43	23.46
609.552	3.46
609.674	-13.54
609.796	12.46
609.918	29.46
610.041	-3.54
610.163	8.46
610.285	9.46
610.407	18.46
610.529	-0.54
610.652	10.46
610.774	4.46
610.896	4.46
611.018	14.46
611.14	3.46
611.263	6.46
611.385	-10.54
611.507	16.46
611.629	14.46
611.751	28.46
611.873	47.46
611.996	6.46
612.118	24.46
612.24	-8.54
612.362	7.46
612.484	29.46
612.607	25.46
612.729	33.46
612.851	29.46
612.973	20.46
613.095	8.46
613.218	8.46
613.34	25.46
613.462	10.46
613.584	24.46
613.706	3.46
613.828	20.46
613.951	8.46
614.073	4.46
614.195	-7.54
614.317	28.46
614.439	16.46
614.561	8.46
614.684	15.46
614.806	15.46
614.928	-9.54
615.05	8.46
615.172	21.46
615.294	13.46
615.417	8.46
615.539	3.46
615.661	15.46
615.783	17.46
615.905	15.46
616.027	59.46
616.15	113.46
616.272	86.46
616.394	44.46
616.516	32.46
616.638	23.46
616.76	4.46
616.883	15.46
617.005	8.46
617.127	2.46
617.249	8.46
617.371	11.46
617.493	12.46
617.615	17.46
617.738	4.46
617.86	9.46
617.982	23.46
618.104	-0.54
618.226	-5.54
618.348	-4.54
618.471	27.46
618.593	13.46
618.715	16.46
618.837	11.46
618.959	20.46
619.081	25.46
619.203	14.46
619.326	10.46
619.448	18.46
619.57	20.46
619.692	13.46
619.814	22.46
619.936	18.46
620.058	14.46
620.181	4.46
620.303	9.46
620.425	10.46
620.547	9.46
620.669	10.46
620.791	6.46
620.913	16.46
621.036	-2.54
621.158	18.46
621.28	20.46
621.402	-4.54
621.524	4.46
621.646	4.46
621.768	16.46
621.891	-14.54
622.013	11.46
622.135	-1.54
622.257	14.46
622.379	7.46
622.501	15.46
622.623	-5.54
622.745	2.46
622.868	20.46
622.99	14.46
623.112	8.46
623.234	-0.54
623.356	4.46
623.478	3.46
623.6	9.46
623.722	-1.54
623.845	8.46
623.967	5.46
624.089	21.46
624.211	7.46
624.333	14.46
624.455	-0.54
624.577	4.46
624.699	15.46
624.822	20.46
624.944	-3.54
625.066	2.46
625.188	-9.54
625.31	20.46
625.432	35.46
625.554	13.46
625.676	38.46
625.799	-8.54
625.921	1.46
626.043	23.46
626.165	11.46
626.287	-11.54
626.409	4.46
626.531	1.46
626.653	5.46
626.775	4.46
626.898	8.46
627.02	4.46
627.142	7.46
627.264	-17.54
627.386	9.46
627.508	23.46
627.63	4.46
627.752	4.46
627.874	10.46
627.997	22.46
628.119	20.46
628.241	14.46
628.363	24.46
628.485	3.46
628.607	7.46
628.729	4.46
628.851	10.46
628.973	12.46
629.096	0.46
629.218	7.46
629.34	11.46
629.462	-4.54
629.584	-1.54
629.706	-4.54
629.828	-0.54
629.95	13.46
630.072	-5.54
630.195	5.46
630.317	9.46
630.439	11.46
630.561	24.46
630.683	4.46
630.805	16.46
630.927	9.46
631.049	6.46
631.171	-16.54
631.293	9.46
631.416	2.46
631.538	2.46
631.66	4.46
631.782	22.46
631.904	23.46
632.026	-2.54
632.148	13.46
632.27	10.46
632.392	2.46
632.514	16.46
632.637	25.46
632.759	4.46
632.881	-5.54
633.003	-4.54
633.125	-11.54
633.247	0.46
633.369	6.46
633.491	22.46
633.613	29.46
633.735	5.46
633.858	23.46
633.98	26.46
634.102	-2.54
634.224	10.46
634.346	9.46
634.468	6.46
634.59	15.46
634.712	2.46
634.834	10.46
634.956	0.46
635.078	3.46
635.201	-6.54
635.323	11.46
635.445	0.46
635.567	-10.54
635.689	11.46
635.811	19.46
635.933	-3.54
636.055	3.46
636.177	-1.54
636.299	16.46
636.421	22.46
636.544	10.46
636.666	7.46
636.788	32.46
636.91	13.46
637.032	1.46
637.154	13.46
637.276	51.46
637.398	27.46
637.52	10.46
637.642	-0.54
637.764	18.46
637.887	20.46
638.009	15.46
638.131	6.46
638.253	-10.54
638.375	6.46
638.497	18.46
638.619	-9.54
638.741	4.46
638.863	-10.54
638.985	5.46
639.107	11.46
639.23	3.46
639.352	16.46
639.474	7.46
639.596	3.46
639.718	-9.54
639.84	-0.54
639.962	-0.54
640.084	0.46
640.206	11.46
640.328	2.46
640.45	0.46
640.573	-2.54
640.695	1.46
640.817	9.46
640.939	14.46
641.061	4.46
641.183	2.46
641.305	5.46
641.427	19.46
641.549	0.46
641.671	6.46
641.793	3.46
641.915	17.46
642.038	10.46
642.16	12.46
642.282	16.46
642.404	2.46
642.526	18.46
642.648	4.46
642.77	12.46
642.892	-9.54
643.014	24.46
643.136	8.46
643.258	-7.54
643.381	11.46
643.503	16.46
643.625	-1.54
643.747	-11.54
643.869	6.46
643.991	2.46
644.113	15.46
644.235	14.46
644.357	15.46
644.479	32.46
644.601	-3.54
644.723	-16.54
644.846	-9.54
644.968	-13.54
645.09	5.46
645.212	-9.54
645.334	8.46
645.456	11.46
645.578	23.46
645.7	2.46
645.822	15.46
645.944	3.46
646.066	1.46
646.188	-13.54
646.311	33.46
646.433	4.46
646.555	46.46
646.677	36.46
646.799	31.46
646.921	15.46
647.043	29.46
647.165	2.46
647.287	11.46
647.409	-17.54
647.531	14.46
647.654	-4.54
647.776	15.46
647.898	22.46
648.02	9.46
648.142	0.46
648.264	-15.54
648.386	-1.54
648.508	-0.54
648.63	-13.54
648.752	7.46
648.874	-10.54
648.997	22.46
649.119	20.46
649.241	-1.54
649.363	20.46
649.485	15.46
649.607	6.46
649.729	-7.54
649.851	5.46
649.973	0.46
650.095	10.46
650.217	-7.54
650.34	-1.54
650.462	23.46
650.584	-10.54
650.706	11.46
650.828	16.46
650.95	0.46
651.072	12.46
651.194	-9.54
651.316	-7.54
651.438	17.46
651.56	-3.54
651.683	4.46
651.805	-3.54
651.927	19.46
652.049	-5.54
652.171	2.46
652.293	7.46
652.415	-0.54
652.537	-7.54
652.659	-11.54
652.781	11.46
652.903	22.46
653.026	24.46
653.148	19.46
653.27	26.46
653.392	8.46
653.514	-11.54
653.636	14.46
653.758	16.46
653.88	-11.54
654.002	28.46
654.124	16.46
654.247	1.46
654.369	23.46
654.491	20.46
654.613	11.46
654.735	5.46
654.857	13.46
654.979	8.46
655.101	19.46
655.223	34.46
655.345	33.46
655.468	33.46
655.59	36.46
655.712	23.46
655.834	18.46
655.956	36.46
656.078	43.46
656.2	37.46
656.322	35.46
656.444	19.46
656.566	54.46
656.689	46.46
656.811	54.46
656.933	88.46
657.055	95.46
657.177	154.46
657.299	242.46
657.421	458.46
657.543	1857.46
657.665	12435.46
657.787	15150.46
657.91	15215.46
658.032	15661.46
658.154	4617.46
658.276	3243.46
658.398	1125.46
658.52	996.46
658.642	457.46
658.764	586.46
658.886	263.46
659.009	391.46
659.131	207.46
659.253	314.46
659.375	158.46
659.497	241.46
659.619	126.46
659.741	203.46
659.863	94.46
659.985	172.46
660.108	78.46
660.23	116.46
660.352	63.46
660.474	137.46
660.596	66.46
660.718	140.46
660.84	57.46
660.962	128.46
661.084	37.46
661.207	100.46
661.329	47.46
661.451	106.46
661.573	55.46
661.695	108.46
661.817	50.46
661.939	96.46
662.061	54.46
662.184	59.46
662.306	35.46
662.428	75.46
662.55	52.46
662.672	76.46
662.794	38.46
662.916	67.46
663.038	27.46
663.161	77.46
663.283	36.46
663.405	72.46
663.527	22.46
663.649	68.46
663.771	35.46
663.893	67.46
664.015	26.46
664.138	33.46
664.26	21.46
664.382	66.46
664.504	3.46
664.626	23.46
664.748	36.46
664.87	52.46
664.992	28.46
665.115	48.46
665.237	27.46
665.359	20.46
665.481	17.46
665.603	47.46
665.725	17.46
665.847	15.46
665.97	8.46
666.092	47.46
666.214	42.46
666.336	48.46
666.458	21.46
666.58	36.46
666.702	3.46
666.825	37.46
666.947	13.46
667.069	32.46
667.191	23.46
667.313	40.46
667.435	2.46
667.557	19.46
667.68	2.46
667.802	26.46
667.924	4.46
668.046	40.46
668.168	30.46
668.29	59.46
668.412	26.46
668.535	32.46
668.657	11.46
668.779	21.46
668.901	-1.54
669.023	42.46
669.145	2.46
669.267	40.46
669.39	28.46
669.512	42.46
669.634	26.46
669.756	30.46
669.878	12.46
670	20.46
670.123	14.46
670.245	11.46
670.367	3.46
670.489	14.46
670.611	-10.54
670.733	15.46
670.856	6.46
670.978	28.46
671.1	10.46
671.222	28.46
671.344	4.46
671.466	1.46
671.589	3.46
671.711	24.46
671.833	-0.54
671.955	21.46
672.077	7.46
672.199	23.46
672.322	9.46
672.444	32.46
672.566	39.46
672.688	18.46
672.81	11.46
672.932	28.46
673.055	23.46
673.177	30.46
673.299	11.46
673.421	14.46
673.543	-4.54
673.665	48.46
673.788	2.46
673.91	-0.54
674.032	-12.54
674.154	18.46
674.276	25.46
674.399	15.46
674.521	-0.54
674.643	19.46
674.765	0.46
674.887	23.46
675.009	2.46
675.132	9.46
675.254	9.46
675.376	11.46
675.498	15.46
675.62	17.46
675.743	-0.54
675.865	38.46
675.987	-1.54
676.109	19.46
676.231	7.46
676.354	31.46
676.476	9.46
676.598	20.46
676.72	14.46
676.842	19.46
676.965	2.46
677.087	18.46
677.209	19.46
677.331	19.46
677.453	11.46
677.576	15.46
677.698	5.46
677.82	10.46
677.942	6.46
678.064	19.46
678.187	15.46
678.309	6.46
678.431	2.46
678.553	15.46
678.675	36.46
678.798	39.46
678.92	18.46
679.042	2.46
679.164	-3.54
679.286	28.46
679.409	2.46
679.531	18.46
679.653	2.46
679.775	24.46
679.898	14.46
680.02	9.46
680.142	-2.54
680.264	14.46
680.386	-14.54
680.509	26.46
680.631	21.46
680.753	29.46
680.875	-1.54
680.998	17.46
681.12	4.46
681.242	15.46
681.364	-4.54
681.486	14.46
681.609	3.46
681.731	-0.54
681.853	-7.54
681.975	-3.54
682.098	23.46
682.22	42.46
682.342	2.46
682.464	24.46
682.587	17.46
682.709	8.46
682.831	-16.54
682.953	-3.54
683.076	-0.54
683.198	21.46
683.32	11.46
683.442	16.46
683.565	-4.54
683.687	12.46
683.809	0.46
683.931	-5.54
684.054	-1.54
684.176	6.46
684.298	4.46
684.42	18.46
684.543	8.46
684.665	15.46
684.787	0.46
684.909	-0.54
685.032	8.46
685.154	0.46
685.276	-4.54
685.398	11.46
685.521	-12.54
685.643	5.46
685.765	14.46
685.887	14.46
686.01	5.46
686.132	26.46
686.254	4.46
686.377	12.46
686.499	9.46
686.621	20.46
686.743	33.46
686.866	18.46
686.988	36.46
687.11	44.46
687.232	6.46
687.355	-0.54
687.477	19.46
687.599	15.46
687.722	-2.54
687.844	2.46
687.966	9.46
688.088	15.46
688.211	7.46
688.333	8.46
688.455	-12.54
688.578	17.46
688.7	34.46
688.822	29.46
688.944	-5.54
689.067	48.46
689.189	7.46
689.311	5.46
689.434	5.46
689.556	6.46
689.678	19.46
689.801	14.46
689.923	4.46
690.045	18.46
690.167	31.46
690.29	31.46
690.412	2.46
690.534	34.46
690.657	-0.54
690.779	2.46
690.901	8.46
691.024	5.46
691.146	8.46
691.268	-1.54
691.391	18.46
691.513	14.46
691.635	26.46
691.758	7.46
691.88	15.46
692.002	4.46
692.125	10.46
692.247	9.46
692.369	2.46
692.492	9.46
692.614	0.46
692.736	5.46
692.859	0.46
692.981	8.46
693.103	-2.54
693.226	15.46
693.348	20.46
693.47	1.46
693.593	3.46
693.715	3.46
693.837	1.46
693.96	-0.54
694.082	-7.54
694.204	35.46
694.327	7.46
694.449	7.46
694.571	10.46
694.694	14.46
694.816	11.46
694.938	7.46
695.061	-2.54
695.183	17.46
695.305	0.46
695.428	19.46
695.55	1.46
695.672	-1.54
695.795	38.46
695.917	21.46
696.04	-0.54
696.162	2.46
696.284	9.46
696.407	11.46
696.529	12.46
696.651	26.46
696.774	-17.54
696.896	21.46
697.019	20.46
697.141	7.46
697.263	-5.54
697.386	-5.54
697.508	14.46
697.63	31.46
697.753	23.46
697.875	28.46
697.998	3.46
698.12	26.46
698.242	25.46
698.365	19.46
698.487	7.46
698.61	14.46
698.732	-0.54
698.854	20.46
698.977	-0.54
699.099	27.46
699.221	-8.54
699.344	-4.54
699.466	9.46
699.589	6.46
699.711	-12.54
699.834	8.46
699.956	0.46
700.078	0.46
700.201	8.46
700.323	22.46
700.446	1.46
700.568	14.46
700.69	8.46
700.813	9.46
700.935	22.46
701.058	2.46
701.18	3.46
701.302	11.46
701.425	-1.54
701.547	23.46
701.67	4.46
701.792	22.46
701.915	0.46
702.037	6.46
702.159	9.46
702.282	9.46
702.404	15.46
702.527	20.46
702.649	24.46
702.772	11.46
702.894	6.46
703.017	15.46
703.139	10.46
703.261	13.46
703.384	0.46
703.506	-19.54
703.629	4.46
703.751	4.46
703.874	15.46
703.996	9.46
704.119	8.46
704.241	1.46
704.364	-3.54
704.486	20.46
704.608	12.46
704.731	15.46
704.853	7.46
704.976	-6.54
705.098	7.46
705.221	28.46
705.343	12.46
705.466	19.46
705.588	14.46
705.711	10.46
705.833	8.46
705.956	16.46
706.078	0.46
706.201	22.46
706.323	11.46
706.446	8.46
