Data from LowRes_H2_15_26_11_07_2024_HR4C61881__69__15-28-20-536.txt Node

Date: Thu Nov 07 15:28:20 EST 2024
User: crc00042
Spectrometer: HR4C6188
Trigger mode: 4
Integration Time (sec): 1.000000E-1
Scans to average: 1
Electric dark correction enabled: true
Nonlinearity correction enabled: false
Boxcar width: 0
XAxis mode: Wavelengths
Number of Pixels in Spectrum: 3648
>>>>>Begin Spectral Data<<<<<
245.66	-91.69
245.797	-91.69
245.934	-91.69
246.071	-74.69
246.208	18.31
246.344	3.31
246.481	-3.69
246.618	-17.69
246.755	7.31
246.892	-3.69
247.029	-5.69
247.165	-10.69
247.302	5.31
247.439	1.31
247.576	13.31
247.713	0.31
247.849	24.31
247.986	-13.69
248.123	2.31
248.26	-8.69
248.396	15.31
248.533	8.31
248.67	-8.69
248.806	8.31
248.943	-8.69
249.08	6.31
249.216	10.31
249.353	-20.69
249.49	8.31
249.626	0.31
249.763	6.31
249.9	-4.69
250.036	-0.69
250.173	14.31
250.309	8.31
250.446	18.31
250.582	3.31
250.719	-10.69
250.856	8.31
250.992	11.31
251.129	1.31
251.265	-15.69
251.402	-14.69
251.538	-3.69
251.675	1.31
251.811	-8.69
251.948	10.31
252.084	7.31
252.221	5.31
252.357	-15.69
252.493	32.31
252.63	-7.69
252.766	11.31
252.903	6.31
253.039	2.31
253.175	24.31
253.312	-6.69
253.448	-9.69
253.585	-18.69
253.721	7.31
253.857	5.31
253.994	3.31
254.13	10.31
254.266	0.31
254.403	16.31
254.539	14.31
254.675	32.31
254.811	14.31
254.948	-9.69
255.084	-12.69
255.22	-4.69
255.356	-10.69
255.493	8.31
255.629	2.31
255.765	-3.69
255.901	18.31
256.037	10.31
256.174	31.31
256.31	8.31
256.446	-0.69
256.582	1.31
256.718	20.31
256.854	16.31
256.991	17.31
257.127	14.31
257.263	5.31
257.399	6.31
257.535	1.31
257.671	7.31
257.807	-14.69
257.943	-17.69
258.079	-16.69
258.215	5.31
258.351	19.31
258.487	5.31
258.623	19.31
258.759	3.31
258.895	-0.69
259.031	-10.69
259.167	-17.69
259.303	26.31
259.439	12.31
259.575	2.31
259.711	-9.69
259.847	-7.69
259.983	7.31
260.119	5.31
260.255	-12.69
260.391	3.31
260.527	5.31
260.663	10.31
260.799	5.31
260.934	14.31
261.07	-8.69
261.206	-34.69
261.342	-36.69
261.478	7.31
261.614	19.31
261.749	8.31
261.885	4.31
262.021	5.31
262.157	20.31
262.293	-4.69
262.428	1.31
262.564	10.31
262.7	8.31
262.836	4.31
262.971	12.31
263.107	7.31
263.243	12.31
263.378	17.31
263.514	-8.69
263.65	-6.69
263.785	-6.69
263.921	1.31
264.057	11.31
264.192	-9.69
264.328	32.31
264.464	-3.69
264.599	13.31
264.735	35.31
264.871	6.31
265.006	21.31
265.142	4.31
265.277	13.31
265.413	20.31
265.548	4.31
265.684	23.31
265.819	3.31
265.955	-14.69
266.091	-8.69
266.226	-19.69
266.362	-4.69
266.497	-8.69
266.633	-4.69
266.768	-1.69
266.903	15.31
267.039	24.31
267.174	16.31
267.31	-0.69
267.445	-8.69
267.581	-7.69
267.716	5.31
267.851	19.31
267.987	8.31
268.122	14.31
268.258	-7.69
268.393	-2.69
268.528	3.31
268.664	-17.69
268.799	-28.69
268.934	6.31
269.07	15.31
269.205	19.31
269.34	19.31
269.476	-5.69
269.611	-2.69
269.746	14.31
269.881	-0.69
270.017	16.31
270.152	6.31
270.287	5.31
270.422	11.31
270.558	1.31
270.693	6.31
270.828	-7.69
270.963	-10.69
271.098	-1.69
271.234	-6.69
271.369	7.31
271.504	19.31
271.639	-20.69
271.774	-10.69
271.909	10.31
272.045	-9.69
272.18	10.31
272.315	8.31
272.45	33.31
272.585	-7.69
272.72	-8.69
272.855	-0.69
272.99	14.31
273.125	-1.69
273.26	-3.69
273.395	-2.69
273.53	4.31
273.665	2.31
273.8	25.31
273.935	18.31
274.07	-3.69
274.205	14.31
274.34	8.31
274.475	7.31
274.61	17.31
274.745	6.31
274.88	17.31
275.015	5.31
275.15	-7.69
275.285	18.31
275.42	7.31
275.555	27.31
275.69	22.31
275.825	-13.69
275.959	23.31
276.094	8.31
276.229	-4.69
276.364	-8.69
276.499	-5.69
276.634	-10.69
276.768	-7.69
276.903	5.31
277.038	13.31
277.173	-5.69
277.308	-5.69
277.442	1.31
277.577	-2.69
277.712	6.31
277.847	7.31
277.981	11.31
278.116	-19.69
278.251	0.31
278.386	-0.69
278.52	10.31
278.655	1.31
278.79	22.31
278.924	-6.69
279.059	9.31
279.194	-12.69
279.328	36.31
279.463	3.31
279.598	34.31
279.732	30.31
279.867	9.31
280.001	15.31
280.136	-0.69
280.271	0.31
280.405	7.31
280.54	18.31
280.674	-1.69
280.809	6.31
280.943	20.31
281.078	-0.69
281.213	25.31
281.347	22.31
281.482	15.31
281.616	-9.69
281.751	0.31
281.885	-2.69
282.02	4.31
282.154	-2.69
282.288	-16.69
282.423	-21.69
282.557	-17.69
282.692	4.31
282.826	-7.69
282.961	24.31
283.095	-3.69
283.229	-16.69
283.364	-17.69
283.498	11.31
283.633	12.31
283.767	24.31
283.901	6.31
284.036	4.31
284.17	-7.69
284.304	-14.69
284.439	14.31
284.573	3.31
284.707	35.31
284.842	7.31
284.976	-1.69
285.11	-16.69
285.244	18.31
285.379	41.31
285.513	-14.69
285.647	10.31
285.781	8.31
285.916	22.31
286.05	6.31
286.184	35.31
286.318	17.31
286.453	-1.69
286.587	-19.69
286.721	1.31
286.855	3.31
286.989	10.31
287.123	5.31
287.258	-23.69
287.392	-10.69
287.526	28.31
287.66	-10.69
287.794	-6.69
287.928	-21.69
288.062	-8.69
288.196	-2.69
288.33	19.31
288.464	25.31
288.598	12.31
288.733	17.31
288.867	21.31
289.001	1.31
289.135	-7.69
289.269	-8.69
289.403	7.31
289.537	9.31
289.671	16.31
289.805	-4.69
289.939	8.31
290.073	-1.69
290.207	23.31
290.34	-10.69
290.474	20.31
290.608	28.31
290.742	9.31
290.876	11.31
291.01	14.31
291.144	13.31
291.278	6.31
291.412	14.31
291.546	-9.69
291.679	-26.69
291.813	1.31
291.947	27.31
292.081	8.31
292.215	20.31
292.349	21.31
292.482	23.31
292.616	11.31
292.75	3.31
292.884	4.31
293.018	6.31
293.151	-27.69
293.285	3.31
293.419	-8.69
293.553	-0.69
293.686	-7.69
293.82	2.31
293.954	26.31
294.088	27.31
294.221	-2.69
294.355	3.31
294.489	2.31
294.622	-15.69
294.756	-6.69
294.89	20.31
295.023	22.31
295.157	28.31
295.291	5.31
295.424	13.31
295.558	8.31
295.691	8.31
295.825	14.31
295.959	21.31
296.092	16.31
296.226	-0.69
296.359	12.31
296.493	8.31
296.627	-0.69
296.76	8.31
296.894	5.31
297.027	15.31
297.161	12.31
297.294	-19.69
297.428	-6.69
297.561	29.31
297.695	2.31
297.828	-5.69
297.962	-2.69
298.095	-18.69
298.229	-4.69
298.362	-11.69
298.495	-26.69
298.629	-10.69
298.762	-8.69
298.896	-9.69
299.029	-8.69
299.162	-6.69
299.296	3.31
299.429	-2.69
299.563	9.31
299.696	18.31
299.829	15.31
299.963	29.31
300.096	11.31
300.229	9.31
300.363	12.31
300.496	18.31
300.629	-16.69
300.763	-4.69
300.896	-6.69
301.029	-0.69
301.162	2.31
301.296	-4.69
301.429	-1.69
301.562	-8.69
301.695	11.31
301.829	14.31
301.962	16.31
302.095	-10.69
302.228	-9.69
302.362	1.31
302.495	-29.69
302.628	12.31
302.761	10.31
302.894	9.31
303.027	15.31
303.161	-0.69
303.294	-0.69
303.427	27.31
303.56	6.31
303.693	-15.69
303.826	13.31
303.959	5.31
304.092	4.31
304.225	-2.69
304.359	3.31
304.492	-0.69
304.625	-3.69
304.758	5.31
304.891	-19.69
305.024	3.31
305.157	1.31
305.29	6.31
305.423	8.31
305.556	11.31
305.689	28.31
305.822	-4.69
305.955	13.31
306.088	2.31
306.221	7.31
306.354	-12.69
306.487	-13.69
306.62	-2.69
306.752	1.31
306.885	16.31
307.018	5.31
307.151	5.31
307.284	11.31
307.417	-4.69
307.55	13.31
307.683	7.31
307.816	27.31
307.948	19.31
308.081	7.31
308.214	19.31
308.347	23.31
308.48	-3.69
308.613	-0.69
308.745	10.31
308.878	-0.69
309.011	9.31
309.144	6.31
309.277	4.31
309.409	-2.69
309.542	-8.69
309.675	19.31
309.808	15.31
309.94	6.31
310.073	-10.69
310.206	-9.69
310.339	26.31
310.471	-10.69
310.604	13.31
310.737	-9.69
310.869	11.31
311.002	2.31
311.135	-3.69
311.267	-1.69
311.4	-4.69
311.533	28.31
311.665	-6.69
311.798	12.31
311.93	-7.69
312.063	26.31
312.196	-10.69
312.328	1.31
312.461	6.31
312.593	12.31
312.726	4.31
312.859	-6.69
312.991	-15.69
313.124	-32.69
313.256	8.31
313.389	14.31
313.521	-3.69
313.654	12.31
313.786	-4.69
313.919	1.31
314.051	7.31
314.184	-0.69
314.316	8.31
314.449	-17.69
314.581	1.31
314.714	18.31
314.846	11.31
314.978	-5.69
315.111	-5.69
315.243	4.31
315.376	13.31
315.508	25.31
315.641	10.31
315.773	11.31
315.905	9.31
316.038	5.31
316.17	14.31
316.302	12.31
316.435	-1.69
316.567	9.31
316.699	33.31
316.832	-0.69
316.964	-12.69
317.096	5.31
317.229	3.31
317.361	-29.69
317.493	-2.69
317.625	-13.69
317.758	19.31
317.89	19.31
318.022	14.31
318.155	-3.69
318.287	5.31
318.419	13.31
318.551	-5.69
318.683	-11.69
318.816	-2.69
318.948	-11.69
319.08	-5.69
319.212	-6.69
319.344	-2.69
319.477	-7.69
319.609	-19.69
319.741	6.31
319.873	1.31
320.005	-6.69
320.137	-5.69
320.269	-10.69
320.401	6.31
320.534	10.31
320.666	-11.69
320.798	-19.69
320.93	-7.69
321.062	-4.69
321.194	-0.69
321.326	0.31
321.458	17.31
321.59	-3.69
321.722	-8.69
321.854	-1.69
321.986	12.31
322.118	18.31
322.25	-1.69
322.382	6.31
322.514	-6.69
322.646	-4.69
322.778	11.31
322.91	-8.69
323.042	7.31
323.174	3.31
323.306	-7.69
323.438	-23.69
323.57	6.31
323.702	9.31
323.834	-17.69
323.966	-3.69
324.097	8.31
324.229	13.31
324.361	9.31
324.493	2.31
324.625	-12.69
324.757	2.31
324.889	7.31
325.021	20.31
325.152	19.31
325.284	26.31
325.416	14.31
325.548	13.31
325.68	-9.69
325.811	25.31
325.943	8.31
326.075	-18.69
326.207	7.31
326.339	15.31
326.47	-5.69
326.602	3.31
326.734	16.31
326.866	32.31
326.997	-18.69
327.129	-5.69
327.261	-14.69
327.392	10.31
327.524	7.31
327.656	-1.69
327.787	-4.69
327.919	4.31
328.051	16.31
328.182	3.31
328.314	15.31
328.446	0.31
328.577	9.31
328.709	11.31
328.841	1.31
328.972	-1.69
329.104	-28.69
329.235	-9.69
329.367	-6.69
329.499	-0.69
329.63	7.31
329.762	5.31
329.893	10.31
330.025	29.31
330.156	-9.69
330.288	-6.69
330.419	-4.69
330.551	7.31
330.683	5.31
330.814	-3.69
330.946	19.31
331.077	-8.69
331.208	-4.69
331.34	-5.69
331.471	-17.69
331.603	16.31
331.734	-17.69
331.866	12.31
331.997	-4.69
332.129	-23.69
332.26	-0.69
332.392	29.31
332.523	10.31
332.654	-9.69
332.786	-9.69
332.917	-4.69
333.048	28.31
333.18	14.31
333.311	-13.69
333.443	9.31
333.574	-14.69
333.705	5.31
333.837	-15.69
333.968	-1.69
334.099	23.31
334.231	31.31
334.362	-6.69
334.493	12.31
334.624	14.31
334.756	21.31
334.887	15.31
335.018	22.31
335.15	3.31
335.281	11.31
335.412	11.31
335.543	3.31
335.675	4.31
335.806	10.31
335.937	8.31
336.068	8.31
336.199	23.31
336.331	-0.69
336.462	-2.69
336.593	21.31
336.724	12.31
336.855	18.31
336.986	13.31
337.118	13.31
337.249	5.31
337.38	8.31
337.511	-6.69
337.642	0.31
337.773	2.31
337.904	23.31
338.035	11.31
338.166	2.31
338.298	24.31
338.429	-1.69
338.56	25.31
338.691	-3.69
338.822	15.31
338.953	-3.69
339.084	19.31
339.215	24.31
339.346	12.31
339.477	5.31
339.608	-1.69
339.739	8.31
339.87	18.31
340.001	-11.69
340.132	13.31
340.263	1.31
340.394	21.31
340.525	6.31
340.656	-2.69
340.787	-6.69
340.918	26.31
341.049	26.31
341.179	2.31
341.31	-5.69
341.441	12.31
341.572	19.31
341.703	9.31
341.834	-3.69
341.965	16.31
342.096	2.31
342.227	-1.69
342.357	-1.69
342.488	-6.69
342.619	16.31
342.75	25.31
342.881	-12.69
343.012	19.31
343.142	17.31
343.273	-1.69
343.404	18.31
343.535	40.31
343.666	11.31
343.796	23.31
343.927	26.31
344.058	15.31
344.189	-6.69
344.319	17.31
344.45	-4.69
344.581	14.31
344.712	-6.69
344.842	-1.69
344.973	-4.69
345.104	7.31
345.234	6.31
345.365	4.31
345.496	-2.69
345.626	8.31
345.757	25.31
345.888	-10.69
346.018	-6.69
346.149	-1.69
346.28	32.31
346.41	-5.69
346.541	20.31
346.672	14.31
346.802	23.31
346.933	10.31
347.063	8.31
347.194	7.31
347.325	-7.69
347.455	19.31
347.586	0.31
347.716	-11.69
347.847	17.31
347.977	12.31
348.108	25.31
348.238	15.31
348.369	3.31
348.499	-0.69
348.63	7.31
348.76	7.31
348.891	-8.69
349.021	11.31
349.152	2.31
349.282	-2.69
349.413	2.31
349.543	13.31
349.674	13.31
349.804	-10.69
349.935	-6.69
350.065	-0.69
350.196	3.31
350.326	11.31
350.456	-4.69
350.587	24.31
350.717	3.31
350.848	1.31
350.978	25.31
351.108	-4.69
351.239	10.31
351.369	1.31
351.499	2.31
351.63	26.31
351.76	14.31
351.89	9.31
352.021	20.31
352.151	-7.69
352.281	6.31
352.412	9.31
352.542	2.31
352.672	10.31
352.803	-16.69
352.933	4.31
353.063	6.31
353.193	8.31
353.324	18.31
353.454	-1.69
353.584	25.31
353.714	3.31
353.845	16.31
353.975	2.31
354.105	-1.69
354.235	4.31
354.365	-5.69
354.496	14.31
354.626	10.31
354.756	-3.69
354.886	0.31
355.016	15.31
355.146	-5.69
355.277	13.31
355.407	-4.69
355.537	8.31
355.667	6.31
355.797	24.31
355.927	2.31
356.057	16.31
356.187	7.31
356.318	-2.69
356.448	1.31
356.578	12.31
356.708	19.31
356.838	0.31
356.968	-1.69
357.098	3.31
357.228	32.31
357.358	-12.69
357.488	-5.69
357.618	10.31
357.748	31.31
357.878	8.31
358.008	19.31
358.138	-13.69
358.268	-3.69
358.398	21.31
358.528	-10.69
358.658	-1.69
358.788	1.31
358.918	8.31
359.048	-4.69
359.178	14.31
359.308	14.31
359.438	2.31
359.568	13.31
359.698	-5.69
359.827	3.31
359.957	8.31
360.087	3.31
360.217	-2.69
360.347	15.31
360.477	39.31
360.607	13.31
360.737	26.31
360.866	15.31
360.996	-13.69
361.126	-1.69
361.256	28.31
361.386	24.31
361.516	30.31
361.645	-2.69
361.775	18.31
361.905	-14.69
362.035	19.31
362.165	-9.69
362.294	10.31
362.424	26.31
362.554	8.31
362.684	-14.69
362.813	11.31
362.943	3.31
363.073	10.31
363.203	13.31
363.332	6.31
363.462	-5.69
363.592	1.31
363.721	-2.69
363.851	-0.69
363.981	21.31
364.111	6.31
364.24	-1.69
364.37	12.31
364.5	3.31
364.629	-7.69
364.759	-10.69
364.888	18.31
365.018	22.31
365.148	-0.69
365.277	16.31
365.407	18.31
365.537	13.31
365.666	13.31
365.796	2.31
365.925	5.31
366.055	6.31
366.184	19.31
366.314	13.31
366.444	-0.69
366.573	-3.69
366.703	2.31
366.832	11.31
366.962	21.31
367.091	27.31
367.221	6.31
367.35	-8.69
367.48	29.31
367.609	9.31
367.739	-7.69
367.868	-5.69
367.998	-2.69
368.127	20.31
368.257	14.31
368.386	24.31
368.516	18.31
368.645	1.31
368.775	5.31
368.904	13.31
369.033	-11.69
369.163	0.31
369.292	24.31
369.422	18.31
369.551	25.31
369.68	11.31
369.81	8.31
369.939	8.31
370.069	15.31
370.198	20.31
370.327	-12.69
370.457	-3.69
370.586	14.31
370.715	9.31
370.845	13.31
370.974	27.31
371.103	11.31
371.233	16.31
371.362	21.31
371.491	-12.69
371.621	35.31
371.75	5.31
371.879	-12.69
372.008	4.31
372.138	8.31
372.267	3.31
372.396	18.31
372.525	2.31
372.655	12.31
372.784	1.31
372.913	-4.69
373.042	16.31
373.172	29.31
373.301	-10.69
373.43	-9.69
373.559	5.31
373.688	7.31
373.818	9.31
373.947	13.31
374.076	19.31
374.205	9.31
374.334	1.31
374.463	-19.69
374.593	10.31
374.722	15.31
374.851	23.31
374.98	5.31
375.109	10.31
375.238	10.31
375.367	25.31
375.496	-2.69
375.625	-0.69
375.755	23.31
375.884	21.31
376.013	23.31
376.142	7.31
376.271	2.31
376.4	17.31
376.529	14.31
376.658	28.31
376.787	14.31
376.916	12.31
377.045	-1.69
377.174	16.31
377.303	7.31
377.432	34.31
377.561	15.31
377.69	21.31
377.819	13.31
377.948	-10.69
378.077	-11.69
378.206	-0.69
378.335	3.31
378.464	13.31
378.593	38.31
378.722	15.31
378.851	-1.69
378.98	0.31
379.108	7.31
379.237	-16.69
379.366	25.31
379.495	12.31
379.624	-2.69
379.753	29.31
379.882	24.31
380.011	8.31
380.14	-0.69
380.268	11.31
380.397	-17.69
380.526	17.31
380.655	-12.69
380.784	-33.69
380.913	-7.69
381.041	-9.69
381.17	-6.69
381.299	24.31
381.428	5.31
381.557	15.31
381.685	18.31
381.814	19.31
381.943	15.31
382.072	-0.69
382.2	-13.69
382.329	15.31
382.458	22.31
382.587	16.31
382.715	33.31
382.844	26.31
382.973	12.31
383.102	5.31
383.23	-0.69
383.359	-3.69
383.488	32.31
383.616	20.31
383.745	-11.69
383.874	-5.69
384.003	6.31
384.131	-1.69
384.26	-0.69
384.389	28.31
384.517	-17.69
384.646	1.31
384.774	6.31
384.903	28.31
385.032	13.31
385.16	0.31
385.289	-2.69
385.418	16.31
385.546	25.31
385.675	31.31
385.803	18.31
385.932	10.31
386.06	0.31
386.189	19.31
386.318	8.31
386.446	14.31
386.575	8.31
386.703	17.31
386.832	4.31
386.96	4.31
387.089	1.31
387.217	7.31
387.346	3.31
387.474	16.31
387.603	2.31
387.731	18.31
387.86	31.31
387.988	-0.69
388.117	12.31
388.245	-0.69
388.374	-8.69
388.502	6.31
388.631	-13.69
388.759	-2.69
388.888	10.31
389.016	14.31
389.144	-8.69
389.273	10.31
389.401	-2.69
389.53	-20.69
389.658	17.31
389.786	3.31
389.915	-10.69
390.043	-12.69
390.172	14.31
390.3	38.31
390.428	12.31
390.557	-10.69
390.685	11.31
390.813	9.31
390.942	12.31
391.07	-1.69
391.198	14.31
391.327	-4.69
391.455	-1.69
391.583	26.31
391.712	20.31
391.84	11.31
391.968	-4.69
392.096	-0.69
392.225	-6.69
392.353	18.31
392.481	3.31
392.609	26.31
392.738	-0.69
392.866	1.31
392.994	-6.69
393.122	35.31
393.251	5.31
393.379	-3.69
393.507	-7.69
393.635	8.31
393.764	9.31
393.892	12.31
394.02	9.31
394.148	10.31
394.276	9.31
394.404	25.31
394.533	6.31
394.661	14.31
394.789	19.31
394.917	38.31
395.045	1.31
395.173	-0.69
395.302	-0.69
395.43	-0.69
395.558	5.31
395.686	29.31
395.814	30.31
395.942	15.31
396.07	25.31
396.198	16.31
396.326	10.31
396.454	20.31
396.582	15.31
396.711	20.31
396.839	-1.69
396.967	13.31
397.095	32.31
397.223	32.31
397.351	30.31
397.479	19.31
397.607	13.31
397.735	17.31
397.863	24.31
397.991	20.31
398.119	6.31
398.247	1.31
398.375	-2.69
398.503	37.31
398.631	-1.69
398.759	12.31
398.887	8.31
399.015	-3.69
399.143	9.31
399.271	-1.69
399.399	15.31
399.526	17.31
399.654	10.31
399.782	-12.69
399.91	27.31
400.038	33.31
400.166	4.31
400.294	-7.69
400.422	2.31
400.55	27.31
400.678	17.31
400.805	0.31
400.933	14.31
401.061	2.31
401.189	-2.69
401.317	8.31
401.445	34.31
401.573	33.31
401.7	-0.69
401.828	-9.69
401.956	-8.69
402.084	8.31
402.212	2.31
402.34	11.31
402.467	18.31
402.595	20.31
402.723	-3.69
402.851	25.31
402.978	-6.69
403.106	10.31
403.234	-13.69
403.362	12.31
403.489	13.31
403.617	17.31
403.745	3.31
403.873	2.31
404	14.31
404.128	15.31
404.256	6.31
404.384	22.31
404.511	1.31
404.639	-3.69
404.767	-2.69
404.894	17.31
405.022	11.31
405.15	25.31
405.277	12.31
405.405	-5.69
405.533	12.31
405.66	0.31
405.788	-10.69
405.916	-8.69
406.043	4.31
406.171	-9.69
406.299	7.31
406.426	14.31
406.554	32.31
406.681	18.31
406.809	1.31
406.937	9.31
407.064	-2.69
407.192	9.31
407.319	18.31
407.447	17.31
407.574	19.31
407.702	15.31
407.83	7.31
407.957	17.31
408.085	11.31
408.212	3.31
408.34	7.31
408.467	2.31
408.595	13.31
408.722	16.31
408.85	32.31
408.977	0.31
409.105	6.31
409.232	12.31
409.36	3.31
409.487	10.31
409.615	2.31
409.742	14.31
409.87	23.31
409.997	52.31
410.125	42.31
410.252	49.31
410.379	47.31
410.507	47.31
410.634	17.31
410.762	5.31
410.889	30.31
411.017	11.31
411.144	24.31
411.271	12.31
411.399	7.31
411.526	2.31
411.653	13.31
411.781	34.31
411.908	7.31
412.036	11.31
412.163	25.31
412.29	12.31
412.418	9.31
412.545	15.31
412.672	9.31
412.8	16.31
412.927	3.31
413.054	23.31
413.182	9.31
413.309	12.31
413.436	-13.69
413.564	-1.69
413.691	13.31
413.818	32.31
413.945	-5.69
414.073	-0.69
414.2	22.31
414.327	3.31
414.454	23.31
414.582	9.31
414.709	-16.69
414.836	-7.69
414.963	24.31
415.091	12.31
415.218	-1.69
415.345	2.31
415.472	20.31
415.6	2.31
415.727	20.31
415.854	7.31
415.981	15.31
416.108	4.31
416.236	-3.69
416.363	6.31
416.49	1.31
416.617	-2.69
416.744	9.31
416.871	5.31
416.998	5.31
417.126	21.31
417.253	3.31
417.38	11.31
417.507	3.31
417.634	19.31
417.761	11.31
417.888	17.31
418.015	19.31
418.143	2.31
418.27	29.31
418.397	6.31
418.524	18.31
418.651	18.31
418.778	12.31
418.905	24.31
419.032	16.31
419.159	17.31
419.286	25.31
419.413	8.31
419.54	21.31
419.667	3.31
419.794	1.31
419.921	19.31
420.048	28.31
420.175	14.31
420.302	-16.69
420.429	17.31
420.556	9.31
420.683	-17.69
420.81	12.31
420.937	19.31
421.064	7.31
421.191	4.31
421.318	30.31
421.445	33.31
421.572	8.31
421.699	29.31
421.826	19.31
421.953	15.31
422.08	9.31
422.207	-6.69
422.334	4.31
422.461	25.31
422.588	11.31
422.714	11.31
422.841	9.31
422.968	18.31
423.095	11.31
423.222	4.31
423.349	24.31
423.476	15.31
423.603	2.31
423.729	8.31
423.856	15.31
423.983	21.31
424.11	19.31
424.237	11.31
424.364	20.31
424.491	26.31
424.617	-4.69
424.744	7.31
424.871	20.31
424.998	6.31
425.125	3.31
425.251	7.31
425.378	-12.69
425.505	-9.69
425.632	15.31
425.758	-4.69
425.885	2.31
426.012	20.31
426.139	22.31
426.266	18.31
426.392	5.31
426.519	24.31
426.646	8.31
426.772	27.31
426.899	15.31
427.026	24.31
427.153	6.31
427.279	24.31
427.406	16.31
427.533	6.31
427.659	6.31
427.786	-5.69
427.913	21.31
428.039	1.31
428.166	25.31
428.293	25.31
428.419	18.31
428.546	27.31
428.673	-8.69
428.799	2.31
428.926	-5.69
429.053	8.31
429.179	20.31
429.306	19.31
429.433	11.31
429.559	13.31
429.686	1.31
429.812	2.31
429.939	16.31
430.066	19.31
430.192	1.31
430.319	27.31
430.445	2.31
430.572	0.31
430.699	-9.69
430.825	-3.69
430.952	11.31
431.078	4.31
431.205	22.31
431.331	6.31
431.458	12.31
431.584	17.31
431.711	-2.69
431.837	-0.69
431.964	16.31
432.09	21.31
432.217	-1.69
432.343	-10.69
432.47	26.31
432.596	10.31
432.723	-4.69
432.849	-18.69
432.976	9.31
433.102	3.31
433.229	6.31
433.355	47.31
433.482	74.31
433.608	167.31
433.735	155.31
433.861	128.31
433.987	133.31
434.114	225.31
434.24	190.31
434.367	62.31
434.493	24.31
434.62	21.31
434.746	11.31
434.872	-2.69
434.999	15.31
435.125	5.31
435.252	-5.69
435.378	5.31
435.504	4.31
435.631	22.31
435.757	18.31
435.883	20.31
436.01	35.31
436.136	6.31
436.262	24.31
436.389	23.31
436.515	25.31
436.641	11.31
436.768	32.31
436.894	17.31
437.02	17.31
437.147	32.31
437.273	16.31
437.399	19.31
437.526	15.31
437.652	15.31
437.778	3.31
437.904	6.31
438.031	-1.69
438.157	17.31
438.283	15.31
438.409	6.31
438.536	-1.69
438.662	22.31
438.788	23.31
438.914	11.31
439.041	18.31
439.167	36.31
439.293	14.31
439.419	3.31
439.546	12.31
439.672	5.31
439.798	22.31
439.924	44.31
440.05	25.31
440.177	14.31
440.303	5.31
440.429	1.31
440.555	10.31
440.681	7.31
440.807	-4.69
440.934	23.31
441.06	14.31
441.186	21.31
441.312	7.31
441.438	14.31
441.564	20.31
441.69	27.31
441.816	16.31
441.943	6.31
442.069	-8.69
442.195	44.31
442.321	14.31
442.447	-7.69
442.573	7.31
442.699	-8.69
442.825	-3.69
442.951	-2.69
443.077	28.31
443.203	16.31
443.33	-6.69
443.456	2.31
443.582	35.31
443.708	7.31
443.834	24.31
443.96	11.31
444.086	3.31
444.212	43.31
444.338	32.31
444.464	18.31
444.59	19.31
444.716	19.31
444.842	18.31
444.968	1.31
445.094	10.31
445.22	-12.69
445.346	-1.69
445.472	11.31
445.598	4.31
445.724	5.31
445.85	7.31
445.976	-2.69
446.102	11.31
446.228	29.31
446.354	15.31
446.48	16.31
446.605	15.31
446.731	26.31
446.857	5.31
446.983	9.31
447.109	6.31
447.235	17.31
447.361	7.31
447.487	32.31
447.613	25.31
447.739	17.31
447.865	1.31
447.99	19.31
448.116	15.31
448.242	10.31
448.368	-2.69
448.494	2.31
448.62	13.31
448.746	11.31
448.872	9.31
448.997	2.31
449.123	10.31
449.249	30.31
449.375	21.31
449.501	-3.69
449.627	-9.69
449.752	39.31
449.878	22.31
450.004	2.31
450.13	24.31
450.256	7.31
450.381	7.31
450.507	5.31
450.633	-4.69
450.759	17.31
450.884	-8.69
451.01	18.31
451.136	15.31
451.262	10.31
451.388	2.31
451.513	1.31
451.639	12.31
451.765	6.31
451.89	11.31
452.016	5.31
452.142	20.31
452.268	-1.69
452.393	8.31
452.519	-10.69
452.645	2.31
452.771	9.31
452.896	-9.69
453.022	4.31
453.148	19.31
453.273	0.31
453.399	12.31
453.525	3.31
453.65	-3.69
453.776	33.31
453.902	10.31
454.027	23.31
454.153	20.31
454.279	11.31
454.404	-1.69
454.53	23.31
454.656	35.31
454.781	7.31
454.907	3.31
455.032	-0.69
455.158	21.31
455.284	26.31
455.409	17.31
455.535	-0.69
455.66	8.31
455.786	27.31
455.912	21.31
456.037	15.31
456.163	9.31
456.288	10.31
456.414	2.31
456.539	8.31
456.665	8.31
456.791	8.31
456.916	18.31
457.042	21.31
457.167	-14.69
457.293	16.31
457.418	14.31
457.544	3.31
457.669	6.31
457.795	22.31
457.92	6.31
458.046	13.31
458.171	15.31
458.297	9.31
458.422	26.31
458.548	-1.69
458.673	11.31
458.799	11.31
458.924	9.31
459.05	13.31
459.175	25.31
459.301	11.31
459.426	18.31
459.552	26.31
459.677	-4.69
459.803	23.31
459.928	17.31
460.053	6.31
460.179	22.31
460.304	32.31
460.43	9.31
460.555	8.31
460.681	4.31
460.806	20.31
460.931	12.31
461.057	24.31
461.182	6.31
461.308	25.31
461.433	36.31
461.558	3.31
461.684	42.31
461.809	17.31
461.934	7.31
462.06	34.31
462.185	6.31
462.311	9.31
462.436	6.31
462.561	-1.69
462.687	22.31
462.812	15.31
462.937	7.31
463.063	15.31
463.188	-1.69
463.313	3.31
463.439	12.31
463.564	9.31
463.689	6.31
463.814	12.31
463.94	17.31
464.065	32.31
464.19	22.31
464.316	8.31
464.441	6.31
464.566	3.31
464.692	9.31
464.817	-3.69
464.942	3.31
465.067	14.31
465.193	-13.69
465.318	-4.69
465.443	6.31
465.568	4.31
465.694	15.31
465.819	22.31
465.944	3.31
466.069	-11.69
466.194	1.31
466.32	20.31
466.445	21.31
466.57	9.31
466.695	15.31
466.82	20.31
466.946	33.31
467.071	11.31
467.196	22.31
467.321	24.31
467.446	3.31
467.572	12.31
467.697	4.31
467.822	22.31
467.947	8.31
468.072	11.31
468.197	11.31
468.323	-2.69
468.448	-2.69
468.573	-10.69
468.698	-3.69
468.823	8.31
468.948	8.31
469.073	20.31
469.198	19.31
469.324	20.31
469.449	-8.69
469.574	13.31
469.699	12.31
469.824	24.31
469.949	34.31
470.074	33.31
470.199	44.31
470.324	21.31
470.449	17.31
470.574	12.31
470.7	6.31
470.825	12.31
470.95	33.31
471.075	2.31
471.2	19.31
471.325	18.31
471.45	21.31
471.575	1.31
471.7	18.31
471.825	-0.69
471.95	0.31
472.075	11.31
472.2	9.31
472.325	6.31
472.45	6.31
472.575	18.31
472.7	37.31
472.825	17.31
472.95	35.31
473.075	15.31
473.2	-1.69
473.325	-0.69
473.45	-3.69
473.575	-14.69
473.7	13.31
473.825	1.31
473.95	21.31
474.075	10.31
474.2	5.31
474.325	11.31
474.45	21.31
474.574	15.31
474.699	24.31
474.824	20.31
474.949	12.31
475.074	1.31
475.199	24.31
475.324	27.31
475.449	20.31
475.574	20.31
475.699	7.31
475.824	7.31
475.949	8.31
476.073	9.31
476.198	28.31
476.323	18.31
476.448	10.31
476.573	1.31
476.698	26.31
476.823	16.31
476.947	18.31
477.072	9.31
477.197	11.31
477.322	9.31
477.447	6.31
477.572	5.31
477.697	12.31
477.821	6.31
477.946	17.31
478.071	21.31
478.196	15.31
478.321	17.31
478.445	19.31
478.57	8.31
478.695	-4.69
478.82	18.31
478.945	8.31
479.069	6.31
479.194	-7.69
479.319	29.31
479.444	23.31
479.569	15.31
479.693	33.31
479.818	22.31
479.943	21.31
480.068	8.31
480.192	24.31
480.317	17.31
480.442	27.31
480.567	14.31
480.691	5.31
480.816	13.31
480.941	-4.69
481.066	7.31
481.19	20.31
481.315	25.31
481.44	0.31
481.564	-3.69
481.689	21.31
481.814	31.31
481.938	8.31
482.063	-8.69
482.188	18.31
482.313	30.31
482.437	10.31
482.562	26.31
482.687	34.31
482.811	30.31
482.936	30.31
483.061	21.31
483.185	47.31
483.31	28.31
483.435	3.31
483.559	11.31
483.684	15.31
483.808	25.31
483.933	25.31
484.058	27.31
484.182	25.31
484.307	20.31
484.432	27.31
484.556	15.31
484.681	26.31
484.805	26.31
484.93	24.31
485.055	44.31
485.179	67.31
485.304	97.31
485.428	354.31
485.553	1260.31
485.678	1724.31
485.802	1647.31
485.927	1801.31
486.051	2688.31
486.176	1642.31
486.3	451.31
486.425	164.31
486.549	90.31
486.674	72.31
486.799	56.31
486.923	23.31
487.048	20.31
487.172	10.31
487.297	31.31
487.421	18.31
487.546	13.31
487.67	31.31
487.795	17.31
487.919	17.31
488.044	27.31
488.168	28.31
488.293	11.31
488.417	4.31
488.542	37.31
488.666	33.31
488.791	43.31
488.915	29.31
489.04	19.31
489.164	14.31
489.289	40.31
489.413	1.31
489.538	7.31
489.662	14.31
489.786	1.31
489.911	26.31
490.035	30.31
490.16	19.31
490.284	-1.69
490.409	-5.69
490.533	15.31
490.658	37.31
490.782	7.31
490.906	13.31
491.031	33.31
491.155	24.31
491.28	26.31
491.404	23.31
491.528	21.31
491.653	30.31
491.777	33.31
491.902	5.31
492.026	25.31
492.15	19.31
492.275	34.31
492.399	16.31
492.524	22.31
492.648	27.31
492.772	22.31
492.897	24.31
493.021	13.31
493.145	23.31
493.27	40.31
493.394	8.31
493.518	-0.69
493.643	-6.69
493.767	26.31
493.891	1.31
494.016	-3.69
494.14	17.31
494.264	21.31
494.389	39.31
494.513	16.31
494.637	11.31
494.762	36.31
494.886	23.31
495.01	22.31
495.134	25.31
495.259	39.31
495.383	14.31
495.507	24.31
495.632	44.31
495.756	45.31
495.88	42.31
496.004	10.31
496.129	8.31
496.253	22.31
496.377	34.31
496.501	43.31
496.626	15.31
496.75	6.31
496.874	14.31
496.998	13.31
497.123	28.31
497.247	15.31
497.371	18.31
497.495	22.31
497.62	11.31
497.744	0.31
497.868	11.31
497.992	20.31
498.116	10.31
498.241	16.31
498.365	-2.69
498.489	5.31
498.613	38.31
498.737	9.31
498.862	23.31
498.986	6.31
499.11	13.31
499.234	6.31
499.358	3.31
499.482	21.31
499.607	14.31
499.731	23.31
499.855	17.31
499.979	10.31
500.103	20.31
500.227	23.31
500.351	16.31
500.476	4.31
500.6	4.31
500.724	11.31
500.848	6.31
500.972	27.31
501.096	35.31
501.22	45.31
501.344	8.31
501.469	20.31
501.593	26.31
501.717	25.31
501.841	14.31
501.965	18.31
502.089	7.31
502.213	13.31
502.337	5.31
502.461	-17.69
502.585	17.31
502.709	13.31
502.834	26.31
502.958	13.31
503.082	24.31
503.206	13.31
503.33	29.31
503.454	29.31
503.578	35.31
503.702	12.31
503.826	-0.69
503.95	21.31
504.074	3.31
504.198	7.31
504.322	-8.69
504.446	7.31
504.57	21.31
504.694	7.31
504.818	26.31
504.942	28.31
505.066	10.31
505.19	26.31
505.314	26.31
505.438	18.31
505.562	28.31
505.686	30.31
505.81	12.31
505.934	5.31
506.058	17.31
506.182	27.31
506.306	23.31
506.43	-6.69
506.554	1.31
506.678	18.31
506.802	4.31
506.926	23.31
507.05	31.31
507.174	36.31
507.298	14.31
507.422	33.31
507.546	37.31
507.67	26.31
507.794	-9.69
507.918	14.31
508.042	14.31
508.165	-1.69
508.289	9.31
508.413	29.31
508.537	-1.69
508.661	21.31
508.785	11.31
508.909	30.31
509.033	24.31
509.157	18.31
509.281	28.31
509.405	24.31
509.528	33.31
509.652	27.31
509.776	5.31
509.9	20.31
510.024	13.31
510.148	29.31
510.272	17.31
510.396	15.31
510.519	11.31
510.643	21.31
510.767	8.31
510.891	11.31
511.015	14.31
511.139	16.31
511.263	18.31
511.386	28.31
511.51	15.31
511.634	19.31
511.758	9.31
511.882	10.31
512.006	-1.69
512.129	11.31
512.253	28.31
512.377	6.31
512.501	37.31
512.625	25.31
512.748	10.31
512.872	2.31
512.996	-2.69
513.12	15.31
513.244	-7.69
513.367	26.31
513.491	7.31
513.615	26.31
513.739	9.31
513.862	13.31
513.986	15.31
514.11	17.31
514.234	2.31
514.358	24.31
514.481	25.31
514.605	9.31
514.729	16.31
514.853	22.31
514.976	-5.69
515.1	2.31
515.224	18.31
515.348	12.31
515.471	1.31
515.595	14.31
515.719	2.31
515.842	48.31
515.966	-3.69
516.09	28.31
516.214	6.31
516.337	44.31
516.461	32.31
516.585	15.31
516.708	21.31
516.832	17.31
516.956	6.31
517.08	17.31
517.203	-3.69
517.327	27.31
517.451	47.31
517.574	57.31
517.698	19.31
517.822	27.31
517.945	36.31
518.069	27.31
518.193	52.31
518.316	36.31
518.44	25.31
518.564	21.31
518.687	14.31
518.811	29.31
518.935	56.31
519.058	30.31
519.182	38.31
519.306	53.31
519.429	9.31
519.553	61.31
519.676	37.31
519.8	11.31
519.924	7.31
520.047	8.31
520.171	9.31
520.294	15.31
520.418	19.31
520.542	9.31
520.665	6.31
520.789	11.31
520.913	-9.69
521.036	-4.69
521.16	10.31
521.283	13.31
521.407	14.31
521.53	10.31
521.654	-2.69
521.778	18.31
521.901	20.31
522.025	19.31
522.148	1.31
522.272	17.31
522.395	14.31
522.519	16.31
522.643	5.31
522.766	19.31
522.89	15.31
523.013	18.31
523.137	-1.69
523.26	-0.69
523.384	15.31
523.507	16.31
523.631	10.31
523.754	25.31
523.878	17.31
524.002	24.31
524.125	15.31
524.249	-10.69
524.372	6.31
524.496	7.31
524.619	9.31
524.743	18.31
524.866	14.31
524.99	11.31
525.113	1.31
525.237	33.31
525.36	0.31
525.484	16.31
525.607	2.31
525.731	1.31
525.854	15.31
525.978	45.31
526.101	-1.69
526.224	19.31
526.348	21.31
526.471	15.31
526.595	18.31
526.718	21.31
526.842	-5.69
526.965	10.31
527.089	8.31
527.212	20.31
527.336	19.31
527.459	24.31
527.582	11.31
527.706	30.31
527.829	18.31
527.953	36.31
528.076	-4.69
528.2	2.31
528.323	8.31
528.446	34.31
528.57	32.31
528.693	9.31
528.817	11.31
528.94	17.31
529.064	32.31
529.187	7.31
529.31	1.31
529.434	8.31
529.557	-2.69
529.68	-0.69
529.804	11.31
529.927	23.31
530.051	-0.69
530.174	-1.69
530.297	12.31
530.421	10.31
530.544	19.31
530.668	9.31
530.791	-3.69
530.914	21.31
531.038	-2.69
531.161	13.31
531.284	19.31
531.408	35.31
531.531	3.31
531.654	-2.69
531.778	22.31
531.901	4.31
532.024	28.31
532.148	15.31
532.271	12.31
532.394	17.31
532.518	39.31
532.641	35.31
532.764	18.31
532.888	13.31
533.011	1.31
533.134	11.31
533.258	21.31
533.381	10.31
533.504	7.31
533.628	23.31
533.751	34.31
533.874	24.31
533.997	11.31
534.121	4.31
534.244	10.31
534.367	11.31
534.491	10.31
534.614	13.31
534.737	16.31
534.86	13.31
534.984	7.31
535.107	23.31
535.23	22.31
535.354	8.31
535.477	-2.69
535.6	16.31
535.723	12.31
535.847	8.31
535.97	-9.69
536.093	19.31
536.216	-4.69
536.34	14.31
536.463	-2.69
536.586	6.31
536.709	13.31
536.833	16.31
536.956	12.31
537.079	8.31
537.202	21.31
537.325	15.31
537.449	6.31
537.572	20.31
537.695	3.31
537.818	21.31
537.941	24.31
538.065	2.31
538.188	10.31
538.311	25.31
538.434	26.31
538.558	11.31
538.681	27.31
538.804	19.31
538.927	18.31
539.05	4.31
539.173	5.31
539.297	13.31
539.42	15.31
539.543	7.31
539.666	29.31
539.789	19.31
539.913	26.31
540.036	9.31
540.159	-4.69
540.282	-1.69
540.405	-6.69
540.528	6.31
540.651	23.31
540.775	13.31
540.898	15.31
541.021	15.31
541.144	11.31
541.267	9.31
541.39	7.31
541.513	9.31
541.637	2.31
541.76	6.31
541.883	14.31
542.006	22.31
542.129	39.31
542.252	13.31
542.375	11.31
542.498	-1.69
542.622	23.31
542.745	3.31
542.868	33.31
542.991	29.31
543.114	13.31
543.237	34.31
543.36	30.31
543.483	17.31
543.606	16.31
543.73	31.31
543.853	14.31
543.976	4.31
544.099	5.31
544.222	9.31
544.345	2.31
544.468	-13.69
544.591	3.31
544.714	4.31
544.837	25.31
544.96	11.31
545.083	15.31
545.206	21.31
545.329	15.31
545.453	-0.69
545.576	17.31
545.699	17.31
545.822	25.31
545.945	25.31
546.068	8.31
546.191	5.31
546.314	14.31
546.437	27.31
546.56	11.31
546.683	24.31
546.806	7.31
546.929	6.31
547.052	-8.69
547.175	13.31
547.298	24.31
547.421	1.31
547.544	11.31
547.667	11.31
547.79	15.31
547.913	-11.69
548.036	-14.69
548.159	22.31
548.282	11.31
548.405	19.31
548.528	15.31
548.651	7.31
548.774	29.31
548.897	27.31
549.02	23.31
549.143	22.31
549.266	10.31
549.389	23.31
549.512	17.31
549.635	51.31
549.758	36.31
549.881	6.31
550.004	18.31
550.127	10.31
550.25	-6.69
550.373	8.31
550.496	21.31
550.619	11.31
550.742	1.31
550.865	-12.69
550.988	34.31
551.111	29.31
551.234	4.31
551.356	-9.69
551.479	-3.69
551.602	13.31
551.725	23.31
551.848	30.31
551.971	28.31
552.094	10.31
552.217	7.31
552.34	16.31
552.463	3.31
552.586	19.31
552.709	12.31
552.832	13.31
552.955	30.31
553.077	8.31
553.2	11.31
553.323	-1.69
553.446	9.31
553.569	7.31
553.692	20.31
553.815	9.31
553.938	10.31
554.061	17.31
554.184	-0.69
554.306	30.31
554.429	34.31
554.552	37.31
554.675	8.31
554.798	-1.69
554.921	11.31
555.044	16.31
555.167	-3.69
555.29	7.31
555.412	11.31
555.535	7.31
555.658	3.31
555.781	11.31
555.904	17.31
556.027	22.31
556.15	7.31
556.272	5.31
556.395	28.31
556.518	19.31
556.641	18.31
556.764	25.31
556.887	18.31
557.01	19.31
557.132	2.31
557.255	14.31
557.378	23.31
557.501	25.31
557.624	17.31
557.747	6.31
557.869	23.31
557.992	49.31
558.115	29.31
558.238	9.31
558.361	1.31
558.483	40.31
558.606	21.31
558.729	-19.69
558.852	10.31
558.975	12.31
559.098	8.31
559.22	17.31
559.343	15.31
559.466	21.31
559.589	14.31
559.712	11.31
559.834	25.31
559.957	5.31
560.08	1.31
560.203	24.31
560.325	34.31
560.448	30.31
560.571	18.31
560.694	17.31
560.817	39.31
560.939	18.31
561.062	3.31
561.185	24.31
561.308	10.31
561.43	4.31
561.553	10.31
561.676	-5.69
561.799	4.31
561.921	17.31
562.044	7.31
562.167	1.31
562.29	33.31
562.413	34.31
562.535	40.31
562.658	-14.69
562.781	16.31
562.903	14.31
563.026	20.31
563.149	36.31
563.272	1.31
563.394	11.31
563.517	23.31
563.64	-10.69
563.763	4.31
563.885	23.31
564.008	21.31
564.131	18.31
564.254	1.31
564.376	-2.69
564.499	-7.69
564.622	-15.69
564.744	10.31
564.867	13.31
564.99	10.31
565.113	12.31
565.235	4.31
565.358	7.31
565.481	-1.69
565.603	-1.69
565.726	-4.69
565.849	33.31
565.971	27.31
566.094	-1.69
566.217	8.31
566.34	-6.69
566.462	18.31
566.585	20.31
566.708	31.31
566.83	19.31
566.953	10.31
567.076	4.31
567.198	8.31
567.321	-5.69
567.444	12.31
567.566	2.31
567.689	17.31
567.812	4.31
567.934	10.31
568.057	10.31
568.18	10.31
568.302	3.31
568.425	16.31
568.548	11.31
568.67	22.31
568.793	18.31
568.916	31.31
569.038	2.31
569.161	-0.69
569.283	26.31
569.406	11.31
569.529	-11.69
569.651	-5.69
569.774	10.31
569.897	-0.69
570.019	16.31
570.142	13.31
570.265	8.31
570.387	13.31
570.51	14.31
570.632	16.31
570.755	8.31
570.878	21.31
571	34.31
571.123	8.31
571.246	22.31
571.368	-3.69
571.491	8.31
571.613	3.31
571.736	-1.69
571.859	1.31
571.981	0.31
572.104	-5.69
572.226	5.31
572.349	-6.69
572.472	16.31
572.594	19.31
572.717	21.31
572.839	4.31
572.962	12.31
573.085	8.31
573.207	16.31
573.33	-2.69
573.452	24.31
573.575	15.31
573.697	27.31
573.82	18.31
573.943	11.31
574.065	28.31
574.188	18.31
574.31	21.31
574.433	13.31
574.555	24.31
574.678	3.31
574.801	2.31
574.923	6.31
575.046	26.31
575.168	10.31
575.291	13.31
575.413	10.31
575.536	8.31
575.659	21.31
575.781	7.31
575.904	7.31
576.026	9.31
576.149	-1.69
576.271	26.31
576.394	19.31
576.516	12.31
576.639	8.31
576.761	-1.69
576.884	5.31
577.007	11.31
577.129	13.31
577.252	5.31
577.374	14.31
577.497	-2.69
577.619	13.31
577.742	19.31
577.864	27.31
577.987	1.31
578.109	7.31
578.232	2.31
578.354	34.31
578.477	9.31
578.599	4.31
578.722	2.31
578.844	-0.69
578.967	7.31
579.089	10.31
579.212	-7.69
579.334	12.31
579.457	4.31
579.579	12.31
579.702	10.31
579.824	10.31
579.947	-0.69
580.069	17.31
580.192	1.31
580.314	19.31
580.437	19.31
580.559	45.31
580.682	22.31
580.804	6.31
580.927	7.31
581.049	51.31
581.172	28.31
581.294	14.31
581.417	6.31
581.539	9.31
581.662	17.31
581.784	30.31
581.907	42.31
582.029	28.31
582.152	-6.69
582.274	5.31
582.396	7.31
582.519	16.31
582.641	-1.69
582.764	7.31
582.886	19.31
583.009	11.31
583.131	-0.69
583.254	5.31
583.376	29.31
583.499	23.31
583.621	21.31
583.743	21.31
583.866	12.31
583.988	7.31
584.111	26.31
584.233	22.31
584.356	17.31
584.478	3.31
584.601	9.31
584.723	8.31
584.845	35.31
584.968	3.31
585.09	6.31
585.213	26.31
585.335	9.31
585.458	21.31
585.58	3.31
585.702	13.31
585.825	7.31
585.947	8.31
586.07	-22.69
586.192	-10.69
586.315	14.31
586.437	2.31
586.559	9.31
586.682	0.31
586.804	28.31
586.927	10.31
587.049	-12.69
587.171	33.31
587.294	22.31
587.416	26.31
587.539	11.31
587.661	0.31
587.783	5.31
587.906	8.31
588.028	22.31
588.151	14.31
588.273	14.31
588.395	-4.69
588.518	-9.69
588.64	3.31
588.763	24.31
588.885	8.31
589.007	14.31
589.13	-19.69
589.252	-9.69
589.375	15.31
589.497	16.31
589.619	22.31
589.742	25.31
589.864	35.31
589.986	11.31
590.109	6.31
590.231	-7.69
590.354	13.31
590.476	-9.69
590.598	6.31
590.721	14.31
590.843	12.31
590.965	3.31
591.088	13.31
591.21	17.31
591.332	21.31
591.455	-13.69
591.577	-1.69
591.7	-6.69
591.822	11.31
591.944	9.31
592.067	12.31
592.189	24.31
592.311	22.31
592.434	-1.69
592.556	29.31
592.678	16.31
592.801	-4.69
592.923	13.31
593.045	9.31
593.168	15.31
593.29	12.31
593.412	15.31
593.535	6.31
593.657	1.31
593.779	20.31
593.902	17.31
594.024	16.31
594.146	27.31
594.269	24.31
594.391	-1.69
594.513	6.31
594.636	8.31
594.758	7.31
594.88	27.31
595.003	25.31
595.125	22.31
595.247	19.31
595.37	21.31
595.492	-4.69
595.614	15.31
595.737	14.31
595.859	10.31
595.981	19.31
596.104	17.31
596.226	11.31
596.348	6.31
596.471	9.31
596.593	17.31
596.715	-4.69
596.838	11.31
596.96	-5.69
597.082	29.31
597.204	18.31
597.327	19.31
597.449	13.31
597.571	9.31
597.694	29.31
597.816	22.31
597.938	11.31
598.061	22.31
598.183	11.31
598.305	27.31
598.427	23.31
598.55	2.31
598.672	33.31
598.794	13.31
598.917	13.31
599.039	14.31
599.161	25.31
599.283	-10.69
599.406	11.31
599.528	35.31
599.65	49.31
599.773	23.31
599.895	30.31
600.017	22.31
600.139	4.31
600.262	4.31
600.384	16.31
600.506	19.31
600.628	23.31
600.751	28.31
600.873	8.31
600.995	-1.69
601.118	17.31
601.24	1.31
601.362	14.31
601.484	1.31
601.607	0.31
601.729	-10.69
601.851	15.31
601.973	31.31
602.096	8.31
602.218	37.31
602.34	19.31
602.462	27.31
602.585	25.31
602.707	4.31
602.829	10.31
602.951	3.31
603.074	6.31
603.196	13.31
603.318	11.31
603.44	12.31
603.563	-4.69
603.685	-6.69
603.807	26.31
603.929	11.31
604.052	33.31
604.174	30.31
604.296	25.31
604.418	15.31
604.541	38.31
604.663	9.31
604.785	13.31
604.907	20.31
605.03	7.31
605.152	42.31
605.274	15.31
605.396	7.31
605.519	7.31
605.641	1.31
605.763	11.31
605.885	27.31
606.008	10.31
606.13	5.31
606.252	11.31
606.374	-11.69
606.496	1.31
606.619	10.31
606.741	6.31
606.863	31.31
606.985	36.31
607.108	36.31
607.23	18.31
607.352	16.31
607.474	16.31
607.596	3.31
607.719	7.31
607.841	5.31
607.963	8.31
608.085	13.31
608.207	45.31
608.33	29.31
608.452	15.31
608.574	15.31
608.696	28.31
608.819	1.31
608.941	13.31
609.063	9.31
609.185	-2.69
609.307	-4.69
609.43	22.31
609.552	18.31
609.674	-2.69
609.796	27.31
609.918	22.31
610.041	17.31
610.163	15.31
610.285	6.31
610.407	8.31
610.529	6.31
610.652	2.31
610.774	-5.69
610.896	-5.69
611.018	5.31
611.14	3.31
611.263	-2.69
611.385	2.31
611.507	13.31
611.629	-7.69
611.751	30.31
611.873	38.31
611.996	20.31
612.118	30.31
612.24	4.31
612.362	22.31
612.484	21.31
612.607	3.31
612.729	39.31
612.851	23.31
612.973	13.31
613.095	23.31
613.218	2.31
613.34	24.31
613.462	7.31
613.584	4.31
613.706	7.31
613.828	29.31
613.951	11.31
614.073	7.31
614.195	2.31
614.317	16.31
614.439	12.31
614.561	15.31
614.684	17.31
614.806	41.31
614.928	38.31
615.05	27.31
615.172	20.31
615.294	22.31
615.417	-11.69
615.539	-5.69
615.661	26.31
615.783	25.31
615.905	33.31
616.027	62.31
616.15	99.31
616.272	80.31
616.394	50.31
616.516	35.31
616.638	27.31
616.76	23.31
616.883	20.31
617.005	16.31
617.127	-6.69
617.249	6.31
617.371	13.31
617.493	15.31
617.615	7.31
617.738	13.31
617.86	11.31
617.982	18.31
618.104	13.31
618.226	23.31
618.348	-4.69
618.471	29.31
618.593	16.31
618.715	-8.69
618.837	6.31
618.959	7.31
619.081	19.31
619.203	12.31
619.326	12.31
619.448	14.31
619.57	30.31
619.692	11.31
619.814	11.31
619.936	25.31
620.058	25.31
620.181	5.31
620.303	12.31
620.425	21.31
620.547	-1.69
620.669	14.31
620.791	18.31
620.913	11.31
621.036	2.31
621.158	31.31
621.28	10.31
621.402	9.31
621.524	-4.69
621.646	-0.69
621.768	0.31
621.891	-7.69
622.013	15.31
622.135	4.31
622.257	2.31
622.379	5.31
622.501	11.31
622.623	18.31
622.745	8.31
622.868	0.31
622.99	11.31
623.112	0.31
623.234	11.31
623.356	7.31
623.478	2.31
623.6	34.31
623.722	5.31
623.845	15.31
623.967	17.31
624.089	14.31
624.211	-2.69
624.333	10.31
624.455	11.31
624.577	-1.69
624.699	15.31
624.822	23.31
624.944	7.31
625.066	17.31
625.188	11.31
625.31	22.31
625.432	40.31
625.554	16.31
625.676	29.31
625.799	12.31
625.921	27.31
626.043	10.31
626.165	7.31
626.287	-5.69
626.409	7.31
626.531	12.31
626.653	1.31
626.775	14.31
626.898	27.31
627.02	4.31
627.142	20.31
627.264	18.31
627.386	4.31
627.508	6.31
627.63	4.31
627.752	32.31
627.874	5.31
627.997	28.31
628.119	24.31
628.241	18.31
628.363	38.31
628.485	17.31
628.607	19.31
628.729	-2.69
628.851	3.31
628.973	20.31
629.096	-4.69
629.218	17.31
629.34	10.31
629.462	16.31
629.584	9.31
629.706	13.31
629.828	51.31
629.95	35.31
630.072	3.31
630.195	14.31
630.317	5.31
630.439	16.31
630.561	4.31
630.683	-1.69
630.805	19.31
630.927	33.31
631.049	8.31
631.171	-6.69
631.293	26.31
631.416	16.31
631.538	3.31
631.66	22.31
631.782	13.31
631.904	25.31
632.026	2.31
632.148	8.31
632.27	7.31
632.392	10.31
632.514	25.31
632.637	25.31
632.759	27.31
632.881	18.31
633.003	-3.69
633.125	3.31
633.247	-3.69
633.369	13.31
633.491	9.31
633.613	13.31
633.735	19.31
633.858	21.31
633.98	9.31
634.102	-20.69
634.224	15.31
634.346	8.31
634.468	10.31
634.59	5.31
634.712	7.31
634.834	18.31
634.956	-5.69
635.078	-10.69
635.201	-8.69
635.323	21.31
635.445	-2.69
635.567	3.31
635.689	22.31
635.811	25.31
635.933	5.31
636.055	3.31
636.177	0.31
636.299	23.31
636.421	-2.69
636.544	-14.69
636.666	24.31
636.788	20.31
636.91	22.31
637.032	9.31
637.154	9.31
637.276	39.31
637.398	41.31
637.52	9.31
637.642	-4.69
637.764	3.31
637.887	12.31
638.009	3.31
638.131	5.31
638.253	3.31
638.375	13.31
638.497	5.31
638.619	2.31
638.741	11.31
638.863	1.31
638.985	-5.69
639.107	4.31
639.23	-15.69
639.352	17.31
639.474	22.31
639.596	20.31
639.718	1.31
639.84	8.31
639.962	5.31
640.084	18.31
640.206	21.31
640.328	-6.69
640.45	8.31
640.573	9.31
640.695	10.31
640.817	5.31
640.939	10.31
641.061	0.31
641.183	17.31
641.305	3.31
641.427	-2.69
641.549	-2.69
641.671	25.31
641.793	8.31
641.915	19.31
642.038	11.31
642.16	16.31
642.282	3.31
642.404	14.31
642.526	31.31
642.648	22.31
642.77	6.31
642.892	7.31
643.014	26.31
643.136	7.31
643.258	3.31
643.381	15.31
643.503	30.31
643.625	9.31
643.747	-1.69
643.869	7.31
643.991	17.31
644.113	18.31
644.235	-2.69
644.357	1.31
644.479	15.31
644.601	8.31
644.723	-1.69
644.846	1.31
644.968	17.31
645.09	13.31
645.212	7.31
645.334	10.31
645.456	17.31
645.578	20.31
645.7	10.31
645.822	7.31
645.944	9.31
646.066	7.31
646.188	-2.69
646.311	22.31
646.433	26.31
646.555	46.31
646.677	26.31
646.799	37.31
646.921	19.31
647.043	33.31
647.165	13.31
647.287	15.31
647.409	5.31
647.531	30.31
647.654	17.31
647.776	16.31
647.898	21.31
648.02	-10.69
648.142	-2.69
648.264	14.31
648.386	7.31
648.508	-0.69
648.63	-0.69
648.752	17.31
648.874	2.31
648.997	5.31
649.119	16.31
649.241	16.31
649.363	9.31
649.485	37.31
649.607	14.31
649.729	-8.69
649.851	3.31
649.973	13.31
650.095	10.31
650.217	1.31
650.34	-4.69
650.462	20.31
650.584	9.31
650.706	26.31
650.828	26.31
650.95	8.31
651.072	15.31
651.194	8.31
651.316	2.31
651.438	-1.69
651.56	-7.69
651.683	-0.69
651.805	5.31
651.927	26.31
652.049	-2.69
652.171	5.31
652.293	1.31
652.415	7.31
652.537	1.31
652.659	5.31
652.781	19.31
652.903	29.31
653.026	26.31
653.148	17.31
653.27	23.31
653.392	17.31
653.514	-4.69
653.636	18.31
653.758	17.31
653.88	17.31
654.002	6.31
654.124	4.31
654.247	-4.69
654.369	7.31
654.491	19.31
654.613	20.31
654.735	13.31
654.857	30.31
654.979	20.31
655.101	28.31
655.223	50.31
655.345	28.31
655.468	36.31
655.59	28.31
655.712	27.31
655.834	20.31
655.956	39.31
656.078	27.31
656.2	34.31
656.322	47.31
656.444	14.31
656.566	51.31
656.689	60.31
656.811	63.31
656.933	99.31
657.055	74.31
657.177	152.31
657.299	252.31
657.421	491.31
657.543	1913.31
657.665	12621.31
657.787	15191.31
657.91	15283.31
658.032	15664.31
658.154	4674.31
658.276	3814.31
658.398	1231.31
658.52	1049.31
658.642	493.31
658.764	617.31
658.886	284.31
659.009	419.31
659.131	221.31
659.253	311.31
659.375	165.31
659.497	245.31
659.619	137.31
659.741	206.31
659.863	108.31
659.985	175.31
660.108	90.31
660.23	142.31
660.352	84.31
660.474	142.31
660.596	88.31
660.718	128.31
660.84	60.31
660.962	117.31
661.084	51.31
661.207	98.31
661.329	58.31
661.451	109.31
661.573	51.31
661.695	130.31
661.817	40.31
661.939	117.31
662.061	69.31
662.184	90.31
662.306	36.31
662.428	80.31
662.55	58.31
662.672	58.31
662.794	30.31
662.916	84.31
663.038	47.31
663.161	80.31
663.283	45.31
663.405	71.31
663.527	45.31
663.649	67.31
663.771	28.31
663.893	61.31
664.015	35.31
664.138	61.31
664.26	33.31
664.382	61.31
664.504	22.31
664.626	15.31
664.748	12.31
664.87	46.31
664.992	28.31
665.115	46.31
665.237	26.31
665.359	34.31
665.481	17.31
665.603	57.31
665.725	30.31
665.847	27.31
665.97	20.31
666.092	55.31
666.214	38.31
666.336	53.31
666.458	41.31
666.58	19.31
666.702	8.31
666.825	14.31
666.947	22.31
667.069	51.31
667.191	24.31
667.313	45.31
667.435	14.31
667.557	23.31
667.68	13.31
667.802	20.31
667.924	2.31
668.046	43.31
668.168	19.31
668.29	43.31
668.412	21.31
668.535	38.31
668.657	26.31
668.779	21.31
668.901	13.31
669.023	29.31
669.145	22.31
669.267	46.31
669.39	14.31
669.512	25.31
669.634	20.31
669.756	19.31
669.878	37.31
670	34.31
670.123	13.31
670.245	35.31
670.367	16.31
670.489	45.31
670.611	10.31
670.733	15.31
670.856	18.31
670.978	48.31
671.1	33.31
671.222	42.31
671.344	12.31
671.466	34.31
671.589	10.31
671.711	13.31
671.833	-5.69
671.955	23.31
672.077	17.31
672.199	29.31
672.322	33.31
672.444	27.31
672.566	15.31
672.688	38.31
672.81	15.31
672.932	23.31
673.055	5.31
673.177	14.31
673.299	9.31
673.421	9.31
673.543	13.31
673.665	34.31
673.788	13.31
673.91	27.31
674.032	-4.69
674.154	20.31
674.276	21.31
674.399	18.31
674.521	12.31
674.643	43.31
674.765	13.31
674.887	24.31
675.009	5.31
675.132	22.31
675.254	2.31
675.376	24.31
675.498	5.31
675.62	14.31
675.743	-0.69
675.865	17.31
675.987	6.31
676.109	22.31
676.231	21.31
676.354	46.31
676.476	1.31
676.598	22.31
676.72	9.31
676.842	21.31
676.965	19.31
677.087	18.31
677.209	33.31
677.331	28.31
677.453	13.31
677.576	30.31
677.698	9.31
677.82	31.31
677.942	11.31
678.064	23.31
678.187	21.31
678.309	18.31
678.431	-4.69
678.553	33.31
678.675	13.31
678.798	30.31
678.92	21.31
679.042	26.31
679.164	16.31
679.286	46.31
679.409	5.31
679.531	2.31
679.653	7.31
679.775	5.31
679.898	3.31
680.02	12.31
680.142	13.31
680.264	21.31
680.386	5.31
680.509	28.31
680.631	32.31
680.753	26.31
680.875	1.31
680.998	18.31
681.12	10.31
681.242	18.31
681.364	6.31
681.486	5.31
681.609	-16.69
681.731	-0.69
681.853	14.31
681.975	27.31
682.098	10.31
682.22	27.31
682.342	8.31
682.464	41.31
682.587	9.31
682.709	1.31
682.831	-5.69
682.953	1.31
683.076	0.31
683.198	28.31
683.32	15.31
683.442	19.31
683.565	13.31
683.687	3.31
683.809	16.31
683.931	5.31
684.054	17.31
684.176	26.31
684.298	17.31
684.42	14.31
684.543	1.31
684.665	32.31
684.787	2.31
684.909	2.31
685.032	15.31
685.154	9.31
685.276	7.31
685.398	17.31
685.521	-10.69
685.643	15.31
685.765	-1.69
685.887	26.31
686.01	2.31
686.132	7.31
686.254	22.31
686.377	19.31
686.499	14.31
686.621	38.31
686.743	21.31
686.866	8.31
686.988	13.31
687.11	22.31
687.232	1.31
687.355	2.31
687.477	17.31
687.599	16.31
687.722	1.31
687.844	25.31
687.966	3.31
688.088	-0.69
688.211	27.31
688.333	22.31
688.455	9.31
688.578	35.31
688.7	22.31
688.822	11.31
688.944	1.31
689.067	67.31
689.189	25.31
689.311	5.31
689.434	4.31
689.556	11.31
689.678	21.31
689.801	14.31
689.923	21.31
690.045	17.31
690.167	27.31
690.29	29.31
690.412	5.31
690.534	27.31
690.657	-2.69
690.779	16.31
690.901	7.31
691.024	7.31
691.146	-6.69
691.268	7.31
691.391	13.31
691.513	18.31
691.635	18.31
691.758	39.31
691.88	21.31
692.002	6.31
692.125	9.31
692.247	17.31
692.369	-3.69
692.492	7.31
692.614	-5.69
692.736	4.31
692.859	4.31
692.981	1.31
693.103	17.31
693.226	19.31
693.348	25.31
693.47	7.31
693.593	2.31
693.715	0.31
693.837	-10.69
693.96	-2.69
694.082	-1.69
694.204	16.31
694.327	7.31
694.449	-1.69
694.571	9.31
694.694	8.31
694.816	11.31
694.938	5.31
695.061	7.31
695.183	22.31
695.305	15.31
695.428	28.31
695.55	-7.69
695.672	-7.69
695.795	24.31
695.917	35.31
696.04	-0.69
696.162	13.31
696.284	-7.69
696.407	4.31
696.529	11.31
696.651	36.31
696.774	-6.69
696.896	27.31
697.019	7.31
697.141	13.31
697.263	7.31
697.386	9.31
697.508	14.31
697.63	31.31
697.753	23.31
697.875	23.31
697.998	6.31
698.12	13.31
698.242	21.31
698.365	30.31
698.487	-4.69
698.61	23.31
698.732	21.31
698.854	22.31
698.977	4.31
699.099	17.31
699.221	5.31
699.344	12.31
699.466	3.31
699.589	17.31
699.711	10.31
699.834	15.31
699.956	20.31
700.078	10.31
700.201	-4.69
700.323	27.31
700.446	7.31
700.568	6.31
700.69	13.31
700.813	22.31
700.935	5.31
701.058	7.31
701.18	-5.69
701.302	14.31
701.425	8.31
701.547	27.31
701.67	11.31
701.792	9.31
701.915	-1.69
702.037	18.31
702.159	25.31
702.282	9.31
702.404	0.31
702.527	22.31
702.649	39.31
702.772	14.31
702.894	1.31
703.017	4.31
703.139	5.31
703.261	19.31
703.384	10.31
703.506	-3.69
703.629	10.31
703.751	20.31
703.874	9.31
703.996	6.31
704.119	7.31
704.241	23.31
704.364	-6.69
704.486	14.31
704.608	10.31
704.731	8.31
704.853	9.31
704.976	-7.69
705.098	-1.69
705.221	5.31
705.343	14.31
705.466	21.31
705.588	4.31
705.711	29.31
705.833	25.31
705.956	15.31
706.078	15.31
706.201	14.31
706.323	7.31
706.446	17.31
