Data from LowRes_H2_15_26_11_07_2024_HR4C61881__14__15-28-15-037.txt Node

Date: Thu Nov 07 15:28:15 EST 2024
User: crc00042
Spectrometer: HR4C6188
Trigger mode: 4
Integration Time (sec): 1.000000E-1
Scans to average: 1
Electric dark correction enabled: true
Nonlinearity correction enabled: false
Boxcar width: 0
XAxis mode: Wavelengths
Number of Pixels in Spectrum: 3648
>>>>>Begin Spectral Data<<<<<
245.66	-107.38
245.797	-107.38
245.934	-107.38
246.071	-79.38
246.208	2.62
246.344	-4.38
246.481	-20.38
246.618	-10.38
246.755	19.62
246.892	17.62
247.029	-9.38
247.165	-19.38
247.302	5.62
247.439	17.62
247.576	8.62
247.713	-21.38
247.849	30.62
247.986	-14.38
248.123	3.62
248.26	-11.38
248.396	-0.38
248.533	1.62
248.67	0.62
248.806	16.62
248.943	-4.38
249.08	-5.38
249.216	7.62
249.353	-21.38
249.49	-10.38
249.626	-2.38
249.763	-2.38
249.9	-4.38
250.036	0.62
250.173	20.62
250.309	-6.38
250.446	-3.38
250.582	-12.38
250.719	5.62
250.856	9.62
250.992	-6.38
251.129	-10.38
251.265	-9.38
251.402	-6.38
251.538	-5.38
251.675	-5.38
251.811	8.62
251.948	27.62
252.084	10.62
252.221	-6.38
252.357	-16.38
252.493	22.62
252.63	-4.38
252.766	22.62
252.903	-9.38
253.039	4.62
253.175	-0.38
253.312	14.62
253.448	2.62
253.585	-29.38
253.721	0.62
253.857	-9.38
253.994	19.62
254.13	-1.38
254.266	2.62
254.403	9.62
254.539	7.62
254.675	-7.38
254.811	0.62
254.948	-4.38
255.084	-15.38
255.22	-4.38
255.356	12.62
255.493	17.62
255.629	6.62
255.765	-6.38
255.901	6.62
256.037	2.62
256.174	8.62
256.31	1.62
256.446	9.62
256.582	3.62
256.718	4.62
256.854	24.62
256.991	19.62
257.127	23.62
257.263	3.62
257.399	8.62
257.535	0.62
257.671	-9.38
257.807	0.62
257.943	-11.38
258.079	-0.38
258.215	5.62
258.351	29.62
258.487	20.62
258.623	38.62
258.759	-3.38
258.895	-6.38
259.031	-5.38
259.167	-13.38
259.303	22.62
259.439	-12.38
259.575	-21.38
259.711	-8.38
259.847	12.62
259.983	-3.38
260.119	-8.38
260.255	-20.38
260.391	10.62
260.527	6.62
260.663	11.62
260.799	9.62
260.934	-2.38
261.07	-2.38
261.206	-26.38
261.342	-21.38
261.478	19.62
261.614	0.62
261.749	-5.38
261.885	8.62
262.021	4.62
262.157	18.62
262.293	-2.38
262.428	-8.38
262.564	-2.38
262.7	11.62
262.836	16.62
262.971	36.62
263.107	10.62
263.243	12.62
263.378	7.62
263.514	-8.38
263.65	-6.38
263.785	-21.38
263.921	-2.38
264.057	6.62
264.192	11.62
264.328	-2.38
264.464	-11.38
264.599	17.62
264.735	24.62
264.871	-11.38
265.006	-4.38
265.142	15.62
265.277	6.62
265.413	5.62
265.548	20.62
265.684	16.62
265.819	2.62
265.955	-2.38
266.091	-20.38
266.226	-12.38
266.362	9.62
266.497	29.62
266.633	11.62
266.768	-7.38
266.903	11.62
267.039	13.62
267.174	14.62
267.31	11.62
267.445	10.62
267.581	16.62
267.716	9.62
267.851	4.62
267.987	10.62
268.122	11.62
268.258	-15.38
268.393	-0.38
268.528	8.62
268.664	-2.38
268.799	-10.38
268.934	-2.38
269.07	-11.38
269.205	13.62
269.34	22.62
269.476	2.62
269.611	-2.38
269.746	14.62
269.881	26.62
270.017	13.62
270.152	-2.38
270.287	4.62
270.422	-1.38
270.558	-16.38
270.693	4.62
270.828	-9.38
270.963	-1.38
271.098	-3.38
271.234	-0.38
271.369	5.62
271.504	12.62
271.639	-16.38
271.774	3.62
271.909	-24.38
272.045	-12.38
272.18	-10.38
272.315	-9.38
272.45	5.62
272.585	-11.38
272.72	-14.38
272.855	-5.38
272.99	6.62
273.125	3.62
273.26	-22.38
273.395	-18.38
273.53	-11.38
273.665	9.62
273.8	2.62
273.935	7.62
274.07	-16.38
274.205	6.62
274.34	-2.38
274.475	-0.38
274.61	14.62
274.745	5.62
274.88	9.62
275.015	-11.38
275.15	-4.38
275.285	3.62
275.42	1.62
275.555	2.62
275.69	22.62
275.825	-14.38
275.959	6.62
276.094	2.62
276.229	7.62
276.364	-20.38
276.499	-2.38
276.634	2.62
276.768	-12.38
276.903	-0.38
277.038	19.62
277.173	6.62
277.308	3.62
277.442	-12.38
277.577	-14.38
277.712	2.62
277.847	18.62
277.981	16.62
278.116	-7.38
278.251	5.62
278.386	11.62
278.52	11.62
278.655	-5.38
278.79	11.62
278.924	4.62
279.059	20.62
279.194	6.62
279.328	45.62
279.463	27.62
279.598	28.62
279.732	7.62
279.867	20.62
280.001	-12.38
280.136	-10.38
280.271	5.62
280.405	27.62
280.54	-9.38
280.674	-19.38
280.809	-4.38
280.943	-1.38
281.078	-3.38
281.213	10.62
281.347	7.62
281.482	9.62
281.616	3.62
281.751	-0.38
281.885	-9.38
282.02	-6.38
282.154	10.62
282.288	-17.38
282.423	13.62
282.557	-11.38
282.692	7.62
282.826	3.62
282.961	14.62
283.095	6.62
283.229	3.62
283.364	-9.38
283.498	8.62
283.633	-0.38
283.767	13.62
283.901	3.62
284.036	3.62
284.17	-8.38
284.304	-16.38
284.439	8.62
284.573	-6.38
284.707	13.62
284.842	-10.38
284.976	7.62
285.11	-0.38
285.244	34.62
285.379	65.62
285.513	-1.38
285.647	8.62
285.781	-3.38
285.916	8.62
286.05	8.62
286.184	12.62
286.318	28.62
286.453	-5.38
286.587	-12.38
286.721	-21.38
286.855	-14.38
286.989	-0.38
287.123	0.62
287.258	-15.38
287.392	5.62
287.526	17.62
287.66	-0.38
287.794	10.62
287.928	-9.38
288.062	16.62
288.196	-0.38
288.33	11.62
288.464	10.62
288.598	13.62
288.733	7.62
288.867	13.62
289.001	16.62
289.135	1.62
289.269	-25.38
289.403	-3.38
289.537	-7.38
289.671	-0.38
289.805	-6.38
289.939	3.62
290.073	8.62
290.207	20.62
290.34	-13.38
290.474	7.62
290.608	6.62
290.742	-0.38
290.876	-5.38
291.01	-14.38
291.144	43.62
291.278	19.62
291.412	2.62
291.546	-5.38
291.679	6.62
291.813	-1.38
291.947	-3.38
292.081	-11.38
292.215	-11.38
292.349	10.62
292.482	17.62
292.616	7.62
292.75	-11.38
292.884	5.62
293.018	-11.38
293.151	-36.38
293.285	6.62
293.419	-4.38
293.553	1.62
293.686	-14.38
293.82	0.62
293.954	1.62
294.088	8.62
294.221	-3.38
294.355	-6.38
294.489	0.62
294.622	8.62
294.756	-0.38
294.89	-0.38
295.023	11.62
295.157	13.62
295.291	-9.38
295.424	34.62
295.558	11.62
295.691	1.62
295.825	5.62
295.959	-4.38
296.092	1.62
296.226	-7.38
296.359	0.62
296.493	-8.38
296.627	-2.38
296.76	11.62
296.894	0.62
297.027	2.62
297.161	-19.38
297.294	-11.38
297.428	-0.38
297.561	37.62
297.695	-13.38
297.828	-9.38
297.962	-4.38
298.095	-5.38
298.229	-8.38
298.362	-7.38
298.495	-14.38
298.629	-10.38
298.762	0.62
298.896	-1.38
299.029	4.62
299.162	3.62
299.296	-7.38
299.429	-20.38
299.563	-3.38
299.696	1.62
299.829	13.62
299.963	19.62
300.096	-0.38
300.229	11.62
300.363	13.62
300.496	11.62
300.629	-10.38
300.763	-0.38
300.896	17.62
301.029	12.62
301.162	-7.38
301.296	-17.38
301.429	9.62
301.562	-14.38
301.695	2.62
301.829	-2.38
301.962	20.62
302.095	3.62
302.228	3.62
302.362	-2.38
302.495	-16.38
302.628	7.62
302.761	-1.38
302.894	20.62
303.027	14.62
303.161	-10.38
303.294	-16.38
303.427	-6.38
303.56	8.62
303.693	3.62
303.826	-16.38
303.959	-11.38
304.092	0.62
304.225	8.62
304.359	0.62
304.492	-3.38
304.625	-24.38
304.758	6.62
304.891	-7.38
305.024	14.62
305.157	-4.38
305.29	-0.38
305.423	6.62
305.556	22.62
305.689	12.62
305.822	-4.38
305.955	-1.38
306.088	-2.38
306.221	-9.38
306.354	-11.38
306.487	-22.38
306.62	-17.38
306.752	8.62
306.885	-0.38
307.018	8.62
307.151	8.62
307.284	21.62
307.417	-8.38
307.55	5.62
307.683	6.62
307.816	19.62
307.948	12.62
308.081	17.62
308.214	15.62
308.347	13.62
308.48	-8.38
308.613	-21.38
308.745	1.62
308.878	2.62
309.011	13.62
309.144	16.62
309.277	-7.38
309.409	13.62
309.542	1.62
309.675	7.62
309.808	9.62
309.94	25.62
310.073	-5.38
310.206	4.62
310.339	-0.38
310.471	-26.38
310.604	17.62
310.737	11.62
310.869	14.62
311.002	3.62
311.135	-0.38
311.267	-21.38
311.4	1.62
311.533	31.62
311.665	-0.38
311.798	-7.38
311.93	6.62
312.063	-2.38
312.196	2.62
312.328	2.62
312.461	1.62
312.593	12.62
312.726	11.62
312.859	-9.38
312.991	-3.38
313.124	-23.38
313.256	-8.38
313.389	12.62
313.521	-7.38
313.654	-4.38
313.786	-7.38
313.919	-20.38
314.051	3.62
314.184	0.62
314.316	9.62
314.449	-35.38
314.581	-20.38
314.714	2.62
314.846	0.62
314.978	-12.38
315.111	2.62
315.243	4.62
315.376	22.62
315.508	10.62
315.641	2.62
315.773	21.62
315.905	-6.38
316.038	-3.38
316.17	0.62
316.302	4.62
316.435	-7.38
316.567	-3.38
316.699	20.62
316.832	-13.38
316.964	-9.38
317.096	-13.38
317.229	-11.38
317.361	-15.38
317.493	-9.38
317.625	3.62
317.758	13.62
317.89	19.62
318.022	5.62
318.155	-15.38
318.287	2.62
318.419	-3.38
318.551	16.62
318.683	-0.38
318.816	-15.38
318.948	-16.38
319.08	-4.38
319.212	9.62
319.344	3.62
319.477	-4.38
319.609	11.62
319.741	13.62
319.873	-6.38
320.005	-7.38
320.137	0.62
320.269	4.62
320.401	8.62
320.534	-2.38
320.666	-22.38
320.798	-5.38
320.93	-12.38
321.062	-11.38
321.194	-10.38
321.326	-3.38
321.458	32.62
321.59	15.62
321.722	-0.38
321.854	2.62
321.986	-4.38
322.118	4.62
322.25	-15.38
322.382	7.62
322.514	-6.38
322.646	-5.38
322.778	3.62
322.91	1.62
323.042	24.62
323.174	3.62
323.306	-7.38
323.438	-14.38
323.57	2.62
323.702	-2.38
323.834	-3.38
323.966	-6.38
324.097	5.62
324.229	15.62
324.361	4.62
324.493	3.62
324.625	-13.38
324.757	18.62
324.889	4.62
325.021	5.62
325.152	7.62
325.284	-11.38
325.416	-8.38
325.548	12.62
325.68	-13.38
325.811	26.62
325.943	5.62
326.075	-26.38
326.207	1.62
326.339	2.62
326.47	-2.38
326.602	15.62
326.734	7.62
326.866	-15.38
326.997	-21.38
327.129	-0.38
327.261	-26.38
327.392	1.62
327.524	13.62
327.656	3.62
327.787	0.62
327.919	-1.38
328.051	2.62
328.182	20.62
328.314	24.62
328.446	4.62
328.577	16.62
328.709	14.62
328.841	-1.38
328.972	-18.38
329.104	-9.38
329.235	-0.38
329.367	-17.38
329.499	-2.38
329.63	5.62
329.762	17.62
329.893	11.62
330.025	-0.38
330.156	-11.38
330.288	2.62
330.419	29.62
330.551	23.62
330.683	16.62
330.814	-8.38
330.946	10.62
331.077	1.62
331.208	3.62
331.34	-20.38
331.471	-19.38
331.603	-3.38
331.734	-3.38
331.866	3.62
331.997	14.62
332.129	-0.38
332.26	4.62
332.392	25.62
332.523	-5.38
332.654	-26.38
332.786	-14.38
332.917	-17.38
333.048	1.62
333.18	13.62
333.311	-10.38
333.443	-1.38
333.574	-8.38
333.705	14.62
333.837	-5.38
333.968	9.62
334.099	7.62
334.231	27.62
334.362	10.62
334.493	23.62
334.624	12.62
334.756	-12.38
334.887	8.62
335.018	4.62
335.15	13.62
335.281	-10.38
335.412	13.62
335.543	12.62
335.675	11.62
335.806	0.62
335.937	-4.38
336.068	2.62
336.199	17.62
336.331	-4.38
336.462	-9.38
336.593	4.62
336.724	16.62
336.855	11.62
336.986	13.62
337.118	13.62
337.249	25.62
337.38	4.62
337.511	6.62
337.642	3.62
337.773	3.62
337.904	-7.38
338.035	24.62
338.166	-3.38
338.298	8.62
338.429	-12.38
338.56	-7.38
338.691	15.62
338.822	7.62
338.953	8.62
339.084	19.62
339.215	0.62
339.346	-5.38
339.477	-1.38
339.608	3.62
339.739	-13.38
339.87	-5.38
340.001	8.62
340.132	12.62
340.263	-5.38
340.394	-2.38
340.525	6.62
340.656	-7.38
340.787	-24.38
340.918	20.62
341.049	11.62
341.179	20.62
341.31	6.62
341.441	4.62
341.572	8.62
341.703	-0.38
341.834	-10.38
341.965	29.62
342.096	3.62
342.227	11.62
342.357	12.62
342.488	-12.38
342.619	6.62
342.75	10.62
342.881	-20.38
343.012	11.62
343.142	27.62
343.273	3.62
343.404	9.62
343.535	47.62
343.666	14.62
343.796	10.62
343.927	6.62
344.058	17.62
344.189	12.62
344.319	5.62
344.45	-1.38
344.581	-4.38
344.712	-13.38
344.842	0.62
344.973	-4.38
345.104	8.62
345.234	-9.38
345.365	-7.38
345.496	0.62
345.626	8.62
345.757	-9.38
345.888	-1.38
346.018	7.62
346.149	13.62
346.28	25.62
346.41	-9.38
346.541	15.62
346.672	-0.38
346.802	16.62
346.933	-11.38
347.063	3.62
347.194	11.62
347.325	6.62
347.455	10.62
347.586	3.62
347.716	-14.38
347.847	3.62
347.977	7.62
348.108	3.62
348.238	6.62
348.369	-1.38
348.499	25.62
348.63	16.62
348.76	8.62
348.891	25.62
349.021	5.62
349.152	7.62
349.282	12.62
349.413	-4.38
349.543	18.62
349.674	1.62
349.804	16.62
349.935	-5.38
350.065	-0.38
350.196	-8.38
350.326	20.62
350.456	-3.38
350.587	27.62
350.717	0.62
350.848	25.62
350.978	14.62
351.108	-7.38
351.239	19.62
351.369	4.62
351.499	10.62
351.63	12.62
351.76	-16.38
351.89	-10.38
352.021	-8.38
352.151	7.62
352.281	28.62
352.412	21.62
352.542	10.62
352.672	2.62
352.803	2.62
352.933	9.62
353.063	3.62
353.193	9.62
353.324	6.62
353.454	-3.38
353.584	18.62
353.714	8.62
353.845	9.62
353.975	-4.38
354.105	6.62
354.235	9.62
354.365	12.62
354.496	14.62
354.626	21.62
354.756	21.62
354.886	13.62
355.016	6.62
355.146	-10.38
355.277	3.62
355.407	-0.38
355.537	9.62
355.667	10.62
355.797	8.62
355.927	-7.38
356.057	13.62
356.187	-6.38
356.318	-3.38
356.448	-0.38
356.578	-1.38
356.708	15.62
356.838	9.62
356.968	21.62
357.098	11.62
357.228	36.62
357.358	-9.38
357.488	-23.38
357.618	29.62
357.748	8.62
357.878	7.62
358.008	-7.38
358.138	-2.38
358.268	3.62
358.398	11.62
358.528	-14.38
358.658	3.62
358.788	17.62
358.918	33.62
359.048	14.62
359.178	16.62
359.308	-5.38
359.438	41.62
359.568	8.62
359.698	-6.38
359.827	-13.38
359.957	1.62
360.087	9.62
360.217	-12.38
360.347	8.62
360.477	20.62
360.607	-16.38
360.737	9.62
360.866	-10.38
360.996	-18.38
361.126	-9.38
361.256	33.62
361.386	22.62
361.516	15.62
361.645	-5.38
361.775	11.62
361.905	-7.38
362.035	6.62
362.165	-16.38
362.294	16.62
362.424	0.62
362.554	24.62
362.684	-13.38
362.813	13.62
362.943	-3.38
363.073	-10.38
363.203	-5.38
363.332	14.62
363.462	-10.38
363.592	1.62
363.721	-5.38
363.851	7.62
363.981	13.62
364.111	7.62
364.24	-6.38
364.37	33.62
364.5	4.62
364.629	2.62
364.759	-19.38
364.888	5.62
365.018	7.62
365.148	10.62
365.277	17.62
365.407	8.62
365.537	8.62
365.666	8.62
365.796	1.62
365.925	2.62
366.055	-8.38
366.184	3.62
366.314	0.62
366.444	9.62
366.573	9.62
366.703	8.62
366.832	5.62
366.962	19.62
367.091	24.62
367.221	8.62
367.35	10.62
367.48	53.62
367.609	18.62
367.739	1.62
367.868	-3.38
367.998	16.62
368.127	26.62
368.257	20.62
368.386	25.62
368.516	15.62
368.645	1.62
368.775	-7.38
368.904	-2.38
369.033	-4.38
369.163	0.62
369.292	15.62
369.422	3.62
369.551	23.62
369.68	32.62
369.81	11.62
369.939	-13.38
370.069	44.62
370.198	10.62
370.327	-4.38
370.457	-0.38
370.586	5.62
370.715	-2.38
370.845	-6.38
370.974	20.62
371.103	15.62
371.233	10.62
371.362	27.62
371.491	15.62
371.621	27.62
371.75	17.62
371.879	9.62
372.008	-8.38
372.138	3.62
372.267	1.62
372.396	-0.38
372.525	-2.38
372.655	14.62
372.784	10.62
372.913	-4.38
373.042	9.62
373.172	23.62
373.301	-3.38
373.43	5.62
373.559	5.62
373.688	3.62
373.818	24.62
373.947	7.62
374.076	8.62
374.205	15.62
374.334	-7.38
374.463	-4.38
374.593	23.62
374.722	21.62
374.851	28.62
374.98	-5.38
375.109	-7.38
375.238	-0.38
375.367	30.62
375.496	4.62
375.625	-20.38
375.755	19.62
375.884	28.62
376.013	19.62
376.142	-16.38
376.271	-1.38
376.4	2.62
376.529	-7.38
376.658	13.62
376.787	8.62
376.916	4.62
377.045	1.62
377.174	-7.38
377.303	-3.38
377.432	32.62
377.561	19.62
377.69	15.62
377.819	27.62
377.948	0.62
378.077	8.62
378.206	-3.38
378.335	-9.38
378.464	1.62
378.593	30.62
378.722	-13.38
378.851	-16.38
378.98	15.62
379.108	-2.38
379.237	-16.38
379.366	2.62
379.495	21.62
379.624	6.62
379.753	11.62
379.882	6.62
380.011	12.62
380.14	-10.38
380.268	11.62
380.397	3.62
380.526	35.62
380.655	-1.38
380.784	-2.38
380.913	-7.38
381.041	4.62
381.17	-21.38
381.299	3.62
381.428	4.62
381.557	10.62
381.685	15.62
381.814	14.62
381.943	1.62
382.072	17.62
382.2	-3.38
382.329	0.62
382.458	22.62
382.587	19.62
382.715	24.62
382.844	7.62
382.973	13.62
383.102	12.62
383.23	26.62
383.359	-0.38
383.488	25.62
383.616	11.62
383.745	-4.38
383.874	-7.38
384.003	-4.38
384.131	-16.38
384.26	1.62
384.389	17.62
384.517	-4.38
384.646	-13.38
384.774	5.62
384.903	30.62
385.032	17.62
385.16	4.62
385.289	-16.38
385.418	1.62
385.546	12.62
385.675	10.62
385.803	3.62
385.932	10.62
386.06	-4.38
386.189	10.62
386.318	-4.38
386.446	-10.38
386.575	1.62
386.703	23.62
386.832	2.62
386.96	-10.38
387.089	29.62
387.217	5.62
387.346	7.62
387.474	-6.38
387.603	13.62
387.731	9.62
387.86	8.62
387.988	9.62
388.117	15.62
388.245	4.62
388.374	3.62
388.502	5.62
388.631	-0.38
388.759	-4.38
388.888	14.62
389.016	6.62
389.144	-1.38
389.273	11.62
389.401	0.62
389.53	0.62
389.658	6.62
389.786	-1.38
389.915	-5.38
390.043	-3.38
390.172	-8.38
390.3	20.62
390.428	19.62
390.557	-5.38
390.685	16.62
390.813	9.62
390.942	5.62
391.07	19.62
391.198	-1.38
391.327	6.62
391.455	-10.38
391.583	20.62
391.712	9.62
391.84	6.62
391.968	10.62
392.096	-13.38
392.225	-5.38
392.353	8.62
392.481	11.62
392.609	19.62
392.738	-10.38
392.866	11.62
392.994	2.62
393.122	8.62
393.251	2.62
393.379	-6.38
393.507	-13.38
393.635	0.62
393.764	19.62
393.892	18.62
394.02	16.62
394.148	0.62
394.276	4.62
394.404	21.62
394.533	7.62
394.661	10.62
394.789	19.62
394.917	26.62
395.045	-17.38
395.173	-11.38
395.302	-2.38
395.43	2.62
395.558	28.62
395.686	16.62
395.814	18.62
395.942	4.62
396.07	6.62
396.198	14.62
396.326	4.62
396.454	18.62
396.582	1.62
396.711	-6.38
396.839	24.62
396.967	3.62
397.095	2.62
397.223	28.62
397.351	15.62
397.479	32.62
397.607	-5.38
397.735	-0.38
397.863	20.62
397.991	13.62
398.119	-20.38
398.247	-4.38
398.375	6.62
398.503	11.62
398.631	-4.38
398.759	-0.38
398.887	-1.38
399.015	-2.38
399.143	7.62
399.271	11.62
399.399	5.62
399.526	19.62
399.654	30.62
399.782	-4.38
399.91	12.62
400.038	30.62
400.166	18.62
400.294	-2.38
400.422	-8.38
400.55	-7.38
400.678	0.62
400.805	-8.38
400.933	18.62
401.061	6.62
401.189	-5.38
401.317	16.62
401.445	11.62
401.573	28.62
401.7	4.62
401.828	-25.38
401.956	19.62
402.084	16.62
402.212	1.62
402.34	21.62
402.467	11.62
402.595	12.62
402.723	1.62
402.851	21.62
402.978	17.62
403.106	17.62
403.234	15.62
403.362	23.62
403.489	9.62
403.617	5.62
403.745	-4.38
403.873	-8.38
404	25.62
404.128	35.62
404.256	12.62
404.384	18.62
404.511	11.62
404.639	-22.38
404.767	1.62
404.894	1.62
405.022	6.62
405.15	19.62
405.277	-11.38
405.405	-1.38
405.533	-5.38
405.66	-6.38
405.788	-8.38
405.916	-24.38
406.043	-6.38
406.171	-8.38
406.299	14.62
406.426	14.62
406.554	31.62
406.681	27.62
406.809	4.62
406.937	20.62
407.064	2.62
407.192	29.62
407.319	21.62
407.447	1.62
407.574	20.62
407.702	11.62
407.83	-10.38
407.957	-7.38
408.085	9.62
408.212	8.62
408.34	-3.38
408.467	-2.38
408.595	9.62
408.722	19.62
408.85	6.62
408.977	9.62
409.105	21.62
409.232	5.62
409.36	-1.38
409.487	-0.38
409.615	6.62
409.742	30.62
409.87	9.62
409.997	29.62
410.125	39.62
410.252	51.62
410.379	59.62
410.507	41.62
410.634	2.62
410.762	-3.38
410.889	29.62
411.017	8.62
411.144	1.62
411.271	4.62
411.399	-6.38
411.526	22.62
411.653	10.62
411.781	36.62
411.908	18.62
412.036	-13.38
412.163	19.62
412.29	11.62
412.418	6.62
412.545	-1.38
412.672	1.62
412.8	32.62
412.927	8.62
413.054	35.62
413.182	20.62
413.309	20.62
413.436	-11.38
413.564	-3.38
413.691	5.62
413.818	23.62
413.945	-3.38
414.073	3.62
414.2	-2.38
414.327	-3.38
414.454	4.62
414.582	12.62
414.709	-4.38
414.836	-2.38
414.963	8.62
415.091	20.62
415.218	5.62
415.345	-2.38
415.472	-8.38
415.6	-6.38
415.727	9.62
415.854	-6.38
415.981	1.62
416.108	-15.38
416.236	2.62
416.363	12.62
416.49	1.62
416.617	1.62
416.744	19.62
416.871	17.62
416.998	16.62
417.126	14.62
417.253	8.62
417.38	12.62
417.507	7.62
417.634	16.62
417.761	29.62
417.888	19.62
418.015	13.62
418.143	17.62
418.27	24.62
418.397	8.62
418.524	0.62
418.651	-4.38
418.778	20.62
418.905	37.62
419.032	21.62
419.159	-8.38
419.286	22.62
419.413	9.62
419.54	26.62
419.667	-6.38
419.794	-9.38
419.921	-2.38
420.048	-0.38
420.175	1.62
420.302	-7.38
420.429	-3.38
420.556	-4.38
420.683	-5.38
420.81	7.62
420.937	24.62
421.064	13.62
421.191	-2.38
421.318	10.62
421.445	23.62
421.572	-5.38
421.699	3.62
421.826	21.62
421.953	11.62
422.08	10.62
422.207	-8.38
422.334	3.62
422.461	19.62
422.588	1.62
422.714	19.62
422.841	16.62
422.968	5.62
423.095	-5.38
423.222	-3.38
423.349	11.62
423.476	6.62
423.603	2.62
423.729	6.62
423.856	-4.38
423.983	9.62
424.11	-2.38
424.237	2.62
424.364	12.62
424.491	14.62
424.617	-16.38
424.744	1.62
424.871	19.62
424.998	0.62
425.125	-11.38
425.251	10.62
425.378	7.62
425.505	12.62
425.632	0.62
425.758	-7.38
425.885	18.62
426.012	14.62
426.139	22.62
426.266	-8.38
426.392	12.62
426.519	15.62
426.646	11.62
426.772	24.62
426.899	3.62
427.026	1.62
427.153	5.62
427.279	32.62
427.406	24.62
427.533	-7.38
427.659	4.62
427.786	13.62
427.913	12.62
428.039	5.62
428.166	6.62
428.293	1.62
428.419	9.62
428.546	-5.38
428.673	-8.38
428.799	5.62
428.926	10.62
429.053	29.62
429.179	7.62
429.306	6.62
429.433	10.62
429.559	26.62
429.686	-1.38
429.812	8.62
429.939	3.62
430.066	8.62
430.192	1.62
430.319	6.62
430.445	1.62
430.572	12.62
430.699	-5.38
430.825	-0.38
430.952	9.62
431.078	12.62
431.205	12.62
431.331	6.62
431.458	-0.38
431.584	12.62
431.711	2.62
431.837	9.62
431.964	2.62
432.09	8.62
432.217	-8.38
432.343	8.62
432.47	22.62
432.596	6.62
432.723	7.62
432.849	-20.38
432.976	3.62
433.102	10.62
433.229	-15.38
433.355	19.62
433.482	63.62
433.608	143.62
433.735	155.62
433.861	129.62
433.987	147.62
434.114	220.62
434.24	195.62
434.367	64.62
434.493	-0.38
434.62	28.62
434.746	35.62
434.872	8.62
434.999	18.62
435.125	11.62
435.252	7.62
435.378	7.62
435.504	1.62
435.631	23.62
435.757	1.62
435.883	15.62
436.01	33.62
436.136	2.62
436.262	16.62
436.389	-3.38
436.515	7.62
436.641	9.62
436.768	21.62
436.894	26.62
437.02	18.62
437.147	27.62
437.273	15.62
437.399	-3.38
437.526	24.62
437.652	26.62
437.778	14.62
437.904	-3.38
438.031	-15.38
438.157	-3.38
438.283	5.62
438.409	7.62
438.536	-3.38
438.662	23.62
438.788	22.62
438.914	20.62
439.041	14.62
439.167	25.62
439.293	-3.38
439.419	11.62
439.546	16.62
439.672	3.62
439.798	32.62
439.924	24.62
440.05	15.62
440.177	22.62
440.303	11.62
440.429	7.62
440.555	18.62
440.681	3.62
440.807	15.62
440.934	14.62
441.06	15.62
441.186	12.62
441.312	3.62
441.438	8.62
441.564	25.62
441.69	22.62
441.816	12.62
441.943	1.62
442.069	14.62
442.195	26.62
442.321	17.62
442.447	-1.38
442.573	0.62
442.699	-6.38
442.825	0.62
442.951	35.62
443.077	34.62
443.203	29.62
443.33	12.62
443.456	-5.38
443.582	3.62
443.708	16.62
443.834	25.62
443.96	15.62
444.086	21.62
444.212	26.62
444.338	32.62
444.464	16.62
444.59	32.62
444.716	15.62
444.842	10.62
444.968	-0.38
445.094	1.62
445.22	3.62
445.346	-3.38
445.472	-0.38
445.598	11.62
445.724	-1.38
445.85	2.62
445.976	28.62
446.102	11.62
446.228	25.62
446.354	14.62
446.48	-4.38
446.605	5.62
446.731	12.62
446.857	7.62
446.983	13.62
447.109	3.62
447.235	28.62
447.361	-11.38
447.487	15.62
447.613	3.62
447.739	8.62
447.865	9.62
447.99	18.62
448.116	7.62
448.242	12.62
448.368	14.62
448.494	8.62
448.62	12.62
448.746	-4.38
448.872	7.62
448.997	3.62
449.123	-0.38
449.249	34.62
449.375	19.62
449.501	3.62
449.627	1.62
449.752	8.62
449.878	3.62
450.004	-19.38
450.13	3.62
450.256	18.62
450.381	-1.38
450.507	21.62
450.633	21.62
450.759	29.62
450.884	-1.38
451.01	21.62
451.136	-0.38
451.262	12.62
451.388	4.62
451.513	-19.38
451.639	5.62
451.765	-2.38
451.89	2.62
452.016	15.62
452.142	0.62
452.268	21.62
452.393	8.62
452.519	-16.38
452.645	-10.38
452.771	2.62
452.896	-15.38
453.022	5.62
453.148	15.62
453.273	10.62
453.399	-3.38
453.525	1.62
453.65	-8.38
453.776	19.62
453.902	12.62
454.027	19.62
454.153	24.62
454.279	29.62
454.404	2.62
454.53	20.62
454.656	33.62
454.781	6.62
454.907	-0.38
455.032	20.62
455.158	43.62
455.284	41.62
455.409	25.62
455.535	13.62
455.66	9.62
455.786	17.62
455.912	22.62
456.037	-0.38
456.163	11.62
456.288	18.62
456.414	-2.38
456.539	-7.38
456.665	21.62
456.791	7.62
456.916	-3.38
457.042	14.62
457.167	-15.38
457.293	13.62
457.418	11.62
457.544	6.62
457.669	8.62
457.795	14.62
457.92	-0.38
458.046	16.62
458.171	6.62
458.297	-11.38
458.422	4.62
458.548	-10.38
458.673	26.62
458.799	8.62
458.924	2.62
459.05	8.62
459.175	3.62
459.301	11.62
459.426	32.62
459.552	1.62
459.677	-4.38
459.803	19.62
459.928	13.62
460.053	13.62
460.179	3.62
460.304	24.62
460.43	14.62
460.555	8.62
460.681	-5.38
460.806	14.62
460.931	14.62
461.057	23.62
461.182	23.62
461.308	27.62
461.433	19.62
461.558	-1.38
461.684	15.62
461.809	33.62
461.934	15.62
462.06	19.62
462.185	-3.38
462.311	20.62
462.436	10.62
462.561	-8.38
462.687	1.62
462.812	19.62
462.937	-12.38
463.063	6.62
463.188	10.62
463.313	20.62
463.439	4.62
463.564	-11.38
463.689	18.62
463.814	1.62
463.94	4.62
464.065	8.62
464.19	10.62
464.316	-8.38
464.441	-7.38
464.566	4.62
464.692	-2.38
464.817	10.62
464.942	3.62
465.067	12.62
465.193	-5.38
465.318	8.62
465.443	-10.38
465.568	10.62
465.694	1.62
465.819	24.62
465.944	-2.38
466.069	7.62
466.194	13.62
466.32	21.62
466.445	12.62
466.57	-2.38
466.695	3.62
466.82	12.62
466.946	15.62
467.071	12.62
467.196	4.62
467.321	20.62
467.446	-4.38
467.572	4.62
467.697	-13.38
467.822	19.62
467.947	12.62
468.072	-9.38
468.197	10.62
468.323	10.62
468.448	20.62
468.573	12.62
468.698	-8.38
468.823	0.62
468.948	21.62
469.073	2.62
469.198	11.62
469.324	27.62
469.449	5.62
469.574	15.62
469.699	31.62
469.824	25.62
469.949	19.62
470.074	0.62
470.199	24.62
470.324	15.62
470.449	11.62
470.574	-3.38
470.7	5.62
470.825	14.62
470.95	30.62
471.075	-0.38
471.2	13.62
471.325	-1.38
471.45	10.62
471.575	12.62
471.7	31.62
471.825	-6.38
471.95	11.62
472.075	-11.38
472.2	17.62
472.325	13.62
472.45	-1.38
472.575	24.62
472.7	9.62
472.825	29.62
472.95	19.62
473.075	12.62
473.2	12.62
473.325	5.62
473.45	1.62
473.575	-13.38
473.7	2.62
473.825	11.62
473.95	24.62
474.075	19.62
474.2	5.62
474.325	8.62
474.45	24.62
474.574	21.62
474.699	17.62
474.824	19.62
474.949	13.62
475.074	4.62
475.199	8.62
475.324	19.62
475.449	2.62
475.574	22.62
475.699	16.62
475.824	16.62
475.949	7.62
476.073	4.62
476.198	19.62
476.323	27.62
476.448	21.62
476.573	6.62
476.698	10.62
476.823	10.62
476.947	7.62
477.072	5.62
477.197	1.62
477.322	3.62
477.447	7.62
477.572	13.62
477.697	13.62
477.821	15.62
477.946	28.62
478.071	29.62
478.196	10.62
478.321	6.62
478.445	6.62
478.57	-7.38
478.695	0.62
478.82	29.62
478.945	26.62
479.069	3.62
479.194	12.62
479.319	24.62
479.444	19.62
479.569	-7.38
479.693	11.62
479.818	3.62
479.943	13.62
480.068	10.62
480.192	20.62
480.317	13.62
480.442	18.62
480.567	17.62
480.691	24.62
480.816	14.62
480.941	1.62
481.066	20.62
481.19	5.62
481.315	19.62
481.44	20.62
481.564	-0.38
481.689	16.62
481.814	9.62
481.938	11.62
482.063	14.62
482.188	28.62
482.313	29.62
482.437	16.62
482.562	28.62
482.687	22.62
482.811	34.62
482.936	21.62
483.061	37.62
483.185	21.62
483.31	18.62
483.435	12.62
483.559	29.62
483.684	19.62
483.808	31.62
483.933	9.62
484.058	2.62
484.182	1.62
484.307	-3.38
484.432	8.62
484.556	22.62
484.681	3.62
484.805	14.62
484.93	31.62
485.055	35.62
485.179	81.62
485.304	103.62
485.428	362.62
485.553	1258.62
485.678	1716.62
485.802	1569.62
485.927	1777.62
486.051	2643.62
486.176	1577.62
486.3	445.62
486.425	143.62
486.549	81.62
486.674	71.62
486.799	40.62
486.923	29.62
487.048	27.62
487.172	12.62
487.297	25.62
487.421	32.62
487.546	34.62
487.67	21.62
487.795	-0.38
487.919	25.62
488.044	14.62
488.168	29.62
488.293	21.62
488.417	13.62
488.542	28.62
488.666	36.62
488.791	25.62
488.915	15.62
489.04	11.62
489.164	14.62
489.289	41.62
489.413	7.62
489.538	15.62
489.662	25.62
489.786	16.62
489.911	11.62
490.035	18.62
490.16	20.62
490.284	18.62
490.409	1.62
490.533	-6.38
490.658	25.62
490.782	19.62
490.906	5.62
491.031	13.62
491.155	12.62
491.28	13.62
491.404	5.62
491.528	40.62
491.653	9.62
491.777	46.62
491.902	19.62
492.026	6.62
492.15	25.62
492.275	28.62
492.399	39.62
492.524	16.62
492.648	26.62
492.772	24.62
492.897	28.62
493.021	16.62
493.145	16.62
493.27	32.62
493.394	8.62
493.518	14.62
493.643	17.62
493.767	35.62
493.891	-1.38
494.016	7.62
494.14	16.62
494.264	27.62
494.389	12.62
494.513	14.62
494.637	-0.38
494.762	27.62
494.886	16.62
495.01	10.62
495.134	28.62
495.259	28.62
495.383	10.62
495.507	7.62
495.632	43.62
495.756	45.62
495.88	11.62
496.004	11.62
496.129	8.62
496.253	30.62
496.377	0.62
496.501	29.62
496.626	-8.38
496.75	8.62
496.874	17.62
496.998	3.62
497.123	27.62
497.247	12.62
497.371	16.62
497.495	15.62
497.62	21.62
497.744	2.62
497.868	0.62
497.992	17.62
498.116	4.62
498.241	23.62
498.365	-2.38
498.489	4.62
498.613	27.62
498.737	6.62
498.862	13.62
498.986	0.62
499.11	-0.38
499.234	6.62
499.358	-11.38
499.482	10.62
499.607	21.62
499.731	29.62
499.855	41.62
499.979	27.62
500.103	14.62
500.227	16.62
500.351	13.62
500.476	8.62
500.6	2.62
500.724	25.62
500.848	6.62
500.972	3.62
501.096	11.62
501.22	30.62
501.344	19.62
501.469	11.62
501.593	-0.38
501.717	25.62
501.841	-0.38
501.965	2.62
502.089	11.62
502.213	24.62
502.337	7.62
502.461	-2.38
502.585	-1.38
502.709	-5.38
502.834	4.62
502.958	15.62
503.082	5.62
503.206	14.62
503.33	37.62
503.454	35.62
503.578	21.62
503.702	12.62
503.826	12.62
503.95	21.62
504.074	-5.38
504.198	14.62
504.322	7.62
504.446	-6.38
504.57	13.62
504.694	13.62
504.818	19.62
504.942	25.62
505.066	-0.38
505.19	13.62
505.314	-0.38
505.438	11.62
505.562	19.62
505.686	20.62
505.81	7.62
505.934	17.62
506.058	-1.38
506.182	24.62
506.306	29.62
506.43	0.62
506.554	5.62
506.678	3.62
506.802	15.62
506.926	21.62
507.05	17.62
507.174	27.62
507.298	25.62
507.422	16.62
507.546	23.62
507.67	23.62
507.794	-5.38
507.918	6.62
508.042	-14.38
508.165	-14.38
508.289	4.62
508.413	1.62
508.537	6.62
508.661	25.62
508.785	10.62
508.909	19.62
509.033	6.62
509.157	15.62
509.281	6.62
509.405	-2.38
509.528	10.62
509.652	15.62
509.776	9.62
509.9	29.62
510.024	5.62
510.148	6.62
510.272	21.62
510.396	34.62
510.519	-0.38
510.643	14.62
510.767	8.62
510.891	2.62
511.015	7.62
511.139	27.62
511.263	15.62
511.386	15.62
511.51	26.62
511.634	12.62
511.758	11.62
511.882	7.62
512.006	24.62
512.129	7.62
512.253	47.62
512.377	17.62
512.501	28.62
512.625	13.62
512.748	3.62
512.872	-6.38
512.996	9.62
513.12	14.62
513.244	-6.38
513.367	11.62
513.491	20.62
513.615	38.62
513.739	6.62
513.862	12.62
513.986	13.62
514.11	17.62
514.234	12.62
514.358	32.62
514.481	21.62
514.605	9.62
514.729	8.62
514.853	32.62
514.976	4.62
515.1	9.62
515.224	22.62
515.348	8.62
515.471	8.62
515.595	9.62
515.719	16.62
515.842	25.62
515.966	10.62
516.09	25.62
516.214	-3.38
516.337	40.62
516.461	51.62
516.585	18.62
516.708	28.62
516.832	23.62
516.956	23.62
517.08	24.62
517.203	14.62
517.327	13.62
517.451	23.62
517.574	34.62
517.698	8.62
517.822	24.62
517.945	19.62
518.069	44.62
518.193	49.62
518.316	37.62
518.44	14.62
518.564	17.62
518.687	11.62
518.811	29.62
518.935	54.62
519.058	36.62
519.182	34.62
519.306	33.62
519.429	20.62
519.553	47.62
519.676	27.62
519.8	17.62
519.924	17.62
520.047	21.62
520.171	16.62
520.294	4.62
520.418	35.62
520.542	-6.38
520.665	19.62
520.789	11.62
520.913	2.62
521.036	-28.38
521.16	-4.38
521.283	5.62
521.407	9.62
521.53	-11.38
521.654	-12.38
521.778	16.62
521.901	7.62
522.025	17.62
522.148	9.62
522.272	15.62
522.395	20.62
522.519	30.62
522.643	14.62
522.766	8.62
522.89	5.62
523.013	37.62
523.137	-9.38
523.26	3.62
523.384	19.62
523.507	22.62
523.631	6.62
523.754	-3.38
523.878	13.62
524.002	9.62
524.125	-5.38
524.249	-19.38
524.372	10.62
524.496	10.62
524.619	8.62
524.743	10.62
524.866	8.62
524.99	13.62
525.113	-3.38
525.237	21.62
525.36	17.62
525.484	11.62
525.607	-9.38
525.731	-6.38
525.854	17.62
525.978	31.62
526.101	8.62
526.224	2.62
526.348	8.62
526.471	13.62
526.595	20.62
526.718	4.62
526.842	-0.38
526.965	8.62
527.089	7.62
527.212	16.62
527.336	12.62
527.459	22.62
527.582	6.62
527.706	11.62
527.829	2.62
527.953	0.62
528.076	6.62
528.2	9.62
528.323	13.62
528.446	22.62
528.57	3.62
528.693	40.62
528.817	9.62
528.94	4.62
529.064	45.62
529.187	4.62
529.31	9.62
529.434	11.62
529.557	4.62
529.68	9.62
529.804	16.62
529.927	4.62
530.051	14.62
530.174	11.62
530.297	16.62
530.421	24.62
530.544	29.62
530.668	10.62
530.791	3.62
530.914	18.62
531.038	6.62
531.161	-4.38
531.284	10.62
531.408	15.62
531.531	-5.38
531.654	0.62
531.778	13.62
531.901	1.62
532.024	9.62
532.148	9.62
532.271	6.62
532.394	14.62
532.518	25.62
532.641	16.62
532.764	36.62
532.888	26.62
533.011	8.62
533.134	-8.38
533.258	7.62
533.381	3.62
533.504	8.62
533.628	3.62
533.751	19.62
533.874	5.62
533.997	10.62
534.121	-12.38
534.244	7.62
534.367	19.62
534.491	2.62
534.614	-2.38
534.737	1.62
534.86	1.62
534.984	-12.38
535.107	-4.38
535.23	19.62
535.354	17.62
535.477	-6.38
535.6	16.62
535.723	8.62
535.847	-0.38
535.97	-6.38
536.093	21.62
536.216	0.62
536.34	10.62
536.463	3.62
536.586	24.62
536.709	20.62
536.833	17.62
536.956	-0.38
537.079	15.62
537.202	5.62
537.325	0.62
537.449	-2.38
537.572	30.62
537.695	17.62
537.818	-10.38
537.941	-2.38
538.065	18.62
538.188	0.62
538.311	28.62
538.434	23.62
538.558	11.62
538.681	9.62
538.804	9.62
538.927	14.62
539.05	5.62
539.173	-4.38
539.297	1.62
539.42	6.62
539.543	11.62
539.666	25.62
539.789	23.62
539.913	23.62
540.036	15.62
540.159	27.62
540.282	-2.38
540.405	-12.38
540.528	4.62
540.651	8.62
540.775	3.62
540.898	8.62
541.021	17.62
541.144	18.62
541.267	32.62
541.39	-5.38
541.513	20.62
541.637	0.62
541.76	19.62
541.883	8.62
542.006	9.62
542.129	25.62
542.252	-4.38
542.375	13.62
542.498	23.62
542.622	21.62
542.745	12.62
542.868	3.62
542.991	29.62
543.114	25.62
543.237	34.62
543.36	23.62
543.483	27.62
543.606	26.62
543.73	8.62
543.853	-3.38
543.976	-16.38
544.099	9.62
544.222	21.62
544.345	5.62
544.468	-0.38
544.591	3.62
544.714	15.62
544.837	17.62
544.96	9.62
545.083	17.62
545.206	1.62
545.329	22.62
545.453	-2.38
545.576	7.62
545.699	4.62
545.822	10.62
545.945	29.62
546.068	0.62
546.191	17.62
546.314	10.62
546.437	26.62
546.56	12.62
546.683	-0.38
546.806	12.62
546.929	10.62
547.052	-0.38
547.175	-1.38
547.298	17.62
547.421	11.62
547.544	1.62
547.667	24.62
547.79	10.62
547.913	-0.38
548.036	-10.38
548.159	18.62
548.282	15.62
548.405	11.62
548.528	17.62
548.651	-1.38
548.774	7.62
548.897	19.62
549.02	27.62
549.143	31.62
549.266	6.62
549.389	17.62
549.512	3.62
549.635	34.62
549.758	23.62
549.881	8.62
550.004	7.62
550.127	6.62
550.25	10.62
550.373	3.62
550.496	18.62
550.619	6.62
550.742	-9.38
550.865	-1.38
550.988	11.62
551.111	29.62
551.234	17.62
551.356	-8.38
551.479	-1.38
551.602	-3.38
551.725	7.62
551.848	17.62
551.971	13.62
552.094	15.62
552.217	2.62
552.34	11.62
552.463	-4.38
552.586	9.62
552.709	11.62
552.832	14.62
552.955	14.62
553.077	22.62
553.2	13.62
553.323	2.62
553.446	-2.38
553.569	2.62
553.692	7.62
553.815	1.62
553.938	21.62
554.061	21.62
554.184	3.62
554.306	14.62
554.429	16.62
554.552	15.62
554.675	16.62
554.798	9.62
554.921	14.62
555.044	5.62
555.167	0.62
555.29	12.62
555.412	-2.38
555.535	13.62
555.658	1.62
555.781	16.62
555.904	17.62
556.027	27.62
556.15	23.62
556.272	7.62
556.395	19.62
556.518	-6.38
556.641	7.62
556.764	17.62
556.887	17.62
557.01	15.62
557.132	-27.38
557.255	9.62
557.378	17.62
557.501	7.62
557.624	-11.38
557.747	7.62
557.869	22.62
557.992	19.62
558.115	14.62
558.238	7.62
558.361	20.62
558.483	42.62
558.606	13.62
558.729	4.62
558.852	37.62
558.975	18.62
559.098	28.62
559.22	12.62
559.343	10.62
559.466	8.62
559.589	3.62
559.712	13.62
559.834	14.62
559.957	9.62
560.08	17.62
560.203	26.62
560.325	23.62
560.448	38.62
560.571	25.62
560.694	6.62
560.817	32.62
560.939	7.62
561.062	-9.38
561.185	-2.38
561.308	9.62
561.43	-5.38
561.553	-0.38
561.676	-2.38
561.799	2.62
561.921	10.62
562.044	10.62
562.167	-6.38
562.29	3.62
562.413	20.62
562.535	12.62
562.658	-7.38
562.781	7.62
562.903	5.62
563.026	14.62
563.149	28.62
563.272	12.62
563.394	13.62
563.517	8.62
563.64	4.62
563.763	3.62
563.885	29.62
564.008	17.62
564.131	16.62
564.254	8.62
564.376	9.62
564.499	-7.38
564.622	-8.38
564.744	25.62
564.867	-2.38
564.99	5.62
565.113	11.62
565.235	10.62
565.358	1.62
565.481	-4.38
565.603	12.62
565.726	22.62
565.849	26.62
565.971	-10.38
566.094	-12.38
566.217	-0.38
566.34	17.62
566.462	20.62
566.585	4.62
566.708	31.62
566.83	29.62
566.953	27.62
567.076	15.62
567.198	6.62
567.321	-15.38
567.444	8.62
567.566	7.62
567.689	1.62
567.812	-3.38
567.934	2.62
568.057	16.62
568.18	20.62
568.302	11.62
568.425	11.62
568.548	1.62
568.67	10.62
568.793	24.62
568.916	7.62
569.038	7.62
569.161	0.62
569.283	7.62
569.406	9.62
569.529	-12.38
569.651	0.62
569.774	-0.38
569.897	-19.38
570.019	17.62
570.142	20.62
570.265	11.62
570.387	0.62
570.51	13.62
570.632	9.62
570.755	2.62
570.878	-0.38
571	16.62
571.123	1.62
571.246	28.62
571.368	2.62
571.491	0.62
571.613	8.62
571.736	-8.38
571.859	5.62
571.981	10.62
572.104	-8.38
572.226	-2.38
572.349	2.62
572.472	1.62
572.594	-2.38
572.717	22.62
572.839	-0.38
572.962	23.62
573.085	23.62
573.207	20.62
573.33	1.62
573.452	9.62
573.575	12.62
573.697	22.62
573.82	16.62
573.943	9.62
574.065	12.62
574.188	-0.38
574.31	8.62
574.433	6.62
574.555	11.62
574.678	13.62
574.801	9.62
574.923	11.62
575.046	2.62
575.168	8.62
575.291	4.62
575.413	-6.38
575.536	-1.38
575.659	21.62
575.781	4.62
575.904	-4.38
576.026	5.62
576.149	-6.38
576.271	25.62
576.394	8.62
576.516	12.62
576.639	2.62
576.761	2.62
576.884	-0.38
577.007	0.62
577.129	15.62
577.252	7.62
577.374	27.62
577.497	-6.38
577.619	13.62
577.742	-4.38
577.864	19.62
577.987	20.62
578.109	33.62
578.232	8.62
578.354	28.62
578.477	0.62
578.599	-7.38
578.722	8.62
578.844	-1.38
578.967	9.62
579.089	5.62
579.212	-12.38
579.334	5.62
579.457	-7.38
579.579	6.62
579.702	-8.38
579.824	17.62
579.947	4.62
580.069	-8.38
580.192	-4.38
580.314	14.62
580.437	5.62
580.559	26.62
580.682	9.62
580.804	24.62
580.927	23.62
581.049	29.62
581.172	24.62
581.294	7.62
581.417	31.62
581.539	6.62
581.662	31.62
581.784	19.62
581.907	16.62
582.029	17.62
582.152	10.62
582.274	21.62
582.396	24.62
582.519	23.62
582.641	-8.38
582.764	-3.38
582.886	28.62
583.009	7.62
583.131	-3.38
583.254	27.62
583.376	22.62
583.499	27.62
583.621	14.62
583.743	14.62
583.866	23.62
583.988	13.62
584.111	38.62
584.233	23.62
584.356	24.62
584.478	10.62
584.601	-10.38
584.723	3.62
584.845	18.62
584.968	4.62
585.09	-7.38
585.213	24.62
585.335	8.62
585.458	13.62
585.58	7.62
585.702	32.62
585.825	23.62
585.947	-4.38
586.07	2.62
586.192	-12.38
586.315	23.62
586.437	0.62
586.559	5.62
586.682	-4.38
586.804	28.62
586.927	1.62
587.049	16.62
587.171	26.62
587.294	15.62
587.416	11.62
587.539	15.62
587.661	15.62
587.783	8.62
587.906	22.62
588.028	20.62
588.151	13.62
588.273	24.62
588.395	25.62
588.518	-1.38
588.64	-0.38
588.763	15.62
588.885	21.62
589.007	8.62
589.13	-13.38
589.252	-7.38
589.375	0.62
589.497	13.62
589.619	8.62
589.742	21.62
589.864	40.62
589.986	16.62
590.109	-2.38
590.231	-20.38
590.354	2.62
590.476	-15.38
590.598	16.62
590.721	14.62
590.843	14.62
590.965	11.62
591.088	16.62
591.21	-2.38
591.332	24.62
591.455	4.62
591.577	4.62
591.7	17.62
591.822	2.62
591.944	2.62
592.067	23.62
592.189	28.62
592.311	38.62
592.434	17.62
592.556	16.62
592.678	19.62
592.801	21.62
592.923	6.62
593.045	16.62
593.168	0.62
593.29	10.62
593.412	27.62
593.535	-10.38
593.657	-3.38
593.779	25.62
593.902	25.62
594.024	30.62
594.146	18.62
594.269	24.62
594.391	9.62
594.513	13.62
594.636	19.62
594.758	-8.38
594.88	24.62
595.003	18.62
595.125	16.62
595.247	33.62
595.37	15.62
595.492	4.62
595.614	20.62
595.737	25.62
595.859	17.62
595.981	22.62
596.104	18.62
596.226	12.62
596.348	22.62
596.471	15.62
596.593	20.62
596.715	13.62
596.838	11.62
596.96	7.62
597.082	5.62
597.204	11.62
597.327	10.62
597.449	1.62
597.571	-3.38
597.694	13.62
597.816	16.62
597.938	18.62
598.061	3.62
598.183	8.62
598.305	16.62
598.427	15.62
598.55	16.62
598.672	33.62
598.794	24.62
598.917	-3.38
599.039	21.62
599.161	20.62
599.283	18.62
599.406	16.62
599.528	29.62
599.65	40.62
599.773	20.62
599.895	30.62
600.017	28.62
600.139	17.62
600.262	1.62
600.384	7.62
600.506	13.62
600.628	32.62
600.751	31.62
600.873	3.62
600.995	-0.38
601.118	24.62
601.24	12.62
601.362	31.62
601.484	2.62
601.607	17.62
601.729	10.62
601.851	21.62
601.973	21.62
602.096	8.62
602.218	18.62
602.34	25.62
602.462	23.62
602.585	24.62
602.707	4.62
602.829	33.62
602.951	2.62
603.074	-12.38
603.196	12.62
603.318	10.62
603.44	22.62
603.563	20.62
603.685	-5.38
603.807	21.62
603.929	18.62
604.052	32.62
604.174	28.62
604.296	24.62
604.418	27.62
604.541	23.62
604.663	5.62
604.785	20.62
604.907	19.62
605.03	-5.38
605.152	47.62
605.274	21.62
605.396	2.62
605.519	16.62
605.641	-1.38
605.763	6.62
605.885	-0.38
606.008	10.62
606.13	8.62
606.252	24.62
606.374	-10.38
606.496	-10.38
606.619	-3.38
606.741	-4.38
606.863	34.62
606.985	36.62
607.108	27.62
607.23	1.62
607.352	14.62
607.474	9.62
607.596	6.62
607.719	-4.38
607.841	17.62
607.963	6.62
608.085	9.62
608.207	28.62
608.33	29.62
608.452	19.62
608.574	5.62
608.696	19.62
608.819	23.62
608.941	19.62
609.063	7.62
609.185	6.62
609.307	11.62
609.43	18.62
609.552	7.62
609.674	3.62
609.796	21.62
609.918	14.62
610.041	-0.38
610.163	10.62
610.285	16.62
610.407	22.62
610.529	-9.38
610.652	2.62
610.774	20.62
610.896	5.62
611.018	13.62
611.14	0.62
611.263	-8.38
611.385	5.62
611.507	1.62
611.629	-2.38
611.751	15.62
611.873	50.62
611.996	11.62
612.118	31.62
612.24	1.62
612.362	11.62
612.484	7.62
612.607	17.62
612.729	44.62
612.851	11.62
612.973	-3.38
613.095	0.62
613.218	4.62
613.34	21.62
613.462	7.62
613.584	21.62
613.706	15.62
613.828	40.62
613.951	13.62
614.073	11.62
614.195	-12.38
614.317	15.62
614.439	32.62
614.561	26.62
614.684	25.62
614.806	19.62
614.928	29.62
615.05	23.62
615.172	22.62
615.294	22.62
615.417	10.62
615.539	4.62
615.661	14.62
615.783	42.62
615.905	27.62
616.027	64.62
616.15	113.62
616.272	84.62
616.394	37.62
616.516	43.62
616.638	39.62
616.76	22.62
616.883	6.62
617.005	-1.38
617.127	-5.38
617.249	18.62
617.371	7.62
617.493	4.62
617.615	26.62
617.738	5.62
617.86	14.62
617.982	1.62
618.104	3.62
618.226	-11.38
618.348	3.62
618.471	5.62
618.593	17.62
618.715	-0.38
618.837	19.62
618.959	10.62
619.081	31.62
619.203	13.62
619.326	12.62
619.448	1.62
619.57	33.62
619.692	18.62
619.814	18.62
619.936	12.62
620.058	16.62
620.181	29.62
620.303	6.62
620.425	21.62
620.547	20.62
620.669	3.62
620.791	15.62
620.913	-7.38
621.036	-8.38
621.158	5.62
621.28	28.62
621.402	-5.38
621.524	11.62
621.646	19.62
621.768	-2.38
621.891	1.62
622.013	8.62
622.135	0.62
622.257	-14.38
622.379	8.62
622.501	-2.38
622.623	5.62
622.745	-11.38
622.868	10.62
622.99	4.62
623.112	28.62
623.234	6.62
623.356	17.62
623.478	-2.38
623.6	29.62
623.722	11.62
623.845	6.62
623.967	2.62
624.089	6.62
624.211	-3.38
624.333	27.62
624.455	3.62
624.577	-0.38
624.699	11.62
624.822	6.62
624.944	5.62
625.066	11.62
625.188	-0.38
625.31	17.62
625.432	15.62
625.554	4.62
625.676	10.62
625.799	1.62
625.921	11.62
626.043	-7.38
626.165	6.62
626.287	-11.38
626.409	21.62
626.531	-0.38
626.653	9.62
626.775	27.62
626.898	7.62
627.02	0.62
627.142	29.62
627.264	-0.38
627.386	9.62
627.508	0.62
627.63	12.62
627.752	12.62
627.874	1.62
627.997	13.62
628.119	10.62
628.241	8.62
628.363	15.62
628.485	3.62
628.607	7.62
628.729	-12.38
628.851	5.62
628.973	8.62
629.096	5.62
629.218	5.62
629.34	10.62
629.462	-10.38
629.584	6.62
629.706	28.62
629.828	18.62
629.95	12.62
630.072	6.62
630.195	0.62
630.317	17.62
630.439	7.62
630.561	11.62
630.683	-1.38
630.805	8.62
630.927	13.62
631.049	15.62
631.171	0.62
631.293	4.62
631.416	11.62
631.538	1.62
631.66	-0.38
631.782	35.62
631.904	25.62
632.026	1.62
632.148	25.62
632.27	-5.38
632.392	15.62
632.514	12.62
632.637	24.62
632.759	3.62
632.881	-6.38
633.003	-12.38
633.125	-0.38
633.247	3.62
633.369	7.62
633.491	9.62
633.613	24.62
633.735	0.62
633.858	21.62
633.98	0.62
634.102	-7.38
634.224	19.62
634.346	-0.38
634.468	0.62
634.59	1.62
634.712	21.62
634.834	6.62
634.956	4.62
635.078	8.62
635.201	-12.38
635.323	20.62
635.445	4.62
635.567	-2.38
635.689	19.62
635.811	11.62
635.933	18.62
636.055	21.62
636.177	1.62
636.299	22.62
636.421	-1.38
636.544	-9.38
636.666	11.62
636.788	11.62
636.91	6.62
637.032	-8.38
637.154	13.62
637.276	55.62
637.398	34.62
637.52	18.62
637.642	19.62
637.764	6.62
637.887	-0.38
638.009	10.62
638.131	1.62
638.253	3.62
638.375	19.62
638.497	21.62
638.619	-4.38
638.741	12.62
638.863	-20.38
638.985	-11.38
639.107	-2.38
639.23	-7.38
639.352	34.62
639.474	2.62
639.596	0.62
639.718	-6.38
639.84	7.62
639.962	11.62
640.084	29.62
640.206	26.62
640.328	5.62
640.45	2.62
640.573	4.62
640.695	5.62
640.817	0.62
640.939	9.62
641.061	22.62
641.183	-4.38
641.305	-10.38
641.427	0.62
641.549	-3.38
641.671	-2.38
641.793	7.62
641.915	8.62
642.038	18.62
642.16	4.62
642.282	18.62
642.404	26.62
642.526	10.62
642.648	19.62
642.77	5.62
642.892	9.62
643.014	23.62
643.136	8.62
643.258	8.62
643.381	16.62
643.503	32.62
643.625	14.62
643.747	4.62
643.869	1.62
643.991	19.62
644.113	4.62
644.235	7.62
644.357	17.62
644.479	12.62
644.601	17.62
644.723	-0.38
644.846	12.62
644.968	3.62
645.09	5.62
645.212	-5.38
645.334	9.62
645.456	19.62
645.578	11.62
645.7	9.62
645.822	27.62
645.944	24.62
646.066	4.62
646.188	-10.38
646.311	32.62
646.433	15.62
646.555	49.62
646.677	45.62
646.799	25.62
646.921	1.62
647.043	8.62
647.165	0.62
647.287	-1.38
647.409	11.62
647.531	20.62
647.654	-12.38
647.776	15.62
647.898	8.62
648.02	8.62
648.142	14.62
648.264	13.62
648.386	22.62
648.508	-8.38
648.63	-16.38
648.752	7.62
648.874	7.62
648.997	14.62
649.119	24.62
649.241	14.62
649.363	15.62
649.485	8.62
649.607	-3.38
649.729	-4.38
649.851	-1.38
649.973	5.62
650.095	23.62
650.217	5.62
650.34	-3.38
650.462	7.62
650.584	2.62
650.706	21.62
650.828	19.62
650.95	4.62
651.072	17.62
651.194	3.62
651.316	-2.38
651.438	18.62
651.56	-3.38
651.683	-6.38
651.805	12.62
651.927	4.62
652.049	10.62
652.171	8.62
652.293	7.62
652.415	1.62
652.537	12.62
652.659	-13.38
652.781	20.62
652.903	-0.38
653.026	13.62
653.148	29.62
653.27	-0.38
653.392	21.62
653.514	4.62
653.636	0.62
653.758	17.62
653.88	6.62
654.002	-0.38
654.124	6.62
654.247	6.62
654.369	18.62
654.491	-2.38
654.613	0.62
654.735	-4.38
654.857	14.62
654.979	16.62
655.101	9.62
655.223	41.62
655.345	28.62
655.468	20.62
655.59	13.62
655.712	20.62
655.834	15.62
655.956	48.62
656.078	31.62
656.2	43.62
656.322	44.62
656.444	28.62
656.566	40.62
656.689	45.62
656.811	61.62
656.933	89.62
657.055	78.62
657.177	141.62
657.299	241.62
657.421	464.62
657.543	1834.62
657.665	12455.62
657.787	15167.62
657.91	15209.62
658.032	15662.62
658.154	4559.62
658.276	3067.62
658.398	1069.62
658.52	999.62
658.642	471.62
658.764	572.62
658.886	270.62
659.009	400.62
659.131	195.62
659.253	303.62
659.375	154.62
659.497	221.62
659.619	136.62
659.741	194.62
659.863	79.62
659.985	148.62
660.108	82.62
660.23	137.62
660.352	90.62
660.474	124.62
660.596	69.62
660.718	132.62
660.84	63.62
660.962	101.62
661.084	39.62
661.207	91.62
661.329	52.62
661.451	88.62
661.573	47.62
661.695	106.62
661.817	47.62
661.939	91.62
662.061	56.62
662.184	72.62
662.306	26.62
662.428	74.62
662.55	51.62
662.672	57.62
662.794	38.62
662.916	43.62
663.038	26.62
663.161	65.62
663.283	62.62
663.405	47.62
663.527	26.62
663.649	81.62
663.771	32.62
663.893	68.62
664.015	33.62
664.138	51.62
664.26	35.62
664.382	42.62
664.504	14.62
664.626	45.62
664.748	16.62
664.87	35.62
664.992	44.62
665.115	51.62
665.237	18.62
665.359	36.62
665.481	22.62
665.603	30.62
665.725	28.62
665.847	16.62
665.97	10.62
666.092	35.62
666.214	25.62
666.336	26.62
666.458	14.62
666.58	41.62
666.702	4.62
666.825	28.62
666.947	9.62
667.069	29.62
667.191	12.62
667.313	59.62
667.435	27.62
667.557	21.62
667.68	10.62
667.802	26.62
667.924	17.62
668.046	41.62
668.168	29.62
668.29	45.62
668.412	24.62
668.535	20.62
668.657	12.62
668.779	29.62
668.901	23.62
669.023	45.62
669.145	15.62
669.267	48.62
669.39	22.62
669.512	43.62
669.634	14.62
669.756	13.62
669.878	17.62
670	19.62
670.123	8.62
670.245	39.62
670.367	27.62
670.489	40.62
670.611	10.62
670.733	10.62
670.856	-0.38
670.978	25.62
671.1	19.62
671.222	31.62
671.344	15.62
671.466	12.62
671.589	17.62
671.711	24.62
671.833	4.62
671.955	8.62
672.077	-8.38
672.199	24.62
672.322	19.62
672.444	19.62
672.566	19.62
672.688	30.62
672.81	23.62
672.932	24.62
673.055	1.62
673.177	24.62
673.299	8.62
673.421	8.62
673.543	-8.38
673.665	16.62
673.788	7.62
673.91	12.62
674.032	-10.38
674.154	5.62
674.276	18.62
674.399	11.62
674.521	4.62
674.643	21.62
674.765	10.62
674.887	24.62
675.009	-3.38
675.132	4.62
675.254	14.62
675.376	28.62
675.498	17.62
675.62	33.62
675.743	-0.38
675.865	29.62
675.987	-3.38
676.109	27.62
676.231	18.62
676.354	47.62
676.476	0.62
676.598	14.62
676.72	-3.38
676.842	38.62
676.965	22.62
677.087	36.62
677.209	24.62
677.331	21.62
677.453	8.62
677.576	9.62
677.698	11.62
677.82	27.62
677.942	4.62
678.064	7.62
678.187	22.62
678.309	7.62
678.431	-5.38
678.553	8.62
678.675	19.62
678.798	26.62
678.92	8.62
679.042	22.62
679.164	8.62
679.286	20.62
679.409	-3.38
679.531	1.62
679.653	1.62
679.775	1.62
679.898	3.62
680.02	9.62
680.142	7.62
680.264	25.62
680.386	-11.38
680.509	19.62
680.631	1.62
680.753	3.62
680.875	-1.38
680.998	19.62
681.12	4.62
681.242	19.62
681.364	-7.38
681.486	-0.38
681.609	10.62
681.731	6.62
681.853	-13.38
681.975	-6.38
682.098	-0.38
682.22	21.62
682.342	16.62
682.464	23.62
682.587	-0.38
682.709	-8.38
682.831	-0.38
682.953	12.62
683.076	4.62
683.198	23.62
683.32	23.62
683.442	17.62
683.565	14.62
683.687	1.62
683.809	-4.38
683.931	-0.38
684.054	14.62
684.176	11.62
684.298	3.62
684.42	5.62
684.543	5.62
684.665	-1.38
684.787	-6.38
684.909	21.62
685.032	13.62
685.154	-6.38
685.276	8.62
685.398	-4.38
685.521	7.62
685.643	13.62
685.765	19.62
685.887	19.62
686.01	-1.38
686.132	5.62
686.254	5.62
686.377	22.62
686.499	9.62
686.621	21.62
686.743	20.62
686.866	13.62
686.988	27.62
687.11	7.62
687.232	3.62
687.355	4.62
687.477	12.62
687.599	17.62
687.722	3.62
687.844	3.62
687.966	4.62
688.088	6.62
688.211	29.62
688.333	36.62
688.455	7.62
688.578	20.62
688.7	26.62
688.822	20.62
688.944	-4.38
689.067	45.62
689.189	-2.38
689.311	-15.38
689.434	6.62
689.556	10.62
689.678	-0.38
689.801	2.62
689.923	-1.38
690.045	39.62
690.167	31.62
690.29	17.62
690.412	6.62
690.534	25.62
690.657	-6.38
690.779	5.62
690.901	16.62
691.024	5.62
691.146	8.62
691.268	10.62
691.391	24.62
691.513	24.62
691.635	17.62
691.758	11.62
691.88	9.62
692.002	-0.38
692.125	4.62
692.247	5.62
692.369	-7.38
692.492	-4.38
692.614	-0.38
692.736	9.62
692.859	4.62
692.981	2.62
693.103	-1.38
693.226	13.62
693.348	22.62
693.47	-6.38
693.593	-0.38
693.715	-0.38
693.837	12.62
693.96	13.62
694.082	17.62
694.204	12.62
694.327	20.62
694.449	-11.38
694.571	3.62
694.694	19.62
694.816	15.62
694.938	-1.38
695.061	0.62
695.183	17.62
695.305	3.62
695.428	-3.38
695.55	-17.38
695.672	-12.38
695.795	12.62
695.917	30.62
696.04	-5.38
696.162	-1.38
696.284	0.62
696.407	3.62
696.529	14.62
696.651	35.62
696.774	11.62
696.896	25.62
697.019	12.62
697.141	4.62
697.263	8.62
697.386	14.62
697.508	-6.38
697.63	15.62
697.753	6.62
697.875	19.62
697.998	-0.38
698.12	33.62
698.242	11.62
698.365	13.62
698.487	15.62
698.61	9.62
698.732	7.62
698.854	16.62
698.977	-3.38
699.099	8.62
699.221	3.62
699.344	-3.38
699.466	3.62
699.589	6.62
699.711	-1.38
699.834	18.62
699.956	-0.38
700.078	7.62
700.201	-3.38
700.323	21.62
700.446	-8.38
700.568	-6.38
700.69	28.62
700.813	22.62
700.935	0.62
701.058	11.62
701.18	2.62
701.302	12.62
701.425	19.62
701.547	4.62
701.67	-0.38
701.792	12.62
701.915	7.62
702.037	8.62
702.159	19.62
702.282	20.62
702.404	-1.38
702.527	10.62
702.649	27.62
702.772	20.62
702.894	-15.38
703.017	18.62
703.139	33.62
703.261	9.62
703.384	3.62
703.506	-25.38
703.629	-3.38
703.751	15.62
703.874	8.62
703.996	8.62
704.119	-5.38
704.241	10.62
704.364	-8.38
704.486	0.62
704.608	17.62
704.731	6.62
704.853	19.62
704.976	-1.38
705.098	-3.38
705.221	-2.38
705.343	-5.38
705.466	13.62
705.588	14.62
705.711	16.62
705.833	11.62
705.956	1.62
706.078	23.62
706.201	24.62
706.323	4.62
706.446	4.62
