Data from LowRes_H2_15_26_11_07_2024_HR4C61881__37__15-28-17-337.txt Node

Date: Thu Nov 07 15:28:17 EST 2024
User: crc00042
Spectrometer: HR4C6188
Trigger mode: 4
Integration Time (sec): 1.000000E-1
Scans to average: 1
Electric dark correction enabled: true
Nonlinearity correction enabled: false
Boxcar width: 0
XAxis mode: Wavelengths
Number of Pixels in Spectrum: 3648
>>>>>Begin Spectral Data<<<<<
245.66	-126.15
245.797	-126.15
245.934	-126.15
246.071	-68.15
246.208	18.85
246.344	-3.15
246.481	-12.15
246.618	-11.15
246.755	11.85
246.892	-3.15
247.029	3.85
247.165	-15.15
247.302	0.85
247.439	10.85
247.576	12.85
247.713	2.85
247.849	20.85
247.986	-19.15
248.123	-9.15
248.26	-9.15
248.396	26.85
248.533	6.85
248.67	-11.15
248.806	15.85
248.943	-15.15
249.08	13.85
249.216	5.85
249.353	-11.15
249.49	-5.15
249.626	7.85
249.763	-4.15
249.9	-4.15
250.036	-10.15
250.173	8.85
250.309	-5.15
250.446	-13.15
250.582	1.85
250.719	-6.15
250.856	-6.15
250.992	-2.15
251.129	-9.15
251.265	-9.15
251.402	4.85
251.538	0.85
251.675	3.85
251.811	12.85
251.948	22.85
252.084	12.85
252.221	-12.15
252.357	-7.15
252.493	-0.15
252.63	21.85
252.766	8.85
252.903	1.85
253.039	8.85
253.175	-4.15
253.312	0.85
253.448	-6.15
253.585	-18.15
253.721	7.85
253.857	-13.15
253.994	0.85
254.13	12.85
254.266	11.85
254.403	11.85
254.539	2.85
254.675	-3.15
254.811	14.85
254.948	9.85
255.084	-11.15
255.22	-14.15
255.356	-4.15
255.493	15.85
255.629	5.85
255.765	1.85
255.901	3.85
256.037	-0.15
256.174	0.85
256.31	-7.15
256.446	-11.15
256.582	6.85
256.718	10.85
256.854	27.85
256.991	15.85
257.127	19.85
257.263	1.85
257.399	13.85
257.535	-14.15
257.671	-10.15
257.807	-2.15
257.943	-4.15
258.079	2.85
258.215	-1.15
258.351	25.85
258.487	14.85
258.623	13.85
258.759	6.85
258.895	15.85
259.031	4.85
259.167	-10.15
259.303	18.85
259.439	-5.15
259.575	-2.15
259.711	-8.15
259.847	3.85
259.983	14.85
260.119	6.85
260.255	-3.15
260.391	10.85
260.527	-5.15
260.663	20.85
260.799	0.85
260.934	-1.15
261.07	6.85
261.206	-10.15
261.342	3.85
261.478	22.85
261.614	22.85
261.749	6.85
261.885	-5.15
262.021	-8.15
262.157	22.85
262.293	-1.15
262.428	-3.15
262.564	6.85
262.7	16.85
262.836	4.85
262.971	10.85
263.107	0.85
263.243	21.85
263.378	7.85
263.514	-15.15
263.65	-2.15
263.785	4.85
263.921	-3.15
264.057	-5.15
264.192	14.85
264.328	17.85
264.464	-18.15
264.599	0.85
264.735	27.85
264.871	-1.15
265.006	17.85
265.142	5.85
265.277	13.85
265.413	29.85
265.548	11.85
265.684	17.85
265.819	20.85
265.955	-16.15
266.091	-18.15
266.226	-2.15
266.362	2.85
266.497	13.85
266.633	-11.15
266.768	-1.15
266.903	18.85
267.039	-3.15
267.174	27.85
267.31	7.85
267.445	-9.15
267.581	11.85
267.716	15.85
267.851	17.85
267.987	18.85
268.122	18.85
268.258	12.85
268.393	2.85
268.528	9.85
268.664	-5.15
268.799	-9.15
268.934	13.85
269.07	7.85
269.205	9.85
269.34	25.85
269.476	6.85
269.611	-8.15
269.746	10.85
269.881	-5.15
270.017	18.85
270.152	-8.15
270.287	-0.15
270.422	10.85
270.558	-9.15
270.693	8.85
270.828	-2.15
270.963	-27.15
271.098	-13.15
271.234	2.85
271.369	29.85
271.504	1.85
271.639	-9.15
271.774	8.85
271.909	15.85
272.045	-24.15
272.18	-11.15
272.315	1.85
272.45	8.85
272.585	-9.15
272.72	-5.15
272.855	12.85
272.99	21.85
273.125	-1.15
273.26	-15.15
273.395	-7.15
273.53	-9.15
273.665	8.85
273.8	-1.15
273.935	3.85
274.07	17.85
274.205	-4.15
274.34	14.85
274.475	-2.15
274.61	-7.15
274.745	9.85
274.88	20.85
275.015	-6.15
275.15	8.85
275.285	9.85
275.42	-7.15
275.555	22.85
275.69	5.85
275.825	-1.15
275.959	2.85
276.094	0.85
276.229	1.85
276.364	-3.15
276.499	-4.15
276.634	7.85
276.768	13.85
276.903	5.85
277.038	11.85
277.173	-14.15
277.308	-14.15
277.442	-7.15
277.577	-6.15
277.712	-3.15
277.847	-18.15
277.981	-1.15
278.116	-20.15
278.251	5.85
278.386	7.85
278.52	19.85
278.655	8.85
278.79	10.85
278.924	6.85
279.059	17.85
279.194	3.85
279.328	29.85
279.463	22.85
279.598	20.85
279.732	9.85
279.867	8.85
280.001	6.85
280.136	-9.15
280.271	11.85
280.405	12.85
280.54	-10.15
280.674	-1.15
280.809	14.85
280.943	-5.15
281.078	-13.15
281.213	11.85
281.347	9.85
281.482	2.85
281.616	-12.15
281.751	5.85
281.885	0.85
282.02	-0.15
282.154	1.85
282.288	-9.15
282.423	-16.15
282.557	-11.15
282.692	10.85
282.826	11.85
282.961	21.85
283.095	5.85
283.229	13.85
283.364	-18.15
283.498	4.85
283.633	32.85
283.767	3.85
283.901	-6.15
284.036	6.85
284.17	-14.15
284.304	-7.15
284.439	-2.15
284.573	-10.15
284.707	33.85
284.842	-19.15
284.976	-7.15
285.11	-8.15
285.244	7.85
285.379	21.85
285.513	-6.15
285.647	-2.15
285.781	4.85
285.916	23.85
286.05	-0.15
286.184	19.85
286.318	2.85
286.453	-4.15
286.587	-17.15
286.721	8.85
286.855	1.85
286.989	5.85
287.123	5.85
287.258	-20.15
287.392	2.85
287.526	18.85
287.66	1.85
287.794	-12.15
287.928	0.85
288.062	-7.15
288.196	0.85
288.33	19.85
288.464	-2.15
288.598	17.85
288.733	-0.15
288.867	12.85
289.001	1.85
289.135	5.85
289.269	5.85
289.403	7.85
289.537	6.85
289.671	3.85
289.805	-16.15
289.939	10.85
290.073	-4.15
290.207	30.85
290.34	0.85
290.474	6.85
290.608	6.85
290.742	-2.15
290.876	-1.15
291.01	-5.15
291.144	31.85
291.278	20.85
291.412	23.85
291.546	-2.15
291.679	-2.15
291.813	-1.15
291.947	-6.15
292.081	-21.15
292.215	-6.15
292.349	-1.15
292.482	8.85
292.616	8.85
292.75	14.85
292.884	7.85
293.018	0.85
293.151	-7.15
293.285	-11.15
293.419	-1.15
293.553	7.85
293.686	-18.15
293.82	-3.15
293.954	7.85
294.088	16.85
294.221	2.85
294.355	4.85
294.489	5.85
294.622	4.85
294.756	9.85
294.89	15.85
295.023	5.85
295.157	8.85
295.291	13.85
295.424	19.85
295.558	2.85
295.691	-9.15
295.825	-1.15
295.959	20.85
296.092	-8.15
296.226	9.85
296.359	6.85
296.493	16.85
296.627	17.85
296.76	8.85
296.894	-2.15
297.027	15.85
297.161	-5.15
297.294	-24.15
297.428	-8.15
297.561	37.85
297.695	-5.15
297.828	12.85
297.962	12.85
298.095	-1.15
298.229	6.85
298.362	-6.15
298.495	-10.15
298.629	-4.15
298.762	0.85
298.896	-2.15
299.029	-13.15
299.162	19.85
299.296	12.85
299.429	0.85
299.563	-1.15
299.696	1.85
299.829	5.85
299.963	29.85
300.096	8.85
300.229	1.85
300.363	1.85
300.496	-7.15
300.629	-11.15
300.763	-18.15
300.896	-10.15
301.029	-4.15
301.162	2.85
301.296	-12.15
301.429	-10.15
301.562	-10.15
301.695	10.85
301.829	9.85
301.962	29.85
302.095	18.85
302.228	-19.15
302.362	15.85
302.495	-17.15
302.628	-13.15
302.761	-6.15
302.894	-9.15
303.027	14.85
303.161	-17.15
303.294	-12.15
303.427	12.85
303.56	13.85
303.693	-4.15
303.826	-7.15
303.959	10.85
304.092	-4.15
304.225	-13.15
304.359	2.85
304.492	5.85
304.625	-9.15
304.758	7.85
304.891	-5.15
305.024	8.85
305.157	5.85
305.29	-10.15
305.423	3.85
305.556	11.85
305.689	16.85
305.822	2.85
305.955	-4.15
306.088	12.85
306.221	-3.15
306.354	-10.15
306.487	-7.15
306.62	-5.15
306.752	17.85
306.885	-7.15
307.018	15.85
307.151	4.85
307.284	10.85
307.417	-6.15
307.55	3.85
307.683	-8.15
307.816	20.85
307.948	5.85
308.081	28.85
308.214	2.85
308.347	31.85
308.48	-12.15
308.613	-11.15
308.745	3.85
308.878	-13.15
309.011	-8.15
309.144	7.85
309.277	-2.15
309.409	7.85
309.542	-0.15
309.675	13.85
309.808	3.85
309.94	9.85
310.073	-24.15
310.206	-8.15
310.339	-4.15
310.471	-6.15
310.604	4.85
310.737	-24.15
310.869	-6.15
311.002	10.85
311.135	-3.15
311.267	3.85
311.4	5.85
311.533	13.85
311.665	0.85
311.798	1.85
311.93	1.85
312.063	21.85
312.196	16.85
312.328	-4.15
312.461	8.85
312.593	-5.15
312.726	12.85
312.859	0.85
312.991	5.85
313.124	-34.15
313.256	16.85
313.389	13.85
313.521	3.85
313.654	-2.15
313.786	-21.15
313.919	-13.15
314.051	13.85
314.184	7.85
314.316	3.85
314.449	-25.15
314.581	-7.15
314.714	-4.15
314.846	7.85
314.978	-15.15
315.111	-18.15
315.243	15.85
315.376	14.85
315.508	-0.15
315.641	0.85
315.773	34.85
315.905	0.85
316.038	-7.15
316.17	7.85
316.302	-1.15
316.435	5.85
316.567	-2.15
316.699	3.85
316.832	-16.15
316.964	-5.15
317.096	-5.15
317.229	-2.15
317.361	-22.15
317.493	-19.15
317.625	-22.15
317.758	6.85
317.89	4.85
318.022	-6.15
318.155	5.85
318.287	13.85
318.419	4.85
318.551	-5.15
318.683	-0.15
318.816	-11.15
318.948	-1.15
319.08	-1.15
319.212	11.85
319.344	-6.15
319.477	-13.15
319.609	-11.15
319.741	22.85
319.873	-7.15
320.005	-17.15
320.137	-9.15
320.269	7.85
320.401	0.85
320.534	-14.15
320.666	-9.15
320.798	-10.15
320.93	-4.15
321.062	-11.15
321.194	7.85
321.326	4.85
321.458	13.85
321.59	14.85
321.722	12.85
321.854	6.85
321.986	8.85
322.118	17.85
322.25	-17.15
322.382	1.85
322.514	-9.15
322.646	-11.15
322.778	13.85
322.91	-7.15
323.042	17.85
323.174	12.85
323.306	-11.15
323.438	-42.15
323.57	13.85
323.702	-1.15
323.834	12.85
323.966	3.85
324.097	-2.15
324.229	28.85
324.361	12.85
324.493	-2.15
324.625	9.85
324.757	-3.15
324.889	-4.15
325.021	10.85
325.152	24.85
325.284	11.85
325.416	5.85
325.548	14.85
325.68	13.85
325.811	26.85
325.943	7.85
326.075	-2.15
326.207	12.85
326.339	5.85
326.47	-7.15
326.602	8.85
326.734	22.85
326.866	16.85
326.997	-2.15
327.129	-3.15
327.261	-6.15
327.392	2.85
327.524	-9.15
327.656	6.85
327.787	26.85
327.919	14.85
328.051	10.85
328.182	21.85
328.314	38.85
328.446	5.85
328.577	21.85
328.709	6.85
328.841	-12.15
328.972	-13.15
329.104	-11.15
329.235	6.85
329.367	-5.15
329.499	-1.15
329.63	6.85
329.762	13.85
329.893	26.85
330.025	-7.15
330.156	-12.15
330.288	20.85
330.419	16.85
330.551	13.85
330.683	7.85
330.814	-2.15
330.946	23.85
331.077	-14.15
331.208	-0.15
331.34	8.85
331.471	4.85
331.603	-9.15
331.734	-14.15
331.866	7.85
331.997	-3.15
332.129	-5.15
332.26	-5.15
332.392	8.85
332.523	15.85
332.654	-15.15
332.786	-14.15
332.917	-27.15
333.048	-13.15
333.18	14.85
333.311	-10.15
333.443	6.85
333.574	9.85
333.705	8.85
333.837	2.85
333.968	-10.15
334.099	6.85
334.231	15.85
334.362	8.85
334.493	23.85
334.624	8.85
334.756	12.85
334.887	4.85
335.018	16.85
335.15	21.85
335.281	6.85
335.412	13.85
335.543	6.85
335.675	-9.15
335.806	6.85
335.937	18.85
336.068	13.85
336.199	27.85
336.331	-11.15
336.462	-3.15
336.593	15.85
336.724	-2.15
336.855	-5.15
336.986	10.85
337.118	14.85
337.249	25.85
337.38	4.85
337.511	5.85
337.642	5.85
337.773	11.85
337.904	5.85
338.035	9.85
338.166	2.85
338.298	6.85
338.429	3.85
338.56	17.85
338.691	36.85
338.822	12.85
338.953	4.85
339.084	24.85
339.215	42.85
339.346	1.85
339.477	6.85
339.608	9.85
339.739	1.85
339.87	13.85
340.001	6.85
340.132	21.85
340.263	6.85
340.394	5.85
340.525	16.85
340.656	-6.15
340.787	-9.15
340.918	20.85
341.049	18.85
341.179	-4.15
341.31	-5.15
341.441	23.85
341.572	18.85
341.703	15.85
341.834	6.85
341.965	10.85
342.096	16.85
342.227	8.85
342.357	-4.15
342.488	-3.15
342.619	9.85
342.75	7.85
342.881	-0.15
343.012	11.85
343.142	36.85
343.273	1.85
343.404	4.85
343.535	36.85
343.666	9.85
343.796	9.85
343.927	18.85
344.058	22.85
344.189	10.85
344.319	8.85
344.45	21.85
344.581	-4.15
344.712	-22.15
344.842	-5.15
344.973	8.85
345.104	11.85
345.234	-5.15
345.365	-21.15
345.496	-0.15
345.626	16.85
345.757	3.85
345.888	-24.15
346.018	12.85
346.149	-10.15
346.28	5.85
346.41	-0.15
346.541	13.85
346.672	-5.15
346.802	10.85
346.933	10.85
347.063	8.85
347.194	4.85
347.325	-3.15
347.455	39.85
347.586	-0.15
347.716	-13.15
347.847	18.85
347.977	-3.15
348.108	10.85
348.238	5.85
348.369	-5.15
348.499	25.85
348.63	18.85
348.76	18.85
348.891	14.85
349.021	11.85
349.152	-0.15
349.282	10.85
349.413	-23.15
349.543	12.85
349.674	1.85
349.804	8.85
349.935	-12.15
350.065	-5.15
350.196	-7.15
350.326	3.85
350.456	-14.15
350.587	27.85
350.717	17.85
350.848	10.85
350.978	-5.15
351.108	-18.15
351.239	12.85
351.369	2.85
351.499	0.85
351.63	-0.15
351.76	0.85
351.89	12.85
352.021	12.85
352.151	0.85
352.281	0.85
352.412	15.85
352.542	14.85
352.672	-3.15
352.803	2.85
352.933	-1.15
353.063	5.85
353.193	11.85
353.324	-5.15
353.454	8.85
353.584	9.85
353.714	-1.15
353.845	1.85
353.975	-5.15
354.105	-3.15
354.235	10.85
354.365	14.85
354.496	-1.15
354.626	12.85
354.756	27.85
354.886	9.85
355.016	18.85
355.146	-3.15
355.277	22.85
355.407	-2.15
355.537	-11.15
355.667	4.85
355.797	5.85
355.927	-14.15
356.057	11.85
356.187	9.85
356.318	-5.15
356.448	-14.15
356.578	6.85
356.708	19.85
356.838	22.85
356.968	-1.15
357.098	2.85
357.228	14.85
357.358	14.85
357.488	-20.15
357.618	36.85
357.748	13.85
357.878	13.85
358.008	17.85
358.138	1.85
358.268	0.85
358.398	14.85
358.528	6.85
358.658	12.85
358.788	13.85
358.918	24.85
359.048	7.85
359.178	10.85
359.308	-10.15
359.438	11.85
359.568	10.85
359.698	13.85
359.827	17.85
359.957	-2.15
360.087	-3.15
360.217	-12.15
360.347	-10.15
360.477	6.85
360.607	-15.15
360.737	13.85
360.866	7.85
360.996	-8.15
361.126	-7.15
361.256	14.85
361.386	14.85
361.516	14.85
361.645	-8.15
361.775	-2.15
361.905	-13.15
362.035	4.85
362.165	9.85
362.294	14.85
362.424	17.85
362.554	11.85
362.684	-27.15
362.813	12.85
362.943	18.85
363.073	9.85
363.203	-13.15
363.332	1.85
363.462	-1.15
363.592	2.85
363.721	19.85
363.851	-8.15
363.981	10.85
364.111	-3.15
364.24	-20.15
364.37	7.85
364.5	29.85
364.629	11.85
364.759	-20.15
364.888	-13.15
365.018	-7.15
365.148	8.85
365.277	5.85
365.407	4.85
365.537	-10.15
365.666	7.85
365.796	-15.15
365.925	-11.15
366.055	4.85
366.184	5.85
366.314	13.85
366.444	18.85
366.573	11.85
366.703	10.85
366.832	17.85
366.962	5.85
367.091	10.85
367.221	17.85
367.35	14.85
367.48	36.85
367.609	5.85
367.739	22.85
367.868	-6.15
367.998	4.85
368.127	7.85
368.257	22.85
368.386	28.85
368.516	28.85
368.645	20.85
368.775	7.85
368.904	16.85
369.033	-9.15
369.163	-13.15
369.292	-5.15
369.422	18.85
369.551	10.85
369.68	30.85
369.81	23.85
369.939	-4.15
370.069	26.85
370.198	11.85
370.327	-4.15
370.457	16.85
370.586	21.85
370.715	7.85
370.845	3.85
370.974	10.85
371.103	15.85
371.233	7.85
371.362	18.85
371.491	-13.15
371.621	12.85
371.75	-2.15
371.879	-3.15
372.008	-5.15
372.138	-12.15
372.267	14.85
372.396	-5.15
372.525	1.85
372.655	10.85
372.784	6.85
372.913	-7.15
373.042	20.85
373.172	22.85
373.301	-14.15
373.43	-9.15
373.559	0.85
373.688	7.85
373.818	41.85
373.947	14.85
374.076	-6.15
374.205	2.85
374.334	10.85
374.463	-0.15
374.593	-8.15
374.722	9.85
374.851	9.85
374.98	-2.15
375.109	13.85
375.238	17.85
375.367	31.85
375.496	-4.15
375.625	6.85
375.755	13.85
375.884	28.85
376.013	22.85
376.142	-21.15
376.271	1.85
376.4	6.85
376.529	4.85
376.658	-2.15
376.787	-4.15
376.916	3.85
377.045	5.85
377.174	10.85
377.303	11.85
377.432	18.85
377.561	26.85
377.69	-0.15
377.819	29.85
377.948	-5.15
378.077	-2.15
378.206	-2.15
378.335	-5.15
378.464	-7.15
378.593	25.85
378.722	9.85
378.851	-5.15
378.98	22.85
379.108	1.85
379.237	3.85
379.366	8.85
379.495	22.85
379.624	10.85
379.753	10.85
379.882	15.85
380.011	3.85
380.14	5.85
380.268	9.85
380.397	-5.15
380.526	19.85
380.655	-4.15
380.784	-25.15
380.913	-1.15
381.041	-1.15
381.17	-21.15
381.299	8.85
381.428	-5.15
381.557	22.85
381.685	26.85
381.814	30.85
381.943	7.85
382.072	-6.15
382.2	-9.15
382.329	16.85
382.458	8.85
382.587	22.85
382.715	25.85
382.844	17.85
382.973	4.85
383.102	-8.15
383.23	-18.15
383.359	-0.15
383.488	10.85
383.616	-2.15
383.745	-11.15
383.874	-0.15
384.003	2.85
384.131	-4.15
384.26	-6.15
384.389	3.85
384.517	-0.15
384.646	-6.15
384.774	7.85
384.903	2.85
385.032	1.85
385.16	2.85
385.289	0.85
385.418	6.85
385.546	6.85
385.675	24.85
385.803	6.85
385.932	16.85
386.06	-5.15
386.189	13.85
386.318	-9.15
386.446	2.85
386.575	7.85
386.703	7.85
386.832	-7.15
386.96	-16.15
387.089	32.85
387.217	16.85
387.346	21.85
387.474	15.85
387.603	3.85
387.731	-5.15
387.86	8.85
387.988	15.85
388.117	23.85
388.245	14.85
388.374	1.85
388.502	2.85
388.631	2.85
388.759	6.85
388.888	21.85
389.016	20.85
389.144	5.85
389.273	1.85
389.401	-0.15
389.53	-0.15
389.658	12.85
389.786	-7.15
389.915	-1.15
390.043	-4.15
390.172	7.85
390.3	34.85
390.428	18.85
390.557	0.85
390.685	5.85
390.813	22.85
390.942	20.85
391.07	13.85
391.198	9.85
391.327	5.85
391.455	-8.15
391.583	30.85
391.712	15.85
391.84	-2.15
391.968	-0.15
392.096	-9.15
392.225	11.85
392.353	15.85
392.481	7.85
392.609	12.85
392.738	34.85
392.866	27.85
392.994	-18.15
393.122	24.85
393.251	-4.15
393.379	-10.15
393.507	-13.15
393.635	0.85
393.764	6.85
393.892	3.85
394.02	0.85
394.148	16.85
394.276	-13.15
394.404	25.85
394.533	17.85
394.661	6.85
394.789	17.85
394.917	15.85
395.045	-3.15
395.173	-18.15
395.302	-16.15
395.43	11.85
395.558	12.85
395.686	24.85
395.814	24.85
395.942	0.85
396.07	12.85
396.198	1.85
396.326	16.85
396.454	14.85
396.582	5.85
396.711	9.85
396.839	16.85
396.967	24.85
397.095	7.85
397.223	28.85
397.351	19.85
397.479	33.85
397.607	8.85
397.735	-1.15
397.863	11.85
397.991	9.85
398.119	-12.15
398.247	-0.15
398.375	-6.15
398.503	5.85
398.631	23.85
398.759	3.85
398.887	11.85
399.015	16.85
399.143	-3.15
399.271	15.85
399.399	24.85
399.526	21.85
399.654	17.85
399.782	-4.15
399.91	20.85
400.038	9.85
400.166	18.85
400.294	15.85
400.422	16.85
400.55	4.85
400.678	4.85
400.805	-1.15
400.933	-2.15
401.061	5.85
401.189	0.85
401.317	27.85
401.445	13.85
401.573	-1.15
401.7	0.85
401.828	-17.15
401.956	-15.15
402.084	19.85
402.212	15.85
402.34	13.85
402.467	14.85
402.595	30.85
402.723	14.85
402.851	21.85
402.978	0.85
403.106	10.85
403.234	9.85
403.362	22.85
403.489	23.85
403.617	17.85
403.745	22.85
403.873	-2.15
404	21.85
404.128	6.85
404.256	31.85
404.384	29.85
404.511	17.85
404.639	-4.15
404.767	8.85
404.894	-3.15
405.022	-3.15
405.15	20.85
405.277	2.85
405.405	8.85
405.533	-2.15
405.66	8.85
405.788	-17.15
405.916	-8.15
406.043	-2.15
406.171	5.85
406.299	21.85
406.426	12.85
406.554	13.85
406.681	31.85
406.809	14.85
406.937	-0.15
407.064	0.85
407.192	22.85
407.319	2.85
407.447	8.85
407.574	43.85
407.702	7.85
407.83	-18.15
407.957	2.85
408.085	20.85
408.212	0.85
408.34	6.85
408.467	-11.15
408.595	1.85
408.722	25.85
408.85	20.85
408.977	-5.15
409.105	3.85
409.232	13.85
409.36	12.85
409.487	10.85
409.615	18.85
409.742	27.85
409.87	18.85
409.997	42.85
410.125	54.85
410.252	32.85
410.379	36.85
410.507	33.85
410.634	12.85
410.762	8.85
410.889	14.85
411.017	-1.15
411.144	3.85
411.271	3.85
411.399	-4.15
411.526	6.85
411.653	6.85
411.781	26.85
411.908	36.85
412.036	2.85
412.163	27.85
412.29	22.85
412.418	19.85
412.545	7.85
412.672	-7.15
412.8	16.85
412.927	18.85
413.054	20.85
413.182	4.85
413.309	21.85
413.436	-6.15
413.564	-1.15
413.691	-4.15
413.818	12.85
413.945	-14.15
414.073	0.85
414.2	9.85
414.327	6.85
414.454	6.85
414.582	3.85
414.709	-4.15
414.836	-16.15
414.963	10.85
415.091	8.85
415.218	10.85
415.345	4.85
415.472	-1.15
415.6	-5.15
415.727	10.85
415.854	10.85
415.981	21.85
416.108	2.85
416.236	-2.15
416.363	26.85
416.49	9.85
416.617	-11.15
416.744	14.85
416.871	13.85
416.998	-1.15
417.126	4.85
417.253	13.85
417.38	0.85
417.507	15.85
417.634	19.85
417.761	16.85
417.888	8.85
418.015	4.85
418.143	14.85
418.27	27.85
418.397	3.85
418.524	15.85
418.651	-10.15
418.778	2.85
418.905	28.85
419.032	17.85
419.159	16.85
419.286	38.85
419.413	24.85
419.54	26.85
419.667	-22.15
419.794	-11.15
419.921	7.85
420.048	-1.15
420.175	28.85
420.302	11.85
420.429	1.85
420.556	19.85
420.683	-5.15
420.81	4.85
420.937	20.85
421.064	4.85
421.191	9.85
421.318	32.85
421.445	34.85
421.572	-3.15
421.699	22.85
421.826	19.85
421.953	12.85
422.08	16.85
422.207	4.85
422.334	-5.15
422.461	4.85
422.588	6.85
422.714	28.85
422.841	18.85
422.968	31.85
423.095	7.85
423.222	-17.15
423.349	5.85
423.476	14.85
423.603	-1.15
423.729	0.85
423.856	22.85
423.983	15.85
424.11	-13.15
424.237	8.85
424.364	13.85
424.491	6.85
424.617	-17.15
424.744	-6.15
424.871	12.85
424.998	3.85
425.125	5.85
425.251	14.85
425.378	22.85
425.505	13.85
425.632	36.85
425.758	-9.15
425.885	14.85
426.012	24.85
426.139	31.85
426.266	7.85
426.392	0.85
426.519	20.85
426.646	15.85
426.772	22.85
426.899	13.85
427.026	38.85
427.153	-13.15
427.279	2.85
427.406	19.85
427.533	-3.15
427.659	9.85
427.786	-2.15
427.913	17.85
428.039	6.85
428.166	5.85
428.293	15.85
428.419	0.85
428.546	3.85
428.673	-10.15
428.799	0.85
428.926	4.85
429.053	22.85
429.179	12.85
429.306	26.85
429.433	26.85
429.559	18.85
429.686	-6.15
429.812	0.85
429.939	10.85
430.066	14.85
430.192	-8.15
430.319	16.85
430.445	-2.15
430.572	-14.15
430.699	-13.15
430.825	6.85
430.952	29.85
431.078	8.85
431.205	4.85
431.331	1.85
431.458	19.85
431.584	21.85
431.711	12.85
431.837	-0.15
431.964	4.85
432.09	-0.15
432.217	-2.15
432.343	14.85
432.47	23.85
432.596	-9.15
432.723	8.85
432.849	-13.15
432.976	-0.15
433.102	8.85
433.229	-7.15
433.355	33.85
433.482	73.85
433.608	166.85
433.735	147.85
433.861	126.85
433.987	158.85
434.114	225.85
434.24	206.85
434.367	74.85
434.493	14.85
434.62	36.85
434.746	39.85
434.872	17.85
434.999	34.85
435.125	29.85
435.252	-4.15
435.378	-0.15
435.504	2.85
435.631	31.85
435.757	11.85
435.883	4.85
436.01	1.85
436.136	7.85
436.262	17.85
436.389	4.85
436.515	12.85
436.641	9.85
436.768	24.85
436.894	18.85
437.02	10.85
437.147	18.85
437.273	8.85
437.399	2.85
437.526	21.85
437.652	6.85
437.778	12.85
437.904	0.85
438.031	12.85
438.157	5.85
438.283	6.85
438.409	4.85
438.536	4.85
438.662	22.85
438.788	20.85
438.914	16.85
439.041	26.85
439.167	22.85
439.293	13.85
439.419	5.85
439.546	16.85
439.672	5.85
439.798	19.85
439.924	22.85
440.05	23.85
440.177	4.85
440.303	14.85
440.429	2.85
440.555	28.85
440.681	14.85
440.807	36.85
440.934	10.85
441.06	22.85
441.186	14.85
441.312	15.85
441.438	22.85
441.564	23.85
441.69	19.85
441.816	26.85
441.943	4.85
442.069	16.85
442.195	15.85
442.321	22.85
442.447	-5.15
442.573	10.85
442.699	8.85
442.825	-4.15
442.951	11.85
443.077	9.85
443.203	27.85
443.33	2.85
443.456	-3.15
443.582	2.85
443.708	13.85
443.834	30.85
443.96	23.85
444.086	13.85
444.212	22.85
444.338	13.85
444.464	12.85
444.59	19.85
444.716	0.85
444.842	7.85
444.968	-9.15
445.094	0.85
445.22	0.85
445.346	-15.15
445.472	3.85
445.598	16.85
445.724	1.85
445.85	4.85
445.976	15.85
446.102	17.85
446.228	25.85
446.354	18.85
446.48	5.85
446.605	12.85
446.731	7.85
446.857	-4.15
446.983	-2.15
447.109	-2.15
447.235	-1.15
447.361	12.85
447.487	22.85
447.613	9.85
447.739	-23.15
447.865	-3.15
447.99	0.85
448.116	21.85
448.242	17.85
448.368	21.85
448.494	-2.15
448.62	19.85
448.746	12.85
448.872	20.85
448.997	23.85
449.123	4.85
449.249	25.85
449.375	21.85
449.501	9.85
449.627	-16.15
449.752	28.85
449.878	0.85
450.004	3.85
450.13	24.85
450.256	10.85
450.381	-1.15
450.507	1.85
450.633	14.85
450.759	32.85
450.884	-6.15
451.01	27.85
451.136	10.85
451.262	17.85
451.388	5.85
451.513	8.85
451.639	20.85
451.765	15.85
451.89	17.85
452.016	-6.15
452.142	13.85
452.268	13.85
452.393	11.85
452.519	5.85
452.645	14.85
452.771	4.85
452.896	3.85
453.022	12.85
453.148	42.85
453.273	17.85
453.399	9.85
453.525	-1.15
453.65	12.85
453.776	12.85
453.902	11.85
454.027	15.85
454.153	25.85
454.279	15.85
454.404	20.85
454.53	-4.15
454.656	17.85
454.781	25.85
454.907	-0.15
455.032	2.85
455.158	16.85
455.284	30.85
455.409	20.85
455.535	21.85
455.66	15.85
455.786	14.85
455.912	8.85
456.037	-7.15
456.163	24.85
456.288	10.85
456.414	-2.15
456.539	-4.15
456.665	26.85
456.791	7.85
456.916	20.85
457.042	0.85
457.167	-3.15
457.293	-2.15
457.418	1.85
457.544	5.85
457.669	3.85
457.795	8.85
457.92	25.85
458.046	18.85
458.171	12.85
458.297	8.85
458.422	15.85
458.548	-7.15
458.673	19.85
458.799	18.85
458.924	-10.15
459.05	16.85
459.175	5.85
459.301	13.85
459.426	18.85
459.552	3.85
459.677	-1.15
459.803	34.85
459.928	18.85
460.053	22.85
460.179	4.85
460.304	24.85
460.43	-10.15
460.555	-2.15
460.681	-1.15
460.806	15.85
460.931	6.85
461.057	20.85
461.182	3.85
461.308	13.85
461.433	25.85
461.558	6.85
461.684	33.85
461.809	13.85
461.934	-0.15
462.06	10.85
462.185	4.85
462.311	-0.15
462.436	29.85
462.561	7.85
462.687	28.85
462.812	16.85
462.937	-9.15
463.063	-10.15
463.188	9.85
463.313	36.85
463.439	5.85
463.564	0.85
463.689	6.85
463.814	23.85
463.94	11.85
464.065	14.85
464.19	19.85
464.316	0.85
464.441	2.85
464.566	-3.15
464.692	4.85
464.817	-6.15
464.942	6.85
465.067	10.85
465.193	-26.15
465.318	-12.15
465.443	-3.15
465.568	-5.15
465.694	1.85
465.819	24.85
465.944	20.85
466.069	9.85
466.194	8.85
466.32	25.85
466.445	22.85
466.57	-3.15
466.695	-9.15
466.82	13.85
466.946	17.85
467.071	11.85
467.196	-1.15
467.321	0.85
467.446	-3.15
467.572	6.85
467.697	-8.15
467.822	-0.15
467.947	19.85
468.072	6.85
468.197	-7.15
468.323	4.85
468.448	22.85
468.573	-1.15
468.698	-1.15
468.823	7.85
468.948	12.85
469.073	14.85
469.198	28.85
469.324	30.85
469.449	1.85
469.574	-7.15
469.699	18.85
469.824	3.85
469.949	11.85
470.074	11.85
470.199	49.85
470.324	31.85
470.449	15.85
470.574	7.85
470.7	7.85
470.825	37.85
470.95	37.85
471.075	11.85
471.2	19.85
471.325	31.85
471.45	5.85
471.575	-20.15
471.7	9.85
471.825	-0.15
471.95	0.85
472.075	7.85
472.2	-4.15
472.325	23.85
472.45	7.85
472.575	13.85
472.7	14.85
472.825	25.85
472.95	24.85
473.075	11.85
473.2	14.85
473.325	13.85
473.45	1.85
473.575	-6.15
473.7	21.85
473.825	0.85
473.95	29.85
474.075	23.85
474.2	2.85
474.325	26.85
474.45	34.85
474.574	6.85
474.699	4.85
474.824	25.85
474.949	4.85
475.074	5.85
475.199	24.85
475.324	32.85
475.449	26.85
475.574	6.85
475.699	9.85
475.824	13.85
475.949	13.85
476.073	1.85
476.198	19.85
476.323	16.85
476.448	3.85
476.573	16.85
476.698	26.85
476.823	2.85
476.947	20.85
477.072	14.85
477.197	8.85
477.322	18.85
477.447	22.85
477.572	12.85
477.697	-6.15
477.821	9.85
477.946	15.85
478.071	16.85
478.196	35.85
478.321	18.85
478.445	0.85
478.57	-5.15
478.695	1.85
478.82	21.85
478.945	3.85
479.069	6.85
479.194	8.85
479.319	14.85
479.444	18.85
479.569	18.85
479.693	10.85
479.818	19.85
479.943	27.85
480.068	17.85
480.192	9.85
480.317	31.85
480.442	26.85
480.567	8.85
480.691	-1.15
480.816	14.85
480.941	10.85
481.066	25.85
481.19	24.85
481.315	16.85
481.44	18.85
481.564	13.85
481.689	10.85
481.814	27.85
481.938	24.85
482.063	4.85
482.188	5.85
482.313	19.85
482.437	21.85
482.562	25.85
482.687	21.85
482.811	27.85
482.936	37.85
483.061	27.85
483.185	24.85
483.31	22.85
483.435	9.85
483.559	22.85
483.684	15.85
483.808	32.85
483.933	11.85
484.058	27.85
484.182	12.85
484.307	30.85
484.432	27.85
484.556	35.85
484.681	10.85
484.805	28.85
484.93	27.85
485.055	40.85
485.179	74.85
485.304	118.85
485.428	378.85
485.553	1227.85
485.678	1715.85
485.802	1588.85
485.927	1772.85
486.051	2633.85
486.176	1612.85
486.3	445.85
486.425	156.85
486.549	62.85
486.674	59.85
486.799	37.85
486.923	34.85
487.048	25.85
487.172	5.85
487.297	14.85
487.421	13.85
487.546	8.85
487.67	36.85
487.795	11.85
487.919	26.85
488.044	19.85
488.168	17.85
488.293	20.85
488.417	17.85
488.542	35.85
488.666	34.85
488.791	16.85
488.915	12.85
489.04	48.85
489.164	23.85
489.289	17.85
489.413	6.85
489.538	30.85
489.662	22.85
489.786	33.85
489.911	19.85
490.035	28.85
490.16	9.85
490.284	12.85
490.409	-6.15
490.533	16.85
490.658	37.85
490.782	21.85
490.906	34.85
491.031	29.85
491.155	22.85
491.28	30.85
491.404	17.85
491.528	36.85
491.653	18.85
491.777	23.85
491.902	-2.15
492.026	8.85
492.15	9.85
492.275	45.85
492.399	30.85
492.524	2.85
492.648	32.85
492.772	21.85
492.897	30.85
493.021	14.85
493.145	35.85
493.27	26.85
493.394	11.85
493.518	6.85
493.643	4.85
493.767	17.85
493.891	-3.15
494.016	7.85
494.14	13.85
494.264	16.85
494.389	14.85
494.513	8.85
494.637	5.85
494.762	7.85
494.886	27.85
495.01	10.85
495.134	18.85
495.259	24.85
495.383	10.85
495.507	25.85
495.632	45.85
495.756	41.85
495.88	29.85
496.004	31.85
496.129	14.85
496.253	27.85
496.377	35.85
496.501	36.85
496.626	10.85
496.75	3.85
496.874	16.85
496.998	17.85
497.123	16.85
497.247	4.85
497.371	2.85
497.495	4.85
497.62	0.85
497.744	11.85
497.868	3.85
497.992	2.85
498.116	3.85
498.241	12.85
498.365	-8.15
498.489	2.85
498.613	42.85
498.737	15.85
498.862	21.85
498.986	2.85
499.11	26.85
499.234	10.85
499.358	11.85
499.482	7.85
499.607	15.85
499.731	21.85
499.855	23.85
499.979	19.85
500.103	12.85
500.227	36.85
500.351	13.85
500.476	18.85
500.6	14.85
500.724	22.85
500.848	24.85
500.972	14.85
501.096	22.85
501.22	36.85
501.344	7.85
501.469	10.85
501.593	9.85
501.717	20.85
501.841	0.85
501.965	10.85
502.089	24.85
502.213	7.85
502.337	11.85
502.461	14.85
502.585	25.85
502.709	25.85
502.834	14.85
502.958	2.85
503.082	14.85
503.206	7.85
503.33	16.85
503.454	30.85
503.578	37.85
503.702	38.85
503.826	26.85
503.95	41.85
504.074	22.85
504.198	0.85
504.322	5.85
504.446	6.85
504.57	10.85
504.694	18.85
504.818	4.85
504.942	27.85
505.066	30.85
505.19	25.85
505.314	25.85
505.438	4.85
505.562	4.85
505.686	37.85
505.81	22.85
505.934	29.85
506.058	26.85
506.182	28.85
506.306	22.85
506.43	7.85
506.554	-3.15
506.678	3.85
506.802	3.85
506.926	17.85
507.05	19.85
507.174	17.85
507.298	14.85
507.422	16.85
507.546	22.85
507.67	31.85
507.794	-13.15
507.918	-1.15
508.042	19.85
508.165	4.85
508.289	-6.15
508.413	25.85
508.537	13.85
508.661	9.85
508.785	9.85
508.909	13.85
509.033	9.85
509.157	7.85
509.281	28.85
509.405	18.85
509.528	28.85
509.652	36.85
509.776	16.85
509.9	22.85
510.024	12.85
510.148	16.85
510.272	5.85
510.396	5.85
510.519	-0.15
510.643	29.85
510.767	9.85
510.891	4.85
511.015	6.85
511.139	29.85
511.263	24.85
511.386	-2.15
511.51	2.85
511.634	9.85
511.758	31.85
511.882	10.85
512.006	25.85
512.129	12.85
512.253	28.85
512.377	-2.15
512.501	9.85
512.625	18.85
512.748	-0.15
512.872	17.85
512.996	-3.15
513.12	15.85
513.244	6.85
513.367	-1.15
513.491	6.85
513.615	17.85
513.739	4.85
513.862	0.85
513.986	22.85
514.11	10.85
514.234	5.85
514.358	23.85
514.481	30.85
514.605	-2.15
514.729	20.85
514.853	31.85
514.976	-3.15
515.1	5.85
515.224	14.85
515.348	12.85
515.471	0.85
515.595	25.85
515.719	0.85
515.842	31.85
515.966	1.85
516.09	49.85
516.214	9.85
516.337	21.85
516.461	21.85
516.585	15.85
516.708	27.85
516.832	7.85
516.956	17.85
517.08	6.85
517.203	4.85
517.327	11.85
517.451	25.85
517.574	22.85
517.698	7.85
517.822	11.85
517.945	27.85
518.069	27.85
518.193	55.85
518.316	41.85
518.44	32.85
518.564	20.85
518.687	14.85
518.811	36.85
518.935	56.85
519.058	15.85
519.182	23.85
519.306	13.85
519.429	25.85
519.553	61.85
519.676	18.85
519.8	12.85
519.924	11.85
520.047	21.85
520.171	10.85
520.294	21.85
520.418	11.85
520.542	27.85
520.665	38.85
520.789	29.85
520.913	10.85
521.036	-13.15
521.16	8.85
521.283	11.85
521.407	7.85
521.53	-2.15
521.654	-15.15
521.778	25.85
521.901	26.85
522.025	1.85
522.148	18.85
522.272	10.85
522.395	6.85
522.519	22.85
522.643	4.85
522.766	4.85
522.89	20.85
523.013	19.85
523.137	4.85
523.26	27.85
523.384	16.85
523.507	31.85
523.631	13.85
523.754	2.85
523.878	12.85
524.002	24.85
524.125	16.85
524.249	10.85
524.372	23.85
524.496	31.85
524.619	10.85
524.743	24.85
524.866	-1.15
524.99	9.85
525.113	19.85
525.237	23.85
525.36	-1.15
525.484	10.85
525.607	2.85
525.731	-1.15
525.854	2.85
525.978	23.85
526.101	19.85
526.224	4.85
526.348	-9.15
526.471	6.85
526.595	15.85
526.718	3.85
526.842	9.85
526.965	14.85
527.089	1.85
527.212	15.85
527.336	9.85
527.459	36.85
527.582	18.85
527.706	34.85
527.829	-2.15
527.953	8.85
528.076	-3.15
528.2	-3.15
528.323	19.85
528.446	16.85
528.57	-8.15
528.693	28.85
528.817	-5.15
528.94	-0.15
529.064	28.85
529.187	0.85
529.31	8.85
529.434	8.85
529.557	24.85
529.68	9.85
529.804	15.85
529.927	22.85
530.051	1.85
530.174	11.85
530.297	19.85
530.421	12.85
530.544	26.85
530.668	14.85
530.791	-6.15
530.914	3.85
531.038	6.85
531.161	0.85
531.284	5.85
531.408	8.85
531.531	7.85
531.654	17.85
531.778	13.85
531.901	-8.15
532.024	19.85
532.148	-0.15
532.271	4.85
532.394	14.85
532.518	23.85
532.641	21.85
532.764	35.85
532.888	34.85
533.011	5.85
533.134	10.85
533.258	25.85
533.381	17.85
533.504	26.85
533.628	22.85
533.751	9.85
533.874	19.85
533.997	20.85
534.121	13.85
534.244	17.85
534.367	1.85
534.491	9.85
534.614	2.85
534.737	13.85
534.86	19.85
534.984	9.85
535.107	18.85
535.23	22.85
535.354	-2.15
535.477	-1.15
535.6	9.85
535.723	12.85
535.847	16.85
535.97	-9.15
536.093	21.85
536.216	-8.15
536.34	4.85
536.463	0.85
536.586	24.85
536.709	11.85
536.833	8.85
536.956	13.85
537.079	17.85
537.202	6.85
537.325	2.85
537.449	-3.15
537.572	29.85
537.695	-10.15
537.818	10.85
537.941	4.85
538.065	14.85
538.188	4.85
538.311	29.85
538.434	26.85
538.558	8.85
538.681	17.85
538.804	14.85
538.927	10.85
539.05	17.85
539.173	7.85
539.297	0.85
539.42	13.85
539.543	14.85
539.666	4.85
539.789	25.85
539.913	8.85
540.036	16.85
540.159	20.85
540.282	10.85
540.405	1.85
540.528	2.85
540.651	17.85
540.775	11.85
540.898	26.85
541.021	11.85
541.144	23.85
541.267	20.85
541.39	8.85
541.513	6.85
541.637	12.85
541.76	21.85
541.883	13.85
542.006	8.85
542.129	9.85
542.252	5.85
542.375	13.85
542.498	0.85
542.622	26.85
542.745	25.85
542.868	-2.15
542.991	25.85
543.114	34.85
543.237	30.85
543.36	26.85
543.483	-5.15
543.606	20.85
543.73	17.85
543.853	-6.15
543.976	3.85
544.099	8.85
544.222	14.85
544.345	12.85
544.468	24.85
544.591	17.85
544.714	17.85
544.837	43.85
544.96	41.85
545.083	11.85
545.206	13.85
545.329	26.85
545.453	3.85
545.576	13.85
545.699	17.85
545.822	5.85
545.945	15.85
546.068	6.85
546.191	8.85
546.314	14.85
546.437	22.85
546.56	-0.15
546.683	-4.15
546.806	15.85
546.929	9.85
547.052	-7.15
547.175	15.85
547.298	18.85
547.421	-3.15
547.544	3.85
547.667	-1.15
547.79	24.85
547.913	-7.15
548.036	2.85
548.159	4.85
548.282	11.85
548.405	6.85
548.528	5.85
548.651	6.85
548.774	31.85
548.897	24.85
549.02	31.85
549.143	19.85
549.266	18.85
549.389	1.85
549.512	-4.15
549.635	27.85
549.758	31.85
549.881	18.85
550.004	19.85
550.127	23.85
550.25	16.85
550.373	9.85
550.496	20.85
550.619	3.85
550.742	6.85
550.865	-8.15
550.988	4.85
551.111	23.85
551.234	19.85
551.356	4.85
551.479	-6.15
551.602	11.85
551.725	13.85
551.848	14.85
551.971	20.85
552.094	13.85
552.217	13.85
552.34	20.85
552.463	5.85
552.586	25.85
552.709	22.85
552.832	15.85
552.955	14.85
553.077	18.85
553.2	22.85
553.323	-1.15
553.446	7.85
553.569	15.85
553.692	34.85
553.815	1.85
553.938	18.85
554.061	18.85
554.184	11.85
554.306	23.85
554.429	10.85
554.552	12.85
554.675	-3.15
554.798	16.85
554.921	22.85
555.044	4.85
555.167	2.85
555.29	-2.15
555.412	17.85
555.535	15.85
555.658	0.85
555.781	13.85
555.904	8.85
556.027	10.85
556.15	10.85
556.272	-4.15
556.395	30.85
556.518	4.85
556.641	-3.15
556.764	38.85
556.887	16.85
557.01	1.85
557.132	-1.15
557.255	5.85
557.378	36.85
557.501	12.85
557.624	17.85
557.747	24.85
557.869	29.85
557.992	7.85
558.115	22.85
558.238	6.85
558.361	18.85
558.483	40.85
558.606	19.85
558.729	6.85
558.852	28.85
558.975	27.85
559.098	-1.15
559.22	20.85
559.343	9.85
559.466	0.85
559.589	6.85
559.712	5.85
559.834	1.85
559.957	11.85
560.08	1.85
560.203	23.85
560.325	20.85
560.448	36.85
560.571	18.85
560.694	6.85
560.817	20.85
560.939	22.85
561.062	7.85
561.185	17.85
561.308	-7.15
561.43	-11.15
561.553	13.85
561.676	13.85
561.799	18.85
561.921	-7.15
562.044	11.85
562.167	-2.15
562.29	24.85
562.413	12.85
562.535	25.85
562.658	-6.15
562.781	2.85
562.903	-8.15
563.026	25.85
563.149	32.85
563.272	9.85
563.394	6.85
563.517	13.85
563.64	-8.15
563.763	14.85
563.885	10.85
564.008	33.85
564.131	24.85
564.254	4.85
564.376	19.85
564.499	5.85
564.622	20.85
564.744	27.85
564.867	18.85
564.99	-9.15
565.113	12.85
565.235	7.85
565.358	-8.15
565.481	-5.15
565.603	12.85
565.726	7.85
565.849	26.85
565.971	24.85
566.094	-2.15
566.217	20.85
566.34	7.85
566.462	6.85
566.585	20.85
566.708	37.85
566.83	34.85
566.953	17.85
567.076	12.85
567.198	17.85
567.321	4.85
567.444	14.85
567.566	17.85
567.689	17.85
567.812	-0.15
567.934	13.85
568.057	10.85
568.18	21.85
568.302	-3.15
568.425	3.85
568.548	7.85
568.67	37.85
568.793	25.85
568.916	16.85
569.038	9.85
569.161	1.85
569.283	21.85
569.406	5.85
569.529	8.85
569.651	-10.15
569.774	15.85
569.897	2.85
570.019	16.85
570.142	8.85
570.265	-6.15
570.387	5.85
570.51	27.85
570.632	21.85
570.755	0.85
570.878	29.85
571	21.85
571.123	4.85
571.246	12.85
571.368	-6.15
571.491	-10.15
571.613	-11.15
571.736	-5.15
571.859	-2.15
571.981	-5.15
572.104	1.85
572.226	15.85
572.349	-0.15
572.472	14.85
572.594	27.85
572.717	22.85
572.839	12.85
572.962	4.85
573.085	21.85
573.207	19.85
573.33	16.85
573.452	35.85
573.575	19.85
573.697	14.85
573.82	14.85
573.943	-2.15
574.065	14.85
574.188	18.85
574.31	29.85
574.433	17.85
574.555	31.85
574.678	4.85
574.801	12.85
574.923	2.85
575.046	17.85
575.168	14.85
575.291	-3.15
575.413	9.85
575.536	15.85
575.659	11.85
575.781	0.85
575.904	3.85
576.026	2.85
576.149	7.85
576.271	22.85
576.394	9.85
576.516	21.85
576.639	20.85
576.761	-12.15
576.884	-5.15
577.007	-14.15
577.129	22.85
577.252	22.85
577.374	38.85
577.497	24.85
577.619	8.85
577.742	6.85
577.864	24.85
577.987	35.85
578.109	15.85
578.232	14.85
578.354	23.85
578.477	7.85
578.599	5.85
578.722	1.85
578.844	4.85
578.967	7.85
579.089	6.85
579.212	7.85
579.334	10.85
579.457	15.85
579.579	7.85
579.702	1.85
579.824	1.85
579.947	8.85
580.069	9.85
580.192	8.85
580.314	23.85
580.437	10.85
580.559	29.85
580.682	21.85
580.804	13.85
580.927	16.85
581.049	43.85
581.172	26.85
581.294	32.85
581.417	27.85
581.539	9.85
581.662	24.85
581.784	14.85
581.907	17.85
582.029	12.85
582.152	11.85
582.274	12.85
582.396	18.85
582.519	25.85
582.641	-5.15
582.764	9.85
582.886	14.85
583.009	-0.15
583.131	7.85
583.254	15.85
583.376	15.85
583.499	20.85
583.621	20.85
583.743	25.85
583.866	42.85
583.988	21.85
584.111	29.85
584.233	26.85
584.356	17.85
584.478	25.85
584.601	9.85
584.723	12.85
584.845	27.85
584.968	12.85
585.09	6.85
585.213	7.85
585.335	1.85
585.458	6.85
585.58	-8.15
585.702	21.85
585.825	25.85
585.947	11.85
586.07	1.85
586.192	9.85
586.315	-2.15
586.437	-6.15
586.559	11.85
586.682	4.85
586.804	6.85
586.927	3.85
587.049	7.85
587.171	31.85
587.294	19.85
587.416	28.85
587.539	19.85
587.661	13.85
587.783	10.85
587.906	4.85
588.028	6.85
588.151	26.85
588.273	20.85
588.395	22.85
588.518	0.85
588.64	16.85
588.763	28.85
588.885	13.85
589.007	16.85
589.13	-2.15
589.252	-10.15
589.375	7.85
589.497	10.85
589.619	3.85
589.742	4.85
589.864	19.85
589.986	-5.15
590.109	-17.15
590.231	4.85
590.354	19.85
590.476	-8.15
590.598	10.85
590.721	-0.15
590.843	16.85
590.965	6.85
591.088	34.85
591.21	26.85
591.332	16.85
591.455	-7.15
591.577	-9.15
591.7	9.85
591.822	14.85
591.944	21.85
592.067	11.85
592.189	9.85
592.311	12.85
592.434	14.85
592.556	22.85
592.678	2.85
592.801	0.85
592.923	6.85
593.045	1.85
593.168	24.85
593.29	13.85
593.412	30.85
593.535	8.85
593.657	10.85
593.779	21.85
593.902	14.85
594.024	16.85
594.146	30.85
594.269	12.85
594.391	3.85
594.513	24.85
594.636	12.85
594.758	34.85
594.88	25.85
595.003	15.85
595.125	12.85
595.247	22.85
595.37	19.85
595.492	1.85
595.614	8.85
595.737	13.85
595.859	-1.15
595.981	21.85
596.104	2.85
596.226	26.85
596.348	16.85
596.471	12.85
596.593	7.85
596.715	9.85
596.838	-1.15
596.96	6.85
597.082	31.85
597.204	27.85
597.327	26.85
597.449	13.85
597.571	13.85
597.694	12.85
597.816	12.85
597.938	10.85
598.061	6.85
598.183	8.85
598.305	18.85
598.427	15.85
598.55	6.85
598.672	25.85
598.794	21.85
598.917	4.85
599.039	18.85
599.161	28.85
599.283	11.85
599.406	10.85
599.528	15.85
599.65	44.85
599.773	24.85
599.895	45.85
600.017	40.85
600.139	18.85
600.262	10.85
600.384	-0.15
600.506	20.85
600.628	23.85
600.751	14.85
600.873	10.85
600.995	1.85
601.118	28.85
601.24	13.85
601.362	32.85
601.484	7.85
601.607	6.85
601.729	4.85
601.851	13.85
601.973	17.85
602.096	21.85
602.218	25.85
602.34	38.85
602.462	20.85
602.585	24.85
602.707	1.85
602.829	20.85
602.951	2.85
603.074	11.85
603.196	25.85
603.318	14.85
603.44	21.85
603.563	8.85
603.685	-3.15
603.807	12.85
603.929	-6.15
604.052	14.85
604.174	11.85
604.296	21.85
604.418	19.85
604.541	35.85
604.663	1.85
604.785	20.85
604.907	22.85
605.03	6.85
605.152	45.85
605.274	16.85
605.396	19.85
605.519	12.85
605.641	20.85
605.763	5.85
605.885	8.85
606.008	16.85
606.13	25.85
606.252	28.85
606.374	-12.15
606.496	11.85
606.619	4.85
606.741	6.85
606.863	25.85
606.985	48.85
607.108	19.85
607.23	20.85
607.352	8.85
607.474	11.85
607.596	32.85
607.719	6.85
607.841	23.85
607.963	0.85
608.085	-3.15
608.207	48.85
608.33	10.85
608.452	11.85
608.574	8.85
608.696	19.85
608.819	13.85
608.941	17.85
609.063	-3.15
609.185	3.85
609.307	14.85
609.43	27.85
609.552	6.85
609.674	-14.15
609.796	-0.15
609.918	12.85
610.041	7.85
610.163	35.85
610.285	5.85
610.407	5.85
610.529	5.85
610.652	13.85
610.774	11.85
610.896	10.85
611.018	-3.15
611.14	15.85
611.263	8.85
611.385	-3.15
611.507	24.85
611.629	10.85
611.751	11.85
611.873	48.85
611.996	13.85
612.118	39.85
612.24	0.85
612.362	1.85
612.484	12.85
612.607	-4.15
612.729	28.85
612.851	8.85
612.973	0.85
613.095	-9.15
613.218	24.85
613.34	28.85
613.462	34.85
613.584	16.85
613.706	15.85
613.828	26.85
613.951	14.85
614.073	8.85
614.195	-6.15
614.317	39.85
614.439	37.85
614.561	8.85
614.684	18.85
614.806	8.85
614.928	17.85
615.05	16.85
615.172	16.85
615.294	29.85
615.417	10.85
615.539	13.85
615.661	14.85
615.783	34.85
615.905	24.85
616.027	66.85
616.15	123.85
616.272	76.85
616.394	61.85
616.516	41.85
616.638	14.85
616.76	29.85
616.883	17.85
617.005	11.85
617.127	11.85
617.249	18.85
617.371	5.85
617.493	16.85
617.615	15.85
617.738	-6.15
617.86	8.85
617.982	12.85
618.104	12.85
618.226	10.85
618.348	12.85
618.471	18.85
618.593	14.85
618.715	5.85
618.837	18.85
618.959	12.85
619.081	23.85
619.203	12.85
619.326	16.85
619.448	8.85
619.57	16.85
619.692	33.85
619.814	7.85
619.936	24.85
620.058	16.85
620.181	12.85
620.303	2.85
620.425	21.85
620.547	-1.15
620.669	-6.15
620.791	4.85
620.913	11.85
621.036	9.85
621.158	27.85
621.28	18.85
621.402	0.85
621.524	-4.15
621.646	12.85
621.768	-14.15
621.891	-22.15
622.013	6.85
622.135	2.85
622.257	-1.15
622.379	2.85
622.501	-1.15
622.623	17.85
622.745	12.85
622.868	-1.15
622.99	16.85
623.112	0.85
623.234	6.85
623.356	23.85
623.478	1.85
623.6	6.85
623.722	4.85
623.845	9.85
623.967	6.85
624.089	-2.15
624.211	14.85
624.333	7.85
624.455	13.85
624.577	-1.15
624.699	38.85
624.822	10.85
624.944	-4.15
625.066	4.85
625.188	4.85
625.31	14.85
625.432	28.85
625.554	11.85
625.676	21.85
625.799	0.85
625.921	17.85
626.043	4.85
626.165	14.85
626.287	-3.15
626.409	27.85
626.531	18.85
626.653	24.85
626.775	21.85
626.898	-0.15
627.02	8.85
627.142	7.85
627.264	12.85
627.386	1.85
627.508	7.85
627.63	16.85
627.752	18.85
627.874	8.85
627.997	6.85
628.119	16.85
628.241	30.85
628.363	21.85
628.485	21.85
628.607	21.85
628.729	6.85
628.851	1.85
628.973	4.85
629.096	-7.15
629.218	15.85
629.34	19.85
629.462	-1.15
629.584	14.85
629.706	24.85
629.828	26.85
629.95	18.85
630.072	-2.15
630.195	8.85
630.317	11.85
630.439	4.85
630.561	-3.15
630.683	-11.15
630.805	2.85
630.927	6.85
631.049	11.85
631.171	6.85
631.293	21.85
631.416	17.85
631.538	18.85
631.66	7.85
631.782	11.85
631.904	29.85
632.026	5.85
632.148	26.85
632.27	6.85
632.392	3.85
632.514	5.85
632.637	10.85
632.759	8.85
632.881	11.85
633.003	-2.15
633.125	-14.15
633.247	7.85
633.369	5.85
633.491	-6.15
633.613	20.85
633.735	-7.15
633.858	26.85
633.98	5.85
634.102	-10.15
634.224	-4.15
634.346	-12.15
634.468	1.85
634.59	5.85
634.712	20.85
634.834	25.85
634.956	17.85
635.078	-2.15
635.201	-2.15
635.323	-2.15
635.445	18.85
635.567	4.85
635.689	16.85
635.811	16.85
635.933	13.85
636.055	17.85
636.177	-7.15
636.299	16.85
636.421	-5.15
636.544	-5.15
636.666	23.85
636.788	35.85
636.91	28.85
637.032	13.85
637.154	26.85
637.276	38.85
637.398	40.85
637.52	27.85
637.642	17.85
637.764	16.85
637.887	9.85
638.009	14.85
638.131	-1.15
638.253	0.85
638.375	11.85
638.497	14.85
638.619	4.85
638.741	23.85
638.863	-1.15
638.985	-8.15
639.107	8.85
639.23	2.85
639.352	29.85
639.474	10.85
639.596	2.85
639.718	20.85
639.84	6.85
639.962	6.85
640.084	18.85
640.206	20.85
640.328	21.85
640.45	8.85
640.573	17.85
640.695	9.85
640.817	14.85
640.939	28.85
641.061	11.85
641.183	6.85
641.305	7.85
641.427	8.85
641.549	14.85
641.671	20.85
641.793	1.85
641.915	16.85
642.038	12.85
642.16	4.85
642.282	13.85
642.404	-10.15
642.526	6.85
642.648	-3.15
642.77	-1.15
642.892	1.85
643.014	27.85
643.136	12.85
643.258	2.85
643.381	31.85
643.503	30.85
643.625	20.85
643.747	-6.15
643.869	2.85
643.991	20.85
644.113	8.85
644.235	2.85
644.357	15.85
644.479	19.85
644.601	10.85
644.723	13.85
644.846	19.85
644.968	21.85
645.09	6.85
645.212	8.85
645.334	11.85
645.456	-2.15
645.578	13.85
645.7	14.85
645.822	32.85
645.944	14.85
646.066	13.85
646.188	1.85
646.311	20.85
646.433	8.85
646.555	56.85
646.677	40.85
646.799	43.85
646.921	25.85
647.043	27.85
647.165	15.85
647.287	5.85
647.409	0.85
647.531	32.85
647.654	-8.15
647.776	26.85
647.898	26.85
648.02	18.85
648.142	12.85
648.264	10.85
648.386	4.85
648.508	-5.15
648.63	13.85
648.752	24.85
648.874	14.85
648.997	-2.15
649.119	18.85
649.241	8.85
649.363	19.85
649.485	30.85
649.607	2.85
649.729	-11.15
649.851	3.85
649.973	6.85
650.095	29.85
650.217	7.85
650.34	-0.15
650.462	12.85
650.584	2.85
650.706	19.85
650.828	20.85
650.95	-2.15
651.072	7.85
651.194	9.85
651.316	-2.15
651.438	10.85
651.56	-19.15
651.683	-14.15
651.805	2.85
651.927	1.85
652.049	-1.15
652.171	19.85
652.293	13.85
652.415	14.85
652.537	12.85
652.659	10.85
652.781	-8.15
652.903	20.85
653.026	13.85
653.148	8.85
653.27	19.85
653.392	14.85
653.514	11.85
653.636	-1.15
653.758	-0.15
653.88	2.85
654.002	20.85
654.124	10.85
654.247	14.85
654.369	39.85
654.491	13.85
654.613	-1.15
654.735	5.85
654.857	43.85
654.979	25.85
655.101	21.85
655.223	33.85
655.345	15.85
655.468	27.85
655.59	30.85
655.712	42.85
655.834	51.85
655.956	40.85
656.078	26.85
656.2	48.85
656.322	43.85
656.444	28.85
656.566	51.85
656.689	51.85
656.811	54.85
656.933	91.85
657.055	81.85
657.177	152.85
657.299	232.85
657.421	493.85
657.543	1872.85
657.665	12498.85
657.787	15166.85
657.91	15231.85
658.032	15663.85
658.154	4642.85
658.276	3436.85
658.398	1128.85
658.52	1039.85
658.642	466.85
658.764	576.85
658.886	269.85
659.009	403.85
659.131	212.85
659.253	316.85
659.375	182.85
659.497	248.85
659.619	126.85
659.741	209.85
659.863	97.85
659.985	176.85
660.108	93.85
660.23	146.85
660.352	72.85
660.474	144.85
660.596	79.85
660.718	137.85
660.84	46.85
660.962	129.85
661.084	42.85
661.207	105.85
661.329	58.85
661.451	94.85
661.573	41.85
661.695	127.85
661.817	42.85
661.939	91.85
662.061	64.85
662.184	60.85
662.306	45.85
662.428	85.85
662.55	62.85
662.672	68.85
662.794	29.85
662.916	67.85
663.038	31.85
663.161	75.85
663.283	41.85
663.405	74.85
663.527	28.85
663.649	56.85
663.771	36.85
663.893	58.85
664.015	13.85
664.138	59.85
664.26	48.85
664.382	54.85
664.504	19.85
664.626	41.85
664.748	13.85
664.87	26.85
664.992	34.85
665.115	42.85
665.237	29.85
665.359	42.85
665.481	33.85
665.603	39.85
665.725	8.85
665.847	20.85
665.97	37.85
666.092	39.85
666.214	17.85
666.336	34.85
666.458	29.85
666.58	42.85
666.702	18.85
666.825	23.85
666.947	5.85
667.069	32.85
667.191	23.85
667.313	50.85
667.435	28.85
667.557	37.85
667.68	19.85
667.802	31.85
667.924	4.85
668.046	26.85
668.168	22.85
668.29	56.85
668.412	18.85
668.535	25.85
668.657	16.85
668.779	29.85
668.901	9.85
669.023	36.85
669.145	23.85
669.267	48.85
669.39	30.85
669.512	40.85
669.634	14.85
669.756	11.85
669.878	22.85
670	49.85
670.123	18.85
670.245	30.85
670.367	-0.15
670.489	48.85
670.611	18.85
670.733	18.85
670.856	27.85
670.978	25.85
671.1	28.85
671.222	33.85
671.344	10.85
671.466	16.85
671.589	-9.15
671.711	28.85
671.833	10.85
671.955	26.85
672.077	-1.15
672.199	61.85
672.322	34.85
672.444	24.85
672.566	25.85
672.688	33.85
672.81	10.85
672.932	20.85
673.055	11.85
673.177	14.85
673.299	15.85
673.421	5.85
673.543	14.85
673.665	35.85
673.788	10.85
673.91	13.85
674.032	4.85
674.154	15.85
674.276	20.85
674.399	34.85
674.521	16.85
674.643	14.85
674.765	-6.15
674.887	24.85
675.009	6.85
675.132	8.85
675.254	-4.15
675.376	14.85
675.498	11.85
675.62	45.85
675.743	-1.15
675.865	12.85
675.987	14.85
676.109	23.85
676.231	5.85
676.354	37.85
676.476	21.85
676.598	22.85
676.72	1.85
676.842	12.85
676.965	9.85
677.087	20.85
677.209	12.85
677.331	21.85
677.453	12.85
677.576	25.85
677.698	14.85
677.82	5.85
677.942	6.85
678.064	33.85
678.187	5.85
678.309	17.85
678.431	-1.15
678.553	8.85
678.675	2.85
678.798	33.85
678.92	2.85
679.042	2.85
679.164	-6.15
679.286	20.85
679.409	1.85
679.531	0.85
679.653	10.85
679.775	7.85
679.898	7.85
680.02	20.85
680.142	-1.15
680.264	8.85
680.386	-6.15
680.509	10.85
680.631	3.85
680.753	25.85
680.875	1.85
680.998	6.85
681.12	16.85
681.242	20.85
681.364	1.85
681.486	5.85
681.609	-12.15
681.731	-5.15
681.853	-7.15
681.975	15.85
682.098	14.85
682.22	29.85
682.342	-3.15
682.464	45.85
682.587	12.85
682.709	12.85
682.831	-2.15
682.953	15.85
683.076	-3.15
683.198	14.85
683.32	8.85
683.442	6.85
683.565	14.85
683.687	7.85
683.809	-17.15
683.931	-24.15
684.054	13.85
684.176	25.85
684.298	25.85
684.42	7.85
684.543	6.85
684.665	10.85
684.787	-10.15
684.909	-20.15
685.032	6.85
685.154	6.85
685.276	4.85
685.398	0.85
685.521	-3.15
685.643	-3.15
685.765	4.85
685.887	22.85
686.01	2.85
686.132	9.85
686.254	14.85
686.377	27.85
686.499	2.85
686.621	32.85
686.743	25.85
686.866	10.85
686.988	35.85
687.11	28.85
687.232	11.85
687.355	-1.15
687.477	13.85
687.599	14.85
687.722	20.85
687.844	7.85
687.966	31.85
688.088	1.85
688.211	28.85
688.333	19.85
688.455	17.85
688.578	36.85
688.7	18.85
688.822	4.85
688.944	-9.15
689.067	35.85
689.189	1.85
689.311	-0.15
689.434	18.85
689.556	28.85
689.678	27.85
689.801	9.85
689.923	12.85
690.045	28.85
690.167	34.85
690.29	19.85
690.412	15.85
690.534	11.85
690.657	5.85
690.779	3.85
690.901	25.85
691.024	14.85
691.146	9.85
691.268	-1.15
691.391	17.85
691.513	36.85
691.635	17.85
691.758	36.85
691.88	36.85
692.002	11.85
692.125	-4.15
692.247	-4.15
692.369	-6.15
692.492	-17.15
692.614	5.85
692.736	11.85
692.859	1.85
692.981	9.85
693.103	7.85
693.226	13.85
693.348	31.85
693.47	16.85
693.593	23.85
693.715	-6.15
693.837	-6.15
693.96	12.85
694.082	0.85
694.204	11.85
694.327	6.85
694.449	-6.15
694.571	11.85
694.694	25.85
694.816	7.85
694.938	-7.15
695.061	10.85
695.183	29.85
695.305	17.85
695.428	3.85
695.55	-10.15
695.672	3.85
695.795	16.85
695.917	18.85
696.04	1.85
696.162	15.85
696.284	5.85
696.407	10.85
696.529	16.85
696.651	32.85
696.774	5.85
696.896	20.85
697.019	1.85
697.141	7.85
697.263	11.85
697.386	10.85
697.508	-6.15
697.63	24.85
697.753	7.85
697.875	7.85
697.998	-14.15
698.12	17.85
698.242	-2.15
698.365	1.85
698.487	9.85
698.61	21.85
698.732	6.85
698.854	25.85
698.977	4.85
699.099	24.85
699.221	1.85
699.344	6.85
699.466	24.85
699.589	10.85
699.711	-3.15
699.834	4.85
699.956	1.85
700.078	2.85
700.201	0.85
700.323	21.85
700.446	11.85
700.568	10.85
700.69	9.85
700.813	6.85
700.935	-4.15
701.058	-7.15
701.18	-6.15
701.302	5.85
701.425	9.85
701.547	9.85
701.67	-14.15
701.792	10.85
701.915	-2.15
702.037	18.85
702.159	-3.15
702.282	2.85
702.404	0.85
702.527	14.85
702.649	32.85
702.772	14.85
702.894	15.85
703.017	10.85
703.139	21.85
703.261	26.85
703.384	16.85
703.506	-0.15
703.629	9.85
703.751	4.85
703.874	14.85
703.996	4.85
704.119	-7.15
704.241	13.85
704.364	-10.15
704.486	13.85
704.608	18.85
704.731	-3.15
704.853	7.85
704.976	3.85
705.098	-2.15
705.221	0.85
705.343	21.85
705.466	13.85
705.588	9.85
705.711	21.85
705.833	8.85
705.956	-1.15
706.078	28.85
706.201	25.85
706.323	-6.15
706.446	-8.15
