Data from LowRes_H2_15_26_11_07_2024_HR4C61881__79__15-28-21-536.txt Node

Date: Thu Nov 07 15:28:21 EST 2024
User: crc00042
Spectrometer: HR4C6188
Trigger mode: 4
Integration Time (sec): 1.000000E-1
Scans to average: 1
Electric dark correction enabled: true
Nonlinearity correction enabled: false
Boxcar width: 0
XAxis mode: Wavelengths
Number of Pixels in Spectrum: 3648
>>>>>Begin Spectral Data<<<<<
245.66	-119.38
245.797	-119.38
245.934	-119.38
246.071	-71.38
246.208	14.62
246.344	10.62
246.481	-1.38
246.618	-9.38
246.755	25.62
246.892	-10.38
247.029	-2.38
247.165	-19.38
247.302	7.62
247.439	4.62
247.576	-0.38
247.713	-16.38
247.849	25.62
247.986	-14.38
248.123	-3.38
248.26	21.62
248.396	13.62
248.533	10.62
248.67	-4.38
248.806	17.62
248.943	0.62
249.08	-10.38
249.216	24.62
249.353	-0.38
249.49	5.62
249.626	8.62
249.763	15.62
249.9	-1.38
250.036	6.62
250.173	2.62
250.309	12.62
250.446	2.62
250.582	1.62
250.719	-11.38
250.856	13.62
250.992	0.62
251.129	-15.38
251.265	4.62
251.402	-2.38
251.538	13.62
251.675	3.62
251.811	36.62
251.948	28.62
252.084	16.62
252.221	23.62
252.357	11.62
252.493	30.62
252.63	12.62
252.766	22.62
252.903	4.62
253.039	1.62
253.175	0.62
253.312	17.62
253.448	1.62
253.585	-13.38
253.721	13.62
253.857	-19.38
253.994	-5.38
254.13	9.62
254.266	-1.38
254.403	-16.38
254.539	2.62
254.675	19.62
254.811	24.62
254.948	8.62
255.084	16.62
255.22	-3.38
255.356	18.62
255.493	11.62
255.629	30.62
255.765	8.62
255.901	29.62
256.037	23.62
256.174	17.62
256.31	-3.38
256.446	-10.38
256.582	8.62
256.718	37.62
256.854	31.62
256.991	16.62
257.127	17.62
257.263	27.62
257.399	3.62
257.535	-5.38
257.671	-14.38
257.807	-3.38
257.943	9.62
258.079	-11.38
258.215	1.62
258.351	9.62
258.487	0.62
258.623	24.62
258.759	6.62
258.895	-3.38
259.031	-3.38
259.167	15.62
259.303	17.62
259.439	-4.38
259.575	2.62
259.711	-0.38
259.847	-5.38
259.983	-3.38
260.119	-12.38
260.255	-4.38
260.391	-5.38
260.527	24.62
260.663	15.62
260.799	29.62
260.934	22.62
261.07	7.62
261.206	-6.38
261.342	-0.38
261.478	8.62
261.614	19.62
261.749	18.62
261.885	15.62
262.021	9.62
262.157	16.62
262.293	0.62
262.428	-1.38
262.564	7.62
262.7	16.62
262.836	-6.38
262.971	17.62
263.107	20.62
263.243	24.62
263.378	11.62
263.514	-2.38
263.65	1.62
263.785	-21.38
263.921	-15.38
264.057	6.62
264.192	14.62
264.328	13.62
264.464	-6.38
264.599	7.62
264.735	21.62
264.871	-1.38
265.006	-4.38
265.142	15.62
265.277	5.62
265.413	12.62
265.548	23.62
265.684	28.62
265.819	6.62
265.955	-16.38
266.091	-7.38
266.226	8.62
266.362	15.62
266.497	2.62
266.633	1.62
266.768	3.62
266.903	19.62
267.039	11.62
267.174	21.62
267.31	-1.38
267.445	6.62
267.581	-1.38
267.716	17.62
267.851	8.62
267.987	26.62
268.122	6.62
268.258	-5.38
268.393	-3.38
268.528	0.62
268.664	-4.38
268.799	-9.38
268.934	6.62
269.07	5.62
269.205	1.62
269.34	15.62
269.476	9.62
269.611	18.62
269.746	24.62
269.881	19.62
270.017	22.62
270.152	0.62
270.287	11.62
270.422	18.62
270.558	-10.38
270.693	1.62
270.828	9.62
270.963	10.62
271.098	0.62
271.234	17.62
271.369	8.62
271.504	5.62
271.639	-5.38
271.774	-7.38
271.909	4.62
272.045	-5.38
272.18	-1.38
272.315	9.62
272.45	10.62
272.585	5.62
272.72	15.62
272.855	7.62
272.99	25.62
273.125	2.62
273.26	-21.38
273.395	-15.38
273.53	20.62
273.665	24.62
273.8	0.62
273.935	-2.38
274.07	3.62
274.205	16.62
274.34	-4.38
274.475	11.62
274.61	22.62
274.745	-0.38
274.88	19.62
275.015	-0.38
275.15	8.62
275.285	8.62
275.42	3.62
275.555	20.62
275.69	18.62
275.825	21.62
275.959	29.62
276.094	8.62
276.229	-4.38
276.364	6.62
276.499	16.62
276.634	-1.38
276.768	-22.38
276.903	11.62
277.038	30.62
277.173	-4.38
277.308	-13.38
277.442	-9.38
277.577	8.62
277.712	2.62
277.847	2.62
277.981	18.62
278.116	-17.38
278.251	-1.38
278.386	-16.38
278.52	8.62
278.655	6.62
278.79	2.62
278.924	12.62
279.059	18.62
279.194	-19.38
279.328	44.62
279.463	30.62
279.598	37.62
279.732	12.62
279.867	26.62
280.001	5.62
280.136	-7.38
280.271	27.62
280.405	15.62
280.54	12.62
280.674	11.62
280.809	31.62
280.943	11.62
281.078	1.62
281.213	3.62
281.347	17.62
281.482	21.62
281.616	11.62
281.751	10.62
281.885	-7.38
282.02	0.62
282.154	19.62
282.288	-19.38
282.423	-8.38
282.557	2.62
282.692	25.62
282.826	6.62
282.961	9.62
283.095	9.62
283.229	-8.38
283.364	-1.38
283.498	22.62
283.633	7.62
283.767	1.62
283.901	-16.38
284.036	-10.38
284.17	-14.38
284.304	-5.38
284.439	14.62
284.573	3.62
284.707	10.62
284.842	1.62
284.976	8.62
285.11	-9.38
285.244	-3.38
285.379	39.62
285.513	-5.38
285.647	-0.38
285.781	13.62
285.916	24.62
286.05	23.62
286.184	14.62
286.318	6.62
286.453	8.62
286.587	-17.38
286.721	9.62
286.855	12.62
286.989	17.62
287.123	4.62
287.258	-23.38
287.392	-5.38
287.526	6.62
287.66	-1.38
287.794	6.62
287.928	-4.38
288.062	14.62
288.196	-2.38
288.33	23.62
288.464	23.62
288.598	14.62
288.733	22.62
288.867	30.62
289.001	8.62
289.135	1.62
289.269	-11.38
289.403	-2.38
289.537	12.62
289.671	-1.38
289.805	1.62
289.939	12.62
290.073	-11.38
290.207	22.62
290.34	14.62
290.474	15.62
290.608	9.62
290.742	2.62
290.876	16.62
291.01	7.62
291.144	15.62
291.278	34.62
291.412	-8.38
291.546	6.62
291.679	-5.38
291.813	8.62
291.947	18.62
292.081	7.62
292.215	19.62
292.349	27.62
292.482	9.62
292.616	-0.38
292.75	-2.38
292.884	12.62
293.018	-11.38
293.151	-8.38
293.285	14.62
293.419	-10.38
293.553	1.62
293.686	0.62
293.82	13.62
293.954	22.62
294.088	28.62
294.221	4.62
294.355	1.62
294.489	-3.38
294.622	1.62
294.756	-3.38
294.89	2.62
295.023	22.62
295.157	14.62
295.291	-4.38
295.424	18.62
295.558	2.62
295.691	11.62
295.825	21.62
295.959	1.62
296.092	2.62
296.226	11.62
296.359	5.62
296.493	-3.38
296.627	-13.38
296.76	21.62
296.894	4.62
297.027	14.62
297.161	3.62
297.294	0.62
297.428	0.62
297.561	21.62
297.695	-9.38
297.828	-7.38
297.962	-1.38
298.095	8.62
298.229	8.62
298.362	-13.38
298.495	-19.38
298.629	-22.38
298.762	30.62
298.896	9.62
299.029	-16.38
299.162	-0.38
299.296	24.62
299.429	17.62
299.563	20.62
299.696	28.62
299.829	12.62
299.963	8.62
300.096	18.62
300.229	13.62
300.363	14.62
300.496	20.62
300.629	-8.38
300.763	-4.38
300.896	2.62
301.029	4.62
301.162	1.62
301.296	9.62
301.429	11.62
301.562	0.62
301.695	11.62
301.829	-0.38
301.962	7.62
302.095	8.62
302.228	6.62
302.362	-7.38
302.495	-3.38
302.628	9.62
302.761	-12.38
302.894	27.62
303.027	30.62
303.161	12.62
303.294	-0.38
303.427	25.62
303.56	21.62
303.693	1.62
303.826	-10.38
303.959	-6.38
304.092	1.62
304.225	16.62
304.359	15.62
304.492	14.62
304.625	-1.38
304.758	16.62
304.891	7.62
305.024	10.62
305.157	0.62
305.29	-12.38
305.423	0.62
305.556	5.62
305.689	17.62
305.822	3.62
305.955	25.62
306.088	-7.38
306.221	3.62
306.354	-3.38
306.487	-8.38
306.62	-7.38
306.752	-2.38
306.885	19.62
307.018	-3.38
307.151	22.62
307.284	25.62
307.417	-4.38
307.55	3.62
307.683	-2.38
307.816	14.62
307.948	2.62
308.081	19.62
308.214	24.62
308.347	25.62
308.48	-9.38
308.613	-7.38
308.745	17.62
308.878	16.62
309.011	15.62
309.144	23.62
309.277	-16.38
309.409	9.62
309.542	-5.38
309.675	16.62
309.808	11.62
309.94	26.62
310.073	-0.38
310.206	-5.38
310.339	10.62
310.471	2.62
310.604	31.62
310.737	-6.38
310.869	1.62
311.002	2.62
311.135	12.62
311.267	-10.38
311.4	9.62
311.533	24.62
311.665	6.62
311.798	12.62
311.93	11.62
312.063	17.62
312.196	9.62
312.328	10.62
312.461	7.62
312.593	-3.38
312.726	24.62
312.859	2.62
312.991	2.62
313.124	-31.38
313.256	-2.38
313.389	24.62
313.521	-4.38
313.654	4.62
313.786	-17.38
313.919	-15.38
314.051	-10.38
314.184	5.62
314.316	19.62
314.449	-13.38
314.581	9.62
314.714	8.62
314.846	27.62
314.978	-2.38
315.111	-8.38
315.243	21.62
315.376	17.62
315.508	15.62
315.641	10.62
315.773	39.62
315.905	10.62
316.038	5.62
316.17	6.62
316.302	7.62
316.435	4.62
316.567	-11.38
316.699	28.62
316.832	20.62
316.964	9.62
317.096	0.62
317.229	3.62
317.361	-10.38
317.493	4.62
317.625	0.62
317.758	3.62
317.89	35.62
318.022	30.62
318.155	11.62
318.287	-3.38
318.419	3.62
318.551	0.62
318.683	10.62
318.816	-0.38
318.948	-16.38
319.08	1.62
319.212	10.62
319.344	-6.38
319.477	-6.38
319.609	5.62
319.741	16.62
319.873	-1.38
320.005	-20.38
320.137	-3.38
320.269	5.62
320.401	14.62
320.534	-7.38
320.666	-22.38
320.798	-14.38
320.93	-9.38
321.062	-16.38
321.194	14.62
321.326	11.62
321.458	7.62
321.59	2.62
321.722	-8.38
321.854	2.62
321.986	4.62
322.118	16.62
322.25	3.62
322.382	6.62
322.514	22.62
322.646	-2.38
322.778	22.62
322.91	8.62
323.042	-1.38
323.174	-4.38
323.306	-2.38
323.438	-8.38
323.57	-3.38
323.702	3.62
323.834	9.62
323.966	4.62
324.097	7.62
324.229	20.62
324.361	-6.38
324.493	13.62
324.625	-9.38
324.757	16.62
324.889	3.62
325.021	12.62
325.152	15.62
325.284	35.62
325.416	4.62
325.548	17.62
325.68	8.62
325.811	24.62
325.943	32.62
326.075	-14.38
326.207	-4.38
326.339	16.62
326.47	1.62
326.602	8.62
326.734	16.62
326.866	0.62
326.997	-17.38
327.129	-4.38
327.261	-2.38
327.392	8.62
327.524	-4.38
327.656	8.62
327.787	13.62
327.919	10.62
328.051	-2.38
328.182	32.62
328.314	2.62
328.446	4.62
328.577	25.62
328.709	16.62
328.841	-1.38
328.972	-11.38
329.104	4.62
329.235	-0.38
329.367	17.62
329.499	4.62
329.63	25.62
329.762	11.62
329.893	12.62
330.025	4.62
330.156	2.62
330.288	16.62
330.419	10.62
330.551	13.62
330.683	13.62
330.814	0.62
330.946	19.62
331.077	6.62
331.208	11.62
331.34	-16.38
331.471	20.62
331.603	18.62
331.734	0.62
331.866	9.62
331.997	-5.38
332.129	11.62
332.26	-1.38
332.392	32.62
332.523	2.62
332.654	-6.38
332.786	0.62
332.917	5.62
333.048	24.62
333.18	29.62
333.311	-9.38
333.443	-8.38
333.574	-4.38
333.705	23.62
333.837	-4.38
333.968	13.62
334.099	15.62
334.231	26.62
334.362	10.62
334.493	15.62
334.624	16.62
334.756	21.62
334.887	22.62
335.018	20.62
335.15	27.62
335.281	6.62
335.412	20.62
335.543	8.62
335.675	-6.38
335.806	-5.38
335.937	-4.38
336.068	20.62
336.199	35.62
336.331	12.62
336.462	9.62
336.593	17.62
336.724	4.62
336.855	-6.38
336.986	9.62
337.118	8.62
337.249	12.62
337.38	20.62
337.511	0.62
337.642	4.62
337.773	5.62
337.904	16.62
338.035	1.62
338.166	1.62
338.298	5.62
338.429	2.62
338.56	20.62
338.691	11.62
338.822	-2.38
338.953	13.62
339.084	16.62
339.215	26.62
339.346	-1.38
339.477	3.62
339.608	13.62
339.739	11.62
339.87	6.62
340.001	8.62
340.132	11.62
340.263	-6.38
340.394	9.62
340.525	17.62
340.656	2.62
340.787	-21.38
340.918	32.62
341.049	17.62
341.179	6.62
341.31	6.62
341.441	13.62
341.572	12.62
341.703	5.62
341.834	9.62
341.965	27.62
342.096	9.62
342.227	13.62
342.357	-1.38
342.488	16.62
342.619	10.62
342.75	5.62
342.881	-5.38
343.012	31.62
343.142	31.62
343.273	4.62
343.404	7.62
343.535	23.62
343.666	16.62
343.796	21.62
343.927	29.62
344.058	13.62
344.189	13.62
344.319	21.62
344.45	16.62
344.581	12.62
344.712	-7.38
344.842	5.62
344.973	-6.38
345.104	23.62
345.234	0.62
345.365	-6.38
345.496	23.62
345.626	12.62
345.757	19.62
345.888	2.62
346.018	22.62
346.149	4.62
346.28	29.62
346.41	4.62
346.541	18.62
346.672	2.62
346.802	20.62
346.933	12.62
347.063	7.62
347.194	3.62
347.325	18.62
347.455	33.62
347.586	16.62
347.716	-8.38
347.847	9.62
347.977	14.62
348.108	-1.38
348.238	7.62
348.369	17.62
348.499	17.62
348.63	0.62
348.76	2.62
348.891	14.62
349.021	19.62
349.152	9.62
349.282	5.62
349.413	6.62
349.543	13.62
349.674	11.62
349.804	21.62
349.935	-0.38
350.065	-5.38
350.196	-9.38
350.326	16.62
350.456	19.62
350.587	27.62
350.717	-0.38
350.848	4.62
350.978	6.62
351.108	8.62
351.239	31.62
351.369	21.62
351.499	7.62
351.63	11.62
351.76	8.62
351.89	7.62
352.021	8.62
352.151	11.62
352.281	27.62
352.412	20.62
352.542	8.62
352.672	-4.38
352.803	-8.38
352.933	5.62
353.063	18.62
353.193	14.62
353.324	15.62
353.454	-0.38
353.584	14.62
353.714	15.62
353.845	-6.38
353.975	2.62
354.105	-0.38
354.235	6.62
354.365	-7.38
354.496	0.62
354.626	9.62
354.756	5.62
354.886	13.62
355.016	12.62
355.146	19.62
355.277	19.62
355.407	8.62
355.537	1.62
355.667	24.62
355.797	15.62
355.927	3.62
356.057	0.62
356.187	5.62
356.318	-3.38
356.448	20.62
356.578	10.62
356.708	11.62
356.838	11.62
356.968	5.62
357.098	17.62
357.228	27.62
357.358	-4.38
357.488	-1.38
357.618	27.62
357.748	11.62
357.878	25.62
358.008	-2.38
358.138	7.62
358.268	-4.38
358.398	17.62
358.528	-13.38
358.658	15.62
358.788	-5.38
358.918	1.62
359.048	2.62
359.178	17.62
359.308	13.62
359.438	16.62
359.568	37.62
359.698	19.62
359.827	-4.38
359.957	6.62
360.087	1.62
360.217	-1.38
360.347	17.62
360.477	24.62
360.607	0.62
360.737	20.62
360.866	13.62
360.996	-8.38
361.126	0.62
361.256	25.62
361.386	25.62
361.516	16.62
361.645	-10.38
361.775	20.62
361.905	7.62
362.035	13.62
362.165	13.62
362.294	22.62
362.424	28.62
362.554	29.62
362.684	6.62
362.813	11.62
362.943	26.62
363.073	16.62
363.203	6.62
363.332	12.62
363.462	11.62
363.592	-3.38
363.721	-7.38
363.851	17.62
363.981	17.62
364.111	6.62
364.24	1.62
364.37	19.62
364.5	26.62
364.629	13.62
364.759	-10.38
364.888	-10.38
365.018	8.62
365.148	-3.38
365.277	13.62
365.407	10.62
365.537	19.62
365.666	-3.38
365.796	7.62
365.925	10.62
366.055	18.62
366.184	-4.38
366.314	15.62
366.444	27.62
366.573	8.62
366.703	12.62
366.832	11.62
366.962	-1.38
367.091	23.62
367.221	-1.38
367.35	16.62
367.48	36.62
367.609	15.62
367.739	21.62
367.868	-3.38
367.998	1.62
368.127	10.62
368.257	13.62
368.386	26.62
368.516	10.62
368.645	-3.38
368.775	22.62
368.904	1.62
369.033	-11.38
369.163	-2.38
369.292	10.62
369.422	6.62
369.551	28.62
369.68	16.62
369.81	27.62
369.939	3.62
370.069	23.62
370.198	3.62
370.327	-13.38
370.457	21.62
370.586	35.62
370.715	-1.38
370.845	6.62
370.974	24.62
371.103	26.62
371.233	17.62
371.362	12.62
371.491	2.62
371.621	25.62
371.75	7.62
371.879	14.62
372.008	-1.38
372.138	4.62
372.267	39.62
372.396	24.62
372.525	13.62
372.655	-4.38
372.784	24.62
372.913	21.62
373.042	10.62
373.172	15.62
373.301	-9.38
373.43	1.62
373.559	15.62
373.688	23.62
373.818	28.62
373.947	16.62
374.076	-9.38
374.205	12.62
374.334	-4.38
374.463	-6.38
374.593	26.62
374.722	29.62
374.851	27.62
374.98	-4.38
375.109	32.62
375.238	40.62
375.367	31.62
375.496	9.62
375.625	-0.38
375.755	29.62
375.884	18.62
376.013	-1.38
376.142	6.62
376.271	10.62
376.4	44.62
376.529	7.62
376.658	13.62
376.787	9.62
376.916	26.62
377.045	0.62
377.174	-2.38
377.303	0.62
377.432	37.62
377.561	14.62
377.69	-3.38
377.819	10.62
377.948	15.62
378.077	-5.38
378.206	10.62
378.335	14.62
378.464	-1.38
378.593	24.62
378.722	-1.38
378.851	11.62
378.98	34.62
379.108	7.62
379.237	12.62
379.366	16.62
379.495	24.62
379.624	10.62
379.753	20.62
379.882	16.62
380.011	-3.38
380.14	2.62
380.268	18.62
380.397	10.62
380.526	43.62
380.655	0.62
380.784	4.62
380.913	-11.38
381.041	0.62
381.17	3.62
381.299	16.62
381.428	3.62
381.557	9.62
381.685	23.62
381.814	13.62
381.943	0.62
382.072	3.62
382.2	-7.38
382.329	12.62
382.458	-6.38
382.587	36.62
382.715	32.62
382.844	20.62
382.973	8.62
383.102	13.62
383.23	1.62
383.359	-12.38
383.488	14.62
383.616	11.62
383.745	-0.38
383.874	-5.38
384.003	0.62
384.131	9.62
384.26	7.62
384.389	10.62
384.517	-3.38
384.646	11.62
384.774	-2.38
384.903	23.62
385.032	17.62
385.16	24.62
385.289	7.62
385.418	1.62
385.546	18.62
385.675	22.62
385.803	27.62
385.932	20.62
386.06	6.62
386.189	-0.38
386.318	-2.38
386.446	8.62
386.575	16.62
386.703	12.62
386.832	4.62
386.96	-5.38
387.089	22.62
387.217	-10.38
387.346	14.62
387.474	11.62
387.603	10.62
387.731	6.62
387.86	32.62
387.988	24.62
388.117	18.62
388.245	15.62
388.374	-8.38
388.502	18.62
388.631	1.62
388.759	7.62
388.888	10.62
389.016	14.62
389.144	14.62
389.273	11.62
389.401	-8.38
389.53	-14.38
389.658	23.62
389.786	-3.38
389.915	-5.38
390.043	12.62
390.172	30.62
390.3	29.62
390.428	18.62
390.557	7.62
390.685	22.62
390.813	18.62
390.942	16.62
391.07	16.62
391.198	7.62
391.327	-16.38
391.455	-1.38
391.583	29.62
391.712	14.62
391.84	14.62
391.968	-1.38
392.096	17.62
392.225	23.62
392.353	8.62
392.481	-4.38
392.609	20.62
392.738	24.62
392.866	1.62
392.994	-8.38
393.122	45.62
393.251	1.62
393.379	9.62
393.507	-3.38
393.635	5.62
393.764	11.62
393.892	23.62
394.02	-1.38
394.148	7.62
394.276	9.62
394.404	21.62
394.533	8.62
394.661	16.62
394.789	46.62
394.917	34.62
395.045	0.62
395.173	-0.38
395.302	8.62
395.43	5.62
395.558	20.62
395.686	16.62
395.814	24.62
395.942	4.62
396.07	15.62
396.198	16.62
396.326	7.62
396.454	20.62
396.582	15.62
396.711	11.62
396.839	7.62
396.967	20.62
397.095	18.62
397.223	26.62
397.351	30.62
397.479	24.62
397.607	11.62
397.735	13.62
397.863	6.62
397.991	17.62
398.119	-1.38
398.247	24.62
398.375	13.62
398.503	8.62
398.631	19.62
398.759	21.62
398.887	-6.38
399.015	2.62
399.143	2.62
399.271	11.62
399.399	15.62
399.526	25.62
399.654	12.62
399.782	-18.38
399.91	13.62
400.038	29.62
400.166	6.62
400.294	1.62
400.422	4.62
400.55	14.62
400.678	15.62
400.805	7.62
400.933	10.62
401.061	33.62
401.189	14.62
401.317	25.62
401.445	26.62
401.573	38.62
401.7	26.62
401.828	10.62
401.956	28.62
402.084	30.62
402.212	21.62
402.34	18.62
402.467	-9.38
402.595	8.62
402.723	-0.38
402.851	27.62
402.978	18.62
403.106	15.62
403.234	17.62
403.362	29.62
403.489	23.62
403.617	2.62
403.745	-5.38
403.873	4.62
404	22.62
404.128	23.62
404.256	31.62
404.384	29.62
404.511	18.62
404.639	8.62
404.767	20.62
404.894	-15.38
405.022	1.62
405.15	11.62
405.277	14.62
405.405	-10.38
405.533	-0.38
405.66	-3.38
405.788	-5.38
405.916	-9.38
406.043	-1.38
406.171	13.62
406.299	30.62
406.426	1.62
406.554	2.62
406.681	8.62
406.809	15.62
406.937	10.62
407.064	5.62
407.192	22.62
407.319	17.62
407.447	6.62
407.574	37.62
407.702	14.62
407.83	12.62
407.957	-13.38
408.085	21.62
408.212	10.62
408.34	12.62
408.467	14.62
408.595	15.62
408.722	15.62
408.85	14.62
408.977	-10.38
409.105	-2.38
409.232	5.62
409.36	9.62
409.487	19.62
409.615	22.62
409.742	33.62
409.87	33.62
409.997	36.62
410.125	45.62
410.252	65.62
410.379	72.62
410.507	46.62
410.634	34.62
410.762	8.62
410.889	37.62
411.017	10.62
411.144	5.62
411.271	5.62
411.399	10.62
411.526	16.62
411.653	4.62
411.781	44.62
411.908	22.62
412.036	9.62
412.163	28.62
412.29	29.62
412.418	11.62
412.545	24.62
412.672	-4.38
412.8	53.62
412.927	20.62
413.054	13.62
413.182	10.62
413.309	5.62
413.436	-3.38
413.564	-4.38
413.691	4.62
413.818	32.62
413.945	10.62
414.073	5.62
414.2	32.62
414.327	0.62
414.454	7.62
414.582	11.62
414.709	-17.38
414.836	2.62
414.963	-16.38
415.091	10.62
415.218	9.62
415.345	12.62
415.472	14.62
415.6	-14.38
415.727	14.62
415.854	10.62
415.981	15.62
416.108	18.62
416.236	12.62
416.363	19.62
416.49	-5.38
416.617	18.62
416.744	20.62
416.871	23.62
416.998	-2.38
417.126	-1.38
417.253	-4.38
417.38	18.62
417.507	12.62
417.634	17.62
417.761	21.62
417.888	8.62
418.015	10.62
418.143	22.62
418.27	20.62
418.397	-0.38
418.524	7.62
418.651	-8.38
418.778	9.62
418.905	32.62
419.032	24.62
419.159	24.62
419.286	39.62
419.413	42.62
419.54	28.62
419.667	9.62
419.794	11.62
419.921	14.62
420.048	27.62
420.175	22.62
420.302	6.62
420.429	28.62
420.556	8.62
420.683	4.62
420.81	8.62
420.937	37.62
421.064	11.62
421.191	4.62
421.318	39.62
421.445	35.62
421.572	-2.38
421.699	14.62
421.826	6.62
421.953	11.62
422.08	15.62
422.207	-3.38
422.334	12.62
422.461	39.62
422.588	10.62
422.714	18.62
422.841	34.62
422.968	34.62
423.095	14.62
423.222	-5.38
423.349	15.62
423.476	3.62
423.603	12.62
423.729	8.62
423.856	-8.38
423.983	5.62
424.11	-7.38
424.237	15.62
424.364	11.62
424.491	10.62
424.617	-3.38
424.744	5.62
424.871	32.62
424.998	26.62
425.125	6.62
425.251	8.62
425.378	-9.38
425.505	-10.38
425.632	6.62
425.758	7.62
425.885	13.62
426.012	25.62
426.139	15.62
426.266	8.62
426.392	12.62
426.519	15.62
426.646	1.62
426.772	26.62
426.899	12.62
427.026	7.62
427.153	6.62
427.279	13.62
427.406	5.62
427.533	8.62
427.659	17.62
427.786	19.62
427.913	22.62
428.039	13.62
428.166	1.62
428.293	-4.38
428.419	15.62
428.546	12.62
428.673	-3.38
428.799	1.62
428.926	-1.38
429.053	22.62
429.179	15.62
429.306	6.62
429.433	43.62
429.559	30.62
429.686	7.62
429.812	1.62
429.939	-4.38
430.066	8.62
430.192	8.62
430.319	13.62
430.445	14.62
430.572	6.62
430.699	-2.38
430.825	-8.38
430.952	-2.38
431.078	-5.38
431.205	12.62
431.331	-5.38
431.458	8.62
431.584	31.62
431.711	12.62
431.837	15.62
431.964	11.62
432.09	36.62
432.217	14.62
432.343	9.62
432.47	23.62
432.596	2.62
432.723	15.62
432.849	-4.38
432.976	10.62
433.102	14.62
433.229	7.62
433.355	44.62
433.482	65.62
433.608	150.62
433.735	150.62
433.861	130.62
433.987	159.62
434.114	224.62
434.24	196.62
434.367	83.62
434.493	23.62
434.62	35.62
434.746	36.62
434.872	18.62
434.999	27.62
435.125	6.62
435.252	6.62
435.378	14.62
435.504	14.62
435.631	22.62
435.757	9.62
435.883	28.62
436.01	26.62
436.136	23.62
436.262	11.62
436.389	1.62
436.515	30.62
436.641	17.62
436.768	21.62
436.894	24.62
437.02	11.62
437.147	32.62
437.273	19.62
437.399	20.62
437.526	16.62
437.652	7.62
437.778	18.62
437.904	10.62
438.031	10.62
438.157	9.62
438.283	27.62
438.409	8.62
438.536	-7.38
438.662	24.62
438.788	11.62
438.914	8.62
439.041	0.62
439.167	28.62
439.293	-1.38
439.419	1.62
439.546	20.62
439.672	16.62
439.798	21.62
439.924	37.62
440.05	37.62
440.177	7.62
440.303	21.62
440.429	23.62
440.555	36.62
440.681	23.62
440.807	31.62
440.934	23.62
441.06	18.62
441.186	28.62
441.312	21.62
441.438	46.62
441.564	33.62
441.69	17.62
441.816	13.62
441.943	12.62
442.069	17.62
442.195	4.62
442.321	20.62
442.447	14.62
442.573	11.62
442.699	-9.38
442.825	1.62
442.951	25.62
443.077	22.62
443.203	18.62
443.33	3.62
443.456	-10.38
443.582	27.62
443.708	1.62
443.834	20.62
443.96	33.62
444.086	14.62
444.212	24.62
444.338	23.62
444.464	30.62
444.59	27.62
444.716	13.62
444.842	17.62
444.968	-12.38
445.094	6.62
445.22	6.62
445.346	21.62
445.472	2.62
445.598	24.62
445.724	22.62
445.85	17.62
445.976	25.62
446.102	7.62
446.228	19.62
446.354	22.62
446.48	19.62
446.605	18.62
446.731	23.62
446.857	19.62
446.983	25.62
447.109	1.62
447.235	11.62
447.361	-1.38
447.487	21.62
447.613	12.62
447.739	9.62
447.865	13.62
447.99	12.62
448.116	23.62
448.242	16.62
448.368	32.62
448.494	13.62
448.62	35.62
448.746	14.62
448.872	2.62
448.997	18.62
449.123	20.62
449.249	39.62
449.375	24.62
449.501	15.62
449.627	0.62
449.752	38.62
449.878	0.62
450.004	-2.38
450.13	18.62
450.256	22.62
450.381	18.62
450.507	30.62
450.633	13.62
450.759	44.62
450.884	23.62
451.01	21.62
451.136	11.62
451.262	11.62
451.388	14.62
451.513	4.62
451.639	15.62
451.765	31.62
451.89	27.62
452.016	35.62
452.142	30.62
452.268	28.62
452.393	21.62
452.519	10.62
452.645	24.62
452.771	27.62
452.896	22.62
453.022	14.62
453.148	13.62
453.273	9.62
453.399	-1.38
453.525	-4.38
453.65	7.62
453.776	26.62
453.902	22.62
454.027	26.62
454.153	28.62
454.279	30.62
454.404	5.62
454.53	30.62
454.656	36.62
454.781	12.62
454.907	16.62
455.032	4.62
455.158	33.62
455.284	34.62
455.409	21.62
455.535	23.62
455.66	15.62
455.786	25.62
455.912	28.62
456.037	5.62
456.163	22.62
456.288	23.62
456.414	-4.38
456.539	-6.38
456.665	20.62
456.791	30.62
456.916	13.62
457.042	11.62
457.167	12.62
457.293	21.62
457.418	14.62
457.544	17.62
457.669	13.62
457.795	18.62
457.92	14.62
458.046	24.62
458.171	10.62
458.297	13.62
458.422	0.62
458.548	7.62
458.673	21.62
458.799	13.62
458.924	12.62
459.05	15.62
459.175	13.62
459.301	7.62
459.426	10.62
459.552	25.62
459.677	-2.38
459.803	26.62
459.928	14.62
460.053	8.62
460.179	14.62
460.304	18.62
460.43	12.62
460.555	8.62
460.681	15.62
460.806	22.62
460.931	13.62
461.057	17.62
461.182	4.62
461.308	24.62
461.433	22.62
461.558	10.62
461.684	44.62
461.809	24.62
461.934	16.62
462.06	26.62
462.185	12.62
462.311	4.62
462.436	6.62
462.561	22.62
462.687	32.62
462.812	34.62
462.937	6.62
463.063	4.62
463.188	9.62
463.313	7.62
463.439	10.62
463.564	9.62
463.689	22.62
463.814	17.62
463.94	14.62
464.065	18.62
464.19	38.62
464.316	9.62
464.441	12.62
464.566	20.62
464.692	26.62
464.817	18.62
464.942	12.62
465.067	13.62
465.193	-4.38
465.318	-1.38
465.443	15.62
465.568	10.62
465.694	7.62
465.819	37.62
465.944	7.62
466.069	17.62
466.194	18.62
466.32	17.62
466.445	18.62
466.57	10.62
466.695	-5.38
466.82	9.62
466.946	26.62
467.071	13.62
467.196	4.62
467.321	20.62
467.446	14.62
467.572	-7.38
467.697	4.62
467.822	22.62
467.947	18.62
468.072	8.62
468.197	11.62
468.323	12.62
468.448	22.62
468.573	5.62
468.698	16.62
468.823	33.62
468.948	11.62
469.073	15.62
469.198	24.62
469.324	22.62
469.449	4.62
469.574	19.62
469.699	24.62
469.824	18.62
469.949	23.62
470.074	19.62
470.199	37.62
470.324	39.62
470.449	19.62
470.574	18.62
470.7	15.62
470.825	38.62
470.95	26.62
471.075	7.62
471.2	8.62
471.325	18.62
471.45	8.62
471.575	1.62
471.7	17.62
471.825	20.62
471.95	12.62
472.075	-7.38
472.2	16.62
472.325	24.62
472.45	15.62
472.575	-6.38
472.7	32.62
472.825	30.62
472.95	33.62
473.075	27.62
473.2	1.62
473.325	14.62
473.45	19.62
473.575	-11.38
473.7	18.62
473.825	24.62
473.95	20.62
474.075	26.62
474.2	6.62
474.325	9.62
474.45	22.62
474.574	21.62
474.699	47.62
474.824	26.62
474.949	10.62
475.074	-8.38
475.199	29.62
475.324	30.62
475.449	13.62
475.574	10.62
475.699	28.62
475.824	9.62
475.949	3.62
476.073	17.62
476.198	22.62
476.323	29.62
476.448	16.62
476.573	15.62
476.698	28.62
476.823	33.62
476.947	15.62
477.072	16.62
477.197	16.62
477.322	9.62
477.447	2.62
477.572	29.62
477.697	2.62
477.821	9.62
477.946	26.62
478.071	19.62
478.196	21.62
478.321	19.62
478.445	15.62
478.57	10.62
478.695	12.62
478.82	13.62
478.945	15.62
479.069	1.62
479.194	0.62
479.319	23.62
479.444	34.62
479.569	3.62
479.693	37.62
479.818	10.62
479.943	29.62
480.068	6.62
480.192	29.62
480.317	21.62
480.442	16.62
480.567	15.62
480.691	24.62
480.816	12.62
480.941	3.62
481.066	25.62
481.19	37.62
481.315	36.62
481.44	14.62
481.564	-6.38
481.689	32.62
481.814	40.62
481.938	36.62
482.063	22.62
482.188	29.62
482.313	32.62
482.437	23.62
482.562	22.62
482.687	44.62
482.811	26.62
482.936	36.62
483.061	19.62
483.185	20.62
483.31	34.62
483.435	30.62
483.559	29.62
483.684	25.62
483.808	32.62
483.933	14.62
484.058	26.62
484.182	32.62
484.307	13.62
484.432	25.62
484.556	16.62
484.681	21.62
484.805	42.62
484.93	23.62
485.055	46.62
485.179	86.62
485.304	130.62
485.428	352.62
485.553	1279.62
485.678	1788.62
485.802	1641.62
485.927	1834.62
486.051	2720.62
486.176	1681.62
486.3	458.62
486.425	157.62
486.549	88.62
486.674	86.62
486.799	42.62
486.923	42.62
487.048	44.62
487.172	30.62
487.297	27.62
487.421	35.62
487.546	15.62
487.67	26.62
487.795	25.62
487.919	22.62
488.044	26.62
488.168	43.62
488.293	38.62
488.417	4.62
488.542	15.62
488.666	16.62
488.791	21.62
488.915	9.62
489.04	28.62
489.164	21.62
489.289	35.62
489.413	3.62
489.538	32.62
489.662	44.62
489.786	14.62
489.911	30.62
490.035	22.62
490.16	6.62
490.284	6.62
490.409	3.62
490.533	29.62
490.658	45.62
490.782	19.62
490.906	36.62
491.031	33.62
491.155	24.62
491.28	29.62
491.404	22.62
491.528	22.62
491.653	8.62
491.777	37.62
491.902	6.62
492.026	42.62
492.15	28.62
492.275	30.62
492.399	19.62
492.524	18.62
492.648	43.62
492.772	27.62
492.897	30.62
493.021	10.62
493.145	34.62
493.27	28.62
493.394	8.62
493.518	5.62
493.643	1.62
493.767	21.62
493.891	16.62
494.016	7.62
494.14	16.62
494.264	22.62
494.389	36.62
494.513	6.62
494.637	12.62
494.762	36.62
494.886	40.62
495.01	13.62
495.134	6.62
495.259	20.62
495.383	29.62
495.507	10.62
495.632	34.62
495.756	46.62
495.88	36.62
496.004	13.62
496.129	29.62
496.253	14.62
496.377	10.62
496.501	45.62
496.626	9.62
496.75	24.62
496.874	20.62
496.998	9.62
497.123	36.62
497.247	9.62
497.371	12.62
497.495	24.62
497.62	25.62
497.744	25.62
497.868	7.62
497.992	13.62
498.116	-1.38
498.241	21.62
498.365	-1.38
498.489	11.62
498.613	35.62
498.737	29.62
498.862	14.62
498.986	16.62
499.11	20.62
499.234	28.62
499.358	16.62
499.482	3.62
499.607	13.62
499.731	18.62
499.855	21.62
499.979	19.62
500.103	22.62
500.227	24.62
500.351	17.62
500.476	6.62
500.6	29.62
500.724	16.62
500.848	18.62
500.972	22.62
501.096	17.62
501.22	39.62
501.344	16.62
501.469	15.62
501.593	12.62
501.717	26.62
501.841	18.62
501.965	15.62
502.089	4.62
502.213	30.62
502.337	10.62
502.461	10.62
502.585	26.62
502.709	26.62
502.834	16.62
502.958	14.62
503.082	18.62
503.206	15.62
503.33	31.62
503.454	22.62
503.578	34.62
503.702	18.62
503.826	8.62
503.95	42.62
504.074	16.62
504.198	-3.38
504.322	-3.38
504.446	10.62
504.57	9.62
504.694	32.62
504.818	21.62
504.942	32.62
505.066	11.62
505.19	17.62
505.314	19.62
505.438	13.62
505.562	11.62
505.686	29.62
505.81	24.62
505.934	26.62
506.058	14.62
506.182	6.62
506.306	4.62
506.43	-0.38
506.554	18.62
506.678	3.62
506.802	8.62
506.926	26.62
507.05	24.62
507.174	16.62
507.298	10.62
507.422	24.62
507.546	37.62
507.67	44.62
507.794	15.62
507.918	3.62
508.042	11.62
508.165	0.62
508.289	16.62
508.413	18.62
508.537	6.62
508.661	11.62
508.785	9.62
508.909	8.62
509.033	31.62
509.157	10.62
509.281	21.62
509.405	-0.38
509.528	31.62
509.652	15.62
509.776	14.62
509.9	30.62
510.024	19.62
510.148	29.62
510.272	18.62
510.396	27.62
510.519	6.62
510.643	23.62
510.767	4.62
510.891	37.62
511.015	24.62
511.139	18.62
511.263	31.62
511.386	10.62
511.51	10.62
511.634	13.62
511.758	0.62
511.882	-6.38
512.006	34.62
512.129	10.62
512.253	33.62
512.377	12.62
512.501	22.62
512.625	6.62
512.748	3.62
512.872	3.62
512.996	17.62
513.12	18.62
513.244	11.62
513.367	17.62
513.491	28.62
513.615	33.62
513.739	13.62
513.862	12.62
513.986	25.62
514.11	15.62
514.234	21.62
514.358	34.62
514.481	40.62
514.605	11.62
514.729	22.62
514.853	28.62
514.976	-7.38
515.1	21.62
515.224	26.62
515.348	20.62
515.471	19.62
515.595	6.62
515.719	13.62
515.842	58.62
515.966	11.62
516.09	32.62
516.214	24.62
516.337	29.62
516.461	27.62
516.585	25.62
516.708	9.62
516.832	21.62
516.956	11.62
517.08	4.62
517.203	1.62
517.327	26.62
517.451	29.62
517.574	30.62
517.698	8.62
517.822	26.62
517.945	37.62
518.069	34.62
518.193	68.62
518.316	47.62
518.44	44.62
518.564	24.62
518.687	33.62
518.811	33.62
518.935	41.62
519.058	35.62
519.182	29.62
519.306	43.62
519.429	17.62
519.553	59.62
519.676	23.62
519.8	21.62
519.924	9.62
520.047	15.62
520.171	0.62
520.294	17.62
520.418	20.62
520.542	-5.38
520.665	36.62
520.789	9.62
520.913	2.62
521.036	-12.38
521.16	0.62
521.283	13.62
521.407	24.62
521.53	11.62
521.654	-7.38
521.778	24.62
521.901	27.62
522.025	28.62
522.148	12.62
522.272	14.62
522.395	0.62
522.519	20.62
522.643	5.62
522.766	26.62
522.89	11.62
523.013	24.62
523.137	7.62
523.26	7.62
523.384	15.62
523.507	24.62
523.631	21.62
523.754	7.62
523.878	6.62
524.002	22.62
524.125	5.62
524.249	-10.38
524.372	14.62
524.496	10.62
524.619	29.62
524.743	31.62
524.866	16.62
524.99	16.62
525.113	-6.38
525.237	20.62
525.36	18.62
525.484	18.62
525.607	11.62
525.731	0.62
525.854	18.62
525.978	41.62
526.101	21.62
526.224	1.62
526.348	14.62
526.471	-1.38
526.595	24.62
526.718	6.62
526.842	-2.38
526.965	24.62
527.089	21.62
527.212	35.62
527.336	24.62
527.459	21.62
527.582	25.62
527.706	23.62
527.829	39.62
527.953	20.62
528.076	10.62
528.2	-1.38
528.323	46.62
528.446	32.62
528.57	27.62
528.693	35.62
528.817	26.62
528.94	29.62
529.064	49.62
529.187	14.62
529.31	5.62
529.434	10.62
529.557	18.62
529.68	8.62
529.804	8.62
529.927	2.62
530.051	28.62
530.174	4.62
530.297	6.62
530.421	19.62
530.544	26.62
530.668	16.62
530.791	14.62
530.914	32.62
531.038	23.62
531.161	-6.38
531.284	13.62
531.408	25.62
531.531	20.62
531.654	24.62
531.778	19.62
531.901	4.62
532.024	41.62
532.148	24.62
532.271	24.62
532.394	5.62
532.518	25.62
532.641	31.62
532.764	20.62
532.888	28.62
533.011	19.62
533.134	2.62
533.258	20.62
533.381	0.62
533.504	-8.38
533.628	9.62
533.751	6.62
533.874	21.62
533.997	27.62
534.121	15.62
534.244	16.62
534.367	11.62
534.491	8.62
534.614	4.62
534.737	20.62
534.86	14.62
534.984	11.62
535.107	21.62
535.23	13.62
535.354	22.62
535.477	2.62
535.6	17.62
535.723	24.62
535.847	22.62
535.97	-2.38
536.093	18.62
536.216	19.62
536.34	23.62
536.463	14.62
536.586	23.62
536.709	18.62
536.833	14.62
536.956	10.62
537.079	6.62
537.202	25.62
537.325	-7.38
537.449	7.62
537.572	30.62
537.695	27.62
537.818	22.62
537.941	4.62
538.065	30.62
538.188	12.62
538.311	21.62
538.434	18.62
538.558	16.62
538.681	27.62
538.804	27.62
538.927	18.62
539.05	22.62
539.173	24.62
539.297	5.62
539.42	7.62
539.543	19.62
539.666	30.62
539.789	20.62
539.913	-3.38
540.036	19.62
540.159	26.62
540.282	6.62
540.405	-2.38
540.528	22.62
540.651	16.62
540.775	3.62
540.898	15.62
541.021	14.62
541.144	18.62
541.267	25.62
541.39	10.62
541.513	11.62
541.637	16.62
541.76	14.62
541.883	4.62
542.006	25.62
542.129	20.62
542.252	6.62
542.375	16.62
542.498	14.62
542.622	17.62
542.745	40.62
542.868	15.62
542.991	15.62
543.114	25.62
543.237	19.62
543.36	38.62
543.483	21.62
543.606	30.62
543.73	28.62
543.853	11.62
543.976	5.62
544.099	24.62
544.222	21.62
544.345	0.62
544.468	4.62
544.591	20.62
544.714	19.62
544.837	30.62
544.96	12.62
545.083	27.62
545.206	-2.38
545.329	15.62
545.453	8.62
545.576	-3.38
545.699	0.62
545.822	22.62
545.945	18.62
546.068	4.62
546.191	20.62
546.314	16.62
546.437	12.62
546.56	27.62
546.683	11.62
546.806	31.62
546.929	12.62
547.052	-1.38
547.175	-8.38
547.298	10.62
547.421	0.62
547.544	-10.38
547.667	29.62
547.79	19.62
547.913	4.62
548.036	-9.38
548.159	26.62
548.282	25.62
548.405	4.62
548.528	12.62
548.651	11.62
548.774	22.62
548.897	26.62
549.02	38.62
549.143	29.62
549.266	12.62
549.389	28.62
549.512	-2.38
549.635	30.62
549.758	32.62
549.881	6.62
550.004	21.62
550.127	9.62
550.25	9.62
550.373	1.62
550.496	17.62
550.619	17.62
550.742	10.62
550.865	10.62
550.988	33.62
551.111	24.62
551.234	23.62
551.356	-5.38
551.479	-7.38
551.602	14.62
551.725	14.62
551.848	29.62
551.971	21.62
552.094	17.62
552.217	5.62
552.34	8.62
552.463	-25.38
552.586	5.62
552.709	1.62
552.832	13.62
552.955	25.62
553.077	22.62
553.2	33.62
553.323	-6.38
553.446	28.62
553.569	2.62
553.692	20.62
553.815	12.62
553.938	25.62
554.061	23.62
554.184	17.62
554.306	21.62
554.429	18.62
554.552	24.62
554.675	10.62
554.798	16.62
554.921	20.62
555.044	14.62
555.167	4.62
555.29	15.62
555.412	13.62
555.535	2.62
555.658	13.62
555.781	-0.38
555.904	11.62
556.027	24.62
556.15	23.62
556.272	32.62
556.395	29.62
556.518	15.62
556.641	8.62
556.764	19.62
556.887	38.62
557.01	17.62
557.132	-5.38
557.255	9.62
557.378	11.62
557.501	8.62
557.624	12.62
557.747	18.62
557.869	19.62
557.992	21.62
558.115	33.62
558.238	4.62
558.361	11.62
558.483	33.62
558.606	25.62
558.729	22.62
558.852	33.62
558.975	45.62
559.098	25.62
559.22	19.62
559.343	19.62
559.466	20.62
559.589	13.62
559.712	30.62
559.834	13.62
559.957	9.62
560.08	22.62
560.203	27.62
560.325	39.62
560.448	30.62
560.571	25.62
560.694	1.62
560.817	18.62
560.939	19.62
561.062	4.62
561.185	2.62
561.308	11.62
561.43	4.62
561.553	14.62
561.676	10.62
561.799	28.62
561.921	10.62
562.044	10.62
562.167	-4.38
562.29	37.62
562.413	28.62
562.535	19.62
562.658	14.62
562.781	11.62
562.903	15.62
563.026	18.62
563.149	32.62
563.272	26.62
563.394	19.62
563.517	-1.38
563.64	11.62
563.763	4.62
563.885	26.62
564.008	24.62
564.131	18.62
564.254	18.62
564.376	11.62
564.499	14.62
564.622	15.62
564.744	15.62
564.867	14.62
564.99	13.62
565.113	25.62
565.235	25.62
565.358	-0.38
565.481	-10.38
565.603	23.62
565.726	21.62
565.849	24.62
565.971	26.62
566.094	-6.38
566.217	-7.38
566.34	14.62
566.462	17.62
566.585	25.62
566.708	26.62
566.83	28.62
566.953	38.62
567.076	27.62
567.198	11.62
567.321	16.62
567.444	13.62
567.566	6.62
567.689	-1.38
567.812	1.62
567.934	16.62
568.057	17.62
568.18	26.62
568.302	17.62
568.425	4.62
568.548	16.62
568.67	29.62
568.793	31.62
568.916	15.62
569.038	13.62
569.161	22.62
569.283	21.62
569.406	18.62
569.529	12.62
569.651	2.62
569.774	16.62
569.897	15.62
570.019	30.62
570.142	9.62
570.265	18.62
570.387	16.62
570.51	10.62
570.632	30.62
570.755	12.62
570.878	8.62
571	26.62
571.123	20.62
571.246	29.62
571.368	-11.38
571.491	1.62
571.613	14.62
571.736	0.62
571.859	5.62
571.981	8.62
572.104	21.62
572.226	27.62
572.349	8.62
572.472	19.62
572.594	18.62
572.717	7.62
572.839	26.62
572.962	30.62
573.085	40.62
573.207	26.62
573.33	15.62
573.452	28.62
573.575	33.62
573.697	26.62
573.82	10.62
573.943	16.62
574.065	14.62
574.188	6.62
574.31	27.62
574.433	18.62
574.555	36.62
574.678	14.62
574.801	33.62
574.923	-0.38
575.046	14.62
575.168	6.62
575.291	11.62
575.413	23.62
575.536	13.62
575.659	12.62
575.781	-1.38
575.904	14.62
576.026	16.62
576.149	14.62
576.271	43.62
576.394	8.62
576.516	12.62
576.639	22.62
576.761	7.62
576.884	-2.38
577.007	11.62
577.129	22.62
577.252	30.62
577.374	33.62
577.497	13.62
577.619	6.62
577.742	-0.38
577.864	26.62
577.987	28.62
578.109	30.62
578.232	29.62
578.354	30.62
578.477	17.62
578.599	3.62
578.722	10.62
578.844	-2.38
578.967	15.62
579.089	14.62
579.212	2.62
579.334	21.62
579.457	1.62
579.579	17.62
579.702	16.62
579.824	15.62
579.947	3.62
580.069	18.62
580.192	-2.38
580.314	18.62
580.437	15.62
580.559	35.62
580.682	16.62
580.804	31.62
580.927	25.62
581.049	38.62
581.172	37.62
581.294	30.62
581.417	22.62
581.539	7.62
581.662	12.62
581.784	10.62
581.907	29.62
582.029	11.62
582.152	6.62
582.274	24.62
582.396	16.62
582.519	13.62
582.641	9.62
582.764	20.62
582.886	17.62
583.009	10.62
583.131	8.62
583.254	28.62
583.376	26.62
583.499	14.62
583.621	11.62
583.743	14.62
583.866	36.62
583.988	14.62
584.111	14.62
584.233	12.62
584.356	29.62
584.478	17.62
584.601	-7.38
584.723	10.62
584.845	38.62
584.968	2.62
585.09	6.62
585.213	-0.38
585.335	-2.38
585.458	7.62
585.58	15.62
585.702	5.62
585.825	20.62
585.947	0.62
586.07	-3.38
586.192	15.62
586.315	25.62
586.437	11.62
586.559	13.62
586.682	0.62
586.804	24.62
586.927	10.62
587.049	14.62
587.171	34.62
587.294	26.62
587.416	38.62
587.539	13.62
587.661	-5.38
587.783	9.62
587.906	16.62
588.028	16.62
588.151	8.62
588.273	32.62
588.395	14.62
588.518	10.62
588.64	-0.38
588.763	41.62
588.885	25.62
589.007	31.62
589.13	-17.38
589.252	-15.38
589.375	18.62
589.497	2.62
589.619	10.62
589.742	6.62
589.864	18.62
589.986	17.62
590.109	4.62
590.231	-3.38
590.354	27.62
590.476	-7.38
590.598	8.62
590.721	-0.38
590.843	8.62
590.965	21.62
591.088	27.62
591.21	16.62
591.332	11.62
591.455	-0.38
591.577	0.62
591.7	-2.38
591.822	12.62
591.944	32.62
592.067	26.62
592.189	12.62
592.311	16.62
592.434	4.62
592.556	15.62
592.678	16.62
592.801	16.62
592.923	24.62
593.045	21.62
593.168	11.62
593.29	2.62
593.412	18.62
593.535	-0.38
593.657	15.62
593.779	20.62
593.902	29.62
594.024	23.62
594.146	28.62
594.269	28.62
594.391	-6.38
594.513	11.62
594.636	17.62
594.758	10.62
594.88	31.62
595.003	22.62
595.125	-1.38
595.247	32.62
595.37	12.62
595.492	-2.38
595.614	40.62
595.737	14.62
595.859	8.62
595.981	14.62
596.104	12.62
596.226	20.62
596.348	5.62
596.471	13.62
596.593	8.62
596.715	15.62
596.838	9.62
596.96	-2.38
597.082	15.62
597.204	25.62
597.327	13.62
597.449	12.62
597.571	33.62
597.694	28.62
597.816	17.62
597.938	16.62
598.061	-1.38
598.183	15.62
598.305	18.62
598.427	18.62
598.55	14.62
598.672	38.62
598.794	33.62
598.917	15.62
599.039	7.62
599.161	20.62
599.283	23.62
599.406	6.62
599.528	24.62
599.65	30.62
599.773	17.62
599.895	28.62
600.017	24.62
600.139	16.62
600.262	1.62
600.384	2.62
600.506	32.62
600.628	10.62
600.751	27.62
600.873	5.62
600.995	9.62
601.118	20.62
601.24	12.62
601.362	37.62
601.484	39.62
601.607	10.62
601.729	4.62
601.851	22.62
601.973	4.62
602.096	32.62
602.218	29.62
602.34	12.62
602.462	19.62
602.585	17.62
602.707	12.62
602.829	30.62
602.951	14.62
603.074	-6.38
603.196	16.62
603.318	6.62
603.44	34.62
603.563	14.62
603.685	-1.38
603.807	28.62
603.929	21.62
604.052	13.62
604.174	34.62
604.296	37.62
604.418	27.62
604.541	20.62
604.663	4.62
604.785	21.62
604.907	31.62
605.03	30.62
605.152	43.62
605.274	7.62
605.396	13.62
605.519	19.62
605.641	13.62
605.763	15.62
605.885	22.62
606.008	-3.38
606.13	18.62
606.252	12.62
606.374	2.62
606.496	6.62
606.619	5.62
606.741	2.62
606.863	44.62
606.985	25.62
607.108	26.62
607.23	14.62
607.352	40.62
607.474	33.62
607.596	32.62
607.719	10.62
607.841	26.62
607.963	13.62
608.085	21.62
608.207	36.62
608.33	31.62
608.452	3.62
608.574	2.62
608.696	45.62
608.819	35.62
608.941	34.62
609.063	27.62
609.185	-4.38
609.307	21.62
609.43	32.62
609.552	13.62
609.674	1.62
609.796	16.62
609.918	26.62
610.041	8.62
610.163	29.62
610.285	19.62
610.407	24.62
610.529	-14.38
610.652	26.62
610.774	26.62
610.896	16.62
611.018	0.62
611.14	3.62
611.263	10.62
611.385	-11.38
611.507	26.62
611.629	14.62
611.751	17.62
611.873	38.62
611.996	24.62
612.118	22.62
612.24	7.62
612.362	34.62
612.484	42.62
612.607	25.62
612.729	46.62
612.851	24.62
612.973	-2.38
613.095	-1.38
613.218	17.62
613.34	23.62
613.462	32.62
613.584	31.62
613.706	0.62
613.828	32.62
613.951	0.62
614.073	14.62
614.195	-7.38
614.317	21.62
614.439	33.62
614.561	6.62
614.684	15.62
614.806	21.62
614.928	25.62
615.05	15.62
615.172	28.62
615.294	38.62
615.417	1.62
615.539	12.62
615.661	28.62
615.783	39.62
615.905	34.62
616.027	69.62
616.15	116.62
616.272	73.62
616.394	60.62
616.516	35.62
616.638	32.62
616.76	12.62
616.883	19.62
617.005	15.62
617.127	9.62
617.249	29.62
617.371	18.62
617.493	12.62
617.615	26.62
617.738	14.62
617.86	33.62
617.982	13.62
618.104	9.62
618.226	0.62
618.348	-0.38
618.471	28.62
618.593	28.62
618.715	14.62
618.837	28.62
618.959	29.62
619.081	38.62
619.203	21.62
619.326	20.62
619.448	25.62
619.57	36.62
619.692	21.62
619.814	25.62
619.936	11.62
620.058	25.62
620.181	12.62
620.303	1.62
620.425	13.62
620.547	7.62
620.669	18.62
620.791	13.62
620.913	16.62
621.036	5.62
621.158	10.62
621.28	21.62
621.402	8.62
621.524	4.62
621.646	9.62
621.768	-1.38
621.891	-1.38
622.013	11.62
622.135	20.62
622.257	9.62
622.379	26.62
622.501	7.62
622.623	18.62
622.745	16.62
622.868	37.62
622.99	21.62
623.112	10.62
623.234	2.62
623.356	21.62
623.478	4.62
623.6	25.62
623.722	10.62
623.845	16.62
623.967	13.62
624.089	26.62
624.211	10.62
624.333	19.62
624.455	6.62
624.577	21.62
624.699	13.62
624.822	16.62
624.944	1.62
625.066	10.62
625.188	14.62
625.31	5.62
625.432	44.62
625.554	16.62
625.676	36.62
625.799	29.62
625.921	18.62
626.043	18.62
626.165	13.62
626.287	1.62
626.409	3.62
626.531	4.62
626.653	10.62
626.775	9.62
626.898	18.62
627.02	17.62
627.142	22.62
627.264	9.62
627.386	4.62
627.508	-0.38
627.63	-4.38
627.752	20.62
627.874	1.62
627.997	27.62
628.119	23.62
628.241	30.62
628.363	25.62
628.485	13.62
628.607	6.62
628.729	8.62
628.851	5.62
628.973	16.62
629.096	17.62
629.218	21.62
629.34	7.62
629.462	0.62
629.584	6.62
629.706	17.62
629.828	9.62
629.95	24.62
630.072	5.62
630.195	8.62
630.317	22.62
630.439	17.62
630.561	16.62
630.683	12.62
630.805	23.62
630.927	7.62
631.049	24.62
631.171	23.62
631.293	5.62
631.416	0.62
631.538	6.62
631.66	29.62
631.782	25.62
631.904	27.62
632.026	11.62
632.148	18.62
632.27	2.62
632.392	-0.38
632.514	19.62
632.637	8.62
632.759	2.62
632.881	6.62
633.003	17.62
633.125	9.62
633.247	10.62
633.369	15.62
633.491	9.62
633.613	20.62
633.735	6.62
633.858	10.62
633.98	1.62
634.102	10.62
634.224	15.62
634.346	6.62
634.468	16.62
634.59	23.62
634.712	22.62
634.834	33.62
634.956	16.62
635.078	-12.38
635.201	14.62
635.323	12.62
635.445	-1.38
635.567	-9.38
635.689	11.62
635.811	13.62
635.933	27.62
636.055	9.62
636.177	0.62
636.299	38.62
636.421	16.62
636.544	5.62
636.666	25.62
636.788	12.62
636.91	17.62
637.032	1.62
637.154	15.62
637.276	22.62
637.398	26.62
637.52	28.62
637.642	24.62
637.764	6.62
637.887	9.62
638.009	15.62
638.131	20.62
638.253	-6.38
638.375	26.62
638.497	15.62
638.619	-6.38
638.741	10.62
638.863	-13.38
638.985	-11.38
639.107	8.62
639.23	9.62
639.352	18.62
639.474	10.62
639.596	6.62
639.718	8.62
639.84	19.62
639.962	26.62
640.084	38.62
640.206	18.62
640.328	-6.38
640.45	22.62
640.573	14.62
640.695	-3.38
640.817	13.62
640.939	17.62
641.061	18.62
641.183	6.62
641.305	-1.38
641.427	-1.38
641.549	27.62
641.671	25.62
641.793	8.62
641.915	15.62
642.038	11.62
642.16	-5.38
642.282	29.62
642.404	15.62
642.526	18.62
642.648	8.62
642.77	8.62
642.892	-7.38
643.014	45.62
643.136	18.62
643.258	10.62
643.381	25.62
643.503	41.62
643.625	17.62
643.747	-3.38
643.869	6.62
643.991	18.62
644.113	19.62
644.235	10.62
644.357	-3.38
644.479	17.62
644.601	-2.38
644.723	16.62
644.846	11.62
644.968	15.62
645.09	12.62
645.212	21.62
645.334	8.62
645.456	16.62
645.578	12.62
645.7	18.62
645.822	22.62
645.944	13.62
646.066	-2.38
646.188	-5.38
646.311	42.62
646.433	15.62
646.555	70.62
646.677	34.62
646.799	42.62
646.921	23.62
647.043	33.62
647.165	7.62
647.287	16.62
647.409	10.62
647.531	23.62
647.654	-5.38
647.776	23.62
647.898	29.62
648.02	9.62
648.142	12.62
648.264	18.62
648.386	8.62
648.508	1.62
648.63	3.62
648.752	18.62
648.874	8.62
648.997	9.62
649.119	20.62
649.241	-1.38
649.363	17.62
649.485	12.62
649.607	6.62
649.729	6.62
649.851	23.62
649.973	2.62
650.095	24.62
650.217	9.62
650.34	4.62
650.462	23.62
650.584	13.62
650.706	24.62
650.828	39.62
650.95	-2.38
651.072	10.62
651.194	3.62
651.316	-4.38
651.438	8.62
651.56	14.62
651.683	2.62
651.805	14.62
651.927	11.62
652.049	-6.38
652.171	1.62
652.293	15.62
652.415	-7.38
652.537	-9.38
652.659	4.62
652.781	25.62
652.903	38.62
653.026	36.62
653.148	29.62
653.27	15.62
653.392	19.62
653.514	29.62
653.636	22.62
653.758	14.62
653.88	5.62
654.002	31.62
654.124	16.62
654.247	4.62
654.369	20.62
654.491	8.62
654.613	12.62
654.735	21.62
654.857	21.62
654.979	14.62
655.101	48.62
655.223	58.62
655.345	33.62
655.468	43.62
655.59	21.62
655.712	38.62
655.834	33.62
655.956	41.62
656.078	31.62
656.2	47.62
656.322	63.62
656.444	29.62
656.566	46.62
656.689	61.62
656.811	60.62
656.933	89.62
657.055	86.62
657.177	165.62
657.299	254.62
657.421	519.62
657.543	1922.62
657.665	12669.62
657.787	15193.62
657.91	15353.62
658.032	15667.62
658.154	4676.62
658.276	4129.62
658.398	1284.62
658.52	1076.62
658.642	533.62
658.764	637.62
658.886	311.62
659.009	420.62
659.131	219.62
659.253	330.62
659.375	148.62
659.497	262.62
659.619	140.62
659.741	213.62
659.863	119.62
659.985	165.62
660.108	98.62
660.23	170.62
660.352	94.62
660.474	142.62
660.596	86.62
660.718	150.62
660.84	80.62
660.962	120.62
661.084	50.62
661.207	105.62
661.329	59.62
661.451	102.62
661.573	50.62
661.695	85.62
661.817	62.62
661.939	97.62
662.061	69.62
662.184	76.62
662.306	46.62
662.428	73.62
662.55	63.62
662.672	67.62
662.794	58.62
662.916	63.62
663.038	25.62
663.161	108.62
663.283	66.62
663.405	77.62
663.527	37.62
663.649	79.62
663.771	23.62
663.893	53.62
664.015	39.62
664.138	56.62
664.26	40.62
664.382	65.62
664.504	21.62
664.626	33.62
664.748	36.62
664.87	37.62
664.992	46.62
665.115	58.62
665.237	31.62
665.359	46.62
665.481	26.62
665.603	61.62
665.725	29.62
665.847	16.62
665.97	35.62
666.092	59.62
666.214	39.62
666.336	58.62
666.458	28.62
666.58	38.62
666.702	10.62
666.825	43.62
666.947	0.62
667.069	55.62
667.191	30.62
667.313	59.62
667.435	16.62
667.557	15.62
667.68	4.62
667.802	46.62
667.924	0.62
668.046	41.62
668.168	34.62
668.29	50.62
668.412	25.62
668.535	52.62
668.657	19.62
668.779	21.62
668.901	19.62
669.023	39.62
669.145	30.62
669.267	38.62
669.39	16.62
669.512	30.62
669.634	20.62
669.756	29.62
669.878	17.62
670	38.62
670.123	28.62
670.245	38.62
670.367	24.62
670.489	39.62
670.611	1.62
670.733	26.62
670.856	8.62
670.978	40.62
671.1	28.62
671.222	46.62
671.344	20.62
671.466	16.62
671.589	-1.38
671.711	28.62
671.833	16.62
671.955	26.62
672.077	0.62
672.199	42.62
672.322	20.62
672.444	29.62
672.566	51.62
672.688	26.62
672.81	24.62
672.932	35.62
673.055	8.62
673.177	1.62
673.299	7.62
673.421	17.62
673.543	7.62
673.665	23.62
673.788	12.62
673.91	14.62
674.032	-4.38
674.154	17.62
674.276	33.62
674.399	18.62
674.521	23.62
674.643	33.62
674.765	14.62
674.887	43.62
675.009	13.62
675.132	13.62
675.254	10.62
675.376	14.62
675.498	8.62
675.62	47.62
675.743	9.62
675.865	28.62
675.987	-2.38
676.109	26.62
676.231	24.62
676.354	36.62
676.476	16.62
676.598	16.62
676.72	10.62
676.842	36.62
676.965	14.62
677.087	26.62
677.209	22.62
677.331	42.62
677.453	22.62
677.576	20.62
677.698	18.62
677.82	17.62
677.942	13.62
678.064	23.62
678.187	22.62
678.309	28.62
678.431	4.62
678.553	14.62
678.675	31.62
678.798	41.62
678.92	10.62
679.042	30.62
679.164	15.62
679.286	26.62
679.409	4.62
679.531	4.62
679.653	7.62
679.775	6.62
679.898	10.62
680.02	5.62
680.142	-0.38
680.264	40.62
680.386	-6.38
680.509	16.62
680.631	18.62
680.753	17.62
680.875	2.62
680.998	16.62
681.12	9.62
681.242	20.62
681.364	-3.38
681.486	26.62
681.609	21.62
681.731	9.62
681.853	0.62
681.975	13.62
682.098	40.62
682.22	36.62
682.342	9.62
682.464	52.62
682.587	26.62
682.709	11.62
682.831	-11.38
682.953	13.62
683.076	14.62
683.198	29.62
683.32	16.62
683.442	8.62
683.565	4.62
683.687	4.62
683.809	11.62
683.931	18.62
684.054	19.62
684.176	15.62
684.298	16.62
684.42	8.62
684.543	6.62
684.665	11.62
684.787	15.62
684.909	23.62
685.032	24.62
685.154	-9.38
685.276	-2.38
685.398	3.62
685.521	8.62
685.643	25.62
685.765	10.62
685.887	24.62
686.01	6.62
686.132	26.62
686.254	23.62
686.377	23.62
686.499	21.62
686.621	24.62
686.743	8.62
686.866	30.62
686.988	37.62
687.11	41.62
687.232	10.62
687.355	0.62
687.477	14.62
687.599	29.62
687.722	4.62
687.844	18.62
687.966	14.62
688.088	24.62
688.211	16.62
688.333	20.62
688.455	18.62
688.578	25.62
688.7	22.62
688.822	17.62
688.944	-7.38
689.067	55.62
689.189	-1.38
689.311	-4.38
689.434	3.62
689.556	19.62
689.678	6.62
689.801	6.62
689.923	24.62
690.045	28.62
690.167	34.62
690.29	14.62
690.412	17.62
690.534	17.62
690.657	5.62
690.779	9.62
690.901	7.62
691.024	18.62
691.146	18.62
691.268	4.62
691.391	13.62
691.513	31.62
691.635	13.62
691.758	20.62
691.88	13.62
692.002	8.62
692.125	4.62
692.247	10.62
692.369	9.62
692.492	10.62
692.614	8.62
692.736	5.62
692.859	6.62
692.981	11.62
693.103	24.62
693.226	28.62
693.348	45.62
693.47	23.62
693.593	23.62
693.715	-5.38
693.837	-9.38
693.96	3.62
694.082	2.62
694.204	27.62
694.327	15.62
694.449	19.62
694.571	9.62
694.694	37.62
694.816	23.62
694.938	22.62
695.061	18.62
695.183	19.62
695.305	22.62
695.428	8.62
695.55	7.62
695.672	20.62
695.795	43.62
695.917	33.62
696.04	11.62
696.162	5.62
696.284	20.62
696.407	17.62
696.529	14.62
696.651	33.62
696.774	9.62
696.896	15.62
697.019	5.62
697.141	8.62
697.263	15.62
697.386	2.62
697.508	16.62
697.63	17.62
697.753	7.62
697.875	14.62
697.998	4.62
698.12	31.62
698.242	26.62
698.365	19.62
698.487	6.62
698.61	26.62
698.732	16.62
698.854	31.62
698.977	14.62
699.099	18.62
699.221	9.62
699.344	20.62
699.466	15.62
699.589	20.62
699.711	3.62
699.834	7.62
699.956	20.62
700.078	3.62
700.201	-0.38
700.323	18.62
700.446	1.62
700.568	15.62
700.69	24.62
700.813	18.62
700.935	7.62
701.058	22.62
701.18	14.62
701.302	21.62
701.425	13.62
701.547	18.62
701.67	2.62
701.792	10.62
701.915	2.62
702.037	18.62
702.159	12.62
702.282	23.62
702.404	8.62
702.527	21.62
702.649	22.62
702.772	30.62
702.894	4.62
703.017	23.62
703.139	30.62
703.261	36.62
703.384	24.62
703.506	2.62
703.629	10.62
703.751	22.62
703.874	18.62
703.996	-2.38
704.119	21.62
704.241	27.62
704.364	5.62
704.486	27.62
704.608	17.62
704.731	10.62
704.853	16.62
704.976	-1.38
705.098	5.62
705.221	5.62
705.343	29.62
705.466	12.62
705.588	15.62
705.711	8.62
705.833	18.62
705.956	12.62
706.078	30.62
706.201	3.62
706.323	15.62
706.446	8.62
