Data from LowRes_H2_15_26_11_07_2024_HR4C61881__49__15-28-18-537.txt Node

Date: Thu Nov 07 15:28:18 EST 2024
User: crc00042
Spectrometer: HR4C6188
Trigger mode: 4
Integration Time (sec): 1.000000E-1
Scans to average: 1
Electric dark correction enabled: true
Nonlinearity correction enabled: false
Boxcar width: 0
XAxis mode: Wavelengths
Number of Pixels in Spectrum: 3648
>>>>>Begin Spectral Data<<<<<
245.66	-78.23
245.797	-78.23
245.934	-78.23
246.071	-90.23
246.208	-2.23
246.344	-19.23
246.481	-11.23
246.618	2.77
246.755	12.77
246.892	0.77
247.029	-9.23
247.165	-4.23
247.302	14.77
247.439	9.77
247.576	15.77
247.713	-13.23
247.849	12.77
247.986	-12.23
248.123	15.77
248.26	-16.23
248.396	1.77
248.533	22.77
248.67	10.77
248.806	27.77
248.943	-10.23
249.08	-0.23
249.216	8.77
249.353	-5.23
249.49	7.77
249.626	4.77
249.763	-1.23
249.9	-17.23
250.036	7.77
250.173	13.77
250.309	-3.23
250.446	9.77
250.582	-4.23
250.719	-2.23
250.856	-10.23
250.992	15.77
251.129	4.77
251.265	-12.23
251.402	18.77
251.538	11.77
251.675	10.77
251.811	24.77
251.948	26.77
252.084	5.77
252.221	13.77
252.357	-11.23
252.493	30.77
252.63	-10.23
252.766	14.77
252.903	-14.23
253.039	-8.23
253.175	5.77
253.312	25.77
253.448	-7.23
253.585	-19.23
253.721	-6.23
253.857	-2.23
253.994	8.77
254.13	-8.23
254.266	-7.23
254.403	5.77
254.539	1.77
254.675	24.77
254.811	-9.23
254.948	6.77
255.084	-9.23
255.22	-21.23
255.356	-5.23
255.493	6.77
255.629	16.77
255.765	12.77
255.901	26.77
256.037	9.77
256.174	13.77
256.31	-6.23
256.446	-11.23
256.582	-3.23
256.718	14.77
256.854	25.77
256.991	23.77
257.127	17.77
257.263	21.77
257.399	26.77
257.535	-19.23
257.671	-2.23
257.807	6.77
257.943	-23.23
258.079	-10.23
258.215	-1.23
258.351	13.77
258.487	3.77
258.623	29.77
258.759	-6.23
258.895	4.77
259.031	2.77
259.167	-4.23
259.303	31.77
259.439	-6.23
259.575	2.77
259.711	6.77
259.847	-6.23
259.983	7.77
260.119	-15.23
260.255	1.77
260.391	-1.23
260.527	-7.23
260.663	21.77
260.799	2.77
260.934	6.77
261.07	4.77
261.206	-5.23
261.342	-28.23
261.478	17.77
261.614	18.77
261.749	2.77
261.885	9.77
262.021	27.77
262.157	8.77
262.293	-5.23
262.428	-14.23
262.564	-13.23
262.7	0.77
262.836	5.77
262.971	11.77
263.107	14.77
263.243	17.77
263.378	-0.23
263.514	-20.23
263.65	-5.23
263.785	-14.23
263.921	17.77
264.057	9.77
264.192	8.77
264.328	19.77
264.464	-8.23
264.599	18.77
264.735	20.77
264.871	-9.23
265.006	7.77
265.142	-4.23
265.277	-3.23
265.413	9.77
265.548	20.77
265.684	10.77
265.819	8.77
265.955	-7.23
266.091	-7.23
266.226	-8.23
266.362	15.77
266.497	11.77
266.633	13.77
266.768	7.77
266.903	35.77
267.039	25.77
267.174	0.77
267.31	-6.23
267.445	-10.23
267.581	-6.23
267.716	-2.23
267.851	5.77
267.987	1.77
268.122	31.77
268.258	4.77
268.393	-6.23
268.528	12.77
268.664	-9.23
268.799	-8.23
268.934	18.77
269.07	-5.23
269.205	4.77
269.34	29.77
269.476	13.77
269.611	-8.23
269.746	6.77
269.881	-13.23
270.017	2.77
270.152	2.77
270.287	6.77
270.422	4.77
270.558	-5.23
270.693	10.77
270.828	-4.23
270.963	12.77
271.098	6.77
271.234	5.77
271.369	15.77
271.504	3.77
271.639	-1.23
271.774	0.77
271.909	-0.23
272.045	-11.23
272.18	0.77
272.315	-9.23
272.45	-1.23
272.585	-12.23
272.72	3.77
272.855	11.77
272.99	33.77
273.125	-7.23
273.26	1.77
273.395	-9.23
273.53	1.77
273.665	19.77
273.8	1.77
273.935	16.77
274.07	0.77
274.205	10.77
274.34	-11.23
274.475	-9.23
274.61	19.77
274.745	-17.23
274.88	3.77
275.015	-24.23
275.15	-3.23
275.285	2.77
275.42	-3.23
275.555	22.77
275.69	18.77
275.825	0.77
275.959	13.77
276.094	15.77
276.229	-11.23
276.364	1.77
276.499	5.77
276.634	-8.23
276.768	22.77
276.903	18.77
277.038	14.77
277.173	18.77
277.308	-18.23
277.442	-9.23
277.577	-14.23
277.712	12.77
277.847	9.77
277.981	8.77
278.116	-14.23
278.251	4.77
278.386	8.77
278.52	1.77
278.655	14.77
278.79	13.77
278.924	12.77
279.059	9.77
279.194	-14.23
279.328	34.77
279.463	1.77
279.598	2.77
279.732	1.77
279.867	12.77
280.001	4.77
280.136	2.77
280.271	14.77
280.405	13.77
280.54	6.77
280.674	-4.23
280.809	1.77
280.943	13.77
281.078	8.77
281.213	26.77
281.347	24.77
281.482	17.77
281.616	-9.23
281.751	-0.23
281.885	-13.23
282.02	-6.23
282.154	12.77
282.288	-8.23
282.423	-10.23
282.557	-20.23
282.692	7.77
282.826	7.77
282.961	17.77
283.095	2.77
283.229	-13.23
283.364	-5.23
283.498	-0.23
283.633	2.77
283.767	1.77
283.901	-3.23
284.036	3.77
284.17	-7.23
284.304	-3.23
284.439	4.77
284.573	3.77
284.707	26.77
284.842	-8.23
284.976	-3.23
285.11	-13.23
285.244	17.77
285.379	35.77
285.513	-12.23
285.647	10.77
285.781	0.77
285.916	6.77
286.05	0.77
286.184	29.77
286.318	18.77
286.453	-1.23
286.587	-13.23
286.721	-10.23
286.855	-1.23
286.989	5.77
287.123	12.77
287.258	-13.23
287.392	2.77
287.526	-2.23
287.66	-15.23
287.794	-14.23
287.928	-9.23
288.062	-0.23
288.196	-0.23
288.33	2.77
288.464	15.77
288.598	5.77
288.733	19.77
288.867	2.77
289.001	22.77
289.135	3.77
289.269	2.77
289.403	19.77
289.537	16.77
289.671	6.77
289.805	-22.23
289.939	5.77
290.073	4.77
290.207	34.77
290.34	13.77
290.474	35.77
290.608	14.77
290.742	1.77
290.876	16.77
291.01	7.77
291.144	25.77
291.278	20.77
291.412	-2.23
291.546	-0.23
291.679	-5.23
291.813	-7.23
291.947	0.77
292.081	3.77
292.215	2.77
292.349	10.77
292.482	12.77
292.616	7.77
292.75	3.77
292.884	8.77
293.018	12.77
293.151	1.77
293.285	17.77
293.419	-12.23
293.553	-12.23
293.686	-7.23
293.82	1.77
293.954	20.77
294.088	27.77
294.221	-3.23
294.355	10.77
294.489	-6.23
294.622	-2.23
294.756	-1.23
294.89	-2.23
295.023	9.77
295.157	26.77
295.291	6.77
295.424	33.77
295.558	8.77
295.691	-2.23
295.825	-2.23
295.959	-1.23
296.092	-9.23
296.226	18.77
296.359	17.77
296.493	11.77
296.627	5.77
296.76	10.77
296.894	2.77
297.027	-1.23
297.161	-12.23
297.294	-18.23
297.428	-3.23
297.561	24.77
297.695	-24.23
297.828	9.77
297.962	2.77
298.095	-28.23
298.229	-6.23
298.362	-6.23
298.495	-21.23
298.629	-4.23
298.762	5.77
298.896	6.77
299.029	-3.23
299.162	-6.23
299.296	4.77
299.429	-8.23
299.563	8.77
299.696	17.77
299.829	10.77
299.963	11.77
300.096	6.77
300.229	13.77
300.363	-8.23
300.496	9.77
300.629	-5.23
300.763	-4.23
300.896	3.77
301.029	13.77
301.162	-0.23
301.296	-18.23
301.429	3.77
301.562	-35.23
301.695	-3.23
301.829	1.77
301.962	18.77
302.095	-2.23
302.228	-17.23
302.362	14.77
302.495	-21.23
302.628	-10.23
302.761	-6.23
302.894	12.77
303.027	10.77
303.161	6.77
303.294	-18.23
303.427	21.77
303.56	1.77
303.693	-5.23
303.826	17.77
303.959	1.77
304.092	-2.23
304.225	-4.23
304.359	21.77
304.492	22.77
304.625	-3.23
304.758	4.77
304.891	-9.23
305.024	-5.23
305.157	0.77
305.29	18.77
305.423	-1.23
305.556	18.77
305.689	10.77
305.822	2.77
305.955	-9.23
306.088	4.77
306.221	-0.23
306.354	-9.23
306.487	-14.23
306.62	3.77
306.752	-16.23
306.885	-8.23
307.018	0.77
307.151	14.77
307.284	-1.23
307.417	-8.23
307.55	12.77
307.683	-5.23
307.816	13.77
307.948	-0.23
308.081	18.77
308.214	4.77
308.347	23.77
308.48	-12.23
308.613	-20.23
308.745	1.77
308.878	8.77
309.011	10.77
309.144	-10.23
309.277	-12.23
309.409	11.77
309.542	9.77
309.675	8.77
309.808	19.77
309.94	1.77
310.073	-17.23
310.206	-0.23
310.339	7.77
310.471	-31.23
310.604	20.77
310.737	-1.23
310.869	-12.23
311.002	9.77
311.135	4.77
311.267	-15.23
311.4	-1.23
311.533	17.77
311.665	8.77
311.798	-7.23
311.93	9.77
312.063	6.77
312.196	0.77
312.328	8.77
312.461	11.77
312.593	1.77
312.726	25.77
312.859	3.77
312.991	-5.23
313.124	-15.23
313.256	7.77
313.389	10.77
313.521	-0.23
313.654	-9.23
313.786	-16.23
313.919	-12.23
314.051	-8.23
314.184	-0.23
314.316	-0.23
314.449	-29.23
314.581	-11.23
314.714	-4.23
314.846	-4.23
314.978	-11.23
315.111	-7.23
315.243	15.77
315.376	-1.23
315.508	-3.23
315.641	16.77
315.773	16.77
315.905	12.77
316.038	22.77
316.17	3.77
316.302	12.77
316.435	8.77
316.567	2.77
316.699	15.77
316.832	-8.23
316.964	-3.23
317.096	14.77
317.229	-14.23
317.361	-17.23
317.493	2.77
317.625	-3.23
317.758	-1.23
317.89	5.77
318.022	-16.23
318.155	-9.23
318.287	5.77
318.419	9.77
318.551	15.77
318.683	4.77
318.816	-22.23
318.948	-21.23
319.08	-2.23
319.212	-0.23
319.344	12.77
319.477	-3.23
319.609	17.77
319.741	13.77
319.873	-1.23
320.005	-8.23
320.137	6.77
320.269	7.77
320.401	5.77
320.534	5.77
320.666	-11.23
320.798	-2.23
320.93	2.77
321.062	-16.23
321.194	-2.23
321.326	5.77
321.458	7.77
321.59	-2.23
321.722	-25.23
321.854	-8.23
321.986	13.77
322.118	11.77
322.25	-3.23
322.382	-5.23
322.514	1.77
322.646	-4.23
322.778	17.77
322.91	3.77
323.042	10.77
323.174	-9.23
323.306	-12.23
323.438	-13.23
323.57	0.77
323.702	-10.23
323.834	2.77
323.966	-19.23
324.097	3.77
324.229	16.77
324.361	12.77
324.493	0.77
324.625	-1.23
324.757	-8.23
324.889	-4.23
325.021	-0.23
325.152	32.77
325.284	12.77
325.416	-9.23
325.548	24.77
325.68	9.77
325.811	24.77
325.943	22.77
326.075	-8.23
326.207	4.77
326.339	4.77
326.47	0.77
326.602	3.77
326.734	9.77
326.866	25.77
326.997	-10.23
327.129	-0.23
327.261	-4.23
327.392	-8.23
327.524	1.77
327.656	18.77
327.787	13.77
327.919	3.77
328.051	9.77
328.182	24.77
328.314	26.77
328.446	-1.23
328.577	30.77
328.709	-2.23
328.841	6.77
328.972	-8.23
329.104	9.77
329.235	0.77
329.367	7.77
329.499	-0.23
329.63	0.77
329.762	3.77
329.893	16.77
330.025	-9.23
330.156	-12.23
330.288	7.77
330.419	-1.23
330.551	-4.23
330.683	10.77
330.814	-17.23
330.946	15.77
331.077	-3.23
331.208	-14.23
331.34	-4.23
331.471	-0.23
331.603	15.77
331.734	-4.23
331.866	9.77
331.997	18.77
332.129	4.77
332.26	-4.23
332.392	31.77
332.523	-10.23
332.654	-8.23
332.786	0.77
332.917	-23.23
333.048	16.77
333.18	14.77
333.311	-16.23
333.443	7.77
333.574	-5.23
333.705	18.77
333.837	-5.23
333.968	-4.23
334.099	32.77
334.231	17.77
334.362	3.77
334.493	16.77
334.624	30.77
334.756	24.77
334.887	25.77
335.018	6.77
335.15	31.77
335.281	25.77
335.412	29.77
335.543	26.77
335.675	3.77
335.806	-0.23
335.937	9.77
336.068	-7.23
336.199	22.77
336.331	7.77
336.462	0.77
336.593	12.77
336.724	-9.23
336.855	2.77
336.986	23.77
337.118	14.77
337.249	15.77
337.38	17.77
337.511	3.77
337.642	9.77
337.773	21.77
337.904	8.77
338.035	13.77
338.166	3.77
338.298	11.77
338.429	1.77
338.56	14.77
338.691	5.77
338.822	1.77
338.953	21.77
339.084	15.77
339.215	20.77
339.346	13.77
339.477	8.77
339.608	3.77
339.739	2.77
339.87	4.77
340.001	-13.23
340.132	21.77
340.263	7.77
340.394	9.77
340.525	11.77
340.656	2.77
340.787	-13.23
340.918	14.77
341.049	22.77
341.179	14.77
341.31	6.77
341.441	24.77
341.572	14.77
341.703	5.77
341.834	5.77
341.965	7.77
342.096	-2.23
342.227	12.77
342.357	20.77
342.488	9.77
342.619	4.77
342.75	9.77
342.881	0.77
343.012	17.77
343.142	31.77
343.273	-6.23
343.404	7.77
343.535	33.77
343.666	8.77
343.796	9.77
343.927	13.77
344.058	22.77
344.189	-3.23
344.319	13.77
344.45	6.77
344.581	-0.23
344.712	-15.23
344.842	7.77
344.973	-11.23
345.104	7.77
345.234	-11.23
345.365	-5.23
345.496	5.77
345.626	-1.23
345.757	9.77
345.888	9.77
346.018	16.77
346.149	9.77
346.28	28.77
346.41	10.77
346.541	14.77
346.672	14.77
346.802	14.77
346.933	7.77
347.063	3.77
347.194	12.77
347.325	8.77
347.455	30.77
347.586	23.77
347.716	6.77
347.847	11.77
347.977	6.77
348.108	11.77
348.238	9.77
348.369	23.77
348.499	14.77
348.63	4.77
348.76	17.77
348.891	-0.23
349.021	1.77
349.152	5.77
349.282	19.77
349.413	0.77
349.543	16.77
349.674	6.77
349.804	18.77
349.935	-2.23
350.065	-6.23
350.196	-0.23
350.326	11.77
350.456	2.77
350.587	27.77
350.717	0.77
350.848	16.77
350.978	9.77
351.108	-10.23
351.239	19.77
351.369	2.77
351.499	-3.23
351.63	15.77
351.76	3.77
351.89	8.77
352.021	7.77
352.151	-1.23
352.281	8.77
352.412	11.77
352.542	-2.23
352.672	-1.23
352.803	4.77
352.933	16.77
353.063	24.77
353.193	6.77
353.324	4.77
353.454	16.77
353.584	-3.23
353.714	9.77
353.845	14.77
353.975	1.77
354.105	14.77
354.235	13.77
354.365	2.77
354.496	7.77
354.626	27.77
354.756	35.77
354.886	8.77
355.016	9.77
355.146	22.77
355.277	15.77
355.407	1.77
355.537	17.77
355.667	19.77
355.797	9.77
355.927	-6.23
356.057	-6.23
356.187	-2.23
356.318	-5.23
356.448	-1.23
356.578	8.77
356.708	27.77
356.838	6.77
356.968	-3.23
357.098	17.77
357.228	-3.23
357.358	-0.23
357.488	9.77
357.618	38.77
357.748	18.77
357.878	-5.23
358.008	-5.23
358.138	-9.23
358.268	14.77
358.398	33.77
358.528	-1.23
358.658	10.77
358.788	-13.23
358.918	16.77
359.048	18.77
359.178	25.77
359.308	15.77
359.438	30.77
359.568	20.77
359.698	5.77
359.827	-6.23
359.957	4.77
360.087	19.77
360.217	18.77
360.347	-6.23
360.477	3.77
360.607	-4.23
360.737	15.77
360.866	10.77
360.996	-0.23
361.126	10.77
361.256	31.77
361.386	19.77
361.516	21.77
361.645	-8.23
361.775	10.77
361.905	-0.23
362.035	14.77
362.165	0.77
362.294	4.77
362.424	14.77
362.554	15.77
362.684	3.77
362.813	1.77
362.943	13.77
363.073	-3.23
363.203	-9.23
363.332	13.77
363.462	-6.23
363.592	2.77
363.721	-13.23
363.851	10.77
363.981	15.77
364.111	19.77
364.24	-17.23
364.37	7.77
364.5	15.77
364.629	16.77
364.759	-6.23
364.888	-3.23
365.018	19.77
365.148	6.77
365.277	9.77
365.407	11.77
365.537	17.77
365.666	22.77
365.796	2.77
365.925	12.77
366.055	10.77
366.184	-7.23
366.314	5.77
366.444	20.77
366.573	8.77
366.703	7.77
366.832	11.77
366.962	8.77
367.091	34.77
367.221	19.77
367.35	1.77
367.48	50.77
367.609	19.77
367.739	12.77
367.868	20.77
367.998	6.77
368.127	9.77
368.257	22.77
368.386	23.77
368.516	-1.23
368.645	15.77
368.775	14.77
368.904	8.77
369.033	4.77
369.163	-1.23
369.292	2.77
369.422	12.77
369.551	18.77
369.68	22.77
369.81	9.77
369.939	13.77
370.069	19.77
370.198	16.77
370.327	-0.23
370.457	10.77
370.586	32.77
370.715	12.77
370.845	-4.23
370.974	21.77
371.103	9.77
371.233	13.77
371.362	28.77
371.491	-4.23
371.621	0.77
371.75	18.77
371.879	-9.23
372.008	21.77
372.138	11.77
372.267	-2.23
372.396	-3.23
372.525	9.77
372.655	9.77
372.784	-4.23
372.913	-8.23
373.042	3.77
373.172	30.77
373.301	-2.23
373.43	-2.23
373.559	2.77
373.688	13.77
373.818	21.77
373.947	15.77
374.076	1.77
374.205	15.77
374.334	30.77
374.463	1.77
374.593	11.77
374.722	11.77
374.851	21.77
374.98	-19.23
375.109	-0.23
375.238	15.77
375.367	42.77
375.496	6.77
375.625	-5.23
375.755	10.77
375.884	19.77
376.013	32.77
376.142	-12.23
376.271	-10.23
376.4	-12.23
376.529	4.77
376.658	10.77
376.787	-20.23
376.916	14.77
377.045	3.77
377.174	-12.23
377.303	6.77
377.432	34.77
377.561	24.77
377.69	6.77
377.819	9.77
377.948	-7.23
378.077	-13.23
378.206	-0.23
378.335	-5.23
378.464	14.77
378.593	22.77
378.722	16.77
378.851	0.77
378.98	16.77
379.108	0.77
379.237	-17.23
379.366	6.77
379.495	17.77
379.624	8.77
379.753	-0.23
379.882	15.77
380.011	1.77
380.14	11.77
380.268	7.77
380.397	-1.23
380.526	9.77
380.655	-17.23
380.784	-11.23
380.913	-4.23
381.041	3.77
381.17	1.77
381.299	0.77
381.428	23.77
381.557	16.77
381.685	1.77
381.814	13.77
381.943	-14.23
382.072	0.77
382.2	-10.23
382.329	-5.23
382.458	-0.23
382.587	15.77
382.715	29.77
382.844	-0.23
382.973	7.77
383.102	16.77
383.23	2.77
383.359	1.77
383.488	12.77
383.616	-18.23
383.745	5.77
383.874	6.77
384.003	-8.23
384.131	-8.23
384.26	-12.23
384.389	15.77
384.517	4.77
384.646	-7.23
384.774	1.77
384.903	20.77
385.032	30.77
385.16	26.77
385.289	16.77
385.418	11.77
385.546	14.77
385.675	14.77
385.803	4.77
385.932	20.77
386.06	-7.23
386.189	-3.23
386.318	17.77
386.446	-10.23
386.575	-7.23
386.703	-1.23
386.832	-5.23
386.96	-31.23
387.089	29.77
387.217	18.77
387.346	15.77
387.474	27.77
387.603	15.77
387.731	-3.23
387.86	14.77
387.988	9.77
388.117	23.77
388.245	7.77
388.374	-1.23
388.502	-5.23
388.631	-8.23
388.759	-13.23
388.888	6.77
389.016	-6.23
389.144	13.77
389.273	7.77
389.401	6.77
389.53	-3.23
389.658	23.77
389.786	-14.23
389.915	-21.23
390.043	-14.23
390.172	8.77
390.3	35.77
390.428	8.77
390.557	18.77
390.685	17.77
390.813	9.77
390.942	-2.23
391.07	5.77
391.198	15.77
391.327	9.77
391.455	-5.23
391.583	23.77
391.712	11.77
391.84	4.77
391.968	-5.23
392.096	6.77
392.225	16.77
392.353	12.77
392.481	1.77
392.609	30.77
392.738	21.77
392.866	9.77
392.994	2.77
393.122	24.77
393.251	-2.23
393.379	-4.23
393.507	-22.23
393.635	5.77
393.764	2.77
393.892	6.77
394.02	-7.23
394.148	-0.23
394.276	21.77
394.404	33.77
394.533	12.77
394.661	15.77
394.789	15.77
394.917	30.77
395.045	7.77
395.173	-10.23
395.302	-18.23
395.43	12.77
395.558	5.77
395.686	7.77
395.814	21.77
395.942	2.77
396.07	13.77
396.198	18.77
396.326	15.77
396.454	18.77
396.582	10.77
396.711	12.77
396.839	16.77
396.967	18.77
397.095	33.77
397.223	42.77
397.351	7.77
397.479	9.77
397.607	5.77
397.735	28.77
397.863	6.77
397.991	17.77
398.119	-11.23
398.247	-2.23
398.375	-5.23
398.503	16.77
398.631	9.77
398.759	16.77
398.887	6.77
399.015	-11.23
399.143	10.77
399.271	14.77
399.399	14.77
399.526	26.77
399.654	14.77
399.782	-2.23
399.91	21.77
400.038	15.77
400.166	14.77
400.294	3.77
400.422	-4.23
400.55	20.77
400.678	18.77
400.805	9.77
400.933	11.77
401.061	13.77
401.189	8.77
401.317	37.77
401.445	23.77
401.573	30.77
401.7	-0.23
401.828	-0.23
401.956	10.77
402.084	15.77
402.212	11.77
402.34	20.77
402.467	16.77
402.595	7.77
402.723	-9.23
402.851	16.77
402.978	12.77
403.106	24.77
403.234	16.77
403.362	18.77
403.489	11.77
403.617	-8.23
403.745	-1.23
403.873	-7.23
404	13.77
404.128	5.77
404.256	4.77
404.384	22.77
404.511	13.77
404.639	-10.23
404.767	0.77
404.894	-0.23
405.022	1.77
405.15	16.77
405.277	3.77
405.405	0.77
405.533	-1.23
405.66	15.77
405.788	-9.23
405.916	-8.23
406.043	8.77
406.171	3.77
406.299	16.77
406.426	11.77
406.554	26.77
406.681	35.77
406.809	24.77
406.937	8.77
407.064	2.77
407.192	22.77
407.319	15.77
407.447	7.77
407.574	34.77
407.702	28.77
407.83	9.77
407.957	3.77
408.085	-6.23
408.212	7.77
408.34	13.77
408.467	14.77
408.595	-4.23
408.722	24.77
408.85	36.77
408.977	5.77
409.105	6.77
409.232	10.77
409.36	-1.23
409.487	10.77
409.615	15.77
409.742	21.77
409.87	30.77
409.997	42.77
410.125	43.77
410.252	56.77
410.379	51.77
410.507	42.77
410.634	7.77
410.762	8.77
410.889	11.77
411.017	-2.23
411.144	18.77
411.271	-7.23
411.399	-2.23
411.526	2.77
411.653	23.77
411.781	21.77
411.908	22.77
412.036	23.77
412.163	44.77
412.29	19.77
412.418	11.77
412.545	5.77
412.672	6.77
412.8	32.77
412.927	29.77
413.054	17.77
413.182	14.77
413.309	14.77
413.436	4.77
413.564	2.77
413.691	21.77
413.818	7.77
413.945	-5.23
414.073	-8.23
414.2	17.77
414.327	21.77
414.454	18.77
414.582	14.77
414.709	3.77
414.836	1.77
414.963	8.77
415.091	11.77
415.218	6.77
415.345	-1.23
415.472	7.77
415.6	-13.23
415.727	15.77
415.854	15.77
415.981	25.77
416.108	6.77
416.236	-8.23
416.363	5.77
416.49	5.77
416.617	5.77
416.744	22.77
416.871	15.77
416.998	8.77
417.126	5.77
417.253	5.77
417.38	-0.23
417.507	15.77
417.634	17.77
417.761	21.77
417.888	22.77
418.015	16.77
418.143	1.77
418.27	23.77
418.397	0.77
418.524	6.77
418.651	20.77
418.778	14.77
418.905	39.77
419.032	20.77
419.159	4.77
419.286	38.77
419.413	16.77
419.54	23.77
419.667	19.77
419.794	3.77
419.921	25.77
420.048	14.77
420.175	7.77
420.302	2.77
420.429	20.77
420.556	3.77
420.683	3.77
420.81	3.77
420.937	20.77
421.064	18.77
421.191	0.77
421.318	13.77
421.445	18.77
421.572	12.77
421.699	21.77
421.826	13.77
421.953	10.77
422.08	-2.23
422.207	-21.23
422.334	-20.23
422.461	29.77
422.588	1.77
422.714	12.77
422.841	42.77
422.968	16.77
423.095	24.77
423.222	3.77
423.349	14.77
423.476	13.77
423.603	3.77
423.729	8.77
423.856	22.77
423.983	22.77
424.11	16.77
424.237	7.77
424.364	-6.23
424.491	3.77
424.617	-16.23
424.744	7.77
424.871	22.77
424.998	9.77
425.125	11.77
425.251	12.77
425.378	27.77
425.505	15.77
425.632	9.77
425.758	4.77
425.885	22.77
426.012	21.77
426.139	16.77
426.266	-2.23
426.392	27.77
426.519	11.77
426.646	10.77
426.772	21.77
426.899	14.77
427.026	5.77
427.153	2.77
427.279	15.77
427.406	11.77
427.533	14.77
427.659	12.77
427.786	-3.23
427.913	21.77
428.039	21.77
428.166	1.77
428.293	19.77
428.419	20.77
428.546	17.77
428.673	-1.23
428.799	-1.23
428.926	-5.23
429.053	20.77
429.179	21.77
429.306	21.77
429.433	28.77
429.559	21.77
429.686	-10.23
429.812	-7.23
429.939	-5.23
430.066	2.77
430.192	-7.23
430.319	22.77
430.445	8.77
430.572	9.77
430.699	-9.23
430.825	-2.23
430.952	6.77
431.078	12.77
431.205	5.77
431.331	14.77
431.458	3.77
431.584	21.77
431.711	6.77
431.837	5.77
431.964	14.77
432.09	7.77
432.217	-17.23
432.343	10.77
432.47	11.77
432.596	10.77
432.723	7.77
432.849	11.77
432.976	1.77
433.102	7.77
433.229	3.77
433.355	34.77
433.482	68.77
433.608	147.77
433.735	132.77
433.861	118.77
433.987	141.77
434.114	236.77
434.24	185.77
434.367	66.77
434.493	23.77
434.62	17.77
434.746	19.77
434.872	4.77
434.999	15.77
435.125	10.77
435.252	-0.23
435.378	16.77
435.504	10.77
435.631	26.77
435.757	9.77
435.883	7.77
436.01	-0.23
436.136	1.77
436.262	5.77
436.389	9.77
436.515	7.77
436.641	7.77
436.768	9.77
436.894	12.77
437.02	5.77
437.147	35.77
437.273	7.77
437.399	6.77
437.526	10.77
437.652	9.77
437.778	25.77
437.904	-7.23
438.031	9.77
438.157	9.77
438.283	6.77
438.409	-10.23
438.536	-9.23
438.662	7.77
438.788	22.77
438.914	9.77
439.041	18.77
439.167	36.77
439.293	5.77
439.419	8.77
439.546	19.77
439.672	7.77
439.798	25.77
439.924	33.77
440.05	43.77
440.177	23.77
440.303	4.77
440.429	3.77
440.555	10.77
440.681	-13.23
440.807	21.77
440.934	4.77
441.06	16.77
441.186	14.77
441.312	10.77
441.438	30.77
441.564	27.77
441.69	35.77
441.816	23.77
441.943	18.77
442.069	-2.23
442.195	10.77
442.321	24.77
442.447	-1.23
442.573	9.77
442.699	-0.23
442.825	-1.23
442.951	8.77
443.077	12.77
443.203	26.77
443.33	14.77
443.456	-10.23
443.582	2.77
443.708	9.77
443.834	23.77
443.96	16.77
444.086	11.77
444.212	20.77
444.338	17.77
444.464	15.77
444.59	17.77
444.716	26.77
444.842	31.77
444.968	4.77
445.094	11.77
445.22	-7.23
445.346	-0.23
445.472	21.77
445.598	5.77
445.724	4.77
445.85	9.77
445.976	9.77
446.102	11.77
446.228	17.77
446.354	9.77
446.48	-0.23
446.605	3.77
446.731	13.77
446.857	-10.23
446.983	14.77
447.109	2.77
447.235	17.77
447.361	-3.23
447.487	20.77
447.613	12.77
447.739	5.77
447.865	4.77
447.99	0.77
448.116	0.77
448.242	10.77
448.368	5.77
448.494	2.77
448.62	29.77
448.746	29.77
448.872	5.77
448.997	1.77
449.123	6.77
449.249	25.77
449.375	25.77
449.501	5.77
449.627	5.77
449.752	21.77
449.878	-5.23
450.004	-5.23
450.13	22.77
450.256	12.77
450.381	1.77
450.507	18.77
450.633	9.77
450.759	16.77
450.884	-6.23
451.01	25.77
451.136	6.77
451.262	1.77
451.388	1.77
451.513	0.77
451.639	14.77
451.765	-10.23
451.89	26.77
452.016	18.77
452.142	0.77
452.268	16.77
452.393	5.77
452.519	-4.23
452.645	8.77
452.771	22.77
452.896	3.77
453.022	21.77
453.148	7.77
453.273	4.77
453.399	28.77
453.525	-0.23
453.65	14.77
453.776	23.77
453.902	13.77
454.027	10.77
454.153	15.77
454.279	15.77
454.404	13.77
454.53	20.77
454.656	54.77
454.781	-4.23
454.907	12.77
455.032	-2.23
455.158	30.77
455.284	30.77
455.409	21.77
455.535	3.77
455.66	17.77
455.786	17.77
455.912	10.77
456.037	-0.23
456.163	5.77
456.288	22.77
456.414	-4.23
456.539	2.77
456.665	14.77
456.791	24.77
456.916	8.77
457.042	14.77
457.167	-2.23
457.293	9.77
457.418	11.77
457.544	15.77
457.669	7.77
457.795	8.77
457.92	14.77
458.046	10.77
458.171	35.77
458.297	10.77
458.422	3.77
458.548	6.77
458.673	13.77
458.799	-0.23
458.924	1.77
459.05	16.77
459.175	19.77
459.301	12.77
459.426	1.77
459.552	22.77
459.677	-4.23
459.803	23.77
459.928	5.77
460.053	2.77
460.179	12.77
460.304	18.77
460.43	-6.23
460.555	21.77
460.681	24.77
460.806	10.77
460.931	26.77
461.057	17.77
461.182	14.77
461.308	25.77
461.433	14.77
461.558	8.77
461.684	27.77
461.809	10.77
461.934	25.77
462.06	21.77
462.185	1.77
462.311	9.77
462.436	23.77
462.561	5.77
462.687	10.77
462.812	19.77
462.937	18.77
463.063	-2.23
463.188	-0.23
463.313	8.77
463.439	-10.23
463.564	1.77
463.689	19.77
463.814	20.77
463.94	6.77
464.065	34.77
464.19	24.77
464.316	-2.23
464.441	-10.23
464.566	8.77
464.692	7.77
464.817	7.77
464.942	10.77
465.067	7.77
465.193	-4.23
465.318	13.77
465.443	6.77
465.568	0.77
465.694	20.77
465.819	31.77
465.944	12.77
466.069	8.77
466.194	37.77
466.32	22.77
466.445	8.77
466.57	10.77
466.695	19.77
466.82	3.77
466.946	17.77
467.071	15.77
467.196	0.77
467.321	11.77
467.446	9.77
467.572	7.77
467.697	5.77
467.822	17.77
467.947	20.77
468.072	13.77
468.197	7.77
468.323	18.77
468.448	19.77
468.573	13.77
468.698	-5.23
468.823	10.77
468.948	15.77
469.073	26.77
469.198	20.77
469.324	43.77
469.449	5.77
469.574	13.77
469.699	14.77
469.824	18.77
469.949	16.77
470.074	20.77
470.199	45.77
470.324	24.77
470.449	31.77
470.574	13.77
470.7	15.77
470.825	25.77
470.95	28.77
471.075	-6.23
471.2	5.77
471.325	17.77
471.45	12.77
471.575	12.77
471.7	17.77
471.825	-2.23
471.95	11.77
472.075	12.77
472.2	9.77
472.325	19.77
472.45	5.77
472.575	10.77
472.7	27.77
472.825	23.77
472.95	24.77
473.075	12.77
473.2	-10.23
473.325	9.77
473.45	2.77
473.575	-2.23
473.7	4.77
473.825	14.77
473.95	18.77
474.075	28.77
474.2	9.77
474.325	-14.23
474.45	19.77
474.574	21.77
474.699	27.77
474.824	22.77
474.949	4.77
475.074	2.77
475.199	24.77
475.324	14.77
475.449	-8.23
475.574	7.77
475.699	26.77
475.824	25.77
475.949	0.77
476.073	1.77
476.198	23.77
476.323	23.77
476.448	-6.23
476.573	2.77
476.698	31.77
476.823	6.77
476.947	9.77
477.072	18.77
477.197	6.77
477.322	7.77
477.447	-4.23
477.572	21.77
477.697	1.77
477.821	8.77
477.946	30.77
478.071	9.77
478.196	15.77
478.321	18.77
478.445	14.77
478.57	6.77
478.695	7.77
478.82	24.77
478.945	24.77
479.069	7.77
479.194	9.77
479.319	37.77
479.444	13.77
479.569	10.77
479.693	22.77
479.818	34.77
479.943	24.77
480.068	15.77
480.192	9.77
480.317	21.77
480.442	3.77
480.567	17.77
480.691	36.77
480.816	13.77
480.941	-4.23
481.066	9.77
481.19	36.77
481.315	25.77
481.44	-6.23
481.564	8.77
481.689	6.77
481.814	24.77
481.938	34.77
482.063	12.77
482.188	18.77
482.313	26.77
482.437	9.77
482.562	18.77
482.687	38.77
482.811	33.77
482.936	31.77
483.061	30.77
483.185	33.77
483.31	33.77
483.435	38.77
483.559	29.77
483.684	25.77
483.808	30.77
483.933	27.77
484.058	18.77
484.182	21.77
484.307	8.77
484.432	25.77
484.556	27.77
484.681	18.77
484.805	18.77
484.93	27.77
485.055	39.77
485.179	81.77
485.304	114.77
485.428	363.77
485.553	1224.77
485.678	1729.77
485.802	1622.77
485.927	1817.77
486.051	2708.77
486.176	1675.77
486.3	462.77
486.425	165.77
486.549	94.77
486.674	49.77
486.799	48.77
486.923	36.77
487.048	29.77
487.172	20.77
487.297	39.77
487.421	36.77
487.546	25.77
487.67	35.77
487.795	14.77
487.919	15.77
488.044	27.77
488.168	18.77
488.293	4.77
488.417	17.77
488.542	23.77
488.666	30.77
488.791	28.77
488.915	18.77
489.04	39.77
489.164	22.77
489.289	29.77
489.413	8.77
489.538	24.77
489.662	42.77
489.786	19.77
489.911	19.77
490.035	13.77
490.16	3.77
490.284	13.77
490.409	-4.23
490.533	12.77
490.658	35.77
490.782	4.77
490.906	22.77
491.031	28.77
491.155	15.77
491.28	24.77
491.404	17.77
491.528	42.77
491.653	10.77
491.777	21.77
491.902	2.77
492.026	28.77
492.15	23.77
492.275	35.77
492.399	31.77
492.524	25.77
492.648	22.77
492.772	37.77
492.897	14.77
493.021	14.77
493.145	40.77
493.27	39.77
493.394	12.77
493.518	17.77
493.643	8.77
493.767	31.77
493.891	12.77
494.016	19.77
494.14	-14.23
494.264	16.77
494.389	20.77
494.513	25.77
494.637	1.77
494.762	32.77
494.886	30.77
495.01	35.77
495.134	22.77
495.259	33.77
495.383	17.77
495.507	22.77
495.632	33.77
495.756	30.77
495.88	28.77
496.004	13.77
496.129	9.77
496.253	46.77
496.377	8.77
496.501	45.77
496.626	8.77
496.75	28.77
496.874	15.77
496.998	21.77
497.123	30.77
497.247	31.77
497.371	-2.23
497.495	22.77
497.62	14.77
497.744	17.77
497.868	11.77
497.992	25.77
498.116	2.77
498.241	10.77
498.365	20.77
498.489	6.77
498.613	32.77
498.737	22.77
498.862	5.77
498.986	6.77
499.11	9.77
499.234	11.77
499.358	8.77
499.482	12.77
499.607	18.77
499.731	28.77
499.855	29.77
499.979	12.77
500.103	17.77
500.227	24.77
500.351	20.77
500.476	24.77
500.6	22.77
500.724	12.77
500.848	12.77
500.972	23.77
501.096	27.77
501.22	43.77
501.344	11.77
501.469	15.77
501.593	37.77
501.717	18.77
501.841	11.77
501.965	20.77
502.089	-1.23
502.213	12.77
502.337	5.77
502.461	-6.23
502.585	13.77
502.709	10.77
502.834	-7.23
502.958	19.77
503.082	21.77
503.206	14.77
503.33	19.77
503.454	29.77
503.578	27.77
503.702	30.77
503.826	23.77
503.95	30.77
504.074	23.77
504.198	9.77
504.322	6.77
504.446	9.77
504.57	0.77
504.694	-0.23
504.818	11.77
504.942	40.77
505.066	19.77
505.19	6.77
505.314	0.77
505.438	20.77
505.562	15.77
505.686	18.77
505.81	3.77
505.934	17.77
506.058	29.77
506.182	20.77
506.306	12.77
506.43	16.77
506.554	18.77
506.678	6.77
506.802	0.77
506.926	21.77
507.05	20.77
507.174	41.77
507.298	5.77
507.422	9.77
507.546	15.77
507.67	43.77
507.794	4.77
507.918	6.77
508.042	15.77
508.165	-1.23
508.289	6.77
508.413	17.77
508.537	17.77
508.661	22.77
508.785	13.77
508.909	20.77
509.033	14.77
509.157	7.77
509.281	14.77
509.405	-0.23
509.528	10.77
509.652	33.77
509.776	30.77
509.9	42.77
510.024	23.77
510.148	22.77
510.272	13.77
510.396	30.77
510.519	-3.23
510.643	25.77
510.767	14.77
510.891	25.77
511.015	27.77
511.139	-1.23
511.263	22.77
511.386	2.77
511.51	14.77
511.634	9.77
511.758	11.77
511.882	5.77
512.006	7.77
512.129	15.77
512.253	43.77
512.377	23.77
512.501	35.77
512.625	18.77
512.748	16.77
512.872	11.77
512.996	25.77
513.12	31.77
513.244	10.77
513.367	36.77
513.491	12.77
513.615	28.77
513.739	25.77
513.862	16.77
513.986	12.77
514.11	20.77
514.234	11.77
514.358	29.77
514.481	38.77
514.605	18.77
514.729	24.77
514.853	22.77
514.976	1.77
515.1	12.77
515.224	15.77
515.348	13.77
515.471	-4.23
515.595	9.77
515.719	15.77
515.842	37.77
515.966	22.77
516.09	39.77
516.214	24.77
516.337	46.77
516.461	31.77
516.585	27.77
516.708	19.77
516.832	25.77
516.956	28.77
517.08	15.77
517.203	6.77
517.327	10.77
517.451	43.77
517.574	37.77
517.698	33.77
517.822	21.77
517.945	28.77
518.069	43.77
518.193	47.77
518.316	35.77
518.44	23.77
518.564	25.77
518.687	10.77
518.811	26.77
518.935	59.77
519.058	33.77
519.182	36.77
519.306	50.77
519.429	35.77
519.553	79.77
519.676	17.77
519.8	22.77
519.924	9.77
520.047	18.77
520.171	3.77
520.294	22.77
520.418	17.77
520.542	16.77
520.665	20.77
520.789	23.77
520.913	-2.23
521.036	-2.23
521.16	-1.23
521.283	21.77
521.407	19.77
521.53	4.77
521.654	1.77
521.778	17.77
521.901	18.77
522.025	18.77
522.148	9.77
522.272	28.77
522.395	18.77
522.519	32.77
522.643	3.77
522.766	9.77
522.89	6.77
523.013	25.77
523.137	18.77
523.26	14.77
523.384	20.77
523.507	23.77
523.631	10.77
523.754	6.77
523.878	10.77
524.002	11.77
524.125	6.77
524.249	-7.23
524.372	14.77
524.496	5.77
524.619	18.77
524.743	19.77
524.866	11.77
524.99	8.77
525.113	2.77
525.237	22.77
525.36	21.77
525.484	20.77
525.607	3.77
525.731	-0.23
525.854	19.77
525.978	40.77
526.101	11.77
526.224	10.77
526.348	-0.23
526.471	17.77
526.595	13.77
526.718	-1.23
526.842	-7.23
526.965	20.77
527.089	9.77
527.212	27.77
527.336	8.77
527.459	28.77
527.582	17.77
527.706	14.77
527.829	21.77
527.953	26.77
528.076	-10.23
528.2	-2.23
528.323	17.77
528.446	42.77
528.57	18.77
528.693	24.77
528.817	13.77
528.94	19.77
529.064	39.77
529.187	12.77
529.31	5.77
529.434	2.77
529.557	12.77
529.68	7.77
529.804	13.77
529.927	9.77
530.051	1.77
530.174	-4.23
530.297	17.77
530.421	31.77
530.544	30.77
530.668	14.77
530.791	12.77
530.914	49.77
531.038	2.77
531.161	3.77
531.284	18.77
531.408	11.77
531.531	10.77
531.654	3.77
531.778	11.77
531.901	3.77
532.024	26.77
532.148	-4.23
532.271	10.77
532.394	12.77
532.518	22.77
532.641	1.77
532.764	38.77
532.888	39.77
533.011	4.77
533.134	1.77
533.258	35.77
533.381	-0.23
533.504	5.77
533.628	7.77
533.751	12.77
533.874	25.77
533.997	23.77
534.121	1.77
534.244	-5.23
534.367	6.77
534.491	14.77
534.614	12.77
534.737	17.77
534.86	16.77
534.984	7.77
535.107	6.77
535.23	8.77
535.354	18.77
535.477	1.77
535.6	3.77
535.723	15.77
535.847	17.77
535.97	-14.23
536.093	8.77
536.216	-2.23
536.34	22.77
536.463	11.77
536.586	3.77
536.709	13.77
536.833	26.77
536.956	10.77
537.079	10.77
537.202	42.77
537.325	2.77
537.449	-7.23
537.572	18.77
537.695	6.77
537.818	-6.23
537.941	6.77
538.065	10.77
538.188	-1.23
538.311	20.77
538.434	25.77
538.558	26.77
538.681	16.77
538.804	17.77
538.927	26.77
539.05	33.77
539.173	-0.23
539.297	-2.23
539.42	14.77
539.543	28.77
539.666	16.77
539.789	23.77
539.913	22.77
540.036	3.77
540.159	15.77
540.282	23.77
540.405	-0.23
540.528	18.77
540.651	14.77
540.775	-7.23
540.898	7.77
541.021	3.77
541.144	2.77
541.267	11.77
541.39	4.77
541.513	23.77
541.637	5.77
541.76	3.77
541.883	-3.23
542.006	12.77
542.129	17.77
542.252	13.77
542.375	5.77
542.498	22.77
542.622	37.77
542.745	34.77
542.868	3.77
542.991	42.77
543.114	14.77
543.237	39.77
543.36	40.77
543.483	18.77
543.606	39.77
543.73	25.77
543.853	6.77
543.976	25.77
544.099	9.77
544.222	27.77
544.345	7.77
544.468	29.77
544.591	22.77
544.714	7.77
544.837	34.77
544.96	19.77
545.083	28.77
545.206	4.77
545.329	33.77
545.453	7.77
545.576	13.77
545.699	17.77
545.822	31.77
545.945	31.77
546.068	13.77
546.191	20.77
546.314	23.77
546.437	35.77
546.56	18.77
546.683	11.77
546.806	14.77
546.929	-2.23
547.052	1.77
547.175	0.77
547.298	7.77
547.421	-1.23
547.544	14.77
547.667	6.77
547.79	3.77
547.913	5.77
548.036	-4.23
548.159	17.77
548.282	7.77
548.405	12.77
548.528	17.77
548.651	18.77
548.774	6.77
548.897	18.77
549.02	26.77
549.143	38.77
549.266	11.77
549.389	32.77
549.512	8.77
549.635	34.77
549.758	29.77
549.881	14.77
550.004	-1.23
550.127	-1.23
550.25	-12.23
550.373	6.77
550.496	16.77
550.619	7.77
550.742	6.77
550.865	-4.23
550.988	26.77
551.111	6.77
551.234	2.77
551.356	11.77
551.479	-4.23
551.602	17.77
551.725	13.77
551.848	14.77
551.971	27.77
552.094	28.77
552.217	-9.23
552.34	15.77
552.463	16.77
552.586	7.77
552.709	19.77
552.832	6.77
552.955	21.77
553.077	18.77
553.2	14.77
553.323	3.77
553.446	15.77
553.569	7.77
553.692	3.77
553.815	12.77
553.938	21.77
554.061	35.77
554.184	16.77
554.306	11.77
554.429	2.77
554.552	-2.23
554.675	-8.23
554.798	26.77
554.921	36.77
555.044	1.77
555.167	19.77
555.29	5.77
555.412	4.77
555.535	18.77
555.658	2.77
555.781	28.77
555.904	12.77
556.027	-1.23
556.15	17.77
556.272	8.77
556.395	16.77
556.518	2.77
556.641	15.77
556.764	30.77
556.887	18.77
557.01	10.77
557.132	-5.23
557.255	2.77
557.378	13.77
557.501	19.77
557.624	33.77
557.747	15.77
557.869	13.77
557.992	24.77
558.115	22.77
558.238	23.77
558.361	8.77
558.483	27.77
558.606	21.77
558.729	-1.23
558.852	43.77
558.975	32.77
559.098	32.77
559.22	9.77
559.343	10.77
559.466	7.77
559.589	4.77
559.712	13.77
559.834	10.77
559.957	24.77
560.08	19.77
560.203	40.77
560.325	45.77
560.448	26.77
560.571	25.77
560.694	8.77
560.817	10.77
560.939	9.77
561.062	4.77
561.185	9.77
561.308	1.77
561.43	11.77
561.553	6.77
561.676	12.77
561.799	20.77
561.921	13.77
562.044	12.77
562.167	-3.23
562.29	32.77
562.413	33.77
562.535	26.77
562.658	-8.23
562.781	-4.23
562.903	8.77
563.026	2.77
563.149	22.77
563.272	6.77
563.394	6.77
563.517	19.77
563.64	9.77
563.763	19.77
563.885	8.77
564.008	32.77
564.131	13.77
564.254	3.77
564.376	6.77
564.499	-0.23
564.622	-1.23
564.744	14.77
564.867	11.77
564.99	17.77
565.113	21.77
565.235	7.77
565.358	1.77
565.481	-3.23
565.603	-15.23
565.726	1.77
565.849	23.77
565.971	9.77
566.094	5.77
566.217	-3.23
566.34	6.77
566.462	8.77
566.585	14.77
566.708	16.77
566.83	24.77
566.953	21.77
567.076	23.77
567.198	1.77
567.321	-2.23
567.444	13.77
567.566	12.77
567.689	-9.23
567.812	17.77
567.934	8.77
568.057	3.77
568.18	5.77
568.302	13.77
568.425	10.77
568.548	11.77
568.67	7.77
568.793	17.77
568.916	11.77
569.038	-15.23
569.161	9.77
569.283	24.77
569.406	11.77
569.529	7.77
569.651	1.77
569.774	11.77
569.897	14.77
570.019	39.77
570.142	23.77
570.265	3.77
570.387	-1.23
570.51	22.77
570.632	29.77
570.755	21.77
570.878	4.77
571	20.77
571.123	6.77
571.246	17.77
571.368	15.77
571.491	14.77
571.613	4.77
571.736	4.77
571.859	19.77
571.981	7.77
572.104	9.77
572.226	17.77
572.349	-8.23
572.472	17.77
572.594	33.77
572.717	7.77
572.839	-3.23
572.962	2.77
573.085	4.77
573.207	1.77
573.33	3.77
573.452	11.77
573.575	31.77
573.697	14.77
573.82	4.77
573.943	11.77
574.065	26.77
574.188	24.77
574.31	18.77
574.433	12.77
574.555	17.77
574.678	2.77
574.801	12.77
574.923	3.77
575.046	13.77
575.168	-4.23
575.291	3.77
575.413	-4.23
575.536	5.77
575.659	14.77
575.781	8.77
575.904	4.77
576.026	8.77
576.149	-3.23
576.271	27.77
576.394	22.77
576.516	5.77
576.639	12.77
576.761	7.77
576.884	0.77
577.007	2.77
577.129	23.77
577.252	12.77
577.374	25.77
577.497	7.77
577.619	23.77
577.742	1.77
577.864	19.77
577.987	17.77
578.109	33.77
578.232	22.77
578.354	34.77
578.477	-0.23
578.599	3.77
578.722	13.77
578.844	-1.23
578.967	7.77
579.089	6.77
579.212	-6.23
579.334	33.77
579.457	25.77
579.579	13.77
579.702	4.77
579.824	14.77
579.947	2.77
580.069	18.77
580.192	7.77
580.314	11.77
580.437	25.77
580.559	50.77
580.682	21.77
580.804	3.77
580.927	9.77
581.049	49.77
581.172	32.77
581.294	30.77
581.417	26.77
581.539	20.77
581.662	21.77
581.784	10.77
581.907	22.77
582.029	15.77
582.152	-18.23
582.274	22.77
582.396	25.77
582.519	22.77
582.641	-14.23
582.764	7.77
582.886	15.77
583.009	5.77
583.131	6.77
583.254	20.77
583.376	12.77
583.499	21.77
583.621	26.77
583.743	38.77
583.866	15.77
583.988	14.77
584.111	14.77
584.233	13.77
584.356	29.77
584.478	2.77
584.601	-14.23
584.723	1.77
584.845	29.77
584.968	0.77
585.09	-14.23
585.213	3.77
585.335	1.77
585.458	9.77
585.58	7.77
585.702	23.77
585.825	20.77
585.947	22.77
586.07	-5.23
586.192	7.77
586.315	20.77
586.437	0.77
586.559	-1.23
586.682	1.77
586.804	17.77
586.927	-1.23
587.049	6.77
587.171	17.77
587.294	20.77
587.416	33.77
587.539	12.77
587.661	2.77
587.783	12.77
587.906	15.77
588.028	12.77
588.151	23.77
588.273	30.77
588.395	13.77
588.518	5.77
588.64	9.77
588.763	17.77
588.885	27.77
589.007	24.77
589.13	-4.23
589.252	-12.23
589.375	17.77
589.497	-0.23
589.619	3.77
589.742	-4.23
589.864	29.77
589.986	22.77
590.109	-10.23
590.231	-0.23
590.354	19.77
590.476	-8.23
590.598	-8.23
590.721	-7.23
590.843	22.77
590.965	14.77
591.088	4.77
591.21	30.77
591.332	31.77
591.455	-1.23
591.577	-7.23
591.7	13.77
591.822	1.77
591.944	2.77
592.067	9.77
592.189	10.77
592.311	30.77
592.434	15.77
592.556	22.77
592.678	6.77
592.801	10.77
592.923	0.77
593.045	-7.23
593.168	8.77
593.29	7.77
593.412	17.77
593.535	1.77
593.657	-13.23
593.779	6.77
593.902	22.77
594.024	14.77
594.146	10.77
594.269	34.77
594.391	11.77
594.513	12.77
594.636	21.77
594.758	3.77
594.88	31.77
595.003	17.77
595.125	20.77
595.247	30.77
595.37	6.77
595.492	-4.23
595.614	26.77
595.737	5.77
595.859	8.77
595.981	16.77
596.104	14.77
596.226	13.77
596.348	9.77
596.471	21.77
596.593	18.77
596.715	6.77
596.838	20.77
596.96	10.77
597.082	21.77
597.204	5.77
597.327	11.77
597.449	5.77
597.571	28.77
597.694	41.77
597.816	31.77
597.938	21.77
598.061	-4.23
598.183	-9.23
598.305	24.77
598.427	28.77
598.55	34.77
598.672	25.77
598.794	15.77
598.917	10.77
599.039	22.77
599.161	3.77
599.283	0.77
599.406	9.77
599.528	12.77
599.65	40.77
599.773	10.77
599.895	29.77
600.017	30.77
600.139	19.77
600.262	7.77
600.384	36.77
600.506	24.77
600.628	18.77
600.751	22.77
600.873	8.77
600.995	3.77
601.118	20.77
601.24	13.77
601.362	33.77
601.484	24.77
601.607	8.77
601.729	8.77
601.851	-1.23
601.973	19.77
602.096	23.77
602.218	17.77
602.34	29.77
602.462	26.77
602.585	19.77
602.707	4.77
602.829	21.77
602.951	22.77
603.074	4.77
603.196	19.77
603.318	6.77
603.44	18.77
603.563	3.77
603.685	-8.23
603.807	26.77
603.929	12.77
604.052	22.77
604.174	19.77
604.296	17.77
604.418	43.77
604.541	41.77
604.663	12.77
604.785	5.77
604.907	18.77
605.03	-1.23
605.152	21.77
605.274	7.77
605.396	11.77
605.519	19.77
605.641	11.77
605.763	-0.23
605.885	13.77
606.008	6.77
606.13	8.77
606.252	17.77
606.374	-8.23
606.496	1.77
606.619	2.77
606.741	23.77
606.863	26.77
606.985	38.77
607.108	32.77
607.23	6.77
607.352	-2.23
607.474	13.77
607.596	6.77
607.719	20.77
607.841	18.77
607.963	21.77
608.085	10.77
608.207	33.77
608.33	12.77
608.452	9.77
608.574	5.77
608.696	19.77
608.819	18.77
608.941	13.77
609.063	-7.23
609.185	10.77
609.307	14.77
609.43	27.77
609.552	24.77
609.674	8.77
609.796	10.77
609.918	15.77
610.041	6.77
610.163	30.77
610.285	10.77
610.407	16.77
610.529	-3.23
610.652	20.77
610.774	11.77
610.896	7.77
611.018	20.77
611.14	5.77
611.263	5.77
611.385	-2.23
611.507	7.77
611.629	3.77
611.751	18.77
611.873	31.77
611.996	5.77
612.118	18.77
612.24	13.77
612.362	22.77
612.484	45.77
612.607	23.77
612.729	32.77
612.851	31.77
612.973	2.77
613.095	10.77
613.218	11.77
613.34	29.77
613.462	26.77
613.584	20.77
613.706	13.77
613.828	29.77
613.951	10.77
614.073	3.77
614.195	-2.23
614.317	26.77
614.439	5.77
614.561	23.77
614.684	13.77
614.806	22.77
614.928	23.77
615.05	12.77
615.172	23.77
615.294	28.77
615.417	4.77
615.539	8.77
615.661	4.77
615.783	21.77
615.905	33.77
616.027	62.77
616.15	93.77
616.272	88.77
616.394	63.77
616.516	43.77
616.638	39.77
616.76	20.77
616.883	17.77
617.005	-1.23
617.127	11.77
617.249	14.77
617.371	8.77
617.493	5.77
617.615	17.77
617.738	30.77
617.86	9.77
617.982	5.77
618.104	4.77
618.226	-7.23
618.348	-5.23
618.471	31.77
618.593	17.77
618.715	-7.23
618.837	1.77
618.959	19.77
619.081	21.77
619.203	4.77
619.326	11.77
619.448	9.77
619.57	16.77
619.692	9.77
619.814	18.77
619.936	22.77
620.058	19.77
620.181	14.77
620.303	6.77
620.425	8.77
620.547	14.77
620.669	13.77
620.791	14.77
620.913	-0.23
621.036	14.77
621.158	21.77
621.28	-2.23
621.402	-6.23
621.524	15.77
621.646	21.77
621.768	6.77
621.891	-6.23
622.013	3.77
622.135	6.77
622.257	-9.23
622.379	2.77
622.501	18.77
622.623	8.77
622.745	1.77
622.868	4.77
622.99	11.77
623.112	7.77
623.234	1.77
623.356	-3.23
623.478	-3.23
623.6	8.77
623.722	11.77
623.845	14.77
623.967	16.77
624.089	19.77
624.211	0.77
624.333	14.77
624.455	26.77
624.577	14.77
624.699	29.77
624.822	17.77
624.944	-7.23
625.066	8.77
625.188	9.77
625.31	20.77
625.432	33.77
625.554	3.77
625.676	33.77
625.799	23.77
625.921	11.77
626.043	11.77
626.165	6.77
626.287	-8.23
626.409	18.77
626.531	6.77
626.653	21.77
626.775	4.77
626.898	14.77
627.02	-0.23
627.142	19.77
627.264	13.77
627.386	2.77
627.508	21.77
627.63	-8.23
627.752	15.77
627.874	17.77
627.997	17.77
628.119	29.77
628.241	40.77
628.363	20.77
628.485	21.77
628.607	20.77
628.729	-5.23
628.851	-3.23
628.973	5.77
629.096	1.77
629.218	-8.23
629.34	17.77
629.462	2.77
629.584	16.77
629.706	14.77
629.828	46.77
629.95	18.77
630.072	-1.23
630.195	18.77
630.317	9.77
630.439	6.77
630.561	8.77
630.683	6.77
630.805	18.77
630.927	15.77
631.049	9.77
631.171	-1.23
631.293	-7.23
631.416	14.77
631.538	6.77
631.66	15.77
631.782	15.77
631.904	16.77
632.026	-2.23
632.148	8.77
632.27	7.77
632.392	23.77
632.514	17.77
632.637	21.77
632.759	9.77
632.881	4.77
633.003	-7.23
633.125	-12.23
633.247	7.77
633.369	9.77
633.491	21.77
633.613	24.77
633.735	-19.23
633.858	14.77
633.98	15.77
634.102	3.77
634.224	22.77
634.346	23.77
634.468	7.77
634.59	9.77
634.712	21.77
634.834	5.77
634.956	0.77
635.078	-0.23
635.201	-8.23
635.323	8.77
635.445	-0.23
635.567	5.77
635.689	14.77
635.811	-9.23
635.933	8.77
636.055	10.77
636.177	3.77
636.299	27.77
636.421	10.77
636.544	4.77
636.666	-0.23
636.788	16.77
636.91	24.77
637.032	7.77
637.154	13.77
637.276	30.77
637.398	32.77
637.52	29.77
637.642	23.77
637.764	18.77
637.887	3.77
638.009	16.77
638.131	10.77
638.253	-3.23
638.375	11.77
638.497	28.77
638.619	5.77
638.741	20.77
638.863	-7.23
638.985	1.77
639.107	4.77
639.23	-0.23
639.352	20.77
639.474	10.77
639.596	1.77
639.718	2.77
639.84	8.77
639.962	6.77
640.084	30.77
640.206	27.77
640.328	3.77
640.45	8.77
640.573	16.77
640.695	-3.23
640.817	8.77
640.939	23.77
641.061	6.77
641.183	5.77
641.305	17.77
641.427	1.77
641.549	9.77
641.671	6.77
641.793	-3.23
641.915	27.77
642.038	17.77
642.16	25.77
642.282	7.77
642.404	6.77
642.526	3.77
642.648	18.77
642.77	14.77
642.892	-8.23
643.014	8.77
643.136	17.77
643.258	10.77
643.381	29.77
643.503	29.77
643.625	6.77
643.747	-9.23
643.869	4.77
643.991	25.77
644.113	14.77
644.235	13.77
644.357	15.77
644.479	17.77
644.601	7.77
644.723	2.77
644.846	10.77
644.968	3.77
645.09	-5.23
645.212	5.77
645.334	20.77
645.456	16.77
645.578	5.77
645.7	17.77
645.822	8.77
645.944	7.77
646.066	17.77
646.188	4.77
646.311	27.77
646.433	13.77
646.555	58.77
646.677	47.77
646.799	29.77
646.921	17.77
647.043	31.77
647.165	3.77
647.287	7.77
647.409	3.77
647.531	33.77
647.654	-12.23
647.776	28.77
647.898	17.77
648.02	17.77
648.142	6.77
648.264	-10.23
648.386	-4.23
648.508	1.77
648.63	2.77
648.752	22.77
648.874	11.77
648.997	13.77
649.119	23.77
649.241	10.77
649.363	27.77
649.485	21.77
649.607	0.77
649.729	19.77
649.851	18.77
649.973	5.77
650.095	29.77
650.217	12.77
650.34	18.77
650.462	3.77
650.584	11.77
650.706	28.77
650.828	16.77
650.95	-0.23
651.072	3.77
651.194	-13.23
651.316	3.77
651.438	10.77
651.56	-5.23
651.683	-9.23
651.805	5.77
651.927	11.77
652.049	-1.23
652.171	3.77
652.293	-12.23
652.415	-7.23
652.537	9.77
652.659	3.77
652.781	20.77
652.903	10.77
653.026	31.77
653.148	3.77
653.27	13.77
653.392	21.77
653.514	-6.23
653.636	2.77
653.758	-1.23
653.88	11.77
654.002	10.77
654.124	13.77
654.247	7.77
654.369	18.77
654.491	16.77
654.613	17.77
654.735	2.77
654.857	13.77
654.979	5.77
655.101	15.77
655.223	41.77
655.345	12.77
655.468	30.77
655.59	21.77
655.712	23.77
655.834	40.77
655.956	40.77
656.078	42.77
656.2	50.77
656.322	24.77
656.444	20.77
656.566	50.77
656.689	49.77
656.811	42.77
656.933	87.77
657.055	109.77
657.177	174.77
657.299	234.77
657.421	496.77
657.543	1853.77
657.665	12572.77
657.787	15171.77
657.91	15287.77
658.032	15664.77
658.154	4604.77
658.276	3556.77
658.398	1182.77
658.52	1037.77
658.642	482.77
658.764	595.77
658.886	270.77
659.009	414.77
659.131	223.77
659.253	334.77
659.375	157.77
659.497	282.77
659.619	155.77
659.741	213.77
659.863	88.77
659.985	162.77
660.108	118.77
660.23	144.77
660.352	78.77
660.474	145.77
660.596	65.77
660.718	121.77
660.84	66.77
660.962	116.77
661.084	41.77
661.207	97.77
661.329	66.77
661.451	90.77
661.573	47.77
661.695	115.77
661.817	59.77
661.939	111.77
662.061	68.77
662.184	73.77
662.306	38.77
662.428	70.77
662.55	45.77
662.672	81.77
662.794	41.77
662.916	78.77
663.038	23.77
663.161	77.77
663.283	43.77
663.405	76.77
663.527	22.77
663.649	68.77
663.771	19.77
663.893	59.77
664.015	30.77
664.138	69.77
664.26	29.77
664.382	55.77
664.504	27.77
664.626	22.77
664.748	18.77
664.87	43.77
664.992	42.77
665.115	55.77
665.237	23.77
665.359	31.77
665.481	41.77
665.603	38.77
665.725	36.77
665.847	35.77
665.97	28.77
666.092	49.77
666.214	27.77
666.336	28.77
666.458	47.77
666.58	48.77
666.702	-6.23
666.825	33.77
666.947	1.77
667.069	41.77
667.191	13.77
667.313	45.77
667.435	5.77
667.557	18.77
667.68	-2.23
667.802	29.77
667.924	8.77
668.046	42.77
668.168	28.77
668.29	62.77
668.412	15.77
668.535	31.77
668.657	31.77
668.779	18.77
668.901	14.77
669.023	46.77
669.145	21.77
669.267	49.77
669.39	30.77
669.512	31.77
669.634	20.77
669.756	28.77
669.878	11.77
670	14.77
670.123	20.77
670.245	35.77
670.367	19.77
670.489	43.77
670.611	9.77
670.733	13.77
670.856	10.77
670.978	26.77
671.1	30.77
671.222	31.77
671.344	7.77
671.466	17.77
671.589	5.77
671.711	18.77
671.833	5.77
671.955	26.77
672.077	13.77
672.199	39.77
672.322	28.77
672.444	14.77
672.566	30.77
672.688	22.77
672.81	14.77
672.932	26.77
673.055	-6.23
673.177	13.77
673.299	27.77
673.421	16.77
673.543	17.77
673.665	28.77
673.788	3.77
673.91	23.77
674.032	-4.23
674.154	35.77
674.276	16.77
674.399	11.77
674.521	11.77
674.643	24.77
674.765	4.77
674.887	37.77
675.009	3.77
675.132	7.77
675.254	14.77
675.376	23.77
675.498	22.77
675.62	61.77
675.743	12.77
675.865	31.77
675.987	-1.23
676.109	27.77
676.231	10.77
676.354	37.77
676.476	9.77
676.598	17.77
676.72	14.77
676.842	31.77
676.965	17.77
677.087	15.77
677.209	20.77
677.331	33.77
677.453	19.77
677.576	12.77
677.698	17.77
677.82	18.77
677.942	12.77
678.064	16.77
678.187	22.77
678.309	17.77
678.431	3.77
678.553	15.77
678.675	31.77
678.798	31.77
678.92	23.77
679.042	12.77
679.164	-5.23
679.286	26.77
679.409	16.77
679.531	5.77
679.653	-3.23
679.775	19.77
679.898	8.77
680.02	14.77
680.142	5.77
680.264	11.77
680.386	1.77
680.509	25.77
680.631	14.77
680.753	25.77
680.875	-3.23
680.998	30.77
681.12	12.77
681.242	16.77
681.364	-0.23
681.486	21.77
681.609	-2.23
681.731	4.77
681.853	-1.23
681.975	21.77
682.098	26.77
682.22	32.77
682.342	7.77
682.464	25.77
682.587	17.77
682.709	13.77
682.831	14.77
682.953	6.77
683.076	5.77
683.198	31.77
683.32	3.77
683.442	15.77
683.565	16.77
683.687	11.77
683.809	2.77
683.931	7.77
684.054	19.77
684.176	18.77
684.298	1.77
684.42	17.77
684.543	11.77
684.665	8.77
684.787	-14.23
684.909	-3.23
685.032	25.77
685.154	5.77
685.276	10.77
685.398	21.77
685.521	3.77
685.643	19.77
685.765	25.77
685.887	33.77
686.01	23.77
686.132	18.77
686.254	2.77
686.377	23.77
686.499	29.77
686.621	33.77
686.743	9.77
686.866	18.77
686.988	27.77
687.11	18.77
687.232	11.77
687.355	-4.23
687.477	6.77
687.599	23.77
687.722	1.77
687.844	33.77
687.966	21.77
688.088	17.77
688.211	33.77
688.333	33.77
688.455	10.77
688.578	35.77
688.7	26.77
688.822	9.77
688.944	-9.23
689.067	51.77
689.189	5.77
689.311	-7.23
689.434	-6.23
689.556	9.77
689.678	17.77
689.801	8.77
689.923	17.77
690.045	31.77
690.167	22.77
690.29	27.77
690.412	8.77
690.534	23.77
690.657	8.77
690.779	10.77
690.901	23.77
691.024	16.77
691.146	4.77
691.268	-1.23
691.391	18.77
691.513	26.77
691.635	31.77
691.758	26.77
691.88	19.77
692.002	23.77
692.125	11.77
692.247	17.77
692.369	3.77
692.492	12.77
692.614	7.77
692.736	15.77
692.859	24.77
692.981	6.77
693.103	1.77
693.226	13.77
693.348	23.77
693.47	7.77
693.593	15.77
693.715	-13.23
693.837	-12.23
693.96	1.77
694.082	-1.23
694.204	12.77
694.327	1.77
694.449	-0.23
694.571	-7.23
694.694	13.77
694.816	20.77
694.938	13.77
695.061	-2.23
695.183	16.77
695.305	5.77
695.428	42.77
695.55	10.77
695.672	-8.23
695.795	9.77
695.917	18.77
696.04	-0.23
696.162	7.77
696.284	8.77
696.407	11.77
696.529	8.77
696.651	24.77
696.774	5.77
696.896	15.77
697.019	5.77
697.141	26.77
697.263	5.77
697.386	8.77
697.508	8.77
697.63	22.77
697.753	2.77
697.875	10.77
697.998	0.77
698.12	19.77
698.242	9.77
698.365	14.77
698.487	10.77
698.61	7.77
698.732	8.77
698.854	25.77
698.977	10.77
699.099	21.77
699.221	18.77
699.344	12.77
699.466	7.77
699.589	26.77
699.711	-4.23
699.834	8.77
699.956	17.77
700.078	6.77
700.201	-12.23
700.323	14.77
700.446	10.77
700.568	6.77
700.69	19.77
700.813	8.77
700.935	-20.23
701.058	5.77
701.18	18.77
701.302	6.77
701.425	3.77
701.547	17.77
701.67	13.77
701.792	26.77
701.915	5.77
702.037	13.77
702.159	19.77
702.282	30.77
702.404	-6.23
702.527	5.77
702.649	19.77
702.772	29.77
702.894	15.77
703.017	38.77
703.139	20.77
703.261	15.77
703.384	21.77
703.506	6.77
703.629	16.77
703.751	19.77
703.874	20.77
703.996	9.77
704.119	3.77
704.241	19.77
704.364	-6.23
704.486	15.77
704.608	11.77
704.731	10.77
704.853	14.77
704.976	18.77
705.098	23.77
705.221	10.77
705.343	7.77
705.466	21.77
705.588	25.77
705.711	-0.23
705.833	8.77
705.956	9.77
706.078	12.77
706.201	19.77
706.323	17.77
706.446	-1.23
