Data from LowRes_H2_15_26_11_07_2024_HR4C61881__75__15-28-21-136.txt Node

Date: Thu Nov 07 15:28:21 EST 2024
User: crc00042
Spectrometer: HR4C6188
Trigger mode: 4
Integration Time (sec): 1.000000E-1
Scans to average: 1
Electric dark correction enabled: true
Nonlinearity correction enabled: false
Boxcar width: 0
XAxis mode: Wavelengths
Number of Pixels in Spectrum: 3648
>>>>>Begin Spectral Data<<<<<
245.66	-123.77
245.797	-123.77
245.934	-123.77
246.071	-78.77
246.208	3.23
246.344	18.23
246.481	-14.77
246.618	-0.77
246.755	25.23
246.892	13.23
247.029	-10.77
247.165	-23.77
247.302	9.23
247.439	4.23
247.576	2.23
247.713	-6.77
247.849	2.23
247.986	-17.77
248.123	-9.77
248.26	1.23
248.396	-4.77
248.533	-3.77
248.67	-9.77
248.806	-4.77
248.943	-30.77
249.08	-8.77
249.216	13.23
249.353	-20.77
249.49	1.23
249.626	3.23
249.763	-12.77
249.9	-8.77
250.036	-11.77
250.173	1.23
250.309	4.23
250.446	26.23
250.582	0.23
250.719	-6.77
250.856	-1.77
250.992	0.23
251.129	0.23
251.265	-16.77
251.402	18.23
251.538	2.23
251.675	-14.77
251.811	9.23
251.948	6.23
252.084	3.23
252.221	-6.77
252.357	-5.77
252.493	31.23
252.63	-23.77
252.766	19.23
252.903	8.23
253.039	4.23
253.175	-16.77
253.312	9.23
253.448	-22.77
253.585	-13.77
253.721	14.23
253.857	-6.77
253.994	8.23
254.13	-9.77
254.266	0.23
254.403	-6.77
254.539	-4.77
254.675	25.23
254.811	23.23
254.948	4.23
255.084	-18.77
255.22	-0.77
255.356	-2.77
255.493	21.23
255.629	-10.77
255.765	-0.77
255.901	1.23
256.037	16.23
256.174	16.23
256.31	-0.77
256.446	-9.77
256.582	-12.77
256.718	3.23
256.854	13.23
256.991	10.23
257.127	-5.77
257.263	-3.77
257.399	-3.77
257.535	1.23
257.671	-10.77
257.807	-20.77
257.943	-18.77
258.079	-0.77
258.215	-0.77
258.351	19.23
258.487	16.23
258.623	15.23
258.759	7.23
258.895	7.23
259.031	0.23
259.167	-17.77
259.303	25.23
259.439	-2.77
259.575	-15.77
259.711	-10.77
259.847	-3.77
259.983	15.23
260.119	-6.77
260.255	-5.77
260.391	11.23
260.527	-3.77
260.663	10.23
260.799	6.23
260.934	-4.77
261.07	-6.77
261.206	-18.77
261.342	-16.77
261.478	-0.77
261.614	1.23
261.749	7.23
261.885	-10.77
262.021	-6.77
262.157	0.23
262.293	-7.77
262.428	-16.77
262.564	-5.77
262.7	-14.77
262.836	4.23
262.971	26.23
263.107	19.23
263.243	19.23
263.378	-1.77
263.514	-18.77
263.65	-13.77
263.785	-20.77
263.921	-24.77
264.057	5.23
264.192	10.23
264.328	16.23
264.464	0.23
264.599	11.23
264.735	19.23
264.871	-8.77
265.006	2.23
265.142	2.23
265.277	-6.77
265.413	12.23
265.548	7.23
265.684	9.23
265.819	-0.77
265.955	-2.77
266.091	-19.77
266.226	-20.77
266.362	-20.77
266.497	2.23
266.633	-14.77
266.768	-6.77
266.903	27.23
267.039	6.23
267.174	2.23
267.31	-8.77
267.445	-2.77
267.581	-4.77
267.716	11.23
267.851	-6.77
267.987	0.23
268.122	46.23
268.258	-0.77
268.393	-16.77
268.528	4.23
268.664	-17.77
268.799	-34.77
268.934	4.23
269.07	-6.77
269.205	6.23
269.34	22.23
269.476	-0.77
269.611	-20.77
269.746	0.23
269.881	-9.77
270.017	13.23
270.152	23.23
270.287	25.23
270.422	3.23
270.558	-5.77
270.693	-4.77
270.828	8.23
270.963	-12.77
271.098	-20.77
271.234	6.23
271.369	20.23
271.504	11.23
271.639	3.23
271.774	-1.77
271.909	1.23
272.045	-23.77
272.18	-4.77
272.315	-4.77
272.45	11.23
272.585	-11.77
272.72	-1.77
272.855	-8.77
272.99	19.23
273.125	-3.77
273.26	-13.77
273.395	-5.77
273.53	-14.77
273.665	-1.77
273.8	-0.77
273.935	-1.77
274.07	-5.77
274.205	2.23
274.34	3.23
274.475	-5.77
274.61	17.23
274.745	-11.77
274.88	20.23
275.015	-7.77
275.15	-13.77
275.285	-3.77
275.42	-6.77
275.555	6.23
275.69	-1.77
275.825	3.23
275.959	15.23
276.094	6.23
276.229	-4.77
276.364	-4.77
276.499	-3.77
276.634	1.23
276.768	-6.77
276.903	0.23
277.038	14.23
277.173	4.23
277.308	-1.77
277.442	-9.77
277.577	-13.77
277.712	-13.77
277.847	-6.77
277.981	2.23
278.116	-16.77
278.251	-12.77
278.386	-4.77
278.52	2.23
278.655	-17.77
278.79	3.23
278.924	11.23
279.059	8.23
279.194	-7.77
279.328	29.23
279.463	2.23
279.598	25.23
279.732	10.23
279.867	-0.77
280.001	0.23
280.136	8.23
280.271	10.23
280.405	0.23
280.54	-2.77
280.674	-4.77
280.809	17.23
280.943	7.23
281.078	0.23
281.213	19.23
281.347	23.23
281.482	10.23
281.616	-14.77
281.751	-9.77
281.885	-23.77
282.02	-14.77
282.154	15.23
282.288	-21.77
282.423	-5.77
282.557	-10.77
282.692	-6.77
282.826	-12.77
282.961	6.23
283.095	-13.77
283.229	-19.77
283.364	-32.77
283.498	-3.77
283.633	8.23
283.767	8.23
283.901	2.23
284.036	-0.77
284.17	3.23
284.304	-11.77
284.439	-12.77
284.573	-14.77
284.707	11.23
284.842	3.23
284.976	-48.77
285.11	-23.77
285.244	21.23
285.379	25.23
285.513	-13.77
285.647	9.23
285.781	5.23
285.916	17.23
286.05	3.23
286.184	29.23
286.318	6.23
286.453	6.23
286.587	-23.77
286.721	-3.77
286.855	1.23
286.989	18.23
287.123	-22.77
287.258	-18.77
287.392	5.23
287.526	-4.77
287.66	9.23
287.794	9.23
287.928	6.23
288.062	-2.77
288.196	-6.77
288.33	4.23
288.464	1.23
288.598	14.23
288.733	22.23
288.867	12.23
289.001	4.23
289.135	-3.77
289.269	2.23
289.403	0.23
289.537	-3.77
289.671	8.23
289.805	-1.77
289.939	-1.77
290.073	-13.77
290.207	0.23
290.34	-6.77
290.474	13.23
290.608	-13.77
290.742	8.23
290.876	-12.77
291.01	2.23
291.144	18.23
291.278	19.23
291.412	5.23
291.546	-12.77
291.679	-4.77
291.813	-27.77
291.947	7.23
292.081	-8.77
292.215	7.23
292.349	3.23
292.482	22.23
292.616	-15.77
292.75	2.23
292.884	4.23
293.018	1.23
293.151	-18.77
293.285	9.23
293.419	2.23
293.553	-16.77
293.686	-13.77
293.82	2.23
293.954	32.23
294.088	38.23
294.221	14.23
294.355	0.23
294.489	-6.77
294.622	-22.77
294.756	-13.77
294.89	-3.77
295.023	0.23
295.157	6.23
295.291	15.23
295.424	23.23
295.558	19.23
295.691	-7.77
295.825	16.23
295.959	3.23
296.092	-1.77
296.226	-17.77
296.359	-2.77
296.493	-8.77
296.627	12.23
296.76	-14.77
296.894	-3.77
297.027	6.23
297.161	-4.77
297.294	-24.77
297.428	-4.77
297.561	18.23
297.695	-1.77
297.828	0.23
297.962	-1.77
298.095	-10.77
298.229	-2.77
298.362	-0.77
298.495	-0.77
298.629	-5.77
298.762	-2.77
298.896	1.23
299.029	-9.77
299.162	3.23
299.296	-10.77
299.429	-11.77
299.563	8.23
299.696	5.23
299.829	11.23
299.963	24.23
300.096	11.23
300.229	20.23
300.363	-2.77
300.496	5.23
300.629	-24.77
300.763	-0.77
300.896	19.23
301.029	9.23
301.162	-5.77
301.296	5.23
301.429	9.23
301.562	-22.77
301.695	-2.77
301.829	11.23
301.962	27.23
302.095	-7.77
302.228	-18.77
302.362	12.23
302.495	-6.77
302.628	1.23
302.761	-4.77
302.894	-8.77
303.027	13.23
303.161	1.23
303.294	-11.77
303.427	9.23
303.56	7.23
303.693	11.23
303.826	-8.77
303.959	-17.77
304.092	-0.77
304.225	-20.77
304.359	-5.77
304.492	2.23
304.625	-8.77
304.758	0.23
304.891	-9.77
305.024	-23.77
305.157	-1.77
305.29	-24.77
305.423	-5.77
305.556	-8.77
305.689	8.23
305.822	2.23
305.955	-10.77
306.088	1.23
306.221	1.23
306.354	-7.77
306.487	-3.77
306.62	-13.77
306.752	-8.77
306.885	-2.77
307.018	-11.77
307.151	-11.77
307.284	25.23
307.417	-9.77
307.55	0.23
307.683	-7.77
307.816	20.23
307.948	9.23
308.081	13.23
308.214	19.23
308.347	19.23
308.48	-27.77
308.613	-17.77
308.745	-2.77
308.878	1.23
309.011	1.23
309.144	0.23
309.277	-0.77
309.409	10.23
309.542	-5.77
309.675	-9.77
309.808	8.23
309.94	18.23
310.073	-5.77
310.206	-12.77
310.339	11.23
310.471	-15.77
310.604	26.23
310.737	-0.77
310.869	-12.77
311.002	-0.77
311.135	6.23
311.267	-30.77
311.4	1.23
311.533	19.23
311.665	-1.77
311.798	-7.77
311.93	-4.77
312.063	10.23
312.196	9.23
312.328	4.23
312.461	-5.77
312.593	0.23
312.726	5.23
312.859	0.23
312.991	8.23
313.124	-31.77
313.256	2.23
313.389	1.23
313.521	7.23
313.654	6.23
313.786	-13.77
313.919	3.23
314.051	-2.77
314.184	5.23
314.316	5.23
314.449	-14.77
314.581	-18.77
314.714	0.23
314.846	12.23
314.978	-0.77
315.111	-2.77
315.243	9.23
315.376	2.23
315.508	4.23
315.641	4.23
315.773	17.23
315.905	-0.77
316.038	1.23
316.17	-4.77
316.302	8.23
316.435	8.23
316.567	10.23
316.699	16.23
316.832	-2.77
316.964	-4.77
317.096	-13.77
317.229	2.23
317.361	-33.77
317.493	-6.77
317.625	-10.77
317.758	4.23
317.89	0.23
318.022	0.23
318.155	6.23
318.287	-11.77
318.419	0.23
318.551	5.23
318.683	-2.77
318.816	-29.77
318.948	-0.77
319.08	-12.77
319.212	0.23
319.344	9.23
319.477	-13.77
319.609	-3.77
319.741	14.23
319.873	5.23
320.005	-8.77
320.137	-2.77
320.269	7.23
320.401	0.23
320.534	1.23
320.666	-28.77
320.798	-33.77
320.93	14.23
321.062	-10.77
321.194	-14.77
321.326	-20.77
321.458	-0.77
321.59	-13.77
321.722	-20.77
321.854	-20.77
321.986	-10.77
322.118	-0.77
322.25	-9.77
322.382	7.23
322.514	-6.77
322.646	-11.77
322.778	11.23
322.91	6.23
323.042	-2.77
323.174	-17.77
323.306	-5.77
323.438	-0.77
323.57	-5.77
323.702	5.23
323.834	16.23
323.966	-27.77
324.097	-14.77
324.229	12.23
324.361	20.23
324.493	13.23
324.625	9.23
324.757	7.23
324.889	-9.77
325.021	-3.77
325.152	-0.77
325.284	20.23
325.416	4.23
325.548	26.23
325.68	3.23
325.811	25.23
325.943	-1.77
326.075	-4.77
326.207	14.23
326.339	11.23
326.47	-8.77
326.602	4.23
326.734	6.23
326.866	25.23
326.997	-28.77
327.129	-10.77
327.261	-25.77
327.392	-0.77
327.524	-13.77
327.656	-13.77
327.787	13.23
327.919	6.23
328.051	4.23
328.182	20.23
328.314	9.23
328.446	13.23
328.577	-0.77
328.709	-7.77
328.841	-27.77
328.972	3.23
329.104	-6.77
329.235	5.23
329.367	4.23
329.499	5.23
329.63	-3.77
329.762	5.23
329.893	13.23
330.025	-14.77
330.156	-14.77
330.288	12.23
330.419	11.23
330.551	3.23
330.683	-1.77
330.814	-5.77
330.946	5.23
331.077	-0.77
331.208	-0.77
331.34	-24.77
331.471	-15.77
331.603	-9.77
331.734	-13.77
331.866	6.23
331.997	-7.77
332.129	-1.77
332.26	-4.77
332.392	5.23
332.523	10.23
332.654	-4.77
332.786	-5.77
332.917	0.23
333.048	14.23
333.18	16.23
333.311	-5.77
333.443	0.23
333.574	-16.77
333.705	14.23
333.837	-15.77
333.968	0.23
334.099	16.23
334.231	28.23
334.362	-5.77
334.493	11.23
334.624	-2.77
334.756	-1.77
334.887	-3.77
335.018	-1.77
335.15	-1.77
335.281	-17.77
335.412	-1.77
335.543	7.23
335.675	10.23
335.806	5.23
335.937	10.23
336.068	10.23
336.199	34.23
336.331	0.23
336.462	3.23
336.593	7.23
336.724	-4.77
336.855	-3.77
336.986	6.23
337.118	2.23
337.249	-0.77
337.38	-6.77
337.511	-16.77
337.642	-6.77
337.773	-12.77
337.904	-3.77
338.035	5.23
338.166	-6.77
338.298	-12.77
338.429	-1.77
338.56	7.23
338.691	28.23
338.822	4.23
338.953	11.23
339.084	22.23
339.215	27.23
339.346	-4.77
339.477	10.23
339.608	21.23
339.739	-2.77
339.87	-9.77
340.001	-9.77
340.132	9.23
340.263	-0.77
340.394	14.23
340.525	3.23
340.656	-21.77
340.787	-13.77
340.918	26.23
341.049	5.23
341.179	7.23
341.31	5.23
341.441	-4.77
341.572	8.23
341.703	-12.77
341.834	-28.77
341.965	-10.77
342.096	0.23
342.227	12.23
342.357	3.23
342.488	-9.77
342.619	5.23
342.75	5.23
342.881	-15.77
343.012	2.23
343.142	6.23
343.273	-15.77
343.404	-0.77
343.535	17.23
343.666	20.23
343.796	3.23
343.927	14.23
344.058	4.23
344.189	9.23
344.319	8.23
344.45	-11.77
344.581	5.23
344.712	-1.77
344.842	-12.77
344.973	-5.77
345.104	-3.77
345.234	1.23
345.365	0.23
345.496	-22.77
345.626	-1.77
345.757	7.23
345.888	1.23
346.018	-0.77
346.149	-3.77
346.28	21.23
346.41	-4.77
346.541	8.23
346.672	-13.77
346.802	12.23
346.933	11.23
347.063	21.23
347.194	13.23
347.325	-0.77
347.455	4.23
347.586	-10.77
347.716	-12.77
347.847	14.23
347.977	1.23
348.108	14.23
348.238	2.23
348.369	5.23
348.499	9.23
348.63	-13.77
348.76	9.23
348.891	5.23
349.021	-8.77
349.152	-7.77
349.282	-6.77
349.413	4.23
349.543	23.23
349.674	-19.77
349.804	4.23
349.935	-5.77
350.065	-3.77
350.196	1.23
350.326	-6.77
350.456	-25.77
350.587	14.23
350.717	3.23
350.848	9.23
350.978	25.23
351.108	-2.77
351.239	-5.77
351.369	-3.77
351.499	10.23
351.63	16.23
351.76	-0.77
351.89	-2.77
352.021	16.23
352.151	-4.77
352.281	10.23
352.412	37.23
352.542	-7.77
352.672	-13.77
352.803	-3.77
352.933	10.23
353.063	-9.77
353.193	-12.77
353.324	-10.77
353.454	3.23
353.584	25.23
353.714	8.23
353.845	10.23
353.975	-13.77
354.105	-9.77
354.235	-4.77
354.365	-11.77
354.496	-20.77
354.626	9.23
354.756	-14.77
354.886	-4.77
355.016	10.23
355.146	-4.77
355.277	-13.77
355.407	-8.77
355.537	8.23
355.667	5.23
355.797	7.23
355.927	-8.77
356.057	17.23
356.187	-9.77
356.318	-10.77
356.448	3.23
356.578	13.23
356.708	28.23
356.838	3.23
356.968	1.23
357.098	8.23
357.228	3.23
357.358	7.23
357.488	-0.77
357.618	16.23
357.748	17.23
357.878	1.23
358.008	3.23
358.138	-7.77
358.268	-3.77
358.398	6.23
358.528	-2.77
358.658	11.23
358.788	-1.77
358.918	18.23
359.048	-1.77
359.178	19.23
359.308	-1.77
359.438	14.23
359.568	11.23
359.698	11.23
359.827	8.23
359.957	-1.77
360.087	3.23
360.217	-2.77
360.347	24.23
360.477	17.23
360.607	-14.77
360.737	11.23
360.866	-17.77
360.996	-11.77
361.126	7.23
361.256	15.23
361.386	8.23
361.516	18.23
361.645	-8.77
361.775	17.23
361.905	-1.77
362.035	3.23
362.165	-1.77
362.294	6.23
362.424	17.23
362.554	4.23
362.684	-2.77
362.813	-9.77
362.943	9.23
363.073	-10.77
363.203	12.23
363.332	7.23
363.462	-10.77
363.592	3.23
363.721	-9.77
363.851	4.23
363.981	43.23
364.111	-5.77
364.24	-33.77
364.37	9.23
364.5	28.23
364.629	-4.77
364.759	-12.77
364.888	-9.77
365.018	-6.77
365.148	15.23
365.277	4.23
365.407	18.23
365.537	8.23
365.666	-0.77
365.796	-12.77
365.925	-12.77
366.055	11.23
366.184	-11.77
366.314	8.23
366.444	22.23
366.573	3.23
366.703	-2.77
366.832	11.23
366.962	9.23
367.091	26.23
367.221	10.23
367.35	-8.77
367.48	23.23
367.609	1.23
367.739	15.23
367.868	1.23
367.998	3.23
368.127	21.23
368.257	8.23
368.386	21.23
368.516	25.23
368.645	11.23
368.775	8.23
368.904	7.23
369.033	2.23
369.163	6.23
369.292	23.23
369.422	20.23
369.551	7.23
369.68	10.23
369.81	12.23
369.939	18.23
370.069	7.23
370.198	0.23
370.327	-3.77
370.457	4.23
370.586	17.23
370.715	-10.77
370.845	0.23
370.974	12.23
371.103	9.23
371.233	21.23
371.362	12.23
371.491	-4.77
371.621	21.23
371.75	12.23
371.879	-12.77
372.008	2.23
372.138	-0.77
372.267	4.23
372.396	16.23
372.525	5.23
372.655	-0.77
372.784	-21.77
372.913	2.23
373.042	4.23
373.172	17.23
373.301	-6.77
373.43	-13.77
373.559	-0.77
373.688	12.23
373.818	24.23
373.947	6.23
374.076	0.23
374.205	3.23
374.334	-7.77
374.463	-5.77
374.593	10.23
374.722	21.23
374.851	-1.77
374.98	-11.77
375.109	15.23
375.238	4.23
375.367	35.23
375.496	-19.77
375.625	4.23
375.755	16.23
375.884	28.23
376.013	30.23
376.142	-11.77
376.271	-16.77
376.4	-5.77
376.529	18.23
376.658	4.23
376.787	9.23
376.916	13.23
377.045	-0.77
377.174	14.23
377.303	6.23
377.432	22.23
377.561	22.23
377.69	7.23
377.819	18.23
377.948	-5.77
378.077	-15.77
378.206	-7.77
378.335	8.23
378.464	5.23
378.593	34.23
378.722	28.23
378.851	13.23
378.98	21.23
379.108	-18.77
379.237	-17.77
379.366	1.23
379.495	14.23
379.624	3.23
379.753	-1.77
379.882	6.23
380.011	-8.77
380.14	-6.77
380.268	-1.77
380.397	-1.77
380.526	18.23
380.655	-1.77
380.784	-18.77
380.913	-12.77
381.041	10.23
381.17	-8.77
381.299	5.23
381.428	6.23
381.557	7.23
381.685	9.23
381.814	17.23
381.943	-13.77
382.072	-16.77
382.2	-14.77
382.329	1.23
382.458	-1.77
382.587	27.23
382.715	38.23
382.844	2.23
382.973	15.23
383.102	14.23
383.23	10.23
383.359	-1.77
383.488	13.23
383.616	-6.77
383.745	-4.77
383.874	-4.77
384.003	-1.77
384.131	8.23
384.26	-8.77
384.389	20.23
384.517	-12.77
384.646	4.23
384.774	-12.77
384.903	35.23
385.032	5.23
385.16	1.23
385.289	-17.77
385.418	8.23
385.546	-12.77
385.675	19.23
385.803	7.23
385.932	11.23
386.06	0.23
386.189	-8.77
386.318	29.23
386.446	9.23
386.575	19.23
386.703	14.23
386.832	11.23
386.96	4.23
387.089	7.23
387.217	-2.77
387.346	-0.77
387.474	1.23
387.603	-11.77
387.731	0.23
387.86	1.23
387.988	7.23
388.117	4.23
388.245	5.23
388.374	-8.77
388.502	3.23
388.631	-1.77
388.759	8.23
388.888	5.23
389.016	-6.77
389.144	0.23
389.273	-1.77
389.401	-19.77
389.53	-8.77
389.658	8.23
389.786	-0.77
389.915	-18.77
390.043	0.23
390.172	6.23
390.3	24.23
390.428	18.23
390.557	-7.77
390.685	1.23
390.813	7.23
390.942	6.23
391.07	6.23
391.198	-4.77
391.327	2.23
391.455	-3.77
391.583	25.23
391.712	20.23
391.84	13.23
391.968	-2.77
392.096	12.23
392.225	11.23
392.353	7.23
392.481	12.23
392.609	25.23
392.738	25.23
392.866	20.23
392.994	-3.77
393.122	23.23
393.251	-2.77
393.379	-4.77
393.507	-14.77
393.635	17.23
393.764	12.23
393.892	36.23
394.02	3.23
394.148	0.23
394.276	21.23
394.404	30.23
394.533	-1.77
394.661	13.23
394.789	-4.77
394.917	13.23
395.045	-8.77
395.173	-2.77
395.302	7.23
395.43	3.23
395.558	9.23
395.686	9.23
395.814	1.23
395.942	-6.77
396.07	15.23
396.198	11.23
396.326	20.23
396.454	3.23
396.582	11.23
396.711	-11.77
396.839	3.23
396.967	7.23
397.095	1.23
397.223	25.23
397.351	26.23
397.479	11.23
397.607	-0.77
397.735	8.23
397.863	29.23
397.991	11.23
398.119	-4.77
398.247	-1.77
398.375	2.23
398.503	-7.77
398.631	2.23
398.759	13.23
398.887	5.23
399.015	8.23
399.143	-5.77
399.271	17.23
399.399	8.23
399.526	8.23
399.654	9.23
399.782	-5.77
399.91	2.23
400.038	23.23
400.166	1.23
400.294	-8.77
400.422	-2.77
400.55	-0.77
400.678	6.23
400.805	-3.77
400.933	14.23
401.061	24.23
401.189	15.23
401.317	26.23
401.445	20.23
401.573	20.23
401.7	4.23
401.828	-8.77
401.956	1.23
402.084	12.23
402.212	15.23
402.34	15.23
402.467	4.23
402.595	5.23
402.723	9.23
402.851	31.23
402.978	15.23
403.106	27.23
403.234	-5.77
403.362	32.23
403.489	30.23
403.617	22.23
403.745	5.23
403.873	3.23
404	20.23
404.128	30.23
404.256	22.23
404.384	29.23
404.511	12.23
404.639	-1.77
404.767	-9.77
404.894	23.23
405.022	13.23
405.15	11.23
405.277	-5.77
405.405	10.23
405.533	13.23
405.66	-8.77
405.788	-9.77
405.916	-2.77
406.043	-13.77
406.171	-13.77
406.299	6.23
406.426	6.23
406.554	0.23
406.681	17.23
406.809	-12.77
406.937	6.23
407.064	3.23
407.192	21.23
407.319	5.23
407.447	5.23
407.574	17.23
407.702	18.23
407.83	-21.77
407.957	-10.77
408.085	-14.77
408.212	-6.77
408.34	5.23
408.467	1.23
408.595	22.23
408.722	25.23
408.85	16.23
408.977	9.23
409.105	-4.77
409.232	-8.77
409.36	4.23
409.487	4.23
409.615	15.23
409.742	28.23
409.87	22.23
409.997	19.23
410.125	36.23
410.252	41.23
410.379	57.23
410.507	29.23
410.634	19.23
410.762	4.23
410.889	29.23
411.017	16.23
411.144	16.23
411.271	-11.77
411.399	-3.77
411.526	15.23
411.653	12.23
411.781	41.23
411.908	5.23
412.036	-4.77
412.163	17.23
412.29	12.23
412.418	10.23
412.545	18.23
412.672	7.23
412.8	41.23
412.927	18.23
413.054	16.23
413.182	20.23
413.309	12.23
413.436	-4.77
413.564	24.23
413.691	4.23
413.818	10.23
413.945	-21.77
414.073	-11.77
414.2	11.23
414.327	9.23
414.454	17.23
414.582	17.23
414.709	-18.77
414.836	-5.77
414.963	-0.77
415.091	8.23
415.218	2.23
415.345	15.23
415.472	12.23
415.6	11.23
415.727	11.23
415.854	14.23
415.981	-2.77
416.108	-17.77
416.236	-4.77
416.363	8.23
416.49	4.23
416.617	12.23
416.744	20.23
416.871	23.23
416.998	5.23
417.126	-3.77
417.253	1.23
417.38	10.23
417.507	-1.77
417.634	-2.77
417.761	20.23
417.888	10.23
418.015	-0.77
418.143	16.23
418.27	32.23
418.397	9.23
418.524	-5.77
418.651	-2.77
418.778	13.23
418.905	21.23
419.032	23.23
419.159	-0.77
419.286	26.23
419.413	9.23
419.54	20.23
419.667	0.23
419.794	-15.77
419.921	7.23
420.048	9.23
420.175	2.23
420.302	-2.77
420.429	9.23
420.556	14.23
420.683	4.23
420.81	-9.77
420.937	14.23
421.064	18.23
421.191	6.23
421.318	3.23
421.445	24.23
421.572	14.23
421.699	25.23
421.826	19.23
421.953	-1.77
422.08	10.23
422.207	-7.77
422.334	-2.77
422.461	12.23
422.588	-11.77
422.714	13.23
422.841	36.23
422.968	5.23
423.095	21.23
423.222	0.23
423.349	20.23
423.476	16.23
423.603	-3.77
423.729	-0.77
423.856	8.23
423.983	15.23
424.11	-24.77
424.237	-5.77
424.364	13.23
424.491	8.23
424.617	-4.77
424.744	-14.77
424.871	-8.77
424.998	-13.77
425.125	-9.77
425.251	-4.77
425.378	-18.77
425.505	-8.77
425.632	-1.77
425.758	9.23
425.885	11.23
426.012	7.23
426.139	15.23
426.266	7.23
426.392	12.23
426.519	18.23
426.646	3.23
426.772	26.23
426.899	2.23
427.026	1.23
427.153	-1.77
427.279	15.23
427.406	-1.77
427.533	-3.77
427.659	15.23
427.786	2.23
427.913	13.23
428.039	1.23
428.166	-9.77
428.293	2.23
428.419	18.23
428.546	10.23
428.673	-12.77
428.799	13.23
428.926	7.23
429.053	19.23
429.179	7.23
429.306	9.23
429.433	-6.77
429.559	18.23
429.686	2.23
429.812	6.23
429.939	3.23
430.066	-0.77
430.192	3.23
430.319	4.23
430.445	1.23
430.572	0.23
430.699	-2.77
430.825	-6.77
430.952	10.23
431.078	15.23
431.205	5.23
431.331	-1.77
431.458	12.23
431.584	4.23
431.711	2.23
431.837	22.23
431.964	8.23
432.09	15.23
432.217	-20.77
432.343	-7.77
432.47	15.23
432.596	4.23
432.723	4.23
432.849	5.23
432.976	-9.77
433.102	6.23
433.229	3.23
433.355	45.23
433.482	62.23
433.608	138.23
433.735	133.23
433.861	139.23
433.987	156.23
434.114	252.23
434.24	202.23
434.367	70.23
434.493	17.23
434.62	27.23
434.746	11.23
434.872	12.23
434.999	13.23
435.125	-15.77
435.252	0.23
435.378	-6.77
435.504	16.23
435.631	29.23
435.757	3.23
435.883	1.23
436.01	18.23
436.136	5.23
436.262	15.23
436.389	-10.77
436.515	2.23
436.641	-6.77
436.768	-5.77
436.894	21.23
437.02	17.23
437.147	11.23
437.273	12.23
437.399	13.23
437.526	13.23
437.652	8.23
437.778	12.23
437.904	-1.77
438.031	12.23
438.157	6.23
438.283	23.23
438.409	-2.77
438.536	2.23
438.662	24.23
438.788	8.23
438.914	11.23
439.041	35.23
439.167	33.23
439.293	1.23
439.419	2.23
439.546	16.23
439.672	9.23
439.798	13.23
439.924	19.23
440.05	22.23
440.177	21.23
440.303	-2.77
440.429	1.23
440.555	6.23
440.681	16.23
440.807	15.23
440.934	4.23
441.06	3.23
441.186	6.23
441.312	-2.77
441.438	22.23
441.564	11.23
441.69	24.23
441.816	6.23
441.943	21.23
442.069	10.23
442.195	7.23
442.321	3.23
442.447	-2.77
442.573	-1.77
442.699	-22.77
442.825	-16.77
442.951	23.23
443.077	12.23
443.203	30.23
443.33	4.23
443.456	2.23
443.582	2.23
443.708	6.23
443.834	22.23
443.96	17.23
444.086	22.23
444.212	21.23
444.338	14.23
444.464	25.23
444.59	18.23
444.716	-7.77
444.842	4.23
444.968	-8.77
445.094	-6.77
445.22	-0.77
445.346	5.23
445.472	-4.77
445.598	-0.77
445.724	10.23
445.85	1.23
445.976	2.23
446.102	10.23
446.228	11.23
446.354	12.23
446.48	15.23
446.605	9.23
446.731	10.23
446.857	-0.77
446.983	19.23
447.109	-10.77
447.235	-4.77
447.361	16.23
447.487	18.23
447.613	0.23
447.739	7.23
447.865	-7.77
447.99	3.23
448.116	10.23
448.242	-2.77
448.368	5.23
448.494	-9.77
448.62	15.23
448.746	17.23
448.872	5.23
448.997	-5.77
449.123	3.23
449.249	24.23
449.375	23.23
449.501	-5.77
449.627	6.23
449.752	33.23
449.878	3.23
450.004	-9.77
450.13	-8.77
450.256	-4.77
450.381	13.23
450.507	7.23
450.633	4.23
450.759	12.23
450.884	25.23
451.01	26.23
451.136	-6.77
451.262	23.23
451.388	2.23
451.513	-0.77
451.639	9.23
451.765	4.23
451.89	10.23
452.016	-2.77
452.142	11.23
452.268	6.23
452.393	7.23
452.519	-5.77
452.645	11.23
452.771	-2.77
452.896	-10.77
453.022	-7.77
453.148	17.23
453.273	2.23
453.399	5.23
453.525	4.23
453.65	5.23
453.776	22.23
453.902	4.23
454.027	28.23
454.153	21.23
454.279	9.23
454.404	-0.77
454.53	20.23
454.656	24.23
454.781	19.23
454.907	1.23
455.032	8.23
455.158	11.23
455.284	28.23
455.409	18.23
455.535	16.23
455.66	13.23
455.786	8.23
455.912	3.23
456.037	11.23
456.163	17.23
456.288	10.23
456.414	-22.77
456.539	-4.77
456.665	25.23
456.791	5.23
456.916	4.23
457.042	11.23
457.167	-0.77
457.293	4.23
457.418	9.23
457.544	6.23
457.669	15.23
457.795	4.23
457.92	-1.77
458.046	18.23
458.171	14.23
458.297	8.23
458.422	-6.77
458.548	8.23
458.673	0.23
458.799	20.23
458.924	-9.77
459.05	34.23
459.175	10.23
459.301	-0.77
459.426	21.23
459.552	11.23
459.677	17.23
459.803	34.23
459.928	21.23
460.053	-11.77
460.179	-1.77
460.304	29.23
460.43	-4.77
460.555	5.23
460.681	-1.77
460.806	15.23
460.931	10.23
461.057	19.23
461.182	0.23
461.308	7.23
461.433	9.23
461.558	-17.77
461.684	12.23
461.809	12.23
461.934	2.23
462.06	-4.77
462.185	-7.77
462.311	-3.77
462.436	11.23
462.561	11.23
462.687	-3.77
462.812	15.23
462.937	-7.77
463.063	-6.77
463.188	-1.77
463.313	5.23
463.439	4.23
463.564	-2.77
463.689	7.23
463.814	15.23
463.94	8.23
464.065	12.23
464.19	16.23
464.316	-1.77
464.441	-0.77
464.566	4.23
464.692	12.23
464.817	6.23
464.942	-8.77
465.067	7.23
465.193	-13.77
465.318	0.23
465.443	-6.77
465.568	7.23
465.694	9.23
465.819	11.23
465.944	9.23
466.069	4.23
466.194	26.23
466.32	15.23
466.445	1.23
466.57	-4.77
466.695	4.23
466.82	15.23
466.946	15.23
467.071	7.23
467.196	-13.77
467.321	18.23
467.446	20.23
467.572	42.23
467.697	15.23
467.822	1.23
467.947	1.23
468.072	-9.77
468.197	15.23
468.323	-2.77
468.448	6.23
468.573	-2.77
468.698	-1.77
468.823	13.23
468.948	6.23
469.073	1.23
469.198	23.23
469.324	15.23
469.449	11.23
469.574	17.23
469.699	18.23
469.824	29.23
469.949	16.23
470.074	15.23
470.199	52.23
470.324	29.23
470.449	30.23
470.574	4.23
470.7	0.23
470.825	29.23
470.95	42.23
471.075	0.23
471.2	14.23
471.325	14.23
471.45	20.23
471.575	19.23
471.7	12.23
471.825	10.23
471.95	7.23
472.075	7.23
472.2	14.23
472.325	8.23
472.45	9.23
472.575	7.23
472.7	7.23
472.825	11.23
472.95	22.23
473.075	18.23
473.2	7.23
473.325	-10.77
473.45	3.23
473.575	-6.77
473.7	11.23
473.825	5.23
473.95	52.23
474.075	28.23
474.2	-13.77
474.325	0.23
474.45	30.23
474.574	17.23
474.699	17.23
474.824	8.23
474.949	-4.77
475.074	-14.77
475.199	7.23
475.324	4.23
475.449	2.23
475.574	2.23
475.699	15.23
475.824	15.23
475.949	21.23
476.073	9.23
476.198	18.23
476.323	-6.77
476.448	-5.77
476.573	23.23
476.698	26.23
476.823	3.23
476.947	17.23
477.072	6.23
477.197	2.23
477.322	5.23
477.447	6.23
477.572	21.23
477.697	-1.77
477.821	11.23
477.946	9.23
478.071	21.23
478.196	21.23
478.321	12.23
478.445	-3.77
478.57	-6.77
478.695	-22.77
478.82	8.23
478.945	10.23
479.069	-12.77
479.194	4.23
479.319	7.23
479.444	19.23
479.569	5.23
479.693	16.23
479.818	-2.77
479.943	14.23
480.068	4.23
480.192	31.23
480.317	25.23
480.442	20.23
480.567	9.23
480.691	0.23
480.816	14.23
480.941	8.23
481.066	11.23
481.19	16.23
481.315	23.23
481.44	7.23
481.564	7.23
481.689	22.23
481.814	29.23
481.938	14.23
482.063	7.23
482.188	27.23
482.313	28.23
482.437	0.23
482.562	10.23
482.687	17.23
482.811	15.23
482.936	33.23
483.061	20.23
483.185	22.23
483.31	27.23
483.435	18.23
483.559	18.23
483.684	13.23
483.808	31.23
483.933	23.23
484.058	7.23
484.182	9.23
484.307	17.23
484.432	19.23
484.556	8.23
484.681	13.23
484.805	24.23
484.93	6.23
485.055	34.23
485.179	66.23
485.304	117.23
485.428	362.23
485.553	1277.23
485.678	1750.23
485.802	1652.23
485.927	1812.23
486.051	2718.23
486.176	1645.23
486.3	448.23
486.425	147.23
486.549	79.23
486.674	65.23
486.799	38.23
486.923	23.23
487.048	17.23
487.172	19.23
487.297	23.23
487.421	35.23
487.546	31.23
487.67	18.23
487.795	-4.77
487.919	26.23
488.044	13.23
488.168	19.23
488.293	17.23
488.417	-2.77
488.542	37.23
488.666	25.23
488.791	26.23
488.915	16.23
489.04	26.23
489.164	13.23
489.289	27.23
489.413	-0.77
489.538	41.23
489.662	36.23
489.786	15.23
489.911	8.23
490.035	7.23
490.16	3.23
490.284	2.23
490.409	-11.77
490.533	3.23
490.658	29.23
490.782	25.23
490.906	3.23
491.031	10.23
491.155	3.23
491.28	35.23
491.404	18.23
491.528	20.23
491.653	12.23
491.777	28.23
491.902	-5.77
492.026	21.23
492.15	19.23
492.275	46.23
492.399	23.23
492.524	8.23
492.648	32.23
492.772	32.23
492.897	32.23
493.021	20.23
493.145	17.23
493.27	6.23
493.394	9.23
493.518	2.23
493.643	-12.77
493.767	26.23
493.891	11.23
494.016	9.23
494.14	22.23
494.264	24.23
494.389	28.23
494.513	10.23
494.637	12.23
494.762	16.23
494.886	-5.77
495.01	-2.77
495.134	16.23
495.259	32.23
495.383	16.23
495.507	10.23
495.632	16.23
495.756	37.23
495.88	23.23
496.004	26.23
496.129	-1.77
496.253	13.23
496.377	16.23
496.501	22.23
496.626	-2.77
496.75	7.23
496.874	16.23
496.998	-1.77
497.123	39.23
497.247	11.23
497.371	1.23
497.495	5.23
497.62	-2.77
497.744	4.23
497.868	-0.77
497.992	4.23
498.116	2.23
498.241	16.23
498.365	-0.77
498.489	9.23
498.613	32.23
498.737	32.23
498.862	6.23
498.986	-12.77
499.11	17.23
499.234	5.23
499.358	7.23
499.482	11.23
499.607	-2.77
499.731	26.23
499.855	22.23
499.979	-2.77
500.103	5.23
500.227	14.23
500.351	20.23
500.476	19.23
500.6	8.23
500.724	26.23
500.848	-6.77
500.972	24.23
501.096	8.23
501.22	21.23
501.344	14.23
501.469	9.23
501.593	23.23
501.717	11.23
501.841	23.23
501.965	-2.77
502.089	6.23
502.213	22.23
502.337	-5.77
502.461	5.23
502.585	7.23
502.709	18.23
502.834	-3.77
502.958	11.23
503.082	18.23
503.206	22.23
503.33	42.23
503.454	23.23
503.578	36.23
503.702	30.23
503.826	17.23
503.95	16.23
504.074	5.23
504.198	4.23
504.322	13.23
504.446	0.23
504.57	9.23
504.694	21.23
504.818	11.23
504.942	33.23
505.066	16.23
505.19	6.23
505.314	16.23
505.438	3.23
505.562	16.23
505.686	4.23
505.81	13.23
505.934	31.23
506.058	12.23
506.182	10.23
506.306	19.23
506.43	-5.77
506.554	12.23
506.678	5.23
506.802	10.23
506.926	10.23
507.05	0.23
507.174	27.23
507.298	-4.77
507.422	14.23
507.546	10.23
507.67	17.23
507.794	0.23
507.918	-5.77
508.042	15.23
508.165	-11.77
508.289	-2.77
508.413	1.23
508.537	21.23
508.661	33.23
508.785	25.23
508.909	24.23
509.033	21.23
509.157	3.23
509.281	14.23
509.405	14.23
509.528	21.23
509.652	22.23
509.776	15.23
509.9	14.23
510.024	19.23
510.148	13.23
510.272	23.23
510.396	20.23
510.519	3.23
510.643	18.23
510.767	23.23
510.891	14.23
511.015	-5.77
511.139	9.23
511.263	19.23
511.386	-5.77
511.51	5.23
511.634	-6.77
511.758	10.23
511.882	7.23
512.006	30.23
512.129	24.23
512.253	42.23
512.377	-1.77
512.501	35.23
512.625	0.23
512.748	6.23
512.872	2.23
512.996	16.23
513.12	9.23
513.244	3.23
513.367	19.23
513.491	26.23
513.615	2.23
513.739	5.23
513.862	8.23
513.986	2.23
514.11	6.23
514.234	3.23
514.358	18.23
514.481	19.23
514.605	4.23
514.729	13.23
514.853	5.23
514.976	-2.77
515.1	-7.77
515.224	16.23
515.348	16.23
515.471	-4.77
515.595	27.23
515.719	-0.77
515.842	27.23
515.966	3.23
516.09	35.23
516.214	8.23
516.337	20.23
516.461	23.23
516.585	22.23
516.708	18.23
516.832	16.23
516.956	-4.77
517.08	12.23
517.203	12.23
517.327	15.23
517.451	15.23
517.574	41.23
517.698	26.23
517.822	10.23
517.945	23.23
518.069	15.23
518.193	41.23
518.316	19.23
518.44	18.23
518.564	-0.77
518.687	17.23
518.811	35.23
518.935	37.23
519.058	24.23
519.182	27.23
519.306	21.23
519.429	22.23
519.553	58.23
519.676	37.23
519.8	10.23
519.924	-0.77
520.047	3.23
520.171	2.23
520.294	12.23
520.418	17.23
520.542	4.23
520.665	28.23
520.789	7.23
520.913	2.23
521.036	-5.77
521.16	-9.77
521.283	-1.77
521.407	6.23
521.53	4.23
521.654	-15.77
521.778	8.23
521.901	-7.77
522.025	1.23
522.148	-0.77
522.272	9.23
522.395	-8.77
522.519	23.23
522.643	19.23
522.766	10.23
522.89	7.23
523.013	11.23
523.137	-6.77
523.26	0.23
523.384	14.23
523.507	17.23
523.631	0.23
523.754	6.23
523.878	-6.77
524.002	25.23
524.125	4.23
524.249	-13.77
524.372	15.23
524.496	7.23
524.619	8.23
524.743	7.23
524.866	-9.77
524.99	16.23
525.113	-15.77
525.237	18.23
525.36	5.23
525.484	14.23
525.607	-8.77
525.731	-10.77
525.854	9.23
525.978	18.23
526.101	3.23
526.224	6.23
526.348	14.23
526.471	9.23
526.595	9.23
526.718	9.23
526.842	10.23
526.965	10.23
527.089	-4.77
527.212	2.23
527.336	-6.77
527.459	9.23
527.582	6.23
527.706	9.23
527.829	9.23
527.953	18.23
528.076	3.23
528.2	5.23
528.323	16.23
528.446	20.23
528.57	22.23
528.693	26.23
528.817	8.23
528.94	11.23
529.064	27.23
529.187	2.23
529.31	5.23
529.434	16.23
529.557	14.23
529.68	-2.77
529.804	8.23
529.927	6.23
530.051	11.23
530.174	-9.77
530.297	7.23
530.421	16.23
530.544	25.23
530.668	15.23
530.791	-0.77
530.914	21.23
531.038	13.23
531.161	-2.77
531.284	4.23
531.408	6.23
531.531	3.23
531.654	2.23
531.778	0.23
531.901	-6.77
532.024	3.23
532.148	17.23
532.271	2.23
532.394	12.23
532.518	26.23
532.641	23.23
532.764	22.23
532.888	23.23
533.011	9.23
533.134	-4.77
533.258	20.23
533.381	-3.77
533.504	13.23
533.628	6.23
533.751	7.23
533.874	2.23
533.997	12.23
534.121	16.23
534.244	-6.77
534.367	-16.77
534.491	6.23
534.614	-3.77
534.737	17.23
534.86	17.23
534.984	5.23
535.107	-0.77
535.23	14.23
535.354	0.23
535.477	-15.77
535.6	-5.77
535.723	-5.77
535.847	6.23
535.97	2.23
536.093	0.23
536.216	-4.77
536.34	10.23
536.463	-6.77
536.586	14.23
536.709	8.23
536.833	12.23
536.956	7.23
537.079	4.23
537.202	11.23
537.325	-0.77
537.449	3.23
537.572	9.23
537.695	2.23
537.818	-8.77
537.941	0.23
538.065	0.23
538.188	2.23
538.311	30.23
538.434	25.23
538.558	14.23
538.681	15.23
538.804	23.23
538.927	15.23
539.05	20.23
539.173	-6.77
539.297	3.23
539.42	22.23
539.543	-5.77
539.666	15.23
539.789	4.23
539.913	0.23
540.036	-3.77
540.159	-7.77
540.282	-4.77
540.405	9.23
540.528	8.23
540.651	13.23
540.775	-6.77
540.898	20.23
541.021	-12.77
541.144	5.23
541.267	27.23
541.39	5.23
541.513	26.23
541.637	26.23
541.76	4.23
541.883	7.23
542.006	8.23
542.129	26.23
542.252	6.23
542.375	6.23
542.498	-6.77
542.622	19.23
542.745	1.23
542.868	11.23
542.991	22.23
543.114	24.23
543.237	24.23
543.36	39.23
543.483	30.23
543.606	14.23
543.73	33.23
543.853	9.23
543.976	7.23
544.099	1.23
544.222	17.23
544.345	0.23
544.468	-1.77
544.591	12.23
544.714	-11.77
544.837	40.23
544.96	10.23
545.083	25.23
545.206	10.23
545.329	26.23
545.453	14.23
545.576	24.23
545.699	7.23
545.822	11.23
545.945	13.23
546.068	-2.77
546.191	24.23
546.314	0.23
546.437	35.23
546.56	15.23
546.683	12.23
546.806	7.23
546.929	-12.77
547.052	5.23
547.175	7.23
547.298	11.23
547.421	10.23
547.544	-5.77
547.667	19.23
547.79	19.23
547.913	-0.77
548.036	-4.77
548.159	16.23
548.282	2.23
548.405	-4.77
548.528	10.23
548.651	2.23
548.774	14.23
548.897	20.23
549.02	30.23
549.143	42.23
549.266	9.23
549.389	26.23
549.512	0.23
549.635	7.23
549.758	14.23
549.881	0.23
550.004	8.23
550.127	13.23
550.25	6.23
550.373	-8.77
550.496	25.23
550.619	26.23
550.742	-7.77
550.865	-9.77
550.988	27.23
551.111	17.23
551.234	11.23
551.356	1.23
551.479	4.23
551.602	-9.77
551.725	13.23
551.848	20.23
551.971	25.23
552.094	3.23
552.217	1.23
552.34	-3.77
552.463	-18.77
552.586	-5.77
552.709	3.23
552.832	2.23
552.955	18.23
553.077	18.23
553.2	4.23
553.323	-4.77
553.446	15.23
553.569	-5.77
553.692	-1.77
553.815	-4.77
553.938	23.23
554.061	13.23
554.184	-6.77
554.306	9.23
554.429	7.23
554.552	24.23
554.675	15.23
554.798	-5.77
554.921	6.23
555.044	6.23
555.167	8.23
555.29	9.23
555.412	-1.77
555.535	7.23
555.658	-6.77
555.781	-4.77
555.904	3.23
556.027	24.23
556.15	7.23
556.272	4.23
556.395	28.23
556.518	4.23
556.641	15.23
556.764	16.23
556.887	22.23
557.01	5.23
557.132	-0.77
557.255	7.23
557.378	12.23
557.501	9.23
557.624	25.23
557.747	17.23
557.869	42.23
557.992	20.23
558.115	22.23
558.238	7.23
558.361	13.23
558.483	31.23
558.606	12.23
558.729	-8.77
558.852	27.23
558.975	34.23
559.098	35.23
559.22	7.23
559.343	-2.77
559.466	22.23
559.589	3.23
559.712	4.23
559.834	9.23
559.957	2.23
560.08	15.23
560.203	19.23
560.325	29.23
560.448	27.23
560.571	14.23
560.694	5.23
560.817	26.23
560.939	13.23
561.062	6.23
561.185	7.23
561.308	16.23
561.43	-4.77
561.553	7.23
561.676	-1.77
561.799	6.23
561.921	-0.77
562.044	7.23
562.167	-8.77
562.29	7.23
562.413	17.23
562.535	15.23
562.658	5.23
562.781	-4.77
562.903	8.23
563.026	26.23
563.149	27.23
563.272	1.23
563.394	7.23
563.517	1.23
563.64	-8.77
563.763	8.23
563.885	9.23
564.008	10.23
564.131	9.23
564.254	-6.77
564.376	9.23
564.499	-2.77
564.622	7.23
564.744	25.23
564.867	5.23
564.99	-7.77
565.113	-14.77
565.235	2.23
565.358	1.23
565.481	-12.77
565.603	-21.77
565.726	-2.77
565.849	0.23
565.971	7.23
566.094	16.23
566.217	5.23
566.34	-4.77
566.462	1.23
566.585	1.23
566.708	26.23
566.83	1.23
566.953	12.23
567.076	1.23
567.198	14.23
567.321	-3.77
567.444	-0.77
567.566	6.23
567.689	-1.77
567.812	-4.77
567.934	18.23
568.057	13.23
568.18	11.23
568.302	4.23
568.425	0.23
568.548	3.23
568.67	20.23
568.793	20.23
568.916	11.23
569.038	13.23
569.161	19.23
569.283	24.23
569.406	16.23
569.529	-3.77
569.651	-4.77
569.774	-2.77
569.897	4.23
570.019	32.23
570.142	18.23
570.265	25.23
570.387	-2.77
570.51	22.23
570.632	21.23
570.755	11.23
570.878	2.23
571	21.23
571.123	18.23
571.246	22.23
571.368	-13.77
571.491	9.23
571.613	1.23
571.736	-5.77
571.859	-0.77
571.981	-5.77
572.104	2.23
572.226	-0.77
572.349	-11.77
572.472	15.23
572.594	21.23
572.717	3.23
572.839	-2.77
572.962	4.23
573.085	13.23
573.207	15.23
573.33	-6.77
573.452	23.23
573.575	21.23
573.697	1.23
573.82	1.23
573.943	-8.77
574.065	17.23
574.188	7.23
574.31	41.23
574.433	22.23
574.555	24.23
574.678	10.23
574.801	3.23
574.923	4.23
575.046	17.23
575.168	-2.77
575.291	14.23
575.413	-0.77
575.536	10.23
575.659	23.23
575.781	-1.77
575.904	9.23
576.026	16.23
576.149	-1.77
576.271	16.23
576.394	1.23
576.516	15.23
576.639	27.23
576.761	8.23
576.884	10.23
577.007	9.23
577.129	11.23
577.252	26.23
577.374	32.23
577.497	-2.77
577.619	18.23
577.742	13.23
577.864	18.23
577.987	18.23
578.109	21.23
578.232	23.23
578.354	25.23
578.477	3.23
578.599	2.23
578.722	15.23
578.844	4.23
578.967	18.23
579.089	17.23
579.212	8.23
579.334	24.23
579.457	8.23
579.579	1.23
579.702	4.23
579.824	13.23
579.947	-0.77
580.069	-10.77
580.192	-17.77
580.314	2.23
580.437	5.23
580.559	38.23
580.682	19.23
580.804	37.23
580.927	12.23
581.049	43.23
581.172	12.23
581.294	16.23
581.417	9.23
581.539	15.23
581.662	24.23
581.784	17.23
581.907	17.23
582.029	17.23
582.152	-2.77
582.274	14.23
582.396	16.23
582.519	12.23
582.641	-6.77
582.764	6.23
582.886	22.23
583.009	-1.77
583.131	27.23
583.254	9.23
583.376	27.23
583.499	16.23
583.621	13.23
583.743	26.23
583.866	13.23
583.988	11.23
584.111	36.23
584.233	6.23
584.356	17.23
584.478	13.23
584.601	-11.77
584.723	5.23
584.845	21.23
584.968	6.23
585.09	-1.77
585.213	30.23
585.335	-1.77
585.458	6.23
585.58	5.23
585.702	0.23
585.825	31.23
585.947	28.23
586.07	10.23
586.192	-2.77
586.315	12.23
586.437	8.23
586.559	22.23
586.682	-5.77
586.804	-0.77
586.927	4.23
587.049	9.23
587.171	6.23
587.294	12.23
587.416	2.23
587.539	6.23
587.661	-2.77
587.783	14.23
587.906	-8.77
588.028	19.23
588.151	6.23
588.273	20.23
588.395	9.23
588.518	4.23
588.64	7.23
588.763	22.23
588.885	7.23
589.007	0.23
589.13	-7.77
589.252	4.23
589.375	11.23
589.497	-0.77
589.619	14.23
589.742	13.23
589.864	13.23
589.986	10.23
590.109	-13.77
590.231	2.23
590.354	14.23
590.476	-6.77
590.598	3.23
590.721	-1.77
590.843	-3.77
590.965	24.23
591.088	18.23
591.21	0.23
591.332	1.23
591.455	2.23
591.577	-0.77
591.7	8.23
591.822	16.23
591.944	16.23
592.067	6.23
592.189	27.23
592.311	22.23
592.434	22.23
592.556	12.23
592.678	8.23
592.801	11.23
592.923	-0.77
593.045	3.23
593.168	17.23
593.29	7.23
593.412	35.23
593.535	11.23
593.657	3.23
593.779	8.23
593.902	28.23
594.024	7.23
594.146	16.23
594.269	27.23
594.391	7.23
594.513	14.23
594.636	3.23
594.758	3.23
594.88	22.23
595.003	4.23
595.125	5.23
595.247	10.23
595.37	19.23
595.492	3.23
595.614	36.23
595.737	6.23
595.859	6.23
595.981	2.23
596.104	14.23
596.226	-8.77
596.348	5.23
596.471	-2.77
596.593	6.23
596.715	-3.77
596.838	14.23
596.96	2.23
597.082	17.23
597.204	23.23
597.327	6.23
597.449	-8.77
597.571	-3.77
597.694	6.23
597.816	20.23
597.938	12.23
598.061	-6.77
598.183	-5.77
598.305	2.23
598.427	6.23
598.55	17.23
598.672	10.23
598.794	24.23
598.917	1.23
599.039	11.23
599.161	11.23
599.283	25.23
599.406	5.23
599.528	31.23
599.65	42.23
599.773	8.23
599.895	17.23
600.017	16.23
600.139	-6.77
600.262	4.23
600.384	12.23
600.506	12.23
600.628	13.23
600.751	9.23
600.873	25.23
600.995	2.23
601.118	18.23
601.24	-5.77
601.362	20.23
601.484	29.23
601.607	16.23
601.729	17.23
601.851	17.23
601.973	16.23
602.096	15.23
602.218	13.23
602.34	19.23
602.462	10.23
602.585	9.23
602.707	5.23
602.829	30.23
602.951	11.23
603.074	3.23
603.196	13.23
603.318	12.23
603.44	23.23
603.563	12.23
603.685	-0.77
603.807	11.23
603.929	9.23
604.052	15.23
604.174	-2.77
604.296	14.23
604.418	4.23
604.541	20.23
604.663	4.23
604.785	22.23
604.907	30.23
605.03	7.23
605.152	30.23
605.274	8.23
605.396	19.23
605.519	11.23
605.641	-14.77
605.763	7.23
605.885	17.23
606.008	-1.77
606.13	28.23
606.252	10.23
606.374	1.23
606.496	4.23
606.619	16.23
606.741	6.23
606.863	11.23
606.985	26.23
607.108	15.23
607.23	12.23
607.352	6.23
607.474	-4.77
607.596	11.23
607.719	5.23
607.841	17.23
607.963	-1.77
608.085	14.23
608.207	36.23
608.33	14.23
608.452	9.23
608.574	1.23
608.696	11.23
608.819	4.23
608.941	-7.77
609.063	5.23
609.185	-7.77
609.307	-8.77
609.43	29.23
609.552	12.23
609.674	-4.77
609.796	27.23
609.918	20.23
610.041	-6.77
610.163	6.23
610.285	-1.77
610.407	23.23
610.529	-1.77
610.652	-6.77
610.774	13.23
610.896	6.23
611.018	17.23
611.14	13.23
611.263	7.23
611.385	-13.77
611.507	14.23
611.629	-1.77
611.751	5.23
611.873	23.23
611.996	16.23
612.118	14.23
612.24	13.23
612.362	9.23
612.484	21.23
612.607	20.23
612.729	33.23
612.851	12.23
612.973	2.23
613.095	7.23
613.218	8.23
613.34	25.23
613.462	11.23
613.584	9.23
613.706	0.23
613.828	17.23
613.951	7.23
614.073	-4.77
614.195	-12.77
614.317	22.23
614.439	13.23
614.561	9.23
614.684	23.23
614.806	23.23
614.928	14.23
615.05	5.23
615.172	18.23
615.294	14.23
615.417	18.23
615.539	-2.77
615.661	0.23
615.783	15.23
615.905	19.23
616.027	51.23
616.15	98.23
616.272	71.23
616.394	38.23
616.516	24.23
616.638	21.23
616.76	6.23
616.883	15.23
617.005	-2.77
617.127	-4.77
617.249	-0.77
617.371	13.23
617.493	4.23
617.615	14.23
617.738	7.23
617.86	9.23
617.982	8.23
618.104	11.23
618.226	2.23
618.348	-2.77
618.471	10.23
618.593	8.23
618.715	6.23
618.837	21.23
618.959	11.23
619.081	23.23
619.203	18.23
619.326	21.23
619.448	18.23
619.57	11.23
619.692	8.23
619.814	14.23
619.936	19.23
620.058	16.23
620.181	20.23
620.303	3.23
620.425	22.23
620.547	8.23
620.669	-6.77
620.791	1.23
620.913	0.23
621.036	-6.77
621.158	8.23
621.28	9.23
621.402	2.23
621.524	3.23
621.646	9.23
621.768	0.23
621.891	-16.77
622.013	17.23
622.135	-5.77
622.257	4.23
622.379	-18.77
622.501	-9.77
622.623	4.23
622.745	25.23
622.868	19.23
622.99	16.23
623.112	8.23
623.234	3.23
623.356	12.23
623.478	-5.77
623.6	11.23
623.722	12.23
623.845	3.23
623.967	-4.77
624.089	10.23
624.211	14.23
624.333	12.23
624.455	10.23
624.577	7.23
624.699	21.23
624.822	1.23
624.944	-3.77
625.066	4.23
625.188	-5.77
625.31	11.23
625.432	35.23
625.554	5.23
625.676	25.23
625.799	10.23
625.921	3.23
626.043	14.23
626.165	9.23
626.287	-14.77
626.409	18.23
626.531	4.23
626.653	4.23
626.775	5.23
626.898	-3.77
627.02	-4.77
627.142	12.23
627.264	17.23
627.386	4.23
627.508	6.23
627.63	-1.77
627.752	21.23
627.874	13.23
627.997	26.23
628.119	15.23
628.241	14.23
628.363	22.23
628.485	9.23
628.607	-2.77
628.729	-0.77
628.851	-8.77
628.973	10.23
629.096	1.23
629.218	11.23
629.34	8.23
629.462	7.23
629.584	-2.77
629.706	10.23
629.828	18.23
629.95	7.23
630.072	18.23
630.195	19.23
630.317	12.23
630.439	11.23
630.561	9.23
630.683	-0.77
630.805	6.23
630.927	-5.77
631.049	-11.77
631.171	4.23
631.293	13.23
631.416	13.23
631.538	10.23
631.66	7.23
631.782	21.23
631.904	16.23
632.026	2.23
632.148	5.23
632.27	-1.77
632.392	13.23
632.514	10.23
632.637	7.23
632.759	1.23
632.881	4.23
633.003	9.23
633.125	-0.77
633.247	1.23
633.369	8.23
633.491	7.23
633.613	15.23
633.735	-9.77
633.858	3.23
633.98	5.23
634.102	-6.77
634.224	-6.77
634.346	2.23
634.468	6.23
634.59	2.23
634.712	17.23
634.834	17.23
634.956	-6.77
635.078	-2.77
635.201	-9.77
635.323	-0.77
635.445	6.23
635.567	-11.77
635.689	17.23
635.811	5.23
635.933	3.23
636.055	3.23
636.177	-3.77
636.299	-0.77
636.421	-0.77
636.544	-12.77
636.666	5.23
636.788	3.23
636.91	20.23
637.032	-1.77
637.154	10.23
637.276	33.23
637.398	17.23
637.52	11.23
637.642	-2.77
637.764	-16.77
637.887	7.23
638.009	1.23
638.131	8.23
638.253	-10.77
638.375	15.23
638.497	6.23
638.619	0.23
638.741	13.23
638.863	-6.77
638.985	-4.77
639.107	-5.77
639.23	-8.77
639.352	15.23
639.474	-3.77
639.596	-1.77
639.718	5.23
639.84	0.23
639.962	12.23
640.084	21.23
640.206	-0.77
640.328	-1.77
640.45	5.23
640.573	-4.77
640.695	-0.77
640.817	1.23
640.939	12.23
641.061	4.23
641.183	-0.77
641.305	-2.77
641.427	6.23
641.549	11.23
641.671	10.23
641.793	-5.77
641.915	-0.77
642.038	-13.77
642.16	-5.77
642.282	4.23
642.404	0.23
642.526	8.23
642.648	-1.77
642.77	-4.77
642.892	-2.77
643.014	17.23
643.136	30.23
643.258	7.23
643.381	35.23
643.503	29.23
643.625	5.23
643.747	-14.77
643.869	4.23
643.991	14.23
644.113	-9.77
644.235	-5.77
644.357	6.23
644.479	17.23
644.601	-1.77
644.723	5.23
644.846	9.23
644.968	-3.77
645.09	2.23
645.212	-1.77
645.334	16.23
645.456	19.23
645.578	15.23
645.7	8.23
645.822	25.23
645.944	10.23
646.066	-12.77
646.188	1.23
646.311	17.23
646.433	-8.77
646.555	33.23
646.677	33.23
646.799	47.23
646.921	25.23
647.043	27.23
647.165	3.23
647.287	16.23
647.409	11.23
647.531	17.23
647.654	-10.77
647.776	8.23
647.898	-0.77
648.02	-10.77
648.142	-1.77
648.264	-1.77
648.386	-9.77
648.508	-24.77
648.63	3.23
648.752	-7.77
648.874	-14.77
648.997	11.23
649.119	30.23
649.241	0.23
649.363	21.23
649.485	8.23
649.607	-2.77
649.729	0.23
649.851	-1.77
649.973	12.23
650.095	6.23
650.217	-10.77
650.34	-2.77
650.462	11.23
650.584	6.23
650.706	19.23
650.828	24.23
650.95	-2.77
651.072	26.23
651.194	9.23
651.316	8.23
651.438	1.23
651.56	2.23
651.683	-5.77
651.805	11.23
651.927	7.23
652.049	0.23
652.171	6.23
652.293	21.23
652.415	-12.77
652.537	-7.77
652.659	-9.77
652.781	9.23
652.903	22.23
653.026	22.23
653.148	7.23
653.27	8.23
653.392	6.23
653.514	15.23
653.636	-2.77
653.758	13.23
653.88	-8.77
654.002	6.23
654.124	6.23
654.247	10.23
654.369	11.23
654.491	13.23
654.613	11.23
654.735	-8.77
654.857	21.23
654.979	21.23
655.101	19.23
655.223	45.23
655.345	22.23
655.468	23.23
655.59	15.23
655.712	35.23
655.834	27.23
655.956	32.23
656.078	29.23
656.2	36.23
656.322	42.23
656.444	38.23
656.566	49.23
656.689	30.23
656.811	47.23
656.933	93.23
657.055	95.23
657.177	148.23
657.299	248.23
657.421	495.23
657.543	1924.23
657.665	12603.23
657.787	15176.23
657.91	15286.23
658.032	15660.23
658.154	4707.23
658.276	3882.23
658.398	1251.23
658.52	1059.23
658.642	512.23
658.764	609.23
658.886	271.23
659.009	396.23
659.131	207.23
659.253	306.23
659.375	161.23
659.497	237.23
659.619	140.23
659.741	186.23
659.863	98.23
659.985	150.23
660.108	95.23
660.23	148.23
660.352	89.23
660.474	148.23
660.596	90.23
660.718	118.23
660.84	70.23
660.962	115.23
661.084	52.23
661.207	106.23
661.329	53.23
661.451	78.23
661.573	53.23
661.695	104.23
661.817	57.23
661.939	118.23
662.061	58.23
662.184	58.23
662.306	52.23
662.428	82.23
662.55	53.23
662.672	60.23
662.794	47.23
662.916	68.23
663.038	37.23
663.161	90.23
663.283	23.23
663.405	67.23
663.527	16.23
663.649	57.23
663.771	18.23
663.893	58.23
664.015	58.23
664.138	45.23
664.26	40.23
664.382	62.23
664.504	22.23
664.626	24.23
664.748	19.23
664.87	29.23
664.992	23.23
665.115	50.23
665.237	15.23
665.359	38.23
665.481	12.23
665.603	45.23
665.725	18.23
665.847	12.23
665.97	2.23
666.092	36.23
666.214	19.23
666.336	20.23
666.458	20.23
666.58	39.23
666.702	7.23
666.825	36.23
666.947	-2.77
667.069	25.23
667.191	3.23
667.313	37.23
667.435	6.23
667.557	25.23
667.68	-9.77
667.802	17.23
667.924	9.23
668.046	32.23
668.168	35.23
668.29	56.23
668.412	9.23
668.535	26.23
668.657	22.23
668.779	14.23
668.901	11.23
669.023	37.23
669.145	17.23
669.267	42.23
669.39	9.23
669.512	29.23
669.634	-2.77
669.756	26.23
669.878	17.23
670	18.23
670.123	11.23
670.245	27.23
670.367	14.23
670.489	54.23
670.611	9.23
670.733	16.23
670.856	-0.77
670.978	22.23
671.1	17.23
671.222	40.23
671.344	5.23
671.466	10.23
671.589	5.23
671.711	14.23
671.833	14.23
671.955	9.23
672.077	3.23
672.199	43.23
672.322	18.23
672.444	25.23
672.566	26.23
672.688	15.23
672.81	8.23
672.932	33.23
673.055	9.23
673.177	11.23
673.299	8.23
673.421	0.23
673.543	20.23
673.665	39.23
673.788	27.23
673.91	12.23
674.032	-11.77
674.154	20.23
674.276	16.23
674.399	9.23
674.521	10.23
674.643	17.23
674.765	-2.77
674.887	21.23
675.009	15.23
675.132	13.23
675.254	1.23
675.376	22.23
675.498	18.23
675.62	31.23
675.743	7.23
675.865	19.23
675.987	7.23
676.109	13.23
676.231	9.23
676.354	48.23
676.476	1.23
676.598	23.23
676.72	32.23
676.842	19.23
676.965	7.23
677.087	24.23
677.209	7.23
677.331	30.23
677.453	11.23
677.576	10.23
677.698	4.23
677.82	17.23
677.942	13.23
678.064	27.23
678.187	18.23
678.309	6.23
678.431	13.23
678.553	3.23
678.675	13.23
678.798	23.23
678.92	13.23
679.042	18.23
679.164	14.23
679.286	32.23
679.409	-0.77
679.531	-5.77
679.653	-13.77
679.775	-6.77
679.898	-6.77
680.02	3.23
680.142	-18.77
680.264	-12.77
680.386	-7.77
680.509	17.23
680.631	17.23
680.753	26.23
680.875	-6.77
680.998	14.23
681.12	-0.77
681.242	4.23
681.364	-0.77
681.486	18.23
681.609	-7.77
681.731	-0.77
681.853	-8.77
681.975	-1.77
682.098	9.23
682.22	17.23
682.342	12.23
682.464	19.23
682.587	-0.77
682.709	13.23
682.831	-3.77
682.953	0.23
683.076	-6.77
683.198	17.23
683.32	10.23
683.442	-2.77
683.565	19.23
683.687	18.23
683.809	1.23
683.931	6.23
684.054	10.23
684.176	13.23
684.298	22.23
684.42	10.23
684.543	-1.77
684.665	10.23
684.787	-3.77
684.909	16.23
685.032	8.23
685.154	-8.77
685.276	-5.77
685.398	3.23
685.521	-16.77
685.643	10.23
685.765	8.23
685.887	10.23
686.01	7.23
686.132	12.23
686.254	16.23
686.377	17.23
686.499	9.23
686.621	15.23
686.743	8.23
686.866	9.23
686.988	27.23
687.11	21.23
687.232	3.23
687.355	-5.77
687.477	-9.77
687.599	33.23
687.722	5.23
687.844	6.23
687.966	-4.77
688.088	18.23
688.211	34.23
688.333	10.23
688.455	9.23
688.578	19.23
688.7	18.23
688.822	17.23
688.944	-1.77
689.067	56.23
689.189	10.23
689.311	-2.77
689.434	13.23
689.556	10.23
689.678	6.23
689.801	1.23
689.923	7.23
690.045	25.23
690.167	26.23
690.29	19.23
690.412	2.23
690.534	2.23
690.657	5.23
690.779	5.23
690.901	12.23
691.024	5.23
691.146	14.23
691.268	-11.77
691.391	12.23
691.513	9.23
691.635	1.23
691.758	21.23
691.88	3.23
692.002	4.23
692.125	4.23
692.247	21.23
692.369	2.23
692.492	-8.77
692.614	9.23
692.736	6.23
692.859	-0.77
692.981	4.23
693.103	9.23
693.226	19.23
693.348	24.23
693.47	-5.77
693.593	7.23
693.715	-5.77
693.837	13.23
693.96	-15.77
694.082	-10.77
694.204	-1.77
694.327	-1.77
694.449	-3.77
694.571	-5.77
694.694	14.23
694.816	20.23
694.938	7.23
695.061	10.23
695.183	5.23
695.305	13.23
695.428	9.23
695.55	-18.77
695.672	2.23
695.795	7.23
695.917	25.23
696.04	9.23
696.162	9.23
696.284	5.23
696.407	11.23
696.529	-3.77
696.651	18.23
696.774	17.23
696.896	26.23
697.019	6.23
697.141	0.23
697.263	1.23
697.386	-3.77
697.508	7.23
697.63	12.23
697.753	-5.77
697.875	-8.77
697.998	-5.77
698.12	12.23
698.242	5.23
698.365	16.23
698.487	-3.77
698.61	12.23
698.732	18.23
698.854	17.23
698.977	17.23
699.099	10.23
699.221	-2.77
699.344	9.23
699.466	6.23
699.589	8.23
699.711	9.23
699.834	-3.77
699.956	-11.77
700.078	2.23
700.201	5.23
700.323	19.23
700.446	11.23
700.568	-0.77
700.69	1.23
700.813	18.23
700.935	7.23
701.058	1.23
701.18	4.23
701.302	-8.77
701.425	-7.77
701.547	12.23
701.67	-2.77
701.792	30.23
701.915	21.23
702.037	14.23
702.159	14.23
702.282	15.23
702.404	11.23
702.527	21.23
702.649	23.23
702.772	18.23
702.894	9.23
703.017	14.23
703.139	10.23
703.261	26.23
703.384	19.23
703.506	-6.77
703.629	-0.77
703.751	24.23
703.874	19.23
703.996	6.23
704.119	-2.77
704.241	11.23
704.364	1.23
704.486	19.23
704.608	15.23
704.731	14.23
704.853	9.23
704.976	12.23
705.098	24.23
705.221	16.23
705.343	13.23
705.466	17.23
705.588	-3.77
705.711	1.23
705.833	14.23
705.956	0.23
706.078	25.23
706.201	8.23
706.323	-5.77
706.446	1.23
