Data from LowRes_H2_15_26_11_07_2024_HR4C61881__95__15-28-23-136.txt Node

Date: Thu Nov 07 15:28:23 EST 2024
User: crc00042
Spectrometer: HR4C6188
Trigger mode: 4
Integration Time (sec): 1.000000E-1
Scans to average: 1
Electric dark correction enabled: true
Nonlinearity correction enabled: false
Boxcar width: 0
XAxis mode: Wavelengths
Number of Pixels in Spectrum: 3648
>>>>>Begin Spectral Data<<<<<
245.66	-103.46
245.797	-103.46
245.934	-103.46
246.071	-80.46
246.208	-1.46
246.344	11.54
246.481	-14.46
246.618	-15.46
246.755	10.54
246.892	1.54
247.029	-8.46
247.165	3.54
247.302	2.54
247.439	0.54
247.576	8.54
247.713	-14.46
247.849	20.54
247.986	-6.46
248.123	-0.46
248.26	-15.46
248.396	15.54
248.533	-11.46
248.67	-5.46
248.806	-6.46
248.943	-21.46
249.08	-4.46
249.216	3.54
249.353	-21.46
249.49	-16.46
249.626	-6.46
249.763	-12.46
249.9	-21.46
250.036	-0.46
250.173	0.54
250.309	5.54
250.446	-2.46
250.582	-19.46
250.719	-17.46
250.856	-16.46
250.992	-19.46
251.129	14.54
251.265	-31.46
251.402	4.54
251.538	-11.46
251.675	-19.46
251.811	4.54
251.948	18.54
252.084	-0.46
252.221	-6.46
252.357	-8.46
252.493	30.54
252.63	-4.46
252.766	31.54
252.903	-4.46
253.039	-26.46
253.175	-13.46
253.312	-7.46
253.448	-23.46
253.585	-26.46
253.721	-3.46
253.857	-29.46
253.994	-6.46
254.13	-33.46
254.266	2.54
254.403	-2.46
254.539	-8.46
254.675	12.54
254.811	0.54
254.948	-11.46
255.084	-10.46
255.22	-12.46
255.356	5.54
255.493	10.54
255.629	1.54
255.765	-5.46
255.901	-1.46
256.037	7.54
256.174	-3.46
256.31	-20.46
256.446	-17.46
256.582	-15.46
256.718	6.54
256.854	8.54
256.991	-4.46
257.127	6.54
257.263	-4.46
257.399	6.54
257.535	-18.46
257.671	-6.46
257.807	-42.46
257.943	-40.46
258.079	-18.46
258.215	-31.46
258.351	-3.46
258.487	-14.46
258.623	24.54
258.759	0.54
258.895	-7.46
259.031	-0.46
259.167	-17.46
259.303	15.54
259.439	-11.46
259.575	-3.46
259.711	5.54
259.847	-10.46
259.983	-8.46
260.119	2.54
260.255	-15.46
260.391	-1.46
260.527	3.54
260.663	0.54
260.799	-6.46
260.934	-14.46
261.07	-24.46
261.206	-19.46
261.342	-45.46
261.478	5.54
261.614	-0.46
261.749	14.54
261.885	-0.46
262.021	-20.46
262.157	9.54
262.293	-3.46
262.428	-11.46
262.564	-17.46
262.7	-11.46
262.836	-10.46
262.971	7.54
263.107	-4.46
263.243	2.54
263.378	-0.46
263.514	-19.46
263.65	4.54
263.785	-32.46
263.921	-21.46
264.057	-17.46
264.192	-1.46
264.328	-2.46
264.464	-18.46
264.599	1.54
264.735	4.54
264.871	-7.46
265.006	-10.46
265.142	-5.46
265.277	-16.46
265.413	13.54
265.548	7.54
265.684	9.54
265.819	-25.46
265.955	-29.46
266.091	-15.46
266.226	-11.46
266.362	-33.46
266.497	0.54
266.633	-8.46
266.768	5.54
266.903	6.54
267.039	-0.46
267.174	-8.46
267.31	-22.46
267.445	-19.46
267.581	1.54
267.716	0.54
267.851	-14.46
267.987	16.54
268.122	16.54
268.258	-18.46
268.393	-21.46
268.528	0.54
268.664	-6.46
268.799	-26.46
268.934	-1.46
269.07	-0.46
269.205	-18.46
269.34	2.54
269.476	1.54
269.611	-20.46
269.746	-4.46
269.881	-3.46
270.017	5.54
270.152	-7.46
270.287	3.54
270.422	-3.46
270.558	-26.46
270.693	-4.46
270.828	1.54
270.963	-4.46
271.098	-3.46
271.234	-16.46
271.369	-6.46
271.504	-3.46
271.639	-15.46
271.774	6.54
271.909	-6.46
272.045	-34.46
272.18	-16.46
272.315	-22.46
272.45	-4.46
272.585	-23.46
272.72	-10.46
272.855	-6.46
272.99	7.54
273.125	-17.46
273.26	-33.46
273.395	-17.46
273.53	2.54
273.665	5.54
273.8	2.54
273.935	-10.46
274.07	-10.46
274.205	16.54
274.34	-8.46
274.475	-0.46
274.61	4.54
274.745	-7.46
274.88	-0.46
275.015	-29.46
275.15	-20.46
275.285	-16.46
275.42	3.54
275.555	0.54
275.69	2.54
275.825	-13.46
275.959	-8.46
276.094	-10.46
276.229	-14.46
276.364	-22.46
276.499	-2.46
276.634	11.54
276.768	4.54
276.903	-30.46
277.038	-3.46
277.173	-2.46
277.308	-11.46
277.442	-12.46
277.577	-17.46
277.712	-7.46
277.847	0.54
277.981	1.54
278.116	-24.46
278.251	-11.46
278.386	18.54
278.52	0.54
278.655	-15.46
278.79	-5.46
278.924	8.54
279.059	2.54
279.194	-19.46
279.328	26.54
279.463	-4.46
279.598	6.54
279.732	15.54
279.867	18.54
280.001	9.54
280.136	3.54
280.271	7.54
280.405	-1.46
280.54	-10.46
280.674	-18.46
280.809	-0.46
280.943	15.54
281.078	10.54
281.213	12.54
281.347	-1.46
281.482	-9.46
281.616	-7.46
281.751	-22.46
281.885	-17.46
282.02	-21.46
282.154	9.54
282.288	-16.46
282.423	-11.46
282.557	-29.46
282.692	-7.46
282.826	10.54
282.961	13.54
283.095	-4.46
283.229	5.54
283.364	-10.46
283.498	5.54
283.633	5.54
283.767	-2.46
283.901	-4.46
284.036	-9.46
284.17	-23.46
284.304	-20.46
284.439	-6.46
284.573	-11.46
284.707	-4.46
284.842	-17.46
284.976	-12.46
285.11	-30.46
285.244	-0.46
285.379	45.54
285.513	-20.46
285.647	-13.46
285.781	6.54
285.916	23.54
286.05	3.54
286.184	11.54
286.318	9.54
286.453	-15.46
286.587	-11.46
286.721	-19.46
286.855	2.54
286.989	2.54
287.123	-7.46
287.258	-4.46
287.392	0.54
287.526	-7.46
287.66	3.54
287.794	-4.46
287.928	-12.46
288.062	6.54
288.196	-11.46
288.33	-13.46
288.464	20.54
288.598	-0.46
288.733	-3.46
288.867	10.54
289.001	-15.46
289.135	-17.46
289.269	-32.46
289.403	-3.46
289.537	-3.46
289.671	4.54
289.805	-12.46
289.939	-18.46
290.073	-14.46
290.207	-17.46
290.34	-10.46
290.474	17.54
290.608	1.54
290.742	4.54
290.876	-19.46
291.01	0.54
291.144	14.54
291.278	-1.46
291.412	5.54
291.546	-6.46
291.679	-18.46
291.813	-11.46
291.947	10.54
292.081	-11.46
292.215	-11.46
292.349	-3.46
292.482	0.54
292.616	2.54
292.75	3.54
292.884	-5.46
293.018	-20.46
293.151	-15.46
293.285	-8.46
293.419	-13.46
293.553	-15.46
293.686	-14.46
293.82	-3.46
293.954	27.54
294.088	21.54
294.221	2.54
294.355	-9.46
294.489	-7.46
294.622	-7.46
294.756	-16.46
294.89	4.54
295.023	-3.46
295.157	8.54
295.291	-1.46
295.424	-12.46
295.558	-5.46
295.691	-16.46
295.825	-11.46
295.959	-14.46
296.092	-5.46
296.226	-8.46
296.359	6.54
296.493	-4.46
296.627	10.54
296.76	-0.46
296.894	-14.46
297.027	16.54
297.161	-9.46
297.294	-33.46
297.428	-13.46
297.561	16.54
297.695	-13.46
297.828	-3.46
297.962	-12.46
298.095	-23.46
298.229	-2.46
298.362	-1.46
298.495	-20.46
298.629	-25.46
298.762	-6.46
298.896	-0.46
299.029	-27.46
299.162	-17.46
299.296	5.54
299.429	4.54
299.563	-10.46
299.696	-6.46
299.829	-7.46
299.963	-10.46
300.096	12.54
300.229	-4.46
300.363	-5.46
300.496	-3.46
300.629	-24.46
300.763	-12.46
300.896	-11.46
301.029	15.54
301.162	10.54
301.296	-12.46
301.429	-6.46
301.562	-35.46
301.695	16.54
301.829	5.54
301.962	16.54
302.095	-0.46
302.228	-19.46
302.362	18.54
302.495	-11.46
302.628	10.54
302.761	-6.46
302.894	7.54
303.027	4.54
303.161	4.54
303.294	-15.46
303.427	6.54
303.56	5.54
303.693	3.54
303.826	-11.46
303.959	-19.46
304.092	-28.46
304.225	-15.46
304.359	-1.46
304.492	8.54
304.625	-8.46
304.758	2.54
304.891	-20.46
305.024	-4.46
305.157	-16.46
305.29	-20.46
305.423	-2.46
305.556	6.54
305.689	12.54
305.822	-13.46
305.955	-0.46
306.088	-3.46
306.221	-6.46
306.354	-22.46
306.487	-30.46
306.62	-20.46
306.752	-15.46
306.885	2.54
307.018	-3.46
307.151	-10.46
307.284	6.54
307.417	-12.46
307.55	3.54
307.683	-17.46
307.816	3.54
307.948	-1.46
308.081	10.54
308.214	-7.46
308.347	9.54
308.48	-19.46
308.613	-15.46
308.745	0.54
308.878	-11.46
309.011	-7.46
309.144	-1.46
309.277	-4.46
309.409	13.54
309.542	-11.46
309.675	-3.46
309.808	-0.46
309.94	1.54
310.073	-15.46
310.206	-9.46
310.339	12.54
310.471	-18.46
310.604	0.54
310.737	-4.46
310.869	1.54
311.002	-2.46
311.135	-5.46
311.267	-5.46
311.4	6.54
311.533	23.54
311.665	-2.46
311.798	-5.46
311.93	-1.46
312.063	7.54
312.196	-2.46
312.328	-11.46
312.461	-28.46
312.593	-3.46
312.726	23.54
312.859	-2.46
312.991	2.54
313.124	-36.46
313.256	4.54
313.389	16.54
313.521	-11.46
313.654	-3.46
313.786	-21.46
313.919	-32.46
314.051	-3.46
314.184	-2.46
314.316	-12.46
314.449	-19.46
314.581	-10.46
314.714	-12.46
314.846	-7.46
314.978	-8.46
315.111	-11.46
315.243	-7.46
315.376	-4.46
315.508	6.54
315.641	23.54
315.773	15.54
315.905	-5.46
316.038	-4.46
316.17	-17.46
316.302	-15.46
316.435	-16.46
316.567	-10.46
316.699	14.54
316.832	-22.46
316.964	6.54
317.096	5.54
317.229	-18.46
317.361	-19.46
317.493	14.54
317.625	-10.46
317.758	9.54
317.89	9.54
318.022	-22.46
318.155	-9.46
318.287	6.54
318.419	7.54
318.551	-11.46
318.683	5.54
318.816	2.54
318.948	-11.46
319.08	-29.46
319.212	-8.46
319.344	3.54
319.477	10.54
319.609	9.54
319.741	-1.46
319.873	-5.46
320.005	5.54
320.137	8.54
320.269	1.54
320.401	-2.46
320.534	-4.46
320.666	-21.46
320.798	-4.46
320.93	-10.46
321.062	-28.46
321.194	-22.46
321.326	-8.46
321.458	11.54
321.59	-3.46
321.722	-0.46
321.854	-1.46
321.986	-15.46
322.118	-11.46
322.25	-17.46
322.382	-11.46
322.514	-3.46
322.646	-11.46
322.778	-3.46
322.91	-10.46
323.042	-12.46
323.174	0.54
323.306	-36.46
323.438	-36.46
323.57	-9.46
323.702	-1.46
323.834	-7.46
323.966	-17.46
324.097	2.54
324.229	15.54
324.361	-2.46
324.493	-1.46
324.625	-12.46
324.757	-1.46
324.889	-9.46
325.021	-3.46
325.152	19.54
325.284	23.54
325.416	-0.46
325.548	7.54
325.68	-16.46
325.811	10.54
325.943	4.54
326.075	-21.46
326.207	-25.46
326.339	-2.46
326.47	-8.46
326.602	4.54
326.734	4.54
326.866	2.54
326.997	-9.46
327.129	-10.46
327.261	-17.46
327.392	-17.46
327.524	15.54
327.656	-7.46
327.787	-0.46
327.919	4.54
328.051	-12.46
328.182	-1.46
328.314	11.54
328.446	11.54
328.577	7.54
328.709	0.54
328.841	-42.46
328.972	-15.46
329.104	-2.46
329.235	-22.46
329.367	-22.46
329.499	-10.46
329.63	-2.46
329.762	-6.46
329.893	3.54
330.025	-8.46
330.156	-12.46
330.288	6.54
330.419	7.54
330.551	5.54
330.683	-8.46
330.814	-14.46
330.946	0.54
331.077	-15.46
331.208	-4.46
331.34	-2.46
331.471	-3.46
331.603	-2.46
331.734	-25.46
331.866	-6.46
331.997	0.54
332.129	-1.46
332.26	0.54
332.392	-22.46
332.523	4.54
332.654	-18.46
332.786	2.54
332.917	-28.46
333.048	11.54
333.18	10.54
333.311	-24.46
333.443	-14.46
333.574	-11.46
333.705	11.54
333.837	-8.46
333.968	11.54
334.099	20.54
334.231	5.54
334.362	-3.46
334.493	-0.46
334.624	-4.46
334.756	-18.46
334.887	9.54
335.018	-11.46
335.15	-5.46
335.281	-6.46
335.412	1.54
335.543	2.54
335.675	11.54
335.806	3.54
335.937	4.54
336.068	4.54
336.199	20.54
336.331	-10.46
336.462	-4.46
336.593	-0.46
336.724	-22.46
336.855	-1.46
336.986	15.54
337.118	4.54
337.249	13.54
337.38	-14.46
337.511	-21.46
337.642	-9.46
337.773	-4.46
337.904	1.54
338.035	8.54
338.166	-1.46
338.298	-7.46
338.429	-11.46
338.56	-5.46
338.691	-1.46
338.822	6.54
338.953	15.54
339.084	11.54
339.215	0.54
339.346	-8.46
339.477	-11.46
339.608	-1.46
339.739	2.54
339.87	-8.46
340.001	-34.46
340.132	-5.46
340.263	10.54
340.394	9.54
340.525	2.54
340.656	-10.46
340.787	-15.46
340.918	18.54
341.049	-7.46
341.179	-7.46
341.31	9.54
341.441	12.54
341.572	-2.46
341.703	-4.46
341.834	-6.46
341.965	-9.46
342.096	-6.46
342.227	-19.46
342.357	-3.46
342.488	-4.46
342.619	-13.46
342.75	-5.46
342.881	-34.46
343.012	-2.46
343.142	12.54
343.273	-23.46
343.404	-7.46
343.535	11.54
343.666	15.54
343.796	16.54
343.927	7.54
344.058	15.54
344.189	9.54
344.319	0.54
344.45	13.54
344.581	4.54
344.712	-32.46
344.842	-4.46
344.973	5.54
345.104	-13.46
345.234	-22.46
345.365	-30.46
345.496	-5.46
345.626	1.54
345.757	10.54
345.888	-14.46
346.018	4.54
346.149	-9.46
346.28	6.54
346.41	-18.46
346.541	2.54
346.672	-1.46
346.802	23.54
346.933	-6.46
347.063	-13.46
347.194	-15.46
347.325	0.54
347.455	19.54
347.586	-8.46
347.716	-13.46
347.847	-12.46
347.977	-0.46
348.108	9.54
348.238	-0.46
348.369	-14.46
348.499	5.54
348.63	0.54
348.76	6.54
348.891	11.54
349.021	-2.46
349.152	6.54
349.282	-6.46
349.413	-20.46
349.543	19.54
349.674	-5.46
349.804	23.54
349.935	-5.46
350.065	-7.46
350.196	-20.46
350.326	-10.46
350.456	-11.46
350.587	23.54
350.717	-11.46
350.848	-6.46
350.978	11.54
351.108	-14.46
351.239	10.54
351.369	-3.46
351.499	-16.46
351.63	4.54
351.76	1.54
351.89	-23.46
352.021	8.54
352.151	1.54
352.281	-12.46
352.412	3.54
352.542	5.54
352.672	-13.46
352.803	1.54
352.933	-6.46
353.063	-9.46
353.193	15.54
353.324	4.54
353.454	9.54
353.584	14.54
353.714	0.54
353.845	-4.46
353.975	-26.46
354.105	-16.46
354.235	2.54
354.365	-2.46
354.496	-0.46
354.626	-4.46
354.756	5.54
354.886	-4.46
355.016	6.54
355.146	13.54
355.277	-3.46
355.407	-9.46
355.537	2.54
355.667	1.54
355.797	-8.46
355.927	-15.46
356.057	-6.46
356.187	-19.46
356.318	-11.46
356.448	-20.46
356.578	3.54
356.708	14.54
356.838	11.54
356.968	-4.46
357.098	-11.46
357.228	5.54
357.358	-9.46
357.488	-25.46
357.618	13.54
357.748	5.54
357.878	1.54
358.008	-16.46
358.138	-6.46
358.268	-7.46
358.398	-2.46
358.528	-12.46
358.658	15.54
358.788	1.54
358.918	4.54
359.048	-12.46
359.178	18.54
359.308	-8.46
359.438	2.54
359.568	8.54
359.698	3.54
359.827	1.54
359.957	-3.46
360.087	-2.46
360.217	-11.46
360.347	0.54
360.477	20.54
360.607	-28.46
360.737	-11.46
360.866	-26.46
360.996	-20.46
361.126	-26.46
361.256	13.54
361.386	-15.46
361.516	17.54
361.645	-17.46
361.775	-6.46
361.905	-12.46
362.035	15.54
362.165	11.54
362.294	9.54
362.424	15.54
362.554	11.54
362.684	-23.46
362.813	-1.46
362.943	2.54
363.073	-4.46
363.203	6.54
363.332	-18.46
363.462	-19.46
363.592	3.54
363.721	-3.46
363.851	-2.46
363.981	11.54
364.111	-2.46
364.24	-8.46
364.37	-10.46
364.5	15.54
364.629	11.54
364.759	-6.46
364.888	-16.46
365.018	2.54
365.148	3.54
365.277	8.54
365.407	12.54
365.537	14.54
365.666	11.54
365.796	1.54
365.925	2.54
366.055	5.54
366.184	-5.46
366.314	-4.46
366.444	12.54
366.573	-17.46
366.703	-12.46
366.832	3.54
366.962	-1.46
367.091	10.54
367.221	1.54
367.35	-1.46
367.48	27.54
367.609	11.54
367.739	-0.46
367.868	-10.46
367.998	17.54
368.127	26.54
368.257	3.54
368.386	15.54
368.516	24.54
368.645	-13.46
368.775	11.54
368.904	10.54
369.033	-6.46
369.163	-2.46
369.292	5.54
369.422	9.54
369.551	-2.46
369.68	-3.46
369.81	-3.46
369.939	-18.46
370.069	10.54
370.198	-12.46
370.327	-7.46
370.457	-8.46
370.586	5.54
370.715	-10.46
370.845	-8.46
370.974	11.54
371.103	-4.46
371.233	14.54
371.362	-3.46
371.491	-3.46
371.621	21.54
371.75	2.54
371.879	-16.46
372.008	-12.46
372.138	-14.46
372.267	8.54
372.396	2.54
372.525	-13.46
372.655	-0.46
372.784	0.54
372.913	-19.46
373.042	5.54
373.172	-2.46
373.301	-36.46
373.43	-20.46
373.559	-9.46
373.688	13.54
373.818	8.54
373.947	19.54
374.076	1.54
374.205	10.54
374.334	-4.46
374.463	-15.46
374.593	7.54
374.722	8.54
374.851	3.54
374.98	-4.46
375.109	-11.46
375.238	8.54
375.367	19.54
375.496	-12.46
375.625	-15.46
375.755	-8.46
375.884	-2.46
376.013	8.54
376.142	-13.46
376.271	-12.46
376.4	-9.46
376.529	-12.46
376.658	4.54
376.787	8.54
376.916	0.54
377.045	-6.46
377.174	-10.46
377.303	-11.46
377.432	21.54
377.561	25.54
377.69	9.54
377.819	6.54
377.948	-2.46
378.077	-11.46
378.206	-11.46
378.335	-12.46
378.464	-5.46
378.593	11.54
378.722	-8.46
378.851	-4.46
378.98	12.54
379.108	-7.46
379.237	0.54
379.366	-7.46
379.495	13.54
379.624	7.54
379.753	-6.46
379.882	-13.46
380.011	-32.46
380.14	-28.46
380.268	-12.46
380.397	2.54
380.526	29.54
380.655	-25.46
380.784	-18.46
380.913	-7.46
381.041	-2.46
381.17	-27.46
381.299	15.54
381.428	-0.46
381.557	11.54
381.685	-8.46
381.814	11.54
381.943	2.54
382.072	-18.46
382.2	-18.46
382.329	0.54
382.458	1.54
382.587	7.54
382.715	5.54
382.844	6.54
382.973	0.54
383.102	-5.46
383.23	15.54
383.359	-20.46
383.488	10.54
383.616	-3.46
383.745	-28.46
383.874	-8.46
384.003	-7.46
384.131	-4.46
384.26	-0.46
384.389	-0.46
384.517	-0.46
384.646	-25.46
384.774	-7.46
384.903	4.54
385.032	12.54
385.16	-1.46
385.289	3.54
385.418	-13.46
385.546	-10.46
385.675	0.54
385.803	5.54
385.932	18.54
386.06	-15.46
386.189	16.54
386.318	-9.46
386.446	-14.46
386.575	-0.46
386.703	13.54
386.832	-19.46
386.96	-26.46
387.089	10.54
387.217	0.54
387.346	-1.46
387.474	-8.46
387.603	-17.46
387.731	1.54
387.86	13.54
387.988	-12.46
388.117	12.54
388.245	-10.46
388.374	-4.46
388.502	7.54
388.631	0.54
388.759	-1.46
388.888	-3.46
389.016	-23.46
389.144	-0.46
389.273	0.54
389.401	-13.46
389.53	-17.46
389.658	-0.46
389.786	-32.46
389.915	-11.46
390.043	-18.46
390.172	15.54
390.3	27.54
390.428	-0.46
390.557	-8.46
390.685	-12.46
390.813	-3.46
390.942	10.54
391.07	2.54
391.198	-10.46
391.327	-13.46
391.455	-12.46
391.583	17.54
391.712	0.54
391.84	8.54
391.968	-1.46
392.096	-10.46
392.225	-14.46
392.353	7.54
392.481	0.54
392.609	15.54
392.738	-0.46
392.866	8.54
392.994	-5.46
393.122	-2.46
393.251	0.54
393.379	-15.46
393.507	-29.46
393.635	2.54
393.764	8.54
393.892	16.54
394.02	-6.46
394.148	7.54
394.276	-1.46
394.404	26.54
394.533	-9.46
394.661	-14.46
394.789	3.54
394.917	11.54
395.045	-2.46
395.173	-22.46
395.302	-2.46
395.43	5.54
395.558	-1.46
395.686	8.54
395.814	13.54
395.942	-7.46
396.07	-8.46
396.198	12.54
396.326	10.54
396.454	1.54
396.582	7.54
396.711	2.54
396.839	12.54
396.967	-7.46
397.095	2.54
397.223	23.54
397.351	1.54
397.479	17.54
397.607	-2.46
397.735	13.54
397.863	12.54
397.991	3.54
398.119	4.54
398.247	-14.46
398.375	-2.46
398.503	12.54
398.631	8.54
398.759	1.54
398.887	7.54
399.015	-16.46
399.143	-0.46
399.271	0.54
399.399	2.54
399.526	20.54
399.654	10.54
399.782	-19.46
399.91	9.54
400.038	9.54
400.166	1.54
400.294	-10.46
400.422	-10.46
400.55	24.54
400.678	0.54
400.805	11.54
400.933	17.54
401.061	9.54
401.189	-1.46
401.317	22.54
401.445	6.54
401.573	0.54
401.7	-21.46
401.828	-7.46
401.956	-0.46
402.084	21.54
402.212	6.54
402.34	4.54
402.467	10.54
402.595	13.54
402.723	-2.46
402.851	11.54
402.978	-1.46
403.106	25.54
403.234	-10.46
403.362	20.54
403.489	-3.46
403.617	14.54
403.745	-5.46
403.873	-18.46
404	5.54
404.128	5.54
404.256	-3.46
404.384	11.54
404.511	1.54
404.639	-12.46
404.767	-25.46
404.894	-1.46
405.022	-5.46
405.15	13.54
405.277	1.54
405.405	-16.46
405.533	-2.46
405.66	-2.46
405.788	-22.46
405.916	-17.46
406.043	-9.46
406.171	-9.46
406.299	4.54
406.426	4.54
406.554	-2.46
406.681	11.54
406.809	-10.46
406.937	5.54
407.064	-23.46
407.192	4.54
407.319	2.54
407.447	11.54
407.574	21.54
407.702	-3.46
407.83	-4.46
407.957	-14.46
408.085	-13.46
408.212	-7.46
408.34	-3.46
408.467	-15.46
408.595	-16.46
408.722	15.54
408.85	-1.46
408.977	-7.46
409.105	-16.46
409.232	-19.46
409.36	-6.46
409.487	11.54
409.615	11.54
409.742	29.54
409.87	22.54
409.997	35.54
410.125	25.54
410.252	36.54
410.379	32.54
410.507	7.54
410.634	5.54
410.762	2.54
410.889	9.54
411.017	-7.46
411.144	4.54
411.271	-11.46
411.399	-6.46
411.526	-1.46
411.653	1.54
411.781	14.54
411.908	-4.46
412.036	-9.46
412.163	29.54
412.29	19.54
412.418	-5.46
412.545	0.54
412.672	-10.46
412.8	27.54
412.927	0.54
413.054	20.54
413.182	11.54
413.309	3.54
413.436	-2.46
413.564	-8.46
413.691	-1.46
413.818	17.54
413.945	-9.46
414.073	-1.46
414.2	-5.46
414.327	-12.46
414.454	7.54
414.582	4.54
414.709	-13.46
414.836	-21.46
414.963	-7.46
415.091	-1.46
415.218	-5.46
415.345	-7.46
415.472	11.54
415.6	-10.46
415.727	-7.46
415.854	1.54
415.981	-3.46
416.108	7.54
416.236	8.54
416.363	8.54
416.49	-11.46
416.617	0.54
416.744	17.54
416.871	4.54
416.998	-23.46
417.126	-2.46
417.253	-13.46
417.38	6.54
417.507	-10.46
417.634	18.54
417.761	6.54
417.888	6.54
418.015	9.54
418.143	-5.46
418.27	9.54
418.397	-12.46
418.524	3.54
418.651	0.54
418.778	17.54
418.905	13.54
419.032	-3.46
419.159	-7.46
419.286	22.54
419.413	17.54
419.54	18.54
419.667	-9.46
419.794	-12.46
419.921	12.54
420.048	13.54
420.175	14.54
420.302	-16.46
420.429	-16.46
420.556	-2.46
420.683	-16.46
420.81	-2.46
420.937	26.54
421.064	26.54
421.191	2.54
421.318	17.54
421.445	23.54
421.572	-1.46
421.699	15.54
421.826	16.54
421.953	5.54
422.08	-17.46
422.207	-4.46
422.334	-1.46
422.461	19.54
422.588	-4.46
422.714	-3.46
422.841	-3.46
422.968	1.54
423.095	3.54
423.222	0.54
423.349	-10.46
423.476	-5.46
423.603	-23.46
423.729	-9.46
423.856	1.54
423.983	4.54
424.11	-21.46
424.237	-7.46
424.364	9.54
424.491	-1.46
424.617	-19.46
424.744	-17.46
424.871	13.54
424.998	18.54
425.125	-22.46
425.251	-8.46
425.378	-0.46
425.505	5.54
425.632	-0.46
425.758	-5.46
425.885	5.54
426.012	13.54
426.139	26.54
426.266	-4.46
426.392	6.54
426.519	19.54
426.646	-6.46
426.772	4.54
426.899	-7.46
427.026	2.54
427.153	4.54
427.279	17.54
427.406	-10.46
427.533	11.54
427.659	6.54
427.786	-5.46
427.913	14.54
428.039	-6.46
428.166	9.54
428.293	-0.46
428.419	16.54
428.546	-7.46
428.673	-14.46
428.799	-14.46
428.926	-24.46
429.053	6.54
429.179	-1.46
429.306	4.54
429.433	9.54
429.559	2.54
429.686	-15.46
429.812	-19.46
429.939	-7.46
430.066	-5.46
430.192	-7.46
430.319	17.54
430.445	-4.46
430.572	-9.46
430.699	0.54
430.825	0.54
430.952	-11.46
431.078	4.54
431.205	7.54
431.331	-16.46
431.458	-4.46
431.584	11.54
431.711	7.54
431.837	-4.46
431.964	10.54
432.09	-7.46
432.217	-28.46
432.343	6.54
432.47	4.54
432.596	1.54
432.723	-23.46
432.849	-7.46
432.976	6.54
433.102	17.54
433.229	-6.46
433.355	21.54
433.482	67.54
433.608	141.54
433.735	139.54
433.861	128.54
433.987	154.54
434.114	212.54
434.24	192.54
434.367	55.54
434.493	-5.46
434.62	6.54
434.746	27.54
434.872	-1.46
434.999	9.54
435.125	7.54
435.252	-3.46
435.378	-0.46
435.504	1.54
435.631	4.54
435.757	-2.46
435.883	4.54
436.01	-8.46
436.136	8.54
436.262	14.54
436.389	-3.46
436.515	13.54
436.641	-3.46
436.768	2.54
436.894	4.54
437.02	-4.46
437.147	1.54
437.273	13.54
437.399	-2.46
437.526	2.54
437.652	4.54
437.778	-0.46
437.904	-6.46
438.031	-8.46
438.157	-11.46
438.283	8.54
438.409	-7.46
438.536	-15.46
438.662	8.54
438.788	-4.46
438.914	11.54
439.041	-4.46
439.167	12.54
439.293	-6.46
439.419	18.54
439.546	11.54
439.672	13.54
439.798	-0.46
439.924	17.54
440.05	35.54
440.177	17.54
440.303	-2.46
440.429	-0.46
440.555	11.54
440.681	-0.46
440.807	5.54
440.934	1.54
441.06	-14.46
441.186	-14.46
441.312	-5.46
441.438	14.54
441.564	15.54
441.69	17.54
441.816	19.54
441.943	-0.46
442.069	9.54
442.195	26.54
442.321	17.54
442.447	-17.46
442.573	1.54
442.699	-9.46
442.825	-22.46
442.951	5.54
443.077	8.54
443.203	10.54
443.33	3.54
443.456	-5.46
443.582	14.54
443.708	6.54
443.834	13.54
443.96	23.54
444.086	-9.46
444.212	21.54
444.338	15.54
444.464	11.54
444.59	16.54
444.716	7.54
444.842	-0.46
444.968	-3.46
445.094	-6.46
445.22	6.54
445.346	-4.46
445.472	-8.46
445.598	0.54
445.724	3.54
445.85	8.54
445.976	9.54
446.102	11.54
446.228	14.54
446.354	-2.46
446.48	1.54
446.605	3.54
446.731	-12.46
446.857	2.54
446.983	-7.46
447.109	-6.46
447.235	-10.46
447.361	-6.46
447.487	0.54
447.613	11.54
447.739	-22.46
447.865	-1.46
447.99	11.54
448.116	7.54
448.242	5.54
448.368	3.54
448.494	6.54
448.62	-15.46
448.746	-4.46
448.872	20.54
448.997	-6.46
449.123	-12.46
449.249	9.54
449.375	5.54
449.501	-3.46
449.627	-31.46
449.752	25.54
449.878	4.54
450.004	-11.46
450.13	9.54
450.256	6.54
450.381	7.54
450.507	23.54
450.633	0.54
450.759	22.54
450.884	-24.46
451.01	14.54
451.136	10.54
451.262	14.54
451.388	14.54
451.513	-4.46
451.639	3.54
451.765	-2.46
451.89	9.54
452.016	0.54
452.142	-4.46
452.268	24.54
452.393	-4.46
452.519	13.54
452.645	-0.46
452.771	-8.46
452.896	-9.46
453.022	-18.46
453.148	8.54
453.273	28.54
453.399	17.54
453.525	-10.46
453.65	-11.46
453.776	2.54
453.902	18.54
454.027	7.54
454.153	16.54
454.279	1.54
454.404	5.54
454.53	15.54
454.656	12.54
454.781	4.54
454.907	-21.46
455.032	4.54
455.158	6.54
455.284	18.54
455.409	15.54
455.535	11.54
455.66	-8.46
455.786	5.54
455.912	-6.46
456.037	-11.46
456.163	3.54
456.288	12.54
456.414	-20.46
456.539	-19.46
456.665	24.54
456.791	9.54
456.916	-0.46
457.042	2.54
457.167	-4.46
457.293	9.54
457.418	-0.46
457.544	4.54
457.669	-6.46
457.795	1.54
457.92	-15.46
458.046	5.54
458.171	2.54
458.297	-32.46
458.422	-10.46
458.548	-20.46
458.673	5.54
458.799	5.54
458.924	-1.46
459.05	-5.46
459.175	2.54
459.301	4.54
459.426	13.54
459.552	1.54
459.677	-7.46
459.803	6.54
459.928	-2.46
460.053	0.54
460.179	-2.46
460.304	8.54
460.43	-4.46
460.555	-7.46
460.681	1.54
460.806	-9.46
460.931	-8.46
461.057	8.54
461.182	0.54
461.308	20.54
461.433	20.54
461.558	8.54
461.684	14.54
461.809	2.54
461.934	-1.46
462.06	9.54
462.185	-24.46
462.311	-9.46
462.436	12.54
462.561	3.54
462.687	-0.46
462.812	5.54
462.937	2.54
463.063	-8.46
463.188	-7.46
463.313	9.54
463.439	1.54
463.564	-6.46
463.689	3.54
463.814	5.54
463.94	-1.46
464.065	15.54
464.19	19.54
464.316	-15.46
464.441	-16.46
464.566	-15.46
464.692	-3.46
464.817	7.54
464.942	1.54
465.067	7.54
465.193	-17.46
465.318	-6.46
465.443	-1.46
465.568	-10.46
465.694	0.54
465.819	11.54
465.944	-0.46
466.069	11.54
466.194	-0.46
466.32	6.54
466.445	-2.46
466.57	-7.46
466.695	-16.46
466.82	8.54
466.946	8.54
467.071	7.54
467.196	0.54
467.321	17.54
467.446	-2.46
467.572	-2.46
467.697	-14.46
467.822	-2.46
467.947	15.54
468.072	12.54
468.197	-7.46
468.323	-13.46
468.448	-8.46
468.573	-6.46
468.698	-26.46
468.823	7.54
468.948	-1.46
469.073	1.54
469.198	-2.46
469.324	9.54
469.449	2.54
469.574	6.54
469.699	0.54
469.824	-11.46
469.949	3.54
470.074	22.54
470.199	38.54
470.324	-8.46
470.449	15.54
470.574	1.54
470.7	13.54
470.825	13.54
470.95	33.54
471.075	-18.46
471.2	-10.46
471.325	13.54
471.45	8.54
471.575	-1.46
471.7	1.54
471.825	-5.46
471.95	-10.46
472.075	-9.46
472.2	-14.46
472.325	-18.46
472.45	-8.46
472.575	-4.46
472.7	3.54
472.825	11.54
472.95	17.54
473.075	-0.46
473.2	6.54
473.325	2.54
473.45	-9.46
473.575	-19.46
473.7	0.54
473.825	1.54
473.95	4.54
474.075	5.54
474.2	3.54
474.325	-15.46
474.45	18.54
474.574	17.54
474.699	-1.46
474.824	8.54
474.949	1.54
475.074	-11.46
475.199	23.54
475.324	18.54
475.449	-0.46
475.574	2.54
475.699	1.54
475.824	-1.46
475.949	9.54
476.073	-8.46
476.198	-16.46
476.323	-11.46
476.448	3.54
476.573	-10.46
476.698	8.54
476.823	21.54
476.947	4.54
477.072	5.54
477.197	8.54
477.322	12.54
477.447	17.54
477.572	6.54
477.697	9.54
477.821	15.54
477.946	7.54
478.071	6.54
478.196	12.54
478.321	13.54
478.445	-4.46
478.57	4.54
478.695	2.54
478.82	14.54
478.945	3.54
479.069	-4.46
479.194	-5.46
479.319	19.54
479.444	12.54
479.569	-0.46
479.693	8.54
479.818	23.54
479.943	27.54
480.068	26.54
480.192	9.54
480.317	9.54
480.442	1.54
480.567	6.54
480.691	-6.46
480.816	-7.46
480.941	6.54
481.066	11.54
481.19	23.54
481.315	2.54
481.44	14.54
481.564	-17.46
481.689	12.54
481.814	19.54
481.938	18.54
482.063	-2.46
482.188	5.54
482.313	12.54
482.437	-15.46
482.562	18.54
482.687	6.54
482.811	12.54
482.936	15.54
483.061	8.54
483.185	0.54
483.31	21.54
483.435	7.54
483.559	18.54
483.684	11.54
483.808	24.54
483.933	-0.46
484.058	3.54
484.182	11.54
484.307	8.54
484.432	7.54
484.556	10.54
484.681	11.54
484.805	9.54
484.93	15.54
485.055	41.54
485.179	64.54
485.304	96.54
485.428	373.54
485.553	1283.54
485.678	1797.54
485.802	1664.54
485.927	1872.54
486.051	2769.54
486.176	1678.54
486.3	457.54
486.425	148.54
486.549	71.54
486.674	46.54
486.799	36.54
486.923	19.54
487.048	16.54
487.172	1.54
487.297	8.54
487.421	15.54
487.546	13.54
487.67	24.54
487.795	4.54
487.919	11.54
488.044	9.54
488.168	12.54
488.293	4.54
488.417	3.54
488.542	17.54
488.666	30.54
488.791	28.54
488.915	15.54
489.04	17.54
489.164	26.54
489.289	15.54
489.413	-17.46
489.538	6.54
489.662	24.54
489.786	2.54
489.911	24.54
490.035	11.54
490.16	0.54
490.284	-16.46
490.409	-18.46
490.533	16.54
490.658	10.54
490.782	0.54
490.906	5.54
491.031	11.54
491.155	12.54
491.28	10.54
491.404	2.54
491.528	23.54
491.653	-0.46
491.777	27.54
491.902	-3.46
492.026	27.54
492.15	21.54
492.275	23.54
492.399	8.54
492.524	23.54
492.648	25.54
492.772	-0.46
492.897	11.54
493.021	7.54
493.145	19.54
493.27	2.54
493.394	5.54
493.518	17.54
493.643	-7.46
493.767	19.54
493.891	-5.46
494.016	-1.46
494.14	-7.46
494.264	-4.46
494.389	14.54
494.513	14.54
494.637	-6.46
494.762	8.54
494.886	7.54
495.01	-3.46
495.134	16.54
495.259	7.54
495.383	8.54
495.507	8.54
495.632	30.54
495.756	32.54
495.88	24.54
496.004	-4.46
496.129	1.54
496.253	19.54
496.377	-2.46
496.501	16.54
496.626	3.54
496.75	15.54
496.874	11.54
496.998	9.54
497.123	12.54
497.247	-18.46
497.371	-0.46
497.495	2.54
497.62	5.54
497.744	-8.46
497.868	5.54
497.992	7.54
498.116	1.54
498.241	8.54
498.365	1.54
498.489	1.54
498.613	32.54
498.737	9.54
498.862	9.54
498.986	-8.46
499.11	13.54
499.234	-2.46
499.358	-5.46
499.482	16.54
499.607	2.54
499.731	4.54
499.855	9.54
499.979	6.54
500.103	12.54
500.227	15.54
500.351	-4.46
500.476	8.54
500.6	9.54
500.724	7.54
500.848	14.54
500.972	6.54
501.096	5.54
501.22	36.54
501.344	0.54
501.469	9.54
501.593	-3.46
501.717	5.54
501.841	14.54
501.965	12.54
502.089	-2.46
502.213	1.54
502.337	7.54
502.461	-3.46
502.585	0.54
502.709	17.54
502.834	-4.46
502.958	12.54
503.082	-4.46
503.206	-5.46
503.33	23.54
503.454	2.54
503.578	3.54
503.702	1.54
503.826	4.54
503.95	20.54
504.074	5.54
504.198	6.54
504.322	-2.46
504.446	-11.46
504.57	16.54
504.694	14.54
504.818	-1.46
504.942	30.54
505.066	11.54
505.19	11.54
505.314	19.54
505.438	12.54
505.562	16.54
505.686	4.54
505.81	20.54
505.934	8.54
506.058	-7.46
506.182	18.54
506.306	6.54
506.43	-0.46
506.554	-11.46
506.678	-1.46
506.802	-3.46
506.926	-4.46
507.05	24.54
507.174	13.54
507.298	13.54
507.422	-17.46
507.546	1.54
507.67	17.54
507.794	-18.46
507.918	4.54
508.042	17.54
508.165	-16.46
508.289	-21.46
508.413	-3.46
508.537	6.54
508.661	23.54
508.785	3.54
508.909	-7.46
509.033	2.54
509.157	4.54
509.281	-0.46
509.405	-10.46
509.528	19.54
509.652	11.54
509.776	-7.46
509.9	16.54
510.024	-0.46
510.148	12.54
510.272	3.54
510.396	4.54
510.519	-1.46
510.643	-7.46
510.767	3.54
510.891	10.54
511.015	-11.46
511.139	-12.46
511.263	9.54
511.386	5.54
511.51	1.54
511.634	-3.46
511.758	7.54
511.882	6.54
512.006	0.54
512.129	5.54
512.253	20.54
512.377	0.54
512.501	3.54
512.625	17.54
512.748	-6.46
512.872	2.54
512.996	4.54
513.12	5.54
513.244	1.54
513.367	1.54
513.491	11.54
513.615	-8.46
513.739	-12.46
513.862	-15.46
513.986	-14.46
514.11	13.54
514.234	-15.46
514.358	10.54
514.481	27.54
514.605	-2.46
514.729	3.54
514.853	18.54
514.976	19.54
515.1	7.54
515.224	20.54
515.348	-7.46
515.471	4.54
515.595	1.54
515.719	-0.46
515.842	13.54
515.966	-4.46
516.09	17.54
516.214	7.54
516.337	27.54
516.461	12.54
516.585	22.54
516.708	27.54
516.832	24.54
516.956	6.54
517.08	8.54
517.203	-11.46
517.327	8.54
517.451	32.54
517.574	45.54
517.698	16.54
517.822	11.54
517.945	11.54
518.069	11.54
518.193	42.54
518.316	15.54
518.44	25.54
518.564	13.54
518.687	23.54
518.811	21.54
518.935	47.54
519.058	16.54
519.182	20.54
519.306	32.54
519.429	19.54
519.553	30.54
519.676	16.54
519.8	1.54
519.924	1.54
520.047	6.54
520.171	11.54
520.294	4.54
520.418	14.54
520.542	5.54
520.665	3.54
520.789	-2.46
520.913	-10.46
521.036	-12.46
521.16	-2.46
521.283	4.54
521.407	2.54
521.53	5.54
521.654	-22.46
521.778	9.54
521.901	-2.46
522.025	-13.46
522.148	-8.46
522.272	0.54
522.395	13.54
522.519	26.54
522.643	-12.46
522.766	10.54
522.89	14.54
523.013	3.54
523.137	-10.46
523.26	-12.46
523.384	6.54
523.507	-2.46
523.631	2.54
523.754	13.54
523.878	1.54
524.002	7.54
524.125	-7.46
524.249	-7.46
524.372	-4.46
524.496	8.54
524.619	6.54
524.743	5.54
524.866	-11.46
524.99	-9.46
525.113	-19.46
525.237	-0.46
525.36	14.54
525.484	15.54
525.607	-14.46
525.731	-11.46
525.854	15.54
525.978	7.54
526.101	-10.46
526.224	0.54
526.348	4.54
526.471	11.54
526.595	19.54
526.718	-2.46
526.842	-4.46
526.965	11.54
527.089	23.54
527.212	0.54
527.336	-7.46
527.459	22.54
527.582	14.54
527.706	16.54
527.829	18.54
527.953	3.54
528.076	-6.46
528.2	-5.46
528.323	-0.46
528.446	-0.46
528.57	7.54
528.693	21.54
528.817	1.54
528.94	9.54
529.064	19.54
529.187	-16.46
529.31	1.54
529.434	-13.46
529.557	-2.46
529.68	5.54
529.804	11.54
529.927	7.54
530.051	-17.46
530.174	-19.46
530.297	7.54
530.421	4.54
530.544	20.54
530.668	21.54
530.791	-8.46
530.914	1.54
531.038	-15.46
531.161	-13.46
531.284	15.54
531.408	16.54
531.531	-5.46
531.654	-9.46
531.778	7.54
531.901	-8.46
532.024	1.54
532.148	0.54
532.271	12.54
532.394	31.54
532.518	20.54
532.641	26.54
532.764	15.54
532.888	16.54
533.011	5.54
533.134	-3.46
533.258	14.54
533.381	1.54
533.504	-4.46
533.628	-8.46
533.751	5.54
533.874	5.54
533.997	-12.46
534.121	-4.46
534.244	-12.46
534.367	1.54
534.491	-6.46
534.614	1.54
534.737	-4.46
534.86	3.54
534.984	7.54
535.107	-5.46
535.23	-3.46
535.354	5.54
535.477	-13.46
535.6	-5.46
535.723	11.54
535.847	7.54
535.97	1.54
536.093	0.54
536.216	-13.46
536.34	17.54
536.463	0.54
536.586	-3.46
536.709	17.54
536.833	4.54
536.956	20.54
537.079	-6.46
537.202	11.54
537.325	-2.46
537.449	-0.46
537.572	5.54
537.695	1.54
537.818	18.54
537.941	5.54
538.065	-2.46
538.188	-0.46
538.311	8.54
538.434	-0.46
538.558	0.54
538.681	12.54
538.804	7.54
538.927	-0.46
539.05	-6.46
539.173	-12.46
539.297	-13.46
539.42	-2.46
539.543	5.54
539.666	13.54
539.789	10.54
539.913	-5.46
540.036	6.54
540.159	12.54
540.282	-26.46
540.405	-3.46
540.528	-2.46
540.651	0.54
540.775	3.54
540.898	18.54
541.021	11.54
541.144	15.54
541.267	12.54
541.39	-8.46
541.513	1.54
541.637	-2.46
541.76	-4.46
541.883	-10.46
542.006	9.54
542.129	10.54
542.252	-0.46
542.375	-4.46
542.498	-0.46
542.622	12.54
542.745	15.54
542.868	-6.46
542.991	-0.46
543.114	11.54
543.237	25.54
543.36	29.54
543.483	3.54
543.606	11.54
543.73	17.54
543.853	-13.46
543.976	0.54
544.099	4.54
544.222	5.54
544.345	-6.46
544.468	-3.46
544.591	5.54
544.714	-13.46
544.837	9.54
544.96	7.54
545.083	18.54
545.206	17.54
545.329	16.54
545.453	-4.46
545.576	2.54
545.699	7.54
545.822	3.54
545.945	20.54
546.068	-3.46
546.191	10.54
546.314	-1.46
546.437	3.54
546.56	23.54
546.683	-0.46
546.806	5.54
546.929	12.54
547.052	-18.46
547.175	-6.46
547.298	0.54
547.421	-14.46
547.544	-4.46
547.667	5.54
547.79	16.54
547.913	-11.46
548.036	-5.46
548.159	7.54
548.282	7.54
548.405	-14.46
548.528	3.54
548.651	-6.46
548.774	1.54
548.897	9.54
549.02	34.54
549.143	19.54
549.266	11.54
549.389	12.54
549.512	-6.46
549.635	19.54
549.758	15.54
549.881	10.54
550.004	7.54
550.127	0.54
550.25	-7.46
550.373	-19.46
550.496	11.54
550.619	13.54
550.742	-8.46
550.865	-0.46
550.988	7.54
551.111	20.54
551.234	21.54
551.356	-1.46
551.479	-16.46
551.602	3.54
551.725	11.54
551.848	8.54
551.971	24.54
552.094	18.54
552.217	6.54
552.34	2.54
552.463	-13.46
552.586	11.54
552.709	9.54
552.832	-0.46
552.955	10.54
553.077	25.54
553.2	-0.46
553.323	-16.46
553.446	7.54
553.569	-5.46
553.692	-8.46
553.815	-14.46
553.938	16.54
554.061	14.54
554.184	-2.46
554.306	4.54
554.429	15.54
554.552	5.54
554.675	-12.46
554.798	7.54
554.921	10.54
555.044	-5.46
555.167	-3.46
555.29	2.54
555.412	0.54
555.535	4.54
555.658	-6.46
555.781	7.54
555.904	5.54
556.027	-3.46
556.15	-1.46
556.272	-3.46
556.395	22.54
556.518	-12.46
556.641	3.54
556.764	19.54
556.887	6.54
557.01	-1.46
557.132	-7.46
557.255	-5.46
557.378	6.54
557.501	-5.46
557.624	0.54
557.747	6.54
557.869	14.54
557.992	18.54
558.115	5.54
558.238	-3.46
558.361	11.54
558.483	9.54
558.606	0.54
558.729	2.54
558.852	7.54
558.975	23.54
559.098	15.54
559.22	5.54
559.343	-3.46
559.466	0.54
559.589	0.54
559.712	12.54
559.834	1.54
559.957	-11.46
560.08	10.54
560.203	28.54
560.325	15.54
560.448	26.54
560.571	-1.46
560.694	-8.46
560.817	25.54
560.939	6.54
561.062	-15.46
561.185	-6.46
561.308	10.54
561.43	-8.46
561.553	0.54
561.676	-9.46
561.799	14.54
561.921	4.54
562.044	1.54
562.167	-4.46
562.29	17.54
562.413	20.54
562.535	9.54
562.658	-14.46
562.781	-2.46
562.903	16.54
563.026	16.54
563.149	15.54
563.272	11.54
563.394	5.54
563.517	-11.46
563.64	5.54
563.763	-5.46
563.885	21.54
564.008	9.54
564.131	5.54
564.254	-15.46
564.376	-5.46
564.499	-25.46
564.622	3.54
564.744	2.54
564.867	6.54
564.99	1.54
565.113	2.54
565.235	8.54
565.358	-7.46
565.481	-17.46
565.603	-7.46
565.726	-7.46
565.849	27.54
565.971	-2.46
566.094	-7.46
566.217	8.54
566.34	-18.46
566.462	-2.46
566.585	13.54
566.708	6.54
566.83	3.54
566.953	16.54
567.076	1.54
567.198	7.54
567.321	-10.46
567.444	6.54
567.566	10.54
567.689	-4.46
567.812	0.54
567.934	14.54
568.057	-6.46
568.18	12.54
568.302	13.54
568.425	-8.46
568.548	-3.46
568.67	7.54
568.793	3.54
568.916	8.54
569.038	8.54
569.161	-7.46
569.283	6.54
569.406	-7.46
569.529	-10.46
569.651	-4.46
569.774	0.54
569.897	-3.46
570.019	2.54
570.142	-1.46
570.265	5.54
570.387	-19.46
570.51	-11.46
570.632	5.54
570.755	6.54
570.878	0.54
571	1.54
571.123	-0.46
571.246	4.54
571.368	4.54
571.491	4.54
571.613	-11.46
571.736	-15.46
571.859	-4.46
571.981	-1.46
572.104	0.54
572.226	-3.46
572.349	-7.46
572.472	15.54
572.594	21.54
572.717	2.54
572.839	-4.46
572.962	-0.46
573.085	10.54
573.207	6.54
573.33	-10.46
573.452	9.54
573.575	23.54
573.697	10.54
573.82	-1.46
573.943	-5.46
574.065	13.54
574.188	1.54
574.31	20.54
574.433	-3.46
574.555	-2.46
574.678	1.54
574.801	13.54
574.923	10.54
575.046	10.54
575.168	2.54
575.291	-20.46
575.413	0.54
575.536	0.54
575.659	20.54
575.781	2.54
575.904	0.54
576.026	17.54
576.149	-0.46
576.271	11.54
576.394	15.54
576.516	9.54
576.639	8.54
576.761	-14.46
576.884	-9.46
577.007	0.54
577.129	10.54
577.252	3.54
577.374	4.54
577.497	-14.46
577.619	-11.46
577.742	-2.46
577.864	20.54
577.987	23.54
578.109	18.54
578.232	14.54
578.354	25.54
578.477	-11.46
578.599	-21.46
578.722	-5.46
578.844	-0.46
578.967	4.54
579.089	7.54
579.212	-3.46
579.334	14.54
579.457	0.54
579.579	-12.46
579.702	-19.46
579.824	-4.46
579.947	-16.46
580.069	-4.46
580.192	-19.46
580.314	6.54
580.437	-1.46
580.559	17.54
580.682	10.54
580.804	10.54
580.927	11.54
581.049	23.54
581.172	16.54
581.294	20.54
581.417	10.54
581.539	12.54
581.662	15.54
581.784	14.54
581.907	0.54
582.029	-14.46
582.152	5.54
582.274	6.54
582.396	3.54
582.519	9.54
582.641	-7.46
582.764	-13.46
582.886	0.54
583.009	-4.46
583.131	4.54
583.254	12.54
583.376	6.54
583.499	4.54
583.621	-4.46
583.743	11.54
583.866	16.54
583.988	18.54
584.111	21.54
584.233	8.54
584.356	17.54
584.478	3.54
584.601	-14.46
584.723	14.54
584.845	8.54
584.968	-8.46
585.09	-19.46
585.213	4.54
585.335	-7.46
585.458	-1.46
585.58	-3.46
585.702	0.54
585.825	1.54
585.947	-0.46
586.07	-8.46
586.192	-4.46
586.315	11.54
586.437	-18.46
586.559	-13.46
586.682	-19.46
586.804	3.54
586.927	-18.46
587.049	0.54
587.171	7.54
587.294	3.54
587.416	16.54
587.539	9.54
587.661	-0.46
587.783	13.54
587.906	1.54
588.028	-0.46
588.151	-3.46
588.273	4.54
588.395	-1.46
588.518	-1.46
588.64	12.54
588.763	20.54
588.885	19.54
589.007	5.54
589.13	-18.46
589.252	-0.46
589.375	12.54
589.497	-1.46
589.619	21.54
589.742	11.54
589.864	4.54
589.986	16.54
590.109	0.54
590.231	4.54
590.354	4.54
590.476	7.54
590.598	6.54
590.721	1.54
590.843	-4.46
590.965	2.54
591.088	0.54
591.21	-0.46
591.332	-4.46
591.455	-27.46
591.577	-0.46
591.7	8.54
591.822	8.54
591.944	24.54
592.067	-0.46
592.189	2.54
592.311	-6.46
592.434	-13.46
592.556	5.54
592.678	27.54
592.801	20.54
592.923	3.54
593.045	-13.46
593.168	11.54
593.29	3.54
593.412	15.54
593.535	2.54
593.657	5.54
593.779	-8.46
593.902	12.54
594.024	0.54
594.146	17.54
594.269	12.54
594.391	5.54
594.513	10.54
594.636	11.54
594.758	-15.46
594.88	29.54
595.003	22.54
595.125	3.54
595.247	6.54
595.37	8.54
595.492	4.54
595.614	28.54
595.737	6.54
595.859	-2.46
595.981	5.54
596.104	4.54
596.226	3.54
596.348	-6.46
596.471	-12.46
596.593	-4.46
596.715	-6.46
596.838	6.54
596.96	-14.46
597.082	6.54
597.204	13.54
597.327	-0.46
597.449	-10.46
597.571	10.54
597.694	17.54
597.816	16.54
597.938	4.54
598.061	-16.46
598.183	-6.46
598.305	5.54
598.427	9.54
598.55	5.54
598.672	18.54
598.794	12.54
598.917	-11.46
599.039	-7.46
599.161	2.54
599.283	3.54
599.406	15.54
599.528	2.54
599.65	26.54
599.773	18.54
599.895	18.54
600.017	22.54
600.139	-0.46
600.262	-8.46
600.384	-0.46
600.506	18.54
600.628	5.54
600.751	0.54
600.873	-8.46
600.995	-0.46
601.118	12.54
601.24	-3.46
601.362	15.54
601.484	2.54
601.607	0.54
601.729	15.54
601.851	-2.46
601.973	6.54
602.096	7.54
602.218	24.54
602.34	28.54
602.462	29.54
602.585	14.54
602.707	6.54
602.829	12.54
602.951	-2.46
603.074	-1.46
603.196	13.54
603.318	-13.46
603.44	26.54
603.563	11.54
603.685	-9.46
603.807	10.54
603.929	17.54
604.052	11.54
604.174	31.54
604.296	7.54
604.418	20.54
604.541	31.54
604.663	-0.46
604.785	-9.46
604.907	-8.46
605.03	-16.46
605.152	28.54
605.274	2.54
605.396	8.54
605.519	1.54
605.641	4.54
605.763	-3.46
605.885	5.54
606.008	-3.46
606.13	10.54
606.252	16.54
606.374	-27.46
606.496	-9.46
606.619	8.54
606.741	3.54
606.863	17.54
606.985	16.54
607.108	14.54
607.23	-10.46
607.352	-11.46
607.474	6.54
607.596	1.54
607.719	4.54
607.841	17.54
607.963	-3.46
608.085	-6.46
608.207	24.54
608.33	5.54
608.452	-4.46
608.574	-2.46
608.696	18.54
608.819	-0.46
608.941	-1.46
609.063	-6.46
609.185	7.54
609.307	7.54
609.43	23.54
609.552	-5.46
609.674	-14.46
609.796	3.54
609.918	21.54
610.041	-6.46
610.163	24.54
610.285	4.54
610.407	19.54
610.529	-13.46
610.652	1.54
610.774	4.54
610.896	-1.46
611.018	-6.46
611.14	-16.46
611.263	1.54
611.385	-2.46
611.507	18.54
611.629	0.54
611.751	2.54
611.873	18.54
611.996	4.54
612.118	2.54
612.24	-2.46
612.362	22.54
612.484	7.54
612.607	-0.46
612.729	3.54
612.851	8.54
612.973	5.54
613.095	2.54
613.218	20.54
613.34	13.54
613.462	21.54
613.584	17.54
613.706	1.54
613.828	10.54
613.951	0.54
614.073	-0.46
614.195	-15.46
614.317	36.54
614.439	23.54
614.561	2.54
614.684	11.54
614.806	12.54
614.928	7.54
615.05	-6.46
615.172	8.54
615.294	13.54
615.417	7.54
615.539	-15.46
615.661	-2.46
615.783	12.54
615.905	4.54
616.027	51.54
616.15	82.54
616.272	62.54
616.394	50.54
616.516	39.54
616.638	16.54
616.76	-8.46
616.883	0.54
617.005	-4.46
617.127	2.54
617.249	-8.46
617.371	8.54
617.493	-12.46
617.615	6.54
617.738	10.54
617.86	9.54
617.982	3.54
618.104	-4.46
618.226	-21.46
618.348	-17.46
618.471	11.54
618.593	-3.46
618.715	-6.46
618.837	-8.46
618.959	1.54
619.081	-8.46
619.203	2.54
619.326	-7.46
619.448	9.54
619.57	9.54
619.692	4.54
619.814	3.54
619.936	-3.46
620.058	11.54
620.181	4.54
620.303	1.54
620.425	5.54
620.547	-6.46
620.669	-6.46
620.791	12.54
620.913	8.54
621.036	-7.46
621.158	-4.46
621.28	13.54
621.402	-11.46
621.524	-8.46
621.646	2.54
621.768	-9.46
621.891	-22.46
622.013	4.54
622.135	-17.46
622.257	-0.46
622.379	-8.46
622.501	-0.46
622.623	8.54
622.745	8.54
622.868	5.54
622.99	-4.46
623.112	13.54
623.234	8.54
623.356	4.54
623.478	-19.46
623.6	-1.46
623.722	-15.46
623.845	-4.46
623.967	-4.46
624.089	16.54
624.211	5.54
624.333	16.54
624.455	3.54
624.577	5.54
624.699	9.54
624.822	3.54
624.944	-5.46
625.066	4.54
625.188	9.54
625.31	4.54
625.432	20.54
625.554	1.54
625.676	15.54
625.799	5.54
625.921	8.54
626.043	-10.46
626.165	-3.46
626.287	-18.46
626.409	7.54
626.531	-3.46
626.653	-9.46
626.775	6.54
626.898	4.54
627.02	-16.46
627.142	14.54
627.264	4.54
627.386	6.54
627.508	7.54
627.63	-6.46
627.752	-2.46
627.874	-15.46
627.997	-3.46
628.119	9.54
628.241	20.54
628.363	10.54
628.485	3.54
628.607	-16.46
628.729	6.54
628.851	4.54
628.973	-10.46
629.096	-16.46
629.218	0.54
629.34	2.54
629.462	0.54
629.584	5.54
629.706	-10.46
629.828	9.54
629.95	9.54
630.072	-13.46
630.195	11.54
630.317	-5.46
630.439	-6.46
630.561	0.54
630.683	-9.46
630.805	5.54
630.927	6.54
631.049	-8.46
631.171	-7.46
631.293	-0.46
631.416	-4.46
631.538	-8.46
631.66	-7.46
631.782	13.54
631.904	6.54
632.026	-6.46
632.148	-10.46
632.27	-10.46
632.392	-1.46
632.514	12.54
632.637	9.54
632.759	-15.46
632.881	-20.46
633.003	-2.46
633.125	-8.46
633.247	-1.46
633.369	-6.46
633.491	-10.46
633.613	8.54
633.735	-14.46
633.858	14.54
633.98	7.54
634.102	-16.46
634.224	6.54
634.346	8.54
634.468	13.54
634.59	4.54
634.712	8.54
634.834	8.54
634.956	-11.46
635.078	-11.46
635.201	-8.46
635.323	4.54
635.445	-12.46
635.567	-23.46
635.689	6.54
635.811	-3.46
635.933	-10.46
636.055	-7.46
636.177	4.54
636.299	11.54
636.421	-12.46
636.544	-8.46
636.666	1.54
636.788	14.54
636.91	18.54
637.032	4.54
637.154	13.54
637.276	38.54
637.398	16.54
637.52	16.54
637.642	9.54
637.764	12.54
637.887	-1.46
638.009	3.54
638.131	-11.46
638.253	-14.46
638.375	13.54
638.497	4.54
638.619	-7.46
638.741	-13.46
638.863	-25.46
638.985	-21.46
639.107	-0.46
639.23	-8.46
639.352	17.54
639.474	2.54
639.596	-17.46
639.718	-1.46
639.84	-2.46
639.962	-1.46
640.084	-0.46
640.206	-6.46
640.328	-22.46
640.45	9.54
640.573	7.54
640.695	9.54
640.817	10.54
640.939	19.54
641.061	-4.46
641.183	-5.46
641.305	-7.46
641.427	-4.46
641.549	-2.46
641.671	0.54
641.793	-4.46
641.915	-4.46
642.038	-14.46
642.16	1.54
642.282	4.54
642.404	2.54
642.526	10.54
642.648	3.54
642.77	-10.46
642.892	-22.46
643.014	8.54
643.136	2.54
643.258	7.54
643.381	20.54
643.503	7.54
643.625	-19.46
643.747	-24.46
643.869	-24.46
643.991	14.54
644.113	1.54
644.235	-21.46
644.357	-12.46
644.479	3.54
644.601	-7.46
644.723	-6.46
644.846	10.54
644.968	-5.46
645.09	9.54
645.212	-4.46
645.334	-1.46
645.456	1.54
645.578	26.54
645.7	9.54
645.822	9.54
645.944	-3.46
646.066	-6.46
646.188	-3.46
646.311	4.54
646.433	10.54
646.555	26.54
646.677	23.54
646.799	33.54
646.921	9.54
647.043	1.54
647.165	-16.46
647.287	3.54
647.409	12.54
647.531	12.54
647.654	-6.46
647.776	13.54
647.898	12.54
648.02	2.54
648.142	-2.46
648.264	-3.46
648.386	-7.46
648.508	-4.46
648.63	-14.46
648.752	17.54
648.874	4.54
648.997	0.54
649.119	16.54
649.241	-16.46
649.363	8.54
649.485	4.54
649.607	-20.46
649.729	-19.46
649.851	-12.46
649.973	-3.46
650.095	-6.46
650.217	-18.46
650.34	-8.46
650.462	-2.46
650.584	7.54
650.706	4.54
650.828	9.54
650.95	-26.46
651.072	2.54
651.194	-7.46
651.316	-1.46
651.438	0.54
651.56	-21.46
651.683	-12.46
651.805	12.54
651.927	-4.46
652.049	3.54
652.171	10.54
652.293	4.54
652.415	-4.46
652.537	4.54
652.659	-4.46
652.781	1.54
652.903	-2.46
653.026	10.54
653.148	5.54
653.27	9.54
653.392	9.54
653.514	7.54
653.636	0.54
653.758	6.54
653.88	1.54
654.002	-3.46
654.124	4.54
654.247	-8.46
654.369	1.54
654.491	7.54
654.613	-11.46
654.735	-12.46
654.857	18.54
654.979	11.54
655.101	11.54
655.223	11.54
655.345	17.54
655.468	1.54
655.59	-2.46
655.712	32.54
655.834	6.54
655.956	36.54
656.078	11.54
656.2	32.54
656.322	24.54
656.444	2.54
656.566	32.54
656.689	29.54
656.811	62.54
656.933	72.54
657.055	85.54
657.177	163.54
657.299	229.54
657.421	507.54
657.543	1883.54
657.665	12702.54
657.787	15192.54
657.91	15355.54
658.032	15654.54
658.154	4777.54
658.276	4673.54
658.398	1406.54
658.52	1091.54
658.642	519.54
658.764	603.54
658.886	283.54
659.009	417.54
659.131	235.54
659.253	315.54
659.375	166.54
659.497	263.54
659.619	155.54
659.741	211.54
659.863	99.54
659.985	146.54
660.108	112.54
660.23	152.54
660.352	70.54
660.474	147.54
660.596	66.54
660.718	113.54
660.84	46.54
660.962	123.54
661.084	65.54
661.207	95.54
661.329	51.54
661.451	67.54
661.573	54.54
661.695	97.54
661.817	59.54
661.939	104.54
662.061	67.54
662.184	48.54
662.306	26.54
662.428	65.54
662.55	50.54
662.672	55.54
662.794	49.54
662.916	55.54
663.038	17.54
663.161	69.54
663.283	48.54
663.405	65.54
663.527	28.54
663.649	66.54
663.771	21.54
663.893	55.54
664.015	48.54
664.138	36.54
664.26	35.54
664.382	51.54
664.504	6.54
664.626	17.54
664.748	14.54
664.87	32.54
664.992	30.54
665.115	42.54
665.237	22.54
665.359	35.54
665.481	19.54
665.603	42.54
665.725	3.54
665.847	8.54
665.97	29.54
666.092	36.54
666.214	33.54
666.336	33.54
666.458	31.54
666.58	28.54
666.702	14.54
666.825	22.54
666.947	3.54
667.069	23.54
667.191	14.54
667.313	32.54
667.435	-8.46
667.557	17.54
667.68	-8.46
667.802	6.54
667.924	7.54
668.046	45.54
668.168	12.54
668.29	41.54
668.412	9.54
668.535	34.54
668.657	-2.46
668.779	10.54
668.901	30.54
669.023	26.54
669.145	6.54
669.267	37.54
669.39	17.54
669.512	20.54
669.634	5.54
669.756	11.54
669.878	-0.46
670	17.54
670.123	19.54
670.245	35.54
670.367	27.54
670.489	32.54
670.611	10.54
670.733	8.54
670.856	2.54
670.978	17.54
671.1	27.54
671.222	21.54
671.344	-4.46
671.466	8.54
671.589	-3.46
671.711	4.54
671.833	2.54
671.955	19.54
672.077	0.54
672.199	39.54
672.322	29.54
672.444	27.54
672.566	27.54
672.688	9.54
672.81	17.54
672.932	24.54
673.055	17.54
673.177	3.54
673.299	8.54
673.421	12.54
673.543	8.54
673.665	34.54
673.788	14.54
673.91	15.54
674.032	-15.46
674.154	28.54
674.276	6.54
674.399	13.54
674.521	-10.46
674.643	28.54
674.765	18.54
674.887	8.54
675.009	-5.46
675.132	-5.46
675.254	7.54
675.376	27.54
675.498	11.54
675.62	41.54
675.743	18.54
675.865	37.54
675.987	-12.46
676.109	-4.46
676.231	16.54
676.354	19.54
676.476	-11.46
676.598	19.54
676.72	3.54
676.842	21.54
676.965	17.54
677.087	1.54
677.209	2.54
677.331	1.54
677.453	-10.46
677.576	-0.46
677.698	12.54
677.82	15.54
677.942	0.54
678.064	15.54
678.187	6.54
678.309	11.54
678.431	-3.46
678.553	20.54
678.675	12.54
678.798	20.54
678.92	12.54
679.042	2.54
679.164	-7.46
679.286	27.54
679.409	-3.46
679.531	-24.46
679.653	-9.46
679.775	-8.46
679.898	-6.46
680.02	-10.46
680.142	-18.46
680.264	23.54
680.386	-17.46
680.509	10.54
680.631	5.54
680.753	-15.46
680.875	-15.46
680.998	8.54
681.12	0.54
681.242	16.54
681.364	-13.46
681.486	6.54
681.609	-9.46
681.731	-7.46
681.853	-7.46
681.975	-2.46
682.098	21.54
682.22	10.54
682.342	-7.46
682.464	22.54
682.587	3.54
682.709	0.54
682.831	-15.46
682.953	-11.46
683.076	0.54
683.198	27.54
683.32	-4.46
683.442	1.54
683.565	8.54
683.687	0.54
683.809	8.54
683.931	-3.46
684.054	-18.46
684.176	8.54
684.298	12.54
684.42	-2.46
684.543	5.54
684.665	27.54
684.787	2.54
684.909	-3.46
685.032	-5.46
685.154	-5.46
685.276	-2.46
685.398	11.54
685.521	-14.46
685.643	19.54
685.765	-0.46
685.887	18.54
686.01	18.54
686.132	4.54
686.254	4.54
686.377	2.54
686.499	5.54
686.621	11.54
686.743	11.54
686.866	4.54
686.988	30.54
687.11	6.54
687.232	-4.46
687.355	-10.46
687.477	3.54
687.599	17.54
687.722	8.54
687.844	2.54
687.966	8.54
688.088	0.54
688.211	20.54
688.333	10.54
688.455	12.54
688.578	27.54
688.7	22.54
688.822	10.54
688.944	-10.46
689.067	27.54
689.189	3.54
689.311	-1.46
689.434	7.54
689.556	11.54
689.678	13.54
689.801	3.54
689.923	7.54
690.045	24.54
690.167	7.54
690.29	16.54
690.412	3.54
690.534	12.54
690.657	-4.46
690.779	-3.46
690.901	14.54
691.024	15.54
691.146	15.54
691.268	-9.46
691.391	16.54
691.513	2.54
691.635	9.54
691.758	24.54
691.88	11.54
692.002	7.54
692.125	9.54
692.247	4.54
692.369	-2.46
692.492	-11.46
692.614	-0.46
692.736	-2.46
692.859	-11.46
692.981	-10.46
693.103	-27.46
693.226	-5.46
693.348	20.54
693.47	7.54
693.593	-8.46
693.715	-11.46
693.837	-9.46
693.96	-14.46
694.082	-3.46
694.204	39.54
694.327	5.54
694.449	-0.46
694.571	-8.46
694.694	4.54
694.816	2.54
694.938	-12.46
695.061	22.54
695.183	11.54
695.305	-8.46
695.428	11.54
695.55	-13.46
695.672	-10.46
695.795	8.54
695.917	3.54
696.04	-8.46
696.162	10.54
696.284	8.54
696.407	12.54
696.529	-9.46
696.651	16.54
696.774	8.54
696.896	19.54
697.019	8.54
697.141	10.54
697.263	4.54
697.386	-17.46
697.508	-0.46
697.63	9.54
697.753	-4.46
697.875	7.54
697.998	-15.46
698.12	8.54
698.242	-2.46
698.365	0.54
698.487	3.54
698.61	1.54
698.732	3.54
698.854	32.54
698.977	-8.46
699.099	8.54
699.221	1.54
699.344	-8.46
699.466	-2.46
699.589	-2.46
699.711	0.54
699.834	-5.46
699.956	-7.46
700.078	8.54
700.201	-8.46
700.323	9.54
700.446	3.54
700.568	-2.46
700.69	10.54
700.813	8.54
700.935	-20.46
701.058	-7.46
701.18	-15.46
701.302	-9.46
701.425	-2.46
701.547	8.54
701.67	5.54
701.792	14.54
701.915	-22.46
702.037	2.54
702.159	8.54
702.282	7.54
702.404	-1.46
702.527	-11.46
702.649	12.54
702.772	19.54
702.894	-1.46
703.017	21.54
703.139	10.54
703.261	15.54
703.384	-10.46
703.506	-13.46
703.629	3.54
703.751	14.54
703.874	11.54
703.996	-10.46
704.119	-7.46
704.241	14.54
704.364	-10.46
704.486	16.54
704.608	7.54
704.731	-2.46
704.853	1.54
704.976	1.54
705.098	8.54
705.221	-2.46
705.343	6.54
705.466	-2.46
705.588	9.54
705.711	4.54
705.833	-2.46
705.956	3.54
706.078	18.54
706.201	7.54
706.323	-1.46
706.446	-14.46
