Data from LowRes_H2_15_26_11_07_2024_HR4C61881__88__15-28-22-436.txt Node

Date: Thu Nov 07 15:28:22 EST 2024
User: crc00042
Spectrometer: HR4C6188
Trigger mode: 4
Integration Time (sec): 1.000000E-1
Scans to average: 1
Electric dark correction enabled: true
Nonlinearity correction enabled: false
Boxcar width: 0
XAxis mode: Wavelengths
Number of Pixels in Spectrum: 3648
>>>>>Begin Spectral Data<<<<<
245.66	-125.54
245.797	-125.54
245.934	-125.54
246.071	-93.54
246.208	-1.54
246.344	-10.54
246.481	-23.54
246.618	-2.54
246.755	5.46
246.892	1.46
247.029	2.46
247.165	0.46
247.302	14.46
247.439	-2.54
247.576	11.46
247.713	-5.54
247.849	19.46
247.986	-10.54
248.123	5.46
248.26	-7.54
248.396	8.46
248.533	-24.54
248.67	-13.54
248.806	-7.54
248.943	-23.54
249.08	2.46
249.216	17.46
249.353	-5.54
249.49	1.46
249.626	19.46
249.763	-4.54
249.9	-15.54
250.036	-0.54
250.173	6.46
250.309	9.46
250.446	19.46
250.582	-4.54
250.719	-8.54
250.856	-6.54
250.992	-3.54
251.129	-3.54
251.265	-20.54
251.402	2.46
251.538	7.46
251.675	7.46
251.811	6.46
251.948	17.46
252.084	-1.54
252.221	-2.54
252.357	-10.54
252.493	3.46
252.63	-6.54
252.766	32.46
252.903	6.46
253.039	3.46
253.175	13.46
253.312	-2.54
253.448	3.46
253.585	-32.54
253.721	6.46
253.857	-3.54
253.994	17.46
254.13	-0.54
254.266	-3.54
254.403	8.46
254.539	1.46
254.675	9.46
254.811	10.46
254.948	0.46
255.084	8.46
255.22	-16.54
255.356	-9.54
255.493	0.46
255.629	-11.54
255.765	14.46
255.901	29.46
256.037	1.46
256.174	5.46
256.31	4.46
256.446	3.46
256.582	-20.54
256.718	9.46
256.854	23.46
256.991	12.46
257.127	12.46
257.263	5.46
257.399	0.46
257.535	-12.54
257.671	-3.54
257.807	-8.54
257.943	-15.54
258.079	-11.54
258.215	-7.54
258.351	18.46
258.487	13.46
258.623	10.46
258.759	12.46
258.895	1.46
259.031	3.46
259.167	-22.54
259.303	6.46
259.439	-14.54
259.575	1.46
259.711	-11.54
259.847	5.46
259.983	10.46
260.119	3.46
260.255	-6.54
260.391	7.46
260.527	2.46
260.663	8.46
260.799	6.46
260.934	-4.54
261.07	-16.54
261.206	-21.54
261.342	-10.54
261.478	18.46
261.614	13.46
261.749	-6.54
261.885	-9.54
262.021	-7.54
262.157	33.46
262.293	4.46
262.428	3.46
262.564	-3.54
262.7	8.46
262.836	-9.54
262.971	18.46
263.107	18.46
263.243	20.46
263.378	-15.54
263.514	-5.54
263.65	-9.54
263.785	-23.54
263.921	-6.54
264.057	-5.54
264.192	18.46
264.328	18.46
264.464	-7.54
264.599	0.46
264.735	9.46
264.871	-4.54
265.006	1.46
265.142	0.46
265.277	2.46
265.413	13.46
265.548	29.46
265.684	22.46
265.819	9.46
265.955	-10.54
266.091	-13.54
266.226	-9.54
266.362	3.46
266.497	6.46
266.633	-15.54
266.768	-11.54
266.903	3.46
267.039	11.46
267.174	18.46
267.31	0.46
267.445	-13.54
267.581	-4.54
267.716	18.46
267.851	6.46
267.987	20.46
268.122	11.46
268.258	8.46
268.393	2.46
268.528	-1.54
268.664	-5.54
268.799	-14.54
268.934	0.46
269.07	-11.54
269.205	-6.54
269.34	11.46
269.476	-19.54
269.611	-5.54
269.746	28.46
269.881	-3.54
270.017	14.46
270.152	15.46
270.287	2.46
270.422	15.46
270.558	17.46
270.693	21.46
270.828	20.46
270.963	9.46
271.098	9.46
271.234	12.46
271.369	12.46
271.504	-4.54
271.639	-2.54
271.774	-2.54
271.909	-1.54
272.045	-10.54
272.18	-8.54
272.315	-10.54
272.45	-0.54
272.585	-16.54
272.72	7.46
272.855	7.46
272.99	24.46
273.125	18.46
273.26	-11.54
273.395	-15.54
273.53	-9.54
273.665	-1.54
273.8	-3.54
273.935	8.46
274.07	4.46
274.205	15.46
274.34	5.46
274.475	7.46
274.61	19.46
274.745	-5.54
274.88	15.46
275.015	-10.54
275.15	-10.54
275.285	14.46
275.42	3.46
275.555	14.46
275.69	-10.54
275.825	-12.54
275.959	5.46
276.094	-8.54
276.229	-1.54
276.364	1.46
276.499	-1.54
276.634	7.46
276.768	-7.54
276.903	2.46
277.038	3.46
277.173	1.46
277.308	-3.54
277.442	-5.54
277.577	-9.54
277.712	-6.54
277.847	5.46
277.981	17.46
278.116	-19.54
278.251	7.46
278.386	-0.54
278.52	23.46
278.655	3.46
278.79	17.46
278.924	-11.54
279.059	9.46
279.194	-1.54
279.328	36.46
279.463	17.46
279.598	15.46
279.732	9.46
279.867	-11.54
280.001	29.46
280.136	2.46
280.271	4.46
280.405	7.46
280.54	14.46
280.674	-20.54
280.809	22.46
280.943	12.46
281.078	0.46
281.213	20.46
281.347	12.46
281.482	7.46
281.616	-9.54
281.751	13.46
281.885	-21.54
282.02	-1.54
282.154	11.46
282.288	-27.54
282.423	-18.54
282.557	-30.54
282.692	-3.54
282.826	-2.54
282.961	6.46
283.095	-14.54
283.229	-9.54
283.364	-14.54
283.498	-5.54
283.633	10.46
283.767	5.46
283.901	-6.54
284.036	-5.54
284.17	-35.54
284.304	-14.54
284.439	5.46
284.573	-14.54
284.707	18.46
284.842	-0.54
284.976	-2.54
285.11	-2.54
285.244	-5.54
285.379	58.46
285.513	-7.54
285.647	7.46
285.781	-11.54
285.916	8.46
286.05	1.46
286.184	27.46
286.318	23.46
286.453	-1.54
286.587	-6.54
286.721	-0.54
286.855	-6.54
286.989	21.46
287.123	-8.54
287.258	-13.54
287.392	-2.54
287.526	12.46
287.66	-3.54
287.794	-1.54
287.928	-1.54
288.062	19.46
288.196	3.46
288.33	-4.54
288.464	4.46
288.598	15.46
288.733	11.46
288.867	18.46
289.001	-16.54
289.135	-3.54
289.269	-2.54
289.403	13.46
289.537	11.46
289.671	15.46
289.805	-28.54
289.939	7.46
290.073	9.46
290.207	16.46
290.34	-1.54
290.474	28.46
290.608	5.46
290.742	9.46
290.876	-10.54
291.01	1.46
291.144	15.46
291.278	29.46
291.412	3.46
291.546	-6.54
291.679	-2.54
291.813	-9.54
291.947	0.46
292.081	-29.54
292.215	-9.54
292.349	17.46
292.482	18.46
292.616	-7.54
292.75	5.46
292.884	19.46
293.018	7.46
293.151	-5.54
293.285	12.46
293.419	-2.54
293.553	1.46
293.686	-14.54
293.82	-6.54
293.954	11.46
294.088	18.46
294.221	-7.54
294.355	-8.54
294.489	3.46
294.622	5.46
294.756	18.46
294.89	15.46
295.023	6.46
295.157	20.46
295.291	26.46
295.424	19.46
295.558	0.46
295.691	-13.54
295.825	0.46
295.959	11.46
296.092	4.46
296.226	-8.54
296.359	8.46
296.493	13.46
296.627	18.46
296.76	4.46
296.894	4.46
297.027	1.46
297.161	-1.54
297.294	-21.54
297.428	-10.54
297.561	26.46
297.695	-20.54
297.828	-2.54
297.962	5.46
298.095	3.46
298.229	-6.54
298.362	-10.54
298.495	-0.54
298.629	-3.54
298.762	8.46
298.896	1.46
299.029	-6.54
299.162	9.46
299.296	12.46
299.429	-11.54
299.563	-3.54
299.696	11.46
299.829	19.46
299.963	9.46
300.096	14.46
300.229	1.46
300.363	-0.54
300.496	4.46
300.629	-13.54
300.763	-11.54
300.896	-9.54
301.029	-6.54
301.162	17.46
301.296	-5.54
301.429	-7.54
301.562	-25.54
301.695	28.46
301.829	5.46
301.962	22.46
302.095	8.46
302.228	-10.54
302.362	-3.54
302.495	-24.54
302.628	2.46
302.761	-0.54
302.894	19.46
303.027	28.46
303.161	-19.54
303.294	-27.54
303.427	19.46
303.56	14.46
303.693	0.46
303.826	8.46
303.959	-15.54
304.092	-8.54
304.225	0.46
304.359	-1.54
304.492	-0.54
304.625	-11.54
304.758	-0.54
304.891	-7.54
305.024	3.46
305.157	13.46
305.29	-9.54
305.423	14.46
305.556	22.46
305.689	10.46
305.822	2.46
305.955	9.46
306.088	7.46
306.221	9.46
306.354	1.46
306.487	-0.54
306.62	7.46
306.752	-6.54
306.885	0.46
307.018	6.46
307.151	2.46
307.284	2.46
307.417	-3.54
307.55	6.46
307.683	9.46
307.816	21.46
307.948	-19.54
308.081	11.46
308.214	15.46
308.347	19.46
308.48	0.46
308.613	-26.54
308.745	30.46
308.878	4.46
309.011	-9.54
309.144	19.46
309.277	22.46
309.409	5.46
309.542	-12.54
309.675	11.46
309.808	4.46
309.94	27.46
310.073	-15.54
310.206	-1.54
310.339	0.46
310.471	-20.54
310.604	13.46
310.737	-10.54
310.869	0.46
311.002	-1.54
311.135	3.46
311.267	-22.54
311.4	-11.54
311.533	30.46
311.665	15.46
311.798	7.46
311.93	-0.54
312.063	2.46
312.196	5.46
312.328	-2.54
312.461	-7.54
312.593	-9.54
312.726	16.46
312.859	8.46
312.991	5.46
313.124	-20.54
313.256	-11.54
313.389	1.46
313.521	10.46
313.654	-6.54
313.786	-17.54
313.919	-0.54
314.051	7.46
314.184	18.46
314.316	7.46
314.449	-16.54
314.581	-6.54
314.714	1.46
314.846	12.46
314.978	7.46
315.111	2.46
315.243	5.46
315.376	3.46
315.508	14.46
315.641	8.46
315.773	26.46
315.905	-3.54
316.038	3.46
316.17	6.46
316.302	19.46
316.435	9.46
316.567	3.46
316.699	21.46
316.832	-11.54
316.964	-3.54
317.096	-8.54
317.229	7.46
317.361	-13.54
317.493	-16.54
317.625	-20.54
317.758	-1.54
317.89	16.46
318.022	2.46
318.155	-15.54
318.287	3.46
318.419	1.46
318.551	-6.54
318.683	3.46
318.816	1.46
318.948	2.46
319.08	-15.54
319.212	-2.54
319.344	11.46
319.477	7.46
319.609	18.46
319.741	12.46
319.873	-6.54
320.005	-15.54
320.137	-18.54
320.269	0.46
320.401	6.46
320.534	-10.54
320.666	-22.54
320.798	-15.54
320.93	-16.54
321.062	-9.54
321.194	-12.54
321.326	7.46
321.458	16.46
321.59	-8.54
321.722	-4.54
321.854	5.46
321.986	-6.54
322.118	7.46
322.25	5.46
322.382	11.46
322.514	4.46
322.646	9.46
322.778	9.46
322.91	10.46
323.042	6.46
323.174	-19.54
323.306	-7.54
323.438	-20.54
323.57	20.46
323.702	-7.54
323.834	-4.54
323.966	-18.54
324.097	15.46
324.229	17.46
324.361	-8.54
324.493	-9.54
324.625	-10.54
324.757	-8.54
324.889	-0.54
325.021	-6.54
325.152	14.46
325.284	15.46
325.416	-8.54
325.548	9.46
325.68	2.46
325.811	20.46
325.943	6.46
326.075	-0.54
326.207	6.46
326.339	13.46
326.47	0.46
326.602	2.46
326.734	13.46
326.866	14.46
326.997	-11.54
327.129	-10.54
327.261	-28.54
327.392	2.46
327.524	2.46
327.656	-4.54
327.787	15.46
327.919	7.46
328.051	1.46
328.182	23.46
328.314	29.46
328.446	-2.54
328.577	10.46
328.709	4.46
328.841	1.46
328.972	5.46
329.104	8.46
329.235	-4.54
329.367	0.46
329.499	-1.54
329.63	0.46
329.762	19.46
329.893	26.46
330.025	-0.54
330.156	-16.54
330.288	3.46
330.419	-6.54
330.551	10.46
330.683	18.46
330.814	5.46
330.946	27.46
331.077	-15.54
331.208	-18.54
331.34	-3.54
331.471	-2.54
331.603	-1.54
331.734	-32.54
331.866	26.46
331.997	1.46
332.129	10.46
332.26	10.46
332.392	22.46
332.523	1.46
332.654	-11.54
332.786	-2.54
332.917	2.46
333.048	13.46
333.18	24.46
333.311	5.46
333.443	-8.54
333.574	9.46
333.705	22.46
333.837	-11.54
333.968	3.46
334.099	0.46
334.231	11.46
334.362	-11.54
334.493	1.46
334.624	-5.54
334.756	-2.54
334.887	14.46
335.018	24.46
335.15	-0.54
335.281	5.46
335.412	21.46
335.543	20.46
335.675	8.46
335.806	7.46
335.937	-20.54
336.068	6.46
336.199	34.46
336.331	5.46
336.462	3.46
336.593	16.46
336.724	-5.54
336.855	14.46
336.986	11.46
337.118	11.46
337.249	4.46
337.38	-2.54
337.511	-1.54
337.642	11.46
337.773	6.46
337.904	-8.54
338.035	-3.54
338.166	0.46
338.298	9.46
338.429	-1.54
338.56	24.46
338.691	20.46
338.822	13.46
338.953	13.46
339.084	20.46
339.215	13.46
339.346	1.46
339.477	3.46
339.608	-6.54
339.739	1.46
339.87	7.46
340.001	-3.54
340.132	0.46
340.263	-5.54
340.394	3.46
340.525	15.46
340.656	-8.54
340.787	-7.54
340.918	7.46
341.049	9.46
341.179	11.46
341.31	21.46
341.441	1.46
341.572	11.46
341.703	26.46
341.834	0.46
341.965	17.46
342.096	-1.54
342.227	-3.54
342.357	-6.54
342.488	5.46
342.619	23.46
342.75	2.46
342.881	-12.54
343.012	15.46
343.142	30.46
343.273	-9.54
343.404	5.46
343.535	34.46
343.666	23.46
343.796	4.46
343.927	13.46
344.058	9.46
344.189	12.46
344.319	11.46
344.45	-4.54
344.581	9.46
344.712	-13.54
344.842	-0.54
344.973	0.46
345.104	3.46
345.234	-2.54
345.365	-8.54
345.496	-6.54
345.626	9.46
345.757	8.46
345.888	-10.54
346.018	11.46
346.149	6.46
346.28	20.46
346.41	-3.54
346.541	-5.54
346.672	0.46
346.802	5.46
346.933	13.46
347.063	9.46
347.194	4.46
347.325	10.46
347.455	32.46
347.586	-3.54
347.716	-11.54
347.847	26.46
347.977	28.46
348.108	16.46
348.238	12.46
348.369	9.46
348.499	23.46
348.63	-1.54
348.76	2.46
348.891	16.46
349.021	9.46
349.152	14.46
349.282	6.46
349.413	11.46
349.543	12.46
349.674	12.46
349.804	8.46
349.935	0.46
350.065	6.46
350.196	9.46
350.326	17.46
350.456	12.46
350.587	24.46
350.717	2.46
350.848	22.46
350.978	-1.54
351.108	-11.54
351.239	17.46
351.369	-6.54
351.499	-1.54
351.63	-0.54
351.76	4.46
351.89	-11.54
352.021	-3.54
352.151	-11.54
352.281	5.46
352.412	25.46
352.542	12.46
352.672	-3.54
352.803	0.46
352.933	20.46
353.063	6.46
353.193	5.46
353.324	-0.54
353.454	11.46
353.584	1.46
353.714	-10.54
353.845	5.46
353.975	4.46
354.105	1.46
354.235	9.46
354.365	0.46
354.496	-12.54
354.626	26.46
354.756	23.46
354.886	0.46
355.016	13.46
355.146	-9.54
355.277	7.46
355.407	-0.54
355.537	-5.54
355.667	7.46
355.797	-0.54
355.927	-3.54
356.057	-6.54
356.187	-10.54
356.318	5.46
356.448	4.46
356.578	6.46
356.708	13.46
356.838	14.46
356.968	2.46
357.098	9.46
357.228	12.46
357.358	6.46
357.488	-9.54
357.618	22.46
357.748	20.46
357.878	18.46
358.008	12.46
358.138	2.46
358.268	-3.54
358.398	16.46
358.528	-0.54
358.658	-1.54
358.788	-16.54
358.918	12.46
359.048	-2.54
359.178	4.46
359.308	15.46
359.438	33.46
359.568	19.46
359.698	2.46
359.827	6.46
359.957	15.46
360.087	18.46
360.217	-7.54
360.347	11.46
360.477	15.46
360.607	-5.54
360.737	10.46
360.866	-9.54
360.996	-17.54
361.126	-3.54
361.256	30.46
361.386	43.46
361.516	29.46
361.645	-0.54
361.775	7.46
361.905	0.46
362.035	16.46
362.165	9.46
362.294	9.46
362.424	16.46
362.554	26.46
362.684	-14.54
362.813	14.46
362.943	13.46
363.073	0.46
363.203	10.46
363.332	12.46
363.462	-9.54
363.592	1.46
363.721	0.46
363.851	1.46
363.981	7.46
364.111	5.46
364.24	-20.54
364.37	12.46
364.5	17.46
364.629	23.46
364.759	-17.54
364.888	-5.54
365.018	11.46
365.148	-1.54
365.277	8.46
365.407	2.46
365.537	-10.54
365.666	9.46
365.796	3.46
365.925	-3.54
366.055	3.46
366.184	-1.54
366.314	-7.54
366.444	5.46
366.573	11.46
366.703	7.46
366.832	1.46
366.962	-3.54
367.091	22.46
367.221	15.46
367.35	26.46
367.48	49.46
367.609	9.46
367.739	9.46
367.868	3.46
367.998	4.46
368.127	33.46
368.257	20.46
368.386	21.46
368.516	40.46
368.645	6.46
368.775	8.46
368.904	7.46
369.033	-27.54
369.163	-4.54
369.292	22.46
369.422	11.46
369.551	17.46
369.68	6.46
369.81	-11.54
369.939	8.46
370.069	20.46
370.198	4.46
370.327	-8.54
370.457	20.46
370.586	14.46
370.715	18.46
370.845	7.46
370.974	1.46
371.103	10.46
371.233	17.46
371.362	2.46
371.491	15.46
371.621	11.46
371.75	11.46
371.879	-19.54
372.008	1.46
372.138	3.46
372.267	23.46
372.396	11.46
372.525	7.46
372.655	9.46
372.784	1.46
372.913	5.46
373.042	7.46
373.172	14.46
373.301	-10.54
373.43	2.46
373.559	12.46
373.688	18.46
373.818	21.46
373.947	14.46
374.076	-2.54
374.205	2.46
374.334	6.46
374.463	-4.54
374.593	5.46
374.722	13.46
374.851	22.46
374.98	-4.54
375.109	5.46
375.238	15.46
375.367	10.46
375.496	-10.54
375.625	-15.54
375.755	8.46
375.884	25.46
376.013	14.46
376.142	-21.54
376.271	0.46
376.4	1.46
376.529	3.46
376.658	17.46
376.787	5.46
376.916	10.46
377.045	3.46
377.174	7.46
377.303	12.46
377.432	32.46
377.561	8.46
377.69	-0.54
377.819	31.46
377.948	0.46
378.077	-21.54
378.206	0.46
378.335	-4.54
378.464	2.46
378.593	25.46
378.722	-7.54
378.851	-3.54
378.98	27.46
379.108	-7.54
379.237	3.46
379.366	-1.54
379.495	19.46
379.624	23.46
379.753	11.46
379.882	6.46
380.011	1.46
380.14	0.46
380.268	18.46
380.397	4.46
380.526	36.46
380.655	-13.54
380.784	-16.54
380.913	-3.54
381.041	-0.54
381.17	0.46
381.299	-11.54
381.428	3.46
381.557	-1.54
381.685	2.46
381.814	8.46
381.943	5.46
382.072	-4.54
382.2	-0.54
382.329	3.46
382.458	21.46
382.587	27.46
382.715	33.46
382.844	17.46
382.973	4.46
383.102	5.46
383.23	-4.54
383.359	0.46
383.488	-4.54
383.616	5.46
383.745	-10.54
383.874	4.46
384.003	-8.54
384.131	1.46
384.26	8.46
384.389	9.46
384.517	-0.54
384.646	-4.54
384.774	-1.54
384.903	35.46
385.032	16.46
385.16	1.46
385.289	-4.54
385.418	15.46
385.546	15.46
385.675	25.46
385.803	2.46
385.932	17.46
386.06	3.46
386.189	15.46
386.318	3.46
386.446	6.46
386.575	-4.54
386.703	24.46
386.832	-2.54
386.96	-19.54
387.089	14.46
387.217	0.46
387.346	-4.54
387.474	24.46
387.603	18.46
387.731	9.46
387.86	13.46
387.988	-1.54
388.117	14.46
388.245	-2.54
388.374	-3.54
388.502	2.46
388.631	2.46
388.759	4.46
388.888	-7.54
389.016	-0.54
389.144	18.46
389.273	6.46
389.401	-20.54
389.53	-9.54
389.658	4.46
389.786	-6.54
389.915	2.46
390.043	-20.54
390.172	12.46
390.3	25.46
390.428	5.46
390.557	-8.54
390.685	27.46
390.813	15.46
390.942	2.46
391.07	4.46
391.198	-9.54
391.327	3.46
391.455	-11.54
391.583	29.46
391.712	15.46
391.84	5.46
391.968	-3.54
392.096	-7.54
392.225	-2.54
392.353	16.46
392.481	19.46
392.609	18.46
392.738	10.46
392.866	19.46
392.994	8.46
393.122	18.46
393.251	8.46
393.379	-8.54
393.507	-12.54
393.635	10.46
393.764	6.46
393.892	30.46
394.02	0.46
394.148	-12.54
394.276	14.46
394.404	46.46
394.533	3.46
394.661	8.46
394.789	20.46
394.917	28.46
395.045	6.46
395.173	-8.54
395.302	-14.54
395.43	0.46
395.558	14.46
395.686	15.46
395.814	22.46
395.942	-9.54
396.07	5.46
396.198	17.46
396.326	17.46
396.454	5.46
396.582	9.46
396.711	-4.54
396.839	11.46
396.967	8.46
397.095	-9.54
397.223	0.46
397.351	15.46
397.479	24.46
397.607	-8.54
397.735	-4.54
397.863	9.46
397.991	18.46
398.119	7.46
398.247	11.46
398.375	4.46
398.503	6.46
398.631	3.46
398.759	-0.54
398.887	9.46
399.015	8.46
399.143	8.46
399.271	9.46
399.399	11.46
399.526	23.46
399.654	10.46
399.782	0.46
399.91	9.46
400.038	26.46
400.166	7.46
400.294	6.46
400.422	-23.54
400.55	30.46
400.678	4.46
400.805	2.46
400.933	3.46
401.061	0.46
401.189	-0.54
401.317	21.46
401.445	25.46
401.573	23.46
401.7	4.46
401.828	-13.54
401.956	-7.54
402.084	15.46
402.212	30.46
402.34	4.46
402.467	5.46
402.595	9.46
402.723	16.46
402.851	6.46
402.978	10.46
403.106	10.46
403.234	9.46
403.362	13.46
403.489	7.46
403.617	13.46
403.745	0.46
403.873	-6.54
404	10.46
404.128	11.46
404.256	11.46
404.384	20.46
404.511	15.46
404.639	6.46
404.767	6.46
404.894	12.46
405.022	4.46
405.15	5.46
405.277	3.46
405.405	2.46
405.533	13.46
405.66	-0.54
405.788	-12.54
405.916	-12.54
406.043	3.46
406.171	-7.54
406.299	9.46
406.426	21.46
406.554	18.46
406.681	25.46
406.809	-3.54
406.937	3.46
407.064	-10.54
407.192	23.46
407.319	13.46
407.447	-4.54
407.574	22.46
407.702	2.46
407.83	-11.54
407.957	-6.54
408.085	-5.54
408.212	16.46
408.34	17.46
408.467	6.46
408.595	3.46
408.722	5.46
408.85	9.46
408.977	5.46
409.105	7.46
409.232	-12.54
409.36	11.46
409.487	9.46
409.615	24.46
409.742	24.46
409.87	35.46
409.997	30.46
410.125	45.46
410.252	44.46
410.379	45.46
410.507	34.46
410.634	13.46
410.762	-3.54
410.889	16.46
411.017	0.46
411.144	21.46
411.271	7.46
411.399	-3.54
411.526	-4.54
411.653	35.46
411.781	30.46
411.908	19.46
412.036	-12.54
412.163	34.46
412.29	26.46
412.418	16.46
412.545	9.46
412.672	-11.54
412.8	10.46
412.927	9.46
413.054	26.46
413.182	1.46
413.309	9.46
413.436	-22.54
413.564	3.46
413.691	-10.54
413.818	25.46
413.945	-19.54
414.073	-14.54
414.2	-0.54
414.327	17.46
414.454	27.46
414.582	-0.54
414.709	-6.54
414.836	-1.54
414.963	12.46
415.091	10.46
415.218	-4.54
415.345	19.46
415.472	5.46
415.6	14.46
415.727	-4.54
415.854	18.46
415.981	16.46
416.108	-3.54
416.236	6.46
416.363	20.46
416.49	16.46
416.617	8.46
416.744	26.46
416.871	14.46
416.998	1.46
417.126	2.46
417.253	-8.54
417.38	8.46
417.507	1.46
417.634	4.46
417.761	27.46
417.888	13.46
418.015	20.46
418.143	9.46
418.27	26.46
418.397	10.46
418.524	17.46
418.651	17.46
418.778	3.46
418.905	32.46
419.032	22.46
419.159	18.46
419.286	29.46
419.413	16.46
419.54	25.46
419.667	-0.54
419.794	-10.54
419.921	25.46
420.048	11.46
420.175	11.46
420.302	-3.54
420.429	10.46
420.556	-7.54
420.683	1.46
420.81	5.46
420.937	27.46
421.064	19.46
421.191	13.46
421.318	7.46
421.445	43.46
421.572	11.46
421.699	6.46
421.826	10.46
421.953	6.46
422.08	6.46
422.207	-6.54
422.334	8.46
422.461	46.46
422.588	5.46
422.714	5.46
422.841	9.46
422.968	-0.54
423.095	13.46
423.222	-6.54
423.349	22.46
423.476	0.46
423.603	-4.54
423.729	-18.54
423.856	-2.54
423.983	16.46
424.11	0.46
424.237	-2.54
424.364	24.46
424.491	11.46
424.617	4.46
424.744	-6.54
424.871	24.46
424.998	7.46
425.125	-2.54
425.251	14.46
425.378	-11.54
425.505	13.46
425.632	11.46
425.758	0.46
425.885	5.46
426.012	11.46
426.139	28.46
426.266	-0.54
426.392	16.46
426.519	9.46
426.646	3.46
426.772	27.46
426.899	4.46
427.026	7.46
427.153	-6.54
427.279	17.46
427.406	21.46
427.533	10.46
427.659	3.46
427.786	-2.54
427.913	17.46
428.039	-1.54
428.166	-12.54
428.293	-0.54
428.419	8.46
428.546	5.46
428.673	-1.54
428.799	-8.54
428.926	2.46
429.053	28.46
429.179	11.46
429.306	13.46
429.433	24.46
429.559	8.46
429.686	8.46
429.812	-1.54
429.939	3.46
430.066	5.46
430.192	-25.54
430.319	9.46
430.445	1.46
430.572	16.46
430.699	-5.54
430.825	7.46
430.952	0.46
431.078	19.46
431.205	9.46
431.331	5.46
431.458	31.46
431.584	22.46
431.711	8.46
431.837	5.46
431.964	16.46
432.09	12.46
432.217	-3.54
432.343	18.46
432.47	21.46
432.596	23.46
432.723	1.46
432.849	-6.54
432.976	7.46
433.102	14.46
433.229	11.46
433.355	32.46
433.482	80.46
433.608	152.46
433.735	136.46
433.861	144.46
433.987	140.46
434.114	216.46
434.24	179.46
434.367	66.46
434.493	5.46
434.62	14.46
434.746	35.46
434.872	11.46
434.999	19.46
435.125	19.46
435.252	14.46
435.378	-6.54
435.504	4.46
435.631	6.46
435.757	7.46
435.883	2.46
436.01	18.46
436.136	16.46
436.262	16.46
436.389	11.46
436.515	7.46
436.641	2.46
436.768	33.46
436.894	21.46
437.02	19.46
437.147	27.46
437.273	27.46
437.399	13.46
437.526	15.46
437.652	6.46
437.778	18.46
437.904	1.46
438.031	16.46
438.157	7.46
438.283	10.46
438.409	-0.54
438.536	-11.54
438.662	14.46
438.788	7.46
438.914	19.46
439.041	0.46
439.167	9.46
439.293	9.46
439.419	5.46
439.546	14.46
439.672	2.46
439.798	8.46
439.924	16.46
440.05	27.46
440.177	13.46
440.303	6.46
440.429	11.46
440.555	0.46
440.681	12.46
440.807	21.46
440.934	-0.54
441.06	6.46
441.186	1.46
441.312	2.46
441.438	9.46
441.564	8.46
441.69	13.46
441.816	15.46
441.943	3.46
442.069	5.46
442.195	9.46
442.321	16.46
442.447	2.46
442.573	-5.54
442.699	-11.54
442.825	-11.54
442.951	36.46
443.077	27.46
443.203	25.46
443.33	-3.54
443.456	-16.54
443.582	-1.54
443.708	13.46
443.834	20.46
443.96	13.46
444.086	7.46
444.212	24.46
444.338	21.46
444.464	13.46
444.59	25.46
444.716	20.46
444.842	-0.54
444.968	11.46
445.094	3.46
445.22	19.46
445.346	1.46
445.472	5.46
445.598	0.46
445.724	14.46
445.85	19.46
445.976	8.46
446.102	17.46
446.228	23.46
446.354	31.46
446.48	22.46
446.605	11.46
446.731	9.46
446.857	9.46
446.983	16.46
447.109	-3.54
447.235	-8.54
447.361	-2.54
447.487	5.46
447.613	16.46
447.739	-5.54
447.865	7.46
447.99	18.46
448.116	-2.54
448.242	8.46
448.368	16.46
448.494	-1.54
448.62	16.46
448.746	5.46
448.872	17.46
448.997	-11.54
449.123	3.46
449.249	21.46
449.375	17.46
449.501	7.46
449.627	8.46
449.752	17.46
449.878	-16.54
450.004	20.46
450.13	5.46
450.256	11.46
450.381	9.46
450.507	26.46
450.633	16.46
450.759	26.46
450.884	2.46
451.01	4.46
451.136	9.46
451.262	13.46
451.388	10.46
451.513	3.46
451.639	2.46
451.765	2.46
451.89	27.46
452.016	18.46
452.142	6.46
452.268	18.46
452.393	31.46
452.519	2.46
452.645	5.46
452.771	12.46
452.896	0.46
453.022	2.46
453.148	19.46
453.273	19.46
453.399	0.46
453.525	-18.54
453.65	9.46
453.776	31.46
453.902	14.46
454.027	28.46
454.153	20.46
454.279	9.46
454.404	9.46
454.53	25.46
454.656	49.46
454.781	4.46
454.907	0.46
455.032	1.46
455.158	18.46
455.284	27.46
455.409	27.46
455.535	31.46
455.66	39.46
455.786	9.46
455.912	24.46
456.037	-7.54
456.163	14.46
456.288	9.46
456.414	-9.54
456.539	-16.54
456.665	29.46
456.791	9.46
456.916	4.46
457.042	1.46
457.167	-3.54
457.293	17.46
457.418	-5.54
457.544	11.46
457.669	7.46
457.795	22.46
457.92	7.46
458.046	17.46
458.171	7.46
458.297	2.46
458.422	12.46
458.548	6.46
458.673	7.46
458.799	10.46
458.924	-5.54
459.05	12.46
459.175	5.46
459.301	9.46
459.426	16.46
459.552	27.46
459.677	5.46
459.803	10.46
459.928	34.46
460.053	10.46
460.179	33.46
460.304	39.46
460.43	0.46
460.555	-3.54
460.681	10.46
460.806	-4.54
460.931	9.46
461.057	8.46
461.182	1.46
461.308	18.46
461.433	24.46
461.558	4.46
461.684	22.46
461.809	31.46
461.934	1.46
462.06	13.46
462.185	-11.54
462.311	-6.54
462.436	15.46
462.561	9.46
462.687	19.46
462.812	7.46
462.937	9.46
463.063	-7.54
463.188	-4.54
463.313	8.46
463.439	1.46
463.564	8.46
463.689	4.46
463.814	33.46
463.94	8.46
464.065	1.46
464.19	29.46
464.316	-3.54
464.441	5.46
464.566	4.46
464.692	-3.54
464.817	1.46
464.942	12.46
465.067	5.46
465.193	-8.54
465.318	8.46
465.443	16.46
465.568	-0.54
465.694	2.46
465.819	26.46
465.944	0.46
466.069	12.46
466.194	6.46
466.32	5.46
466.445	0.46
466.57	-9.54
466.695	-6.54
466.82	15.46
466.946	3.46
467.071	25.46
467.196	8.46
467.321	19.46
467.446	3.46
467.572	19.46
467.697	-23.54
467.822	-2.54
467.947	12.46
468.072	-6.54
468.197	-12.54
468.323	-11.54
468.448	-0.54
468.573	14.46
468.698	12.46
468.823	14.46
468.948	28.46
469.073	13.46
469.198	26.46
469.324	32.46
469.449	13.46
469.574	12.46
469.699	5.46
469.824	5.46
469.949	9.46
470.074	30.46
470.199	47.46
470.324	32.46
470.449	31.46
470.574	4.46
470.7	9.46
470.825	21.46
470.95	31.46
471.075	-0.54
471.2	8.46
471.325	27.46
471.45	14.46
471.575	9.46
471.7	11.46
471.825	19.46
471.95	5.46
472.075	6.46
472.2	6.46
472.325	-5.54
472.45	1.46
472.575	11.46
472.7	11.46
472.825	37.46
472.95	27.46
473.075	13.46
473.2	-4.54
473.325	3.46
473.45	12.46
473.575	-7.54
473.7	15.46
473.825	-2.54
473.95	10.46
474.075	12.46
474.2	8.46
474.325	-3.54
474.45	21.46
474.574	7.46
474.699	13.46
474.824	21.46
474.949	2.46
475.074	-6.54
475.199	13.46
475.324	18.46
475.449	2.46
475.574	24.46
475.699	17.46
475.824	1.46
475.949	14.46
476.073	0.46
476.198	5.46
476.323	32.46
476.448	31.46
476.573	12.46
476.698	3.46
476.823	11.46
476.947	9.46
477.072	14.46
477.197	-6.54
477.322	-2.54
477.447	7.46
477.572	22.46
477.697	10.46
477.821	12.46
477.946	25.46
478.071	14.46
478.196	17.46
478.321	28.46
478.445	-5.54
478.57	0.46
478.695	18.46
478.82	29.46
478.945	26.46
479.069	7.46
479.194	12.46
479.319	10.46
479.444	13.46
479.569	-5.54
479.693	10.46
479.818	19.46
479.943	22.46
480.068	9.46
480.192	14.46
480.317	22.46
480.442	12.46
480.567	20.46
480.691	10.46
480.816	27.46
480.941	-0.54
481.066	13.46
481.19	38.46
481.315	47.46
481.44	14.46
481.564	2.46
481.689	33.46
481.814	19.46
481.938	27.46
482.063	3.46
482.188	12.46
482.313	31.46
482.437	18.46
482.562	27.46
482.687	37.46
482.811	33.46
482.936	36.46
483.061	29.46
483.185	21.46
483.31	15.46
483.435	7.46
483.559	9.46
483.684	15.46
483.808	26.46
483.933	3.46
484.058	4.46
484.182	36.46
484.307	4.46
484.432	12.46
484.556	17.46
484.681	13.46
484.805	20.46
484.93	32.46
485.055	39.46
485.179	83.46
485.304	111.46
485.428	376.46
485.553	1266.46
485.678	1823.46
485.802	1672.46
485.927	1862.46
486.051	2718.46
486.176	1664.46
486.3	455.46
486.425	142.46
486.549	78.46
486.674	58.46
486.799	31.46
486.923	22.46
487.048	9.46
487.172	13.46
487.297	26.46
487.421	10.46
487.546	19.46
487.67	34.46
487.795	1.46
487.919	9.46
488.044	20.46
488.168	15.46
488.293	16.46
488.417	6.46
488.542	45.46
488.666	35.46
488.791	32.46
488.915	22.46
489.04	32.46
489.164	35.46
489.289	27.46
489.413	12.46
489.538	28.46
489.662	15.46
489.786	-3.54
489.911	18.46
490.035	36.46
490.16	5.46
490.284	25.46
490.409	10.46
490.533	24.46
490.658	25.46
490.782	14.46
490.906	12.46
491.031	3.46
491.155	9.46
491.28	14.46
491.404	9.46
491.528	25.46
491.653	18.46
491.777	37.46
491.902	16.46
492.026	28.46
492.15	23.46
492.275	33.46
492.399	26.46
492.524	15.46
492.648	34.46
492.772	26.46
492.897	27.46
493.021	22.46
493.145	42.46
493.27	24.46
493.394	9.46
493.518	7.46
493.643	-3.54
493.767	24.46
493.891	19.46
494.016	5.46
494.14	13.46
494.264	5.46
494.389	35.46
494.513	3.46
494.637	-1.54
494.762	29.46
494.886	41.46
495.01	21.46
495.134	40.46
495.259	32.46
495.383	19.46
495.507	26.46
495.632	27.46
495.756	28.46
495.88	32.46
496.004	9.46
496.129	2.46
496.253	28.46
496.377	2.46
496.501	27.46
496.626	-5.54
496.75	27.46
496.874	26.46
496.998	-0.54
497.123	33.46
497.247	8.46
497.371	13.46
497.495	23.46
497.62	15.46
497.744	8.46
497.868	8.46
497.992	20.46
498.116	16.46
498.241	25.46
498.365	4.46
498.489	-0.54
498.613	28.46
498.737	14.46
498.862	15.46
498.986	8.46
499.11	11.46
499.234	3.46
499.358	4.46
499.482	5.46
499.607	11.46
499.731	33.46
499.855	30.46
499.979	12.46
500.103	9.46
500.227	21.46
500.351	27.46
500.476	-4.54
500.6	26.46
500.724	1.46
500.848	5.46
500.972	14.46
501.096	-0.54
501.22	26.46
501.344	8.46
501.469	17.46
501.593	14.46
501.717	20.46
501.841	0.46
501.965	12.46
502.089	1.46
502.213	31.46
502.337	5.46
502.461	-2.54
502.585	12.46
502.709	20.46
502.834	-8.54
502.958	8.46
503.082	4.46
503.206	15.46
503.33	29.46
503.454	27.46
503.578	25.46
503.702	32.46
503.826	17.46
503.95	31.46
504.074	18.46
504.198	6.46
504.322	-0.54
504.446	0.46
504.57	23.46
504.694	22.46
504.818	29.46
504.942	36.46
505.066	7.46
505.19	5.46
505.314	16.46
505.438	25.46
505.562	5.46
505.686	19.46
505.81	14.46
505.934	14.46
506.058	24.46
506.182	36.46
506.306	17.46
506.43	-9.54
506.554	6.46
506.678	16.46
506.802	9.46
506.926	11.46
507.05	14.46
507.174	36.46
507.298	22.46
507.422	16.46
507.546	25.46
507.67	14.46
507.794	-5.54
507.918	11.46
508.042	23.46
508.165	4.46
508.289	5.46
508.413	-0.54
508.537	-6.54
508.661	11.46
508.785	21.46
508.909	5.46
509.033	5.46
509.157	-3.54
509.281	-0.54
509.405	2.46
509.528	36.46
509.652	35.46
509.776	0.46
509.9	27.46
510.024	17.46
510.148	3.46
510.272	26.46
510.396	4.46
510.519	-5.54
510.643	17.46
510.767	25.46
510.891	30.46
511.015	8.46
511.139	22.46
511.263	10.46
511.386	11.46
511.51	21.46
511.634	-3.54
511.758	1.46
511.882	-13.54
512.006	-4.54
512.129	18.46
512.253	46.46
512.377	4.46
512.501	-0.54
512.625	19.46
512.748	5.46
512.872	-5.54
512.996	4.46
513.12	17.46
513.244	11.46
513.367	28.46
513.491	25.46
513.615	23.46
513.739	12.46
513.862	10.46
513.986	8.46
514.11	25.46
514.234	25.46
514.358	20.46
514.481	27.46
514.605	13.46
514.729	5.46
514.853	14.46
514.976	-10.54
515.1	8.46
515.224	28.46
515.348	0.46
515.471	-10.54
515.595	12.46
515.719	5.46
515.842	18.46
515.966	8.46
516.09	32.46
516.214	15.46
516.337	21.46
516.461	10.46
516.585	22.46
516.708	27.46
516.832	13.46
516.956	19.46
517.08	0.46
517.203	2.46
517.327	6.46
517.451	22.46
517.574	47.46
517.698	21.46
517.822	4.46
517.945	33.46
518.069	27.46
518.193	58.46
518.316	30.46
518.44	32.46
518.564	19.46
518.687	33.46
518.811	43.46
518.935	61.46
519.058	27.46
519.182	12.46
519.306	39.46
519.429	27.46
519.553	58.46
519.676	27.46
519.8	30.46
519.924	12.46
520.047	18.46
520.171	-4.54
520.294	5.46
520.418	12.46
520.542	1.46
520.665	34.46
520.789	10.46
520.913	-0.54
521.036	-23.54
521.16	-3.54
521.283	-5.54
521.407	4.46
521.53	14.46
521.654	-13.54
521.778	28.46
521.901	21.46
522.025	18.46
522.148	19.46
522.272	-6.54
522.395	7.46
522.519	25.46
522.643	3.46
522.766	-11.54
522.89	6.46
523.013	25.46
523.137	10.46
523.26	-0.54
523.384	11.46
523.507	20.46
523.631	18.46
523.754	-2.54
523.878	5.46
524.002	-0.54
524.125	-3.54
524.249	-14.54
524.372	0.46
524.496	4.46
524.619	21.46
524.743	20.46
524.866	-0.54
524.99	13.46
525.113	16.46
525.237	18.46
525.36	15.46
525.484	15.46
525.607	19.46
525.731	-10.54
525.854	22.46
525.978	28.46
526.101	9.46
526.224	19.46
526.348	9.46
526.471	18.46
526.595	16.46
526.718	3.46
526.842	4.46
526.965	23.46
527.089	25.46
527.212	18.46
527.336	3.46
527.459	11.46
527.582	13.46
527.706	8.46
527.829	27.46
527.953	21.46
528.076	14.46
528.2	15.46
528.323	13.46
528.446	43.46
528.57	19.46
528.693	23.46
528.817	7.46
528.94	19.46
529.064	19.46
529.187	9.46
529.31	0.46
529.434	7.46
529.557	-1.54
529.68	11.46
529.804	0.46
529.927	22.46
530.051	13.46
530.174	7.46
530.297	21.46
530.421	20.46
530.544	21.46
530.668	22.46
530.791	5.46
530.914	17.46
531.038	17.46
531.161	-0.54
531.284	17.46
531.408	26.46
531.531	9.46
531.654	1.46
531.778	17.46
531.901	-5.54
532.024	15.46
532.148	7.46
532.271	7.46
532.394	14.46
532.518	28.46
532.641	12.46
532.764	23.46
532.888	29.46
533.011	14.46
533.134	-11.54
533.258	21.46
533.381	-6.54
533.504	26.46
533.628	17.46
533.751	16.46
533.874	3.46
533.997	1.46
534.121	-16.54
534.244	3.46
534.367	-2.54
534.491	-2.54
534.614	-2.54
534.737	20.46
534.86	6.46
534.984	7.46
535.107	12.46
535.23	12.46
535.354	-10.54
535.477	0.46
535.6	5.46
535.723	9.46
535.847	2.46
535.97	-3.54
536.093	8.46
536.216	15.46
536.34	20.46
536.463	16.46
536.586	22.46
536.709	21.46
536.833	24.46
536.956	3.46
537.079	24.46
537.202	29.46
537.325	-0.54
537.449	-16.54
537.572	13.46
537.695	13.46
537.818	5.46
537.941	11.46
538.065	-0.54
538.188	-0.54
538.311	4.46
538.434	16.46
538.558	8.46
538.681	25.46
538.804	22.46
538.927	36.46
539.05	27.46
539.173	17.46
539.297	8.46
539.42	0.46
539.543	4.46
539.666	14.46
539.789	1.46
539.913	11.46
540.036	6.46
540.159	-5.54
540.282	13.46
540.405	-1.54
540.528	6.46
540.651	13.46
540.775	18.46
540.898	10.46
541.021	11.46
541.144	15.46
541.267	-3.54
541.39	11.46
541.513	17.46
541.637	-0.54
541.76	5.46
541.883	7.46
542.006	23.46
542.129	28.46
542.252	-1.54
542.375	11.46
542.498	-0.54
542.622	9.46
542.745	15.46
542.868	15.46
542.991	38.46
543.114	6.46
543.237	22.46
543.36	13.46
543.483	-11.54
543.606	24.46
543.73	12.46
543.853	23.46
543.976	-13.54
544.099	25.46
544.222	19.46
544.345	7.46
544.468	-14.54
544.591	3.46
544.714	15.46
544.837	30.46
544.96	6.46
545.083	25.46
545.206	12.46
545.329	9.46
545.453	13.46
545.576	7.46
545.699	-6.54
545.822	0.46
545.945	27.46
546.068	8.46
546.191	28.46
546.314	5.46
546.437	16.46
546.56	18.46
546.683	8.46
546.806	10.46
546.929	1.46
547.052	4.46
547.175	3.46
547.298	21.46
547.421	-7.54
547.544	5.46
547.667	16.46
547.79	21.46
547.913	17.46
548.036	1.46
548.159	-3.54
548.282	-3.54
548.405	7.46
548.528	21.46
548.651	19.46
548.774	11.46
548.897	12.46
549.02	38.46
549.143	24.46
549.266	24.46
549.389	17.46
549.512	1.46
549.635	40.46
549.758	9.46
549.881	-1.54
550.004	11.46
550.127	0.46
550.25	21.46
550.373	12.46
550.496	21.46
550.619	23.46
550.742	6.46
550.865	-16.54
550.988	30.46
551.111	35.46
551.234	11.46
551.356	6.46
551.479	-3.54
551.602	16.46
551.725	23.46
551.848	29.46
551.971	22.46
552.094	25.46
552.217	-12.54
552.34	-1.54
552.463	-19.54
552.586	-0.54
552.709	12.46
552.832	7.46
552.955	15.46
553.077	15.46
553.2	11.46
553.323	-12.54
553.446	-4.54
553.569	10.46
553.692	17.46
553.815	13.46
553.938	8.46
554.061	12.46
554.184	13.46
554.306	9.46
554.429	12.46
554.552	18.46
554.675	1.46
554.798	7.46
554.921	3.46
555.044	24.46
555.167	-4.54
555.29	-2.54
555.412	-9.54
555.535	5.46
555.658	27.46
555.781	13.46
555.904	14.46
556.027	26.46
556.15	12.46
556.272	9.46
556.395	2.46
556.518	0.46
556.641	16.46
556.764	5.46
556.887	7.46
557.01	14.46
557.132	-8.54
557.255	10.46
557.378	26.46
557.501	1.46
557.624	12.46
557.747	17.46
557.869	4.46
557.992	8.46
558.115	22.46
558.238	2.46
558.361	4.46
558.483	21.46
558.606	8.46
558.729	22.46
558.852	28.46
558.975	38.46
559.098	37.46
559.22	19.46
559.343	-6.54
559.466	1.46
559.589	10.46
559.712	21.46
559.834	24.46
559.957	18.46
560.08	12.46
560.203	3.46
560.325	16.46
560.448	21.46
560.571	7.46
560.694	8.46
560.817	30.46
560.939	-1.54
561.062	5.46
561.185	23.46
561.308	16.46
561.43	-21.54
561.553	-3.54
561.676	0.46
561.799	19.46
561.921	6.46
562.044	-2.54
562.167	6.46
562.29	24.46
562.413	38.46
562.535	38.46
562.658	7.46
562.781	0.46
562.903	0.46
563.026	9.46
563.149	20.46
563.272	21.46
563.394	29.46
563.517	23.46
563.64	11.46
563.763	9.46
563.885	3.46
564.008	22.46
564.131	11.46
564.254	-8.54
564.376	18.46
564.499	-4.54
564.622	5.46
564.744	2.46
564.867	0.46
564.99	9.46
565.113	11.46
565.235	4.46
565.358	11.46
565.481	-2.54
565.603	9.46
565.726	13.46
565.849	22.46
565.971	17.46
566.094	-0.54
566.217	14.46
566.34	10.46
566.462	0.46
566.585	-3.54
566.708	30.46
566.83	19.46
566.953	32.46
567.076	7.46
567.198	-0.54
567.321	0.46
567.444	21.46
567.566	16.46
567.689	11.46
567.812	21.46
567.934	3.46
568.057	2.46
568.18	13.46
568.302	10.46
568.425	11.46
568.548	11.46
568.67	10.46
568.793	7.46
568.916	8.46
569.038	-26.54
569.161	14.46
569.283	12.46
569.406	28.46
569.529	-10.54
569.651	-0.54
569.774	-0.54
569.897	1.46
570.019	19.46
570.142	26.46
570.265	21.46
570.387	11.46
570.51	23.46
570.632	13.46
570.755	-0.54
570.878	9.46
571	15.46
571.123	9.46
571.246	25.46
571.368	5.46
571.491	19.46
571.613	-6.54
571.736	4.46
571.859	22.46
571.981	4.46
572.104	0.46
572.226	-1.54
572.349	-2.54
572.472	3.46
572.594	2.46
572.717	11.46
572.839	-4.54
572.962	15.46
573.085	1.46
573.207	17.46
573.33	27.46
573.452	24.46
573.575	5.46
573.697	-0.54
573.82	1.46
573.943	-2.54
574.065	7.46
574.188	4.46
574.31	22.46
574.433	21.46
574.555	13.46
574.678	3.46
574.801	34.46
574.923	10.46
575.046	15.46
575.168	8.46
575.291	16.46
575.413	16.46
575.536	10.46
575.659	25.46
575.781	5.46
575.904	0.46
576.026	25.46
576.149	18.46
576.271	20.46
576.394	25.46
576.516	10.46
576.639	6.46
576.761	-15.54
576.884	7.46
577.007	-3.54
577.129	25.46
577.252	11.46
577.374	26.46
577.497	14.46
577.619	25.46
577.742	9.46
577.864	19.46
577.987	19.46
578.109	24.46
578.232	21.46
578.354	9.46
578.477	3.46
578.599	8.46
578.722	1.46
578.844	11.46
578.967	0.46
579.089	1.46
579.212	-14.54
579.334	12.46
579.457	15.46
579.579	21.46
579.702	-2.54
579.824	0.46
579.947	-10.54
580.069	-3.54
580.192	0.46
580.314	12.46
580.437	10.46
580.559	40.46
580.682	14.46
580.804	13.46
580.927	5.46
581.049	20.46
581.172	13.46
581.294	5.46
581.417	20.46
581.539	9.46
581.662	16.46
581.784	23.46
581.907	4.46
582.029	25.46
582.152	-4.54
582.274	20.46
582.396	15.46
582.519	23.46
582.641	15.46
582.764	20.46
582.886	29.46
583.009	11.46
583.131	6.46
583.254	9.46
583.376	14.46
583.499	17.46
583.621	16.46
583.743	10.46
583.866	22.46
583.988	11.46
584.111	32.46
584.233	19.46
584.356	11.46
584.478	19.46
584.601	5.46
584.723	19.46
584.845	26.46
584.968	4.46
585.09	-14.54
585.213	5.46
585.335	7.46
585.458	4.46
585.58	6.46
585.702	28.46
585.825	18.46
585.947	18.46
586.07	-5.54
586.192	-16.54
586.315	-2.54
586.437	-14.54
586.559	-5.54
586.682	-4.54
586.804	17.46
586.927	-2.54
587.049	9.46
587.171	7.46
587.294	29.46
587.416	20.46
587.539	1.46
587.661	-0.54
587.783	-14.54
587.906	10.46
588.028	-1.54
588.151	9.46
588.273	26.46
588.395	8.46
588.518	11.46
588.64	4.46
588.763	25.46
588.885	25.46
589.007	25.46
589.13	-5.54
589.252	-7.54
589.375	12.46
589.497	5.46
589.619	20.46
589.742	6.46
589.864	13.46
589.986	17.46
590.109	-10.54
590.231	-7.54
590.354	4.46
590.476	17.46
590.598	2.46
590.721	-4.54
590.843	8.46
590.965	5.46
591.088	12.46
591.21	7.46
591.332	6.46
591.455	-0.54
591.577	8.46
591.7	15.46
591.822	17.46
591.944	22.46
592.067	26.46
592.189	31.46
592.311	20.46
592.434	11.46
592.556	6.46
592.678	7.46
592.801	11.46
592.923	9.46
593.045	8.46
593.168	14.46
593.29	-6.54
593.412	23.46
593.535	-13.54
593.657	14.46
593.779	1.46
593.902	21.46
594.024	9.46
594.146	26.46
594.269	18.46
594.391	4.46
594.513	1.46
594.636	6.46
594.758	-8.54
594.88	12.46
595.003	25.46
595.125	7.46
595.247	21.46
595.37	6.46
595.492	8.46
595.614	33.46
595.737	23.46
595.859	10.46
595.981	7.46
596.104	9.46
596.226	10.46
596.348	10.46
596.471	15.46
596.593	5.46
596.715	0.46
596.838	-3.54
596.96	-2.54
597.082	20.46
597.204	26.46
597.327	20.46
597.449	6.46
597.571	17.46
597.694	25.46
597.816	12.46
597.938	11.46
598.061	13.46
598.183	5.46
598.305	25.46
598.427	13.46
598.55	5.46
598.672	16.46
598.794	20.46
598.917	9.46
599.039	15.46
599.161	27.46
599.283	11.46
599.406	11.46
599.528	14.46
599.65	33.46
599.773	15.46
599.895	40.46
600.017	29.46
600.139	10.46
600.262	7.46
600.384	11.46
600.506	18.46
600.628	28.46
600.751	23.46
600.873	17.46
600.995	5.46
601.118	25.46
601.24	1.46
601.362	37.46
601.484	20.46
601.607	15.46
601.729	26.46
601.851	12.46
601.973	34.46
602.096	31.46
602.218	17.46
602.34	23.46
602.462	22.46
602.585	9.46
602.707	-11.54
602.829	9.46
602.951	9.46
603.074	1.46
603.196	5.46
603.318	8.46
603.44	19.46
603.563	7.46
603.685	4.46
603.807	25.46
603.929	22.46
604.052	32.46
604.174	17.46
604.296	16.46
604.418	15.46
604.541	27.46
604.663	6.46
604.785	15.46
604.907	17.46
605.03	4.46
605.152	47.46
605.274	5.46
605.396	2.46
605.519	-2.54
605.641	29.46
605.763	21.46
605.885	22.46
606.008	0.46
606.13	-3.54
606.252	5.46
606.374	2.46
606.496	5.46
606.619	2.46
606.741	-1.54
606.863	24.46
606.985	18.46
607.108	21.46
607.23	28.46
607.352	16.46
607.474	4.46
607.596	21.46
607.719	17.46
607.841	32.46
607.963	3.46
608.085	14.46
608.207	47.46
608.33	26.46
608.452	19.46
608.574	6.46
608.696	15.46
608.819	8.46
608.941	22.46
609.063	3.46
609.185	5.46
609.307	16.46
609.43	19.46
609.552	15.46
609.674	-9.54
609.796	18.46
609.918	17.46
610.041	5.46
610.163	33.46
610.285	4.46
610.407	5.46
610.529	-21.54
610.652	-0.54
610.774	17.46
610.896	7.46
611.018	13.46
611.14	2.46
611.263	1.46
611.385	-4.54
611.507	8.46
611.629	-5.54
611.751	26.46
611.873	24.46
611.996	15.46
612.118	13.46
612.24	29.46
612.362	18.46
612.484	13.46
612.607	11.46
612.729	31.46
612.851	21.46
612.973	-10.54
613.095	-5.54
613.218	9.46
613.34	26.46
613.462	18.46
613.584	15.46
613.706	6.46
613.828	41.46
613.951	7.46
614.073	13.46
614.195	-4.54
614.317	18.46
614.439	20.46
614.561	24.46
614.684	5.46
614.806	23.46
614.928	31.46
615.05	20.46
615.172	34.46
615.294	23.46
615.417	11.46
615.539	2.46
615.661	22.46
615.783	31.46
615.905	22.46
616.027	54.46
616.15	92.46
616.272	80.46
616.394	46.46
616.516	23.46
616.638	35.46
616.76	19.46
616.883	10.46
617.005	10.46
617.127	16.46
617.249	40.46
617.371	19.46
617.493	10.46
617.615	32.46
617.738	11.46
617.86	8.46
617.982	1.46
618.104	9.46
618.226	0.46
618.348	3.46
618.471	19.46
618.593	29.46
618.715	10.46
618.837	9.46
618.959	17.46
619.081	20.46
619.203	16.46
619.326	10.46
619.448	11.46
619.57	17.46
619.692	14.46
619.814	15.46
619.936	15.46
620.058	18.46
620.181	0.46
620.303	1.46
620.425	19.46
620.547	9.46
620.669	3.46
620.791	21.46
620.913	12.46
621.036	3.46
621.158	19.46
621.28	17.46
621.402	-5.54
621.524	9.46
621.646	13.46
621.768	-7.54
621.891	-19.54
622.013	-5.54
622.135	-0.54
622.257	0.46
622.379	-14.54
622.501	-4.54
622.623	-5.54
622.745	-1.54
622.868	6.46
622.99	9.46
623.112	8.46
623.234	-1.54
623.356	19.46
623.478	-10.54
623.6	15.46
623.722	1.46
623.845	9.46
623.967	-7.54
624.089	11.46
624.211	3.46
624.333	11.46
624.455	12.46
624.577	12.46
624.699	7.46
624.822	16.46
624.944	7.46
625.066	21.46
625.188	-6.54
625.31	22.46
625.432	12.46
625.554	9.46
625.676	29.46
625.799	13.46
625.921	14.46
626.043	12.46
626.165	15.46
626.287	-18.54
626.409	35.46
626.531	10.46
626.653	6.46
626.775	0.46
626.898	9.46
627.02	9.46
627.142	30.46
627.264	7.46
627.386	3.46
627.508	28.46
627.63	26.46
627.752	21.46
627.874	19.46
627.997	12.46
628.119	32.46
628.241	17.46
628.363	25.46
628.485	22.46
628.607	-2.54
628.729	-0.54
628.851	1.46
628.973	11.46
629.096	12.46
629.218	12.46
629.34	23.46
629.462	7.46
629.584	6.46
629.706	-0.54
629.828	1.46
629.95	19.46
630.072	5.46
630.195	3.46
630.317	4.46
630.439	1.46
630.561	6.46
630.683	-2.54
630.805	20.46
630.927	27.46
631.049	20.46
631.171	20.46
631.293	-1.54
631.416	22.46
631.538	-2.54
631.66	9.46
631.782	23.46
631.904	18.46
632.026	-0.54
632.148	-0.54
632.27	1.46
632.392	14.46
632.514	2.46
632.637	29.46
632.759	14.46
632.881	-2.54
633.003	2.46
633.125	-4.54
633.247	21.46
633.369	7.46
633.491	17.46
633.613	17.46
633.735	1.46
633.858	15.46
633.98	3.46
634.102	-19.54
634.224	6.46
634.346	12.46
634.468	11.46
634.59	7.46
634.712	-0.54
634.834	15.46
634.956	-13.54
635.078	-0.54
635.201	4.46
635.323	21.46
635.445	-8.54
635.567	-3.54
635.689	18.46
635.811	0.46
635.933	3.46
636.055	-3.54
636.177	9.46
636.299	6.46
636.421	-6.54
636.544	-8.54
636.666	5.46
636.788	5.46
636.91	9.46
637.032	12.46
637.154	1.46
637.276	12.46
637.398	19.46
637.52	18.46
637.642	11.46
637.764	12.46
637.887	-1.54
638.009	15.46
638.131	11.46
638.253	-0.54
638.375	23.46
638.497	28.46
638.619	1.46
638.741	-4.54
638.863	-11.54
638.985	-9.54
639.107	4.46
639.23	17.46
639.352	26.46
639.474	17.46
639.596	6.46
639.718	-4.54
639.84	0.46
639.962	4.46
640.084	11.46
640.206	11.46
640.328	0.46
640.45	11.46
640.573	0.46
640.695	9.46
640.817	36.46
640.939	6.46
641.061	-2.54
641.183	18.46
641.305	24.46
641.427	6.46
641.549	3.46
641.671	26.46
641.793	9.46
641.915	14.46
642.038	-0.54
642.16	5.46
642.282	9.46
642.404	10.46
642.526	12.46
642.648	5.46
642.77	-4.54
642.892	12.46
643.014	12.46
643.136	7.46
643.258	6.46
643.381	21.46
643.503	32.46
643.625	12.46
643.747	-5.54
643.869	7.46
643.991	8.46
644.113	8.46
644.235	18.46
644.357	-6.54
644.479	31.46
644.601	-0.54
644.723	-2.54
644.846	9.46
644.968	20.46
645.09	1.46
645.212	5.46
645.334	14.46
645.456	4.46
645.578	9.46
645.7	3.46
645.822	13.46
645.944	18.46
646.066	11.46
646.188	-8.54
646.311	7.46
646.433	4.46
646.555	26.46
646.677	32.46
646.799	38.46
646.921	27.46
647.043	20.46
647.165	7.46
647.287	12.46
647.409	9.46
647.531	32.46
647.654	-2.54
647.776	22.46
647.898	16.46
648.02	7.46
648.142	0.46
648.264	15.46
648.386	4.46
648.508	-3.54
648.63	-9.54
648.752	7.46
648.874	-0.54
648.997	9.46
649.119	14.46
649.241	3.46
649.363	29.46
649.485	9.46
649.607	10.46
649.729	-3.54
649.851	5.46
649.973	8.46
650.095	29.46
650.217	9.46
650.34	-10.54
650.462	10.46
650.584	12.46
650.706	20.46
650.828	10.46
650.95	5.46
651.072	15.46
651.194	10.46
651.316	7.46
651.438	20.46
651.56	9.46
651.683	10.46
651.805	14.46
651.927	10.46
652.049	-14.54
652.171	13.46
652.293	12.46
652.415	-6.54
652.537	7.46
652.659	2.46
652.781	15.46
652.903	24.46
653.026	38.46
653.148	22.46
653.27	19.46
653.392	18.46
653.514	-12.54
653.636	-2.54
653.758	8.46
653.88	17.46
654.002	0.46
654.124	28.46
654.247	14.46
654.369	13.46
654.491	4.46
654.613	24.46
654.735	-4.54
654.857	23.46
654.979	10.46
655.101	25.46
655.223	50.46
655.345	38.46
655.468	33.46
655.59	5.46
655.712	27.46
655.834	35.46
655.956	39.46
656.078	44.46
656.2	44.46
656.322	50.46
656.444	29.46
656.566	43.46
656.689	47.46
656.811	55.46
656.933	92.46
657.055	87.46
657.177	160.46
657.299	266.46
657.421	505.46
657.543	1905.46
657.665	12712.46
657.787	15189.46
657.91	15366.46
658.032	15662.46
658.154	4743.46
658.276	4388.46
658.398	1328.46
658.52	1087.46
658.642	517.46
658.764	600.46
658.886	288.46
659.009	414.46
659.131	217.46
659.253	331.46
659.375	160.46
659.497	265.46
659.619	135.46
659.741	208.46
659.863	81.46
659.985	153.46
660.108	100.46
660.23	145.46
660.352	123.46
660.474	165.46
660.596	91.46
660.718	152.46
660.84	50.46
660.962	119.46
661.084	51.46
661.207	112.46
661.329	64.46
661.451	102.46
661.573	53.46
661.695	109.46
661.817	64.46
661.939	100.46
662.061	71.46
662.184	61.46
662.306	48.46
662.428	71.46
662.55	57.46
662.672	72.46
662.794	42.46
662.916	59.46
663.038	32.46
663.161	75.46
663.283	42.46
663.405	76.46
663.527	21.46
663.649	61.46
663.771	35.46
663.893	59.46
664.015	38.46
664.138	48.46
664.26	28.46
664.382	42.46
664.504	27.46
664.626	40.46
664.748	24.46
664.87	42.46
664.992	36.46
665.115	58.46
665.237	10.46
665.359	35.46
665.481	34.46
665.603	44.46
665.725	22.46
665.847	31.46
665.97	11.46
666.092	55.46
666.214	17.46
666.336	39.46
666.458	36.46
666.58	39.46
666.702	16.46
666.825	23.46
666.947	32.46
667.069	47.46
667.191	12.46
667.313	37.46
667.435	22.46
667.557	20.46
667.68	18.46
667.802	28.46
667.924	7.46
668.046	44.46
668.168	24.46
668.29	35.46
668.412	20.46
668.535	45.46
668.657	17.46
668.779	19.46
668.901	7.46
669.023	39.46
669.145	5.46
669.267	39.46
669.39	23.46
669.512	27.46
669.634	28.46
669.756	4.46
669.878	22.46
670	32.46
670.123	14.46
670.245	34.46
670.367	21.46
670.489	49.46
670.611	15.46
670.733	23.46
670.856	-0.54
670.978	25.46
671.1	22.46
671.222	32.46
671.344	4.46
671.466	15.46
671.589	5.46
671.711	9.46
671.833	6.46
671.955	20.46
672.077	16.46
672.199	35.46
672.322	20.46
672.444	25.46
672.566	31.46
672.688	21.46
672.81	12.46
672.932	33.46
673.055	31.46
673.177	18.46
673.299	17.46
673.421	16.46
673.543	12.46
673.665	15.46
673.788	13.46
673.91	17.46
674.032	-8.54
674.154	18.46
674.276	25.46
674.399	12.46
674.521	22.46
674.643	32.46
674.765	15.46
674.887	23.46
675.009	1.46
675.132	6.46
675.254	9.46
675.376	14.46
675.498	20.46
675.62	48.46
675.743	23.46
675.865	20.46
675.987	2.46
676.109	20.46
676.231	7.46
676.354	27.46
676.476	1.46
676.598	39.46
676.72	5.46
676.842	27.46
676.965	2.46
677.087	15.46
677.209	9.46
677.331	33.46
677.453	1.46
677.576	10.46
677.698	30.46
677.82	16.46
677.942	12.46
678.064	14.46
678.187	3.46
678.309	13.46
678.431	10.46
678.553	9.46
678.675	31.46
678.798	40.46
678.92	23.46
679.042	11.46
679.164	6.46
679.286	14.46
679.409	6.46
679.531	-4.54
679.653	5.46
679.775	12.46
679.898	-5.54
680.02	9.46
680.142	1.46
680.264	12.46
680.386	13.46
680.509	24.46
680.631	3.46
680.753	15.46
680.875	7.46
680.998	12.46
681.12	-3.54
681.242	23.46
681.364	7.46
681.486	11.46
681.609	-5.54
681.731	-0.54
681.853	-6.54
681.975	12.46
682.098	26.46
682.22	36.46
682.342	4.46
682.464	23.46
682.587	6.46
682.709	16.46
682.831	-4.54
682.953	13.46
683.076	-3.54
683.198	-3.54
683.32	5.46
683.442	12.46
683.565	19.46
683.687	19.46
683.809	10.46
683.931	8.46
684.054	5.46
684.176	22.46
684.298	23.46
684.42	11.46
684.543	-1.54
684.665	12.46
684.787	-1.54
684.909	4.46
685.032	15.46
685.154	7.46
685.276	5.46
685.398	6.46
685.521	-4.54
685.643	34.46
685.765	20.46
685.887	24.46
686.01	23.46
686.132	27.46
686.254	15.46
686.377	27.46
686.499	10.46
686.621	10.46
686.743	10.46
686.866	8.46
686.988	27.46
687.11	28.46
687.232	13.46
687.355	15.46
687.477	17.46
687.599	30.46
687.722	14.46
687.844	14.46
687.966	6.46
688.088	27.46
688.211	31.46
688.333	22.46
688.455	15.46
688.578	27.46
688.7	17.46
688.822	17.46
688.944	-4.54
689.067	50.46
689.189	4.46
689.311	-6.54
689.434	-0.54
689.556	15.46
689.678	28.46
689.801	17.46
689.923	21.46
690.045	24.46
690.167	34.46
690.29	24.46
690.412	16.46
690.534	19.46
690.657	0.46
690.779	8.46
690.901	9.46
691.024	3.46
691.146	0.46
691.268	3.46
691.391	29.46
691.513	30.46
691.635	14.46
691.758	29.46
691.88	32.46
692.002	13.46
692.125	13.46
692.247	12.46
692.369	-8.54
692.492	-14.54
692.614	5.46
692.736	19.46
692.859	-11.54
692.981	1.46
693.103	8.46
693.226	12.46
693.348	26.46
693.47	11.46
693.593	7.46
693.715	6.46
693.837	2.46
693.96	-7.54
694.082	15.46
694.204	10.46
694.327	3.46
694.449	-7.54
694.571	9.46
694.694	11.46
694.816	10.46
694.938	-1.54
695.061	3.46
695.183	13.46
695.305	7.46
695.428	29.46
695.55	-2.54
695.672	3.46
695.795	8.46
695.917	18.46
696.04	-0.54
696.162	5.46
696.284	21.46
696.407	3.46
696.529	4.46
696.651	33.46
696.774	-11.54
696.896	27.46
697.019	2.46
697.141	8.46
697.263	-1.54
697.386	-7.54
697.508	5.46
697.63	27.46
697.753	6.46
697.875	4.46
697.998	12.46
698.12	25.46
698.242	7.46
698.365	5.46
698.487	12.46
698.61	19.46
698.732	13.46
698.854	17.46
698.977	3.46
699.099	20.46
699.221	4.46
699.344	6.46
699.466	12.46
699.589	23.46
699.711	-17.54
699.834	7.46
699.956	1.46
700.078	3.46
700.201	-2.54
700.323	32.46
700.446	11.46
700.568	-4.54
700.69	12.46
700.813	11.46
700.935	9.46
701.058	6.46
701.18	5.46
701.302	34.46
701.425	10.46
701.547	15.46
701.67	10.46
701.792	10.46
701.915	-8.54
702.037	9.46
702.159	2.46
702.282	7.46
702.404	7.46
702.527	13.46
702.649	27.46
702.772	18.46
702.894	11.46
703.017	18.46
703.139	13.46
703.261	21.46
703.384	25.46
703.506	-4.54
703.629	3.46
703.751	12.46
703.874	21.46
703.996	13.46
704.119	10.46
704.241	27.46
704.364	-13.54
704.486	22.46
704.608	16.46
704.731	5.46
704.853	9.46
704.976	-0.54
705.098	7.46
705.221	1.46
705.343	17.46
705.466	5.46
705.588	7.46
705.711	9.46
705.833	16.46
705.956	21.46
706.078	20.46
706.201	3.46
706.323	2.46
706.446	15.46
