Data from LowRes_H2_15_26_11_07_2024_HR4C61881__52__15-28-18-837.txt Node

Date: Thu Nov 07 15:28:18 EST 2024
User: crc00042
Spectrometer: HR4C6188
Trigger mode: 4
Integration Time (sec): 1.000000E-1
Scans to average: 1
Electric dark correction enabled: true
Nonlinearity correction enabled: false
Boxcar width: 0
XAxis mode: Wavelengths
Number of Pixels in Spectrum: 3648
>>>>>Begin Spectral Data<<<<<
245.66	-81.85
245.797	-81.85
245.934	-81.85
246.071	-99.85
246.208	8.15
246.344	3.15
246.481	3.15
246.618	-15.85
246.755	10.15
246.892	-4.85
247.029	-26.85
247.165	2.15
247.302	14.15
247.439	2.15
247.576	15.15
247.713	-9.85
247.849	18.15
247.986	-10.85
248.123	16.15
248.26	3.15
248.396	17.15
248.533	10.15
248.67	-19.85
248.806	-9.85
248.943	-0.85
249.08	-9.85
249.216	18.15
249.353	-27.85
249.49	-6.85
249.626	-11.85
249.763	13.15
249.9	-16.85
250.036	-8.85
250.173	6.15
250.309	7.15
250.446	5.15
250.582	-20.85
250.719	-8.85
250.856	-19.85
250.992	-13.85
251.129	-2.85
251.265	-1.85
251.402	0.15
251.538	-0.85
251.675	20.15
251.811	11.15
251.948	16.15
252.084	6.15
252.221	-7.85
252.357	5.15
252.493	25.15
252.63	17.15
252.766	24.15
252.903	2.15
253.039	-0.85
253.175	0.15
253.312	19.15
253.448	-7.85
253.585	-28.85
253.721	-8.85
253.857	-14.85
253.994	7.15
254.13	-5.85
254.266	-1.85
254.403	1.15
254.539	13.15
254.675	-9.85
254.811	13.15
254.948	16.15
255.084	-5.85
255.22	-11.85
255.356	1.15
255.493	-6.85
255.629	6.15
255.765	-0.85
255.901	5.15
256.037	7.15
256.174	0.15
256.31	-4.85
256.446	-6.85
256.582	-1.85
256.718	-2.85
256.854	10.15
256.991	8.15
257.127	17.15
257.263	-6.85
257.399	1.15
257.535	-8.85
257.671	20.15
257.807	-10.85
257.943	-17.85
258.079	-23.85
258.215	-5.85
258.351	-2.85
258.487	-0.85
258.623	-6.85
258.759	3.15
258.895	-10.85
259.031	10.15
259.167	-7.85
259.303	7.15
259.439	-3.85
259.575	-9.85
259.711	2.15
259.847	-13.85
259.983	-3.85
260.119	-16.85
260.255	-4.85
260.391	17.15
260.527	-4.85
260.663	10.15
260.799	-16.85
260.934	4.15
261.07	-0.85
261.206	-21.85
261.342	-15.85
261.478	16.15
261.614	-0.85
261.749	-1.85
261.885	-7.85
262.021	-7.85
262.157	10.15
262.293	4.15
262.428	5.15
262.564	-7.85
262.7	8.15
262.836	5.15
262.971	31.15
263.107	23.15
263.243	17.15
263.378	4.15
263.514	-14.85
263.65	7.15
263.785	-12.85
263.921	-8.85
264.057	1.15
264.192	9.15
264.328	4.15
264.464	-4.85
264.599	18.15
264.735	17.15
264.871	-11.85
265.006	5.15
265.142	10.15
265.277	0.15
265.413	21.15
265.548	3.15
265.684	11.15
265.819	1.15
265.955	-5.85
266.091	-7.85
266.226	0.15
266.362	-2.85
266.497	7.15
266.633	-9.85
266.768	-8.85
266.903	8.15
267.039	23.15
267.174	18.15
267.31	2.15
267.445	-1.85
267.581	5.15
267.716	7.15
267.851	17.15
267.987	20.15
268.122	5.15
268.258	-9.85
268.393	-3.85
268.528	18.15
268.664	6.15
268.799	-20.85
268.934	6.15
269.07	-5.85
269.205	9.15
269.34	21.15
269.476	6.15
269.611	-24.85
269.746	27.15
269.881	20.15
270.017	30.15
270.152	5.15
270.287	12.15
270.422	10.15
270.558	5.15
270.693	10.15
270.828	-1.85
270.963	-28.85
271.098	-13.85
271.234	-8.85
271.369	18.15
271.504	10.15
271.639	-21.85
271.774	-11.85
271.909	3.15
272.045	-26.85
272.18	8.15
272.315	-22.85
272.45	9.15
272.585	8.15
272.72	19.15
272.855	-5.85
272.99	-4.85
273.125	-9.85
273.26	-21.85
273.395	-6.85
273.53	-1.85
273.665	13.15
273.8	-5.85
273.935	14.15
274.07	-1.85
274.205	0.15
274.34	-14.85
274.475	1.15
274.61	9.15
274.745	-15.85
274.88	18.15
275.015	-15.85
275.15	2.15
275.285	12.15
275.42	-4.85
275.555	17.15
275.69	-2.85
275.825	3.15
275.959	7.15
276.094	-7.85
276.229	6.15
276.364	-1.85
276.499	2.15
276.634	13.15
276.768	-2.85
276.903	-7.85
277.038	24.15
277.173	-1.85
277.308	7.15
277.442	-10.85
277.577	-24.85
277.712	-8.85
277.847	0.15
277.981	-0.85
278.116	-19.85
278.251	26.15
278.386	10.15
278.52	12.15
278.655	-12.85
278.79	27.15
278.924	3.15
279.059	0.15
279.194	-20.85
279.328	23.15
279.463	9.15
279.598	11.15
279.732	3.15
279.867	18.15
280.001	18.15
280.136	-7.85
280.271	-1.85
280.405	19.15
280.54	-1.85
280.674	-16.85
280.809	7.15
280.943	-12.85
281.078	0.15
281.213	19.15
281.347	20.15
281.482	1.15
281.616	-20.85
281.751	-8.85
281.885	-11.85
282.02	3.15
282.154	11.15
282.288	-12.85
282.423	-10.85
282.557	-15.85
282.692	-8.85
282.826	-5.85
282.961	1.15
283.095	8.15
283.229	-9.85
283.364	1.15
283.498	5.15
283.633	9.15
283.767	2.15
283.901	12.15
284.036	-2.85
284.17	-12.85
284.304	-4.85
284.439	-3.85
284.573	-10.85
284.707	25.15
284.842	2.15
284.976	-0.85
285.11	-17.85
285.244	-4.85
285.379	36.15
285.513	-13.85
285.647	6.15
285.781	-0.85
285.916	16.15
286.05	-2.85
286.184	21.15
286.318	17.15
286.453	-11.85
286.587	-13.85
286.721	-3.85
286.855	8.15
286.989	20.15
287.123	12.15
287.258	-7.85
287.392	-5.85
287.526	-8.85
287.66	-19.85
287.794	-11.85
287.928	7.15
288.062	18.15
288.196	5.15
288.33	10.15
288.464	15.15
288.598	23.15
288.733	-1.85
288.867	-2.85
289.001	-3.85
289.135	9.15
289.269	2.15
289.403	10.15
289.537	14.15
289.671	-5.85
289.805	-22.85
289.939	1.15
290.073	-3.85
290.207	4.15
290.34	-7.85
290.474	9.15
290.608	4.15
290.742	-10.85
290.876	-3.85
291.01	11.15
291.144	20.15
291.278	5.15
291.412	-5.85
291.546	-8.85
291.679	13.15
291.813	-7.85
291.947	-12.85
292.081	-11.85
292.215	-9.85
292.349	24.15
292.482	12.15
292.616	7.15
292.75	19.15
292.884	19.15
293.018	5.15
293.151	-28.85
293.285	-19.85
293.419	-34.85
293.553	-3.85
293.686	-13.85
293.82	-4.85
293.954	22.15
294.088	34.15
294.221	-16.85
294.355	-24.85
294.489	-14.85
294.622	-17.85
294.756	0.15
294.89	-2.85
295.023	10.15
295.157	3.15
295.291	-16.85
295.424	10.15
295.558	-9.85
295.691	-8.85
295.825	-0.85
295.959	0.15
296.092	-3.85
296.226	8.15
296.359	-4.85
296.493	4.15
296.627	0.15
296.76	12.15
296.894	-10.85
297.027	4.15
297.161	-3.85
297.294	-17.85
297.428	-0.85
297.561	21.15
297.695	-12.85
297.828	3.15
297.962	-3.85
298.095	-21.85
298.229	19.15
298.362	-12.85
298.495	-12.85
298.629	-0.85
298.762	-10.85
298.896	1.15
299.029	-3.85
299.162	2.15
299.296	2.15
299.429	-7.85
299.563	16.15
299.696	-0.85
299.829	0.15
299.963	31.15
300.096	7.15
300.229	11.15
300.363	-3.85
300.496	9.15
300.629	-20.85
300.763	-27.85
300.896	-15.85
301.029	5.15
301.162	5.15
301.296	-11.85
301.429	5.15
301.562	-5.85
301.695	10.15
301.829	16.15
301.962	-5.85
302.095	5.15
302.228	-3.85
302.362	-3.85
302.495	-18.85
302.628	0.15
302.761	-4.85
302.894	-3.85
303.027	7.15
303.161	-9.85
303.294	-8.85
303.427	1.15
303.56	18.15
303.693	-6.85
303.826	-3.85
303.959	1.15
304.092	3.15
304.225	-6.85
304.359	10.15
304.492	1.15
304.625	-5.85
304.758	2.15
304.891	-11.85
305.024	9.15
305.157	7.15
305.29	-7.85
305.423	-1.85
305.556	2.15
305.689	16.15
305.822	-20.85
305.955	2.15
306.088	-7.85
306.221	-5.85
306.354	0.15
306.487	-14.85
306.62	-10.85
306.752	-24.85
306.885	5.15
307.018	9.15
307.151	6.15
307.284	9.15
307.417	-24.85
307.55	-5.85
307.683	1.15
307.816	24.15
307.948	12.15
308.081	13.15
308.214	7.15
308.347	5.15
308.48	-1.85
308.613	-13.85
308.745	-0.85
308.878	1.15
309.011	-22.85
309.144	4.15
309.277	0.15
309.409	14.15
309.542	-12.85
309.675	10.15
309.808	8.15
309.94	12.15
310.073	-13.85
310.206	10.15
310.339	20.15
310.471	-18.85
310.604	7.15
310.737	-4.85
310.869	1.15
311.002	10.15
311.135	-14.85
311.267	-5.85
311.4	4.15
311.533	3.15
311.665	-10.85
311.798	-6.85
311.93	12.15
312.063	9.15
312.196	11.15
312.328	-1.85
312.461	-11.85
312.593	4.15
312.726	17.15
312.859	14.15
312.991	-3.85
313.124	-27.85
313.256	22.15
313.389	11.15
313.521	-9.85
313.654	-4.85
313.786	-4.85
313.919	-2.85
314.051	-0.85
314.184	-12.85
314.316	6.15
314.449	-19.85
314.581	2.15
314.714	-3.85
314.846	-4.85
314.978	-19.85
315.111	-7.85
315.243	-3.85
315.376	5.15
315.508	19.15
315.641	0.15
315.773	22.15
315.905	-1.85
316.038	-10.85
316.17	-9.85
316.302	1.15
316.435	-8.85
316.567	3.15
316.699	18.15
316.832	6.15
316.964	-1.85
317.096	0.15
317.229	-14.85
317.361	-22.85
317.493	2.15
317.625	-7.85
317.758	11.15
317.89	4.15
318.022	-2.85
318.155	-1.85
318.287	6.15
318.419	-7.85
318.551	-11.85
318.683	-6.85
318.816	-0.85
318.948	-7.85
319.08	11.15
319.212	3.15
319.344	13.15
319.477	27.15
319.609	6.15
319.741	10.15
319.873	-20.85
320.005	-1.85
320.137	1.15
320.269	2.15
320.401	8.15
320.534	2.15
320.666	-29.85
320.798	-16.85
320.93	-11.85
321.062	-21.85
321.194	8.15
321.326	12.15
321.458	-1.85
321.59	5.15
321.722	-22.85
321.854	-10.85
321.986	9.15
322.118	-8.85
322.25	-0.85
322.382	6.15
322.514	-7.85
322.646	-13.85
322.778	28.15
322.91	-9.85
323.042	5.15
323.174	-9.85
323.306	-6.85
323.438	-9.85
323.57	9.15
323.702	-5.85
323.834	-8.85
323.966	-15.85
324.097	-0.85
324.229	13.15
324.361	3.15
324.493	-1.85
324.625	-9.85
324.757	-3.85
324.889	2.15
325.021	21.15
325.152	27.15
325.284	20.15
325.416	2.15
325.548	27.15
325.68	1.15
325.811	28.15
325.943	21.15
326.075	-4.85
326.207	-1.85
326.339	-11.85
326.47	2.15
326.602	-2.85
326.734	17.15
326.866	8.15
326.997	-8.85
327.129	-10.85
327.261	-13.85
327.392	-7.85
327.524	-5.85
327.656	3.15
327.787	-11.85
327.919	14.15
328.051	5.15
328.182	15.15
328.314	12.15
328.446	-5.85
328.577	14.15
328.709	4.15
328.841	-23.85
328.972	-22.85
329.104	-14.85
329.235	16.15
329.367	-0.85
329.499	-13.85
329.63	0.15
329.762	-1.85
329.893	9.15
330.025	7.15
330.156	-23.85
330.288	-12.85
330.419	14.15
330.551	16.15
330.683	17.15
330.814	10.15
330.946	8.15
331.077	-4.85
331.208	-12.85
331.34	-13.85
331.471	-8.85
331.603	10.15
331.734	0.15
331.866	8.15
331.997	12.15
332.129	-5.85
332.26	2.15
332.392	12.15
332.523	-9.85
332.654	-5.85
332.786	-4.85
332.917	-12.85
333.048	4.15
333.18	0.15
333.311	-4.85
333.443	-11.85
333.574	8.15
333.705	6.15
333.837	-10.85
333.968	-4.85
334.099	20.15
334.231	28.15
334.362	-4.85
334.493	3.15
334.624	11.15
334.756	6.15
334.887	10.15
335.018	9.15
335.15	25.15
335.281	-3.85
335.412	14.15
335.543	22.15
335.675	8.15
335.806	17.15
335.937	10.15
336.068	5.15
336.199	35.15
336.331	-7.85
336.462	11.15
336.593	4.15
336.724	7.15
336.855	12.15
336.986	21.15
337.118	4.15
337.249	7.15
337.38	6.15
337.511	15.15
337.642	20.15
337.773	0.15
337.904	26.15
338.035	22.15
338.166	8.15
338.298	9.15
338.429	-23.85
338.56	-0.85
338.691	10.15
338.822	-0.85
338.953	20.15
339.084	-0.85
339.215	13.15
339.346	1.15
339.477	6.15
339.608	1.15
339.739	2.15
339.87	-0.85
340.001	-0.85
340.132	4.15
340.263	-13.85
340.394	4.15
340.525	6.15
340.656	0.15
340.787	-8.85
340.918	20.15
341.049	11.15
341.179	7.15
341.31	15.15
341.441	2.15
341.572	5.15
341.703	-4.85
341.834	-7.85
341.965	1.15
342.096	-20.85
342.227	-3.85
342.357	14.15
342.488	36.15
342.619	9.15
342.75	5.15
342.881	-14.85
343.012	33.15
343.142	38.15
343.273	-7.85
343.404	10.15
343.535	48.15
343.666	26.15
343.796	3.15
343.927	7.15
344.058	4.15
344.189	3.15
344.319	10.15
344.45	-8.85
344.581	9.15
344.712	-15.85
344.842	-14.85
344.973	2.15
345.104	6.15
345.234	-2.85
345.365	4.15
345.496	18.15
345.626	10.15
345.757	4.15
345.888	-9.85
346.018	26.15
346.149	1.15
346.28	15.15
346.41	8.15
346.541	16.15
346.672	5.15
346.802	-0.85
346.933	7.15
347.063	-4.85
347.194	2.15
347.325	-11.85
347.455	2.15
347.586	3.15
347.716	-16.85
347.847	7.15
347.977	-0.85
348.108	13.15
348.238	-10.85
348.369	11.15
348.499	-0.85
348.63	7.15
348.76	9.15
348.891	8.15
349.021	4.15
349.152	19.15
349.282	0.15
349.413	-6.85
349.543	12.15
349.674	4.15
349.804	15.15
349.935	-27.85
350.065	-19.85
350.196	-5.85
350.326	-3.85
350.456	-11.85
350.587	26.15
350.717	-0.85
350.848	6.15
350.978	20.15
351.108	3.15
351.239	20.15
351.369	5.15
351.499	-1.85
351.63	15.15
351.76	4.15
351.89	-12.85
352.021	15.15
352.151	6.15
352.281	14.15
352.412	14.15
352.542	1.15
352.672	-1.85
352.803	-4.85
352.933	-17.85
353.063	-5.85
353.193	2.15
353.324	-14.85
353.454	14.15
353.584	3.15
353.714	9.15
353.845	13.15
353.975	-7.85
354.105	-1.85
354.235	-1.85
354.365	-19.85
354.496	-2.85
354.626	-3.85
354.756	20.15
354.886	8.15
355.016	21.15
355.146	-20.85
355.277	1.15
355.407	2.15
355.537	-5.85
355.667	-4.85
355.797	-3.85
355.927	-2.85
356.057	14.15
356.187	-7.85
356.318	-6.85
356.448	8.15
356.578	13.15
356.708	30.15
356.838	-4.85
356.968	-9.85
357.098	5.15
357.228	0.15
357.358	-14.85
357.488	-19.85
357.618	22.15
357.748	8.15
357.878	6.15
358.008	12.15
358.138	-1.85
358.268	6.15
358.398	2.15
358.528	-24.85
358.658	4.15
358.788	-5.85
358.918	14.15
359.048	2.15
359.178	22.15
359.308	4.15
359.438	31.15
359.568	23.15
359.698	15.15
359.827	-4.85
359.957	-1.85
360.087	-12.85
360.217	16.15
360.347	13.15
360.477	22.15
360.607	2.15
360.737	19.15
360.866	-8.85
360.996	-16.85
361.126	12.15
361.256	11.15
361.386	9.15
361.516	26.15
361.645	-6.85
361.775	24.15
361.905	-11.85
362.035	10.15
362.165	0.15
362.294	3.15
362.424	8.15
362.554	25.15
362.684	7.15
362.813	-5.85
362.943	7.15
363.073	-2.85
363.203	-4.85
363.332	12.15
363.462	-9.85
363.592	-28.85
363.721	-5.85
363.851	15.15
363.981	13.15
364.111	0.15
364.24	5.15
364.37	5.15
364.5	14.15
364.629	-4.85
364.759	-13.85
364.888	-9.85
365.018	-1.85
365.148	-0.85
365.277	-12.85
365.407	18.15
365.537	4.15
365.666	21.15
365.796	7.15
365.925	0.15
366.055	19.15
366.184	3.15
366.314	6.15
366.444	0.15
366.573	-11.85
366.703	2.15
366.832	2.15
366.962	8.15
367.091	6.15
367.221	7.15
367.35	2.15
367.48	27.15
367.609	11.15
367.739	4.15
367.868	-22.85
367.998	12.15
368.127	22.15
368.257	-2.85
368.386	39.15
368.516	10.15
368.645	-5.85
368.775	7.15
368.904	7.15
369.033	-9.85
369.163	-1.85
369.292	8.15
369.422	2.15
369.551	20.15
369.68	12.15
369.81	13.15
369.939	-13.85
370.069	18.15
370.198	26.15
370.327	2.15
370.457	0.15
370.586	7.15
370.715	-0.85
370.845	0.15
370.974	22.15
371.103	33.15
371.233	11.15
371.362	12.15
371.491	-1.85
371.621	12.15
371.75	22.15
371.879	-7.85
372.008	-2.85
372.138	5.15
372.267	24.15
372.396	-6.85
372.525	3.15
372.655	-10.85
372.784	5.15
372.913	-0.85
373.042	-0.85
373.172	8.15
373.301	-8.85
373.43	-13.85
373.559	2.15
373.688	20.15
373.818	30.15
373.947	40.15
374.076	4.15
374.205	14.15
374.334	8.15
374.463	-13.85
374.593	10.15
374.722	12.15
374.851	22.15
374.98	-14.85
375.109	-16.85
375.238	2.15
375.367	34.15
375.496	-15.85
375.625	13.15
375.755	25.15
375.884	19.15
376.013	6.15
376.142	-15.85
376.271	0.15
376.4	29.15
376.529	16.15
376.658	19.15
376.787	3.15
376.916	16.15
377.045	11.15
377.174	11.15
377.303	3.15
377.432	14.15
377.561	11.15
377.69	-9.85
377.819	6.15
377.948	2.15
378.077	-20.85
378.206	6.15
378.335	-4.85
378.464	6.15
378.593	15.15
378.722	-7.85
378.851	1.15
378.98	10.15
379.108	-0.85
379.237	6.15
379.366	8.15
379.495	21.15
379.624	13.15
379.753	7.15
379.882	3.15
380.011	-20.85
380.14	-14.85
380.268	4.15
380.397	-3.85
380.526	21.15
380.655	-3.85
380.784	-10.85
380.913	-5.85
381.041	0.15
381.17	1.15
381.299	-3.85
381.428	-4.85
381.557	12.15
381.685	6.15
381.814	22.15
381.943	5.15
382.072	-10.85
382.2	-17.85
382.329	5.15
382.458	12.15
382.587	9.15
382.715	11.15
382.844	22.15
382.973	-0.85
383.102	-6.85
383.23	5.15
383.359	-15.85
383.488	12.15
383.616	0.15
383.745	-17.85
383.874	22.15
384.003	-5.85
384.131	2.15
384.26	-13.85
384.389	8.15
384.517	-7.85
384.646	-11.85
384.774	16.15
384.903	16.15
385.032	19.15
385.16	20.15
385.289	3.15
385.418	6.15
385.546	4.15
385.675	19.15
385.803	4.15
385.932	-5.85
386.06	10.15
386.189	9.15
386.318	4.15
386.446	3.15
386.575	25.15
386.703	12.15
386.832	0.15
386.96	-1.85
387.089	27.15
387.217	1.15
387.346	-9.85
387.474	26.15
387.603	12.15
387.731	15.15
387.86	18.15
387.988	8.15
388.117	9.15
388.245	-9.85
388.374	-3.85
388.502	23.15
388.631	-0.85
388.759	-11.85
388.888	4.15
389.016	2.15
389.144	7.15
389.273	1.15
389.401	-6.85
389.53	-8.85
389.658	16.15
389.786	-7.85
389.915	-4.85
390.043	-9.85
390.172	-9.85
390.3	14.15
390.428	18.15
390.557	-6.85
390.685	15.15
390.813	25.15
390.942	13.15
391.07	-22.85
391.198	4.15
391.327	0.15
391.455	-21.85
391.583	23.15
391.712	29.15
391.84	21.15
391.968	1.15
392.096	7.15
392.225	3.15
392.353	7.15
392.481	-6.85
392.609	11.15
392.738	-2.85
392.866	9.15
392.994	0.15
393.122	22.15
393.251	1.15
393.379	-0.85
393.507	-11.85
393.635	-2.85
393.764	21.15
393.892	22.15
394.02	-7.85
394.148	-6.85
394.276	2.15
394.404	8.15
394.533	-8.85
394.661	4.15
394.789	24.15
394.917	14.15
395.045	-11.85
395.173	-2.85
395.302	-13.85
395.43	20.15
395.558	4.15
395.686	22.15
395.814	10.15
395.942	-1.85
396.07	8.15
396.198	-1.85
396.326	7.15
396.454	24.15
396.582	-0.85
396.711	11.15
396.839	8.15
396.967	5.15
397.095	-1.85
397.223	14.15
397.351	40.15
397.479	26.15
397.607	-5.85
397.735	18.15
397.863	2.15
397.991	-6.85
398.119	2.15
398.247	-7.85
398.375	0.15
398.503	19.15
398.631	20.15
398.759	10.15
398.887	-8.85
399.015	-15.85
399.143	-11.85
399.271	-7.85
399.399	7.15
399.526	5.15
399.654	13.15
399.782	-1.85
399.91	23.15
400.038	19.15
400.166	0.15
400.294	14.15
400.422	-5.85
400.55	11.15
400.678	0.15
400.805	-0.85
400.933	0.15
401.061	8.15
401.189	6.15
401.317	37.15
401.445	24.15
401.573	20.15
401.7	9.15
401.828	15.15
401.956	4.15
402.084	13.15
402.212	10.15
402.34	11.15
402.467	7.15
402.595	3.15
402.723	17.15
402.851	22.15
402.978	3.15
403.106	7.15
403.234	0.15
403.362	28.15
403.489	22.15
403.617	14.15
403.745	24.15
403.873	-3.85
404	15.15
404.128	-7.85
404.256	13.15
404.384	0.15
404.511	4.15
404.639	-3.85
404.767	7.15
404.894	22.15
405.022	-5.85
405.15	31.15
405.277	-0.85
405.405	-12.85
405.533	-0.85
405.66	4.15
405.788	-9.85
405.916	-20.85
406.043	-9.85
406.171	-1.85
406.299	-0.85
406.426	5.15
406.554	5.15
406.681	7.15
406.809	0.15
406.937	-7.85
407.064	14.15
407.192	13.15
407.319	7.15
407.447	11.15
407.574	14.15
407.702	7.15
407.83	-13.85
407.957	-17.85
408.085	2.15
408.212	5.15
408.34	2.15
408.467	-0.85
408.595	18.15
408.722	26.15
408.85	19.15
408.977	0.15
409.105	8.15
409.232	-5.85
409.36	-5.85
409.487	1.15
409.615	17.15
409.742	21.15
409.87	29.15
409.997	28.15
410.125	62.15
410.252	45.15
410.379	59.15
410.507	20.15
410.634	15.15
410.762	-4.85
410.889	8.15
411.017	-6.85
411.144	16.15
411.271	-8.85
411.399	-5.85
411.526	0.15
411.653	27.15
411.781	20.15
411.908	4.15
412.036	16.15
412.163	30.15
412.29	7.15
412.418	7.15
412.545	16.15
412.672	7.15
412.8	26.15
412.927	10.15
413.054	33.15
413.182	20.15
413.309	0.15
413.436	-9.85
413.564	8.15
413.691	17.15
413.818	22.15
413.945	-10.85
414.073	-7.85
414.2	0.15
414.327	-14.85
414.454	8.15
414.582	5.15
414.709	-19.85
414.836	-13.85
414.963	4.15
415.091	4.15
415.218	-0.85
415.345	7.15
415.472	8.15
415.6	5.15
415.727	5.15
415.854	-3.85
415.981	3.15
416.108	-3.85
416.236	9.15
416.363	2.15
416.49	14.15
416.617	-9.85
416.744	11.15
416.871	16.15
416.998	-1.85
417.126	-1.85
417.253	-6.85
417.38	1.15
417.507	2.15
417.634	-3.85
417.761	19.15
417.888	13.15
418.015	6.15
418.143	27.15
418.27	21.15
418.397	2.15
418.524	7.15
418.651	1.15
418.778	26.15
418.905	28.15
419.032	9.15
419.159	-5.85
419.286	26.15
419.413	15.15
419.54	37.15
419.667	9.15
419.794	-4.85
419.921	8.15
420.048	5.15
420.175	11.15
420.302	-29.85
420.429	1.15
420.556	1.15
420.683	-14.85
420.81	0.15
420.937	18.15
421.064	16.15
421.191	5.15
421.318	8.15
421.445	23.15
421.572	5.15
421.699	21.15
421.826	15.15
421.953	12.15
422.08	0.15
422.207	-0.85
422.334	-5.85
422.461	14.15
422.588	0.15
422.714	4.15
422.841	26.15
422.968	38.15
423.095	14.15
423.222	7.15
423.349	17.15
423.476	23.15
423.603	-1.85
423.729	-3.85
423.856	-8.85
423.983	13.15
424.11	-5.85
424.237	12.15
424.364	13.15
424.491	2.15
424.617	-7.85
424.744	7.15
424.871	5.15
424.998	-12.85
425.125	-7.85
425.251	11.15
425.378	-12.85
425.505	0.15
425.632	8.15
425.758	-17.85
425.885	-11.85
426.012	20.15
426.139	17.15
426.266	12.15
426.392	6.15
426.519	22.15
426.646	5.15
426.772	16.15
426.899	-11.85
427.026	7.15
427.153	13.15
427.279	8.15
427.406	20.15
427.533	19.15
427.659	7.15
427.786	-1.85
427.913	4.15
428.039	-8.85
428.166	8.15
428.293	4.15
428.419	20.15
428.546	10.15
428.673	7.15
428.799	-6.85
428.926	-17.85
429.053	24.15
429.179	7.15
429.306	15.15
429.433	10.15
429.559	16.15
429.686	-7.85
429.812	-8.85
429.939	-8.85
430.066	-14.85
430.192	10.15
430.319	-2.85
430.445	-10.85
430.572	7.15
430.699	-5.85
430.825	-17.85
430.952	18.15
431.078	-0.85
431.205	9.15
431.331	-2.85
431.458	-4.85
431.584	10.15
431.711	-3.85
431.837	8.15
431.964	-2.85
432.09	4.15
432.217	-18.85
432.343	-12.85
432.47	20.15
432.596	6.15
432.723	-12.85
432.849	-8.85
432.976	20.15
433.102	18.15
433.229	-0.85
433.355	35.15
433.482	58.15
433.608	137.15
433.735	154.15
433.861	145.15
433.987	151.15
434.114	234.15
434.24	190.15
434.367	53.15
434.493	15.15
434.62	11.15
434.746	39.15
434.872	12.15
434.999	8.15
435.125	11.15
435.252	-7.85
435.378	12.15
435.504	-7.85
435.631	10.15
435.757	-5.85
435.883	0.15
436.01	9.15
436.136	3.15
436.262	17.15
436.389	-12.85
436.515	21.15
436.641	7.15
436.768	19.15
436.894	-2.85
437.02	11.15
437.147	28.15
437.273	7.15
437.399	18.15
437.526	25.15
437.652	6.15
437.778	31.15
437.904	2.15
438.031	6.15
438.157	5.15
438.283	2.15
438.409	-6.85
438.536	3.15
438.662	17.15
438.788	2.15
438.914	3.15
439.041	1.15
439.167	19.15
439.293	1.15
439.419	5.15
439.546	-0.85
439.672	5.15
439.798	6.15
439.924	21.15
440.05	24.15
440.177	19.15
440.303	12.15
440.429	13.15
440.555	3.15
440.681	1.15
440.807	36.15
440.934	12.15
441.06	18.15
441.186	1.15
441.312	18.15
441.438	10.15
441.564	13.15
441.69	15.15
441.816	-3.85
441.943	2.15
442.069	3.15
442.195	21.15
442.321	23.15
442.447	3.15
442.573	-2.85
442.699	-0.85
442.825	-4.85
442.951	16.15
443.077	20.15
443.203	10.15
443.33	4.15
443.456	-4.85
443.582	16.15
443.708	-3.85
443.834	9.15
443.96	9.15
444.086	7.15
444.212	24.15
444.338	20.15
444.464	9.15
444.59	9.15
444.716	0.15
444.842	19.15
444.968	7.15
445.094	6.15
445.22	-6.85
445.346	-6.85
445.472	-4.85
445.598	6.15
445.724	3.15
445.85	5.15
445.976	7.15
446.102	15.15
446.228	0.15
446.354	11.15
446.48	-16.85
446.605	12.15
446.731	21.15
446.857	10.15
446.983	10.15
447.109	6.15
447.235	3.15
447.361	-12.85
447.487	20.15
447.613	22.15
447.739	0.15
447.865	-4.85
447.99	10.15
448.116	3.15
448.242	6.15
448.368	11.15
448.494	0.15
448.62	11.15
448.746	3.15
448.872	1.15
448.997	16.15
449.123	-11.85
449.249	25.15
449.375	28.15
449.501	2.15
449.627	-10.85
449.752	13.15
449.878	16.15
450.004	-8.85
450.13	11.15
450.256	1.15
450.381	1.15
450.507	14.15
450.633	12.15
450.759	16.15
450.884	-10.85
451.01	21.15
451.136	7.15
451.262	22.15
451.388	18.15
451.513	5.15
451.639	23.15
451.765	19.15
451.89	12.15
452.016	-11.85
452.142	-1.85
452.268	6.15
452.393	8.15
452.519	-10.85
452.645	10.15
452.771	11.15
452.896	3.15
453.022	1.15
453.148	41.15
453.273	26.15
453.399	11.15
453.525	-7.85
453.65	-5.85
453.776	4.15
453.902	17.15
454.027	23.15
454.153	14.15
454.279	24.15
454.404	14.15
454.53	17.15
454.656	37.15
454.781	5.15
454.907	-2.85
455.032	12.15
455.158	26.15
455.284	18.15
455.409	-0.85
455.535	1.15
455.66	9.15
455.786	20.15
455.912	1.15
456.037	-16.85
456.163	-5.85
456.288	27.15
456.414	13.15
456.539	-3.85
456.665	16.15
456.791	3.15
456.916	11.15
457.042	24.15
457.167	-4.85
457.293	6.15
457.418	9.15
457.544	11.15
457.669	19.15
457.795	24.15
457.92	15.15
458.046	4.15
458.171	5.15
458.297	1.15
458.422	1.15
458.548	-3.85
458.673	22.15
458.799	1.15
458.924	-0.85
459.05	15.15
459.175	-3.85
459.301	-11.85
459.426	4.15
459.552	25.15
459.677	-7.85
459.803	10.15
459.928	13.15
460.053	12.15
460.179	-4.85
460.304	1.15
460.43	0.15
460.555	24.15
460.681	5.15
460.806	16.15
460.931	8.15
461.057	1.15
461.182	2.15
461.308	9.15
461.433	24.15
461.558	8.15
461.684	32.15
461.809	8.15
461.934	6.15
462.06	24.15
462.185	10.15
462.311	1.15
462.436	12.15
462.561	21.15
462.687	10.15
462.812	9.15
462.937	-3.85
463.063	0.15
463.188	-10.85
463.313	3.15
463.439	1.15
463.564	-1.85
463.689	22.15
463.814	21.15
463.94	14.15
464.065	18.15
464.19	28.15
464.316	8.15
464.441	-1.85
464.566	-5.85
464.692	11.15
464.817	12.15
464.942	11.15
465.067	19.15
465.193	-0.85
465.318	15.15
465.443	7.15
465.568	-11.85
465.694	2.15
465.819	25.15
465.944	7.15
466.069	15.15
466.194	18.15
466.32	13.15
466.445	1.15
466.57	1.15
466.695	17.15
466.82	18.15
466.946	21.15
467.071	12.15
467.196	1.15
467.321	-1.85
467.446	5.15
467.572	7.15
467.697	16.15
467.822	16.15
467.947	28.15
468.072	-0.85
468.197	4.15
468.323	-7.85
468.448	3.15
468.573	-3.85
468.698	-0.85
468.823	0.15
468.948	10.15
469.073	22.15
469.198	25.15
469.324	18.15
469.449	6.15
469.574	15.15
469.699	4.15
469.824	18.15
469.949	19.15
470.074	17.15
470.199	57.15
470.324	16.15
470.449	35.15
470.574	11.15
470.7	11.15
470.825	9.15
470.95	44.15
471.075	1.15
471.2	17.15
471.325	16.15
471.45	6.15
471.575	-7.85
471.7	7.15
471.825	-7.85
471.95	-1.85
472.075	-11.85
472.2	14.15
472.325	1.15
472.45	-0.85
472.575	1.15
472.7	10.15
472.825	38.15
472.95	-1.85
473.075	6.15
473.2	-5.85
473.325	0.15
473.45	-0.85
473.575	-1.85
473.7	31.15
473.825	2.15
473.95	26.15
474.075	35.15
474.2	12.15
474.325	9.15
474.45	28.15
474.574	7.15
474.699	22.15
474.824	33.15
474.949	19.15
475.074	6.15
475.199	31.15
475.324	29.15
475.449	11.15
475.574	12.15
475.699	13.15
475.824	4.15
475.949	-0.85
476.073	-7.85
476.198	13.15
476.323	-0.85
476.448	4.15
476.573	2.15
476.698	17.15
476.823	19.15
476.947	35.15
477.072	5.15
477.197	12.15
477.322	-13.85
477.447	-2.85
477.572	14.15
477.697	-4.85
477.821	10.15
477.946	22.15
478.071	31.15
478.196	28.15
478.321	8.15
478.445	9.15
478.57	6.15
478.695	3.15
478.82	23.15
478.945	17.15
479.069	7.15
479.194	12.15
479.319	18.15
479.444	10.15
479.569	-11.85
479.693	2.15
479.818	20.15
479.943	16.15
480.068	6.15
480.192	18.15
480.317	20.15
480.442	3.15
480.567	-0.85
480.691	-4.85
480.816	14.15
480.941	1.15
481.066	20.15
481.19	24.15
481.315	24.15
481.44	21.15
481.564	-2.85
481.689	32.15
481.814	18.15
481.938	22.15
482.063	1.15
482.188	25.15
482.313	17.15
482.437	28.15
482.562	18.15
482.687	27.15
482.811	32.15
482.936	29.15
483.061	31.15
483.185	27.15
483.31	19.15
483.435	7.15
483.559	10.15
483.684	9.15
483.808	42.15
483.933	14.15
484.058	29.15
484.182	11.15
484.307	14.15
484.432	26.15
484.556	20.15
484.681	8.15
484.805	8.15
484.93	34.15
485.055	32.15
485.179	67.15
485.304	104.15
485.428	380.15
485.553	1229.15
485.678	1719.15
485.802	1612.15
485.927	1827.15
486.051	2686.15
486.176	1661.15
486.3	456.15
486.425	129.15
486.549	71.15
486.674	64.15
486.799	42.15
486.923	33.15
487.048	34.15
487.172	21.15
487.297	20.15
487.421	27.15
487.546	13.15
487.67	15.15
487.795	0.15
487.919	19.15
488.044	20.15
488.168	18.15
488.293	6.15
488.417	1.15
488.542	8.15
488.666	35.15
488.791	35.15
488.915	30.15
489.04	16.15
489.164	35.15
489.289	35.15
489.413	10.15
489.538	16.15
489.662	35.15
489.786	9.15
489.911	32.15
490.035	13.15
490.16	6.15
490.284	15.15
490.409	6.15
490.533	10.15
490.658	44.15
490.782	8.15
490.906	11.15
491.031	20.15
491.155	36.15
491.28	38.15
491.404	37.15
491.528	36.15
491.653	7.15
491.777	25.15
491.902	21.15
492.026	21.15
492.15	15.15
492.275	26.15
492.399	4.15
492.524	7.15
492.648	22.15
492.772	12.15
492.897	13.15
493.021	-0.85
493.145	26.15
493.27	12.15
493.394	5.15
493.518	6.15
493.643	2.15
493.767	20.15
493.891	7.15
494.016	18.15
494.14	18.15
494.264	16.15
494.389	24.15
494.513	5.15
494.637	5.15
494.762	30.15
494.886	25.15
495.01	21.15
495.134	3.15
495.259	5.15
495.383	23.15
495.507	15.15
495.632	24.15
495.756	39.15
495.88	21.15
496.004	15.15
496.129	1.15
496.253	19.15
496.377	25.15
496.501	27.15
496.626	8.15
496.75	18.15
496.874	21.15
496.998	-7.85
497.123	21.15
497.247	2.15
497.371	-0.85
497.495	3.15
497.62	15.15
497.744	-7.85
497.868	13.15
497.992	-4.85
498.116	-14.85
498.241	4.15
498.365	5.15
498.489	12.15
498.613	7.15
498.737	25.15
498.862	13.15
498.986	13.15
499.11	7.15
499.234	4.15
499.358	6.15
499.482	9.15
499.607	9.15
499.731	2.15
499.855	27.15
499.979	24.15
500.103	28.15
500.227	26.15
500.351	0.15
500.476	25.15
500.6	18.15
500.724	25.15
500.848	17.15
500.972	24.15
501.096	12.15
501.22	32.15
501.344	16.15
501.469	12.15
501.593	26.15
501.717	20.15
501.841	-0.85
501.965	0.15
502.089	-2.85
502.213	19.15
502.337	21.15
502.461	4.15
502.585	13.15
502.709	12.15
502.834	24.15
502.958	13.15
503.082	19.15
503.206	8.15
503.33	36.15
503.454	23.15
503.578	29.15
503.702	32.15
503.826	14.15
503.95	19.15
504.074	2.15
504.198	17.15
504.322	-6.85
504.446	-6.85
504.57	0.15
504.694	19.15
504.818	12.15
504.942	19.15
505.066	4.15
505.19	15.15
505.314	19.15
505.438	27.15
505.562	26.15
505.686	26.15
505.81	3.15
505.934	23.15
506.058	12.15
506.182	17.15
506.306	24.15
506.43	11.15
506.554	12.15
506.678	5.15
506.802	18.15
506.926	9.15
507.05	12.15
507.174	24.15
507.298	26.15
507.422	8.15
507.546	17.15
507.67	13.15
507.794	-12.85
507.918	7.15
508.042	18.15
508.165	2.15
508.289	14.15
508.413	4.15
508.537	17.15
508.661	16.15
508.785	24.15
508.909	15.15
509.033	0.15
509.157	5.15
509.281	12.15
509.405	10.15
509.528	36.15
509.652	27.15
509.776	11.15
509.9	35.15
510.024	1.15
510.148	20.15
510.272	13.15
510.396	27.15
510.519	0.15
510.643	31.15
510.767	10.15
510.891	17.15
511.015	18.15
511.139	18.15
511.263	24.15
511.386	16.15
511.51	13.15
511.634	9.15
511.758	7.15
511.882	4.15
512.006	13.15
512.129	14.15
512.253	31.15
512.377	31.15
512.501	7.15
512.625	14.15
512.748	16.15
512.872	4.15
512.996	-5.85
513.12	23.15
513.244	7.15
513.367	15.15
513.491	25.15
513.615	35.15
513.739	2.15
513.862	9.15
513.986	10.15
514.11	36.15
514.234	10.15
514.358	21.15
514.481	30.15
514.605	22.15
514.729	24.15
514.853	22.15
514.976	7.15
515.1	17.15
515.224	32.15
515.348	7.15
515.471	4.15
515.595	25.15
515.719	33.15
515.842	35.15
515.966	16.15
516.09	25.15
516.214	0.15
516.337	25.15
516.461	32.15
516.585	7.15
516.708	18.15
516.832	24.15
516.956	0.15
517.08	20.15
517.203	-7.85
517.327	0.15
517.451	45.15
517.574	27.15
517.698	9.15
517.822	28.15
517.945	20.15
518.069	35.15
518.193	49.15
518.316	29.15
518.44	31.15
518.564	20.15
518.687	28.15
518.811	41.15
518.935	62.15
519.058	25.15
519.182	32.15
519.306	32.15
519.429	25.15
519.553	50.15
519.676	31.15
519.8	11.15
519.924	4.15
520.047	16.15
520.171	-1.85
520.294	0.15
520.418	15.15
520.542	6.15
520.665	32.15
520.789	16.15
520.913	6.15
521.036	-19.85
521.16	12.15
521.283	7.15
521.407	8.15
521.53	15.15
521.654	-5.85
521.778	10.15
521.901	11.15
522.025	3.15
522.148	4.15
522.272	7.15
522.395	11.15
522.519	15.15
522.643	9.15
522.766	5.15
522.89	2.15
523.013	27.15
523.137	23.15
523.26	10.15
523.384	6.15
523.507	20.15
523.631	20.15
523.754	-4.85
523.878	13.15
524.002	15.15
524.125	21.15
524.249	-10.85
524.372	32.15
524.496	20.15
524.619	23.15
524.743	31.15
524.866	34.15
524.99	17.15
525.113	1.15
525.237	24.15
525.36	10.15
525.484	7.15
525.607	-6.85
525.731	-2.85
525.854	4.15
525.978	25.15
526.101	4.15
526.224	2.15
526.348	14.15
526.471	12.15
526.595	20.15
526.718	5.15
526.842	7.15
526.965	23.15
527.089	10.15
527.212	-7.85
527.336	2.15
527.459	26.15
527.582	19.15
527.706	19.15
527.829	15.15
527.953	19.15
528.076	5.15
528.2	5.15
528.323	22.15
528.446	20.15
528.57	2.15
528.693	16.15
528.817	8.15
528.94	20.15
529.064	37.15
529.187	15.15
529.31	17.15
529.434	-5.85
529.557	8.15
529.68	7.15
529.804	17.15
529.927	10.15
530.051	-1.85
530.174	7.15
530.297	14.15
530.421	22.15
530.544	18.15
530.668	6.15
530.791	-7.85
530.914	20.15
531.038	3.15
531.161	17.15
531.284	11.15
531.408	13.15
531.531	8.15
531.654	0.15
531.778	12.15
531.901	3.15
532.024	33.15
532.148	2.15
532.271	8.15
532.394	10.15
532.518	22.15
532.641	14.15
532.764	38.15
532.888	24.15
533.011	3.15
533.134	4.15
533.258	16.15
533.381	20.15
533.504	11.15
533.628	2.15
533.751	24.15
533.874	13.15
533.997	-1.85
534.121	-4.85
534.244	6.15
534.367	-12.85
534.491	15.15
534.614	26.15
534.737	8.15
534.86	14.15
534.984	3.15
535.107	4.15
535.23	0.15
535.354	5.15
535.477	-7.85
535.6	15.15
535.723	4.15
535.847	33.15
535.97	-0.85
536.093	19.15
536.216	-8.85
536.34	12.15
536.463	-5.85
536.586	17.15
536.709	11.15
536.833	8.15
536.956	-0.85
537.079	-4.85
537.202	9.15
537.325	-1.85
537.449	-4.85
537.572	13.15
537.695	0.15
537.818	15.15
537.941	15.15
538.065	21.15
538.188	10.15
538.311	15.15
538.434	20.15
538.558	14.15
538.681	21.15
538.804	9.15
538.927	14.15
539.05	1.15
539.173	6.15
539.297	0.15
539.42	19.15
539.543	12.15
539.666	31.15
539.789	18.15
539.913	8.15
540.036	5.15
540.159	31.15
540.282	-7.85
540.405	3.15
540.528	17.15
540.651	27.15
540.775	8.15
540.898	14.15
541.021	10.15
541.144	17.15
541.267	16.15
541.39	8.15
541.513	27.15
541.637	14.15
541.76	-0.85
541.883	-7.85
542.006	6.15
542.129	28.15
542.252	-4.85
542.375	15.15
542.498	-2.85
542.622	20.15
542.745	11.15
542.868	20.15
542.991	23.15
543.114	26.15
543.237	23.15
543.36	25.15
543.483	17.15
543.606	29.15
543.73	38.15
543.853	2.15
543.976	5.15
544.099	22.15
544.222	11.15
544.345	2.15
544.468	0.15
544.591	1.15
544.714	15.15
544.837	18.15
544.96	28.15
545.083	23.15
545.206	30.15
545.329	25.15
545.453	-6.85
545.576	-3.85
545.699	8.15
545.822	21.15
545.945	27.15
546.068	18.15
546.191	24.15
546.314	22.15
546.437	27.15
546.56	16.15
546.683	2.15
546.806	18.15
546.929	4.15
547.052	9.15
547.175	9.15
547.298	20.15
547.421	-4.85
547.544	-9.85
547.667	16.15
547.79	17.15
547.913	-1.85
548.036	18.15
548.159	-0.85
548.282	0.15
548.405	2.15
548.528	7.15
548.651	2.15
548.774	17.15
548.897	11.15
549.02	26.15
549.143	18.15
549.266	6.15
549.389	6.15
549.512	1.15
549.635	30.15
549.758	24.15
549.881	0.15
550.004	16.15
550.127	-4.85
550.25	13.15
550.373	5.15
550.496	19.15
550.619	2.15
550.742	-1.85
550.865	-8.85
550.988	6.15
551.111	20.15
551.234	12.15
551.356	8.15
551.479	3.15
551.602	19.15
551.725	0.15
551.848	17.15
551.971	5.15
552.094	3.15
552.217	-4.85
552.34	10.15
552.463	-9.85
552.586	8.15
552.709	7.15
552.832	-10.85
552.955	0.15
553.077	20.15
553.2	-0.85
553.323	-13.85
553.446	2.15
553.569	12.15
553.692	9.15
553.815	3.15
553.938	24.15
554.061	16.15
554.184	31.15
554.306	15.15
554.429	7.15
554.552	15.15
554.675	6.15
554.798	13.15
554.921	22.15
555.044	-5.85
555.167	13.15
555.29	10.15
555.412	12.15
555.535	13.15
555.658	8.15
555.781	7.15
555.904	16.15
556.027	15.15
556.15	11.15
556.272	-5.85
556.395	18.15
556.518	4.15
556.641	-0.85
556.764	11.15
556.887	9.15
557.01	-4.85
557.132	-8.85
557.255	6.15
557.378	22.15
557.501	7.15
557.624	17.15
557.747	16.15
557.869	13.15
557.992	34.15
558.115	19.15
558.238	1.15
558.361	19.15
558.483	12.15
558.606	12.15
558.729	-10.85
558.852	33.15
558.975	34.15
559.098	17.15
559.22	11.15
559.343	-5.85
559.466	10.15
559.589	8.15
559.712	21.15
559.834	19.15
559.957	3.15
560.08	20.15
560.203	16.15
560.325	9.15
560.448	12.15
560.571	10.15
560.694	6.15
560.817	20.15
560.939	13.15
561.062	3.15
561.185	-2.85
561.308	5.15
561.43	-6.85
561.553	7.15
561.676	4.15
561.799	10.15
561.921	-5.85
562.044	7.15
562.167	-17.85
562.29	23.15
562.413	25.15
562.535	17.15
562.658	-14.85
562.781	-11.85
562.903	7.15
563.026	23.15
563.149	23.15
563.272	18.15
563.394	5.15
563.517	-1.85
563.64	-16.85
563.763	-3.85
563.885	21.15
564.008	35.15
564.131	28.15
564.254	-8.85
564.376	6.15
564.499	-20.85
564.622	0.15
564.744	9.15
564.867	16.15
564.99	10.15
565.113	16.15
565.235	2.15
565.358	-10.85
565.481	-12.85
565.603	4.15
565.726	3.15
565.849	42.15
565.971	24.15
566.094	4.15
566.217	3.15
566.34	3.15
566.462	15.15
566.585	8.15
566.708	19.15
566.83	6.15
566.953	30.15
567.076	5.15
567.198	7.15
567.321	0.15
567.444	2.15
567.566	-16.85
567.689	-0.85
567.812	-0.85
567.934	16.15
568.057	11.15
568.18	12.15
568.302	7.15
568.425	-7.85
568.548	-1.85
568.67	18.15
568.793	8.15
568.916	31.15
569.038	22.15
569.161	-5.85
569.283	10.15
569.406	14.15
569.529	3.15
569.651	1.15
569.774	-6.85
569.897	4.15
570.019	31.15
570.142	-0.85
570.265	-4.85
570.387	8.15
570.51	19.15
570.632	14.15
570.755	-3.85
570.878	4.15
571	12.15
571.123	-4.85
571.246	18.15
571.368	0.15
571.491	10.15
571.613	4.15
571.736	-5.85
571.859	5.15
571.981	-10.85
572.104	20.15
572.226	14.15
572.349	-3.85
572.472	15.15
572.594	13.15
572.717	5.15
572.839	8.15
572.962	-0.85
573.085	6.15
573.207	4.15
573.33	13.15
573.452	21.15
573.575	20.15
573.697	1.15
573.82	13.15
573.943	8.15
574.065	8.15
574.188	11.15
574.31	25.15
574.433	8.15
574.555	35.15
574.678	2.15
574.801	19.15
574.923	-12.85
575.046	6.15
575.168	-5.85
575.291	-0.85
575.413	5.15
575.536	2.15
575.659	23.15
575.781	4.15
575.904	6.15
576.026	8.15
576.149	-4.85
576.271	16.15
576.394	11.15
576.516	7.15
576.639	13.15
576.761	-1.85
576.884	-3.85
577.007	2.15
577.129	19.15
577.252	14.15
577.374	33.15
577.497	1.15
577.619	10.15
577.742	-1.85
577.864	24.15
577.987	8.15
578.109	24.15
578.232	2.15
578.354	27.15
578.477	13.15
578.599	14.15
578.722	11.15
578.844	13.15
578.967	12.15
579.089	0.15
579.212	-4.85
579.334	19.15
579.457	13.15
579.579	7.15
579.702	1.15
579.824	15.15
579.947	2.15
580.069	2.15
580.192	8.15
580.314	24.15
580.437	24.15
580.559	25.15
580.682	9.15
580.804	26.15
580.927	19.15
581.049	18.15
581.172	20.15
581.294	7.15
581.417	50.15
581.539	17.15
581.662	24.15
581.784	20.15
581.907	38.15
582.029	6.15
582.152	-1.85
582.274	22.15
582.396	26.15
582.519	4.15
582.641	6.15
582.764	12.15
582.886	24.15
583.009	-1.85
583.131	0.15
583.254	0.15
583.376	16.15
583.499	19.15
583.621	7.15
583.743	21.15
583.866	16.15
583.988	18.15
584.111	30.15
584.233	8.15
584.356	2.15
584.478	11.15
584.601	-0.85
584.723	20.15
584.845	36.15
584.968	2.15
585.09	-6.85
585.213	26.15
585.335	0.15
585.458	13.15
585.58	0.15
585.702	32.15
585.825	38.15
585.947	10.15
586.07	5.15
586.192	2.15
586.315	21.15
586.437	-5.85
586.559	14.15
586.682	-15.85
586.804	11.15
586.927	-3.85
587.049	10.15
587.171	12.15
587.294	19.15
587.416	23.15
587.539	14.15
587.661	7.15
587.783	6.15
587.906	-4.85
588.028	8.15
588.151	12.15
588.273	27.15
588.395	-6.85
588.518	-2.85
588.64	22.15
588.763	33.15
588.885	3.15
589.007	23.15
589.13	-3.85
589.252	-3.85
589.375	5.15
589.497	17.15
589.619	5.15
589.742	-3.85
589.864	19.15
589.986	36.15
590.109	4.15
590.231	-0.85
590.354	2.15
590.476	-1.85
590.598	-7.85
590.721	-5.85
590.843	20.15
590.965	8.15
591.088	14.15
591.21	10.15
591.332	8.15
591.455	-20.85
591.577	4.15
591.7	21.15
591.822	15.15
591.944	20.15
592.067	12.15
592.189	11.15
592.311	23.15
592.434	4.15
592.556	36.15
592.678	9.15
592.801	5.15
592.923	7.15
593.045	-0.85
593.168	8.15
593.29	6.15
593.412	19.15
593.535	3.15
593.657	1.15
593.779	19.15
593.902	10.15
594.024	1.15
594.146	24.15
594.269	13.15
594.391	0.15
594.513	14.15
594.636	8.15
594.758	4.15
594.88	1.15
595.003	21.15
595.125	12.15
595.247	26.15
595.37	19.15
595.492	9.15
595.614	21.15
595.737	14.15
595.859	0.15
595.981	22.15
596.104	8.15
596.226	11.15
596.348	9.15
596.471	-3.85
596.593	29.15
596.715	10.15
596.838	10.15
596.96	-10.85
597.082	20.15
597.204	11.15
597.327	14.15
597.449	-4.85
597.571	15.15
597.694	27.15
597.816	-7.85
597.938	1.15
598.061	-1.85
598.183	8.15
598.305	29.15
598.427	15.15
598.55	11.15
598.672	13.15
598.794	13.15
598.917	-0.85
599.039	17.15
599.161	11.15
599.283	8.15
599.406	20.15
599.528	9.15
599.65	35.15
599.773	6.15
599.895	18.15
600.017	24.15
600.139	15.15
600.262	-6.85
600.384	13.15
600.506	4.15
600.628	10.15
600.751	15.15
600.873	20.15
600.995	4.15
601.118	18.15
601.24	9.15
601.362	21.15
601.484	4.15
601.607	-7.85
601.729	0.15
601.851	7.15
601.973	5.15
602.096	18.15
602.218	33.15
602.34	13.15
602.462	19.15
602.585	23.15
602.707	2.15
602.829	37.15
602.951	9.15
603.074	4.15
603.196	13.15
603.318	-5.85
603.44	22.15
603.563	11.15
603.685	-3.85
603.807	11.15
603.929	6.15
604.052	13.15
604.174	32.15
604.296	23.15
604.418	8.15
604.541	32.15
604.663	6.15
604.785	13.15
604.907	9.15
605.03	-3.85
605.152	24.15
605.274	8.15
605.396	-0.85
605.519	12.15
605.641	18.15
605.763	-4.85
605.885	19.15
606.008	9.15
606.13	19.15
606.252	10.15
606.374	-17.85
606.496	-8.85
606.619	15.15
606.741	3.15
606.863	31.15
606.985	38.15
607.108	18.15
607.23	8.15
607.352	6.15
607.474	18.15
607.596	17.15
607.719	17.15
607.841	10.15
607.963	-1.85
608.085	1.15
608.207	30.15
608.33	12.15
608.452	14.15
608.574	8.15
608.696	18.15
608.819	6.15
608.941	16.15
609.063	18.15
609.185	2.15
609.307	12.15
609.43	22.15
609.552	12.15
609.674	-4.85
609.796	12.15
609.918	14.15
610.041	4.15
610.163	16.15
610.285	-0.85
610.407	24.15
610.529	22.15
610.652	15.15
610.774	3.15
610.896	13.15
611.018	14.15
611.14	7.15
611.263	12.15
611.385	4.15
611.507	12.15
611.629	12.15
611.751	22.15
611.873	30.15
611.996	6.15
612.118	6.15
612.24	5.15
612.362	19.15
612.484	6.15
612.607	17.15
612.729	20.15
612.851	3.15
612.973	10.15
613.095	7.15
613.218	10.15
613.34	14.15
613.462	1.15
613.584	7.15
613.706	-11.85
613.828	44.15
613.951	-3.85
614.073	10.15
614.195	0.15
614.317	19.15
614.439	26.15
614.561	34.15
614.684	22.15
614.806	3.15
614.928	34.15
615.05	0.15
615.172	20.15
615.294	19.15
615.417	15.15
615.539	-3.85
615.661	-3.85
615.783	28.15
615.905	35.15
616.027	81.15
616.15	112.15
616.272	82.15
616.394	47.15
616.516	42.15
616.638	24.15
616.76	19.15
616.883	37.15
617.005	9.15
617.127	6.15
617.249	8.15
617.371	8.15
617.493	19.15
617.615	12.15
617.738	19.15
617.86	11.15
617.982	10.15
618.104	2.15
618.226	-14.85
618.348	-13.85
618.471	18.15
618.593	11.15
618.715	1.15
618.837	30.15
618.959	9.15
619.081	30.15
619.203	-1.85
619.326	1.15
619.448	19.15
619.57	29.15
619.692	14.15
619.814	14.15
619.936	16.15
620.058	8.15
620.181	-3.85
620.303	15.15
620.425	13.15
620.547	1.15
620.669	12.15
620.791	2.15
620.913	1.15
621.036	3.15
621.158	19.15
621.28	24.15
621.402	9.15
621.524	11.15
621.646	20.15
621.768	-16.85
621.891	-18.85
622.013	40.15
622.135	5.15
622.257	-3.85
622.379	4.15
622.501	12.15
622.623	13.15
622.745	4.15
622.868	14.15
622.99	5.15
623.112	11.15
623.234	-0.85
623.356	15.15
623.478	-0.85
623.6	22.15
623.722	10.15
623.845	2.15
623.967	-3.85
624.089	11.15
624.211	-16.85
624.333	6.15
624.455	15.15
624.577	9.15
624.699	11.15
624.822	16.15
624.944	7.15
625.066	6.15
625.188	-9.85
625.31	20.15
625.432	32.15
625.554	9.15
625.676	37.15
625.799	-0.85
625.921	2.15
626.043	16.15
626.165	2.15
626.287	-16.85
626.409	20.15
626.531	0.15
626.653	-0.85
626.775	-5.85
626.898	4.15
627.02	4.15
627.142	3.15
627.264	11.15
627.386	-1.85
627.508	-1.85
627.63	-7.85
627.752	6.15
627.874	11.15
627.997	16.15
628.119	24.15
628.241	23.15
628.363	22.15
628.485	24.15
628.607	26.15
628.729	10.15
628.851	1.15
628.973	16.15
629.096	16.15
629.218	15.15
629.34	18.15
629.462	-1.85
629.584	-14.85
629.706	1.15
629.828	33.15
629.95	6.15
630.072	10.15
630.195	-1.85
630.317	1.15
630.439	3.15
630.561	26.15
630.683	3.15
630.805	5.15
630.927	12.15
631.049	9.15
631.171	8.15
631.293	18.15
631.416	20.15
631.538	-8.85
631.66	23.15
631.782	35.15
631.904	26.15
632.026	9.15
632.148	13.15
632.27	7.15
632.392	18.15
632.514	16.15
632.637	9.15
632.759	0.15
632.881	-5.85
633.003	4.15
633.125	4.15
633.247	1.15
633.369	7.15
633.491	7.15
633.613	5.15
633.735	19.15
633.858	26.15
633.98	10.15
634.102	3.15
634.224	7.15
634.346	8.15
634.468	-0.85
634.59	10.15
634.712	7.15
634.834	4.15
634.956	6.15
635.078	-11.85
635.201	-12.85
635.323	17.15
635.445	-9.85
635.567	-13.85
635.689	24.15
635.811	16.15
635.933	9.15
636.055	2.15
636.177	3.15
636.299	1.15
636.421	9.15
636.544	-10.85
636.666	21.15
636.788	16.15
636.91	1.15
637.032	4.15
637.154	10.15
637.276	36.15
637.398	28.15
637.52	26.15
637.642	5.15
637.764	14.15
637.887	-5.85
638.009	-2.85
638.131	-10.85
638.253	-5.85
638.375	9.15
638.497	3.15
638.619	-12.85
638.741	8.15
638.863	1.15
638.985	-6.85
639.107	7.15
639.23	-3.85
639.352	17.15
639.474	12.15
639.596	8.15
639.718	-13.85
639.84	-1.85
639.962	22.15
640.084	10.15
640.206	19.15
640.328	3.15
640.45	8.15
640.573	11.15
640.695	3.15
640.817	10.15
640.939	20.15
641.061	-0.85
641.183	-17.85
641.305	8.15
641.427	6.15
641.549	10.15
641.671	8.15
641.793	15.15
641.915	32.15
642.038	6.15
642.16	10.15
642.282	-7.85
642.404	7.15
642.526	3.15
642.648	7.15
642.77	8.15
642.892	0.15
643.014	16.15
643.136	7.15
643.258	8.15
643.381	29.15
643.503	27.15
643.625	14.15
643.747	8.15
643.869	13.15
643.991	6.15
644.113	0.15
644.235	10.15
644.357	18.15
644.479	22.15
644.601	-6.85
644.723	4.15
644.846	25.15
644.968	4.15
645.09	3.15
645.212	-1.85
645.334	7.15
645.456	19.15
645.578	12.15
645.7	12.15
645.822	31.15
645.944	2.15
646.066	-8.85
646.188	10.15
646.311	14.15
646.433	4.15
646.555	50.15
646.677	55.15
646.799	37.15
646.921	35.15
647.043	14.15
647.165	11.15
647.287	-1.85
647.409	-0.85
647.531	18.15
647.654	10.15
647.776	20.15
647.898	23.15
648.02	12.15
648.142	-3.85
648.264	-1.85
648.386	-0.85
648.508	2.15
648.63	-8.85
648.752	4.15
648.874	0.15
648.997	-9.85
649.119	15.15
649.241	2.15
649.363	2.15
649.485	30.15
649.607	-8.85
649.729	-7.85
649.851	2.15
649.973	8.15
650.095	15.15
650.217	2.15
650.34	-1.85
650.462	1.15
650.584	8.15
650.706	12.15
650.828	16.15
650.95	-7.85
651.072	18.15
651.194	-5.85
651.316	-0.85
651.438	14.15
651.56	-30.85
651.683	-9.85
651.805	11.15
651.927	1.15
652.049	18.15
652.171	20.15
652.293	15.15
652.415	-14.85
652.537	-10.85
652.659	-10.85
652.781	10.15
652.903	25.15
653.026	29.15
653.148	2.15
653.27	11.15
653.392	3.15
653.514	1.15
653.636	0.15
653.758	13.15
653.88	10.15
654.002	-3.85
654.124	0.15
654.247	13.15
654.369	14.15
654.491	8.15
654.613	18.15
654.735	8.15
654.857	17.15
654.979	34.15
655.101	28.15
655.223	54.15
655.345	34.15
655.468	23.15
655.59	11.15
655.712	21.15
655.834	15.15
655.956	33.15
656.078	33.15
656.2	47.15
656.322	28.15
656.444	15.15
656.566	35.15
656.689	41.15
656.811	55.15
656.933	81.15
657.055	82.15
657.177	155.15
657.299	249.15
657.421	517.15
657.543	1892.15
657.665	12547.15
657.787	15175.15
657.91	15275.15
658.032	15661.15
658.154	4657.15
658.276	3616.15
658.398	1173.15
658.52	1006.15
658.642	459.15
658.764	608.15
658.886	283.15
659.009	405.15
659.131	201.15
659.253	320.15
659.375	165.15
659.497	220.15
659.619	137.15
659.741	216.15
659.863	95.15
659.985	143.15
660.108	82.15
660.23	162.15
660.352	66.15
660.474	147.15
660.596	86.15
660.718	136.15
660.84	62.15
660.962	116.15
661.084	45.15
661.207	85.15
661.329	71.15
661.451	79.15
661.573	53.15
661.695	98.15
661.817	46.15
661.939	97.15
662.061	72.15
662.184	70.15
662.306	43.15
662.428	71.15
662.55	42.15
662.672	72.15
662.794	38.15
662.916	66.15
663.038	31.15
663.161	82.15
663.283	52.15
663.405	60.15
663.527	41.15
663.649	66.15
663.771	36.15
663.893	55.15
664.015	27.15
664.138	42.15
664.26	22.15
664.382	50.15
664.504	28.15
664.626	48.15
664.748	19.15
664.87	42.15
664.992	24.15
665.115	53.15
665.237	29.15
665.359	38.15
665.481	24.15
665.603	58.15
665.725	32.15
665.847	22.15
665.97	7.15
666.092	42.15
666.214	36.15
666.336	32.15
666.458	39.15
666.58	49.15
666.702	6.15
666.825	37.15
666.947	19.15
667.069	49.15
667.191	25.15
667.313	46.15
667.435	10.15
667.557	20.15
667.68	11.15
667.802	21.15
667.924	28.15
668.046	54.15
668.168	12.15
668.29	43.15
668.412	30.15
668.535	41.15
668.657	30.15
668.779	36.15
668.901	8.15
669.023	31.15
669.145	17.15
669.267	28.15
669.39	-1.85
669.512	15.15
669.634	17.15
669.756	28.15
669.878	26.15
670	27.15
670.123	3.15
670.245	27.15
670.367	35.15
670.489	49.15
670.611	16.15
670.733	12.15
670.856	1.15
670.978	31.15
671.1	14.15
671.222	35.15
671.344	5.15
671.466	12.15
671.589	7.15
671.711	-3.85
671.833	5.15
671.955	30.15
672.077	6.15
672.199	37.15
672.322	15.15
672.444	24.15
672.566	22.15
672.688	26.15
672.81	27.15
672.932	34.15
673.055	9.15
673.177	12.15
673.299	28.15
673.421	14.15
673.543	15.15
673.665	39.15
673.788	19.15
673.91	9.15
674.032	-27.85
674.154	10.15
674.276	6.15
674.399	23.15
674.521	14.15
674.643	27.15
674.765	9.15
674.887	21.15
675.009	3.15
675.132	6.15
675.254	3.15
675.376	15.15
675.498	18.15
675.62	22.15
675.743	0.15
675.865	28.15
675.987	1.15
676.109	11.15
676.231	17.15
676.354	43.15
676.476	2.15
676.598	20.15
676.72	17.15
676.842	24.15
676.965	6.15
677.087	15.15
677.209	21.15
677.331	18.15
677.453	23.15
677.576	18.15
677.698	20.15
677.82	32.15
677.942	2.15
678.064	24.15
678.187	1.15
678.309	18.15
678.431	3.15
678.553	4.15
678.675	19.15
678.798	18.15
678.92	7.15
679.042	8.15
679.164	6.15
679.286	42.15
679.409	8.15
679.531	-11.85
679.653	3.15
679.775	18.15
679.898	8.15
680.02	5.15
680.142	-1.85
680.264	19.15
680.386	-10.85
680.509	9.15
680.631	16.15
680.753	18.15
680.875	-0.85
680.998	12.15
681.12	0.15
681.242	7.15
681.364	-4.85
681.486	8.15
681.609	10.15
681.731	-1.85
681.853	14.15
681.975	-9.85
682.098	8.15
682.22	43.15
682.342	17.15
682.464	10.15
682.587	3.15
682.709	17.15
682.831	-10.85
682.953	11.15
683.076	13.15
683.198	14.15
683.32	1.15
683.442	21.15
683.565	12.15
683.687	0.15
683.809	12.15
683.931	10.15
684.054	19.15
684.176	7.15
684.298	11.15
684.42	-1.85
684.543	-5.85
684.665	14.15
684.787	2.15
684.909	8.15
685.032	20.15
685.154	0.15
685.276	9.15
685.398	1.15
685.521	0.15
685.643	12.15
685.765	10.15
685.887	17.15
686.01	14.15
686.132	4.15
686.254	7.15
686.377	28.15
686.499	15.15
686.621	35.15
686.743	16.15
686.866	6.15
686.988	12.15
687.11	5.15
687.232	-8.85
687.355	-13.85
687.477	-7.85
687.599	4.15
687.722	6.15
687.844	10.15
687.966	8.15
688.088	21.15
688.211	47.15
688.333	32.15
688.455	-4.85
688.578	17.15
688.7	2.15
688.822	27.15
688.944	-22.85
689.067	46.15
689.189	6.15
689.311	-0.85
689.434	3.15
689.556	24.15
689.678	16.15
689.801	-0.85
689.923	6.15
690.045	30.15
690.167	17.15
690.29	16.15
690.412	-0.85
690.534	11.15
690.657	4.15
690.779	14.15
690.901	24.15
691.024	2.15
691.146	-3.85
691.268	-3.85
691.391	7.15
691.513	13.15
691.635	11.15
691.758	28.15
691.88	32.15
692.002	2.15
692.125	8.15
692.247	9.15
692.369	-4.85
692.492	-4.85
692.614	-2.85
692.736	6.15
692.859	1.15
692.981	10.15
693.103	0.15
693.226	11.15
693.348	15.15
693.47	18.15
693.593	3.15
693.715	1.15
693.837	-6.85
693.96	-6.85
694.082	-8.85
694.204	20.15
694.327	9.15
694.449	-10.85
694.571	11.15
694.694	26.15
694.816	20.15
694.938	10.15
695.061	19.15
695.183	14.15
695.305	11.15
695.428	15.15
695.55	-1.85
695.672	8.15
695.795	29.15
695.917	32.15
696.04	7.15
696.162	1.15
696.284	24.15
696.407	1.15
696.529	4.15
696.651	24.15
696.774	4.15
696.896	24.15
697.019	16.15
697.141	10.15
697.263	5.15
697.386	-6.85
697.508	-15.85
697.63	17.15
697.753	-1.85
697.875	13.15
697.998	6.15
698.12	31.15
698.242	11.15
698.365	-11.85
698.487	3.15
698.61	28.15
698.732	10.15
698.854	15.15
698.977	7.15
699.099	8.15
699.221	-5.85
699.344	0.15
699.466	-7.85
699.589	16.15
699.711	-6.85
699.834	14.15
699.956	23.15
700.078	10.15
700.201	19.15
700.323	6.15
700.446	-5.85
700.568	-6.85
700.69	7.15
700.813	6.15
700.935	2.15
701.058	16.15
701.18	14.15
701.302	14.15
701.425	-7.85
701.547	2.15
701.67	-7.85
701.792	11.15
701.915	-1.85
702.037	-1.85
702.159	8.15
702.282	9.15
702.404	8.15
702.527	10.15
702.649	28.15
702.772	22.15
702.894	10.15
703.017	6.15
703.139	0.15
703.261	7.15
703.384	18.15
703.506	-7.85
703.629	7.15
703.751	17.15
703.874	-1.85
703.996	-4.85
704.119	-4.85
704.241	16.15
704.364	-12.85
704.486	1.15
704.608	2.15
704.731	13.15
704.853	16.15
704.976	0.15
705.098	21.15
705.221	-3.85
705.343	-3.85
705.466	-5.85
705.588	5.15
705.711	-5.85
705.833	7.15
705.956	18.15
706.078	21.15
706.201	4.15
706.323	-0.85
706.446	-0.85
