Data from LowRes_H2_15_26_11_07_2024_HR4C61881__9__15-28-14-537.txt Node

Date: Thu Nov 07 15:28:14 EST 2024
User: crc00042
Spectrometer: HR4C6188
Trigger mode: 4
Integration Time (sec): 1.000000E-1
Scans to average: 1
Electric dark correction enabled: true
Nonlinearity correction enabled: false
Boxcar width: 0
XAxis mode: Wavelengths
Number of Pixels in Spectrum: 3648
>>>>>Begin Spectral Data<<<<<
245.66	-99.54
245.797	-99.54
245.934	-99.54
246.071	-99.54
246.208	15.46
246.344	-3.54
246.481	-10.54
246.618	3.46
246.755	6.46
246.892	-3.54
247.029	-11.54
247.165	-22.54
247.302	-3.54
247.439	5.46
247.576	36.46
247.713	-11.54
247.849	17.46
247.986	-2.54
248.123	2.46
248.26	11.46
248.396	13.46
248.533	4.46
248.67	-23.54
248.806	22.46
248.943	-4.54
249.08	-7.54
249.216	-4.54
249.353	-15.54
249.49	-11.54
249.626	3.46
249.763	-18.54
249.9	-14.54
250.036	8.46
250.173	8.46
250.309	-12.54
250.446	-0.54
250.582	1.46
250.719	-9.54
250.856	-25.54
250.992	-19.54
251.129	4.46
251.265	-12.54
251.402	-21.54
251.538	-5.54
251.675	-5.54
251.811	13.46
251.948	10.46
252.084	4.46
252.221	-3.54
252.357	-4.54
252.493	15.46
252.63	5.46
252.766	8.46
252.903	8.46
253.039	-9.54
253.175	-5.54
253.312	-0.54
253.448	-6.54
253.585	-23.54
253.721	-4.54
253.857	-8.54
253.994	-1.54
254.13	2.46
254.266	12.46
254.403	7.46
254.539	7.46
254.675	6.46
254.811	1.46
254.948	3.46
255.084	-3.54
255.22	-12.54
255.356	-13.54
255.493	-7.54
255.629	-1.54
255.765	-7.54
255.901	1.46
256.037	-5.54
256.174	5.46
256.31	16.46
256.446	-10.54
256.582	-6.54
256.718	4.46
256.854	16.46
256.991	3.46
257.127	12.46
257.263	-13.54
257.399	-11.54
257.535	-23.54
257.671	2.46
257.807	-6.54
257.943	-13.54
258.079	-22.54
258.215	-15.54
258.351	11.46
258.487	-5.54
258.623	18.46
258.759	-23.54
258.895	-13.54
259.031	-18.54
259.167	-27.54
259.303	0.46
259.439	-2.54
259.575	0.46
259.711	-8.54
259.847	-0.54
259.983	12.46
260.119	-4.54
260.255	-6.54
260.391	-9.54
260.527	-0.54
260.663	2.46
260.799	-2.54
260.934	-6.54
261.07	-1.54
261.206	-2.54
261.342	-38.54
261.478	7.46
261.614	8.46
261.749	-15.54
261.885	5.46
262.021	3.46
262.157	6.46
262.293	-12.54
262.428	-6.54
262.564	-4.54
262.7	18.46
262.836	-3.54
262.971	12.46
263.107	-5.54
263.243	13.46
263.378	8.46
263.514	-24.54
263.65	-8.54
263.785	-20.54
263.921	10.46
264.057	-0.54
264.192	15.46
264.328	15.46
264.464	5.46
264.599	-3.54
264.735	4.46
264.871	-12.54
265.006	4.46
265.142	4.46
265.277	-4.54
265.413	0.46
265.548	19.46
265.684	11.46
265.819	12.46
265.955	1.46
266.091	-17.54
266.226	-4.54
266.362	-3.54
266.497	5.46
266.633	-6.54
266.768	4.46
266.903	-4.54
267.039	1.46
267.174	17.46
267.31	3.46
267.445	-22.54
267.581	-17.54
267.716	3.46
267.851	8.46
267.987	3.46
268.122	3.46
268.258	-17.54
268.393	-14.54
268.528	-3.54
268.664	-9.54
268.799	-31.54
268.934	10.46
269.07	0.46
269.205	-19.54
269.34	19.46
269.476	5.46
269.611	-23.54
269.746	17.46
269.881	-0.54
270.017	0.46
270.152	6.46
270.287	5.46
270.422	6.46
270.558	-5.54
270.693	-3.54
270.828	1.46
270.963	-1.54
271.098	-24.54
271.234	-14.54
271.369	14.46
271.504	-10.54
271.639	-22.54
271.774	-5.54
271.909	-3.54
272.045	-15.54
272.18	-16.54
272.315	-7.54
272.45	7.46
272.585	-22.54
272.72	-15.54
272.855	4.46
272.99	4.46
273.125	-3.54
273.26	-19.54
273.395	-1.54
273.53	-16.54
273.665	2.46
273.8	4.46
273.935	17.46
274.07	-3.54
274.205	7.46
274.34	4.46
274.475	-7.54
274.61	1.46
274.745	0.46
274.88	2.46
275.015	-16.54
275.15	-20.54
275.285	-5.54
275.42	-13.54
275.555	1.46
275.69	0.46
275.825	-16.54
275.959	5.46
276.094	-7.54
276.229	4.46
276.364	-2.54
276.499	-8.54
276.634	2.46
276.768	10.46
276.903	4.46
277.038	3.46
277.173	12.46
277.308	-6.54
277.442	-9.54
277.577	-7.54
277.712	-19.54
277.847	-11.54
277.981	2.46
278.116	-18.54
278.251	-9.54
278.386	-3.54
278.52	2.46
278.655	-11.54
278.79	6.46
278.924	-9.54
279.059	-5.54
279.194	-12.54
279.328	34.46
279.463	5.46
279.598	18.46
279.732	19.46
279.867	3.46
280.001	10.46
280.136	1.46
280.271	9.46
280.405	4.46
280.54	-4.54
280.674	-10.54
280.809	5.46
280.943	-7.54
281.078	2.46
281.213	4.46
281.347	-2.54
281.482	1.46
281.616	-3.54
281.751	-8.54
281.885	-15.54
282.02	2.46
282.154	-4.54
282.288	-16.54
282.423	-25.54
282.557	-15.54
282.692	4.46
282.826	0.46
282.961	12.46
283.095	-12.54
283.229	-6.54
283.364	-36.54
283.498	-15.54
283.633	-3.54
283.767	-3.54
283.901	10.46
284.036	-1.54
284.17	-22.54
284.304	-20.54
284.439	-1.54
284.573	-19.54
284.707	10.46
284.842	-0.54
284.976	-2.54
285.11	-11.54
285.244	15.46
285.379	52.46
285.513	5.46
285.647	9.46
285.781	0.46
285.916	24.46
286.05	-5.54
286.184	29.46
286.318	-6.54
286.453	-6.54
286.587	-20.54
286.721	-16.54
286.855	3.46
286.989	23.46
287.123	1.46
287.258	-14.54
287.392	-2.54
287.526	-4.54
287.66	-15.54
287.794	-3.54
287.928	-17.54
288.062	3.46
288.196	-20.54
288.33	5.46
288.464	16.46
288.598	3.46
288.733	7.46
288.867	24.46
289.001	3.46
289.135	-2.54
289.269	-11.54
289.403	3.46
289.537	-7.54
289.671	8.46
289.805	-3.54
289.939	14.46
290.073	-1.54
290.207	3.46
290.34	-8.54
290.474	13.46
290.608	17.46
290.742	-5.54
290.876	-0.54
291.01	14.46
291.144	15.46
291.278	10.46
291.412	10.46
291.546	2.46
291.679	6.46
291.813	-1.54
291.947	7.46
292.081	-11.54
292.215	2.46
292.349	5.46
292.482	5.46
292.616	-13.54
292.75	-8.54
292.884	6.46
293.018	-8.54
293.151	-30.54
293.285	7.46
293.419	-14.54
293.553	-5.54
293.686	-16.54
293.82	-15.54
293.954	32.46
294.088	19.46
294.221	-17.54
294.355	-19.54
294.489	19.46
294.622	-6.54
294.756	-5.54
294.89	4.46
295.023	-16.54
295.157	-17.54
295.291	4.46
295.424	5.46
295.558	-7.54
295.691	-4.54
295.825	-5.54
295.959	-4.54
296.092	-1.54
296.226	-4.54
296.359	5.46
296.493	-12.54
296.627	-10.54
296.76	-7.54
296.894	-9.54
297.027	-5.54
297.161	1.46
297.294	-38.54
297.428	-16.54
297.561	11.46
297.695	-1.54
297.828	-13.54
297.962	0.46
298.095	-13.54
298.229	6.46
298.362	-6.54
298.495	-19.54
298.629	-23.54
298.762	4.46
298.896	-6.54
299.029	-22.54
299.162	-2.54
299.296	8.46
299.429	-1.54
299.563	7.46
299.696	-11.54
299.829	13.46
299.963	14.46
300.096	20.46
300.229	16.46
300.363	11.46
300.496	3.46
300.629	-14.54
300.763	-5.54
300.896	-11.54
301.029	3.46
301.162	1.46
301.296	-4.54
301.429	4.46
301.562	-22.54
301.695	7.46
301.829	-13.54
301.962	0.46
302.095	12.46
302.228	-15.54
302.362	1.46
302.495	-7.54
302.628	7.46
302.761	8.46
302.894	17.46
303.027	9.46
303.161	-11.54
303.294	-18.54
303.427	2.46
303.56	4.46
303.693	-12.54
303.826	3.46
303.959	-3.54
304.092	-9.54
304.225	-3.54
304.359	-1.54
304.492	10.46
304.625	-4.54
304.758	1.46
304.891	-11.54
305.024	-0.54
305.157	-5.54
305.29	-30.54
305.423	-27.54
305.556	2.46
305.689	27.46
305.822	-13.54
305.955	1.46
306.088	-6.54
306.221	-14.54
306.354	-13.54
306.487	-29.54
306.62	-36.54
306.752	-13.54
306.885	9.46
307.018	-3.54
307.151	1.46
307.284	7.46
307.417	-7.54
307.55	8.46
307.683	1.46
307.816	3.46
307.948	-8.54
308.081	-3.54
308.214	-7.54
308.347	12.46
308.48	-1.54
308.613	-36.54
308.745	7.46
308.878	-11.54
309.011	-3.54
309.144	8.46
309.277	3.46
309.409	2.46
309.542	0.46
309.675	12.46
309.808	13.46
309.94	24.46
310.073	-25.54
310.206	-12.54
310.339	-3.54
310.471	-11.54
310.604	11.46
310.737	-5.54
310.869	16.46
311.002	-14.54
311.135	-0.54
311.267	-13.54
311.4	-2.54
311.533	11.46
311.665	-8.54
311.798	-21.54
311.93	6.46
312.063	20.46
312.196	6.46
312.328	1.46
312.461	-17.54
312.593	0.46
312.726	-0.54
312.859	5.46
312.991	0.46
313.124	-24.54
313.256	8.46
313.389	5.46
313.521	-12.54
313.654	-1.54
313.786	-16.54
313.919	-19.54
314.051	-8.54
314.184	9.46
314.316	6.46
314.449	-11.54
314.581	-0.54
314.714	-13.54
314.846	-15.54
314.978	-18.54
315.111	-2.54
315.243	6.46
315.376	-3.54
315.508	-0.54
315.641	23.46
315.773	13.46
315.905	3.46
316.038	-5.54
316.17	17.46
316.302	16.46
316.435	1.46
316.567	3.46
316.699	11.46
316.832	-11.54
316.964	3.46
317.096	5.46
317.229	-6.54
317.361	-31.54
317.493	-10.54
317.625	-12.54
317.758	17.46
317.89	22.46
318.022	27.46
318.155	-1.54
318.287	7.46
318.419	20.46
318.551	9.46
318.683	-1.54
318.816	-6.54
318.948	-5.54
319.08	-21.54
319.212	-6.54
319.344	-4.54
319.477	-16.54
319.609	9.46
319.741	-4.54
319.873	-15.54
320.005	-10.54
320.137	-8.54
320.269	15.46
320.401	-8.54
320.534	-15.54
320.666	-25.54
320.798	-10.54
320.93	3.46
321.062	-12.54
321.194	0.46
321.326	13.46
321.458	13.46
321.59	-4.54
321.722	-9.54
321.854	4.46
321.986	-4.54
322.118	12.46
322.25	-19.54
322.382	12.46
322.514	6.46
322.646	-20.54
322.778	2.46
322.91	-2.54
323.042	-4.54
323.174	1.46
323.306	-17.54
323.438	-18.54
323.57	-16.54
323.702	-0.54
323.834	-0.54
323.966	-19.54
324.097	10.46
324.229	8.46
324.361	-9.54
324.493	5.46
324.625	-6.54
324.757	16.46
324.889	-8.54
325.021	12.46
325.152	14.46
325.284	7.46
325.416	-6.54
325.548	25.46
325.68	6.46
325.811	16.46
325.943	9.46
326.075	-4.54
326.207	3.46
326.339	3.46
326.47	4.46
326.602	16.46
326.734	7.46
326.866	5.46
326.997	-17.54
327.129	-16.54
327.261	-22.54
327.392	4.46
327.524	3.46
327.656	1.46
327.787	9.46
327.919	-14.54
328.051	-0.54
328.182	11.46
328.314	14.46
328.446	7.46
328.577	15.46
328.709	-0.54
328.841	-30.54
328.972	-8.54
329.104	-0.54
329.235	7.46
329.367	-18.54
329.499	-16.54
329.63	-8.54
329.762	-7.54
329.893	-0.54
330.025	-18.54
330.156	-14.54
330.288	2.46
330.419	-7.54
330.551	2.46
330.683	21.46
330.814	-5.54
330.946	21.46
331.077	-1.54
331.208	-14.54
331.34	-5.54
331.471	-13.54
331.603	0.46
331.734	-6.54
331.866	-7.54
331.997	10.46
332.129	-4.54
332.26	2.46
332.392	5.46
332.523	10.46
332.654	-16.54
332.786	9.46
332.917	3.46
333.048	21.46
333.18	23.46
333.311	-11.54
333.443	-2.54
333.574	14.46
333.705	14.46
333.837	-17.54
333.968	-8.54
334.099	4.46
334.231	4.46
334.362	-7.54
334.493	5.46
334.624	-9.54
334.756	4.46
334.887	1.46
335.018	6.46
335.15	0.46
335.281	-2.54
335.412	17.46
335.543	6.46
335.675	-0.54
335.806	15.46
335.937	7.46
336.068	17.46
336.199	36.46
336.331	13.46
336.462	2.46
336.593	6.46
336.724	-5.54
336.855	-3.54
336.986	0.46
337.118	-9.54
337.249	-7.54
337.38	17.46
337.511	-0.54
337.642	0.46
337.773	-0.54
337.904	14.46
338.035	4.46
338.166	-0.54
338.298	3.46
338.429	-0.54
338.56	2.46
338.691	5.46
338.822	8.46
338.953	10.46
339.084	13.46
339.215	-4.54
339.346	3.46
339.477	-8.54
339.608	-6.54
339.739	1.46
339.87	14.46
340.001	-11.54
340.132	-3.54
340.263	-0.54
340.394	-9.54
340.525	7.46
340.656	-28.54
340.787	2.46
340.918	17.46
341.049	0.46
341.179	-0.54
341.31	-8.54
341.441	0.46
341.572	1.46
341.703	22.46
341.834	-17.54
341.965	0.46
342.096	-3.54
342.227	1.46
342.357	7.46
342.488	-1.54
342.619	20.46
342.75	-1.54
342.881	-12.54
343.012	1.46
343.142	7.46
343.273	-15.54
343.404	-0.54
343.535	7.46
343.666	10.46
343.796	9.46
343.927	1.46
344.058	15.46
344.189	0.46
344.319	-13.54
344.45	8.46
344.581	12.46
344.712	-13.54
344.842	13.46
344.973	0.46
345.104	18.46
345.234	14.46
345.365	-27.54
345.496	4.46
345.626	-18.54
345.757	11.46
345.888	-0.54
346.018	6.46
346.149	-10.54
346.28	13.46
346.41	-2.54
346.541	1.46
346.672	-14.54
346.802	10.46
346.933	16.46
347.063	6.46
347.194	-4.54
347.325	-16.54
347.455	9.46
347.586	-2.54
347.716	-9.54
347.847	-9.54
347.977	-5.54
348.108	4.46
348.238	-2.54
348.369	-3.54
348.499	9.46
348.63	2.46
348.76	7.46
348.891	-7.54
349.021	-10.54
349.152	0.46
349.282	-3.54
349.413	14.46
349.543	10.46
349.674	-11.54
349.804	-0.54
349.935	-14.54
350.065	-9.54
350.196	-18.54
350.326	4.46
350.456	-5.54
350.587	14.46
350.717	1.46
350.848	7.46
350.978	6.46
351.108	-12.54
351.239	22.46
351.369	17.46
351.499	9.46
351.63	4.46
351.76	15.46
351.89	6.46
352.021	-19.54
352.151	-11.54
352.281	1.46
352.412	4.46
352.542	-8.54
352.672	-15.54
352.803	-11.54
352.933	-1.54
353.063	5.46
353.193	2.46
353.324	6.46
353.454	1.46
353.584	0.46
353.714	-9.54
353.845	-11.54
353.975	-13.54
354.105	-5.54
354.235	-11.54
354.365	3.46
354.496	3.46
354.626	29.46
354.756	-0.54
354.886	0.46
355.016	0.46
355.146	-7.54
355.277	8.46
355.407	-5.54
355.537	-3.54
355.667	1.46
355.797	-4.54
355.927	-9.54
356.057	8.46
356.187	-10.54
356.318	-28.54
356.448	4.46
356.578	2.46
356.708	-3.54
356.838	1.46
356.968	-5.54
357.098	-2.54
357.228	2.46
357.358	7.46
357.488	-14.54
357.618	17.46
357.748	0.46
357.878	5.46
358.008	1.46
358.138	-0.54
358.268	4.46
358.398	9.46
358.528	-13.54
358.658	7.46
358.788	-8.54
358.918	0.46
359.048	-1.54
359.178	3.46
359.308	13.46
359.438	13.46
359.568	23.46
359.698	-2.54
359.827	11.46
359.957	-8.54
360.087	-8.54
360.217	-15.54
360.347	-0.54
360.477	17.46
360.607	-18.54
360.737	9.46
360.866	-13.54
360.996	-19.54
361.126	-18.54
361.256	30.46
361.386	17.46
361.516	15.46
361.645	-24.54
361.775	9.46
361.905	-19.54
362.035	-6.54
362.165	-13.54
362.294	-1.54
362.424	35.46
362.554	19.46
362.684	-5.54
362.813	4.46
362.943	24.46
363.073	15.46
363.203	1.46
363.332	-10.54
363.462	-12.54
363.592	-1.54
363.721	-8.54
363.851	-7.54
363.981	-6.54
364.111	-17.54
364.24	-14.54
364.37	-1.54
364.5	7.46
364.629	-1.54
364.759	-20.54
364.888	-17.54
365.018	-11.54
365.148	2.46
365.277	15.46
365.407	19.46
365.537	19.46
365.666	24.46
365.796	11.46
365.925	14.46
366.055	15.46
366.184	-13.54
366.314	-11.54
366.444	-4.54
366.573	3.46
366.703	-3.54
366.832	-0.54
366.962	-10.54
367.091	16.46
367.221	-2.54
367.35	6.46
367.48	18.46
367.609	1.46
367.739	14.46
367.868	-0.54
367.998	10.46
368.127	17.46
368.257	26.46
368.386	7.46
368.516	12.46
368.645	5.46
368.775	6.46
368.904	-3.54
369.033	-18.54
369.163	-12.54
369.292	5.46
369.422	6.46
369.551	11.46
369.68	15.46
369.81	16.46
369.939	-13.54
370.069	17.46
370.198	4.46
370.327	-0.54
370.457	13.46
370.586	-12.54
370.715	-16.54
370.845	-18.54
370.974	18.46
371.103	-2.54
371.233	2.46
371.362	5.46
371.491	-17.54
371.621	2.46
371.75	-24.54
371.879	-19.54
372.008	-13.54
372.138	-8.54
372.267	5.46
372.396	-0.54
372.525	2.46
372.655	7.46
372.784	-0.54
372.913	13.46
373.042	4.46
373.172	11.46
373.301	-18.54
373.43	-1.54
373.559	-1.54
373.688	14.46
373.818	7.46
373.947	13.46
374.076	9.46
374.205	-4.54
374.334	5.46
374.463	-4.54
374.593	18.46
374.722	6.46
374.851	9.46
374.98	-16.54
375.109	-11.54
375.238	9.46
375.367	31.46
375.496	4.46
375.625	2.46
375.755	18.46
375.884	24.46
376.013	15.46
376.142	7.46
376.271	-1.54
376.4	1.46
376.529	4.46
376.658	16.46
376.787	-10.54
376.916	27.46
377.045	-12.54
377.174	-1.54
377.303	3.46
377.432	18.46
377.561	16.46
377.69	5.46
377.819	34.46
377.948	0.46
378.077	-7.54
378.206	5.46
378.335	1.46
378.464	12.46
378.593	15.46
378.722	5.46
378.851	3.46
378.98	21.46
379.108	0.46
379.237	-17.54
379.366	15.46
379.495	11.46
379.624	-15.54
379.753	-5.54
379.882	0.46
380.011	-10.54
380.14	2.46
380.268	12.46
380.397	9.46
380.526	8.46
380.655	-4.54
380.784	-28.54
380.913	17.46
381.041	-12.54
381.17	-10.54
381.299	-10.54
381.428	5.46
381.557	12.46
381.685	-15.54
381.814	-3.54
381.943	-0.54
382.072	-19.54
382.2	-18.54
382.329	-2.54
382.458	-0.54
382.587	17.46
382.715	15.46
382.844	-8.54
382.973	15.46
383.102	-3.54
383.23	1.46
383.359	-9.54
383.488	9.46
383.616	11.46
383.745	-11.54
383.874	5.46
384.003	-1.54
384.131	3.46
384.26	3.46
384.389	5.46
384.517	-19.54
384.646	-16.54
384.774	-7.54
384.903	26.46
385.032	19.46
385.16	-12.54
385.289	-9.54
385.418	-15.54
385.546	16.46
385.675	5.46
385.803	2.46
385.932	-1.54
386.06	-26.54
386.189	-9.54
386.318	-1.54
386.446	-1.54
386.575	-8.54
386.703	6.46
386.832	-8.54
386.96	-14.54
387.089	3.46
387.217	12.46
387.346	-23.54
387.474	1.46
387.603	-8.54
387.731	8.46
387.86	0.46
387.988	5.46
388.117	5.46
388.245	-4.54
388.374	-7.54
388.502	0.46
388.631	-22.54
388.759	-3.54
388.888	16.46
389.016	3.46
389.144	-4.54
389.273	9.46
389.401	-23.54
389.53	-16.54
389.658	5.46
389.786	-9.54
389.915	-13.54
390.043	-4.54
390.172	0.46
390.3	19.46
390.428	27.46
390.557	6.46
390.685	9.46
390.813	5.46
390.942	9.46
391.07	-10.54
391.198	6.46
391.327	0.46
391.455	-13.54
391.583	19.46
391.712	14.46
391.84	10.46
391.968	-12.54
392.096	-13.54
392.225	10.46
392.353	8.46
392.481	-2.54
392.609	8.46
392.738	-4.54
392.866	2.46
392.994	0.46
393.122	21.46
393.251	-19.54
393.379	-22.54
393.507	-21.54
393.635	-14.54
393.764	1.46
393.892	1.46
394.02	-8.54
394.148	-2.54
394.276	15.46
394.404	28.46
394.533	0.46
394.661	-4.54
394.789	19.46
394.917	18.46
395.045	9.46
395.173	-14.54
395.302	-8.54
395.43	-7.54
395.558	13.46
395.686	3.46
395.814	9.46
395.942	-6.54
396.07	9.46
396.198	8.46
396.326	17.46
396.454	16.46
396.582	8.46
396.711	-3.54
396.839	6.46
396.967	-3.54
397.095	-24.54
397.223	16.46
397.351	3.46
397.479	29.46
397.607	-2.54
397.735	20.46
397.863	3.46
397.991	8.46
398.119	-17.54
398.247	-18.54
398.375	-4.54
398.503	-13.54
398.631	-2.54
398.759	0.46
398.887	-6.54
399.015	2.46
399.143	7.46
399.271	4.46
399.399	22.46
399.526	20.46
399.654	31.46
399.782	-12.54
399.91	-4.54
400.038	11.46
400.166	-23.54
400.294	0.46
400.422	-18.54
400.55	2.46
400.678	-16.54
400.805	12.46
400.933	-3.54
401.061	23.46
401.189	0.46
401.317	15.46
401.445	10.46
401.573	29.46
401.7	15.46
401.828	-8.54
401.956	7.46
402.084	23.46
402.212	17.46
402.34	23.46
402.467	12.46
402.595	0.46
402.723	-0.54
402.851	20.46
402.978	-11.54
403.106	-4.54
403.234	0.46
403.362	31.46
403.489	22.46
403.617	12.46
403.745	5.46
403.873	-4.54
404	8.46
404.128	-4.54
404.256	15.46
404.384	19.46
404.511	13.46
404.639	-1.54
404.767	-0.54
404.894	4.46
405.022	-12.54
405.15	-4.54
405.277	-25.54
405.405	-3.54
405.533	7.46
405.66	-7.54
405.788	-15.54
405.916	-18.54
406.043	-8.54
406.171	4.46
406.299	-8.54
406.426	2.46
406.554	10.46
406.681	5.46
406.809	-4.54
406.937	-0.54
407.064	5.46
407.192	12.46
407.319	8.46
407.447	-20.54
407.574	10.46
407.702	5.46
407.83	3.46
407.957	-19.54
408.085	10.46
408.212	0.46
408.34	19.46
408.467	-7.54
408.595	9.46
408.722	15.46
408.85	-1.54
408.977	-0.54
409.105	23.46
409.232	14.46
409.36	-13.54
409.487	5.46
409.615	4.46
409.742	24.46
409.87	25.46
409.997	32.46
410.125	33.46
410.252	59.46
410.379	39.46
410.507	37.46
410.634	7.46
410.762	16.46
410.889	32.46
411.017	0.46
411.144	12.46
411.271	-15.54
411.399	5.46
411.526	-2.54
411.653	10.46
411.781	21.46
411.908	11.46
412.036	-0.54
412.163	30.46
412.29	17.46
412.418	6.46
412.545	16.46
412.672	10.46
412.8	30.46
412.927	7.46
413.054	7.46
413.182	-7.54
413.309	14.46
413.436	-2.54
413.564	2.46
413.691	14.46
413.818	24.46
413.945	-18.54
414.073	-0.54
414.2	4.46
414.327	12.46
414.454	7.46
414.582	9.46
414.709	-5.54
414.836	-4.54
414.963	2.46
415.091	17.46
415.218	2.46
415.345	-6.54
415.472	-4.54
415.6	-19.54
415.727	16.46
415.854	4.46
415.981	4.46
416.108	-7.54
416.236	-0.54
416.363	18.46
416.49	-1.54
416.617	-0.54
416.744	11.46
416.871	16.46
416.998	-10.54
417.126	-12.54
417.253	10.46
417.38	-1.54
417.507	-15.54
417.634	13.46
417.761	8.46
417.888	5.46
418.015	-3.54
418.143	-2.54
418.27	22.46
418.397	2.46
418.524	-2.54
418.651	0.46
418.778	12.46
418.905	16.46
419.032	15.46
419.159	3.46
419.286	36.46
419.413	21.46
419.54	18.46
419.667	7.46
419.794	-11.54
419.921	-0.54
420.048	-4.54
420.175	26.46
420.302	8.46
420.429	11.46
420.556	10.46
420.683	1.46
420.81	-2.54
420.937	3.46
421.064	-4.54
421.191	3.46
421.318	18.46
421.445	4.46
421.572	-9.54
421.699	4.46
421.826	5.46
421.953	-0.54
422.08	-2.54
422.207	-7.54
422.334	-13.54
422.461	29.46
422.588	4.46
422.714	5.46
422.841	24.46
422.968	22.46
423.095	5.46
423.222	19.46
423.349	24.46
423.476	28.46
423.603	0.46
423.729	-11.54
423.856	-13.54
423.983	-2.54
424.11	-5.54
424.237	-23.54
424.364	5.46
424.491	-8.54
424.617	-10.54
424.744	-19.54
424.871	3.46
424.998	-22.54
425.125	-12.54
425.251	-2.54
425.378	-6.54
425.505	-7.54
425.632	-14.54
425.758	-11.54
425.885	3.46
426.012	17.46
426.139	23.46
426.266	5.46
426.392	7.46
426.519	4.46
426.646	7.46
426.772	21.46
426.899	15.46
427.026	2.46
427.153	-8.54
427.279	37.46
427.406	9.46
427.533	-13.54
427.659	5.46
427.786	-8.54
427.913	14.46
428.039	15.46
428.166	13.46
428.293	-1.54
428.419	21.46
428.546	-12.54
428.673	-18.54
428.799	-14.54
428.926	-9.54
429.053	18.46
429.179	10.46
429.306	10.46
429.433	15.46
429.559	19.46
429.686	-14.54
429.812	-23.54
429.939	-13.54
430.066	-16.54
430.192	-15.54
430.319	-7.54
430.445	-8.54
430.572	-11.54
430.699	-31.54
430.825	-24.54
430.952	10.46
431.078	5.46
431.205	-1.54
431.331	-9.54
431.458	13.46
431.584	7.46
431.711	1.46
431.837	13.46
431.964	-11.54
432.09	13.46
432.217	-27.54
432.343	-9.54
432.47	9.46
432.596	-14.54
432.723	-6.54
432.849	10.46
432.976	3.46
433.102	6.46
433.229	1.46
433.355	27.46
433.482	67.46
433.608	156.46
433.735	145.46
433.861	123.46
433.987	150.46
434.114	234.46
434.24	190.46
434.367	83.46
434.493	9.46
434.62	21.46
434.746	31.46
434.872	13.46
434.999	14.46
435.125	2.46
435.252	-19.54
435.378	5.46
435.504	6.46
435.631	27.46
435.757	-3.54
435.883	13.46
436.01	5.46
436.136	8.46
436.262	4.46
436.389	17.46
436.515	30.46
436.641	31.46
436.768	15.46
436.894	8.46
437.02	12.46
437.147	17.46
437.273	10.46
437.399	17.46
437.526	23.46
437.652	16.46
437.778	16.46
437.904	-19.54
438.031	-15.54
438.157	11.46
438.283	18.46
438.409	0.46
438.536	-7.54
438.662	15.46
438.788	3.46
438.914	10.46
439.041	7.46
439.167	12.46
439.293	3.46
439.419	6.46
439.546	8.46
439.672	-10.54
439.798	7.46
439.924	18.46
440.05	21.46
440.177	14.46
440.303	4.46
440.429	5.46
440.555	-6.54
440.681	4.46
440.807	16.46
440.934	17.46
441.06	9.46
441.186	14.46
441.312	-6.54
441.438	13.46
441.564	28.46
441.69	16.46
441.816	-4.54
441.943	8.46
442.069	5.46
442.195	3.46
442.321	16.46
442.447	-7.54
442.573	-16.54
442.699	-19.54
442.825	-23.54
442.951	24.46
443.077	34.46
443.203	13.46
443.33	-9.54
443.456	-8.54
443.582	8.46
443.708	0.46
443.834	12.46
443.96	2.46
444.086	1.46
444.212	26.46
444.338	34.46
444.464	21.46
444.59	8.46
444.716	5.46
444.842	11.46
444.968	-8.54
445.094	-15.54
445.22	5.46
445.346	13.46
445.472	-10.54
445.598	-0.54
445.724	-7.54
445.85	4.46
445.976	9.46
446.102	4.46
446.228	18.46
446.354	-4.54
446.48	0.46
446.605	7.46
446.731	11.46
446.857	-12.54
446.983	6.46
447.109	8.46
447.235	20.46
447.361	-6.54
447.487	10.46
447.613	5.46
447.739	-8.54
447.865	-6.54
447.99	8.46
448.116	1.46
448.242	21.46
448.368	-4.54
448.494	1.46
448.62	19.46
448.746	7.46
448.872	3.46
448.997	-12.54
449.123	-3.54
449.249	13.46
449.375	1.46
449.501	1.46
449.627	-6.54
449.752	37.46
449.878	-0.54
450.004	11.46
450.13	9.46
450.256	-9.54
450.381	-2.54
450.507	12.46
450.633	5.46
450.759	18.46
450.884	-2.54
451.01	14.46
451.136	-6.54
451.262	9.46
451.388	14.46
451.513	3.46
451.639	-1.54
451.765	14.46
451.89	-3.54
452.016	7.46
452.142	9.46
452.268	4.46
452.393	3.46
452.519	3.46
452.645	23.46
452.771	-4.54
452.896	-2.54
453.022	-9.54
453.148	16.46
453.273	6.46
453.399	5.46
453.525	-11.54
453.65	1.46
453.776	1.46
453.902	10.46
454.027	20.46
454.153	15.46
454.279	1.46
454.404	-11.54
454.53	19.46
454.656	15.46
454.781	-3.54
454.907	3.46
455.032	0.46
455.158	15.46
455.284	13.46
455.409	-4.54
455.535	14.46
455.66	5.46
455.786	15.46
455.912	4.46
456.037	-0.54
456.163	4.46
456.288	20.46
456.414	-9.54
456.539	-9.54
456.665	14.46
456.791	13.46
456.916	10.46
457.042	18.46
457.167	1.46
457.293	10.46
457.418	0.46
457.544	17.46
457.669	-13.54
457.795	7.46
457.92	11.46
458.046	15.46
458.171	22.46
458.297	7.46
458.422	-2.54
458.548	2.46
458.673	19.46
458.799	6.46
458.924	0.46
459.05	9.46
459.175	1.46
459.301	4.46
459.426	17.46
459.552	8.46
459.677	-4.54
459.803	29.46
459.928	8.46
460.053	-0.54
460.179	6.46
460.304	5.46
460.43	-13.54
460.555	-0.54
460.681	-6.54
460.806	-7.54
460.931	18.46
461.057	4.46
461.182	1.46
461.308	25.46
461.433	10.46
461.558	-19.54
461.684	3.46
461.809	12.46
461.934	2.46
462.06	24.46
462.185	-10.54
462.311	12.46
462.436	13.46
462.561	5.46
462.687	1.46
462.812	13.46
462.937	1.46
463.063	3.46
463.188	-11.54
463.313	25.46
463.439	9.46
463.564	7.46
463.689	-2.54
463.814	17.46
463.94	-5.54
464.065	4.46
464.19	16.46
464.316	9.46
464.441	-9.54
464.566	-9.54
464.692	-4.54
464.817	1.46
464.942	0.46
465.067	-11.54
465.193	-15.54
465.318	-4.54
465.443	-20.54
465.568	3.46
465.694	5.46
465.819	20.46
465.944	5.46
466.069	7.46
466.194	-1.54
466.32	11.46
466.445	15.46
466.57	-0.54
466.695	-8.54
466.82	10.46
466.946	21.46
467.071	23.46
467.196	13.46
467.321	23.46
467.446	-0.54
467.572	-7.54
467.697	-1.54
467.822	8.46
467.947	10.46
468.072	-10.54
468.197	-12.54
468.323	-15.54
468.448	-4.54
468.573	-3.54
468.698	1.46
468.823	10.46
468.948	7.46
469.073	13.46
469.198	16.46
469.324	21.46
469.449	2.46
469.574	13.46
469.699	38.46
469.824	15.46
469.949	-4.54
470.074	16.46
470.199	50.46
470.324	14.46
470.449	27.46
470.574	2.46
470.7	-10.54
470.825	12.46
470.95	31.46
471.075	9.46
471.2	3.46
471.325	24.46
471.45	5.46
471.575	-1.54
471.7	0.46
471.825	-7.54
471.95	-4.54
472.075	-9.54
472.2	3.46
472.325	-0.54
472.45	2.46
472.575	8.46
472.7	-4.54
472.825	12.46
472.95	9.46
473.075	5.46
473.2	5.46
473.325	15.46
473.45	0.46
473.575	4.46
473.7	4.46
473.825	15.46
473.95	24.46
474.075	5.46
474.2	5.46
474.325	16.46
474.45	18.46
474.574	4.46
474.699	23.46
474.824	2.46
474.949	-4.54
475.074	-6.54
475.199	12.46
475.324	23.46
475.449	14.46
475.574	6.46
475.699	19.46
475.824	10.46
475.949	3.46
476.073	-1.54
476.198	-4.54
476.323	16.46
476.448	-5.54
476.573	6.46
476.698	17.46
476.823	12.46
476.947	3.46
477.072	19.46
477.197	11.46
477.322	-9.54
477.447	-2.54
477.572	1.46
477.697	10.46
477.821	-6.54
477.946	28.46
478.071	24.46
478.196	14.46
478.321	4.46
478.445	-9.54
478.57	2.46
478.695	6.46
478.82	11.46
478.945	13.46
479.069	4.46
479.194	1.46
479.319	16.46
479.444	8.46
479.569	2.46
479.693	10.46
479.818	5.46
479.943	12.46
480.068	11.46
480.192	21.46
480.317	15.46
480.442	10.46
480.567	8.46
480.691	13.46
480.816	4.46
480.941	2.46
481.066	14.46
481.19	11.46
481.315	15.46
481.44	14.46
481.564	-3.54
481.689	19.46
481.814	30.46
481.938	26.46
482.063	11.46
482.188	13.46
482.313	24.46
482.437	12.46
482.562	30.46
482.687	24.46
482.811	32.46
482.936	16.46
483.061	33.46
483.185	12.46
483.31	19.46
483.435	3.46
483.559	5.46
483.684	9.46
483.808	28.46
483.933	-1.54
484.058	-8.54
484.182	23.46
484.307	16.46
484.432	21.46
484.556	12.46
484.681	8.46
484.805	5.46
484.93	1.46
485.055	36.46
485.179	67.46
485.304	128.46
485.428	366.46
485.553	1200.46
485.678	1692.46
485.802	1604.46
485.927	1800.46
486.051	2643.46
486.176	1616.46
486.3	433.46
486.425	136.46
486.549	73.46
486.674	57.46
486.799	46.46
486.923	19.46
487.048	20.46
487.172	17.46
487.297	21.46
487.421	31.46
487.546	21.46
487.67	22.46
487.795	15.46
487.919	20.46
488.044	20.46
488.168	11.46
488.293	11.46
488.417	1.46
488.542	20.46
488.666	29.46
488.791	19.46
488.915	5.46
489.04	16.46
489.164	20.46
489.289	26.46
489.413	-4.54
489.538	25.46
489.662	15.46
489.786	8.46
489.911	13.46
490.035	13.46
490.16	0.46
490.284	-3.54
490.409	-4.54
490.533	13.46
490.658	37.46
490.782	10.46
490.906	9.46
491.031	12.46
491.155	2.46
491.28	25.46
491.404	11.46
491.528	26.46
491.653	4.46
491.777	38.46
491.902	-1.54
492.026	11.46
492.15	27.46
492.275	41.46
492.399	24.46
492.524	21.46
492.648	16.46
492.772	21.46
492.897	28.46
493.021	14.46
493.145	26.46
493.27	21.46
493.394	-2.54
493.518	0.46
493.643	7.46
493.767	26.46
493.891	-1.54
494.016	10.46
494.14	-1.54
494.264	13.46
494.389	8.46
494.513	18.46
494.637	8.46
494.762	8.46
494.886	16.46
495.01	24.46
495.134	11.46
495.259	18.46
495.383	1.46
495.507	7.46
495.632	33.46
495.756	44.46
495.88	11.46
496.004	0.46
496.129	6.46
496.253	1.46
496.377	11.46
496.501	30.46
496.626	-3.54
496.75	21.46
496.874	20.46
496.998	9.46
497.123	23.46
497.247	1.46
497.371	8.46
497.495	16.46
497.62	32.46
497.744	23.46
497.868	17.46
497.992	6.46
498.116	1.46
498.241	10.46
498.365	3.46
498.489	-0.54
498.613	25.46
498.737	7.46
498.862	-0.54
498.986	1.46
499.11	17.46
499.234	4.46
499.358	-8.54
499.482	17.46
499.607	12.46
499.731	20.46
499.855	26.46
499.979	12.46
500.103	24.46
500.227	14.46
500.351	11.46
500.476	-9.54
500.6	8.46
500.724	10.46
500.848	4.46
500.972	27.46
501.096	11.46
501.22	20.46
501.344	5.46
501.469	14.46
501.593	6.46
501.717	13.46
501.841	22.46
501.965	12.46
502.089	3.46
502.213	17.46
502.337	0.46
502.461	-7.54
502.585	-3.54
502.709	0.46
502.834	-11.54
502.958	14.46
503.082	10.46
503.206	15.46
503.33	13.46
503.454	17.46
503.578	8.46
503.702	27.46
503.826	15.46
503.95	18.46
504.074	7.46
504.198	11.46
504.322	5.46
504.446	13.46
504.57	11.46
504.694	19.46
504.818	-10.54
504.942	19.46
505.066	-2.54
505.19	5.46
505.314	12.46
505.438	8.46
505.562	13.46
505.686	38.46
505.81	6.46
505.934	23.46
506.058	16.46
506.182	8.46
506.306	6.46
506.43	0.46
506.554	-9.54
506.678	13.46
506.802	3.46
506.926	8.46
507.05	10.46
507.174	14.46
507.298	17.46
507.422	10.46
507.546	-7.54
507.67	11.46
507.794	-12.54
507.918	10.46
508.042	6.46
508.165	-4.54
508.289	-3.54
508.413	-1.54
508.537	0.46
508.661	0.46
508.785	20.46
508.909	22.46
509.033	12.46
509.157	15.46
509.281	5.46
509.405	9.46
509.528	21.46
509.652	28.46
509.776	1.46
509.9	8.46
510.024	8.46
510.148	8.46
510.272	3.46
510.396	5.46
510.519	6.46
510.643	23.46
510.767	6.46
510.891	13.46
511.015	6.46
511.139	-0.54
511.263	11.46
511.386	-5.54
511.51	13.46
511.634	16.46
511.758	19.46
511.882	0.46
512.006	8.46
512.129	12.46
512.253	32.46
512.377	21.46
512.501	10.46
512.625	19.46
512.748	1.46
512.872	0.46
512.996	3.46
513.12	13.46
513.244	-8.54
513.367	12.46
513.491	-14.54
513.615	9.46
513.739	2.46
513.862	5.46
513.986	5.46
514.11	22.46
514.234	-2.54
514.358	10.46
514.481	12.46
514.605	-3.54
514.729	19.46
514.853	24.46
514.976	-3.54
515.1	4.46
515.224	16.46
515.348	-7.54
515.471	-12.54
515.595	16.46
515.719	-2.54
515.842	28.46
515.966	14.46
516.09	37.46
516.214	6.46
516.337	21.46
516.461	13.46
516.585	-0.54
516.708	17.46
516.832	23.46
516.956	9.46
517.08	13.46
517.203	-11.54
517.327	8.46
517.451	49.46
517.574	33.46
517.698	6.46
517.822	-1.54
517.945	23.46
518.069	26.46
518.193	33.46
518.316	23.46
518.44	40.46
518.564	42.46
518.687	18.46
518.811	29.46
518.935	61.46
519.058	33.46
519.182	19.46
519.306	36.46
519.429	19.46
519.553	56.46
519.676	20.46
519.8	17.46
519.924	8.46
520.047	10.46
520.171	-2.54
520.294	7.46
520.418	24.46
520.542	-5.54
520.665	16.46
520.789	-6.54
520.913	-7.54
521.036	-21.54
521.16	3.46
521.283	15.46
521.407	2.46
521.53	-0.54
521.654	-2.54
521.778	10.46
521.901	10.46
522.025	9.46
522.148	7.46
522.272	7.46
522.395	-3.54
522.519	9.46
522.643	-10.54
522.766	15.46
522.89	-0.54
523.013	17.46
523.137	-0.54
523.26	6.46
523.384	16.46
523.507	12.46
523.631	23.46
523.754	-3.54
523.878	13.46
524.002	20.46
524.125	-0.54
524.249	-18.54
524.372	1.46
524.496	-8.54
524.619	10.46
524.743	6.46
524.866	-9.54
524.99	-0.54
525.113	-7.54
525.237	16.46
525.36	14.46
525.484	9.46
525.607	-3.54
525.731	-11.54
525.854	22.46
525.978	16.46
526.101	5.46
526.224	-10.54
526.348	12.46
526.471	1.46
526.595	15.46
526.718	8.46
526.842	0.46
526.965	22.46
527.089	-2.54
527.212	7.46
527.336	12.46
527.459	14.46
527.582	12.46
527.706	5.46
527.829	9.46
527.953	29.46
528.076	-7.54
528.2	-8.54
528.323	24.46
528.446	25.46
528.57	16.46
528.693	9.46
528.817	5.46
528.94	7.46
529.064	37.46
529.187	-6.54
529.31	14.46
529.434	10.46
529.557	7.46
529.68	-2.54
529.804	3.46
529.927	1.46
530.051	3.46
530.174	6.46
530.297	5.46
530.421	10.46
530.544	13.46
530.668	9.46
530.791	9.46
530.914	24.46
531.038	7.46
531.161	9.46
531.284	7.46
531.408	-0.54
531.531	-6.54
531.654	-0.54
531.778	20.46
531.901	-7.54
532.024	4.46
532.148	-5.54
532.271	17.46
532.394	0.46
532.518	38.46
532.641	22.46
532.764	30.46
532.888	5.46
533.011	-33.54
533.134	-8.54
533.258	19.46
533.381	-14.54
533.504	-14.54
533.628	1.46
533.751	22.46
533.874	-7.54
533.997	4.46
534.121	-0.54
534.244	9.46
534.367	5.46
534.491	-13.54
534.614	3.46
534.737	20.46
534.86	-0.54
534.984	3.46
535.107	-2.54
535.23	-2.54
535.354	6.46
535.477	0.46
535.6	4.46
535.723	-3.54
535.847	7.46
535.97	-3.54
536.093	19.46
536.216	3.46
536.34	18.46
536.463	-9.54
536.586	18.46
536.709	-4.54
536.833	-9.54
536.956	-3.54
537.079	-3.54
537.202	10.46
537.325	0.46
537.449	-5.54
537.572	-2.54
537.695	-27.54
537.818	7.46
537.941	3.46
538.065	-0.54
538.188	-6.54
538.311	25.46
538.434	15.46
538.558	9.46
538.681	15.46
538.804	32.46
538.927	13.46
539.05	7.46
539.173	-7.54
539.297	5.46
539.42	4.46
539.543	8.46
539.666	23.46
539.789	16.46
539.913	-5.54
540.036	8.46
540.159	12.46
540.282	-10.54
540.405	-18.54
540.528	4.46
540.651	2.46
540.775	13.46
540.898	10.46
541.021	-7.54
541.144	14.46
541.267	22.46
541.39	-10.54
541.513	31.46
541.637	11.46
541.76	-7.54
541.883	1.46
542.006	15.46
542.129	23.46
542.252	-0.54
542.375	4.46
542.498	4.46
542.622	2.46
542.745	14.46
542.868	6.46
542.991	18.46
543.114	18.46
543.237	3.46
543.36	25.46
543.483	6.46
543.606	13.46
543.73	28.46
543.853	8.46
543.976	5.46
544.099	23.46
544.222	-1.54
544.345	-11.54
544.468	0.46
544.591	-10.54
544.714	1.46
544.837	25.46
544.96	0.46
545.083	-2.54
545.206	-3.54
545.329	19.46
545.453	13.46
545.576	2.46
545.699	2.46
545.822	-1.54
545.945	15.46
546.068	5.46
546.191	17.46
546.314	-8.54
546.437	9.46
546.56	19.46
546.683	7.46
546.806	8.46
546.929	15.46
547.052	-3.54
547.175	-5.54
547.298	8.46
547.421	1.46
547.544	-1.54
547.667	18.46
547.79	4.46
547.913	-19.54
548.036	-4.54
548.159	13.46
548.282	4.46
548.405	-10.54
548.528	2.46
548.651	-0.54
548.774	6.46
548.897	-4.54
549.02	17.46
549.143	30.46
549.266	8.46
549.389	14.46
549.512	0.46
549.635	24.46
549.758	3.46
549.881	-5.54
550.004	8.46
550.127	11.46
550.25	8.46
550.373	-13.54
550.496	2.46
550.619	2.46
550.742	-8.54
550.865	-15.54
550.988	15.46
551.111	18.46
551.234	8.46
551.356	-9.54
551.479	-2.54
551.602	-6.54
551.725	3.46
551.848	6.46
551.971	23.46
552.094	9.46
552.217	-4.54
552.34	4.46
552.463	-4.54
552.586	-9.54
552.709	1.46
552.832	7.46
552.955	9.46
553.077	13.46
553.2	16.46
553.323	-6.54
553.446	2.46
553.569	10.46
553.692	12.46
553.815	7.46
553.938	23.46
554.061	7.46
554.184	12.46
554.306	22.46
554.429	-11.54
554.552	8.46
554.675	14.46
554.798	23.46
554.921	7.46
555.044	20.46
555.167	-2.54
555.29	3.46
555.412	-18.54
555.535	8.46
555.658	5.46
555.781	10.46
555.904	-4.54
556.027	2.46
556.15	4.46
556.272	1.46
556.395	18.46
556.518	-3.54
556.641	0.46
556.764	5.46
556.887	13.46
557.01	7.46
557.132	-17.54
557.255	0.46
557.378	18.46
557.501	-6.54
557.624	0.46
557.747	1.46
557.869	9.46
557.992	2.46
558.115	4.46
558.238	-4.54
558.361	13.46
558.483	33.46
558.606	11.46
558.729	3.46
558.852	30.46
558.975	22.46
559.098	19.46
559.22	3.46
559.343	-10.54
559.466	-8.54
559.589	-4.54
559.712	2.46
559.834	17.46
559.957	19.46
560.08	-2.54
560.203	3.46
560.325	-3.54
560.448	19.46
560.571	7.46
560.694	-7.54
560.817	25.46
560.939	0.46
561.062	-6.54
561.185	-8.54
561.308	12.46
561.43	8.46
561.553	1.46
561.676	3.46
561.799	10.46
561.921	3.46
562.044	0.46
562.167	-12.54
562.29	21.46
562.413	21.46
562.535	17.46
562.658	-7.54
562.781	-19.54
562.903	-3.54
563.026	21.46
563.149	19.46
563.272	4.46
563.394	3.46
563.517	-2.54
563.64	5.46
563.763	6.46
563.885	2.46
564.008	24.46
564.131	9.46
564.254	-11.54
564.376	-1.54
564.499	-16.54
564.622	4.46
564.744	8.46
564.867	3.46
564.99	-8.54
565.113	15.46
565.235	7.46
565.358	-3.54
565.481	-17.54
565.603	4.46
565.726	6.46
565.849	18.46
565.971	13.46
566.094	-3.54
566.217	14.46
566.34	12.46
566.462	-25.54
566.585	9.46
566.708	22.46
566.83	10.46
566.953	25.46
567.076	-2.54
567.198	12.46
567.321	-12.54
567.444	-14.54
567.566	-18.54
567.689	5.46
567.812	1.46
567.934	9.46
568.057	-1.54
568.18	-7.54
568.302	14.46
568.425	2.46
568.548	0.46
568.67	-8.54
568.793	19.46
568.916	20.46
569.038	11.46
569.161	0.46
569.283	0.46
569.406	-4.54
569.529	5.46
569.651	3.46
569.774	-11.54
569.897	-10.54
570.019	8.46
570.142	6.46
570.265	-3.54
570.387	3.46
570.51	19.46
570.632	25.46
570.755	9.46
570.878	-8.54
571	15.46
571.123	18.46
571.246	28.46
571.368	12.46
571.491	20.46
571.613	-2.54
571.736	-16.54
571.859	-4.54
571.981	4.46
572.104	-9.54
572.226	17.46
572.349	-15.54
572.472	9.46
572.594	8.46
572.717	-4.54
572.839	-11.54
572.962	7.46
573.085	14.46
573.207	9.46
573.33	10.46
573.452	33.46
573.575	7.46
573.697	-11.54
573.82	-10.54
573.943	-6.54
574.065	12.46
574.188	6.46
574.31	13.46
574.433	9.46
574.555	24.46
574.678	3.46
574.801	14.46
574.923	-5.54
575.046	-0.54
575.168	-0.54
575.291	5.46
575.413	15.46
575.536	10.46
575.659	28.46
575.781	17.46
575.904	4.46
576.026	-0.54
576.149	-10.54
576.271	10.46
576.394	12.46
576.516	-3.54
576.639	14.46
576.761	-8.54
576.884	-10.54
577.007	0.46
577.129	-1.54
577.252	10.46
577.374	28.46
577.497	-0.54
577.619	-18.54
577.742	-13.54
577.864	27.46
577.987	28.46
578.109	11.46
578.232	-0.54
578.354	21.46
578.477	4.46
578.599	6.46
578.722	2.46
578.844	7.46
578.967	5.46
579.089	-2.54
579.212	-6.54
579.334	24.46
579.457	21.46
579.579	20.46
579.702	-5.54
579.824	5.46
579.947	-13.54
580.069	0.46
580.192	-8.54
580.314	15.46
580.437	3.46
580.559	47.46
580.682	15.46
580.804	6.46
580.927	15.46
581.049	13.46
581.172	29.46
581.294	12.46
581.417	22.46
581.539	21.46
581.662	18.46
581.784	16.46
581.907	-2.54
582.029	-1.54
582.152	-12.54
582.274	16.46
582.396	-7.54
582.519	15.46
582.641	-4.54
582.764	9.46
582.886	28.46
583.009	0.46
583.131	13.46
583.254	18.46
583.376	0.46
583.499	20.46
583.621	12.46
583.743	9.46
583.866	11.46
583.988	15.46
584.111	15.46
584.233	14.46
584.356	4.46
584.478	9.46
584.601	-12.54
584.723	1.46
584.845	31.46
584.968	-2.54
585.09	-20.54
585.213	14.46
585.335	-6.54
585.458	-8.54
585.58	0.46
585.702	22.46
585.825	10.46
585.947	-3.54
586.07	-8.54
586.192	3.46
586.315	9.46
586.437	-14.54
586.559	-7.54
586.682	2.46
586.804	15.46
586.927	0.46
587.049	11.46
587.171	19.46
587.294	3.46
587.416	23.46
587.539	14.46
587.661	-6.54
587.783	-12.54
587.906	-1.54
588.028	7.46
588.151	3.46
588.273	9.46
588.395	-4.54
588.518	-1.54
588.64	-0.54
588.763	17.46
588.885	11.46
589.007	21.46
589.13	13.46
589.252	-15.54
589.375	7.46
589.497	-4.54
589.619	3.46
589.742	11.46
589.864	0.46
589.986	-7.54
590.109	-1.54
590.231	6.46
590.354	-7.54
590.476	-20.54
590.598	-8.54
590.721	-0.54
590.843	23.46
590.965	2.46
591.088	29.46
591.21	7.46
591.332	13.46
591.455	-7.54
591.577	3.46
591.7	0.46
591.822	10.46
591.944	3.46
592.067	-14.54
592.189	1.46
592.311	18.46
592.434	-15.54
592.556	10.46
592.678	14.46
592.801	-3.54
592.923	11.46
593.045	23.46
593.168	10.46
593.29	-5.54
593.412	18.46
593.535	-3.54
593.657	2.46
593.779	-7.54
593.902	16.46
594.024	11.46
594.146	27.46
594.269	15.46
594.391	-1.54
594.513	23.46
594.636	-1.54
594.758	-2.54
594.88	17.46
595.003	11.46
595.125	-7.54
595.247	7.46
595.37	5.46
595.492	7.46
595.614	14.46
595.737	5.46
595.859	9.46
595.981	7.46
596.104	-0.54
596.226	4.46
596.348	2.46
596.471	9.46
596.593	25.46
596.715	15.46
596.838	11.46
596.96	9.46
597.082	18.46
597.204	-1.54
597.327	7.46
597.449	-18.54
597.571	5.46
597.694	21.46
597.816	6.46
597.938	-2.54
598.061	-10.54
598.183	-2.54
598.305	17.46
598.427	-0.54
598.55	17.46
598.672	7.46
598.794	7.46
598.917	-7.54
599.039	-2.54
599.161	18.46
599.283	3.46
599.406	20.46
599.528	19.46
599.65	13.46
599.773	-0.54
599.895	39.46
600.017	6.46
600.139	4.46
600.262	10.46
600.384	9.46
600.506	22.46
600.628	13.46
600.751	18.46
600.873	10.46
600.995	3.46
601.118	5.46
601.24	4.46
601.362	17.46
601.484	15.46
601.607	18.46
601.729	1.46
601.851	-3.54
601.973	5.46
602.096	11.46
602.218	7.46
602.34	27.46
602.462	23.46
602.585	11.46
602.707	-9.54
602.829	23.46
602.951	4.46
603.074	-14.54
603.196	23.46
603.318	-1.54
603.44	14.46
603.563	16.46
603.685	-12.54
603.807	1.46
603.929	-1.54
604.052	11.46
604.174	6.46
604.296	14.46
604.418	1.46
604.541	14.46
604.663	-15.54
604.785	19.46
604.907	-3.54
605.03	-1.54
605.152	50.46
605.274	19.46
605.396	3.46
605.519	6.46
605.641	3.46
605.763	-8.54
605.885	1.46
606.008	7.46
606.13	-3.54
606.252	19.46
606.374	-11.54
606.496	-7.54
606.619	-4.54
606.741	-8.54
606.863	19.46
606.985	23.46
607.108	3.46
607.23	22.46
607.352	-4.54
607.474	9.46
607.596	18.46
607.719	11.46
607.841	14.46
607.963	3.46
608.085	18.46
608.207	27.46
608.33	14.46
608.452	4.46
608.574	19.46
608.696	25.46
608.819	8.46
608.941	9.46
609.063	-11.54
609.185	13.46
609.307	12.46
609.43	11.46
609.552	10.46
609.674	-11.54
609.796	19.46
609.918	1.46
610.041	-26.54
610.163	7.46
610.285	13.46
610.407	24.46
610.529	-7.54
610.652	7.46
610.774	14.46
610.896	13.46
611.018	6.46
611.14	16.46
611.263	3.46
611.385	-2.54
611.507	6.46
611.629	9.46
611.751	11.46
611.873	39.46
611.996	16.46
612.118	14.46
612.24	12.46
612.362	7.46
612.484	5.46
612.607	16.46
612.729	8.46
612.851	14.46
612.973	-15.54
613.095	-9.54
613.218	11.46
613.34	29.46
613.462	5.46
613.584	19.46
613.706	2.46
613.828	39.46
613.951	17.46
614.073	6.46
614.195	-10.54
614.317	40.46
614.439	13.46
614.561	20.46
614.684	0.46
614.806	11.46
614.928	15.46
615.05	-3.54
615.172	13.46
615.294	19.46
615.417	5.46
615.539	-0.54
615.661	8.46
615.783	14.46
615.905	4.46
616.027	51.46
616.15	110.46
616.272	90.46
616.394	53.46
616.516	49.46
616.638	28.46
616.76	23.46
616.883	18.46
617.005	-4.54
617.127	0.46
617.249	-4.54
617.371	7.46
617.493	-0.54
617.615	20.46
617.738	13.46
617.86	15.46
617.982	13.46
618.104	3.46
618.226	-13.54
618.348	-18.54
618.471	15.46
618.593	12.46
618.715	3.46
618.837	10.46
618.959	15.46
619.081	25.46
619.203	-2.54
619.326	8.46
619.448	3.46
619.57	16.46
619.692	21.46
619.814	8.46
619.936	14.46
620.058	23.46
620.181	5.46
620.303	1.46
620.425	4.46
620.547	-4.54
620.669	5.46
620.791	15.46
620.913	9.46
621.036	4.46
621.158	23.46
621.28	18.46
621.402	-12.54
621.524	8.46
621.646	11.46
621.768	24.46
621.891	2.46
622.013	16.46
622.135	16.46
622.257	11.46
622.379	-4.54
622.501	4.46
622.623	11.46
622.745	1.46
622.868	-3.54
622.99	16.46
623.112	-14.54
623.234	-11.54
623.356	9.46
623.478	-1.54
623.6	12.46
623.722	0.46
623.845	16.46
623.967	-3.54
624.089	12.46
624.211	-23.54
624.333	4.46
624.455	2.46
624.577	-10.54
624.699	12.46
624.822	0.46
624.944	1.46
625.066	8.46
625.188	-17.54
625.31	2.46
625.432	16.46
625.554	-2.54
625.676	9.46
625.799	10.46
625.921	-1.54
626.043	1.46
626.165	2.46
626.287	2.46
626.409	19.46
626.531	-4.54
626.653	9.46
626.775	12.46
626.898	11.46
627.02	-5.54
627.142	22.46
627.264	13.46
627.386	-14.54
627.508	-4.54
627.63	-8.54
627.752	6.46
627.874	12.46
627.997	16.46
628.119	29.46
628.241	19.46
628.363	17.46
628.485	16.46
628.607	2.46
628.729	11.46
628.851	-19.54
628.973	-2.54
629.096	-16.54
629.218	4.46
629.34	9.46
629.462	-4.54
629.584	-12.54
629.706	13.46
629.828	15.46
629.95	15.46
630.072	9.46
630.195	16.46
630.317	0.46
630.439	3.46
630.561	-3.54
630.683	-12.54
630.805	13.46
630.927	8.46
631.049	21.46
631.171	7.46
631.293	21.46
631.416	10.46
631.538	18.46
631.66	11.46
631.782	5.46
631.904	23.46
632.026	6.46
632.148	15.46
632.27	-1.54
632.392	-2.54
632.514	9.46
632.637	18.46
632.759	-14.54
632.881	1.46
633.003	-3.54
633.125	0.46
633.247	11.46
633.369	-2.54
633.491	15.46
633.613	17.46
633.735	3.46
633.858	18.46
633.98	0.46
634.102	-9.54
634.224	7.46
634.346	-14.54
634.468	16.46
634.59	4.46
634.712	12.46
634.834	-0.54
634.956	-3.54
635.078	-18.54
635.201	-6.54
635.323	11.46
635.445	15.46
635.567	-3.54
635.689	9.46
635.811	7.46
635.933	-9.54
636.055	16.46
636.177	8.46
636.299	24.46
636.421	3.46
636.544	-7.54
636.666	2.46
636.788	-0.54
636.91	19.46
637.032	15.46
637.154	12.46
637.276	43.46
637.398	20.46
637.52	27.46
637.642	5.46
637.764	-1.54
637.887	-11.54
638.009	-1.54
638.131	-4.54
638.253	-1.54
638.375	9.46
638.497	8.46
638.619	0.46
638.741	12.46
638.863	-10.54
638.985	-20.54
639.107	-2.54
639.23	-3.54
639.352	9.46
639.474	7.46
639.596	5.46
639.718	0.46
639.84	13.46
639.962	5.46
640.084	12.46
640.206	11.46
640.328	-10.54
640.45	-0.54
640.573	-2.54
640.695	8.46
640.817	0.46
640.939	16.46
641.061	6.46
641.183	12.46
641.305	9.46
641.427	7.46
641.549	6.46
641.671	5.46
641.793	4.46
641.915	41.46
642.038	-0.54
642.16	5.46
642.282	25.46
642.404	7.46
642.526	1.46
642.648	9.46
642.77	-9.54
642.892	-5.54
643.014	1.46
643.136	7.46
643.258	21.46
643.381	11.46
643.503	28.46
643.625	20.46
643.747	-0.54
643.869	27.46
643.991	37.46
644.113	-7.54
644.235	-5.54
644.357	22.46
644.479	-1.54
644.601	1.46
644.723	1.46
644.846	13.46
644.968	-12.54
645.09	-3.54
645.212	7.46
645.334	19.46
645.456	6.46
645.578	9.46
645.7	9.46
645.822	6.46
645.944	16.46
646.066	10.46
646.188	1.46
646.311	20.46
646.433	-5.54
646.555	49.46
646.677	51.46
646.799	39.46
646.921	9.46
647.043	19.46
647.165	-0.54
647.287	8.46
647.409	2.46
647.531	24.46
647.654	-25.54
647.776	-0.54
647.898	2.46
648.02	-6.54
648.142	-3.54
648.264	-3.54
648.386	1.46
648.508	-5.54
648.63	-4.54
648.752	6.46
648.874	10.46
648.997	12.46
649.119	24.46
649.241	25.46
649.363	23.46
649.485	9.46
649.607	-4.54
649.729	0.46
649.851	-6.54
649.973	-11.54
650.095	3.46
650.217	-14.54
650.34	-0.54
650.462	-7.54
650.584	-12.54
650.706	24.46
650.828	-2.54
650.95	-13.54
651.072	21.46
651.194	4.46
651.316	-8.54
651.438	19.46
651.56	-1.54
651.683	1.46
651.805	1.46
651.927	-7.54
652.049	0.46
652.171	-0.54
652.293	1.46
652.415	-20.54
652.537	-17.54
652.659	-22.54
652.781	2.46
652.903	0.46
653.026	18.46
653.148	6.46
653.27	15.46
653.392	8.46
653.514	13.46
653.636	-8.54
653.758	-8.54
653.88	-4.54
654.002	-2.54
654.124	-6.54
654.247	-8.54
654.369	0.46
654.491	1.46
654.613	16.46
654.735	1.46
654.857	25.46
654.979	30.46
655.101	15.46
655.223	36.46
655.345	30.46
655.468	25.46
655.59	13.46
655.712	26.46
655.834	10.46
655.956	29.46
656.078	36.46
656.2	31.46
656.322	28.46
656.444	0.46
656.566	32.46
656.689	40.46
656.811	43.46
656.933	78.46
657.055	88.46
657.177	163.46
657.299	243.46
657.421	493.46
657.543	1844.46
657.665	12438.46
657.787	15154.46
657.91	15221.46
658.032	15658.46
658.154	4585.46
658.276	3058.46
658.398	1053.46
658.52	986.46
658.642	459.46
658.764	580.46
658.886	261.46
659.009	387.46
659.131	197.46
659.253	299.46
659.375	156.46
659.497	249.46
659.619	127.46
659.741	194.46
659.863	96.46
659.985	157.46
660.108	74.46
660.23	140.46
660.352	74.46
660.474	140.46
660.596	59.46
660.718	125.46
660.84	49.46
660.962	113.46
661.084	43.46
661.207	85.46
661.329	62.46
661.451	89.46
661.573	27.46
661.695	106.46
661.817	59.46
661.939	104.46
662.061	63.46
662.184	59.46
662.306	29.46
662.428	80.46
662.55	40.46
662.672	61.46
662.794	17.46
662.916	59.46
663.038	40.46
663.161	67.46
663.283	35.46
663.405	70.46
663.527	15.46
663.649	67.46
663.771	21.46
663.893	42.46
664.015	27.46
664.138	28.46
664.26	27.46
664.382	52.46
664.504	4.46
664.626	27.46
664.748	23.46
664.87	37.46
664.992	28.46
665.115	45.46
665.237	31.46
665.359	39.46
665.481	5.46
665.603	21.46
665.725	14.46
665.847	10.46
665.97	25.46
666.092	32.46
666.214	36.46
666.336	38.46
666.458	25.46
666.58	39.46
666.702	13.46
666.825	20.46
666.947	-2.54
667.069	48.46
667.191	21.46
667.313	41.46
667.435	0.46
667.557	5.46
667.68	-1.54
667.802	11.46
667.924	5.46
668.046	29.46
668.168	38.46
668.29	47.46
668.412	17.46
668.535	44.46
668.657	9.46
668.779	11.46
668.901	13.46
669.023	23.46
669.145	8.46
669.267	44.46
669.39	16.46
669.512	20.46
669.634	3.46
669.756	4.46
669.878	-3.54
670	29.46
670.123	1.46
670.245	15.46
670.367	9.46
670.489	32.46
670.611	1.46
670.733	0.46
670.856	-6.54
670.978	21.46
671.1	18.46
671.222	25.46
671.344	28.46
671.466	6.46
671.589	6.46
671.711	9.46
671.833	-9.54
671.955	7.46
672.077	-12.54
672.199	18.46
672.322	9.46
672.444	26.46
672.566	19.46
672.688	1.46
672.81	16.46
672.932	29.46
673.055	9.46
673.177	4.46
673.299	24.46
673.421	12.46
673.543	16.46
673.665	24.46
673.788	21.46
673.91	11.46
674.032	-12.54
674.154	4.46
674.276	9.46
674.399	4.46
674.521	1.46
674.643	12.46
674.765	1.46
674.887	38.46
675.009	12.46
675.132	7.46
675.254	8.46
675.376	11.46
675.498	5.46
675.62	31.46
675.743	8.46
675.865	23.46
675.987	-2.54
676.109	5.46
676.231	5.46
676.354	32.46
676.476	-10.54
676.598	13.46
676.72	5.46
676.842	4.46
676.965	16.46
677.087	19.46
677.209	14.46
677.331	16.46
677.453	17.46
677.576	-2.54
677.698	12.46
677.82	7.46
677.942	-3.54
678.064	-12.54
678.187	7.46
678.309	13.46
678.431	-3.54
678.553	12.46
678.675	5.46
678.798	27.46
678.92	11.46
679.042	3.46
679.164	8.46
679.286	20.46
679.409	1.46
679.531	-14.54
679.653	-7.54
679.775	10.46
679.898	-8.54
680.02	9.46
680.142	-7.54
680.264	8.46
680.386	-24.54
680.509	9.46
680.631	7.46
680.753	11.46
680.875	16.46
680.998	7.46
681.12	9.46
681.242	5.46
681.364	-4.54
681.486	9.46
681.609	-11.54
681.731	21.46
681.853	7.46
681.975	0.46
682.098	11.46
682.22	15.46
682.342	-0.54
682.464	19.46
682.587	-1.54
682.709	-7.54
682.831	-8.54
682.953	13.46
683.076	-1.54
683.198	9.46
683.32	7.46
683.442	23.46
683.565	7.46
683.687	1.46
683.809	-0.54
683.931	-12.54
684.054	6.46
684.176	6.46
684.298	10.46
684.42	0.46
684.543	-4.54
684.665	-0.54
684.787	4.46
684.909	-4.54
685.032	-11.54
685.154	-3.54
685.276	-0.54
685.398	1.46
685.521	-10.54
685.643	9.46
685.765	-1.54
685.887	4.46
686.01	11.46
686.132	16.46
686.254	12.46
686.377	20.46
686.499	20.46
686.621	10.46
686.743	10.46
686.866	11.46
686.988	27.46
687.11	24.46
687.232	15.46
687.355	0.46
687.477	-17.54
687.599	3.46
687.722	-3.54
687.844	2.46
687.966	-6.54
688.088	7.46
688.211	29.46
688.333	5.46
688.455	6.46
688.578	15.46
688.7	6.46
688.822	-3.54
688.944	-7.54
689.067	35.46
689.189	19.46
689.311	3.46
689.434	-2.54
689.556	12.46
689.678	0.46
689.801	16.46
689.923	10.46
690.045	19.46
690.167	6.46
690.29	-7.54
690.412	3.46
690.534	20.46
690.657	-0.54
690.779	-5.54
690.901	4.46
691.024	-1.54
691.146	-5.54
691.268	-18.54
691.391	12.46
691.513	21.46
691.635	4.46
691.758	7.46
691.88	2.46
692.002	2.46
692.125	-3.54
692.247	-9.54
692.369	-4.54
692.492	-8.54
692.614	1.46
692.736	11.46
692.859	7.46
692.981	12.46
693.103	-4.54
693.226	-1.54
693.348	1.46
693.47	-2.54
693.593	-0.54
693.715	-16.54
693.837	-13.54
693.96	-11.54
694.082	-11.54
694.204	-3.54
694.327	12.46
694.449	-9.54
694.571	18.46
694.694	0.46
694.816	14.46
694.938	-9.54
695.061	-8.54
695.183	19.46
695.305	8.46
695.428	25.46
695.55	-4.54
695.672	-20.54
695.795	4.46
695.917	5.46
696.04	5.46
696.162	-5.54
696.284	5.46
696.407	0.46
696.529	-11.54
696.651	17.46
696.774	-13.54
696.896	8.46
697.019	1.46
697.141	9.46
697.263	6.46
697.386	-13.54
697.508	-4.54
697.63	16.46
697.753	6.46
697.875	2.46
697.998	-11.54
698.12	2.46
698.242	8.46
698.365	-8.54
698.487	0.46
698.61	11.46
698.732	-0.54
698.854	21.46
698.977	4.46
699.099	8.46
699.221	-13.54
699.344	5.46
699.466	3.46
699.589	-0.54
699.711	-13.54
699.834	-7.54
699.956	6.46
700.078	23.46
700.201	-4.54
700.323	10.46
700.446	-7.54
700.568	-3.54
700.69	0.46
700.813	-2.54
700.935	-3.54
701.058	8.46
701.18	-3.54
701.302	12.46
701.425	-12.54
701.547	1.46
701.67	-11.54
701.792	20.46
701.915	1.46
702.037	3.46
702.159	4.46
702.282	19.46
702.404	-11.54
702.527	17.46
702.649	13.46
702.772	10.46
702.894	-5.54
703.017	22.46
703.139	4.46
703.261	11.46
703.384	9.46
703.506	-11.54
703.629	5.46
703.751	7.46
703.874	4.46
703.996	3.46
704.119	-11.54
704.241	-0.54
704.364	-5.54
704.486	13.46
704.608	-1.54
704.731	-2.54
704.853	11.46
704.976	-1.54
705.098	3.46
705.221	9.46
705.343	-1.54
705.466	6.46
705.588	18.46
705.711	17.46
705.833	6.46
705.956	-12.54
706.078	8.46
706.201	9.46
706.323	11.46
706.446	-4.54
