Data from LowRes_H2_15_26_11_07_2024_HR4C61881__16__15-28-15-237.txt Node

Date: Thu Nov 07 15:28:15 EST 2024
User: crc00042
Spectrometer: HR4C6188
Trigger mode: 4
Integration Time (sec): 1.000000E-1
Scans to average: 1
Electric dark correction enabled: true
Nonlinearity correction enabled: false
Boxcar width: 0
XAxis mode: Wavelengths
Number of Pixels in Spectrum: 3648
>>>>>Begin Spectral Data<<<<<
245.66	-91.77
245.797	-91.77
245.934	-91.77
246.071	-86.77
246.208	20.23
246.344	3.23
246.481	-14.77
246.618	-17.77
246.755	11.23
246.892	-11.77
247.029	-11.77
247.165	-16.77
247.302	20.23
247.439	3.23
247.576	16.23
247.713	-11.77
247.849	24.23
247.986	6.23
248.123	-3.77
248.26	0.23
248.396	10.23
248.533	13.23
248.67	6.23
248.806	17.23
248.943	-2.77
249.08	14.23
249.216	20.23
249.353	-9.77
249.49	10.23
249.626	23.23
249.763	7.23
249.9	-9.77
250.036	6.23
250.173	18.23
250.309	13.23
250.446	15.23
250.582	24.23
250.719	11.23
250.856	-6.77
250.992	1.23
251.129	0.23
251.265	19.23
251.402	15.23
251.538	9.23
251.675	15.23
251.811	30.23
251.948	34.23
252.084	15.23
252.221	3.23
252.357	-1.77
252.493	36.23
252.63	26.23
252.766	30.23
252.903	17.23
253.039	28.23
253.175	14.23
253.312	25.23
253.448	6.23
253.585	-11.77
253.721	24.23
253.857	9.23
253.994	14.23
254.13	18.23
254.266	-9.77
254.403	-5.77
254.539	25.23
254.675	22.23
254.811	24.23
254.948	11.23
255.084	-15.77
255.22	-16.77
255.356	-2.77
255.493	17.23
255.629	21.23
255.765	17.23
255.901	22.23
256.037	12.23
256.174	14.23
256.31	10.23
256.446	-1.77
256.582	24.23
256.718	6.23
256.854	23.23
256.991	33.23
257.127	23.23
257.263	4.23
257.399	13.23
257.535	3.23
257.671	23.23
257.807	0.23
257.943	13.23
258.079	-15.77
258.215	6.23
258.351	35.23
258.487	17.23
258.623	40.23
258.759	-7.77
258.895	4.23
259.031	8.23
259.167	10.23
259.303	25.23
259.439	16.23
259.575	-3.77
259.711	5.23
259.847	3.23
259.983	-3.77
260.119	-10.77
260.255	-4.77
260.391	9.23
260.527	4.23
260.663	41.23
260.799	40.23
260.934	3.23
261.07	-4.77
261.206	-2.77
261.342	1.23
261.478	29.23
261.614	28.23
261.749	16.23
261.885	16.23
262.021	4.23
262.157	34.23
262.293	4.23
262.428	-4.77
262.564	20.23
262.7	15.23
262.836	6.23
262.971	26.23
263.107	23.23
263.243	30.23
263.378	10.23
263.514	-5.77
263.65	12.23
263.785	0.23
263.921	6.23
264.057	12.23
264.192	8.23
264.328	31.23
264.464	6.23
264.599	-4.77
264.735	28.23
264.871	10.23
265.006	6.23
265.142	9.23
265.277	28.23
265.413	34.23
265.548	16.23
265.684	42.23
265.819	9.23
265.955	6.23
266.091	2.23
266.226	18.23
266.362	0.23
266.497	18.23
266.633	6.23
266.768	10.23
266.903	23.23
267.039	11.23
267.174	20.23
267.31	3.23
267.445	8.23
267.581	13.23
267.716	31.23
267.851	18.23
267.987	35.23
268.122	17.23
268.258	9.23
268.393	9.23
268.528	8.23
268.664	-19.77
268.799	-11.77
268.934	9.23
269.07	-0.77
269.205	5.23
269.34	13.23
269.476	23.23
269.611	-11.77
269.746	13.23
269.881	9.23
270.017	24.23
270.152	18.23
270.287	7.23
270.422	12.23
270.558	-1.77
270.693	23.23
270.828	15.23
270.963	-3.77
271.098	-3.77
271.234	-1.77
271.369	34.23
271.504	30.23
271.639	1.23
271.774	16.23
271.909	15.23
272.045	-8.77
272.18	5.23
272.315	-1.77
272.45	12.23
272.585	-3.77
272.72	21.23
272.855	16.23
272.99	27.23
273.125	-9.77
273.26	-6.77
273.395	-16.77
273.53	-2.77
273.665	30.23
273.8	18.23
273.935	10.23
274.07	16.23
274.205	39.23
274.34	7.23
274.475	30.23
274.61	35.23
274.745	-5.77
274.88	25.23
275.015	-0.77
275.15	10.23
275.285	21.23
275.42	19.23
275.555	27.23
275.69	19.23
275.825	5.23
275.959	25.23
276.094	12.23
276.229	7.23
276.364	11.23
276.499	7.23
276.634	9.23
276.768	-3.77
276.903	-3.77
277.038	18.23
277.173	24.23
277.308	13.23
277.442	-6.77
277.577	-2.77
277.712	9.23
277.847	5.23
277.981	-7.77
278.116	-5.77
278.251	25.23
278.386	2.23
278.52	26.23
278.655	28.23
278.79	16.23
278.924	14.23
279.059	13.23
279.194	1.23
279.328	36.23
279.463	18.23
279.598	36.23
279.732	10.23
279.867	15.23
280.001	18.23
280.136	7.23
280.271	16.23
280.405	16.23
280.54	17.23
280.674	-7.77
280.809	35.23
280.943	14.23
281.078	8.23
281.213	9.23
281.347	14.23
281.482	9.23
281.616	8.23
281.751	2.23
281.885	-26.77
282.02	4.23
282.154	32.23
282.288	1.23
282.423	16.23
282.557	1.23
282.692	19.23
282.826	5.23
282.961	10.23
283.095	6.23
283.229	3.23
283.364	-7.77
283.498	3.23
283.633	17.23
283.767	8.23
283.901	-0.77
284.036	17.23
284.17	6.23
284.304	5.23
284.439	-2.77
284.573	10.23
284.707	33.23
284.842	16.23
284.976	4.23
285.11	-11.77
285.244	0.23
285.379	69.23
285.513	-1.77
285.647	19.23
285.781	9.23
285.916	8.23
286.05	-6.77
286.184	33.23
286.318	22.23
286.453	9.23
286.587	10.23
286.721	5.23
286.855	22.23
286.989	14.23
287.123	-12.77
287.258	-13.77
287.392	6.23
287.526	18.23
287.66	10.23
287.794	7.23
287.928	9.23
288.062	1.23
288.196	-2.77
288.33	22.23
288.464	21.23
288.598	22.23
288.733	11.23
288.867	10.23
289.001	12.23
289.135	6.23
289.269	2.23
289.403	3.23
289.537	4.23
289.671	-2.77
289.805	-15.77
289.939	9.23
290.073	19.23
290.207	28.23
290.34	14.23
290.474	32.23
290.608	7.23
290.742	2.23
290.876	5.23
291.01	12.23
291.144	22.23
291.278	17.23
291.412	14.23
291.546	15.23
291.679	-2.77
291.813	25.23
291.947	-4.77
292.081	4.23
292.215	9.23
292.349	13.23
292.482	15.23
292.616	-6.77
292.75	2.23
292.884	17.23
293.018	10.23
293.151	-9.77
293.285	27.23
293.419	-3.77
293.553	-7.77
293.686	2.23
293.82	6.23
293.954	26.23
294.088	35.23
294.221	-6.77
294.355	-11.77
294.489	7.23
294.622	11.23
294.756	5.23
294.89	-0.77
295.023	29.23
295.157	9.23
295.291	21.23
295.424	21.23
295.558	15.23
295.691	5.23
295.825	10.23
295.959	13.23
296.092	2.23
296.226	8.23
296.359	22.23
296.493	16.23
296.627	20.23
296.76	0.23
296.894	-5.77
297.027	11.23
297.161	-9.77
297.294	-12.77
297.428	17.23
297.561	50.23
297.695	11.23
297.828	10.23
297.962	12.23
298.095	20.23
298.229	20.23
298.362	-9.77
298.495	-14.77
298.629	-12.77
298.762	8.23
298.896	21.23
299.029	3.23
299.162	-1.77
299.296	2.23
299.429	-5.77
299.563	14.23
299.696	24.23
299.829	11.23
299.963	10.23
300.096	13.23
300.229	30.23
300.363	0.23
300.496	2.23
300.629	-14.77
300.763	-15.77
300.896	11.23
301.029	12.23
301.162	11.23
301.296	3.23
301.429	23.23
301.562	-2.77
301.695	29.23
301.829	7.23
301.962	20.23
302.095	13.23
302.228	-9.77
302.362	14.23
302.495	-10.77
302.628	-0.77
302.761	23.23
302.894	22.23
303.027	28.23
303.161	16.23
303.294	2.23
303.427	-7.77
303.56	3.23
303.693	-5.77
303.826	17.23
303.959	4.23
304.092	11.23
304.225	-4.77
304.359	16.23
304.492	15.23
304.625	6.23
304.758	16.23
304.891	-6.77
305.024	5.23
305.157	4.23
305.29	-12.77
305.423	-0.77
305.556	20.23
305.689	34.23
305.822	5.23
305.955	15.23
306.088	-8.77
306.221	20.23
306.354	-11.77
306.487	-3.77
306.62	-2.77
306.752	-0.77
306.885	14.23
307.018	-1.77
307.151	17.23
307.284	19.23
307.417	-1.77
307.55	17.23
307.683	-3.77
307.816	33.23
307.948	14.23
308.081	23.23
308.214	14.23
308.347	14.23
308.48	17.23
308.613	13.23
308.745	26.23
308.878	21.23
309.011	20.23
309.144	25.23
309.277	-4.77
309.409	4.23
309.542	10.23
309.675	14.23
309.808	18.23
309.94	29.23
310.073	-10.77
310.206	-18.77
310.339	15.23
310.471	-6.77
310.604	13.23
310.737	2.23
310.869	4.23
311.002	10.23
311.135	-7.77
311.267	-6.77
311.4	-0.77
311.533	12.23
311.665	6.23
311.798	19.23
311.93	-0.77
312.063	15.23
312.196	6.23
312.328	12.23
312.461	2.23
312.593	16.23
312.726	26.23
312.859	0.23
312.991	6.23
313.124	-9.77
313.256	6.23
313.389	8.23
313.521	2.23
313.654	16.23
313.786	-7.77
313.919	1.23
314.051	1.23
314.184	12.23
314.316	11.23
314.449	-0.77
314.581	14.23
314.714	5.23
314.846	13.23
314.978	-2.77
315.111	4.23
315.243	11.23
315.376	10.23
315.508	9.23
315.641	14.23
315.773	28.23
315.905	18.23
316.038	9.23
316.17	10.23
316.302	15.23
316.435	-5.77
316.567	2.23
316.699	30.23
316.832	6.23
316.964	-11.77
317.096	15.23
317.229	5.23
317.361	-13.77
317.493	4.23
317.625	2.23
317.758	4.23
317.89	20.23
318.022	-3.77
318.155	-0.77
318.287	5.23
318.419	2.23
318.551	24.23
318.683	10.23
318.816	-12.77
318.948	-5.77
319.08	4.23
319.212	14.23
319.344	6.23
319.477	14.23
319.609	21.23
319.741	8.23
319.873	2.23
320.005	16.23
320.137	12.23
320.269	13.23
320.401	5.23
320.534	8.23
320.666	-3.77
320.798	-9.77
320.93	3.23
321.062	8.23
321.194	9.23
321.326	11.23
321.458	17.23
321.59	14.23
321.722	-0.77
321.854	12.23
321.986	19.23
322.118	12.23
322.25	-18.77
322.382	13.23
322.514	-0.77
322.646	-5.77
322.778	20.23
322.91	5.23
323.042	7.23
323.174	18.23
323.306	1.23
323.438	-12.77
323.57	14.23
323.702	8.23
323.834	2.23
323.966	-14.77
324.097	-5.77
324.229	14.23
324.361	10.23
324.493	1.23
324.625	-2.77
324.757	19.23
324.889	-0.77
325.021	3.23
325.152	47.23
325.284	41.23
325.416	7.23
325.548	19.23
325.68	15.23
325.811	36.23
325.943	24.23
326.075	2.23
326.207	12.23
326.339	29.23
326.47	-3.77
326.602	26.23
326.734	22.23
326.866	31.23
326.997	4.23
327.129	0.23
327.261	-15.77
327.392	2.23
327.524	-2.77
327.656	4.23
327.787	19.23
327.919	33.23
328.051	17.23
328.182	49.23
328.314	34.23
328.446	-0.77
328.577	16.23
328.709	5.23
328.841	-7.77
328.972	-10.77
329.104	-15.77
329.235	-11.77
329.367	-10.77
329.499	4.23
329.63	4.23
329.762	16.23
329.893	20.23
330.025	-4.77
330.156	-9.77
330.288	10.23
330.419	5.23
330.551	24.23
330.683	8.23
330.814	4.23
330.946	31.23
331.077	1.23
331.208	-11.77
331.34	8.23
331.471	-11.77
331.603	20.23
331.734	-2.77
331.866	15.23
331.997	11.23
332.129	18.23
332.26	17.23
332.392	13.23
332.523	-10.77
332.654	-18.77
332.786	-4.77
332.917	-6.77
333.048	16.23
333.18	34.23
333.311	13.23
333.443	9.23
333.574	4.23
333.705	21.23
333.837	6.23
333.968	21.23
334.099	28.23
334.231	22.23
334.362	10.23
334.493	12.23
334.624	28.23
334.756	23.23
334.887	39.23
335.018	-7.77
335.15	27.23
335.281	8.23
335.412	25.23
335.543	2.23
335.675	8.23
335.806	21.23
335.937	5.23
336.068	1.23
336.199	34.23
336.331	5.23
336.462	-20.77
336.593	15.23
336.724	-12.77
336.855	25.23
336.986	38.23
337.118	38.23
337.249	25.23
337.38	20.23
337.511	8.23
337.642	17.23
337.773	1.23
337.904	26.23
338.035	22.23
338.166	8.23
338.298	8.23
338.429	12.23
338.56	15.23
338.691	23.23
338.822	15.23
338.953	30.23
339.084	24.23
339.215	15.23
339.346	19.23
339.477	11.23
339.608	10.23
339.739	13.23
339.87	10.23
340.001	13.23
340.132	18.23
340.263	-4.77
340.394	26.23
340.525	21.23
340.656	5.23
340.787	5.23
340.918	13.23
341.049	11.23
341.179	9.23
341.31	23.23
341.441	31.23
341.572	19.23
341.703	21.23
341.834	3.23
341.965	18.23
342.096	8.23
342.227	-1.77
342.357	27.23
342.488	11.23
342.619	25.23
342.75	29.23
342.881	5.23
343.012	21.23
343.142	33.23
343.273	17.23
343.404	34.23
343.535	35.23
343.666	15.23
343.796	21.23
343.927	27.23
344.058	28.23
344.189	37.23
344.319	32.23
344.45	17.23
344.581	16.23
344.712	-16.77
344.842	25.23
344.973	-1.77
345.104	11.23
345.234	14.23
345.365	-3.77
345.496	17.23
345.626	31.23
345.757	28.23
345.888	5.23
346.018	26.23
346.149	11.23
346.28	36.23
346.41	4.23
346.541	27.23
346.672	6.23
346.802	26.23
346.933	18.23
347.063	5.23
347.194	2.23
347.325	18.23
347.455	22.23
347.586	2.23
347.716	-2.77
347.847	17.23
347.977	16.23
348.108	30.23
348.238	18.23
348.369	-6.77
348.499	8.23
348.63	19.23
348.76	21.23
348.891	21.23
349.021	18.23
349.152	8.23
349.282	16.23
349.413	11.23
349.543	35.23
349.674	15.23
349.804	19.23
349.935	12.23
350.065	30.23
350.196	11.23
350.326	-5.77
350.456	-4.77
350.587	33.23
350.717	18.23
350.848	25.23
350.978	19.23
351.108	-1.77
351.239	20.23
351.369	-1.77
351.499	-5.77
351.63	4.23
351.76	6.23
351.89	17.23
352.021	26.23
352.151	12.23
352.281	30.23
352.412	3.23
352.542	16.23
352.672	4.23
352.803	14.23
352.933	0.23
353.063	13.23
353.193	22.23
353.324	9.23
353.454	20.23
353.584	16.23
353.714	30.23
353.845	19.23
353.975	0.23
354.105	-2.77
354.235	7.23
354.365	5.23
354.496	11.23
354.626	15.23
354.756	14.23
354.886	9.23
355.016	15.23
355.146	20.23
355.277	22.23
355.407	1.23
355.537	3.23
355.667	8.23
355.797	18.23
355.927	-1.77
356.057	2.23
356.187	-6.77
356.318	4.23
356.448	6.23
356.578	37.23
356.708	32.23
356.838	24.23
356.968	-0.77
357.098	1.23
357.228	15.23
357.358	-3.77
357.488	18.23
357.618	29.23
357.748	26.23
357.878	3.23
358.008	5.23
358.138	0.23
358.268	11.23
358.398	63.23
358.528	11.23
358.658	18.23
358.788	8.23
358.918	16.23
359.048	-0.77
359.178	28.23
359.308	17.23
359.438	22.23
359.568	30.23
359.698	20.23
359.827	10.23
359.957	11.23
360.087	15.23
360.217	-0.77
360.347	30.23
360.477	33.23
360.607	10.23
360.737	14.23
360.866	8.23
360.996	-0.77
361.126	-9.77
361.256	28.23
361.386	17.23
361.516	35.23
361.645	9.23
361.775	18.23
361.905	-6.77
362.035	4.23
362.165	3.23
362.294	18.23
362.424	17.23
362.554	8.23
362.684	-6.77
362.813	0.23
362.943	35.23
363.073	19.23
363.203	13.23
363.332	15.23
363.462	3.23
363.592	4.23
363.721	13.23
363.851	14.23
363.981	15.23
364.111	18.23
364.24	-6.77
364.37	16.23
364.5	41.23
364.629	38.23
364.759	-2.77
364.888	-5.77
365.018	9.23
365.148	3.23
365.277	4.23
365.407	25.23
365.537	20.23
365.666	22.23
365.796	28.23
365.925	13.23
366.055	19.23
366.184	16.23
366.314	19.23
366.444	27.23
366.573	24.23
366.703	15.23
366.832	7.23
366.962	24.23
367.091	35.23
367.221	20.23
367.35	17.23
367.48	45.23
367.609	14.23
367.739	20.23
367.868	-2.77
367.998	19.23
368.127	40.23
368.257	33.23
368.386	45.23
368.516	19.23
368.645	14.23
368.775	30.23
368.904	1.23
369.033	15.23
369.163	0.23
369.292	8.23
369.422	19.23
369.551	22.23
369.68	17.23
369.81	10.23
369.939	4.23
370.069	21.23
370.198	16.23
370.327	6.23
370.457	17.23
370.586	15.23
370.715	-2.77
370.845	9.23
370.974	17.23
371.103	31.23
371.233	33.23
371.362	20.23
371.491	16.23
371.621	32.23
371.75	9.23
371.879	3.23
372.008	13.23
372.138	15.23
372.267	26.23
372.396	25.23
372.525	9.23
372.655	4.23
372.784	8.23
372.913	12.23
373.042	11.23
373.172	32.23
373.301	10.23
373.43	9.23
373.559	3.23
373.688	25.23
373.818	29.23
373.947	29.23
374.076	8.23
374.205	17.23
374.334	-0.77
374.463	10.23
374.593	29.23
374.722	12.23
374.851	29.23
374.98	3.23
375.109	16.23
375.238	15.23
375.367	22.23
375.496	-9.77
375.625	2.23
375.755	24.23
375.884	37.23
376.013	36.23
376.142	-0.77
376.271	10.23
376.4	14.23
376.529	22.23
376.658	16.23
376.787	14.23
376.916	18.23
377.045	2.23
377.174	0.23
377.303	18.23
377.432	35.23
377.561	28.23
377.69	5.23
377.819	32.23
377.948	2.23
378.077	22.23
378.206	6.23
378.335	4.23
378.464	14.23
378.593	34.23
378.722	13.23
378.851	15.23
378.98	27.23
379.108	0.23
379.237	-4.77
379.366	17.23
379.495	24.23
379.624	11.23
379.753	28.23
379.882	6.23
380.011	-2.77
380.14	21.23
380.268	26.23
380.397	3.23
380.526	32.23
380.655	21.23
380.784	4.23
380.913	13.23
381.041	33.23
381.17	1.23
381.299	7.23
381.428	28.23
381.557	4.23
381.685	7.23
381.814	12.23
381.943	-12.77
382.072	8.23
382.2	5.23
382.329	13.23
382.458	8.23
382.587	28.23
382.715	20.23
382.844	28.23
382.973	12.23
383.102	31.23
383.23	10.23
383.359	-2.77
383.488	20.23
383.616	8.23
383.745	0.23
383.874	18.23
384.003	7.23
384.131	-5.77
384.26	9.23
384.389	6.23
384.517	1.23
384.646	-15.77
384.774	8.23
384.903	26.23
385.032	41.23
385.16	38.23
385.289	12.23
385.418	19.23
385.546	3.23
385.675	21.23
385.803	1.23
385.932	19.23
386.06	0.23
386.189	35.23
386.318	16.23
386.446	5.23
386.575	26.23
386.703	22.23
386.832	1.23
386.96	-0.77
387.089	32.23
387.217	17.23
387.346	8.23
387.474	7.23
387.603	29.23
387.731	5.23
387.86	23.23
387.988	18.23
388.117	11.23
388.245	-15.77
388.374	-6.77
388.502	26.23
388.631	11.23
388.759	10.23
388.888	37.23
389.016	14.23
389.144	15.23
389.273	-2.77
389.401	3.23
389.53	5.23
389.658	29.23
389.786	2.23
389.915	1.23
390.043	13.23
390.172	40.23
390.3	31.23
390.428	14.23
390.557	9.23
390.685	21.23
390.813	15.23
390.942	32.23
391.07	6.23
391.198	2.23
391.327	2.23
391.455	11.23
391.583	41.23
391.712	14.23
391.84	25.23
391.968	-7.77
392.096	0.23
392.225	17.23
392.353	18.23
392.481	15.23
392.609	25.23
392.738	29.23
392.866	7.23
392.994	-3.77
393.122	40.23
393.251	23.23
393.379	4.23
393.507	-2.77
393.635	9.23
393.764	14.23
393.892	19.23
394.02	0.23
394.148	-7.77
394.276	11.23
394.404	41.23
394.533	16.23
394.661	-2.77
394.789	23.23
394.917	42.23
395.045	18.23
395.173	-2.77
395.302	1.23
395.43	-4.77
395.558	28.23
395.686	23.23
395.814	15.23
395.942	7.23
396.07	11.23
396.198	13.23
396.326	33.23
396.454	45.23
396.582	18.23
396.711	28.23
396.839	14.23
396.967	23.23
397.095	10.23
397.223	16.23
397.351	45.23
397.479	35.23
397.607	17.23
397.735	18.23
397.863	32.23
397.991	3.23
398.119	25.23
398.247	15.23
398.375	8.23
398.503	5.23
398.631	23.23
398.759	7.23
398.887	6.23
399.015	9.23
399.143	-2.77
399.271	5.23
399.399	18.23
399.526	22.23
399.654	17.23
399.782	-12.77
399.91	21.23
400.038	36.23
400.166	23.23
400.294	18.23
400.422	7.23
400.55	17.23
400.678	17.23
400.805	19.23
400.933	34.23
401.061	29.23
401.189	-1.77
401.317	13.23
401.445	30.23
401.573	31.23
401.7	23.23
401.828	1.23
401.956	9.23
402.084	17.23
402.212	17.23
402.34	7.23
402.467	37.23
402.595	34.23
402.723	13.23
402.851	33.23
402.978	18.23
403.106	22.23
403.234	18.23
403.362	30.23
403.489	18.23
403.617	30.23
403.745	23.23
403.873	11.23
404	29.23
404.128	9.23
404.256	21.23
404.384	15.23
404.511	16.23
404.639	5.23
404.767	10.23
404.894	27.23
405.022	21.23
405.15	22.23
405.277	5.23
405.405	-2.77
405.533	10.23
405.66	16.23
405.788	4.23
405.916	0.23
406.043	4.23
406.171	8.23
406.299	19.23
406.426	24.23
406.554	25.23
406.681	22.23
406.809	19.23
406.937	23.23
407.064	6.23
407.192	34.23
407.319	22.23
407.447	6.23
407.574	28.23
407.702	6.23
407.83	9.23
407.957	1.23
408.085	26.23
408.212	14.23
408.34	3.23
408.467	19.23
408.595	29.23
408.722	28.23
408.85	36.23
408.977	5.23
409.105	5.23
409.232	13.23
409.36	14.23
409.487	11.23
409.615	18.23
409.742	32.23
409.87	34.23
409.997	35.23
410.125	25.23
410.252	63.23
410.379	52.23
410.507	38.23
410.634	14.23
410.762	17.23
410.889	17.23
411.017	28.23
411.144	21.23
411.271	3.23
411.399	5.23
411.526	31.23
411.653	23.23
411.781	6.23
411.908	18.23
412.036	15.23
412.163	31.23
412.29	25.23
412.418	10.23
412.545	20.23
412.672	2.23
412.8	26.23
412.927	13.23
413.054	21.23
413.182	26.23
413.309	-2.77
413.436	18.23
413.564	4.23
413.691	15.23
413.818	46.23
413.945	2.23
414.073	24.23
414.2	19.23
414.327	16.23
414.454	14.23
414.582	1.23
414.709	4.23
414.836	22.23
414.963	8.23
415.091	25.23
415.218	22.23
415.345	7.23
415.472	19.23
415.6	-0.77
415.727	6.23
415.854	22.23
415.981	10.23
416.108	9.23
416.236	11.23
416.363	21.23
416.49	15.23
416.617	15.23
416.744	37.23
416.871	22.23
416.998	19.23
417.126	4.23
417.253	14.23
417.38	13.23
417.507	27.23
417.634	14.23
417.761	34.23
417.888	14.23
418.015	8.23
418.143	8.23
418.27	41.23
418.397	12.23
418.524	5.23
418.651	7.23
418.778	20.23
418.905	43.23
419.032	35.23
419.159	8.23
419.286	25.23
419.413	27.23
419.54	26.23
419.667	11.23
419.794	17.23
419.921	26.23
420.048	23.23
420.175	20.23
420.302	0.23
420.429	18.23
420.556	12.23
420.683	3.23
420.81	-6.77
420.937	21.23
421.064	23.23
421.191	19.23
421.318	11.23
421.445	41.23
421.572	15.23
421.699	32.23
421.826	23.23
421.953	2.23
422.08	16.23
422.207	1.23
422.334	11.23
422.461	13.23
422.588	11.23
422.714	26.23
422.841	26.23
422.968	16.23
423.095	13.23
423.222	-0.77
423.349	26.23
423.476	16.23
423.603	20.23
423.729	-3.77
423.856	15.23
423.983	43.23
424.11	1.23
424.237	17.23
424.364	20.23
424.491	22.23
424.617	-10.77
424.744	4.23
424.871	11.23
424.998	4.23
425.125	17.23
425.251	12.23
425.378	2.23
425.505	34.23
425.632	24.23
425.758	26.23
425.885	17.23
426.012	30.23
426.139	31.23
426.266	17.23
426.392	26.23
426.519	28.23
426.646	19.23
426.772	16.23
426.899	3.23
427.026	24.23
427.153	16.23
427.279	44.23
427.406	33.23
427.533	5.23
427.659	25.23
427.786	9.23
427.913	44.23
428.039	12.23
428.166	17.23
428.293	11.23
428.419	37.23
428.546	24.23
428.673	2.23
428.799	0.23
428.926	6.23
429.053	35.23
429.179	23.23
429.306	16.23
429.433	22.23
429.559	26.23
429.686	8.23
429.812	6.23
429.939	4.23
430.066	10.23
430.192	4.23
430.319	24.23
430.445	-1.77
430.572	5.23
430.699	-0.77
430.825	11.23
430.952	10.23
431.078	6.23
431.205	16.23
431.331	9.23
431.458	24.23
431.584	18.23
431.711	8.23
431.837	25.23
431.964	6.23
432.09	17.23
432.217	-15.77
432.343	9.23
432.47	21.23
432.596	19.23
432.723	-1.77
432.849	2.23
432.976	19.23
433.102	27.23
433.229	32.23
433.355	52.23
433.482	77.23
433.608	138.23
433.735	142.23
433.861	132.23
433.987	165.23
434.114	226.23
434.24	216.23
434.367	75.23
434.493	18.23
434.62	28.23
434.746	32.23
434.872	24.23
434.999	7.23
435.125	16.23
435.252	17.23
435.378	36.23
435.504	12.23
435.631	21.23
435.757	23.23
435.883	15.23
436.01	15.23
436.136	13.23
436.262	20.23
436.389	14.23
436.515	31.23
436.641	24.23
436.768	29.23
436.894	26.23
437.02	35.23
437.147	35.23
437.273	5.23
437.399	15.23
437.526	39.23
437.652	9.23
437.778	22.23
437.904	-7.77
438.031	13.23
438.157	25.23
438.283	17.23
438.409	24.23
438.536	8.23
438.662	38.23
438.788	26.23
438.914	22.23
439.041	17.23
439.167	62.23
439.293	17.23
439.419	18.23
439.546	31.23
439.672	12.23
439.798	30.23
439.924	12.23
440.05	46.23
440.177	30.23
440.303	13.23
440.429	10.23
440.555	12.23
440.681	16.23
440.807	48.23
440.934	34.23
441.06	24.23
441.186	16.23
441.312	-2.77
441.438	17.23
441.564	29.23
441.69	36.23
441.816	30.23
441.943	15.23
442.069	28.23
442.195	29.23
442.321	43.23
442.447	1.23
442.573	5.23
442.699	8.23
442.825	16.23
442.951	14.23
443.077	25.23
443.203	33.23
443.33	25.23
443.456	-17.77
443.582	20.23
443.708	1.23
443.834	24.23
443.96	46.23
444.086	16.23
444.212	24.23
444.338	30.23
444.464	24.23
444.59	26.23
444.716	23.23
444.842	28.23
444.968	9.23
445.094	18.23
445.22	16.23
445.346	-3.77
445.472	18.23
445.598	28.23
445.724	4.23
445.85	14.23
445.976	12.23
446.102	25.23
446.228	35.23
446.354	20.23
446.48	19.23
446.605	18.23
446.731	21.23
446.857	17.23
446.983	22.23
447.109	17.23
447.235	20.23
447.361	0.23
447.487	14.23
447.613	26.23
447.739	10.23
447.865	18.23
447.99	9.23
448.116	12.23
448.242	32.23
448.368	8.23
448.494	1.23
448.62	28.23
448.746	20.23
448.872	29.23
448.997	6.23
449.123	8.23
449.249	28.23
449.375	30.23
449.501	8.23
449.627	16.23
449.752	45.23
449.878	4.23
450.004	21.23
450.13	28.23
450.256	11.23
450.381	23.23
450.507	5.23
450.633	22.23
450.759	27.23
450.884	14.23
451.01	24.23
451.136	9.23
451.262	23.23
451.388	19.23
451.513	2.23
451.639	18.23
451.765	16.23
451.89	15.23
452.016	2.23
452.142	6.23
452.268	14.23
452.393	14.23
452.519	18.23
452.645	38.23
452.771	13.23
452.896	5.23
453.022	15.23
453.148	38.23
453.273	10.23
453.399	15.23
453.525	5.23
453.65	30.23
453.776	22.23
453.902	24.23
454.027	48.23
454.153	32.23
454.279	27.23
454.404	0.23
454.53	40.23
454.656	33.23
454.781	7.23
454.907	28.23
455.032	19.23
455.158	36.23
455.284	41.23
455.409	21.23
455.535	29.23
455.66	17.23
455.786	29.23
455.912	31.23
456.037	3.23
456.163	29.23
456.288	36.23
456.414	9.23
456.539	-0.77
456.665	33.23
456.791	15.23
456.916	25.23
457.042	12.23
457.167	32.23
457.293	12.23
457.418	16.23
457.544	4.23
457.669	16.23
457.795	33.23
457.92	26.23
458.046	29.23
458.171	41.23
458.297	9.23
458.422	28.23
458.548	23.23
458.673	30.23
458.799	34.23
458.924	2.23
459.05	25.23
459.175	22.23
459.301	14.23
459.426	42.23
459.552	20.23
459.677	16.23
459.803	48.23
459.928	14.23
460.053	45.23
460.179	29.23
460.304	37.23
460.43	11.23
460.555	4.23
460.681	18.23
460.806	5.23
460.931	20.23
461.057	29.23
461.182	11.23
461.308	20.23
461.433	19.23
461.558	34.23
461.684	31.23
461.809	48.23
461.934	34.23
462.06	18.23
462.185	3.23
462.311	0.23
462.436	25.23
462.561	7.23
462.687	0.23
462.812	27.23
462.937	22.23
463.063	5.23
463.188	18.23
463.313	24.23
463.439	14.23
463.564	8.23
463.689	28.23
463.814	42.23
463.94	13.23
464.065	36.23
464.19	44.23
464.316	23.23
464.441	6.23
464.566	4.23
464.692	15.23
464.817	31.23
464.942	19.23
465.067	14.23
465.193	-7.77
465.318	0.23
465.443	16.23
465.568	28.23
465.694	14.23
465.819	36.23
465.944	27.23
466.069	8.23
466.194	34.23
466.32	29.23
466.445	18.23
466.57	16.23
466.695	3.23
466.82	30.23
466.946	40.23
467.071	13.23
467.196	-11.77
467.321	23.23
467.446	-2.77
467.572	31.23
467.697	13.23
467.822	21.23
467.947	25.23
468.072	7.23
468.197	-6.77
468.323	1.23
468.448	4.23
468.573	14.23
468.698	9.23
468.823	30.23
468.948	32.23
469.073	36.23
469.198	31.23
469.324	21.23
469.449	18.23
469.574	38.23
469.699	27.23
469.824	36.23
469.949	4.23
470.074	21.23
470.199	44.23
470.324	28.23
470.449	48.23
470.574	32.23
470.7	30.23
470.825	42.23
470.95	67.23
471.075	18.23
471.2	14.23
471.325	23.23
471.45	20.23
471.575	0.23
471.7	23.23
471.825	17.23
471.95	20.23
472.075	14.23
472.2	20.23
472.325	15.23
472.45	24.23
472.575	12.23
472.7	20.23
472.825	44.23
472.95	37.23
473.075	30.23
473.2	16.23
473.325	33.23
473.45	16.23
473.575	3.23
473.7	27.23
473.825	15.23
473.95	20.23
474.075	32.23
474.2	12.23
474.325	10.23
474.45	36.23
474.574	31.23
474.699	30.23
474.824	23.23
474.949	-7.77
475.074	11.23
475.199	49.23
475.324	38.23
475.449	17.23
475.574	25.23
475.699	41.23
475.824	28.23
475.949	33.23
476.073	4.23
476.198	17.23
476.323	6.23
476.448	36.23
476.573	18.23
476.698	36.23
476.823	27.23
476.947	40.23
477.072	2.23
477.197	21.23
477.322	18.23
477.447	12.23
477.572	26.23
477.697	40.23
477.821	24.23
477.946	34.23
478.071	44.23
478.196	50.23
478.321	30.23
478.445	22.23
478.57	17.23
478.695	26.23
478.82	11.23
478.945	19.23
479.069	0.23
479.194	25.23
479.319	33.23
479.444	43.23
479.569	19.23
479.693	31.23
479.818	26.23
479.943	32.23
480.068	31.23
480.192	29.23
480.317	23.23
480.442	23.23
480.567	14.23
480.691	21.23
480.816	13.23
480.941	1.23
481.066	28.23
481.19	47.23
481.315	31.23
481.44	23.23
481.564	2.23
481.689	19.23
481.814	17.23
481.938	23.23
482.063	12.23
482.188	7.23
482.313	38.23
482.437	23.23
482.562	38.23
482.687	57.23
482.811	35.23
482.936	30.23
483.061	16.23
483.185	23.23
483.31	41.23
483.435	38.23
483.559	6.23
483.684	9.23
483.808	38.23
483.933	21.23
484.058	25.23
484.182	38.23
484.307	28.23
484.432	29.23
484.556	20.23
484.681	8.23
484.805	47.23
484.93	51.23
485.055	31.23
485.179	85.23
485.304	118.23
485.428	353.23
485.553	1215.23
485.678	1738.23
485.802	1632.23
485.927	1836.23
486.051	2632.23
486.176	1626.23
486.3	444.23
486.425	163.23
486.549	105.23
486.674	72.23
486.799	55.23
486.923	45.23
487.048	26.23
487.172	34.23
487.297	41.23
487.421	39.23
487.546	27.23
487.67	36.23
487.795	22.23
487.919	32.23
488.044	38.23
488.168	34.23
488.293	28.23
488.417	32.23
488.542	26.23
488.666	41.23
488.791	40.23
488.915	23.23
489.04	32.23
489.164	32.23
489.289	27.23
489.413	9.23
489.538	25.23
489.662	33.23
489.786	21.23
489.911	39.23
490.035	23.23
490.16	10.23
490.284	11.23
490.409	8.23
490.533	39.23
490.658	49.23
490.782	20.23
490.906	29.23
491.031	28.23
491.155	24.23
491.28	29.23
491.404	25.23
491.528	36.23
491.653	11.23
491.777	36.23
491.902	8.23
492.026	14.23
492.15	9.23
492.275	35.23
492.399	28.23
492.524	20.23
492.648	46.23
492.772	32.23
492.897	31.23
493.021	28.23
493.145	44.23
493.27	22.23
493.394	11.23
493.518	-4.77
493.643	21.23
493.767	37.23
493.891	16.23
494.016	28.23
494.14	-1.77
494.264	21.23
494.389	38.23
494.513	11.23
494.637	14.23
494.762	30.23
494.886	43.23
495.01	37.23
495.134	38.23
495.259	30.23
495.383	28.23
495.507	27.23
495.632	52.23
495.756	63.23
495.88	43.23
496.004	26.23
496.129	14.23
496.253	36.23
496.377	22.23
496.501	62.23
496.626	22.23
496.75	23.23
496.874	36.23
496.998	23.23
497.123	45.23
497.247	11.23
497.371	21.23
497.495	44.23
497.62	14.23
497.744	15.23
497.868	13.23
497.992	18.23
498.116	14.23
498.241	29.23
498.365	10.23
498.489	8.23
498.613	35.23
498.737	17.23
498.862	20.23
498.986	16.23
499.11	34.23
499.234	31.23
499.358	14.23
499.482	6.23
499.607	22.23
499.731	31.23
499.855	29.23
499.979	30.23
500.103	34.23
500.227	32.23
500.351	21.23
500.476	20.23
500.6	6.23
500.724	31.23
500.848	13.23
500.972	38.23
501.096	23.23
501.22	46.23
501.344	12.23
501.469	37.23
501.593	16.23
501.717	22.23
501.841	23.23
501.965	25.23
502.089	21.23
502.213	37.23
502.337	13.23
502.461	18.23
502.585	15.23
502.709	29.23
502.834	34.23
502.958	14.23
503.082	29.23
503.206	26.23
503.33	49.23
503.454	35.23
503.578	25.23
503.702	29.23
503.826	19.23
503.95	26.23
504.074	18.23
504.198	27.23
504.322	10.23
504.446	16.23
504.57	28.23
504.694	16.23
504.818	33.23
504.942	33.23
505.066	18.23
505.19	27.23
505.314	28.23
505.438	17.23
505.562	30.23
505.686	34.23
505.81	28.23
505.934	26.23
506.058	19.23
506.182	29.23
506.306	34.23
506.43	28.23
506.554	13.23
506.678	6.23
506.802	4.23
506.926	35.23
507.05	16.23
507.174	44.23
507.298	37.23
507.422	20.23
507.546	15.23
507.67	18.23
507.794	-2.77
507.918	16.23
508.042	23.23
508.165	27.23
508.289	4.23
508.413	8.23
508.537	11.23
508.661	20.23
508.785	24.23
508.909	12.23
509.033	35.23
509.157	22.23
509.281	10.23
509.405	5.23
509.528	34.23
509.652	33.23
509.776	10.23
509.9	33.23
510.024	24.23
510.148	24.23
510.272	30.23
510.396	35.23
510.519	4.23
510.643	20.23
510.767	7.23
510.891	36.23
511.015	11.23
511.139	23.23
511.263	35.23
511.386	18.23
511.51	3.23
511.634	7.23
511.758	20.23
511.882	19.23
512.006	22.23
512.129	29.23
512.253	49.23
512.377	22.23
512.501	23.23
512.625	29.23
512.748	12.23
512.872	6.23
512.996	20.23
513.12	35.23
513.244	17.23
513.367	34.23
513.491	18.23
513.615	13.23
513.739	16.23
513.862	32.23
513.986	18.23
514.11	24.23
514.234	16.23
514.358	29.23
514.481	54.23
514.605	18.23
514.729	35.23
514.853	45.23
514.976	13.23
515.1	21.23
515.224	34.23
515.348	15.23
515.471	18.23
515.595	7.23
515.719	6.23
515.842	26.23
515.966	20.23
516.09	31.23
516.214	11.23
516.337	24.23
516.461	14.23
516.585	29.23
516.708	32.23
516.832	10.23
516.956	20.23
517.08	17.23
517.203	10.23
517.327	24.23
517.451	40.23
517.574	43.23
517.698	18.23
517.822	49.23
517.945	32.23
518.069	54.23
518.193	66.23
518.316	49.23
518.44	40.23
518.564	27.23
518.687	21.23
518.811	21.23
518.935	62.23
519.058	42.23
519.182	33.23
519.306	57.23
519.429	18.23
519.553	74.23
519.676	20.23
519.8	14.23
519.924	15.23
520.047	23.23
520.171	29.23
520.294	37.23
520.418	30.23
520.542	9.23
520.665	35.23
520.789	34.23
520.913	-0.77
521.036	13.23
521.16	8.23
521.283	35.23
521.407	15.23
521.53	30.23
521.654	12.23
521.778	33.23
521.901	31.23
522.025	30.23
522.148	1.23
522.272	27.23
522.395	20.23
522.519	22.23
522.643	29.23
522.766	22.23
522.89	21.23
523.013	46.23
523.137	17.23
523.26	2.23
523.384	19.23
523.507	15.23
523.631	30.23
523.754	18.23
523.878	32.23
524.002	25.23
524.125	14.23
524.249	2.23
524.372	13.23
524.496	8.23
524.619	20.23
524.743	11.23
524.866	15.23
524.99	24.23
525.113	8.23
525.237	9.23
525.36	20.23
525.484	38.23
525.607	0.23
525.731	5.23
525.854	13.23
525.978	43.23
526.101	17.23
526.224	13.23
526.348	21.23
526.471	18.23
526.595	31.23
526.718	22.23
526.842	27.23
526.965	41.23
527.089	25.23
527.212	21.23
527.336	11.23
527.459	36.23
527.582	12.23
527.706	20.23
527.829	17.23
527.953	18.23
528.076	6.23
528.2	9.23
528.323	22.23
528.446	23.23
528.57	8.23
528.693	23.23
528.817	30.23
528.94	30.23
529.064	58.23
529.187	25.23
529.31	5.23
529.434	8.23
529.557	24.23
529.68	24.23
529.804	20.23
529.927	12.23
530.051	24.23
530.174	28.23
530.297	25.23
530.421	36.23
530.544	48.23
530.668	15.23
530.791	-0.77
530.914	45.23
531.038	14.23
531.161	6.23
531.284	15.23
531.408	25.23
531.531	20.23
531.654	9.23
531.778	13.23
531.901	1.23
532.024	25.23
532.148	18.23
532.271	24.23
532.394	25.23
532.518	36.23
532.641	42.23
532.764	56.23
532.888	31.23
533.011	16.23
533.134	12.23
533.258	27.23
533.381	16.23
533.504	9.23
533.628	12.23
533.751	19.23
533.874	22.23
533.997	21.23
534.121	-11.77
534.244	3.23
534.367	21.23
534.491	23.23
534.614	20.23
534.737	41.23
534.86	22.23
534.984	-1.77
535.107	16.23
535.23	14.23
535.354	15.23
535.477	22.23
535.6	5.23
535.723	20.23
535.847	37.23
535.97	-1.77
536.093	10.23
536.216	8.23
536.34	38.23
536.463	20.23
536.586	27.23
536.709	17.23
536.833	28.23
536.956	11.23
537.079	14.23
537.202	39.23
537.325	18.23
537.449	-0.77
537.572	12.23
537.695	26.23
537.818	27.23
537.941	6.23
538.065	19.23
538.188	9.23
538.311	36.23
538.434	25.23
538.558	13.23
538.681	34.23
538.804	33.23
538.927	27.23
539.05	22.23
539.173	13.23
539.297	11.23
539.42	21.23
539.543	24.23
539.666	26.23
539.789	30.23
539.913	9.23
540.036	11.23
540.159	37.23
540.282	13.23
540.405	26.23
540.528	19.23
540.651	16.23
540.775	18.23
540.898	21.23
541.021	13.23
541.144	15.23
541.267	13.23
541.39	16.23
541.513	31.23
541.637	32.23
541.76	22.23
541.883	18.23
542.006	38.23
542.129	40.23
542.252	14.23
542.375	9.23
542.498	29.23
542.622	16.23
542.745	26.23
542.868	29.23
542.991	26.23
543.114	48.23
543.237	43.23
543.36	46.23
543.483	23.23
543.606	15.23
543.73	28.23
543.853	4.23
543.976	3.23
544.099	28.23
544.222	10.23
544.345	4.23
544.468	15.23
544.591	24.23
544.714	26.23
544.837	20.23
544.96	26.23
545.083	37.23
545.206	21.23
545.329	32.23
545.453	8.23
545.576	24.23
545.699	13.23
545.822	9.23
545.945	29.23
546.068	16.23
546.191	23.23
546.314	14.23
546.437	32.23
546.56	10.23
546.683	18.23
546.806	27.23
546.929	8.23
547.052	-7.77
547.175	25.23
547.298	22.23
547.421	-7.77
547.544	11.23
547.667	30.23
547.79	22.23
547.913	15.23
548.036	29.23
548.159	18.23
548.282	24.23
548.405	8.23
548.528	22.23
548.651	17.23
548.774	16.23
548.897	20.23
549.02	35.23
549.143	43.23
549.266	19.23
549.389	12.23
549.512	17.23
549.635	26.23
549.758	35.23
549.881	27.23
550.004	21.23
550.127	10.23
550.25	14.23
550.373	5.23
550.496	32.23
550.619	23.23
550.742	17.23
550.865	7.23
550.988	27.23
551.111	31.23
551.234	26.23
551.356	8.23
551.479	9.23
551.602	11.23
551.725	22.23
551.848	17.23
551.971	37.23
552.094	34.23
552.217	25.23
552.34	6.23
552.463	8.23
552.586	14.23
552.709	21.23
552.832	21.23
552.955	27.23
553.077	43.23
553.2	28.23
553.323	9.23
553.446	13.23
553.569	12.23
553.692	34.23
553.815	12.23
553.938	14.23
554.061	29.23
554.184	34.23
554.306	24.23
554.429	27.23
554.552	14.23
554.675	0.23
554.798	14.23
554.921	27.23
555.044	12.23
555.167	5.23
555.29	8.23
555.412	21.23
555.535	23.23
555.658	6.23
555.781	15.23
555.904	10.23
556.027	37.23
556.15	22.23
556.272	15.23
556.395	12.23
556.518	4.23
556.641	1.23
556.764	38.23
556.887	24.23
557.01	22.23
557.132	1.23
557.255	9.23
557.378	38.23
557.501	20.23
557.624	27.23
557.747	19.23
557.869	14.23
557.992	36.23
558.115	34.23
558.238	18.23
558.361	33.23
558.483	36.23
558.606	16.23
558.729	12.23
558.852	31.23
558.975	31.23
559.098	24.23
559.22	37.23
559.343	28.23
559.466	18.23
559.589	12.23
559.712	31.23
559.834	22.23
559.957	13.23
560.08	25.23
560.203	18.23
560.325	24.23
560.448	29.23
560.571	37.23
560.694	27.23
560.817	46.23
560.939	9.23
561.062	15.23
561.185	23.23
561.308	10.23
561.43	-1.77
561.553	10.23
561.676	-1.77
561.799	12.23
561.921	28.23
562.044	8.23
562.167	5.23
562.29	33.23
562.413	34.23
562.535	46.23
562.658	7.23
562.781	5.23
562.903	8.23
563.026	26.23
563.149	48.23
563.272	20.23
563.394	18.23
563.517	6.23
563.64	-0.77
563.763	10.23
563.885	20.23
564.008	34.23
564.131	19.23
564.254	29.23
564.376	21.23
564.499	11.23
564.622	9.23
564.744	27.23
564.867	21.23
564.99	8.23
565.113	9.23
565.235	28.23
565.358	14.23
565.481	-6.77
565.603	7.23
565.726	13.23
565.849	27.23
565.971	17.23
566.094	1.23
566.217	25.23
566.34	25.23
566.462	41.23
566.585	25.23
566.708	40.23
566.83	21.23
566.953	35.23
567.076	19.23
567.198	23.23
567.321	14.23
567.444	18.23
567.566	2.23
567.689	3.23
567.812	13.23
567.934	16.23
568.057	16.23
568.18	28.23
568.302	29.23
568.425	25.23
568.548	22.23
568.67	15.23
568.793	16.23
568.916	31.23
569.038	1.23
569.161	12.23
569.283	22.23
569.406	17.23
569.529	5.23
569.651	0.23
569.774	-4.77
569.897	10.23
570.019	40.23
570.142	40.23
570.265	23.23
570.387	21.23
570.51	16.23
570.632	37.23
570.755	17.23
570.878	18.23
571	15.23
571.123	14.23
571.246	34.23
571.368	17.23
571.491	12.23
571.613	-0.77
571.736	-2.77
571.859	17.23
571.981	8.23
572.104	10.23
572.226	33.23
572.349	3.23
572.472	31.23
572.594	27.23
572.717	18.23
572.839	-1.77
572.962	22.23
573.085	20.23
573.207	14.23
573.33	4.23
573.452	27.23
573.575	24.23
573.697	35.23
573.82	31.23
573.943	11.23
574.065	17.23
574.188	10.23
574.31	32.23
574.433	26.23
574.555	42.23
574.678	12.23
574.801	23.23
574.923	4.23
575.046	27.23
575.168	13.23
575.291	8.23
575.413	23.23
575.536	17.23
575.659	30.23
575.781	13.23
575.904	25.23
576.026	8.23
576.149	-3.77
576.271	29.23
576.394	6.23
576.516	10.23
576.639	19.23
576.761	5.23
576.884	-1.77
577.007	21.23
577.129	24.23
577.252	8.23
577.374	42.23
577.497	14.23
577.619	5.23
577.742	4.23
577.864	14.23
577.987	33.23
578.109	33.23
578.232	25.23
578.354	32.23
578.477	14.23
578.599	18.23
578.722	17.23
578.844	20.23
578.967	18.23
579.089	4.23
579.212	5.23
579.334	22.23
579.457	27.23
579.579	24.23
579.702	0.23
579.824	5.23
579.947	1.23
580.069	18.23
580.192	-3.77
580.314	29.23
580.437	27.23
580.559	27.23
580.682	17.23
580.804	15.23
580.927	34.23
581.049	49.23
581.172	33.23
581.294	24.23
581.417	23.23
581.539	40.23
581.662	31.23
581.784	8.23
581.907	24.23
582.029	24.23
582.152	16.23
582.274	17.23
582.396	23.23
582.519	28.23
582.641	8.23
582.764	9.23
582.886	23.23
583.009	9.23
583.131	19.23
583.254	8.23
583.376	33.23
583.499	21.23
583.621	21.23
583.743	27.23
583.866	27.23
583.988	34.23
584.111	40.23
584.233	27.23
584.356	21.23
584.478	4.23
584.601	1.23
584.723	21.23
584.845	36.23
584.968	19.23
585.09	12.23
585.213	32.23
585.335	20.23
585.458	8.23
585.58	20.23
585.702	18.23
585.825	21.23
585.947	5.23
586.07	2.23
586.192	5.23
586.315	21.23
586.437	16.23
586.559	13.23
586.682	7.23
586.804	26.23
586.927	12.23
587.049	5.23
587.171	33.23
587.294	19.23
587.416	31.23
587.539	13.23
587.661	-2.77
587.783	5.23
587.906	3.23
588.028	10.23
588.151	27.23
588.273	29.23
588.395	10.23
588.518	12.23
588.64	13.23
588.763	21.23
588.885	33.23
589.007	24.23
589.13	2.23
589.252	13.23
589.375	33.23
589.497	16.23
589.619	12.23
589.742	16.23
589.864	25.23
589.986	20.23
590.109	0.23
590.231	-0.77
590.354	22.23
590.476	20.23
590.598	19.23
590.721	6.23
590.843	24.23
590.965	25.23
591.088	18.23
591.21	27.23
591.332	34.23
591.455	9.23
591.577	1.23
591.7	14.23
591.822	10.23
591.944	34.23
592.067	25.23
592.189	14.23
592.311	18.23
592.434	6.23
592.556	31.23
592.678	30.23
592.801	20.23
592.923	0.23
593.045	19.23
593.168	29.23
593.29	7.23
593.412	18.23
593.535	14.23
593.657	8.23
593.779	10.23
593.902	12.23
594.024	19.23
594.146	27.23
594.269	28.23
594.391	5.23
594.513	26.23
594.636	21.23
594.758	-5.77
594.88	14.23
595.003	12.23
595.125	19.23
595.247	35.23
595.37	8.23
595.492	-0.77
595.614	27.23
595.737	35.23
595.859	19.23
595.981	20.23
596.104	7.23
596.226	4.23
596.348	13.23
596.471	2.23
596.593	12.23
596.715	12.23
596.838	34.23
596.96	10.23
597.082	21.23
597.204	16.23
597.327	16.23
597.449	3.23
597.571	23.23
597.694	34.23
597.816	25.23
597.938	18.23
598.061	6.23
598.183	3.23
598.305	30.23
598.427	18.23
598.55	21.23
598.672	39.23
598.794	29.23
598.917	11.23
599.039	16.23
599.161	25.23
599.283	34.23
599.406	26.23
599.528	20.23
599.65	31.23
599.773	27.23
599.895	49.23
600.017	45.23
600.139	36.23
600.262	9.23
600.384	13.23
600.506	23.23
600.628	33.23
600.751	18.23
600.873	31.23
600.995	24.23
601.118	42.23
601.24	10.23
601.362	29.23
601.484	29.23
601.607	23.23
601.729	8.23
601.851	14.23
601.973	27.23
602.096	25.23
602.218	44.23
602.34	42.23
602.462	16.23
602.585	12.23
602.707	-9.77
602.829	27.23
602.951	12.23
603.074	14.23
603.196	18.23
603.318	4.23
603.44	29.23
603.563	11.23
603.685	8.23
603.807	17.23
603.929	45.23
604.052	28.23
604.174	32.23
604.296	10.23
604.418	14.23
604.541	25.23
604.663	11.23
604.785	22.23
604.907	30.23
605.03	26.23
605.152	51.23
605.274	5.23
605.396	18.23
605.519	19.23
605.641	13.23
605.763	20.23
605.885	34.23
606.008	14.23
606.13	50.23
606.252	22.23
606.374	-2.77
606.496	12.23
606.619	16.23
606.741	12.23
606.863	45.23
606.985	38.23
607.108	24.23
607.23	14.23
607.352	4.23
607.474	14.23
607.596	20.23
607.719	24.23
607.841	6.23
607.963	22.23
608.085	9.23
608.207	34.23
608.33	28.23
608.452	14.23
608.574	12.23
608.696	29.23
608.819	11.23
608.941	12.23
609.063	26.23
609.185	15.23
609.307	24.23
609.43	17.23
609.552	29.23
609.674	11.23
609.796	8.23
609.918	26.23
610.041	0.23
610.163	24.23
610.285	9.23
610.407	17.23
610.529	1.23
610.652	25.23
610.774	27.23
610.896	6.23
611.018	12.23
611.14	27.23
611.263	13.23
611.385	17.23
611.507	34.23
611.629	14.23
611.751	26.23
611.873	44.23
611.996	14.23
612.118	28.23
612.24	3.23
612.362	25.23
612.484	10.23
612.607	25.23
612.729	32.23
612.851	10.23
612.973	4.23
613.095	17.23
613.218	13.23
613.34	42.23
613.462	21.23
613.584	16.23
613.706	21.23
613.828	41.23
613.951	24.23
614.073	12.23
614.195	-6.77
614.317	33.23
614.439	27.23
614.561	17.23
614.684	16.23
614.806	13.23
614.928	20.23
615.05	25.23
615.172	36.23
615.294	19.23
615.417	8.23
615.539	13.23
615.661	21.23
615.783	24.23
615.905	38.23
616.027	69.23
616.15	117.23
616.272	101.23
616.394	66.23
616.516	36.23
616.638	29.23
616.76	34.23
616.883	25.23
617.005	17.23
617.127	20.23
617.249	9.23
617.371	18.23
617.493	13.23
617.615	13.23
617.738	18.23
617.86	23.23
617.982	8.23
618.104	2.23
618.226	0.23
618.348	3.23
618.471	10.23
618.593	29.23
618.715	0.23
618.837	21.23
618.959	30.23
619.081	38.23
619.203	21.23
619.326	28.23
619.448	35.23
619.57	34.23
619.692	23.23
619.814	36.23
619.936	25.23
620.058	13.23
620.181	24.23
620.303	27.23
620.425	13.23
620.547	10.23
620.669	16.23
620.791	25.23
620.913	4.23
621.036	15.23
621.158	25.23
621.28	23.23
621.402	-3.77
621.524	23.23
621.646	28.23
621.768	12.23
621.891	1.23
622.013	34.23
622.135	12.23
622.257	14.23
622.379	30.23
622.501	10.23
622.623	15.23
622.745	20.23
622.868	25.23
622.99	8.23
623.112	12.23
623.234	2.23
623.356	21.23
623.478	9.23
623.6	24.23
623.722	5.23
623.845	6.23
623.967	5.23
624.089	31.23
624.211	11.23
624.333	24.23
624.455	21.23
624.577	2.23
624.699	38.23
624.822	26.23
624.944	21.23
625.066	12.23
625.188	13.23
625.31	26.23
625.432	36.23
625.554	24.23
625.676	39.23
625.799	8.23
625.921	10.23
626.043	12.23
626.165	-0.77
626.287	8.23
626.409	26.23
626.531	9.23
626.653	11.23
626.775	32.23
626.898	22.23
627.02	25.23
627.142	33.23
627.264	30.23
627.386	19.23
627.508	15.23
627.63	33.23
627.752	27.23
627.874	34.23
627.997	26.23
628.119	27.23
628.241	25.23
628.363	34.23
628.485	7.23
628.607	7.23
628.729	13.23
628.851	3.23
628.973	10.23
629.096	11.23
629.218	0.23
629.34	21.23
629.462	9.23
629.584	19.23
629.706	22.23
629.828	14.23
629.95	23.23
630.072	36.23
630.195	22.23
630.317	14.23
630.439	12.23
630.561	33.23
630.683	19.23
630.805	28.23
630.927	35.23
631.049	23.23
631.171	4.23
631.293	30.23
631.416	25.23
631.538	11.23
631.66	9.23
631.782	37.23
631.904	45.23
632.026	19.23
632.148	31.23
632.27	1.23
632.392	22.23
632.514	25.23
632.637	24.23
632.759	20.23
632.881	4.23
633.003	18.23
633.125	12.23
633.247	8.23
633.369	0.23
633.491	9.23
633.613	24.23
633.735	3.23
633.858	14.23
633.98	11.23
634.102	-0.77
634.224	8.23
634.346	8.23
634.468	1.23
634.59	21.23
634.712	35.23
634.834	12.23
634.956	-0.77
635.078	-3.77
635.201	8.23
635.323	24.23
635.445	15.23
635.567	11.23
635.689	32.23
635.811	18.23
635.933	9.23
636.055	16.23
636.177	25.23
636.299	38.23
636.421	17.23
636.544	17.23
636.666	29.23
636.788	18.23
636.91	14.23
637.032	-6.77
637.154	16.23
637.276	47.23
637.398	35.23
637.52	41.23
637.642	22.23
637.764	17.23
637.887	21.23
638.009	24.23
638.131	-6.77
638.253	12.23
638.375	29.23
638.497	38.23
638.619	10.23
638.741	19.23
638.863	0.23
638.985	12.23
639.107	13.23
639.23	5.23
639.352	30.23
639.474	32.23
639.596	15.23
639.718	20.23
639.84	18.23
639.962	18.23
640.084	30.23
640.206	21.23
640.328	12.23
640.45	8.23
640.573	2.23
640.695	10.23
640.817	19.23
640.939	17.23
641.061	6.23
641.183	16.23
641.305	-5.77
641.427	-3.77
641.549	1.23
641.671	33.23
641.793	18.23
641.915	34.23
642.038	17.23
642.16	24.23
642.282	6.23
642.404	5.23
642.526	11.23
642.648	10.23
642.77	17.23
642.892	11.23
643.014	36.23
643.136	19.23
643.258	12.23
643.381	34.23
643.503	34.23
643.625	13.23
643.747	11.23
643.869	20.23
643.991	27.23
644.113	21.23
644.235	19.23
644.357	17.23
644.479	29.23
644.601	10.23
644.723	14.23
644.846	14.23
644.968	18.23
645.09	10.23
645.212	12.23
645.334	14.23
645.456	29.23
645.578	27.23
645.7	29.23
645.822	21.23
645.944	20.23
646.066	20.23
646.188	23.23
646.311	43.23
646.433	15.23
646.555	56.23
646.677	56.23
646.799	60.23
646.921	30.23
647.043	34.23
647.165	13.23
647.287	30.23
647.409	18.23
647.531	19.23
647.654	-0.77
647.776	28.23
647.898	20.23
648.02	21.23
648.142	15.23
648.264	6.23
648.386	25.23
648.508	5.23
648.63	13.23
648.752	9.23
648.874	14.23
648.997	18.23
649.119	33.23
649.241	0.23
649.363	19.23
649.485	15.23
649.607	3.23
649.729	19.23
649.851	10.23
649.973	10.23
650.095	17.23
650.217	11.23
650.34	8.23
650.462	8.23
650.584	8.23
650.706	24.23
650.828	21.23
650.95	8.23
651.072	33.23
651.194	-1.77
651.316	11.23
651.438	11.23
651.56	-7.77
651.683	14.23
651.805	19.23
651.927	24.23
652.049	27.23
652.171	29.23
652.293	22.23
652.415	14.23
652.537	2.23
652.659	20.23
652.781	20.23
652.903	24.23
653.026	51.23
653.148	24.23
653.27	24.23
653.392	22.23
653.514	2.23
653.636	22.23
653.758	15.23
653.88	16.23
654.002	9.23
654.124	-5.77
654.247	27.23
654.369	30.23
654.491	14.23
654.613	23.23
654.735	24.23
654.857	25.23
654.979	22.23
655.101	34.23
655.223	45.23
655.345	17.23
655.468	34.23
655.59	30.23
655.712	24.23
655.834	16.23
655.956	40.23
656.078	29.23
656.2	45.23
656.322	50.23
656.444	37.23
656.566	57.23
656.689	46.23
656.811	78.23
656.933	105.23
657.055	96.23
657.177	162.23
657.299	264.23
657.421	481.23
657.543	1816.23
657.665	12504.23
657.787	15167.23
657.91	15221.23
658.032	15671.23
658.154	4564.23
658.276	3137.23
658.398	1088.23
658.52	997.23
658.642	465.23
658.764	573.23
658.886	267.23
659.009	400.23
659.131	221.23
659.253	327.23
659.375	155.23
659.497	230.23
659.619	140.23
659.741	200.23
659.863	92.23
659.985	168.23
660.108	96.23
660.23	152.23
660.352	88.23
660.474	136.23
660.596	93.23
660.718	143.23
660.84	75.23
660.962	126.23
661.084	68.23
661.207	113.23
661.329	69.23
661.451	108.23
661.573	53.23
661.695	117.23
661.817	80.23
661.939	115.23
662.061	62.23
662.184	81.23
662.306	45.23
662.428	71.23
662.55	55.23
662.672	74.23
662.794	37.23
662.916	77.23
663.038	37.23
663.161	94.23
663.283	57.23
663.405	72.23
663.527	32.23
663.649	72.23
663.771	22.23
663.893	55.23
664.015	49.23
664.138	66.23
664.26	47.23
664.382	66.23
664.504	34.23
664.626	24.23
664.748	18.23
664.87	44.23
664.992	40.23
665.115	53.23
665.237	28.23
665.359	38.23
665.481	34.23
665.603	60.23
665.725	26.23
665.847	16.23
665.97	25.23
666.092	42.23
666.214	36.23
666.336	42.23
666.458	29.23
666.58	57.23
666.702	18.23
666.825	36.23
666.947	17.23
667.069	54.23
667.191	24.23
667.313	41.23
667.435	7.23
667.557	30.23
667.68	18.23
667.802	16.23
667.924	10.23
668.046	42.23
668.168	30.23
668.29	47.23
668.412	38.23
668.535	52.23
668.657	17.23
668.779	38.23
668.901	32.23
669.023	41.23
669.145	33.23
669.267	34.23
669.39	38.23
669.512	35.23
669.634	28.23
669.756	26.23
669.878	15.23
670	39.23
670.123	10.23
670.245	45.23
670.367	26.23
670.489	44.23
670.611	33.23
670.733	15.23
670.856	22.23
670.978	42.23
671.1	34.23
671.222	36.23
671.344	17.23
671.466	18.23
671.589	12.23
671.711	26.23
671.833	5.23
671.955	24.23
672.077	8.23
672.199	44.23
672.322	22.23
672.444	47.23
672.566	41.23
672.688	27.23
672.81	21.23
672.932	41.23
673.055	15.23
673.177	18.23
673.299	37.23
673.421	29.23
673.543	31.23
673.665	49.23
673.788	33.23
673.91	14.23
674.032	-2.77
674.154	14.23
674.276	21.23
674.399	6.23
674.521	4.23
674.643	34.23
674.765	23.23
674.887	39.23
675.009	17.23
675.132	21.23
675.254	26.23
675.376	19.23
675.498	22.23
675.62	42.23
675.743	38.23
675.865	39.23
675.987	11.23
676.109	10.23
676.231	11.23
676.354	60.23
676.476	8.23
676.598	40.23
676.72	15.23
676.842	23.23
676.965	8.23
677.087	38.23
677.209	25.23
677.331	35.23
677.453	30.23
677.576	18.23
677.698	30.23
677.82	40.23
677.942	2.23
678.064	14.23
678.187	10.23
678.309	29.23
678.431	14.23
678.553	22.23
678.675	17.23
678.798	24.23
678.92	16.23
679.042	29.23
679.164	-2.77
679.286	28.23
679.409	26.23
679.531	-0.77
679.653	18.23
679.775	19.23
679.898	9.23
680.02	6.23
680.142	-4.77
680.264	19.23
680.386	12.23
680.509	33.23
680.631	24.23
680.753	23.23
680.875	2.23
680.998	17.23
681.12	24.23
681.242	20.23
681.364	-5.77
681.486	19.23
681.609	14.23
681.731	24.23
681.853	15.23
681.975	12.23
682.098	14.23
682.22	32.23
682.342	6.23
682.464	38.23
682.587	28.23
682.709	24.23
682.831	7.23
682.953	11.23
683.076	9.23
683.198	27.23
683.32	37.23
683.442	32.23
683.565	20.23
683.687	12.23
683.809	21.23
683.931	0.23
684.054	23.23
684.176	33.23
684.298	22.23
684.42	28.23
684.543	7.23
684.665	36.23
684.787	14.23
684.909	18.23
685.032	11.23
685.154	8.23
685.276	9.23
685.398	17.23
685.521	-2.77
685.643	24.23
685.765	31.23
685.887	25.23
686.01	10.23
686.132	8.23
686.254	26.23
686.377	35.23
686.499	4.23
686.621	28.23
686.743	21.23
686.866	18.23
686.988	41.23
687.11	37.23
687.232	27.23
687.355	13.23
687.477	6.23
687.599	20.23
687.722	2.23
687.844	27.23
687.966	13.23
688.088	19.23
688.211	46.23
688.333	46.23
688.455	21.23
688.578	26.23
688.7	26.23
688.822	17.23
688.944	2.23
689.067	69.23
689.189	29.23
689.311	15.23
689.434	21.23
689.556	25.23
689.678	33.23
689.801	2.23
689.923	31.23
690.045	43.23
690.167	21.23
690.29	25.23
690.412	18.23
690.534	9.23
690.657	14.23
690.779	18.23
690.901	19.23
691.024	17.23
691.146	10.23
691.268	3.23
691.391	38.23
691.513	30.23
691.635	22.23
691.758	36.23
691.88	32.23
692.002	16.23
692.125	12.23
692.247	4.23
692.369	16.23
692.492	5.23
692.614	17.23
692.736	10.23
692.859	17.23
692.981	8.23
693.103	11.23
693.226	21.23
693.348	26.23
693.47	14.23
693.593	9.23
693.715	5.23
693.837	9.23
693.96	7.23
694.082	13.23
694.204	24.23
694.327	16.23
694.449	1.23
694.571	20.23
694.694	25.23
694.816	13.23
694.938	23.23
695.061	32.23
695.183	17.23
695.305	15.23
695.428	12.23
695.55	21.23
695.672	23.23
695.795	20.23
695.917	38.23
696.04	3.23
696.162	18.23
696.284	1.23
696.407	5.23
696.529	9.23
696.651	22.23
696.774	16.23
696.896	17.23
697.019	14.23
697.141	11.23
697.263	19.23
697.386	25.23
697.508	3.23
697.63	21.23
697.753	6.23
697.875	21.23
697.998	26.23
698.12	33.23
698.242	9.23
698.365	19.23
698.487	0.23
698.61	23.23
698.732	17.23
698.854	28.23
698.977	12.23
699.099	34.23
699.221	11.23
699.344	2.23
699.466	23.23
699.589	12.23
699.711	11.23
699.834	15.23
699.956	15.23
700.078	10.23
700.201	1.23
700.323	28.23
700.446	19.23
700.568	15.23
700.69	36.23
700.813	19.23
700.935	15.23
701.058	15.23
701.18	12.23
701.302	19.23
701.425	14.23
701.547	16.23
701.67	9.23
701.792	13.23
701.915	11.23
702.037	19.23
702.159	27.23
702.282	25.23
702.404	17.23
702.527	13.23
702.649	31.23
702.772	33.23
702.894	8.23
703.017	21.23
703.139	28.23
703.261	33.23
703.384	17.23
703.506	-2.77
703.629	21.23
703.751	30.23
703.874	19.23
703.996	14.23
704.119	-6.77
704.241	16.23
704.364	9.23
704.486	24.23
704.608	38.23
704.731	13.23
704.853	22.23
704.976	18.23
705.098	18.23
705.221	24.23
705.343	35.23
705.466	37.23
705.588	18.23
705.711	31.23
705.833	30.23
705.956	23.23
706.078	33.23
706.201	17.23
706.323	29.23
706.446	5.23
