Data from LowRes_H2_15_26_11_07_2024_HR4C61881__78__15-28-21-436.txt Node

Date: Thu Nov 07 15:28:21 EST 2024
User: crc00042
Spectrometer: HR4C6188
Trigger mode: 4
Integration Time (sec): 1.000000E-1
Scans to average: 1
Electric dark correction enabled: true
Nonlinearity correction enabled: false
Boxcar width: 0
XAxis mode: Wavelengths
Number of Pixels in Spectrum: 3648
>>>>>Begin Spectral Data<<<<<
245.66	-83.23
245.797	-83.23
245.934	-83.23
246.071	-60.23
246.208	-5.23
246.344	-8.23
246.481	-6.23
246.618	-5.23
246.755	17.77
246.892	2.77
247.029	-6.23
247.165	-16.23
247.302	17.77
247.439	-1.23
247.576	-0.23
247.713	-12.23
247.849	23.77
247.986	-6.23
248.123	10.77
248.26	-22.23
248.396	12.77
248.533	-5.23
248.67	-7.23
248.806	0.77
248.943	-12.23
249.08	-9.23
249.216	20.77
249.353	-6.23
249.49	-2.23
249.626	-3.23
249.763	1.77
249.9	-20.23
250.036	13.77
250.173	-14.23
250.309	-6.23
250.446	-8.23
250.582	4.77
250.719	-13.23
250.856	-8.23
250.992	-16.23
251.129	-5.23
251.265	-14.23
251.402	11.77
251.538	-4.23
251.675	-5.23
251.811	13.77
251.948	2.77
252.084	2.77
252.221	1.77
252.357	3.77
252.493	31.77
252.63	-1.23
252.766	21.77
252.903	10.77
253.039	14.77
253.175	-1.23
253.312	6.77
253.448	-1.23
253.585	-12.23
253.721	1.77
253.857	2.77
253.994	15.77
254.13	-5.23
254.266	-16.23
254.403	-8.23
254.539	-1.23
254.675	-7.23
254.811	20.77
254.948	-6.23
255.084	-6.23
255.22	-0.23
255.356	13.77
255.493	-0.23
255.629	9.77
255.765	7.77
255.901	-1.23
256.037	-2.23
256.174	-5.23
256.31	1.77
256.446	-8.23
256.582	4.77
256.718	28.77
256.854	8.77
256.991	12.77
257.127	27.77
257.263	-24.23
257.399	-2.23
257.535	-2.23
257.671	-6.23
257.807	-12.23
257.943	-9.23
258.079	-6.23
258.215	-6.23
258.351	16.77
258.487	-8.23
258.623	9.77
258.759	-32.23
258.895	-9.23
259.031	-2.23
259.167	-5.23
259.303	21.77
259.439	-10.23
259.575	-9.23
259.711	-1.23
259.847	-8.23
259.983	-9.23
260.119	-16.23
260.255	-15.23
260.391	3.77
260.527	3.77
260.663	12.77
260.799	8.77
260.934	3.77
261.07	1.77
261.206	-4.23
261.342	-13.23
261.478	2.77
261.614	9.77
261.749	0.77
261.885	-7.23
262.021	4.77
262.157	5.77
262.293	-9.23
262.428	-13.23
262.564	0.77
262.7	-7.23
262.836	7.77
262.971	12.77
263.107	-3.23
263.243	6.77
263.378	-6.23
263.514	-22.23
263.65	14.77
263.785	-6.23
263.921	-7.23
264.057	-2.23
264.192	11.77
264.328	13.77
264.464	-19.23
264.599	-6.23
264.735	19.77
264.871	-23.23
265.006	1.77
265.142	-7.23
265.277	5.77
265.413	9.77
265.548	25.77
265.684	13.77
265.819	3.77
265.955	-11.23
266.091	-15.23
266.226	-31.23
266.362	-3.23
266.497	-8.23
266.633	3.77
266.768	3.77
266.903	-3.23
267.039	15.77
267.174	14.77
267.31	-11.23
267.445	-2.23
267.581	-11.23
267.716	13.77
267.851	10.77
267.987	29.77
268.122	27.77
268.258	-4.23
268.393	-23.23
268.528	-2.23
268.664	2.77
268.799	-18.23
268.934	15.77
269.07	-11.23
269.205	-8.23
269.34	14.77
269.476	-3.23
269.611	-10.23
269.746	11.77
269.881	-1.23
270.017	0.77
270.152	1.77
270.287	-12.23
270.422	11.77
270.558	-18.23
270.693	8.77
270.828	-7.23
270.963	-1.23
271.098	-13.23
271.234	-5.23
271.369	19.77
271.504	1.77
271.639	7.77
271.774	2.77
271.909	4.77
272.045	-17.23
272.18	-14.23
272.315	6.77
272.45	-2.23
272.585	4.77
272.72	-6.23
272.855	-6.23
272.99	7.77
273.125	-25.23
273.26	-32.23
273.395	-12.23
273.53	-9.23
273.665	10.77
273.8	-24.23
273.935	-8.23
274.07	-1.23
274.205	5.77
274.34	-4.23
274.475	14.77
274.61	6.77
274.745	-8.23
274.88	9.77
275.015	-25.23
275.15	-15.23
275.285	0.77
275.42	-6.23
275.555	14.77
275.69	4.77
275.825	-4.23
275.959	-3.23
276.094	-17.23
276.229	-10.23
276.364	4.77
276.499	5.77
276.634	7.77
276.768	-13.23
276.903	-3.23
277.038	0.77
277.173	-5.23
277.308	-16.23
277.442	-16.23
277.577	-10.23
277.712	-1.23
277.847	-3.23
277.981	-4.23
278.116	-26.23
278.251	-1.23
278.386	5.77
278.52	15.77
278.655	2.77
278.79	12.77
278.924	6.77
279.059	4.77
279.194	-24.23
279.328	14.77
279.463	1.77
279.598	19.77
279.732	0.77
279.867	-13.23
280.001	-0.23
280.136	15.77
280.271	0.77
280.405	9.77
280.54	8.77
280.674	-2.23
280.809	3.77
280.943	-2.23
281.078	-0.23
281.213	8.77
281.347	-7.23
281.482	1.77
281.616	10.77
281.751	6.77
281.885	-28.23
282.02	1.77
282.154	7.77
282.288	-4.23
282.423	-9.23
282.557	-44.23
282.692	-15.23
282.826	-10.23
282.961	1.77
283.095	-11.23
283.229	-7.23
283.364	-18.23
283.498	-8.23
283.633	-1.23
283.767	-17.23
283.901	6.77
284.036	-6.23
284.17	-14.23
284.304	-15.23
284.439	-3.23
284.573	-8.23
284.707	-1.23
284.842	4.77
284.976	-2.23
285.11	-15.23
285.244	-13.23
285.379	41.77
285.513	-20.23
285.647	-7.23
285.781	-15.23
285.916	-13.23
286.05	-1.23
286.184	41.77
286.318	13.77
286.453	-14.23
286.587	-15.23
286.721	-22.23
286.855	-4.23
286.989	6.77
287.123	-11.23
287.258	-20.23
287.392	0.77
287.526	-7.23
287.66	-15.23
287.794	-18.23
287.928	7.77
288.062	-5.23
288.196	-3.23
288.33	-14.23
288.464	22.77
288.598	17.77
288.733	-13.23
288.867	11.77
289.001	-3.23
289.135	5.77
289.269	-7.23
289.403	-14.23
289.537	-3.23
289.671	5.77
289.805	-13.23
289.939	-1.23
290.073	-1.23
290.207	22.77
290.34	6.77
290.474	3.77
290.608	-9.23
290.742	0.77
290.876	-26.23
291.01	-15.23
291.144	35.77
291.278	18.77
291.412	1.77
291.546	-3.23
291.679	-6.23
291.813	-9.23
291.947	-11.23
292.081	-2.23
292.215	5.77
292.349	8.77
292.482	-1.23
292.616	-21.23
292.75	-26.23
292.884	-27.23
293.018	-5.23
293.151	-18.23
293.285	3.77
293.419	-13.23
293.553	-5.23
293.686	-18.23
293.82	-16.23
293.954	27.77
294.088	20.77
294.221	-21.23
294.355	-11.23
294.489	-12.23
294.622	-13.23
294.756	-1.23
294.89	10.77
295.023	6.77
295.157	4.77
295.291	-12.23
295.424	16.77
295.558	-8.23
295.691	-13.23
295.825	-11.23
295.959	-5.23
296.092	-2.23
296.226	0.77
296.359	12.77
296.493	6.77
296.627	4.77
296.76	-4.23
296.894	4.77
297.027	13.77
297.161	6.77
297.294	-21.23
297.428	-8.23
297.561	13.77
297.695	4.77
297.828	7.77
297.962	14.77
298.095	9.77
298.229	2.77
298.362	-3.23
298.495	-18.23
298.629	-14.23
298.762	-18.23
298.896	3.77
299.029	-13.23
299.162	-7.23
299.296	0.77
299.429	-7.23
299.563	-9.23
299.696	1.77
299.829	-1.23
299.963	-0.23
300.096	4.77
300.229	-1.23
300.363	-9.23
300.496	-9.23
300.629	-33.23
300.763	-15.23
300.896	-7.23
301.029	4.77
301.162	-3.23
301.296	-22.23
301.429	2.77
301.562	-3.23
301.695	2.77
301.829	-0.23
301.962	15.77
302.095	-3.23
302.228	-18.23
302.362	5.77
302.495	-4.23
302.628	2.77
302.761	-8.23
302.894	-5.23
303.027	1.77
303.161	-8.23
303.294	-8.23
303.427	1.77
303.56	5.77
303.693	-3.23
303.826	14.77
303.959	7.77
304.092	2.77
304.225	1.77
304.359	19.77
304.492	12.77
304.625	10.77
304.758	-4.23
304.891	-3.23
305.024	-3.23
305.157	-13.23
305.29	-14.23
305.423	0.77
305.556	5.77
305.689	23.77
305.822	6.77
305.955	2.77
306.088	-1.23
306.221	-5.23
306.354	-22.23
306.487	-18.23
306.62	-41.23
306.752	-25.23
306.885	10.77
307.018	1.77
307.151	4.77
307.284	9.77
307.417	-13.23
307.55	7.77
307.683	3.77
307.816	15.77
307.948	9.77
308.081	6.77
308.214	9.77
308.347	15.77
308.48	-0.23
308.613	-8.23
308.745	-3.23
308.878	-12.23
309.011	-10.23
309.144	17.77
309.277	-10.23
309.409	4.77
309.542	-11.23
309.675	21.77
309.808	3.77
309.94	0.77
310.073	-31.23
310.206	-2.23
310.339	2.77
310.471	-14.23
310.604	20.77
310.737	-5.23
310.869	0.77
311.002	5.77
311.135	-2.23
311.267	-11.23
311.4	-10.23
311.533	17.77
311.665	-16.23
311.798	-5.23
311.93	0.77
312.063	-7.23
312.196	1.77
312.328	3.77
312.461	0.77
312.593	3.77
312.726	2.77
312.859	-0.23
312.991	-3.23
313.124	-27.23
313.256	-6.23
313.389	10.77
313.521	-11.23
313.654	-21.23
313.786	-11.23
313.919	-5.23
314.051	5.77
314.184	18.77
314.316	1.77
314.449	2.77
314.581	2.77
314.714	1.77
314.846	-0.23
314.978	-9.23
315.111	-19.23
315.243	-9.23
315.376	5.77
315.508	7.77
315.641	-8.23
315.773	20.77
315.905	6.77
316.038	-6.23
316.17	-12.23
316.302	6.77
316.435	11.77
316.567	-25.23
316.699	10.77
316.832	-11.23
316.964	-9.23
317.096	-2.23
317.229	-3.23
317.361	-2.23
317.493	-8.23
317.625	-1.23
317.758	-2.23
317.89	7.77
318.022	6.77
318.155	-13.23
318.287	-2.23
318.419	-23.23
318.551	-11.23
318.683	-1.23
318.816	-27.23
318.948	-4.23
319.08	-6.23
319.212	-3.23
319.344	4.77
319.477	-8.23
319.609	-11.23
319.741	-12.23
319.873	-25.23
320.005	5.77
320.137	0.77
320.269	2.77
320.401	8.77
320.534	-17.23
320.666	-17.23
320.798	-3.23
320.93	-11.23
321.062	0.77
321.194	-3.23
321.326	11.77
321.458	6.77
321.59	8.77
321.722	9.77
321.854	8.77
321.986	-12.23
322.118	-6.23
322.25	-4.23
322.382	6.77
322.514	-6.23
322.646	-14.23
322.778	13.77
322.91	1.77
323.042	-1.23
323.174	-7.23
323.306	-6.23
323.438	-30.23
323.57	-7.23
323.702	-5.23
323.834	5.77
323.966	-23.23
324.097	-6.23
324.229	-6.23
324.361	8.77
324.493	5.77
324.625	-17.23
324.757	6.77
324.889	-10.23
325.021	-3.23
325.152	6.77
325.284	21.77
325.416	4.77
325.548	-6.23
325.68	1.77
325.811	20.77
325.943	1.77
326.075	-19.23
326.207	0.77
326.339	22.77
326.47	10.77
326.602	6.77
326.734	8.77
326.866	14.77
326.997	-19.23
327.129	-6.23
327.261	-30.23
327.392	-5.23
327.524	1.77
327.656	-2.23
327.787	12.77
327.919	4.77
328.051	-3.23
328.182	26.77
328.314	17.77
328.446	-7.23
328.577	20.77
328.709	17.77
328.841	7.77
328.972	-10.23
329.104	-3.23
329.235	10.77
329.367	-0.23
329.499	-6.23
329.63	8.77
329.762	4.77
329.893	9.77
330.025	-8.23
330.156	-20.23
330.288	2.77
330.419	22.77
330.551	10.77
330.683	15.77
330.814	-14.23
330.946	6.77
331.077	-24.23
331.208	-5.23
331.34	4.77
331.471	-21.23
331.603	-6.23
331.734	-17.23
331.866	-3.23
331.997	17.77
332.129	5.77
332.26	8.77
332.392	11.77
332.523	-15.23
332.654	-7.23
332.786	-1.23
332.917	-1.23
333.048	17.77
333.18	19.77
333.311	-17.23
333.443	-2.23
333.574	-8.23
333.705	20.77
333.837	-1.23
333.968	2.77
334.099	2.77
334.231	41.77
334.362	-1.23
334.493	1.77
334.624	19.77
334.756	3.77
334.887	4.77
335.018	26.77
335.15	19.77
335.281	3.77
335.412	11.77
335.543	2.77
335.675	-3.23
335.806	6.77
335.937	-6.23
336.068	31.77
336.199	30.77
336.331	-3.23
336.462	-4.23
336.593	8.77
336.724	-16.23
336.855	-7.23
336.986	1.77
337.118	7.77
337.249	28.77
337.38	2.77
337.511	12.77
337.642	24.77
337.773	1.77
337.904	7.77
338.035	0.77
338.166	-13.23
338.298	20.77
338.429	-2.23
338.56	9.77
338.691	13.77
338.822	-2.23
338.953	0.77
339.084	3.77
339.215	9.77
339.346	17.77
339.477	-0.23
339.608	7.77
339.739	-0.23
339.87	-9.23
340.001	-6.23
340.132	1.77
340.263	9.77
340.394	13.77
340.525	13.77
340.656	-7.23
340.787	-6.23
340.918	25.77
341.049	16.77
341.179	-3.23
341.31	7.77
341.441	0.77
341.572	19.77
341.703	11.77
341.834	1.77
341.965	12.77
342.096	4.77
342.227	2.77
342.357	2.77
342.488	10.77
342.619	1.77
342.75	-9.23
342.881	-20.23
343.012	1.77
343.142	22.77
343.273	-18.23
343.404	4.77
343.535	26.77
343.666	8.77
343.796	19.77
343.927	6.77
344.058	-3.23
344.189	10.77
344.319	15.77
344.45	2.77
344.581	-4.23
344.712	6.77
344.842	4.77
344.973	-4.23
345.104	-1.23
345.234	-0.23
345.365	-13.23
345.496	2.77
345.626	9.77
345.757	9.77
345.888	-37.23
346.018	-4.23
346.149	-5.23
346.28	26.77
346.41	21.77
346.541	7.77
346.672	6.77
346.802	4.77
346.933	9.77
347.063	-0.23
347.194	-11.23
347.325	16.77
347.455	26.77
347.586	5.77
347.716	-20.23
347.847	9.77
347.977	15.77
348.108	17.77
348.238	6.77
348.369	-3.23
348.499	11.77
348.63	-2.23
348.76	-4.23
348.891	8.77
349.021	17.77
349.152	3.77
349.282	2.77
349.413	-6.23
349.543	16.77
349.674	3.77
349.804	17.77
349.935	-19.23
350.065	-11.23
350.196	-9.23
350.326	9.77
350.456	-0.23
350.587	11.77
350.717	16.77
350.848	7.77
350.978	8.77
351.108	-6.23
351.239	24.77
351.369	-0.23
351.499	11.77
351.63	3.77
351.76	-14.23
351.89	-6.23
352.021	-4.23
352.151	-11.23
352.281	1.77
352.412	7.77
352.542	5.77
352.672	-8.23
352.803	15.77
352.933	-5.23
353.063	-15.23
353.193	-5.23
353.324	-12.23
353.454	9.77
353.584	15.77
353.714	-1.23
353.845	-3.23
353.975	5.77
354.105	2.77
354.235	9.77
354.365	1.77
354.496	-14.23
354.626	4.77
354.756	17.77
354.886	4.77
355.016	3.77
355.146	-4.23
355.277	-8.23
355.407	1.77
355.537	5.77
355.667	7.77
355.797	-1.23
355.927	-14.23
356.057	23.77
356.187	-1.23
356.318	-2.23
356.448	-9.23
356.578	-1.23
356.708	19.77
356.838	7.77
356.968	-9.23
357.098	12.77
357.228	5.77
357.358	-21.23
357.488	-12.23
357.618	23.77
357.748	21.77
357.878	-5.23
358.008	11.77
358.138	-6.23
358.268	5.77
358.398	10.77
358.528	-5.23
358.658	-2.23
358.788	-6.23
358.918	2.77
359.048	9.77
359.178	30.77
359.308	0.77
359.438	22.77
359.568	23.77
359.698	7.77
359.827	-17.23
359.957	-14.23
360.087	4.77
360.217	-19.23
360.347	6.77
360.477	13.77
360.607	1.77
360.737	-2.23
360.866	-1.23
360.996	-13.23
361.126	-24.23
361.256	22.77
361.386	14.77
361.516	5.77
361.645	-21.23
361.775	11.77
361.905	-11.23
362.035	5.77
362.165	5.77
362.294	-14.23
362.424	24.77
362.554	14.77
362.684	4.77
362.813	-2.23
362.943	1.77
363.073	-0.23
363.203	1.77
363.332	8.77
363.462	-9.23
363.592	11.77
363.721	4.77
363.851	-1.23
363.981	23.77
364.111	-1.23
364.24	-6.23
364.37	2.77
364.5	22.77
364.629	6.77
364.759	-15.23
364.888	-6.23
365.018	16.77
365.148	-11.23
365.277	7.77
365.407	8.77
365.537	6.77
365.666	14.77
365.796	0.77
365.925	-10.23
366.055	26.77
366.184	16.77
366.314	14.77
366.444	11.77
366.573	1.77
366.703	5.77
366.832	21.77
366.962	7.77
367.091	24.77
367.221	20.77
367.35	19.77
367.48	29.77
367.609	13.77
367.739	2.77
367.868	-5.23
367.998	-3.23
368.127	11.77
368.257	-5.23
368.386	7.77
368.516	11.77
368.645	23.77
368.775	2.77
368.904	-4.23
369.033	2.77
369.163	-3.23
369.292	12.77
369.422	21.77
369.551	11.77
369.68	-1.23
369.81	20.77
369.939	15.77
370.069	17.77
370.198	2.77
370.327	-18.23
370.457	-2.23
370.586	-13.23
370.715	0.77
370.845	-22.23
370.974	8.77
371.103	16.77
371.233	19.77
371.362	-8.23
371.491	-12.23
371.621	17.77
371.75	1.77
371.879	-28.23
372.008	0.77
372.138	-14.23
372.267	4.77
372.396	7.77
372.525	5.77
372.655	-10.23
372.784	-16.23
372.913	-0.23
373.042	-0.23
373.172	16.77
373.301	-24.23
373.43	-7.23
373.559	4.77
373.688	8.77
373.818	18.77
373.947	10.77
374.076	1.77
374.205	15.77
374.334	-6.23
374.463	-2.23
374.593	18.77
374.722	15.77
374.851	16.77
374.98	-4.23
375.109	-10.23
375.238	10.77
375.367	12.77
375.496	-26.23
375.625	-11.23
375.755	4.77
375.884	19.77
376.013	15.77
376.142	-23.23
376.271	-16.23
376.4	0.77
376.529	-3.23
376.658	-0.23
376.787	-1.23
376.916	3.77
377.045	-2.23
377.174	5.77
377.303	-5.23
377.432	7.77
377.561	6.77
377.69	3.77
377.819	5.77
377.948	-10.23
378.077	-7.23
378.206	-15.23
378.335	4.77
378.464	0.77
378.593	19.77
378.722	0.77
378.851	-2.23
378.98	25.77
379.108	-6.23
379.237	-3.23
379.366	9.77
379.495	18.77
379.624	19.77
379.753	20.77
379.882	-11.23
380.011	0.77
380.14	3.77
380.268	-5.23
380.397	-11.23
380.526	17.77
380.655	-0.23
380.784	-24.23
380.913	-7.23
381.041	6.77
381.17	-1.23
381.299	-3.23
381.428	16.77
381.557	12.77
381.685	-3.23
381.814	8.77
381.943	-3.23
382.072	-2.23
382.2	-12.23
382.329	9.77
382.458	-9.23
382.587	10.77
382.715	22.77
382.844	-1.23
382.973	0.77
383.102	-20.23
383.23	-5.23
383.359	-15.23
383.488	-4.23
383.616	-10.23
383.745	-12.23
383.874	-5.23
384.003	0.77
384.131	-5.23
384.26	-3.23
384.389	0.77
384.517	-7.23
384.646	-6.23
384.774	-6.23
384.903	24.77
385.032	16.77
385.16	6.77
385.289	8.77
385.418	-6.23
385.546	2.77
385.675	-5.23
385.803	-5.23
385.932	-4.23
386.06	-9.23
386.189	3.77
386.318	4.77
386.446	-6.23
386.575	13.77
386.703	11.77
386.832	-5.23
386.96	-29.23
387.089	7.77
387.217	3.77
387.346	-1.23
387.474	0.77
387.603	-5.23
387.731	-1.23
387.86	9.77
387.988	2.77
388.117	3.77
388.245	20.77
388.374	6.77
388.502	19.77
388.631	-2.23
388.759	-17.23
388.888	3.77
389.016	8.77
389.144	-3.23
389.273	-6.23
389.401	-14.23
389.53	-8.23
389.658	22.77
389.786	-10.23
389.915	2.77
390.043	1.77
390.172	1.77
390.3	19.77
390.428	21.77
390.557	-15.23
390.685	2.77
390.813	9.77
390.942	9.77
391.07	9.77
391.198	-11.23
391.327	-1.23
391.455	-16.23
391.583	4.77
391.712	12.77
391.84	-3.23
391.968	-6.23
392.096	-14.23
392.225	-7.23
392.353	12.77
392.481	7.77
392.609	34.77
392.738	18.77
392.866	31.77
392.994	-3.23
393.122	18.77
393.251	12.77
393.379	-8.23
393.507	-13.23
393.635	-6.23
393.764	-2.23
393.892	13.77
394.02	-10.23
394.148	2.77
394.276	6.77
394.404	43.77
394.533	-3.23
394.661	-2.23
394.789	18.77
394.917	32.77
395.045	0.77
395.173	6.77
395.302	-13.23
395.43	-1.23
395.558	5.77
395.686	7.77
395.814	7.77
395.942	-8.23
396.07	5.77
396.198	6.77
396.326	-3.23
396.454	21.77
396.582	9.77
396.711	8.77
396.839	2.77
396.967	15.77
397.095	-11.23
397.223	17.77
397.351	20.77
397.479	27.77
397.607	5.77
397.735	18.77
397.863	-0.23
397.991	13.77
398.119	-11.23
398.247	6.77
398.375	-10.23
398.503	-2.23
398.631	3.77
398.759	12.77
398.887	2.77
399.015	-10.23
399.143	9.77
399.271	13.77
399.399	20.77
399.526	1.77
399.654	3.77
399.782	-8.23
399.91	17.77
400.038	19.77
400.166	4.77
400.294	-0.23
400.422	7.77
400.55	10.77
400.678	19.77
400.805	7.77
400.933	-0.23
401.061	14.77
401.189	-3.23
401.317	2.77
401.445	25.77
401.573	20.77
401.7	-8.23
401.828	10.77
401.956	7.77
402.084	7.77
402.212	11.77
402.34	10.77
402.467	6.77
402.595	1.77
402.723	14.77
402.851	20.77
402.978	0.77
403.106	1.77
403.234	-13.23
403.362	17.77
403.489	25.77
403.617	23.77
403.745	25.77
403.873	5.77
404	16.77
404.128	-0.23
404.256	35.77
404.384	22.77
404.511	15.77
404.639	-13.23
404.767	-16.23
404.894	-2.23
405.022	8.77
405.15	1.77
405.277	-2.23
405.405	-2.23
405.533	9.77
405.66	-1.23
405.788	-23.23
405.916	-12.23
406.043	-5.23
406.171	-4.23
406.299	28.77
406.426	10.77
406.554	13.77
406.681	23.77
406.809	16.77
406.937	6.77
407.064	-3.23
407.192	2.77
407.319	5.77
407.447	7.77
407.574	23.77
407.702	8.77
407.83	-12.23
407.957	-13.23
408.085	-1.23
408.212	-12.23
408.34	2.77
408.467	2.77
408.595	12.77
408.722	31.77
408.85	7.77
408.977	-25.23
409.105	12.77
409.232	20.77
409.36	17.77
409.487	24.77
409.615	31.77
409.742	40.77
409.87	28.77
409.997	34.77
410.125	40.77
410.252	55.77
410.379	38.77
410.507	26.77
410.634	3.77
410.762	-6.23
410.889	12.77
411.017	1.77
411.144	18.77
411.271	5.77
411.399	21.77
411.526	3.77
411.653	17.77
411.781	12.77
411.908	18.77
412.036	7.77
412.163	22.77
412.29	12.77
412.418	21.77
412.545	15.77
412.672	8.77
412.8	17.77
412.927	2.77
413.054	16.77
413.182	5.77
413.309	16.77
413.436	8.77
413.564	9.77
413.691	19.77
413.818	13.77
413.945	-29.23
414.073	1.77
414.2	17.77
414.327	25.77
414.454	-0.23
414.582	4.77
414.709	-20.23
414.836	16.77
414.963	-0.23
415.091	8.77
415.218	-2.23
415.345	-8.23
415.472	-4.23
415.6	-17.23
415.727	-6.23
415.854	4.77
415.981	-9.23
416.108	10.77
416.236	-3.23
416.363	-6.23
416.49	-1.23
416.617	15.77
416.744	18.77
416.871	10.77
416.998	4.77
417.126	13.77
417.253	7.77
417.38	1.77
417.507	13.77
417.634	17.77
417.761	14.77
417.888	5.77
418.015	6.77
418.143	9.77
418.27	29.77
418.397	11.77
418.524	15.77
418.651	-6.23
418.778	-0.23
418.905	18.77
419.032	14.77
419.159	27.77
419.286	33.77
419.413	7.77
419.54	16.77
419.667	2.77
419.794	-24.23
419.921	-6.23
420.048	2.77
420.175	6.77
420.302	-4.23
420.429	5.77
420.556	-2.23
420.683	-23.23
420.81	-0.23
420.937	16.77
421.064	20.77
421.191	1.77
421.318	29.77
421.445	12.77
421.572	-14.23
421.699	16.77
421.826	28.77
421.953	3.77
422.08	12.77
422.207	-16.23
422.334	7.77
422.461	18.77
422.588	4.77
422.714	-8.23
422.841	22.77
422.968	11.77
423.095	-1.23
423.222	4.77
423.349	8.77
423.476	3.77
423.603	6.77
423.729	-9.23
423.856	-0.23
423.983	15.77
424.11	14.77
424.237	-12.23
424.364	0.77
424.491	0.77
424.617	7.77
424.744	1.77
424.871	14.77
424.998	-13.23
425.125	-3.23
425.251	11.77
425.378	-10.23
425.505	5.77
425.632	2.77
425.758	-4.23
425.885	10.77
426.012	-1.23
426.139	22.77
426.266	0.77
426.392	3.77
426.519	13.77
426.646	-3.23
426.772	24.77
426.899	28.77
427.026	3.77
427.153	4.77
427.279	25.77
427.406	12.77
427.533	-4.23
427.659	4.77
427.786	-5.23
427.913	23.77
428.039	8.77
428.166	13.77
428.293	4.77
428.419	19.77
428.546	7.77
428.673	-11.23
428.799	10.77
428.926	-6.23
429.053	20.77
429.179	13.77
429.306	16.77
429.433	20.77
429.559	14.77
429.686	-19.23
429.812	13.77
429.939	-4.23
430.066	4.77
430.192	1.77
430.319	16.77
430.445	2.77
430.572	8.77
430.699	4.77
430.825	-9.23
430.952	21.77
431.078	-6.23
431.205	2.77
431.331	-8.23
431.458	11.77
431.584	14.77
431.711	-0.23
431.837	13.77
431.964	14.77
432.09	0.77
432.217	-20.23
432.343	-2.23
432.47	1.77
432.596	16.77
432.723	6.77
432.849	-22.23
432.976	18.77
433.102	16.77
433.229	3.77
433.355	30.77
433.482	61.77
433.608	157.77
433.735	144.77
433.861	119.77
433.987	145.77
434.114	216.77
434.24	200.77
434.367	66.77
434.493	13.77
434.62	20.77
434.746	15.77
434.872	-0.23
434.999	2.77
435.125	-1.23
435.252	1.77
435.378	20.77
435.504	8.77
435.631	14.77
435.757	7.77
435.883	25.77
436.01	17.77
436.136	-2.23
436.262	0.77
436.389	8.77
436.515	24.77
436.641	5.77
436.768	32.77
436.894	26.77
437.02	16.77
437.147	19.77
437.273	17.77
437.399	10.77
437.526	13.77
437.652	16.77
437.778	11.77
437.904	-8.23
438.031	3.77
438.157	12.77
438.283	11.77
438.409	-18.23
438.536	-30.23
438.662	23.77
438.788	1.77
438.914	12.77
439.041	23.77
439.167	24.77
439.293	11.77
439.419	10.77
439.546	31.77
439.672	7.77
439.798	24.77
439.924	28.77
440.05	29.77
440.177	8.77
440.303	6.77
440.429	-1.23
440.555	30.77
440.681	19.77
440.807	23.77
440.934	7.77
441.06	-2.23
441.186	-3.23
441.312	-2.23
441.438	5.77
441.564	17.77
441.69	12.77
441.816	21.77
441.943	1.77
442.069	22.77
442.195	10.77
442.321	5.77
442.447	-2.23
442.573	0.77
442.699	-20.23
442.825	-7.23
442.951	17.77
443.077	24.77
443.203	30.77
443.33	8.77
443.456	-7.23
443.582	10.77
443.708	-5.23
443.834	17.77
443.96	4.77
444.086	14.77
444.212	23.77
444.338	31.77
444.464	9.77
444.59	17.77
444.716	4.77
444.842	0.77
444.968	-3.23
445.094	18.77
445.22	-0.23
445.346	-9.23
445.472	8.77
445.598	29.77
445.724	0.77
445.85	3.77
445.976	16.77
446.102	13.77
446.228	22.77
446.354	17.77
446.48	10.77
446.605	1.77
446.731	8.77
446.857	22.77
446.983	7.77
447.109	2.77
447.235	1.77
447.361	11.77
447.487	11.77
447.613	1.77
447.739	-3.23
447.865	-5.23
447.99	14.77
448.116	1.77
448.242	7.77
448.368	5.77
448.494	-8.23
448.62	9.77
448.746	-4.23
448.872	19.77
448.997	-13.23
449.123	11.77
449.249	25.77
449.375	22.77
449.501	-1.23
449.627	4.77
449.752	12.77
449.878	-1.23
450.004	-9.23
450.13	16.77
450.256	1.77
450.381	16.77
450.507	12.77
450.633	12.77
450.759	20.77
450.884	0.77
451.01	15.77
451.136	0.77
451.262	-11.23
451.388	6.77
451.513	-6.23
451.639	18.77
451.765	23.77
451.89	31.77
452.016	1.77
452.142	6.77
452.268	5.77
452.393	9.77
452.519	-2.23
452.645	11.77
452.771	1.77
452.896	0.77
453.022	-4.23
453.148	8.77
453.273	15.77
453.399	19.77
453.525	-11.23
453.65	-4.23
453.776	19.77
453.902	13.77
454.027	28.77
454.153	8.77
454.279	8.77
454.404	5.77
454.53	17.77
454.656	31.77
454.781	4.77
454.907	17.77
455.032	-3.23
455.158	23.77
455.284	13.77
455.409	-1.23
455.535	19.77
455.66	25.77
455.786	14.77
455.912	22.77
456.037	-7.23
456.163	9.77
456.288	28.77
456.414	-0.23
456.539	8.77
456.665	20.77
456.791	22.77
456.916	-5.23
457.042	-7.23
457.167	-9.23
457.293	-5.23
457.418	20.77
457.544	-5.23
457.669	-6.23
457.795	3.77
457.92	11.77
458.046	23.77
458.171	18.77
458.297	-10.23
458.422	-1.23
458.548	-6.23
458.673	15.77
458.799	20.77
458.924	-0.23
459.05	0.77
459.175	-15.23
459.301	10.77
459.426	8.77
459.552	15.77
459.677	-4.23
459.803	25.77
459.928	16.77
460.053	3.77
460.179	14.77
460.304	29.77
460.43	-5.23
460.555	-11.23
460.681	-14.23
460.806	13.77
460.931	3.77
461.057	13.77
461.182	6.77
461.308	15.77
461.433	13.77
461.558	8.77
461.684	20.77
461.809	22.77
461.934	15.77
462.06	11.77
462.185	4.77
462.311	-4.23
462.436	14.77
462.561	14.77
462.687	3.77
462.812	6.77
462.937	-2.23
463.063	0.77
463.188	8.77
463.313	3.77
463.439	-5.23
463.564	11.77
463.689	16.77
463.814	26.77
463.94	9.77
464.065	7.77
464.19	21.77
464.316	5.77
464.441	-9.23
464.566	-18.23
464.692	5.77
464.817	20.77
464.942	3.77
465.067	-3.23
465.193	-21.23
465.318	5.77
465.443	10.77
465.568	10.77
465.694	8.77
465.819	28.77
465.944	-2.23
466.069	7.77
466.194	22.77
466.32	14.77
466.445	14.77
466.57	5.77
466.695	8.77
466.82	11.77
466.946	19.77
467.071	21.77
467.196	-0.23
467.321	13.77
467.446	-2.23
467.572	9.77
467.697	9.77
467.822	4.77
467.947	17.77
468.072	-4.23
468.197	6.77
468.323	12.77
468.448	15.77
468.573	-2.23
468.698	4.77
468.823	9.77
468.948	14.77
469.073	4.77
469.198	17.77
469.324	15.77
469.449	-18.23
469.574	12.77
469.699	5.77
469.824	15.77
469.949	6.77
470.074	18.77
470.199	38.77
470.324	12.77
470.449	18.77
470.574	-6.23
470.7	2.77
470.825	4.77
470.95	23.77
471.075	2.77
471.2	11.77
471.325	37.77
471.45	5.77
471.575	-1.23
471.7	30.77
471.825	-5.23
471.95	-11.23
472.075	-15.23
472.2	-3.23
472.325	5.77
472.45	12.77
472.575	-12.23
472.7	-4.23
472.825	28.77
472.95	-1.23
473.075	-1.23
473.2	-3.23
473.325	1.77
473.45	-14.23
473.575	-5.23
473.7	6.77
473.825	8.77
473.95	9.77
474.075	18.77
474.2	3.77
474.325	3.77
474.45	21.77
474.574	-1.23
474.699	3.77
474.824	26.77
474.949	-8.23
475.074	-16.23
475.199	28.77
475.324	22.77
475.449	10.77
475.574	0.77
475.699	11.77
475.824	-5.23
475.949	14.77
476.073	8.77
476.198	10.77
476.323	10.77
476.448	17.77
476.573	9.77
476.698	36.77
476.823	7.77
476.947	6.77
477.072	-5.23
477.197	8.77
477.322	-1.23
477.447	-0.23
477.572	5.77
477.697	5.77
477.821	0.77
477.946	11.77
478.071	16.77
478.196	14.77
478.321	6.77
478.445	10.77
478.57	-6.23
478.695	3.77
478.82	1.77
478.945	10.77
479.069	-10.23
479.194	-1.23
479.319	10.77
479.444	4.77
479.569	0.77
479.693	1.77
479.818	-4.23
479.943	14.77
480.068	4.77
480.192	13.77
480.317	-7.23
480.442	14.77
480.567	16.77
480.691	22.77
480.816	8.77
480.941	4.77
481.066	1.77
481.19	23.77
481.315	12.77
481.44	11.77
481.564	-5.23
481.689	11.77
481.814	11.77
481.938	19.77
482.063	11.77
482.188	19.77
482.313	14.77
482.437	-0.23
482.562	-0.23
482.687	37.77
482.811	18.77
482.936	28.77
483.061	37.77
483.185	34.77
483.31	20.77
483.435	9.77
483.559	7.77
483.684	10.77
483.808	34.77
483.933	17.77
484.058	13.77
484.182	6.77
484.307	10.77
484.432	18.77
484.556	14.77
484.681	18.77
484.805	10.77
484.93	16.77
485.055	30.77
485.179	85.77
485.304	111.77
485.428	375.77
485.553	1269.77
485.678	1776.77
485.802	1672.77
485.927	1834.77
486.051	2695.77
486.176	1642.77
486.3	439.77
486.425	144.77
486.549	85.77
486.674	51.77
486.799	56.77
486.923	26.77
487.048	18.77
487.172	26.77
487.297	12.77
487.421	30.77
487.546	18.77
487.67	26.77
487.795	3.77
487.919	17.77
488.044	19.77
488.168	39.77
488.293	13.77
488.417	-2.23
488.542	28.77
488.666	26.77
488.791	20.77
488.915	14.77
489.04	20.77
489.164	24.77
489.289	24.77
489.413	3.77
489.538	18.77
489.662	26.77
489.786	-11.23
489.911	5.77
490.035	4.77
490.16	-0.23
490.284	-0.23
490.409	-7.23
490.533	13.77
490.658	50.77
490.782	10.77
490.906	12.77
491.031	14.77
491.155	17.77
491.28	18.77
491.404	21.77
491.528	11.77
491.653	13.77
491.777	10.77
491.902	-21.23
492.026	23.77
492.15	13.77
492.275	19.77
492.399	12.77
492.524	9.77
492.648	15.77
492.772	8.77
492.897	31.77
493.021	23.77
493.145	19.77
493.27	13.77
493.394	-2.23
493.518	-2.23
493.643	13.77
493.767	35.77
493.891	-9.23
494.016	10.77
494.14	8.77
494.264	39.77
494.389	31.77
494.513	10.77
494.637	-9.23
494.762	20.77
494.886	10.77
495.01	20.77
495.134	4.77
495.259	18.77
495.383	19.77
495.507	-3.23
495.632	29.77
495.756	38.77
495.88	27.77
496.004	13.77
496.129	-4.23
496.253	7.77
496.377	23.77
496.501	20.77
496.626	-6.23
496.75	11.77
496.874	13.77
496.998	15.77
497.123	23.77
497.247	-7.23
497.371	8.77
497.495	12.77
497.62	8.77
497.744	10.77
497.868	6.77
497.992	20.77
498.116	-6.23
498.241	-11.23
498.365	4.77
498.489	1.77
498.613	33.77
498.737	1.77
498.862	-6.23
498.986	-10.23
499.11	11.77
499.234	-7.23
499.358	9.77
499.482	23.77
499.607	8.77
499.731	13.77
499.855	13.77
499.979	19.77
500.103	1.77
500.227	10.77
500.351	21.77
500.476	11.77
500.6	18.77
500.724	24.77
500.848	1.77
500.972	31.77
501.096	11.77
501.22	31.77
501.344	1.77
501.469	9.77
501.593	24.77
501.717	15.77
501.841	6.77
501.965	-5.23
502.089	-6.23
502.213	13.77
502.337	-0.23
502.461	-3.23
502.585	5.77
502.709	19.77
502.834	17.77
502.958	-2.23
503.082	16.77
503.206	13.77
503.33	29.77
503.454	9.77
503.578	26.77
503.702	22.77
503.826	8.77
503.95	17.77
504.074	-7.23
504.198	6.77
504.322	3.77
504.446	16.77
504.57	28.77
504.694	3.77
504.818	20.77
504.942	15.77
505.066	-9.23
505.19	-8.23
505.314	8.77
505.438	12.77
505.562	18.77
505.686	21.77
505.81	15.77
505.934	30.77
506.058	0.77
506.182	3.77
506.306	17.77
506.43	18.77
506.554	10.77
506.678	-15.23
506.802	14.77
506.926	19.77
507.05	19.77
507.174	23.77
507.298	25.77
507.422	12.77
507.546	15.77
507.67	22.77
507.794	10.77
507.918	14.77
508.042	14.77
508.165	8.77
508.289	-2.23
508.413	-1.23
508.537	-0.23
508.661	2.77
508.785	19.77
508.909	7.77
509.033	-3.23
509.157	6.77
509.281	17.77
509.405	2.77
509.528	30.77
509.652	14.77
509.776	6.77
509.9	28.77
510.024	2.77
510.148	13.77
510.272	5.77
510.396	18.77
510.519	-3.23
510.643	12.77
510.767	1.77
510.891	12.77
511.015	7.77
511.139	10.77
511.263	17.77
511.386	-10.23
511.51	21.77
511.634	-3.23
511.758	12.77
511.882	-13.23
512.006	9.77
512.129	14.77
512.253	26.77
512.377	3.77
512.501	16.77
512.625	19.77
512.748	1.77
512.872	16.77
512.996	-15.23
513.12	21.77
513.244	11.77
513.367	0.77
513.491	18.77
513.615	7.77
513.739	2.77
513.862	-2.23
513.986	25.77
514.11	12.77
514.234	-3.23
514.358	21.77
514.481	28.77
514.605	14.77
514.729	10.77
514.853	20.77
514.976	4.77
515.1	10.77
515.224	18.77
515.348	4.77
515.471	5.77
515.595	17.77
515.719	13.77
515.842	36.77
515.966	-2.23
516.09	33.77
516.214	13.77
516.337	32.77
516.461	17.77
516.585	11.77
516.708	28.77
516.832	16.77
516.956	22.77
517.08	22.77
517.203	-11.23
517.327	7.77
517.451	27.77
517.574	37.77
517.698	2.77
517.822	14.77
517.945	24.77
518.069	32.77
518.193	56.77
518.316	10.77
518.44	3.77
518.564	17.77
518.687	11.77
518.811	33.77
518.935	44.77
519.058	31.77
519.182	15.77
519.306	35.77
519.429	17.77
519.553	48.77
519.676	22.77
519.8	4.77
519.924	1.77
520.047	11.77
520.171	-0.23
520.294	13.77
520.418	21.77
520.542	3.77
520.665	18.77
520.789	15.77
520.913	-7.23
521.036	-1.23
521.16	-1.23
521.283	-5.23
521.407	-2.23
521.53	-6.23
521.654	-26.23
521.778	17.77
521.901	2.77
522.025	4.77
522.148	-3.23
522.272	15.77
522.395	10.77
522.519	8.77
522.643	13.77
522.766	9.77
522.89	12.77
523.013	22.77
523.137	-3.23
523.26	8.77
523.384	16.77
523.507	0.77
523.631	7.77
523.754	2.77
523.878	3.77
524.002	13.77
524.125	6.77
524.249	-2.23
524.372	24.77
524.496	16.77
524.619	7.77
524.743	5.77
524.866	8.77
524.99	15.77
525.113	5.77
525.237	21.77
525.36	6.77
525.484	17.77
525.607	16.77
525.731	3.77
525.854	13.77
525.978	37.77
526.101	4.77
526.224	6.77
526.348	6.77
526.471	9.77
526.595	9.77
526.718	-2.23
526.842	7.77
526.965	9.77
527.089	6.77
527.212	-6.23
527.336	-0.23
527.459	13.77
527.582	4.77
527.706	16.77
527.829	21.77
527.953	14.77
528.076	-5.23
528.2	1.77
528.323	4.77
528.446	23.77
528.57	-8.23
528.693	21.77
528.817	4.77
528.94	11.77
529.064	44.77
529.187	-9.23
529.31	-1.23
529.434	16.77
529.557	19.77
529.68	4.77
529.804	7.77
529.927	23.77
530.051	18.77
530.174	2.77
530.297	0.77
530.421	6.77
530.544	17.77
530.668	21.77
530.791	4.77
530.914	7.77
531.038	0.77
531.161	-10.23
531.284	-2.23
531.408	7.77
531.531	3.77
531.654	-5.23
531.778	19.77
531.901	-12.23
532.024	7.77
532.148	-2.23
532.271	5.77
532.394	-2.23
532.518	11.77
532.641	32.77
532.764	23.77
532.888	20.77
533.011	-0.23
533.134	2.77
533.258	18.77
533.381	6.77
533.504	5.77
533.628	3.77
533.751	13.77
533.874	14.77
533.997	11.77
534.121	-11.23
534.244	-2.23
534.367	1.77
534.491	14.77
534.614	-7.23
534.737	-3.23
534.86	8.77
534.984	8.77
535.107	3.77
535.23	16.77
535.354	-6.23
535.477	-8.23
535.6	-8.23
535.723	2.77
535.847	-15.23
535.97	-10.23
536.093	6.77
536.216	-2.23
536.34	5.77
536.463	2.77
536.586	12.77
536.709	28.77
536.833	28.77
536.956	-2.23
537.079	1.77
537.202	16.77
537.325	4.77
537.449	1.77
537.572	1.77
537.695	5.77
537.818	-4.23
537.941	-3.23
538.065	7.77
538.188	-6.23
538.311	19.77
538.434	14.77
538.558	-5.23
538.681	8.77
538.804	8.77
538.927	12.77
539.05	5.77
539.173	10.77
539.297	3.77
539.42	10.77
539.543	10.77
539.666	22.77
539.789	16.77
539.913	-1.23
540.036	-8.23
540.159	24.77
540.282	-3.23
540.405	15.77
540.528	7.77
540.651	-1.23
540.775	-2.23
540.898	21.77
541.021	6.77
541.144	11.77
541.267	20.77
541.39	6.77
541.513	29.77
541.637	5.77
541.76	6.77
541.883	-9.23
542.006	15.77
542.129	19.77
542.252	14.77
542.375	6.77
542.498	10.77
542.622	12.77
542.745	8.77
542.868	-1.23
542.991	6.77
543.114	-1.23
543.237	12.77
543.36	21.77
543.483	3.77
543.606	23.77
543.73	10.77
543.853	-3.23
543.976	16.77
544.099	18.77
544.222	1.77
544.345	-0.23
544.468	3.77
544.591	11.77
544.714	2.77
544.837	31.77
544.96	1.77
545.083	19.77
545.206	11.77
545.329	35.77
545.453	-1.23
545.576	3.77
545.699	1.77
545.822	0.77
545.945	26.77
546.068	12.77
546.191	2.77
546.314	14.77
546.437	19.77
546.56	5.77
546.683	-3.23
546.806	21.77
546.929	20.77
547.052	2.77
547.175	9.77
547.298	19.77
547.421	6.77
547.544	7.77
547.667	15.77
547.79	19.77
547.913	9.77
548.036	6.77
548.159	18.77
548.282	13.77
548.405	7.77
548.528	3.77
548.651	11.77
548.774	4.77
548.897	10.77
549.02	37.77
549.143	15.77
549.266	-4.23
549.389	7.77
549.512	13.77
549.635	17.77
549.758	15.77
549.881	-10.23
550.004	8.77
550.127	7.77
550.25	-18.23
550.373	-8.23
550.496	12.77
550.619	14.77
550.742	2.77
550.865	-8.23
550.988	24.77
551.111	20.77
551.234	16.77
551.356	-16.23
551.479	-22.23
551.602	-7.23
551.725	3.77
551.848	25.77
551.971	30.77
552.094	7.77
552.217	8.77
552.34	13.77
552.463	8.77
552.586	8.77
552.709	-7.23
552.832	-0.23
552.955	14.77
553.077	13.77
553.2	14.77
553.323	-9.23
553.446	-12.23
553.569	1.77
553.692	7.77
553.815	-7.23
553.938	5.77
554.061	10.77
554.184	16.77
554.306	-6.23
554.429	0.77
554.552	9.77
554.675	2.77
554.798	12.77
554.921	21.77
555.044	17.77
555.167	0.77
555.29	0.77
555.412	6.77
555.535	21.77
555.658	4.77
555.781	25.77
555.904	0.77
556.027	0.77
556.15	2.77
556.272	13.77
556.395	28.77
556.518	14.77
556.641	-2.23
556.764	19.77
556.887	5.77
557.01	-10.23
557.132	-7.23
557.255	6.77
557.378	3.77
557.501	3.77
557.624	25.77
557.747	15.77
557.869	24.77
557.992	0.77
558.115	27.77
558.238	4.77
558.361	-5.23
558.483	6.77
558.606	22.77
558.729	14.77
558.852	22.77
558.975	13.77
559.098	11.77
559.22	17.77
559.343	7.77
559.466	2.77
559.589	8.77
559.712	17.77
559.834	12.77
559.957	10.77
560.08	12.77
560.203	18.77
560.325	33.77
560.448	38.77
560.571	16.77
560.694	1.77
560.817	25.77
560.939	10.77
561.062	3.77
561.185	9.77
561.308	7.77
561.43	-5.23
561.553	0.77
561.676	-6.23
561.799	15.77
561.921	3.77
562.044	4.77
562.167	-5.23
562.29	40.77
562.413	18.77
562.535	21.77
562.658	-4.23
562.781	-2.23
562.903	7.77
563.026	9.77
563.149	24.77
563.272	1.77
563.394	-5.23
563.517	-4.23
563.64	2.77
563.763	14.77
563.885	15.77
564.008	38.77
564.131	21.77
564.254	3.77
564.376	3.77
564.499	-11.23
564.622	-3.23
564.744	-0.23
564.867	-2.23
564.99	4.77
565.113	12.77
565.235	6.77
565.358	5.77
565.481	-18.23
565.603	-13.23
565.726	-10.23
565.849	21.77
565.971	-1.23
566.094	-21.23
566.217	5.77
566.34	8.77
566.462	20.77
566.585	6.77
566.708	30.77
566.83	16.77
566.953	14.77
567.076	-3.23
567.198	-2.23
567.321	-4.23
567.444	6.77
567.566	9.77
567.689	8.77
567.812	-0.23
567.934	5.77
568.057	6.77
568.18	11.77
568.302	7.77
568.425	-6.23
568.548	15.77
568.67	16.77
568.793	14.77
568.916	9.77
569.038	-7.23
569.161	9.77
569.283	19.77
569.406	13.77
569.529	-1.23
569.651	-10.23
569.774	6.77
569.897	9.77
570.019	15.77
570.142	10.77
570.265	-22.23
570.387	0.77
570.51	11.77
570.632	29.77
570.755	-3.23
570.878	-16.23
571	12.77
571.123	3.77
571.246	37.77
571.368	3.77
571.491	3.77
571.613	-2.23
571.736	-10.23
571.859	6.77
571.981	-5.23
572.104	-1.23
572.226	14.77
572.349	-4.23
572.472	13.77
572.594	13.77
572.717	7.77
572.839	-4.23
572.962	9.77
573.085	18.77
573.207	-5.23
573.33	6.77
573.452	12.77
573.575	9.77
573.697	20.77
573.82	10.77
573.943	6.77
574.065	-0.23
574.188	14.77
574.31	14.77
574.433	2.77
574.555	13.77
574.678	5.77
574.801	22.77
574.923	-8.23
575.046	1.77
575.168	-9.23
575.291	11.77
575.413	8.77
575.536	9.77
575.659	9.77
575.781	-15.23
575.904	0.77
576.026	9.77
576.149	-1.23
576.271	5.77
576.394	3.77
576.516	-1.23
576.639	5.77
576.761	-14.23
576.884	-22.23
577.007	8.77
577.129	18.77
577.252	-13.23
577.374	23.77
577.497	-17.23
577.619	-0.23
577.742	-3.23
577.864	17.77
577.987	14.77
578.109	17.77
578.232	9.77
578.354	24.77
578.477	3.77
578.599	-3.23
578.722	-4.23
578.844	-0.23
578.967	14.77
579.089	23.77
579.212	-5.23
579.334	17.77
579.457	1.77
579.579	10.77
579.702	-0.23
579.824	14.77
579.947	-17.23
580.069	-9.23
580.192	-2.23
580.314	2.77
580.437	8.77
580.559	29.77
580.682	4.77
580.804	8.77
580.927	-0.23
581.049	47.77
581.172	31.77
581.294	24.77
581.417	26.77
581.539	1.77
581.662	8.77
581.784	22.77
581.907	19.77
582.029	23.77
582.152	-5.23
582.274	5.77
582.396	-6.23
582.519	-1.23
582.641	-3.23
582.764	16.77
582.886	16.77
583.009	1.77
583.131	-0.23
583.254	4.77
583.376	22.77
583.499	6.77
583.621	4.77
583.743	15.77
583.866	12.77
583.988	1.77
584.111	14.77
584.233	8.77
584.356	16.77
584.478	16.77
584.601	-15.23
584.723	-0.23
584.845	21.77
584.968	-6.23
585.09	1.77
585.213	2.77
585.335	-3.23
585.458	9.77
585.58	3.77
585.702	16.77
585.825	4.77
585.947	7.77
586.07	14.77
586.192	-6.23
586.315	13.77
586.437	-13.23
586.559	-0.23
586.682	-6.23
586.804	4.77
586.927	-14.23
587.049	15.77
587.171	13.77
587.294	13.77
587.416	25.77
587.539	18.77
587.661	-14.23
587.783	-9.23
587.906	-10.23
588.028	-1.23
588.151	23.77
588.273	18.77
588.395	2.77
588.518	17.77
588.64	6.77
588.763	29.77
588.885	9.77
589.007	22.77
589.13	-1.23
589.252	-13.23
589.375	0.77
589.497	6.77
589.619	8.77
589.742	6.77
589.864	29.77
589.986	15.77
590.109	-3.23
590.231	-11.23
590.354	5.77
590.476	6.77
590.598	-9.23
590.721	-9.23
590.843	1.77
590.965	7.77
591.088	17.77
591.21	10.77
591.332	20.77
591.455	-0.23
591.577	23.77
591.7	15.77
591.822	0.77
591.944	7.77
592.067	0.77
592.189	16.77
592.311	-8.23
592.434	-5.23
592.556	12.77
592.678	13.77
592.801	9.77
592.923	1.77
593.045	-4.23
593.168	4.77
593.29	-4.23
593.412	8.77
593.535	-5.23
593.657	6.77
593.779	12.77
593.902	21.77
594.024	9.77
594.146	21.77
594.269	26.77
594.391	-13.23
594.513	13.77
594.636	-0.23
594.758	-10.23
594.88	14.77
595.003	20.77
595.125	6.77
595.247	22.77
595.37	21.77
595.492	0.77
595.614	19.77
595.737	10.77
595.859	10.77
595.981	21.77
596.104	-2.23
596.226	4.77
596.348	9.77
596.471	5.77
596.593	9.77
596.715	-5.23
596.838	6.77
596.96	-0.23
597.082	7.77
597.204	1.77
597.327	5.77
597.449	10.77
597.571	5.77
597.694	30.77
597.816	25.77
597.938	13.77
598.061	10.77
598.183	-6.23
598.305	-0.23
598.427	19.77
598.55	15.77
598.672	9.77
598.794	11.77
598.917	9.77
599.039	19.77
599.161	7.77
599.283	-3.23
599.406	18.77
599.528	11.77
599.65	28.77
599.773	13.77
599.895	34.77
600.017	9.77
600.139	-0.23
600.262	6.77
600.384	14.77
600.506	16.77
600.628	12.77
600.751	29.77
600.873	-6.23
600.995	8.77
601.118	-1.23
601.24	10.77
601.362	7.77
601.484	12.77
601.607	8.77
601.729	0.77
601.851	5.77
601.973	1.77
602.096	20.77
602.218	5.77
602.34	0.77
602.462	13.77
602.585	-3.23
602.707	-3.23
602.829	24.77
602.951	0.77
603.074	0.77
603.196	13.77
603.318	1.77
603.44	14.77
603.563	11.77
603.685	-3.23
603.807	12.77
603.929	23.77
604.052	6.77
604.174	5.77
604.296	6.77
604.418	17.77
604.541	16.77
604.663	12.77
604.785	-0.23
604.907	0.77
605.03	-20.23
605.152	22.77
605.274	11.77
605.396	10.77
605.519	0.77
605.641	-6.23
605.763	12.77
605.885	4.77
606.008	16.77
606.13	15.77
606.252	14.77
606.374	-11.23
606.496	3.77
606.619	0.77
606.741	5.77
606.863	34.77
606.985	26.77
607.108	25.77
607.23	2.77
607.352	5.77
607.474	-0.23
607.596	16.77
607.719	6.77
607.841	28.77
607.963	17.77
608.085	7.77
608.207	41.77
608.33	12.77
608.452	5.77
608.574	-0.23
608.696	13.77
608.819	10.77
608.941	14.77
609.063	8.77
609.185	0.77
609.307	26.77
609.43	29.77
609.552	12.77
609.674	-8.23
609.796	25.77
609.918	17.77
610.041	13.77
610.163	7.77
610.285	-11.23
610.407	17.77
610.529	-4.23
610.652	-1.23
610.774	15.77
610.896	10.77
611.018	2.77
611.14	15.77
611.263	-1.23
611.385	-2.23
611.507	25.77
611.629	-1.23
611.751	5.77
611.873	25.77
611.996	15.77
612.118	15.77
612.24	-3.23
612.362	9.77
612.484	23.77
612.607	10.77
612.729	32.77
612.851	9.77
612.973	-3.23
613.095	-2.23
613.218	-0.23
613.34	16.77
613.462	2.77
613.584	1.77
613.706	4.77
613.828	28.77
613.951	8.77
614.073	11.77
614.195	6.77
614.317	34.77
614.439	12.77
614.561	17.77
614.684	12.77
614.806	17.77
614.928	25.77
615.05	10.77
615.172	14.77
615.294	26.77
615.417	15.77
615.539	0.77
615.661	8.77
615.783	11.77
615.905	30.77
616.027	68.77
616.15	81.77
616.272	62.77
616.394	35.77
616.516	44.77
616.638	23.77
616.76	15.77
616.883	14.77
617.005	1.77
617.127	-0.23
617.249	12.77
617.371	-3.23
617.493	10.77
617.615	17.77
617.738	22.77
617.86	26.77
617.982	8.77
618.104	4.77
618.226	-2.23
618.348	10.77
618.471	0.77
618.593	7.77
618.715	-10.23
618.837	8.77
618.959	1.77
619.081	23.77
619.203	12.77
619.326	9.77
619.448	1.77
619.57	4.77
619.692	0.77
619.814	24.77
619.936	16.77
620.058	31.77
620.181	16.77
620.303	13.77
620.425	12.77
620.547	17.77
620.669	8.77
620.791	-1.23
620.913	-17.23
621.036	-11.23
621.158	20.77
621.28	15.77
621.402	-14.23
621.524	0.77
621.646	-11.23
621.768	4.77
621.891	-10.23
622.013	10.77
622.135	5.77
622.257	-7.23
622.379	11.77
622.501	5.77
622.623	7.77
622.745	-5.23
622.868	5.77
622.99	13.77
623.112	-3.23
623.234	-3.23
623.356	5.77
623.478	-13.23
623.6	14.77
623.722	16.77
623.845	2.77
623.967	3.77
624.089	1.77
624.211	11.77
624.333	11.77
624.455	14.77
624.577	5.77
624.699	16.77
624.822	16.77
624.944	0.77
625.066	8.77
625.188	-9.23
625.31	5.77
625.432	17.77
625.554	9.77
625.676	30.77
625.799	14.77
625.921	8.77
626.043	15.77
626.165	9.77
626.287	-7.23
626.409	18.77
626.531	-1.23
626.653	14.77
626.775	9.77
626.898	9.77
627.02	-7.23
627.142	6.77
627.264	4.77
627.386	11.77
627.508	2.77
627.63	-3.23
627.752	9.77
627.874	-4.23
627.997	-0.23
628.119	24.77
628.241	9.77
628.363	11.77
628.485	11.77
628.607	6.77
628.729	-3.23
628.851	-0.23
628.973	1.77
629.096	-0.23
629.218	2.77
629.34	-0.23
629.462	5.77
629.584	9.77
629.706	16.77
629.828	20.77
629.95	17.77
630.072	2.77
630.195	4.77
630.317	-1.23
630.439	-3.23
630.561	10.77
630.683	7.77
630.805	15.77
630.927	19.77
631.049	-2.23
631.171	4.77
631.293	9.77
631.416	14.77
631.538	8.77
631.66	7.77
631.782	19.77
631.904	16.77
632.026	12.77
632.148	18.77
632.27	-8.23
632.392	1.77
632.514	-11.23
632.637	9.77
632.759	12.77
632.881	-3.23
633.003	0.77
633.125	13.77
633.247	15.77
633.369	-1.23
633.491	5.77
633.613	13.77
633.735	10.77
633.858	20.77
633.98	-3.23
634.102	0.77
634.224	-2.23
634.346	-4.23
634.468	-21.23
634.59	8.77
634.712	-5.23
634.834	15.77
634.956	-18.23
635.078	-1.23
635.201	7.77
635.323	7.77
635.445	-1.23
635.567	-26.23
635.689	9.77
635.811	20.77
635.933	4.77
636.055	12.77
636.177	9.77
636.299	9.77
636.421	-18.23
636.544	-0.23
636.666	8.77
636.788	17.77
636.91	15.77
637.032	-0.23
637.154	4.77
637.276	21.77
637.398	0.77
637.52	20.77
637.642	13.77
637.764	4.77
637.887	-0.23
638.009	4.77
638.131	-13.23
638.253	-17.23
638.375	0.77
638.497	3.77
638.619	-17.23
638.741	-1.23
638.863	-9.23
638.985	2.77
639.107	11.77
639.23	5.77
639.352	29.77
639.474	13.77
639.596	-5.23
639.718	-11.23
639.84	11.77
639.962	14.77
640.084	20.77
640.206	24.77
640.328	-2.23
640.45	4.77
640.573	1.77
640.695	-7.23
640.817	11.77
640.939	21.77
641.061	13.77
641.183	14.77
641.305	16.77
641.427	20.77
641.549	9.77
641.671	13.77
641.793	15.77
641.915	13.77
642.038	7.77
642.16	7.77
642.282	-6.23
642.404	-0.23
642.526	0.77
642.648	-3.23
642.77	24.77
642.892	9.77
643.014	19.77
643.136	6.77
643.258	14.77
643.381	37.77
643.503	24.77
643.625	1.77
643.747	0.77
643.869	8.77
643.991	9.77
644.113	26.77
644.235	8.77
644.357	-3.23
644.479	9.77
644.601	1.77
644.723	-0.23
644.846	2.77
644.968	10.77
645.09	4.77
645.212	7.77
645.334	12.77
645.456	21.77
645.578	14.77
645.7	-2.23
645.822	17.77
645.944	13.77
646.066	-4.23
646.188	-21.23
646.311	30.77
646.433	1.77
646.555	52.77
646.677	42.77
646.799	30.77
646.921	24.77
647.043	27.77
647.165	-19.23
647.287	6.77
647.409	1.77
647.531	17.77
647.654	-8.23
647.776	19.77
647.898	6.77
648.02	-6.23
648.142	-6.23
648.264	8.77
648.386	0.77
648.508	21.77
648.63	1.77
648.752	14.77
648.874	2.77
648.997	1.77
649.119	21.77
649.241	9.77
649.363	5.77
649.485	18.77
649.607	-3.23
649.729	-3.23
649.851	-0.23
649.973	-6.23
650.095	25.77
650.217	-1.23
650.34	-5.23
650.462	0.77
650.584	15.77
650.706	5.77
650.828	15.77
650.95	-3.23
651.072	6.77
651.194	-10.23
651.316	7.77
651.438	11.77
651.56	-4.23
651.683	-3.23
651.805	11.77
651.927	-3.23
652.049	-3.23
652.171	1.77
652.293	13.77
652.415	-2.23
652.537	-11.23
652.659	-9.23
652.781	16.77
652.903	19.77
653.026	25.77
653.148	1.77
653.27	29.77
653.392	21.77
653.514	7.77
653.636	-0.23
653.758	16.77
653.88	1.77
654.002	6.77
654.124	0.77
654.247	-12.23
654.369	30.77
654.491	18.77
654.613	12.77
654.735	-13.23
654.857	6.77
654.979	21.77
655.101	32.77
655.223	45.77
655.345	23.77
655.468	23.77
655.59	18.77
655.712	31.77
655.834	33.77
655.956	44.77
656.078	29.77
656.2	36.77
656.322	38.77
656.444	10.77
656.566	50.77
656.689	45.77
656.811	56.77
656.933	82.77
657.055	95.77
657.177	148.77
657.299	252.77
657.421	502.77
657.543	1914.77
657.665	12669.77
657.787	15190.77
657.91	15332.77
658.032	15659.77
658.154	4716.77
658.276	4189.77
658.398	1287.77
658.52	1069.77
658.642	495.77
658.764	613.77
658.886	285.77
659.009	423.77
659.131	224.77
659.253	317.77
659.375	164.77
659.497	243.77
659.619	134.77
659.741	199.77
659.863	112.77
659.985	169.77
660.108	101.77
660.23	157.77
660.352	86.77
660.474	140.77
660.596	78.77
660.718	140.77
660.84	74.77
660.962	133.77
661.084	54.77
661.207	97.77
661.329	52.77
661.451	94.77
661.573	54.77
661.695	101.77
661.817	69.77
661.939	87.77
662.061	64.77
662.184	62.77
662.306	37.77
662.428	82.77
662.55	46.77
662.672	67.77
662.794	46.77
662.916	54.77
663.038	36.77
663.161	81.77
663.283	34.77
663.405	69.77
663.527	39.77
663.649	79.77
663.771	33.77
663.893	54.77
664.015	27.77
664.138	40.77
664.26	28.77
664.382	61.77
664.504	30.77
664.626	33.77
664.748	22.77
664.87	33.77
664.992	29.77
665.115	54.77
665.237	20.77
665.359	33.77
665.481	34.77
665.603	60.77
665.725	23.77
665.847	19.77
665.97	24.77
666.092	33.77
666.214	35.77
666.336	45.77
666.458	21.77
666.58	19.77
666.702	-8.23
666.825	37.77
666.947	14.77
667.069	43.77
667.191	5.77
667.313	44.77
667.435	10.77
667.557	19.77
667.68	4.77
667.802	13.77
667.924	-2.23
668.046	22.77
668.168	13.77
668.29	52.77
668.412	18.77
668.535	36.77
668.657	14.77
668.779	20.77
668.901	18.77
669.023	27.77
669.145	17.77
669.267	40.77
669.39	22.77
669.512	33.77
669.634	21.77
669.756	8.77
669.878	10.77
670	36.77
670.123	1.77
670.245	25.77
670.367	19.77
670.489	34.77
670.611	11.77
670.733	12.77
670.856	7.77
670.978	10.77
671.1	16.77
671.222	46.77
671.344	7.77
671.466	22.77
671.589	16.77
671.711	7.77
671.833	1.77
671.955	24.77
672.077	-3.23
672.199	32.77
672.322	33.77
672.444	26.77
672.566	18.77
672.688	40.77
672.81	22.77
672.932	30.77
673.055	3.77
673.177	12.77
673.299	7.77
673.421	7.77
673.543	12.77
673.665	28.77
673.788	9.77
673.91	-1.23
674.032	-7.23
674.154	8.77
674.276	10.77
674.399	13.77
674.521	10.77
674.643	29.77
674.765	-6.23
674.887	18.77
675.009	5.77
675.132	7.77
675.254	10.77
675.376	31.77
675.498	-0.23
675.62	38.77
675.743	15.77
675.865	39.77
675.987	14.77
676.109	27.77
676.231	0.77
676.354	49.77
676.476	20.77
676.598	33.77
676.72	20.77
676.842	26.77
676.965	33.77
677.087	24.77
677.209	34.77
677.331	25.77
677.453	3.77
677.576	0.77
677.698	17.77
677.82	15.77
677.942	-2.23
678.064	11.77
678.187	13.77
678.309	5.77
678.431	2.77
678.553	16.77
678.675	20.77
678.798	12.77
678.92	17.77
679.042	23.77
679.164	12.77
679.286	24.77
679.409	10.77
679.531	-4.23
679.653	7.77
679.775	13.77
679.898	-8.23
680.02	-3.23
680.142	-2.23
680.264	13.77
680.386	5.77
680.509	29.77
680.631	6.77
680.753	19.77
680.875	-2.23
680.998	14.77
681.12	-10.23
681.242	9.77
681.364	-5.23
681.486	-5.23
681.609	-3.23
681.731	7.77
681.853	-5.23
681.975	-6.23
682.098	-3.23
682.22	26.77
682.342	12.77
682.464	19.77
682.587	4.77
682.709	10.77
682.831	-10.23
682.953	3.77
683.076	6.77
683.198	11.77
683.32	1.77
683.442	17.77
683.565	30.77
683.687	13.77
683.809	7.77
683.931	-0.23
684.054	20.77
684.176	12.77
684.298	16.77
684.42	5.77
684.543	19.77
684.665	13.77
684.787	-2.23
684.909	-17.23
685.032	1.77
685.154	5.77
685.276	8.77
685.398	5.77
685.521	-10.23
685.643	14.77
685.765	12.77
685.887	14.77
686.01	23.77
686.132	12.77
686.254	18.77
686.377	15.77
686.499	4.77
686.621	25.77
686.743	17.77
686.866	20.77
686.988	24.77
687.11	23.77
687.232	8.77
687.355	13.77
687.477	5.77
687.599	22.77
687.722	-6.23
687.844	19.77
687.966	0.77
688.088	21.77
688.211	32.77
688.333	28.77
688.455	7.77
688.578	6.77
688.7	11.77
688.822	23.77
688.944	17.77
689.067	38.77
689.189	6.77
689.311	16.77
689.434	9.77
689.556	6.77
689.678	1.77
689.801	4.77
689.923	9.77
690.045	6.77
690.167	13.77
690.29	14.77
690.412	1.77
690.534	9.77
690.657	-1.23
690.779	-4.23
690.901	5.77
691.024	18.77
691.146	-3.23
691.268	5.77
691.391	12.77
691.513	1.77
691.635	-10.23
691.758	33.77
691.88	10.77
692.002	8.77
692.125	3.77
692.247	-2.23
692.369	13.77
692.492	0.77
692.614	-3.23
692.736	4.77
692.859	-4.23
692.981	-8.23
693.103	-6.23
693.226	17.77
693.348	23.77
693.47	14.77
693.593	-1.23
693.715	-1.23
693.837	-9.23
693.96	-11.23
694.082	2.77
694.204	3.77
694.327	7.77
694.449	-8.23
694.571	8.77
694.694	12.77
694.816	17.77
694.938	15.77
695.061	4.77
695.183	7.77
695.305	6.77
695.428	6.77
695.55	-7.23
695.672	2.77
695.795	17.77
695.917	26.77
696.04	-4.23
696.162	2.77
696.284	7.77
696.407	10.77
696.529	14.77
696.651	23.77
696.774	5.77
696.896	16.77
697.019	3.77
697.141	11.77
697.263	-9.23
697.386	2.77
697.508	2.77
697.63	8.77
697.753	14.77
697.875	12.77
697.998	-10.23
698.12	7.77
698.242	8.77
698.365	8.77
698.487	-1.23
698.61	9.77
698.732	-3.23
698.854	23.77
698.977	7.77
699.099	16.77
699.221	-5.23
699.344	16.77
699.466	-10.23
699.589	15.77
699.711	3.77
699.834	0.77
699.956	-3.23
700.078	-1.23
700.201	-2.23
700.323	17.77
700.446	14.77
700.568	5.77
700.69	-2.23
700.813	3.77
700.935	-2.23
701.058	-0.23
701.18	-0.23
701.302	20.77
701.425	-5.23
701.547	-3.23
701.67	-18.23
701.792	4.77
701.915	-9.23
702.037	-18.23
702.159	1.77
702.282	13.77
702.404	-0.23
702.527	18.77
702.649	16.77
702.772	15.77
702.894	-3.23
703.017	34.77
703.139	11.77
703.261	18.77
703.384	16.77
703.506	-14.23
703.629	-7.23
703.751	-9.23
703.874	12.77
703.996	-4.23
704.119	0.77
704.241	6.77
704.364	2.77
704.486	8.77
704.608	-3.23
704.731	10.77
704.853	10.77
704.976	8.77
705.098	7.77
705.221	8.77
705.343	5.77
705.466	16.77
705.588	12.77
705.711	-0.23
705.833	2.77
705.956	8.77
706.078	20.77
706.201	14.77
706.323	12.77
706.446	-0.23
