Data from LowRes_H2_15_26_11_07_2024_HR4C61881__80__15-28-21-636.txt Node

Date: Thu Nov 07 15:28:21 EST 2024
User: crc00042
Spectrometer: HR4C6188
Trigger mode: 4
Integration Time (sec): 1.000000E-1
Scans to average: 1
Electric dark correction enabled: true
Nonlinearity correction enabled: false
Boxcar width: 0
XAxis mode: Wavelengths
Number of Pixels in Spectrum: 3648
>>>>>Begin Spectral Data<<<<<
245.66	-98.15
245.797	-98.15
245.934	-98.15
246.071	-66.15
246.208	15.85
246.344	4.85
246.481	-18.15
246.618	-6.15
246.755	6.85
246.892	5.85
247.029	-6.15
247.165	-28.15
247.302	-6.15
247.439	-4.15
247.576	16.85
247.713	0.85
247.849	28.85
247.986	4.85
248.123	27.85
248.26	-3.15
248.396	23.85
248.533	10.85
248.67	4.85
248.806	24.85
248.943	-11.15
249.08	9.85
249.216	19.85
249.353	6.85
249.49	-4.15
249.626	0.85
249.763	-2.15
249.9	-4.15
250.036	11.85
250.173	17.85
250.309	-3.15
250.446	7.85
250.582	-2.15
250.719	-3.15
250.856	-1.15
250.992	9.85
251.129	7.85
251.265	-6.15
251.402	3.85
251.538	7.85
251.675	1.85
251.811	19.85
251.948	23.85
252.084	-4.15
252.221	17.85
252.357	9.85
252.493	23.85
252.63	9.85
252.766	22.85
252.903	16.85
253.039	20.85
253.175	14.85
253.312	5.85
253.448	10.85
253.585	-2.15
253.721	3.85
253.857	-3.15
253.994	21.85
254.13	4.85
254.266	14.85
254.403	-1.15
254.539	3.85
254.675	-9.15
254.811	2.85
254.948	4.85
255.084	-7.15
255.22	-6.15
255.356	16.85
255.493	4.85
255.629	7.85
255.765	13.85
255.901	25.85
256.037	2.85
256.174	21.85
256.31	-12.15
256.446	1.85
256.582	7.85
256.718	27.85
256.854	34.85
256.991	5.85
257.127	27.85
257.263	-1.15
257.399	11.85
257.535	-4.15
257.671	-2.15
257.807	-13.15
257.943	-10.15
258.079	-21.15
258.215	4.85
258.351	25.85
258.487	18.85
258.623	40.85
258.759	22.85
258.895	11.85
259.031	4.85
259.167	-1.15
259.303	27.85
259.439	-7.15
259.575	-6.15
259.711	-13.15
259.847	-7.15
259.983	4.85
260.119	1.85
260.255	-3.15
260.391	26.85
260.527	24.85
260.663	15.85
260.799	13.85
260.934	-1.15
261.07	5.85
261.206	-2.15
261.342	-15.15
261.478	19.85
261.614	17.85
261.749	-0.15
261.885	8.85
262.021	-1.15
262.157	31.85
262.293	-4.15
262.428	-14.15
262.564	2.85
262.7	5.85
262.836	10.85
262.971	11.85
263.107	7.85
263.243	31.85
263.378	10.85
263.514	-20.15
263.65	-2.15
263.785	7.85
263.921	6.85
264.057	7.85
264.192	14.85
264.328	28.85
264.464	-2.15
264.599	17.85
264.735	25.85
264.871	-1.15
265.006	1.85
265.142	-5.15
265.277	5.85
265.413	20.85
265.548	14.85
265.684	13.85
265.819	0.85
265.955	-6.15
266.091	-21.15
266.226	-14.15
266.362	-7.15
266.497	10.85
266.633	-3.15
266.768	2.85
266.903	9.85
267.039	24.85
267.174	23.85
267.31	2.85
267.445	-1.15
267.581	0.85
267.716	13.85
267.851	14.85
267.987	3.85
268.122	23.85
268.258	-7.15
268.393	-5.15
268.528	19.85
268.664	-10.15
268.799	-10.15
268.934	-3.15
269.07	-0.15
269.205	5.85
269.34	-5.15
269.476	-7.15
269.611	-18.15
269.746	25.85
269.881	25.85
270.017	12.85
270.152	7.85
270.287	1.85
270.422	10.85
270.558	11.85
270.693	17.85
270.828	6.85
270.963	-4.15
271.098	-3.15
271.234	-3.15
271.369	20.85
271.504	22.85
271.639	-6.15
271.774	-9.15
271.909	-0.15
272.045	-23.15
272.18	-4.15
272.315	12.85
272.45	21.85
272.585	-18.15
272.72	-1.15
272.855	1.85
272.99	3.85
273.125	-11.15
273.26	-3.15
273.395	-4.15
273.53	-11.15
273.665	23.85
273.8	4.85
273.935	-2.15
274.07	-1.15
274.205	19.85
274.34	7.85
274.475	-2.15
274.61	24.85
274.745	-7.15
274.88	9.85
275.015	4.85
275.15	13.85
275.285	11.85
275.42	6.85
275.555	14.85
275.69	12.85
275.825	5.85
275.959	17.85
276.094	3.85
276.229	15.85
276.364	2.85
276.499	5.85
276.634	1.85
276.768	-0.15
276.903	14.85
277.038	19.85
277.173	-3.15
277.308	-8.15
277.442	-10.15
277.577	1.85
277.712	-2.15
277.847	5.85
277.981	2.85
278.116	10.85
278.251	17.85
278.386	26.85
278.52	16.85
278.655	0.85
278.79	4.85
278.924	3.85
279.059	12.85
279.194	0.85
279.328	17.85
279.463	-2.15
279.598	13.85
279.732	15.85
279.867	19.85
280.001	32.85
280.136	7.85
280.271	15.85
280.405	-8.15
280.54	-1.15
280.674	-9.15
280.809	30.85
280.943	7.85
281.078	7.85
281.213	27.85
281.347	18.85
281.482	0.85
281.616	4.85
281.751	-7.15
281.885	-8.15
282.02	-3.15
282.154	-5.15
282.288	-6.15
282.423	-0.15
282.557	7.85
282.692	39.85
282.826	8.85
282.961	17.85
283.095	0.85
283.229	-10.15
283.364	-24.15
283.498	10.85
283.633	4.85
283.767	18.85
283.901	13.85
284.036	10.85
284.17	6.85
284.304	-1.15
284.439	9.85
284.573	-0.15
284.707	8.85
284.842	4.85
284.976	11.85
285.11	-5.15
285.244	1.85
285.379	38.85
285.513	-4.15
285.647	12.85
285.781	15.85
285.916	23.85
286.05	-8.15
286.184	26.85
286.318	13.85
286.453	0.85
286.587	-10.15
286.721	-0.15
286.855	0.85
286.989	24.85
287.123	16.85
287.258	-6.15
287.392	9.85
287.526	13.85
287.66	-3.15
287.794	13.85
287.928	-10.15
288.062	17.85
288.196	12.85
288.33	6.85
288.464	24.85
288.598	25.85
288.733	5.85
288.867	8.85
289.001	18.85
289.135	-3.15
289.269	0.85
289.403	1.85
289.537	-8.15
289.671	4.85
289.805	-9.15
289.939	7.85
290.073	-19.15
290.207	-0.15
290.34	-2.15
290.474	8.85
290.608	7.85
290.742	3.85
290.876	16.85
291.01	14.85
291.144	23.85
291.278	5.85
291.412	-6.15
291.546	-6.15
291.679	0.85
291.813	4.85
291.947	-2.15
292.081	-7.15
292.215	7.85
292.349	1.85
292.482	-1.15
292.616	3.85
292.75	23.85
292.884	2.85
293.018	8.85
293.151	-8.15
293.285	6.85
293.419	6.85
293.553	6.85
293.686	-0.15
293.82	-8.15
293.954	17.85
294.088	21.85
294.221	13.85
294.355	-1.15
294.489	8.85
294.622	10.85
294.756	9.85
294.89	3.85
295.023	-6.15
295.157	23.85
295.291	10.85
295.424	12.85
295.558	19.85
295.691	10.85
295.825	9.85
295.959	18.85
296.092	-8.15
296.226	13.85
296.359	9.85
296.493	14.85
296.627	10.85
296.76	-0.15
296.894	-4.15
297.027	5.85
297.161	9.85
297.294	-7.15
297.428	13.85
297.561	18.85
297.695	7.85
297.828	-4.15
297.962	3.85
298.095	-7.15
298.229	18.85
298.362	8.85
298.495	1.85
298.629	-19.15
298.762	0.85
298.896	-3.15
299.029	-7.15
299.162	-1.15
299.296	15.85
299.429	-16.15
299.563	11.85
299.696	23.85
299.829	9.85
299.963	17.85
300.096	15.85
300.229	10.85
300.363	10.85
300.496	14.85
300.629	-14.15
300.763	-8.15
300.896	-4.15
301.029	-7.15
301.162	9.85
301.296	-5.15
301.429	-7.15
301.562	-20.15
301.695	1.85
301.829	-3.15
301.962	4.85
302.095	16.85
302.228	-4.15
302.362	4.85
302.495	-8.15
302.628	-1.15
302.761	2.85
302.894	9.85
303.027	28.85
303.161	-5.15
303.294	0.85
303.427	19.85
303.56	16.85
303.693	9.85
303.826	7.85
303.959	10.85
304.092	16.85
304.225	12.85
304.359	9.85
304.492	8.85
304.625	-9.15
304.758	-1.15
304.891	-4.15
305.024	7.85
305.157	6.85
305.29	-6.15
305.423	2.85
305.556	22.85
305.689	24.85
305.822	19.85
305.955	-2.15
306.088	-9.15
306.221	1.85
306.354	-13.15
306.487	-9.15
306.62	-7.15
306.752	13.85
306.885	17.85
307.018	7.85
307.151	12.85
307.284	20.85
307.417	3.85
307.55	20.85
307.683	11.85
307.816	24.85
307.948	8.85
308.081	16.85
308.214	17.85
308.347	29.85
308.48	-2.15
308.613	-20.15
308.745	11.85
308.878	-16.15
309.011	17.85
309.144	-5.15
309.277	-15.15
309.409	13.85
309.542	-1.15
309.675	7.85
309.808	2.85
309.94	31.85
310.073	-10.15
310.206	-8.15
310.339	8.85
310.471	-17.15
310.604	21.85
310.737	-0.15
310.869	-1.15
311.002	-1.15
311.135	-0.15
311.267	-3.15
311.4	9.85
311.533	36.85
311.665	6.85
311.798	3.85
311.93	-3.15
312.063	15.85
312.196	21.85
312.328	5.85
312.461	-1.15
312.593	3.85
312.726	12.85
312.859	11.85
312.991	16.85
313.124	-12.15
313.256	0.85
313.389	2.85
313.521	14.85
313.654	-2.15
313.786	-33.15
313.919	-16.15
314.051	16.85
314.184	-2.15
314.316	-10.15
314.449	-20.15
314.581	-2.15
314.714	8.85
314.846	14.85
314.978	-6.15
315.111	-6.15
315.243	29.85
315.376	17.85
315.508	3.85
315.641	6.85
315.773	17.85
315.905	24.85
316.038	4.85
316.17	6.85
316.302	-9.15
316.435	10.85
316.567	5.85
316.699	26.85
316.832	8.85
316.964	-11.15
317.096	-3.15
317.229	1.85
317.361	-17.15
317.493	-3.15
317.625	-11.15
317.758	12.85
317.89	1.85
318.022	15.85
318.155	-2.15
318.287	13.85
318.419	-7.15
318.551	-5.15
318.683	3.85
318.816	-4.15
318.948	3.85
319.08	-3.15
319.212	7.85
319.344	16.85
319.477	-2.15
319.609	6.85
319.741	21.85
319.873	1.85
320.005	3.85
320.137	0.85
320.269	5.85
320.401	1.85
320.534	9.85
320.666	-6.15
320.798	4.85
320.93	-1.15
321.062	-3.15
321.194	11.85
321.326	-4.15
321.458	2.85
321.59	0.85
321.722	-17.15
321.854	0.85
321.986	23.85
322.118	-3.15
322.25	-5.15
322.382	-1.15
322.514	-9.15
322.646	1.85
322.778	25.85
322.91	15.85
323.042	20.85
323.174	-3.15
323.306	-5.15
323.438	-8.15
323.57	8.85
323.702	0.85
323.834	-0.15
323.966	-9.15
324.097	0.85
324.229	7.85
324.361	20.85
324.493	8.85
324.625	-6.15
324.757	27.85
324.889	-2.15
325.021	6.85
325.152	26.85
325.284	18.85
325.416	6.85
325.548	23.85
325.68	15.85
325.811	6.85
325.943	23.85
326.075	7.85
326.207	9.85
326.339	15.85
326.47	7.85
326.602	12.85
326.734	22.85
326.866	13.85
326.997	0.85
327.129	-9.15
327.261	-7.15
327.392	1.85
327.524	12.85
327.656	-0.15
327.787	12.85
327.919	9.85
328.051	10.85
328.182	20.85
328.314	21.85
328.446	21.85
328.577	7.85
328.709	9.85
328.841	-5.15
328.972	-8.15
329.104	-14.15
329.235	-0.15
329.367	-12.15
329.499	4.85
329.63	17.85
329.762	17.85
329.893	19.85
330.025	2.85
330.156	-5.15
330.288	-4.15
330.419	19.85
330.551	9.85
330.683	14.85
330.814	17.85
330.946	23.85
331.077	4.85
331.208	-7.15
331.34	-5.15
331.471	-1.15
331.603	6.85
331.734	-15.15
331.866	8.85
331.997	28.85
332.129	4.85
332.26	16.85
332.392	22.85
332.523	4.85
332.654	-3.15
332.786	14.85
332.917	3.85
333.048	24.85
333.18	13.85
333.311	-15.15
333.443	-2.15
333.574	10.85
333.705	12.85
333.837	-4.15
333.968	10.85
334.099	26.85
334.231	21.85
334.362	13.85
334.493	14.85
334.624	20.85
334.756	10.85
334.887	9.85
335.018	8.85
335.15	14.85
335.281	8.85
335.412	40.85
335.543	20.85
335.675	12.85
335.806	9.85
335.937	-6.15
336.068	-1.15
336.199	27.85
336.331	6.85
336.462	23.85
336.593	10.85
336.724	-10.15
336.855	12.85
336.986	12.85
337.118	17.85
337.249	27.85
337.38	1.85
337.511	18.85
337.642	22.85
337.773	6.85
337.904	-0.15
338.035	22.85
338.166	4.85
338.298	7.85
338.429	21.85
338.56	29.85
338.691	28.85
338.822	13.85
338.953	-8.15
339.084	17.85
339.215	23.85
339.346	-0.15
339.477	13.85
339.608	10.85
339.739	6.85
339.87	10.85
340.001	15.85
340.132	18.85
340.263	20.85
340.394	12.85
340.525	26.85
340.656	-7.15
340.787	0.85
340.918	24.85
341.049	25.85
341.179	-11.15
341.31	6.85
341.441	19.85
341.572	24.85
341.703	14.85
341.834	-16.15
341.965	8.85
342.096	-3.15
342.227	13.85
342.357	5.85
342.488	-0.15
342.619	13.85
342.75	19.85
342.881	-5.15
343.012	18.85
343.142	29.85
343.273	-0.15
343.404	4.85
343.535	28.85
343.666	20.85
343.796	13.85
343.927	16.85
344.058	7.85
344.189	26.85
344.319	13.85
344.45	7.85
344.581	18.85
344.712	-1.15
344.842	12.85
344.973	19.85
345.104	0.85
345.234	1.85
345.365	-9.15
345.496	3.85
345.626	12.85
345.757	4.85
345.888	1.85
346.018	18.85
346.149	-7.15
346.28	11.85
346.41	3.85
346.541	16.85
346.672	0.85
346.802	5.85
346.933	11.85
347.063	8.85
347.194	-0.15
347.325	20.85
347.455	13.85
347.586	-0.15
347.716	-8.15
347.847	13.85
347.977	14.85
348.108	11.85
348.238	13.85
348.369	18.85
348.499	5.85
348.63	6.85
348.76	0.85
348.891	13.85
349.021	22.85
349.152	0.85
349.282	2.85
349.413	-4.15
349.543	7.85
349.674	3.85
349.804	30.85
349.935	-19.15
350.065	5.85
350.196	-4.15
350.326	0.85
350.456	8.85
350.587	20.85
350.717	20.85
350.848	13.85
350.978	6.85
351.108	3.85
351.239	8.85
351.369	-3.15
351.499	17.85
351.63	15.85
351.76	15.85
351.89	3.85
352.021	14.85
352.151	-1.15
352.281	11.85
352.412	9.85
352.542	0.85
352.672	1.85
352.803	-0.15
352.933	-0.15
353.063	-4.15
353.193	24.85
353.324	8.85
353.454	22.85
353.584	7.85
353.714	-0.15
353.845	5.85
353.975	5.85
354.105	-5.15
354.235	1.85
354.365	-3.15
354.496	0.85
354.626	20.85
354.756	0.85
354.886	2.85
355.016	14.85
355.146	4.85
355.277	-0.15
355.407	2.85
355.537	22.85
355.667	5.85
355.797	2.85
355.927	-4.15
356.057	15.85
356.187	-3.15
356.318	2.85
356.448	5.85
356.578	9.85
356.708	3.85
356.838	20.85
356.968	12.85
357.098	8.85
357.228	15.85
357.358	21.85
357.488	4.85
357.618	15.85
357.748	25.85
357.878	-3.15
358.008	9.85
358.138	6.85
358.268	-1.15
358.398	18.85
358.528	-8.15
358.658	-0.15
358.788	12.85
358.918	15.85
359.048	-16.15
359.178	5.85
359.308	34.85
359.438	25.85
359.568	27.85
359.698	4.85
359.827	10.85
359.957	16.85
360.087	28.85
360.217	-8.15
360.347	9.85
360.477	42.85
360.607	5.85
360.737	25.85
360.866	8.85
360.996	0.85
361.126	-2.15
361.256	21.85
361.386	24.85
361.516	16.85
361.645	-1.15
361.775	16.85
361.905	-7.15
362.035	7.85
362.165	17.85
362.294	22.85
362.424	22.85
362.554	21.85
362.684	3.85
362.813	-2.15
362.943	17.85
363.073	5.85
363.203	2.85
363.332	13.85
363.462	-2.15
363.592	7.85
363.721	-2.15
363.851	14.85
363.981	9.85
364.111	-8.15
364.24	-8.15
364.37	6.85
364.5	23.85
364.629	5.85
364.759	-10.15
364.888	-18.15
365.018	7.85
365.148	7.85
365.277	3.85
365.407	18.85
365.537	24.85
365.666	8.85
365.796	0.85
365.925	-0.15
366.055	17.85
366.184	10.85
366.314	22.85
366.444	20.85
366.573	18.85
366.703	0.85
366.832	19.85
366.962	15.85
367.091	30.85
367.221	18.85
367.35	-0.15
367.48	48.85
367.609	10.85
367.739	20.85
367.868	0.85
367.998	3.85
368.127	23.85
368.257	28.85
368.386	36.85
368.516	25.85
368.645	3.85
368.775	23.85
368.904	13.85
369.033	6.85
369.163	-6.15
369.292	10.85
369.422	26.85
369.551	26.85
369.68	36.85
369.81	19.85
369.939	8.85
370.069	23.85
370.198	23.85
370.327	-1.15
370.457	6.85
370.586	24.85
370.715	1.85
370.845	19.85
370.974	18.85
371.103	18.85
371.233	8.85
371.362	15.85
371.491	-3.15
371.621	23.85
371.75	0.85
371.879	-14.15
372.008	-0.15
372.138	12.85
372.267	3.85
372.396	23.85
372.525	23.85
372.655	3.85
372.784	3.85
372.913	2.85
373.042	9.85
373.172	25.85
373.301	1.85
373.43	-10.15
373.559	12.85
373.688	27.85
373.818	34.85
373.947	21.85
374.076	12.85
374.205	18.85
374.334	15.85
374.463	4.85
374.593	20.85
374.722	20.85
374.851	14.85
374.98	8.85
375.109	10.85
375.238	19.85
375.367	40.85
375.496	-7.15
375.625	-5.15
375.755	23.85
375.884	9.85
376.013	16.85
376.142	5.85
376.271	9.85
376.4	16.85
376.529	12.85
376.658	17.85
376.787	10.85
376.916	12.85
377.045	5.85
377.174	14.85
377.303	-2.15
377.432	33.85
377.561	22.85
377.69	4.85
377.819	32.85
377.948	-2.15
378.077	-2.15
378.206	-8.15
378.335	-1.15
378.464	26.85
378.593	47.85
378.722	16.85
378.851	1.85
378.98	30.85
379.108	5.85
379.237	3.85
379.366	29.85
379.495	22.85
379.624	25.85
379.753	14.85
379.882	5.85
380.011	0.85
380.14	5.85
380.268	10.85
380.397	-2.15
380.526	25.85
380.655	-2.15
380.784	-2.15
380.913	8.85
381.041	-3.15
381.17	-3.15
381.299	-1.15
381.428	17.85
381.557	-5.15
381.685	1.85
381.814	12.85
381.943	-8.15
382.072	-3.15
382.2	3.85
382.329	16.85
382.458	-1.15
382.587	29.85
382.715	20.85
382.844	4.85
382.973	17.85
383.102	15.85
383.23	9.85
383.359	-2.15
383.488	36.85
383.616	6.85
383.745	-2.15
383.874	18.85
384.003	16.85
384.131	2.85
384.26	7.85
384.389	4.85
384.517	-8.15
384.646	10.85
384.774	18.85
384.903	21.85
385.032	29.85
385.16	12.85
385.289	-0.15
385.418	-2.15
385.546	19.85
385.675	15.85
385.803	-1.15
385.932	13.85
386.06	7.85
386.189	23.85
386.318	30.85
386.446	6.85
386.575	-1.15
386.703	28.85
386.832	18.85
386.96	-18.15
387.089	16.85
387.217	17.85
387.346	-7.15
387.474	7.85
387.603	13.85
387.731	10.85
387.86	16.85
387.988	-0.15
388.117	16.85
388.245	5.85
388.374	4.85
388.502	17.85
388.631	5.85
388.759	10.85
388.888	11.85
389.016	4.85
389.144	-3.15
389.273	18.85
389.401	-4.15
389.53	0.85
389.658	21.85
389.786	0.85
389.915	-4.15
390.043	8.85
390.172	5.85
390.3	22.85
390.428	24.85
390.557	3.85
390.685	19.85
390.813	14.85
390.942	8.85
391.07	-4.15
391.198	11.85
391.327	19.85
391.455	7.85
391.583	29.85
391.712	16.85
391.84	9.85
391.968	7.85
392.096	11.85
392.225	13.85
392.353	20.85
392.481	-8.15
392.609	17.85
392.738	18.85
392.866	8.85
392.994	-3.15
393.122	11.85
393.251	9.85
393.379	-0.15
393.507	7.85
393.635	-12.15
393.764	5.85
393.892	7.85
394.02	-4.15
394.148	13.85
394.276	22.85
394.404	44.85
394.533	12.85
394.661	23.85
394.789	13.85
394.917	40.85
395.045	15.85
395.173	-4.15
395.302	4.85
395.43	12.85
395.558	24.85
395.686	21.85
395.814	35.85
395.942	11.85
396.07	1.85
396.198	1.85
396.326	13.85
396.454	27.85
396.582	4.85
396.711	13.85
396.839	1.85
396.967	26.85
397.095	7.85
397.223	19.85
397.351	13.85
397.479	17.85
397.607	22.85
397.735	28.85
397.863	26.85
397.991	23.85
398.119	-3.15
398.247	3.85
398.375	-10.15
398.503	17.85
398.631	11.85
398.759	1.85
398.887	16.85
399.015	4.85
399.143	-2.15
399.271	18.85
399.399	13.85
399.526	2.85
399.654	15.85
399.782	-5.15
399.91	26.85
400.038	21.85
400.166	11.85
400.294	5.85
400.422	-2.15
400.55	7.85
400.678	9.85
400.805	13.85
400.933	15.85
401.061	13.85
401.189	-0.15
401.317	40.85
401.445	32.85
401.573	33.85
401.7	17.85
401.828	3.85
401.956	-8.15
402.084	13.85
402.212	25.85
402.34	37.85
402.467	17.85
402.595	16.85
402.723	12.85
402.851	33.85
402.978	15.85
403.106	18.85
403.234	31.85
403.362	40.85
403.489	21.85
403.617	25.85
403.745	24.85
403.873	3.85
404	12.85
404.128	5.85
404.256	29.85
404.384	6.85
404.511	5.85
404.639	12.85
404.767	12.85
404.894	17.85
405.022	17.85
405.15	13.85
405.277	1.85
405.405	1.85
405.533	30.85
405.66	12.85
405.788	-10.15
405.916	-13.15
406.043	-3.15
406.171	2.85
406.299	14.85
406.426	33.85
406.554	28.85
406.681	32.85
406.809	10.85
406.937	10.85
407.064	14.85
407.192	31.85
407.319	19.85
407.447	1.85
407.574	39.85
407.702	5.85
407.83	11.85
407.957	8.85
408.085	26.85
408.212	8.85
408.34	1.85
408.467	8.85
408.595	9.85
408.722	22.85
408.85	10.85
408.977	9.85
409.105	-3.15
409.232	0.85
409.36	-0.15
409.487	1.85
409.615	13.85
409.742	40.85
409.87	31.85
409.997	56.85
410.125	49.85
410.252	61.85
410.379	40.85
410.507	30.85
410.634	3.85
410.762	17.85
410.889	17.85
411.017	23.85
411.144	10.85
411.271	16.85
411.399	28.85
411.526	-2.15
411.653	19.85
411.781	21.85
411.908	31.85
412.036	26.85
412.163	26.85
412.29	28.85
412.418	17.85
412.545	29.85
412.672	-7.15
412.8	39.85
412.927	27.85
413.054	20.85
413.182	5.85
413.309	26.85
413.436	-8.15
413.564	-8.15
413.691	0.85
413.818	45.85
413.945	8.85
414.073	4.85
414.2	16.85
414.327	2.85
414.454	11.85
414.582	12.85
414.709	-7.15
414.836	15.85
414.963	15.85
415.091	17.85
415.218	-0.15
415.345	12.85
415.472	14.85
415.6	-8.15
415.727	9.85
415.854	9.85
415.981	10.85
416.108	15.85
416.236	14.85
416.363	6.85
416.49	3.85
416.617	7.85
416.744	2.85
416.871	12.85
416.998	8.85
417.126	5.85
417.253	-7.15
417.38	-9.15
417.507	10.85
417.634	13.85
417.761	29.85
417.888	15.85
418.015	-2.15
418.143	18.85
418.27	34.85
418.397	13.85
418.524	12.85
418.651	3.85
418.778	13.85
418.905	42.85
419.032	9.85
419.159	23.85
419.286	36.85
419.413	36.85
419.54	36.85
419.667	2.85
419.794	7.85
419.921	13.85
420.048	24.85
420.175	15.85
420.302	4.85
420.429	27.85
420.556	4.85
420.683	2.85
420.81	-5.15
420.937	12.85
421.064	19.85
421.191	3.85
421.318	29.85
421.445	35.85
421.572	-1.15
421.699	27.85
421.826	18.85
421.953	8.85
422.08	15.85
422.207	6.85
422.334	0.85
422.461	8.85
422.588	-0.15
422.714	15.85
422.841	33.85
422.968	23.85
423.095	4.85
423.222	1.85
423.349	7.85
423.476	17.85
423.603	-17.15
423.729	-6.15
423.856	-10.15
423.983	20.85
424.11	5.85
424.237	12.85
424.364	27.85
424.491	8.85
424.617	2.85
424.744	-1.15
424.871	-0.15
424.998	-0.15
425.125	2.85
425.251	1.85
425.378	3.85
425.505	12.85
425.632	15.85
425.758	-9.15
425.885	9.85
426.012	26.85
426.139	24.85
426.266	-1.15
426.392	-0.15
426.519	18.85
426.646	12.85
426.772	18.85
426.899	20.85
427.026	5.85
427.153	6.85
427.279	19.85
427.406	14.85
427.533	24.85
427.659	18.85
427.786	15.85
427.913	21.85
428.039	7.85
428.166	-4.15
428.293	14.85
428.419	5.85
428.546	12.85
428.673	1.85
428.799	-9.15
428.926	4.85
429.053	27.85
429.179	20.85
429.306	12.85
429.433	15.85
429.559	20.85
429.686	-7.15
429.812	-5.15
429.939	7.85
430.066	7.85
430.192	-6.15
430.319	13.85
430.445	10.85
430.572	11.85
430.699	2.85
430.825	5.85
430.952	1.85
431.078	8.85
431.205	18.85
431.331	24.85
431.458	15.85
431.584	9.85
431.711	-1.15
431.837	1.85
431.964	3.85
432.09	9.85
432.217	-1.15
432.343	13.85
432.47	17.85
432.596	11.85
432.723	-4.15
432.849	4.85
432.976	33.85
433.102	13.85
433.229	-0.15
433.355	41.85
433.482	80.85
433.608	150.85
433.735	141.85
433.861	128.85
433.987	178.85
434.114	238.85
434.24	193.85
434.367	93.85
434.493	19.85
434.62	21.85
434.746	33.85
434.872	19.85
434.999	31.85
435.125	9.85
435.252	-1.15
435.378	7.85
435.504	12.85
435.631	14.85
435.757	-0.15
435.883	14.85
436.01	-3.15
436.136	16.85
436.262	29.85
436.389	13.85
436.515	32.85
436.641	30.85
436.768	31.85
436.894	30.85
437.02	10.85
437.147	15.85
437.273	2.85
437.399	0.85
437.526	13.85
437.652	14.85
437.778	24.85
437.904	1.85
438.031	9.85
438.157	7.85
438.283	18.85
438.409	16.85
438.536	11.85
438.662	26.85
438.788	9.85
438.914	25.85
439.041	22.85
439.167	20.85
439.293	16.85
439.419	-7.15
439.546	35.85
439.672	24.85
439.798	17.85
439.924	18.85
440.05	36.85
440.177	14.85
440.303	10.85
440.429	1.85
440.555	1.85
440.681	13.85
440.807	22.85
440.934	-2.15
441.06	6.85
441.186	10.85
441.312	8.85
441.438	25.85
441.564	26.85
441.69	24.85
441.816	5.85
441.943	10.85
442.069	14.85
442.195	1.85
442.321	22.85
442.447	15.85
442.573	17.85
442.699	-1.15
442.825	3.85
442.951	0.85
443.077	31.85
443.203	22.85
443.33	8.85
443.456	-17.15
443.582	8.85
443.708	-2.15
443.834	17.85
443.96	31.85
444.086	14.85
444.212	36.85
444.338	32.85
444.464	25.85
444.59	24.85
444.716	1.85
444.842	33.85
444.968	5.85
445.094	1.85
445.22	10.85
445.346	-3.15
445.472	8.85
445.598	20.85
445.724	-8.15
445.85	14.85
445.976	21.85
446.102	15.85
446.228	29.85
446.354	15.85
446.48	7.85
446.605	20.85
446.731	25.85
446.857	8.85
446.983	21.85
447.109	18.85
447.235	10.85
447.361	-5.15
447.487	15.85
447.613	20.85
447.739	4.85
447.865	12.85
447.99	11.85
448.116	19.85
448.242	17.85
448.368	20.85
448.494	15.85
448.62	14.85
448.746	18.85
448.872	5.85
448.997	-6.15
449.123	4.85
449.249	25.85
449.375	21.85
449.501	-13.15
449.627	-8.15
449.752	17.85
449.878	-2.15
450.004	7.85
450.13	20.85
450.256	-1.15
450.381	0.85
450.507	10.85
450.633	21.85
450.759	20.85
450.884	27.85
451.01	31.85
451.136	7.85
451.262	18.85
451.388	3.85
451.513	-6.15
451.639	29.85
451.765	10.85
451.89	30.85
452.016	23.85
452.142	-9.15
452.268	12.85
452.393	25.85
452.519	9.85
452.645	16.85
452.771	3.85
452.896	5.85
453.022	12.85
453.148	31.85
453.273	16.85
453.399	20.85
453.525	1.85
453.65	-8.15
453.776	14.85
453.902	17.85
454.027	11.85
454.153	32.85
454.279	25.85
454.404	20.85
454.53	41.85
454.656	26.85
454.781	11.85
454.907	14.85
455.032	21.85
455.158	37.85
455.284	34.85
455.409	22.85
455.535	7.85
455.66	17.85
455.786	11.85
455.912	10.85
456.037	1.85
456.163	8.85
456.288	26.85
456.414	-1.15
456.539	-7.15
456.665	14.85
456.791	17.85
456.916	6.85
457.042	11.85
457.167	-12.15
457.293	21.85
457.418	9.85
457.544	17.85
457.669	17.85
457.795	2.85
457.92	3.85
458.046	10.85
458.171	16.85
458.297	7.85
458.422	-14.15
458.548	-8.15
458.673	12.85
458.799	20.85
458.924	4.85
459.05	34.85
459.175	9.85
459.301	17.85
459.426	22.85
459.552	26.85
459.677	11.85
459.803	28.85
459.928	10.85
460.053	-5.15
460.179	20.85
460.304	9.85
460.43	-5.15
460.555	21.85
460.681	9.85
460.806	8.85
460.931	17.85
461.057	38.85
461.182	9.85
461.308	17.85
461.433	20.85
461.558	17.85
461.684	14.85
461.809	12.85
461.934	20.85
462.06	57.85
462.185	-4.15
462.311	13.85
462.436	24.85
462.561	20.85
462.687	0.85
462.812	6.85
462.937	-3.15
463.063	-1.15
463.188	9.85
463.313	20.85
463.439	23.85
463.564	22.85
463.689	18.85
463.814	29.85
463.94	21.85
464.065	16.85
464.19	27.85
464.316	17.85
464.441	21.85
464.566	3.85
464.692	1.85
464.817	3.85
464.942	10.85
465.067	4.85
465.193	-14.15
465.318	0.85
465.443	14.85
465.568	-2.15
465.694	-2.15
465.819	6.85
465.944	5.85
466.069	8.85
466.194	25.85
466.32	25.85
466.445	17.85
466.57	0.85
466.695	11.85
466.82	6.85
466.946	11.85
467.071	3.85
467.196	8.85
467.321	38.85
467.446	17.85
467.572	10.85
467.697	4.85
467.822	11.85
467.947	22.85
468.072	-9.15
468.197	-10.15
468.323	6.85
468.448	-4.15
468.573	-3.15
468.698	0.85
468.823	33.85
468.948	24.85
469.073	21.85
469.198	32.85
469.324	23.85
469.449	6.85
469.574	18.85
469.699	11.85
469.824	24.85
469.949	10.85
470.074	27.85
470.199	44.85
470.324	22.85
470.449	21.85
470.574	0.85
470.7	20.85
470.825	33.85
470.95	17.85
471.075	2.85
471.2	15.85
471.325	25.85
471.45	7.85
471.575	5.85
471.7	38.85
471.825	19.85
471.95	7.85
472.075	-1.15
472.2	-5.15
472.325	10.85
472.45	7.85
472.575	22.85
472.7	20.85
472.825	31.85
472.95	36.85
473.075	15.85
473.2	19.85
473.325	12.85
473.45	-1.15
473.575	0.85
473.7	18.85
473.825	26.85
473.95	27.85
474.075	27.85
474.2	2.85
474.325	26.85
474.45	38.85
474.574	2.85
474.699	37.85
474.824	31.85
474.949	15.85
475.074	4.85
475.199	35.85
475.324	25.85
475.449	22.85
475.574	10.85
475.699	22.85
475.824	32.85
475.949	18.85
476.073	6.85
476.198	30.85
476.323	12.85
476.448	23.85
476.573	14.85
476.698	13.85
476.823	19.85
476.947	19.85
477.072	4.85
477.197	32.85
477.322	-1.15
477.447	-3.15
477.572	26.85
477.697	1.85
477.821	-3.15
477.946	36.85
478.071	29.85
478.196	30.85
478.321	11.85
478.445	5.85
478.57	10.85
478.695	13.85
478.82	25.85
478.945	6.85
479.069	1.85
479.194	9.85
479.319	24.85
479.444	37.85
479.569	10.85
479.693	18.85
479.818	14.85
479.943	35.85
480.068	14.85
480.192	20.85
480.317	28.85
480.442	20.85
480.567	15.85
480.691	24.85
480.816	33.85
480.941	17.85
481.066	33.85
481.19	43.85
481.315	27.85
481.44	19.85
481.564	19.85
481.689	31.85
481.814	23.85
481.938	26.85
482.063	17.85
482.188	5.85
482.313	33.85
482.437	19.85
482.562	28.85
482.687	41.85
482.811	24.85
482.936	41.85
483.061	30.85
483.185	21.85
483.31	37.85
483.435	33.85
483.559	29.85
483.684	18.85
483.808	32.85
483.933	44.85
484.058	21.85
484.182	22.85
484.307	1.85
484.432	30.85
484.556	36.85
484.681	24.85
484.805	13.85
484.93	33.85
485.055	39.85
485.179	86.85
485.304	115.85
485.428	376.85
485.553	1249.85
485.678	1765.85
485.802	1673.85
485.927	1811.85
486.051	2678.85
486.176	1659.85
486.3	458.85
486.425	172.85
486.549	83.85
486.674	79.85
486.799	52.85
486.923	29.85
487.048	29.85
487.172	26.85
487.297	15.85
487.421	22.85
487.546	23.85
487.67	25.85
487.795	23.85
487.919	9.85
488.044	24.85
488.168	44.85
488.293	31.85
488.417	3.85
488.542	47.85
488.666	32.85
488.791	24.85
488.915	25.85
489.04	20.85
489.164	24.85
489.289	28.85
489.413	11.85
489.538	12.85
489.662	30.85
489.786	18.85
489.911	22.85
490.035	12.85
490.16	11.85
490.284	13.85
490.409	21.85
490.533	39.85
490.658	37.85
490.782	21.85
490.906	23.85
491.031	19.85
491.155	35.85
491.28	17.85
491.404	24.85
491.528	14.85
491.653	-3.15
491.777	40.85
491.902	6.85
492.026	23.85
492.15	22.85
492.275	41.85
492.399	30.85
492.524	15.85
492.648	43.85
492.772	24.85
492.897	20.85
493.021	9.85
493.145	28.85
493.27	32.85
493.394	25.85
493.518	15.85
493.643	10.85
493.767	44.85
493.891	10.85
494.016	18.85
494.14	28.85
494.264	7.85
494.389	8.85
494.513	8.85
494.637	12.85
494.762	32.85
494.886	30.85
495.01	42.85
495.134	19.85
495.259	48.85
495.383	4.85
495.507	17.85
495.632	37.85
495.756	53.85
495.88	33.85
496.004	22.85
496.129	15.85
496.253	30.85
496.377	20.85
496.501	51.85
496.626	5.85
496.75	21.85
496.874	39.85
496.998	14.85
497.123	41.85
497.247	32.85
497.371	9.85
497.495	17.85
497.62	13.85
497.744	6.85
497.868	15.85
497.992	22.85
498.116	5.85
498.241	23.85
498.365	26.85
498.489	10.85
498.613	27.85
498.737	4.85
498.862	21.85
498.986	4.85
499.11	9.85
499.234	15.85
499.358	-3.15
499.482	16.85
499.607	34.85
499.731	19.85
499.855	38.85
499.979	37.85
500.103	22.85
500.227	32.85
500.351	31.85
500.476	23.85
500.6	18.85
500.724	30.85
500.848	6.85
500.972	12.85
501.096	14.85
501.22	34.85
501.344	12.85
501.469	31.85
501.593	24.85
501.717	32.85
501.841	5.85
501.965	-2.15
502.089	15.85
502.213	25.85
502.337	0.85
502.461	3.85
502.585	17.85
502.709	30.85
502.834	0.85
502.958	8.85
503.082	23.85
503.206	12.85
503.33	32.85
503.454	18.85
503.578	43.85
503.702	15.85
503.826	31.85
503.95	27.85
504.074	14.85
504.198	14.85
504.322	-0.15
504.446	-0.15
504.57	18.85
504.694	28.85
504.818	24.85
504.942	39.85
505.066	19.85
505.19	17.85
505.314	18.85
505.438	20.85
505.562	1.85
505.686	30.85
505.81	5.85
505.934	18.85
506.058	17.85
506.182	9.85
506.306	18.85
506.43	4.85
506.554	7.85
506.678	19.85
506.802	22.85
506.926	34.85
507.05	16.85
507.174	30.85
507.298	32.85
507.422	27.85
507.546	27.85
507.67	32.85
507.794	7.85
507.918	23.85
508.042	24.85
508.165	-7.15
508.289	19.85
508.413	15.85
508.537	8.85
508.661	17.85
508.785	23.85
508.909	37.85
509.033	24.85
509.157	24.85
509.281	29.85
509.405	24.85
509.528	18.85
509.652	16.85
509.776	12.85
509.9	37.85
510.024	19.85
510.148	7.85
510.272	14.85
510.396	27.85
510.519	8.85
510.643	18.85
510.767	15.85
510.891	22.85
511.015	29.85
511.139	32.85
511.263	36.85
511.386	15.85
511.51	29.85
511.634	7.85
511.758	12.85
511.882	-5.15
512.006	25.85
512.129	26.85
512.253	45.85
512.377	6.85
512.501	22.85
512.625	30.85
512.748	6.85
512.872	-7.15
512.996	7.85
513.12	22.85
513.244	-0.15
513.367	17.85
513.491	8.85
513.615	29.85
513.739	15.85
513.862	16.85
513.986	14.85
514.11	38.85
514.234	23.85
514.358	19.85
514.481	20.85
514.605	6.85
514.729	10.85
514.853	25.85
514.976	5.85
515.1	0.85
515.224	35.85
515.348	8.85
515.471	5.85
515.595	36.85
515.719	23.85
515.842	45.85
515.966	19.85
516.09	53.85
516.214	33.85
516.337	43.85
516.461	22.85
516.585	32.85
516.708	14.85
516.832	29.85
516.956	33.85
517.08	26.85
517.203	13.85
517.327	7.85
517.451	33.85
517.574	38.85
517.698	6.85
517.822	15.85
517.945	49.85
518.069	47.85
518.193	58.85
518.316	28.85
518.44	26.85
518.564	27.85
518.687	20.85
518.811	23.85
518.935	50.85
519.058	30.85
519.182	41.85
519.306	29.85
519.429	23.85
519.553	68.85
519.676	40.85
519.8	37.85
519.924	7.85
520.047	16.85
520.171	11.85
520.294	9.85
520.418	18.85
520.542	9.85
520.665	29.85
520.789	25.85
520.913	7.85
521.036	0.85
521.16	6.85
521.283	28.85
521.407	11.85
521.53	7.85
521.654	-0.15
521.778	37.85
521.901	22.85
522.025	3.85
522.148	8.85
522.272	14.85
522.395	12.85
522.519	16.85
522.643	19.85
522.766	29.85
522.89	19.85
523.013	22.85
523.137	0.85
523.26	15.85
523.384	17.85
523.507	23.85
523.631	16.85
523.754	20.85
523.878	20.85
524.002	23.85
524.125	3.85
524.249	4.85
524.372	22.85
524.496	10.85
524.619	19.85
524.743	-0.15
524.866	25.85
524.99	20.85
525.113	-2.15
525.237	28.85
525.36	11.85
525.484	0.85
525.607	12.85
525.731	-7.15
525.854	20.85
525.978	38.85
526.101	15.85
526.224	0.85
526.348	19.85
526.471	10.85
526.595	11.85
526.718	16.85
526.842	12.85
526.965	17.85
527.089	27.85
527.212	27.85
527.336	20.85
527.459	16.85
527.582	7.85
527.706	33.85
527.829	29.85
527.953	19.85
528.076	0.85
528.2	3.85
528.323	25.85
528.446	27.85
528.57	15.85
528.693	39.85
528.817	24.85
528.94	18.85
529.064	40.85
529.187	20.85
529.31	12.85
529.434	6.85
529.557	1.85
529.68	4.85
529.804	14.85
529.927	14.85
530.051	-0.15
530.174	-1.15
530.297	4.85
530.421	28.85
530.544	37.85
530.668	34.85
530.791	9.85
530.914	39.85
531.038	8.85
531.161	7.85
531.284	21.85
531.408	29.85
531.531	12.85
531.654	10.85
531.778	16.85
531.901	-0.15
532.024	12.85
532.148	22.85
532.271	15.85
532.394	22.85
532.518	46.85
532.641	25.85
532.764	28.85
532.888	19.85
533.011	19.85
533.134	1.85
533.258	28.85
533.381	19.85
533.504	-0.15
533.628	16.85
533.751	21.85
533.874	-7.15
533.997	16.85
534.121	12.85
534.244	8.85
534.367	3.85
534.491	9.85
534.614	16.85
534.737	32.85
534.86	18.85
534.984	2.85
535.107	9.85
535.23	21.85
535.354	11.85
535.477	0.85
535.6	4.85
535.723	15.85
535.847	22.85
535.97	-9.15
536.093	15.85
536.216	5.85
536.34	11.85
536.463	-2.15
536.586	16.85
536.709	10.85
536.833	10.85
536.956	5.85
537.079	18.85
537.202	14.85
537.325	5.85
537.449	7.85
537.572	41.85
537.695	-4.15
537.818	-7.15
537.941	-2.15
538.065	20.85
538.188	11.85
538.311	30.85
538.434	15.85
538.558	19.85
538.681	16.85
538.804	25.85
538.927	24.85
539.05	13.85
539.173	4.85
539.297	15.85
539.42	28.85
539.543	35.85
539.666	28.85
539.789	26.85
539.913	12.85
540.036	12.85
540.159	14.85
540.282	13.85
540.405	-0.15
540.528	12.85
540.651	19.85
540.775	-3.15
540.898	10.85
541.021	18.85
541.144	42.85
541.267	31.85
541.39	13.85
541.513	35.85
541.637	5.85
541.76	9.85
541.883	13.85
542.006	12.85
542.129	45.85
542.252	0.85
542.375	3.85
542.498	-2.15
542.622	9.85
542.745	21.85
542.868	27.85
542.991	29.85
543.114	30.85
543.237	37.85
543.36	31.85
543.483	-0.15
543.606	12.85
543.73	22.85
543.853	8.85
543.976	5.85
544.099	35.85
544.222	13.85
544.345	12.85
544.468	-1.15
544.591	7.85
544.714	20.85
544.837	36.85
544.96	22.85
545.083	27.85
545.206	19.85
545.329	29.85
545.453	11.85
545.576	30.85
545.699	0.85
545.822	28.85
545.945	16.85
546.068	9.85
546.191	25.85
546.314	13.85
546.437	30.85
546.56	5.85
546.683	20.85
546.806	28.85
546.929	7.85
547.052	17.85
547.175	7.85
547.298	30.85
547.421	-0.15
547.544	0.85
547.667	11.85
547.79	29.85
547.913	1.85
548.036	-13.15
548.159	11.85
548.282	7.85
548.405	21.85
548.528	9.85
548.651	18.85
548.774	2.85
548.897	1.85
549.02	38.85
549.143	25.85
549.266	12.85
549.389	23.85
549.512	4.85
549.635	27.85
549.758	26.85
549.881	17.85
550.004	9.85
550.127	23.85
550.25	11.85
550.373	0.85
550.496	24.85
550.619	-2.15
550.742	9.85
550.865	2.85
550.988	31.85
551.111	36.85
551.234	22.85
551.356	2.85
551.479	27.85
551.602	15.85
551.725	28.85
551.848	22.85
551.971	24.85
552.094	16.85
552.217	2.85
552.34	10.85
552.463	-8.15
552.586	10.85
552.709	-0.15
552.832	13.85
552.955	35.85
553.077	17.85
553.2	22.85
553.323	-1.15
553.446	18.85
553.569	19.85
553.692	20.85
553.815	11.85
553.938	18.85
554.061	16.85
554.184	-0.15
554.306	19.85
554.429	15.85
554.552	25.85
554.675	5.85
554.798	19.85
554.921	13.85
555.044	1.85
555.167	20.85
555.29	12.85
555.412	-8.15
555.535	1.85
555.658	30.85
555.781	1.85
555.904	11.85
556.027	24.85
556.15	8.85
556.272	5.85
556.395	20.85
556.518	9.85
556.641	17.85
556.764	33.85
556.887	15.85
557.01	16.85
557.132	3.85
557.255	3.85
557.378	13.85
557.501	6.85
557.624	23.85
557.747	18.85
557.869	16.85
557.992	17.85
558.115	20.85
558.238	16.85
558.361	27.85
558.483	27.85
558.606	37.85
558.729	5.85
558.852	33.85
558.975	13.85
559.098	6.85
559.22	25.85
559.343	16.85
559.466	11.85
559.589	12.85
559.712	22.85
559.834	15.85
559.957	22.85
560.08	4.85
560.203	23.85
560.325	39.85
560.448	27.85
560.571	10.85
560.694	18.85
560.817	10.85
560.939	4.85
561.062	35.85
561.185	9.85
561.308	16.85
561.43	0.85
561.553	17.85
561.676	19.85
561.799	10.85
561.921	15.85
562.044	11.85
562.167	-6.15
562.29	26.85
562.413	38.85
562.535	28.85
562.658	3.85
562.781	-0.15
562.903	17.85
563.026	6.85
563.149	23.85
563.272	5.85
563.394	7.85
563.517	9.85
563.64	15.85
563.763	7.85
563.885	19.85
564.008	19.85
564.131	20.85
564.254	9.85
564.376	15.85
564.499	-2.15
564.622	7.85
564.744	26.85
564.867	17.85
564.99	14.85
565.113	23.85
565.235	9.85
565.358	12.85
565.481	5.85
565.603	1.85
565.726	7.85
565.849	11.85
565.971	18.85
566.094	4.85
566.217	21.85
566.34	14.85
566.462	1.85
566.585	5.85
566.708	25.85
566.83	19.85
566.953	30.85
567.076	8.85
567.198	18.85
567.321	3.85
567.444	24.85
567.566	-4.15
567.689	8.85
567.812	-2.15
567.934	7.85
568.057	-0.15
568.18	7.85
568.302	12.85
568.425	8.85
568.548	7.85
568.67	11.85
568.793	6.85
568.916	15.85
569.038	5.85
569.161	3.85
569.283	18.85
569.406	19.85
569.529	0.85
569.651	-0.15
569.774	-9.15
569.897	-1.15
570.019	28.85
570.142	8.85
570.265	8.85
570.387	21.85
570.51	15.85
570.632	25.85
570.755	-0.15
570.878	15.85
571	4.85
571.123	-6.15
571.246	26.85
571.368	11.85
571.491	-0.15
571.613	18.85
571.736	-3.15
571.859	10.85
571.981	8.85
572.104	7.85
572.226	13.85
572.349	3.85
572.472	17.85
572.594	19.85
572.717	20.85
572.839	3.85
572.962	18.85
573.085	9.85
573.207	11.85
573.33	27.85
573.452	18.85
573.575	22.85
573.697	26.85
573.82	19.85
573.943	4.85
574.065	17.85
574.188	12.85
574.31	19.85
574.433	23.85
574.555	33.85
574.678	10.85
574.801	15.85
574.923	8.85
575.046	16.85
575.168	20.85
575.291	9.85
575.413	13.85
575.536	9.85
575.659	31.85
575.781	15.85
575.904	6.85
576.026	19.85
576.149	-0.15
576.271	12.85
576.394	8.85
576.516	9.85
576.639	20.85
576.761	5.85
576.884	-0.15
577.007	8.85
577.129	12.85
577.252	38.85
577.374	38.85
577.497	18.85
577.619	26.85
577.742	8.85
577.864	26.85
577.987	20.85
578.109	17.85
578.232	5.85
578.354	27.85
578.477	4.85
578.599	3.85
578.722	3.85
578.844	13.85
578.967	16.85
579.089	9.85
579.212	-8.15
579.334	7.85
579.457	10.85
579.579	28.85
579.702	-1.15
579.824	20.85
579.947	8.85
580.069	13.85
580.192	12.85
580.314	35.85
580.437	27.85
580.559	44.85
580.682	4.85
580.804	24.85
580.927	38.85
581.049	13.85
581.172	21.85
581.294	9.85
581.417	25.85
581.539	26.85
581.662	21.85
581.784	21.85
581.907	20.85
582.029	7.85
582.152	-2.15
582.274	31.85
582.396	25.85
582.519	7.85
582.641	16.85
582.764	20.85
582.886	28.85
583.009	12.85
583.131	3.85
583.254	15.85
583.376	32.85
583.499	20.85
583.621	32.85
583.743	19.85
583.866	20.85
583.988	7.85
584.111	21.85
584.233	15.85
584.356	31.85
584.478	28.85
584.601	9.85
584.723	15.85
584.845	25.85
584.968	8.85
585.09	-4.15
585.213	18.85
585.335	3.85
585.458	4.85
585.58	10.85
585.702	23.85
585.825	23.85
585.947	22.85
586.07	5.85
586.192	6.85
586.315	31.85
586.437	20.85
586.559	15.85
586.682	5.85
586.804	33.85
586.927	21.85
587.049	12.85
587.171	12.85
587.294	3.85
587.416	25.85
587.539	22.85
587.661	5.85
587.783	7.85
587.906	25.85
588.028	25.85
588.151	15.85
588.273	25.85
588.395	22.85
588.518	11.85
588.64	10.85
588.763	28.85
588.885	24.85
589.007	20.85
589.13	3.85
589.252	-1.15
589.375	10.85
589.497	-4.15
589.619	7.85
589.742	17.85
589.864	24.85
589.986	-1.15
590.109	-3.15
590.231	7.85
590.354	21.85
590.476	-1.15
590.598	-4.15
590.721	0.85
590.843	3.85
590.965	10.85
591.088	13.85
591.21	19.85
591.332	17.85
591.455	-0.15
591.577	12.85
591.7	27.85
591.822	22.85
591.944	19.85
592.067	6.85
592.189	6.85
592.311	20.85
592.434	-0.15
592.556	10.85
592.678	5.85
592.801	7.85
592.923	16.85
593.045	17.85
593.168	12.85
593.29	2.85
593.412	17.85
593.535	-3.15
593.657	6.85
593.779	-1.15
593.902	7.85
594.024	9.85
594.146	21.85
594.269	26.85
594.391	4.85
594.513	23.85
594.636	1.85
594.758	9.85
594.88	24.85
595.003	19.85
595.125	22.85
595.247	29.85
595.37	34.85
595.492	16.85
595.614	40.85
595.737	-1.15
595.859	-1.15
595.981	4.85
596.104	3.85
596.226	-0.15
596.348	16.85
596.471	7.85
596.593	6.85
596.715	23.85
596.838	12.85
596.96	0.85
597.082	19.85
597.204	11.85
597.327	15.85
597.449	18.85
597.571	20.85
597.694	27.85
597.816	13.85
597.938	22.85
598.061	7.85
598.183	0.85
598.305	4.85
598.427	-4.15
598.55	16.85
598.672	34.85
598.794	17.85
598.917	4.85
599.039	16.85
599.161	23.85
599.283	2.85
599.406	22.85
599.528	24.85
599.65	35.85
599.773	22.85
599.895	30.85
600.017	10.85
600.139	2.85
600.262	10.85
600.384	13.85
600.506	11.85
600.628	18.85
600.751	21.85
600.873	-6.15
600.995	2.85
601.118	23.85
601.24	8.85
601.362	21.85
601.484	22.85
601.607	12.85
601.729	0.85
601.851	17.85
601.973	21.85
602.096	27.85
602.218	19.85
602.34	22.85
602.462	30.85
602.585	24.85
602.707	8.85
602.829	30.85
602.951	16.85
603.074	-6.15
603.196	7.85
603.318	11.85
603.44	35.85
603.563	21.85
603.685	7.85
603.807	17.85
603.929	18.85
604.052	22.85
604.174	23.85
604.296	27.85
604.418	44.85
604.541	27.85
604.663	-7.15
604.785	1.85
604.907	8.85
605.03	13.85
605.152	50.85
605.274	4.85
605.396	13.85
605.519	-0.15
605.641	11.85
605.763	9.85
605.885	25.85
606.008	26.85
606.13	6.85
606.252	19.85
606.374	15.85
606.496	-2.15
606.619	22.85
606.741	27.85
606.863	42.85
606.985	28.85
607.108	14.85
607.23	4.85
607.352	7.85
607.474	8.85
607.596	7.85
607.719	-1.15
607.841	17.85
607.963	10.85
608.085	16.85
608.207	38.85
608.33	12.85
608.452	23.85
608.574	13.85
608.696	25.85
608.819	15.85
608.941	5.85
609.063	-2.15
609.185	7.85
609.307	22.85
609.43	45.85
609.552	21.85
609.674	3.85
609.796	15.85
609.918	17.85
610.041	6.85
610.163	28.85
610.285	13.85
610.407	13.85
610.529	10.85
610.652	19.85
610.774	30.85
610.896	21.85
611.018	20.85
611.14	0.85
611.263	1.85
611.385	-8.15
611.507	5.85
611.629	4.85
611.751	26.85
611.873	49.85
611.996	28.85
612.118	32.85
612.24	8.85
612.362	19.85
612.484	48.85
612.607	26.85
612.729	36.85
612.851	38.85
612.973	19.85
613.095	11.85
613.218	15.85
613.34	21.85
613.462	21.85
613.584	6.85
613.706	17.85
613.828	33.85
613.951	7.85
614.073	3.85
614.195	0.85
614.317	42.85
614.439	27.85
614.561	23.85
614.684	41.85
614.806	16.85
614.928	22.85
615.05	26.85
615.172	30.85
615.294	16.85
615.417	26.85
615.539	-5.15
615.661	10.85
615.783	40.85
615.905	33.85
616.027	71.85
616.15	111.85
616.272	91.85
616.394	59.85
616.516	43.85
616.638	32.85
616.76	15.85
616.883	24.85
617.005	13.85
617.127	32.85
617.249	21.85
617.371	27.85
617.493	19.85
617.615	21.85
617.738	13.85
617.86	19.85
617.982	23.85
618.104	23.85
618.226	15.85
618.348	10.85
618.471	15.85
618.593	36.85
618.715	4.85
618.837	21.85
618.959	8.85
619.081	27.85
619.203	16.85
619.326	26.85
619.448	-3.15
619.57	19.85
619.692	25.85
619.814	21.85
619.936	13.85
620.058	20.85
620.181	1.85
620.303	20.85
620.425	11.85
620.547	5.85
620.669	13.85
620.791	3.85
620.913	-6.15
621.036	21.85
621.158	19.85
621.28	11.85
621.402	2.85
621.524	13.85
621.646	12.85
621.768	8.85
621.891	-16.15
622.013	12.85
622.135	0.85
622.257	13.85
622.379	25.85
622.501	25.85
622.623	8.85
622.745	12.85
622.868	26.85
622.99	25.85
623.112	24.85
623.234	12.85
623.356	20.85
623.478	2.85
623.6	16.85
623.722	23.85
623.845	26.85
623.967	13.85
624.089	27.85
624.211	17.85
624.333	24.85
624.455	22.85
624.577	1.85
624.699	25.85
624.822	0.85
624.944	9.85
625.066	9.85
625.188	7.85
625.31	1.85
625.432	35.85
625.554	16.85
625.676	25.85
625.799	-2.15
625.921	4.85
626.043	27.85
626.165	34.85
626.287	-7.15
626.409	17.85
626.531	7.85
626.653	15.85
626.775	24.85
626.898	19.85
627.02	15.85
627.142	15.85
627.264	17.85
627.386	2.85
627.508	10.85
627.63	17.85
627.752	22.85
627.874	18.85
627.997	24.85
628.119	9.85
628.241	23.85
628.363	29.85
628.485	13.85
628.607	13.85
628.729	6.85
628.851	4.85
628.973	17.85
629.096	7.85
629.218	10.85
629.34	21.85
629.462	-4.15
629.584	8.85
629.706	16.85
629.828	32.85
629.95	18.85
630.072	12.85
630.195	13.85
630.317	8.85
630.439	11.85
630.561	0.85
630.683	12.85
630.805	15.85
630.927	14.85
631.049	19.85
631.171	11.85
631.293	0.85
631.416	8.85
631.538	27.85
631.66	7.85
631.782	11.85
631.904	35.85
632.026	17.85
632.148	23.85
632.27	18.85
632.392	36.85
632.514	4.85
632.637	11.85
632.759	11.85
632.881	-4.15
633.003	6.85
633.125	6.85
633.247	20.85
633.369	12.85
633.491	20.85
633.613	31.85
633.735	12.85
633.858	7.85
633.98	26.85
634.102	4.85
634.224	19.85
634.346	24.85
634.468	21.85
634.59	11.85
634.712	10.85
634.834	34.85
634.956	-4.15
635.078	-0.15
635.201	-12.15
635.323	12.85
635.445	1.85
635.567	-33.15
635.689	12.85
635.811	20.85
635.933	17.85
636.055	18.85
636.177	22.85
636.299	18.85
636.421	2.85
636.544	-14.15
636.666	12.85
636.788	1.85
636.91	3.85
637.032	11.85
637.154	23.85
637.276	47.85
637.398	44.85
637.52	16.85
637.642	13.85
637.764	27.85
637.887	12.85
638.009	13.85
638.131	-3.15
638.253	-4.15
638.375	12.85
638.497	-3.15
638.619	7.85
638.741	11.85
638.863	-11.15
638.985	7.85
639.107	15.85
639.23	7.85
639.352	36.85
639.474	9.85
639.596	16.85
639.718	7.85
639.84	1.85
639.962	0.85
640.084	38.85
640.206	29.85
640.328	-12.15
640.45	28.85
640.573	3.85
640.695	-0.15
640.817	5.85
640.939	24.85
641.061	12.85
641.183	10.85
641.305	15.85
641.427	3.85
641.549	4.85
641.671	12.85
641.793	2.85
641.915	25.85
642.038	5.85
642.16	9.85
642.282	-3.15
642.404	27.85
642.526	3.85
642.648	16.85
642.77	24.85
642.892	2.85
643.014	28.85
643.136	22.85
643.258	15.85
643.381	20.85
643.503	38.85
643.625	11.85
643.747	-8.15
643.869	12.85
643.991	8.85
644.113	-3.15
644.235	7.85
644.357	10.85
644.479	24.85
644.601	24.85
644.723	7.85
644.846	1.85
644.968	-3.15
645.09	15.85
645.212	10.85
645.334	35.85
645.456	21.85
645.578	21.85
645.7	23.85
645.822	1.85
645.944	9.85
646.066	28.85
646.188	-2.15
646.311	20.85
646.433	18.85
646.555	55.85
646.677	44.85
646.799	52.85
646.921	27.85
647.043	49.85
647.165	11.85
647.287	15.85
647.409	-1.15
647.531	34.85
647.654	-6.15
647.776	25.85
647.898	36.85
648.02	26.85
648.142	10.85
648.264	-17.15
648.386	-0.15
648.508	-5.15
648.63	11.85
648.752	24.85
648.874	18.85
648.997	3.85
649.119	28.85
649.241	15.85
649.363	34.85
649.485	24.85
649.607	5.85
649.729	1.85
649.851	8.85
649.973	15.85
650.095	12.85
650.217	3.85
650.34	15.85
650.462	14.85
650.584	10.85
650.706	19.85
650.828	13.85
650.95	1.85
651.072	36.85
651.194	14.85
651.316	3.85
651.438	13.85
651.56	-5.15
651.683	-2.15
651.805	21.85
651.927	14.85
652.049	2.85
652.171	0.85
652.293	19.85
652.415	15.85
652.537	-0.15
652.659	5.85
652.781	12.85
652.903	16.85
653.026	17.85
653.148	4.85
653.27	7.85
653.392	19.85
653.514	8.85
653.636	7.85
653.758	4.85
653.88	8.85
654.002	19.85
654.124	8.85
654.247	7.85
654.369	24.85
654.491	13.85
654.613	8.85
654.735	25.85
654.857	27.85
654.979	-0.15
655.101	33.85
655.223	48.85
655.345	38.85
655.468	51.85
655.59	30.85
655.712	39.85
655.834	21.85
655.956	38.85
656.078	41.85
656.2	39.85
656.322	27.85
656.444	40.85
656.566	63.85
656.689	47.85
656.811	62.85
656.933	115.85
657.055	99.85
657.177	163.85
657.299	251.85
657.421	495.85
657.543	1893.85
657.665	12653.85
657.787	15196.85
657.91	15316.85
658.032	15666.85
658.154	4688.85
658.276	4009.85
658.398	1269.85
658.52	1093.85
658.642	495.85
658.764	613.85
658.886	303.85
659.009	429.85
659.131	234.85
659.253	324.85
659.375	173.85
659.497	268.85
659.619	140.85
659.741	219.85
659.863	107.85
659.985	181.85
660.108	103.85
660.23	148.85
660.352	85.85
660.474	145.85
660.596	77.85
660.718	138.85
660.84	70.85
660.962	130.85
661.084	62.85
661.207	89.85
661.329	57.85
661.451	104.85
661.573	46.85
661.695	112.85
661.817	62.85
661.939	97.85
662.061	65.85
662.184	83.85
662.306	52.85
662.428	72.85
662.55	53.85
662.672	57.85
662.794	39.85
662.916	60.85
663.038	52.85
663.161	89.85
663.283	38.85
663.405	62.85
663.527	31.85
663.649	67.85
663.771	42.85
663.893	45.85
664.015	21.85
664.138	52.85
664.26	28.85
664.382	61.85
664.504	19.85
664.626	46.85
664.748	28.85
664.87	40.85
664.992	29.85
665.115	67.85
665.237	32.85
665.359	35.85
665.481	25.85
665.603	53.85
665.725	22.85
665.847	20.85
665.97	20.85
666.092	49.85
666.214	44.85
666.336	52.85
666.458	18.85
666.58	37.85
666.702	1.85
666.825	27.85
666.947	1.85
667.069	44.85
667.191	34.85
667.313	51.85
667.435	26.85
667.557	41.85
667.68	5.85
667.802	39.85
667.924	23.85
668.046	42.85
668.168	27.85
668.29	53.85
668.412	13.85
668.535	24.85
668.657	21.85
668.779	28.85
668.901	24.85
669.023	30.85
669.145	7.85
669.267	31.85
669.39	9.85
669.512	24.85
669.634	18.85
669.756	22.85
669.878	14.85
670	31.85
670.123	14.85
670.245	31.85
670.367	35.85
670.489	43.85
670.611	23.85
670.733	28.85
670.856	17.85
670.978	34.85
671.1	25.85
671.222	48.85
671.344	25.85
671.466	12.85
671.589	19.85
671.711	29.85
671.833	12.85
671.955	18.85
672.077	14.85
672.199	45.85
672.322	42.85
672.444	15.85
672.566	19.85
672.688	32.85
672.81	25.85
672.932	43.85
673.055	5.85
673.177	17.85
673.299	15.85
673.421	16.85
673.543	11.85
673.665	18.85
673.788	22.85
673.91	14.85
674.032	-13.15
674.154	20.85
674.276	19.85
674.399	9.85
674.521	14.85
674.643	18.85
674.765	6.85
674.887	36.85
675.009	13.85
675.132	19.85
675.254	-4.15
675.376	17.85
675.498	13.85
675.62	45.85
675.743	38.85
675.865	28.85
675.987	-6.15
676.109	22.85
676.231	7.85
676.354	35.85
676.476	22.85
676.598	32.85
676.72	9.85
676.842	21.85
676.965	8.85
677.087	39.85
677.209	9.85
677.331	36.85
677.453	28.85
677.576	12.85
677.698	13.85
677.82	30.85
677.942	11.85
678.064	8.85
678.187	9.85
678.309	29.85
678.431	7.85
678.553	21.85
678.675	24.85
678.798	40.85
678.92	-0.15
679.042	7.85
679.164	1.85
679.286	34.85
679.409	11.85
679.531	-2.15
679.653	-6.15
679.775	9.85
679.898	4.85
680.02	12.85
680.142	15.85
680.264	19.85
680.386	-5.15
680.509	17.85
680.631	8.85
680.753	5.85
680.875	1.85
680.998	8.85
681.12	-12.15
681.242	23.85
681.364	9.85
681.486	20.85
681.609	14.85
681.731	13.85
681.853	-9.15
681.975	20.85
682.098	19.85
682.22	28.85
682.342	3.85
682.464	20.85
682.587	8.85
682.709	12.85
682.831	7.85
682.953	21.85
683.076	25.85
683.198	22.85
683.32	19.85
683.442	9.85
683.565	16.85
683.687	21.85
683.809	7.85
683.931	-6.15
684.054	17.85
684.176	10.85
684.298	11.85
684.42	16.85
684.543	2.85
684.665	11.85
684.787	3.85
684.909	11.85
685.032	29.85
685.154	3.85
685.276	13.85
685.398	0.85
685.521	-17.15
685.643	24.85
685.765	16.85
685.887	29.85
686.01	20.85
686.132	9.85
686.254	17.85
686.377	27.85
686.499	25.85
686.621	28.85
686.743	27.85
686.866	15.85
686.988	21.85
687.11	35.85
687.232	3.85
687.355	5.85
687.477	19.85
687.599	11.85
687.722	2.85
687.844	28.85
687.966	7.85
688.088	14.85
688.211	38.85
688.333	4.85
688.455	7.85
688.578	32.85
688.7	7.85
688.822	20.85
688.944	0.85
689.067	51.85
689.189	18.85
689.311	7.85
689.434	21.85
689.556	7.85
689.678	23.85
689.801	-13.15
689.923	17.85
690.045	28.85
690.167	36.85
690.29	26.85
690.412	1.85
690.534	17.85
690.657	-0.15
690.779	6.85
690.901	16.85
691.024	12.85
691.146	4.85
691.268	21.85
691.391	18.85
691.513	16.85
691.635	41.85
691.758	40.85
691.88	10.85
692.002	16.85
692.125	15.85
692.247	20.85
692.369	7.85
692.492	23.85
692.614	0.85
692.736	17.85
692.859	8.85
692.981	2.85
693.103	10.85
693.226	23.85
693.348	40.85
693.47	23.85
693.593	10.85
693.715	1.85
693.837	11.85
693.96	20.85
694.082	-10.15
694.204	24.85
694.327	7.85
694.449	7.85
694.571	10.85
694.694	31.85
694.816	40.85
694.938	16.85
695.061	17.85
695.183	16.85
695.305	12.85
695.428	18.85
695.55	9.85
695.672	22.85
695.795	26.85
695.917	31.85
696.04	22.85
696.162	12.85
696.284	17.85
696.407	32.85
696.529	7.85
696.651	37.85
696.774	4.85
696.896	13.85
697.019	7.85
697.141	27.85
697.263	16.85
697.386	4.85
697.508	16.85
697.63	15.85
697.753	8.85
697.875	3.85
697.998	21.85
698.12	25.85
698.242	13.85
698.365	15.85
698.487	13.85
698.61	19.85
698.732	18.85
698.854	14.85
698.977	9.85
699.099	17.85
699.221	8.85
699.344	9.85
699.466	10.85
699.589	22.85
699.711	14.85
699.834	18.85
699.956	19.85
700.078	17.85
700.201	12.85
700.323	18.85
700.446	9.85
700.568	15.85
700.69	11.85
700.813	18.85
700.935	2.85
701.058	25.85
701.18	21.85
701.302	13.85
701.425	20.85
701.547	33.85
701.67	12.85
701.792	21.85
701.915	-9.15
702.037	12.85
702.159	10.85
702.282	14.85
702.404	8.85
702.527	14.85
702.649	21.85
702.772	15.85
702.894	-6.15
703.017	20.85
703.139	14.85
703.261	25.85
703.384	2.85
703.506	-14.15
703.629	-5.15
703.751	15.85
703.874	14.85
703.996	9.85
704.119	0.85
704.241	24.85
704.364	13.85
704.486	13.85
704.608	9.85
704.731	27.85
704.853	20.85
704.976	8.85
705.098	13.85
705.221	13.85
705.343	7.85
705.466	17.85
705.588	9.85
705.711	20.85
705.833	21.85
705.956	4.85
706.078	12.85
706.201	14.85
706.323	-5.15
706.446	11.85
