Data from LowRes_H2_15_26_11_07_2024_HR4C61881__6__15-28-14-237.txt Node

Date: Thu Nov 07 15:28:14 EST 2024
User: crc00042
Spectrometer: HR4C6188
Trigger mode: 4
Integration Time (sec): 1.000000E-1
Scans to average: 1
Electric dark correction enabled: true
Nonlinearity correction enabled: false
Boxcar width: 0
XAxis mode: Wavelengths
Number of Pixels in Spectrum: 3648
>>>>>Begin Spectral Data<<<<<
245.66	-78.85
245.797	-78.85
245.934	-78.85
246.071	-62.85
246.208	10.15
246.344	2.15
246.481	-20.85
246.618	-17.85
246.755	4.15
246.892	-0.85
247.029	-3.85
247.165	-7.85
247.302	14.15
247.439	6.15
247.576	22.15
247.713	-2.85
247.849	27.15
247.986	-21.85
248.123	-1.85
248.26	6.15
248.396	21.15
248.533	-5.85
248.67	-3.85
248.806	5.15
248.943	-6.85
249.08	-14.85
249.216	2.15
249.353	-30.85
249.49	0.15
249.626	-2.85
249.763	-12.85
249.9	-1.85
250.036	1.15
250.173	12.15
250.309	-8.85
250.446	7.15
250.582	14.15
250.719	-2.85
250.856	-3.85
250.992	-5.85
251.129	3.15
251.265	-2.85
251.402	-2.85
251.538	-2.85
251.675	-6.85
251.811	18.15
251.948	8.15
252.084	-0.85
252.221	-19.85
252.357	-11.85
252.493	13.15
252.63	-17.85
252.766	29.15
252.903	11.15
253.039	-6.85
253.175	1.15
253.312	2.15
253.448	4.15
253.585	-19.85
253.721	13.15
253.857	0.15
253.994	6.15
254.13	20.15
254.266	-2.85
254.403	9.15
254.539	11.15
254.675	9.15
254.811	-4.85
254.948	9.15
255.084	-5.85
255.22	-8.85
255.356	7.15
255.493	8.15
255.629	-7.85
255.765	-3.85
255.901	1.15
256.037	9.15
256.174	23.15
256.31	-16.85
256.446	-16.85
256.582	-4.85
256.718	8.15
256.854	20.15
256.991	-3.85
257.127	25.15
257.263	-5.85
257.399	-8.85
257.535	-10.85
257.671	0.15
257.807	3.15
257.943	-6.85
258.079	-18.85
258.215	5.15
258.351	19.15
258.487	-4.85
258.623	25.15
258.759	3.15
258.895	-3.85
259.031	-14.85
259.167	-14.85
259.303	12.15
259.439	18.15
259.575	-2.85
259.711	28.15
259.847	15.15
259.983	1.15
260.119	3.15
260.255	5.15
260.391	15.15
260.527	14.15
260.663	26.15
260.799	12.15
260.934	-6.85
261.07	-5.85
261.206	-3.85
261.342	-15.85
261.478	16.15
261.614	3.15
261.749	3.15
261.885	-20.85
262.021	2.15
262.157	30.15
262.293	6.15
262.428	-9.85
262.564	10.15
262.7	19.15
262.836	7.15
262.971	8.15
263.107	15.15
263.243	19.15
263.378	-2.85
263.514	-22.85
263.65	-10.85
263.785	-10.85
263.921	1.15
264.057	1.15
264.192	1.15
264.328	25.15
264.464	-1.85
264.599	7.15
264.735	18.15
264.871	-14.85
265.006	13.15
265.142	20.15
265.277	24.15
265.413	22.15
265.548	12.15
265.684	15.15
265.819	7.15
265.955	-9.85
266.091	-12.85
266.226	-3.85
266.362	-5.85
266.497	17.15
266.633	-6.85
266.768	-4.85
266.903	15.15
267.039	13.15
267.174	-2.85
267.31	-1.85
267.445	-10.85
267.581	-4.85
267.716	2.15
267.851	1.15
267.987	9.15
268.122	15.15
268.258	1.15
268.393	-8.85
268.528	3.15
268.664	11.15
268.799	9.15
268.934	14.15
269.07	-2.85
269.205	-0.85
269.34	15.15
269.476	6.15
269.611	-6.85
269.746	20.15
269.881	-10.85
270.017	9.15
270.152	6.15
270.287	6.15
270.422	12.15
270.558	-5.85
270.693	14.15
270.828	-4.85
270.963	-5.85
271.098	-7.85
271.234	4.15
271.369	20.15
271.504	5.15
271.639	-18.85
271.774	-7.85
271.909	9.15
272.045	-22.85
272.18	-12.85
272.315	-5.85
272.45	10.15
272.585	-13.85
272.72	-5.85
272.855	0.15
272.99	14.15
273.125	4.15
273.26	-16.85
273.395	-9.85
273.53	-6.85
273.665	10.15
273.8	3.15
273.935	9.15
274.07	11.15
274.205	-8.85
274.34	-24.85
274.475	8.15
274.61	25.15
274.745	2.15
274.88	18.15
275.015	-12.85
275.15	-1.85
275.285	12.15
275.42	11.15
275.555	22.15
275.69	14.15
275.825	-3.85
275.959	12.15
276.094	-6.85
276.229	19.15
276.364	0.15
276.499	-2.85
276.634	2.15
276.768	-1.85
276.903	5.15
277.038	8.15
277.173	13.15
277.308	7.15
277.442	1.15
277.577	-2.85
277.712	-2.85
277.847	0.15
277.981	2.15
278.116	-13.85
278.251	3.15
278.386	-0.85
278.52	-1.85
278.655	0.15
278.79	10.15
278.924	3.15
279.059	18.15
279.194	0.15
279.328	37.15
279.463	9.15
279.598	19.15
279.732	16.15
279.867	11.15
280.001	11.15
280.136	-11.85
280.271	14.15
280.405	-2.85
280.54	-3.85
280.674	5.15
280.809	27.15
280.943	2.15
281.078	1.15
281.213	22.15
281.347	22.15
281.482	-2.85
281.616	10.15
281.751	5.15
281.885	5.15
282.02	16.15
282.154	18.15
282.288	-13.85
282.423	-8.85
282.557	-18.85
282.692	-4.85
282.826	9.15
282.961	9.15
283.095	7.15
283.229	-6.85
283.364	-14.85
283.498	-4.85
283.633	-1.85
283.767	20.15
283.901	4.15
284.036	-4.85
284.17	-8.85
284.304	-11.85
284.439	9.15
284.573	4.15
284.707	3.15
284.842	8.15
284.976	2.15
285.11	-3.85
285.244	13.15
285.379	52.15
285.513	2.15
285.647	11.15
285.781	10.15
285.916	25.15
286.05	1.15
286.184	17.15
286.318	10.15
286.453	6.15
286.587	-10.85
286.721	6.15
286.855	2.15
286.989	27.15
287.123	-2.85
287.258	-25.85
287.392	7.15
287.526	-0.85
287.66	-5.85
287.794	-0.85
287.928	-9.85
288.062	15.15
288.196	18.15
288.33	16.15
288.464	20.15
288.598	19.15
288.733	16.15
288.867	35.15
289.001	12.15
289.135	29.15
289.269	8.15
289.403	-4.85
289.537	2.15
289.671	18.15
289.805	-15.85
289.939	5.15
290.073	3.15
290.207	10.15
290.34	6.15
290.474	13.15
290.608	5.15
290.742	-20.85
290.876	-6.85
291.01	3.15
291.144	21.15
291.278	19.15
291.412	16.15
291.546	16.15
291.679	-8.85
291.813	7.15
291.947	5.15
292.081	-7.85
292.215	8.15
292.349	26.15
292.482	17.15
292.616	-7.85
292.75	-1.85
292.884	12.15
293.018	-11.85
293.151	-18.85
293.285	9.15
293.419	1.15
293.553	1.15
293.686	-12.85
293.82	1.15
293.954	17.15
294.088	50.15
294.221	-6.85
294.355	-3.85
294.489	4.15
294.622	6.15
294.756	8.15
294.89	22.15
295.023	10.15
295.157	19.15
295.291	11.15
295.424	26.15
295.558	-2.85
295.691	3.15
295.825	15.15
295.959	14.15
296.092	14.15
296.226	-1.85
296.359	11.15
296.493	6.15
296.627	1.15
296.76	5.15
296.894	-6.85
297.027	17.15
297.161	4.15
297.294	-20.85
297.428	2.15
297.561	27.15
297.695	-13.85
297.828	3.15
297.962	-7.85
298.095	11.15
298.229	2.15
298.362	-5.85
298.495	1.15
298.629	7.15
298.762	-20.85
298.896	1.15
299.029	-7.85
299.162	-7.85
299.296	29.15
299.429	-3.85
299.563	11.15
299.696	15.15
299.829	4.15
299.963	14.15
300.096	14.15
300.229	27.15
300.363	4.15
300.496	7.15
300.629	-21.85
300.763	-5.85
300.896	2.15
301.029	12.15
301.162	12.15
301.296	-24.85
301.429	7.15
301.562	-20.85
301.695	7.15
301.829	8.15
301.962	32.15
302.095	12.15
302.228	-21.85
302.362	-7.85
302.495	8.15
302.628	-16.85
302.761	2.15
302.894	-9.85
303.027	15.15
303.161	1.15
303.294	-2.85
303.427	12.15
303.56	12.15
303.693	-3.85
303.826	4.15
303.959	-1.85
304.092	2.15
304.225	-5.85
304.359	5.15
304.492	21.15
304.625	-5.85
304.758	3.15
304.891	-8.85
305.024	2.15
305.157	-1.85
305.29	-1.85
305.423	1.15
305.556	10.15
305.689	31.15
305.822	7.15
305.955	16.15
306.088	-3.85
306.221	5.15
306.354	-9.85
306.487	-27.85
306.62	-16.85
306.752	-10.85
306.885	-11.85
307.018	1.15
307.151	8.15
307.284	15.15
307.417	-11.85
307.55	-1.85
307.683	-8.85
307.816	22.15
307.948	13.15
308.081	7.15
308.214	12.15
308.347	12.15
308.48	2.15
308.613	-1.85
308.745	6.15
308.878	-12.85
309.011	27.15
309.144	19.15
309.277	-14.85
309.409	15.15
309.542	5.15
309.675	17.15
309.808	1.15
309.94	24.15
310.073	-17.85
310.206	-15.85
310.339	0.15
310.471	-10.85
310.604	19.15
310.737	11.15
310.869	-10.85
311.002	-3.85
311.135	-13.85
311.267	-14.85
311.4	9.15
311.533	39.15
311.665	3.15
311.798	11.15
311.93	6.15
312.063	24.15
312.196	15.15
312.328	11.15
312.461	3.15
312.593	9.15
312.726	13.15
312.859	16.15
312.991	20.15
313.124	-5.85
313.256	10.15
313.389	18.15
313.521	-2.85
313.654	13.15
313.786	-19.85
313.919	0.15
314.051	-4.85
314.184	14.15
314.316	-5.85
314.449	-22.85
314.581	-5.85
314.714	-0.85
314.846	19.15
314.978	-5.85
315.111	11.15
315.243	-4.85
315.376	-8.85
315.508	-10.85
315.641	5.15
315.773	22.15
315.905	6.15
316.038	4.15
316.17	10.15
316.302	10.15
316.435	0.15
316.567	-18.85
316.699	24.15
316.832	5.15
316.964	2.15
317.096	2.15
317.229	5.15
317.361	-19.85
317.493	9.15
317.625	-0.85
317.758	-4.85
317.89	1.15
318.022	16.15
318.155	-6.85
318.287	-5.85
318.419	-3.85
318.551	4.15
318.683	-4.85
318.816	-6.85
318.948	-3.85
319.08	-18.85
319.212	12.15
319.344	0.15
319.477	-10.85
319.609	-7.85
319.741	17.15
319.873	-6.85
320.005	3.15
320.137	13.15
320.269	13.15
320.401	-2.85
320.534	9.15
320.666	-17.85
320.798	-10.85
320.93	2.15
321.062	-3.85
321.194	-2.85
321.326	3.15
321.458	5.15
321.59	-4.85
321.722	-12.85
321.854	-13.85
321.986	-0.85
322.118	13.15
322.25	-9.85
322.382	10.15
322.514	2.15
322.646	-10.85
322.778	18.15
322.91	-11.85
323.042	5.15
323.174	23.15
323.306	-5.85
323.438	-7.85
323.57	1.15
323.702	11.15
323.834	-10.85
323.966	2.15
324.097	16.15
324.229	18.15
324.361	12.15
324.493	18.15
324.625	-7.85
324.757	7.15
324.889	-5.85
325.021	4.15
325.152	18.15
325.284	22.15
325.416	-2.85
325.548	16.15
325.68	-14.85
325.811	4.15
325.943	-7.85
326.075	-5.85
326.207	10.15
326.339	8.15
326.47	-11.85
326.602	15.15
326.734	23.15
326.866	6.15
326.997	-9.85
327.129	2.15
327.261	-20.85
327.392	-0.85
327.524	19.15
327.656	23.15
327.787	18.15
327.919	6.15
328.051	5.15
328.182	14.15
328.314	24.15
328.446	2.15
328.577	9.15
328.709	2.15
328.841	-12.85
328.972	11.15
329.104	-0.85
329.235	-3.85
329.367	-5.85
329.499	-9.85
329.63	10.15
329.762	-2.85
329.893	4.15
330.025	6.15
330.156	-17.85
330.288	14.15
330.419	9.15
330.551	7.15
330.683	16.15
330.814	19.15
330.946	25.15
331.077	-3.85
331.208	9.15
331.34	3.15
331.471	-15.85
331.603	-17.85
331.734	-21.85
331.866	2.15
331.997	5.15
332.129	-4.85
332.26	-5.85
332.392	8.15
332.523	6.15
332.654	-18.85
332.786	-2.85
332.917	5.15
333.048	14.15
333.18	23.15
333.311	-7.85
333.443	11.15
333.574	13.15
333.705	12.15
333.837	1.15
333.968	4.15
334.099	35.15
334.231	19.15
334.362	-24.85
334.493	15.15
334.624	22.15
334.756	18.15
334.887	2.15
335.018	6.15
335.15	10.15
335.281	2.15
335.412	18.15
335.543	16.15
335.675	1.15
335.806	3.15
335.937	-2.85
336.068	20.15
336.199	35.15
336.331	7.15
336.462	-0.85
336.593	21.15
336.724	10.15
336.855	23.15
336.986	1.15
337.118	15.15
337.249	5.15
337.38	11.15
337.511	4.15
337.642	-5.85
337.773	19.15
337.904	2.15
338.035	-1.85
338.166	-5.85
338.298	-4.85
338.429	-10.85
338.56	18.15
338.691	20.15
338.822	-11.85
338.953	11.15
339.084	29.15
339.215	21.15
339.346	-4.85
339.477	7.15
339.608	-0.85
339.739	-5.85
339.87	-7.85
340.001	-22.85
340.132	-0.85
340.263	-4.85
340.394	13.15
340.525	8.15
340.656	3.15
340.787	-18.85
340.918	15.15
341.049	8.15
341.179	0.15
341.31	17.15
341.441	13.15
341.572	8.15
341.703	2.15
341.834	-3.85
341.965	23.15
342.096	1.15
342.227	9.15
342.357	7.15
342.488	9.15
342.619	8.15
342.75	2.15
342.881	-0.85
343.012	23.15
343.142	22.15
343.273	1.15
343.404	36.15
343.535	33.15
343.666	25.15
343.796	10.15
343.927	17.15
344.058	9.15
344.189	19.15
344.319	15.15
344.45	8.15
344.581	4.15
344.712	0.15
344.842	5.15
344.973	-12.85
345.104	9.15
345.234	17.15
345.365	-27.85
345.496	-7.85
345.626	-11.85
345.757	10.15
345.888	-9.85
346.018	11.15
346.149	3.15
346.28	23.15
346.41	9.15
346.541	19.15
346.672	3.15
346.802	15.15
346.933	21.15
347.063	4.15
347.194	-11.85
347.325	10.15
347.455	23.15
347.586	-4.85
347.716	-6.85
347.847	8.15
347.977	27.15
348.108	10.15
348.238	12.15
348.369	-5.85
348.499	21.15
348.63	17.15
348.76	22.15
348.891	18.15
349.021	5.15
349.152	-2.85
349.282	-10.85
349.413	-13.85
349.543	20.15
349.674	3.15
349.804	6.15
349.935	4.15
350.065	-8.85
350.196	-8.85
350.326	9.15
350.456	2.15
350.587	17.15
350.717	10.15
350.848	7.15
350.978	12.15
351.108	6.15
351.239	22.15
351.369	-2.85
351.499	8.15
351.63	5.15
351.76	-2.85
351.89	-9.85
352.021	5.15
352.151	8.15
352.281	10.15
352.412	26.15
352.542	5.15
352.672	15.15
352.803	-0.85
352.933	14.15
353.063	5.15
353.193	13.15
353.324	12.15
353.454	19.15
353.584	21.15
353.714	0.15
353.845	2.15
353.975	5.15
354.105	-8.85
354.235	9.15
354.365	-19.85
354.496	1.15
354.626	21.15
354.756	11.15
354.886	17.15
355.016	-9.85
355.146	5.15
355.277	0.15
355.407	9.15
355.537	9.15
355.667	17.15
355.797	-6.85
355.927	2.15
356.057	12.15
356.187	10.15
356.318	6.15
356.448	2.15
356.578	27.15
356.708	22.15
356.838	1.15
356.968	-6.85
357.098	13.15
357.228	7.15
357.358	-20.85
357.488	7.15
357.618	28.15
357.748	27.15
357.878	2.15
358.008	-13.85
358.138	16.15
358.268	4.15
358.398	22.15
358.528	-4.85
358.658	-4.85
358.788	22.15
358.918	28.15
359.048	13.15
359.178	16.15
359.308	-1.85
359.438	29.15
359.568	26.15
359.698	12.15
359.827	13.15
359.957	28.15
360.087	19.15
360.217	-9.85
360.347	25.15
360.477	14.15
360.607	-4.85
360.737	15.15
360.866	-9.85
360.996	-13.85
361.126	-18.85
361.256	6.15
361.386	14.15
361.516	32.15
361.645	-4.85
361.775	18.15
361.905	-12.85
362.035	-0.85
362.165	-5.85
362.294	5.15
362.424	16.15
362.554	23.15
362.684	-2.85
362.813	13.15
362.943	26.15
363.073	12.15
363.203	14.15
363.332	11.15
363.462	5.15
363.592	4.15
363.721	16.15
363.851	11.15
363.981	24.15
364.111	-1.85
364.24	0.15
364.37	22.15
364.5	23.15
364.629	-0.85
364.759	-13.85
364.888	-13.85
365.018	-8.85
365.148	7.15
365.277	7.15
365.407	12.15
365.537	18.15
365.666	19.15
365.796	16.15
365.925	-0.85
366.055	9.15
366.184	-10.85
366.314	11.15
366.444	13.15
366.573	-8.85
366.703	-0.85
366.832	13.15
366.962	12.15
367.091	22.15
367.221	-3.85
367.35	7.15
367.48	28.15
367.609	15.15
367.739	2.15
367.868	7.15
367.998	-3.85
368.127	14.15
368.257	12.15
368.386	12.15
368.516	28.15
368.645	19.15
368.775	19.15
368.904	0.15
369.033	8.15
369.163	-5.85
369.292	11.15
369.422	1.15
369.551	20.15
369.68	28.15
369.81	8.15
369.939	1.15
370.069	26.15
370.198	11.15
370.327	-5.85
370.457	2.15
370.586	8.15
370.715	2.15
370.845	2.15
370.974	8.15
371.103	28.15
371.233	6.15
371.362	1.15
371.491	-16.85
371.621	2.15
371.75	-4.85
371.879	-3.85
372.008	15.15
372.138	3.15
372.267	7.15
372.396	-3.85
372.525	2.15
372.655	-13.85
372.784	6.15
372.913	-5.85
373.042	20.15
373.172	29.15
373.301	-18.85
373.43	-21.85
373.559	2.15
373.688	27.15
373.818	33.15
373.947	19.15
374.076	4.15
374.205	11.15
374.334	-6.85
374.463	2.15
374.593	3.15
374.722	2.15
374.851	32.15
374.98	-2.85
375.109	-6.85
375.238	5.15
375.367	39.15
375.496	2.15
375.625	-18.85
375.755	11.15
375.884	28.15
376.013	24.15
376.142	-8.85
376.271	-7.85
376.4	2.15
376.529	-8.85
376.658	20.15
376.787	8.15
376.916	5.15
377.045	-0.85
377.174	4.15
377.303	3.15
377.432	27.15
377.561	0.15
377.69	9.15
377.819	32.15
377.948	-0.85
378.077	-5.85
378.206	1.15
378.335	7.15
378.464	12.15
378.593	21.15
378.722	5.15
378.851	-6.85
378.98	30.15
379.108	-26.85
379.237	-9.85
379.366	-7.85
379.495	9.15
379.624	24.15
379.753	15.15
379.882	14.15
380.011	-2.85
380.14	-9.85
380.268	7.15
380.397	-1.85
380.526	35.15
380.655	6.15
380.784	-9.85
380.913	-12.85
381.041	20.15
381.17	2.15
381.299	-2.85
381.428	8.15
381.557	33.15
381.685	14.15
381.814	2.15
381.943	1.15
382.072	-20.85
382.2	-13.85
382.329	-7.85
382.458	12.15
382.587	15.15
382.715	26.15
382.844	14.15
382.973	18.15
383.102	13.15
383.23	13.15
383.359	7.15
383.488	26.15
383.616	5.15
383.745	-0.85
383.874	11.15
384.003	-5.85
384.131	-20.85
384.26	0.15
384.389	-10.85
384.517	-13.85
384.646	-9.85
384.774	7.15
384.903	26.15
385.032	16.15
385.16	-5.85
385.289	-0.85
385.418	-3.85
385.546	10.15
385.675	32.15
385.803	7.15
385.932	-0.85
386.06	-10.85
386.189	-2.85
386.318	23.15
386.446	-10.85
386.575	10.15
386.703	10.15
386.832	0.15
386.96	-12.85
387.089	27.15
387.217	18.15
387.346	-1.85
387.474	10.15
387.603	9.15
387.731	17.15
387.86	12.15
387.988	5.15
388.117	3.15
388.245	3.15
388.374	-9.85
388.502	10.15
388.631	-3.85
388.759	5.15
388.888	33.15
389.016	13.15
389.144	22.15
389.273	18.15
389.401	-6.85
389.53	-10.85
389.658	21.15
389.786	2.15
389.915	-3.85
390.043	-10.85
390.172	3.15
390.3	43.15
390.428	35.15
390.557	7.15
390.685	19.15
390.813	16.15
390.942	12.15
391.07	-16.85
391.198	-4.85
391.327	-3.85
391.455	-11.85
391.583	14.15
391.712	0.15
391.84	21.15
391.968	2.15
392.096	23.15
392.225	6.15
392.353	21.15
392.481	10.15
392.609	28.15
392.738	37.15
392.866	24.15
392.994	0.15
393.122	22.15
393.251	18.15
393.379	9.15
393.507	-16.85
393.635	5.15
393.764	19.15
393.892	16.15
394.02	-7.85
394.148	-12.85
394.276	15.15
394.404	36.15
394.533	8.15
394.661	1.15
394.789	16.15
394.917	29.15
395.045	11.15
395.173	-0.85
395.302	5.15
395.43	1.15
395.558	3.15
395.686	4.15
395.814	1.15
395.942	-11.85
396.07	-5.85
396.198	5.15
396.326	5.15
396.454	8.15
396.582	10.15
396.711	-6.85
396.839	10.15
396.967	1.15
397.095	15.15
397.223	13.15
397.351	38.15
397.479	26.15
397.607	-2.85
397.735	5.15
397.863	20.15
397.991	-0.85
398.119	-7.85
398.247	-4.85
398.375	-12.85
398.503	9.15
398.631	25.15
398.759	3.15
398.887	11.15
399.015	14.15
399.143	-1.85
399.271	8.15
399.399	15.15
399.526	12.15
399.654	27.15
399.782	-7.85
399.91	35.15
400.038	21.15
400.166	-9.85
400.294	11.15
400.422	-2.85
400.55	17.15
400.678	-0.85
400.805	4.15
400.933	5.15
401.061	15.15
401.189	-2.85
401.317	21.15
401.445	25.15
401.573	19.15
401.7	3.15
401.828	2.15
401.956	15.15
402.084	15.15
402.212	3.15
402.34	-6.85
402.467	15.15
402.595	17.15
402.723	0.15
402.851	23.15
402.978	16.15
403.106	10.15
403.234	6.15
403.362	27.15
403.489	23.15
403.617	6.15
403.745	9.15
403.873	-8.85
404	-5.85
404.128	9.15
404.256	12.15
404.384	12.15
404.511	15.15
404.639	7.15
404.767	3.15
404.894	-5.85
405.022	-21.85
405.15	19.15
405.277	-8.85
405.405	-11.85
405.533	2.15
405.66	-5.85
405.788	-0.85
405.916	-16.85
406.043	10.15
406.171	10.15
406.299	3.15
406.426	-3.85
406.554	14.15
406.681	37.15
406.809	24.15
406.937	2.15
407.064	0.15
407.192	29.15
407.319	8.15
407.447	-1.85
407.574	10.15
407.702	-3.85
407.83	-11.85
407.957	-11.85
408.085	14.15
408.212	29.15
408.34	17.15
408.467	-19.85
408.595	5.15
408.722	8.15
408.85	20.15
408.977	-5.85
409.105	9.15
409.232	-1.85
409.36	-2.85
409.487	-0.85
409.615	20.15
409.742	33.15
409.87	39.15
409.997	53.15
410.125	55.15
410.252	49.15
410.379	38.15
410.507	26.15
410.634	12.15
410.762	4.15
410.889	17.15
411.017	-2.85
411.144	8.15
411.271	-3.85
411.399	26.15
411.526	16.15
411.653	30.15
411.781	40.15
411.908	18.15
412.036	12.15
412.163	26.15
412.29	28.15
412.418	19.15
412.545	24.15
412.672	4.15
412.8	50.15
412.927	14.15
413.054	24.15
413.182	2.15
413.309	4.15
413.436	-17.85
413.564	-9.85
413.691	0.15
413.818	23.15
413.945	-6.85
414.073	-4.85
414.2	21.15
414.327	25.15
414.454	17.15
414.582	4.15
414.709	-8.85
414.836	17.15
414.963	9.15
415.091	14.15
415.218	-2.85
415.345	6.15
415.472	15.15
415.6	-5.85
415.727	-5.85
415.854	32.15
415.981	7.15
416.108	4.15
416.236	8.15
416.363	22.15
416.49	1.15
416.617	6.15
416.744	30.15
416.871	4.15
416.998	-4.85
417.126	10.15
417.253	9.15
417.38	2.15
417.507	-5.85
417.634	10.15
417.761	16.15
417.888	13.15
418.015	-2.85
418.143	8.15
418.27	25.15
418.397	11.15
418.524	16.15
418.651	-4.85
418.778	26.15
418.905	21.15
419.032	7.15
419.159	-0.85
419.286	27.15
419.413	23.15
419.54	18.15
419.667	-6.85
419.794	-22.85
419.921	13.15
420.048	18.15
420.175	9.15
420.302	7.15
420.429	5.15
420.556	7.15
420.683	6.15
420.81	10.15
420.937	15.15
421.064	6.15
421.191	-7.85
421.318	28.15
421.445	39.15
421.572	-13.85
421.699	20.15
421.826	23.15
421.953	9.15
422.08	10.15
422.207	14.15
422.334	-1.85
422.461	23.15
422.588	-5.85
422.714	8.15
422.841	36.15
422.968	24.15
423.095	4.15
423.222	-9.85
423.349	28.15
423.476	11.15
423.603	5.15
423.729	-3.85
423.856	1.15
423.983	11.15
424.11	-18.85
424.237	5.15
424.364	8.15
424.491	24.15
424.617	-7.85
424.744	8.15
424.871	11.15
424.998	13.15
425.125	3.15
425.251	-2.85
425.378	-7.85
425.505	6.15
425.632	7.15
425.758	-13.85
425.885	11.15
426.012	29.15
426.139	32.15
426.266	22.15
426.392	8.15
426.519	22.15
426.646	12.15
426.772	26.15
426.899	1.15
427.026	6.15
427.153	19.15
427.279	21.15
427.406	6.15
427.533	10.15
427.659	8.15
427.786	0.15
427.913	18.15
428.039	3.15
428.166	4.15
428.293	19.15
428.419	7.15
428.546	2.15
428.673	-21.85
428.799	-7.85
428.926	8.15
429.053	24.15
429.179	17.15
429.306	18.15
429.433	7.15
429.559	17.15
429.686	10.15
429.812	4.15
429.939	-1.85
430.066	16.15
430.192	2.15
430.319	12.15
430.445	4.15
430.572	16.15
430.699	-6.85
430.825	13.15
430.952	15.15
431.078	-0.85
431.205	35.15
431.331	15.15
431.458	20.15
431.584	12.15
431.711	3.15
431.837	13.15
431.964	11.15
432.09	22.15
432.217	-7.85
432.343	3.15
432.47	28.15
432.596	0.15
432.723	7.15
432.849	-15.85
432.976	10.15
433.102	11.15
433.229	-14.85
433.355	25.15
433.482	89.15
433.608	137.15
433.735	117.15
433.861	102.15
433.987	153.15
434.114	229.15
434.24	178.15
434.367	59.15
434.493	-0.85
434.62	24.15
434.746	21.15
434.872	15.15
434.999	26.15
435.125	25.15
435.252	-8.85
435.378	20.15
435.504	11.15
435.631	14.15
435.757	7.15
435.883	6.15
436.01	12.15
436.136	6.15
436.262	19.15
436.389	10.15
436.515	15.15
436.641	6.15
436.768	11.15
436.894	21.15
437.02	26.15
437.147	37.15
437.273	23.15
437.399	1.15
437.526	9.15
437.652	14.15
437.778	11.15
437.904	-1.85
438.031	5.15
438.157	24.15
438.283	11.15
438.409	6.15
438.536	-6.85
438.662	19.15
438.788	25.15
438.914	8.15
439.041	16.15
439.167	16.15
439.293	21.15
439.419	10.15
439.546	4.15
439.672	-6.85
439.798	22.15
439.924	33.15
440.05	26.15
440.177	19.15
440.303	16.15
440.429	-3.85
440.555	8.15
440.681	15.15
440.807	19.15
440.934	7.15
441.06	14.15
441.186	6.15
441.312	2.15
441.438	23.15
441.564	21.15
441.69	27.15
441.816	18.15
441.943	15.15
442.069	13.15
442.195	36.15
442.321	22.15
442.447	-6.85
442.573	5.15
442.699	11.15
442.825	-0.85
442.951	25.15
443.077	17.15
443.203	20.15
443.33	8.15
443.456	-8.85
443.582	21.15
443.708	10.15
443.834	25.15
443.96	28.15
444.086	3.15
444.212	19.15
444.338	41.15
444.464	25.15
444.59	40.15
444.716	17.15
444.842	12.15
444.968	6.15
445.094	19.15
445.22	19.15
445.346	-4.85
445.472	-9.85
445.598	22.15
445.724	5.15
445.85	6.15
445.976	12.15
446.102	7.15
446.228	41.15
446.354	1.15
446.48	14.15
446.605	2.15
446.731	20.15
446.857	14.15
446.983	15.15
447.109	-5.85
447.235	8.15
447.361	-5.85
447.487	23.15
447.613	27.15
447.739	15.15
447.865	15.15
447.99	-0.85
448.116	8.15
448.242	23.15
448.368	1.15
448.494	10.15
448.62	-2.85
448.746	0.15
448.872	15.15
448.997	5.15
449.123	11.15
449.249	34.15
449.375	19.15
449.501	13.15
449.627	-2.85
449.752	30.15
449.878	0.15
450.004	22.15
450.13	1.15
450.256	5.15
450.381	9.15
450.507	3.15
450.633	3.15
450.759	29.15
450.884	18.15
451.01	19.15
451.136	-5.85
451.262	11.15
451.388	14.15
451.513	-2.85
451.639	-5.85
451.765	7.15
451.89	24.15
452.016	15.15
452.142	15.15
452.268	12.15
452.393	14.15
452.519	16.15
452.645	18.15
452.771	12.15
452.896	5.15
453.022	-4.85
453.148	24.15
453.273	17.15
453.399	12.15
453.525	-10.85
453.65	-3.85
453.776	28.15
453.902	30.15
454.027	22.15
454.153	15.15
454.279	12.15
454.404	14.15
454.53	29.15
454.656	45.15
454.781	18.15
454.907	17.15
455.032	9.15
455.158	15.15
455.284	32.15
455.409	11.15
455.535	24.15
455.66	15.15
455.786	45.15
455.912	19.15
456.037	-4.85
456.163	13.15
456.288	32.15
456.414	10.15
456.539	2.15
456.665	29.15
456.791	7.15
456.916	-1.85
457.042	19.15
457.167	10.15
457.293	23.15
457.418	17.15
457.544	3.15
457.669	7.15
457.795	16.15
457.92	21.15
458.046	9.15
458.171	-1.85
458.297	9.15
458.422	-4.85
458.548	-4.85
458.673	12.15
458.799	21.15
458.924	18.15
459.05	16.15
459.175	4.15
459.301	23.15
459.426	27.15
459.552	5.15
459.677	-0.85
459.803	30.15
459.928	34.15
460.053	-0.85
460.179	1.15
460.304	7.15
460.43	-14.85
460.555	5.15
460.681	7.15
460.806	27.15
460.931	14.15
461.057	38.15
461.182	27.15
461.308	22.15
461.433	14.15
461.558	16.15
461.684	18.15
461.809	6.15
461.934	-0.85
462.06	41.15
462.185	-1.85
462.311	-8.85
462.436	11.15
462.561	5.15
462.687	6.15
462.812	3.15
462.937	-18.85
463.063	5.15
463.188	-3.85
463.313	20.15
463.439	10.15
463.564	14.15
463.689	2.15
463.814	13.15
463.94	3.15
464.065	33.15
464.19	15.15
464.316	-6.85
464.441	-4.85
464.566	8.15
464.692	4.15
464.817	-0.85
464.942	-16.85
465.067	-1.85
465.193	-2.85
465.318	1.15
465.443	15.15
465.568	12.15
465.694	8.15
465.819	30.15
465.944	9.15
466.069	14.15
466.194	24.15
466.32	24.15
466.445	18.15
466.57	6.15
466.695	21.15
466.82	33.15
466.946	26.15
467.071	9.15
467.196	6.15
467.321	23.15
467.446	17.15
467.572	19.15
467.697	-13.85
467.822	9.15
467.947	7.15
468.072	9.15
468.197	2.15
468.323	-8.85
468.448	6.15
468.573	0.15
468.698	4.15
468.823	16.15
468.948	38.15
469.073	18.15
469.198	14.15
469.324	7.15
469.449	-3.85
469.574	34.15
469.699	35.15
469.824	27.15
469.949	18.15
470.074	26.15
470.199	57.15
470.324	38.15
470.449	46.15
470.574	7.15
470.7	19.15
470.825	33.15
470.95	15.15
471.075	3.15
471.2	14.15
471.325	33.15
471.45	8.15
471.575	-12.85
471.7	10.15
471.825	-2.85
471.95	4.15
472.075	-7.85
472.2	5.15
472.325	6.15
472.45	4.15
472.575	4.15
472.7	11.15
472.825	12.15
472.95	13.15
473.075	10.15
473.2	-3.85
473.325	0.15
473.45	-12.85
473.575	-1.85
473.7	7.15
473.825	15.15
473.95	5.15
474.075	28.15
474.2	15.15
474.325	13.15
474.45	0.15
474.574	11.15
474.699	16.15
474.824	19.15
474.949	-0.85
475.074	7.15
475.199	1.15
475.324	16.15
475.449	13.15
475.574	5.15
475.699	17.15
475.824	1.15
475.949	10.15
476.073	-3.85
476.198	4.15
476.323	15.15
476.448	7.15
476.573	-7.85
476.698	20.15
476.823	26.15
476.947	10.15
477.072	11.15
477.197	3.15
477.322	3.15
477.447	-8.85
477.572	21.15
477.697	6.15
477.821	15.15
477.946	33.15
478.071	34.15
478.196	26.15
478.321	25.15
478.445	4.15
478.57	-3.85
478.695	3.15
478.82	23.15
478.945	18.15
479.069	13.15
479.194	4.15
479.319	9.15
479.444	18.15
479.569	15.15
479.693	27.15
479.818	21.15
479.943	19.15
480.068	30.15
480.192	24.15
480.317	10.15
480.442	9.15
480.567	15.15
480.691	18.15
480.816	-2.85
480.941	-8.85
481.066	15.15
481.19	34.15
481.315	21.15
481.44	22.15
481.564	0.15
481.689	26.15
481.814	22.15
481.938	13.15
482.063	0.15
482.188	23.15
482.313	29.15
482.437	11.15
482.562	27.15
482.687	32.15
482.811	26.15
482.936	25.15
483.061	38.15
483.185	17.15
483.31	22.15
483.435	26.15
483.559	15.15
483.684	16.15
483.808	35.15
483.933	24.15
484.058	14.15
484.182	5.15
484.307	24.15
484.432	17.15
484.556	19.15
484.681	13.15
484.805	21.15
484.93	26.15
485.055	53.15
485.179	78.15
485.304	117.15
485.428	349.15
485.553	1261.15
485.678	1724.15
485.802	1606.15
485.927	1787.15
486.051	2659.15
486.176	1614.15
486.3	444.15
486.425	154.15
486.549	83.15
486.674	51.15
486.799	56.15
486.923	27.15
487.048	17.15
487.172	13.15
487.297	21.15
487.421	17.15
487.546	19.15
487.67	9.15
487.795	19.15
487.919	9.15
488.044	38.15
488.168	15.15
488.293	13.15
488.417	13.15
488.542	21.15
488.666	12.15
488.791	21.15
488.915	24.15
489.04	19.15
489.164	26.15
489.289	49.15
489.413	15.15
489.538	24.15
489.662	34.15
489.786	1.15
489.911	12.15
490.035	31.15
490.16	14.15
490.284	8.15
490.409	1.15
490.533	13.15
490.658	32.15
490.782	26.15
490.906	22.15
491.031	25.15
491.155	14.15
491.28	24.15
491.404	-0.85
491.528	36.15
491.653	2.15
491.777	29.15
491.902	5.15
492.026	12.15
492.15	23.15
492.275	46.15
492.399	34.15
492.524	10.15
492.648	20.15
492.772	24.15
492.897	32.15
493.021	20.15
493.145	26.15
493.27	13.15
493.394	6.15
493.518	3.15
493.643	-0.85
493.767	14.15
493.891	-9.85
494.016	13.15
494.14	12.15
494.264	17.15
494.389	7.15
494.513	12.15
494.637	6.15
494.762	16.15
494.886	20.15
495.01	26.15
495.134	11.15
495.259	17.15
495.383	-3.85
495.507	7.15
495.632	39.15
495.756	37.15
495.88	26.15
496.004	23.15
496.129	3.15
496.253	19.15
496.377	9.15
496.501	26.15
496.626	9.15
496.75	23.15
496.874	16.15
496.998	11.15
497.123	35.15
497.247	8.15
497.371	14.15
497.495	2.15
497.62	8.15
497.744	10.15
497.868	10.15
497.992	21.15
498.116	13.15
498.241	32.15
498.365	14.15
498.489	5.15
498.613	29.15
498.737	14.15
498.862	23.15
498.986	4.15
499.11	11.15
499.234	19.15
499.358	-5.85
499.482	18.15
499.607	5.15
499.731	24.15
499.855	17.15
499.979	16.15
500.103	14.15
500.227	23.15
500.351	19.15
500.476	33.15
500.6	24.15
500.724	32.15
500.848	5.15
500.972	26.15
501.096	9.15
501.22	18.15
501.344	-1.85
501.469	3.15
501.593	11.15
501.717	16.15
501.841	6.15
501.965	14.15
502.089	7.15
502.213	18.15
502.337	10.15
502.461	12.15
502.585	12.15
502.709	21.15
502.834	1.15
502.958	5.15
503.082	7.15
503.206	12.15
503.33	38.15
503.454	31.15
503.578	11.15
503.702	19.15
503.826	9.15
503.95	37.15
504.074	16.15
504.198	11.15
504.322	9.15
504.446	11.15
504.57	30.15
504.694	13.15
504.818	9.15
504.942	24.15
505.066	13.15
505.19	16.15
505.314	34.15
505.438	12.15
505.562	9.15
505.686	19.15
505.81	10.15
505.934	30.15
506.058	17.15
506.182	20.15
506.306	17.15
506.43	11.15
506.554	15.15
506.678	9.15
506.802	18.15
506.926	24.15
507.05	23.15
507.174	60.15
507.298	11.15
507.422	15.15
507.546	23.15
507.67	54.15
507.794	-3.85
507.918	11.15
508.042	9.15
508.165	-0.85
508.289	-1.85
508.413	26.15
508.537	-4.85
508.661	30.15
508.785	11.15
508.909	12.15
509.033	-5.85
509.157	6.15
509.281	12.15
509.405	20.15
509.528	36.15
509.652	17.15
509.776	13.15
509.9	23.15
510.024	4.15
510.148	32.15
510.272	21.15
510.396	12.15
510.519	-9.85
510.643	18.15
510.767	-8.85
510.891	18.15
511.015	7.15
511.139	20.15
511.263	28.15
511.386	14.15
511.51	8.15
511.634	25.15
511.758	13.15
511.882	15.15
512.006	20.15
512.129	22.15
512.253	62.15
512.377	10.15
512.501	25.15
512.625	4.15
512.748	26.15
512.872	18.15
512.996	5.15
513.12	8.15
513.244	-3.85
513.367	22.15
513.491	33.15
513.615	14.15
513.739	10.15
513.862	22.15
513.986	9.15
514.11	28.15
514.234	-1.85
514.358	29.15
514.481	19.15
514.605	23.15
514.729	26.15
514.853	11.15
514.976	16.15
515.1	8.15
515.224	17.15
515.348	18.15
515.471	18.15
515.595	14.15
515.719	23.15
515.842	39.15
515.966	2.15
516.09	31.15
516.214	-1.85
516.337	33.15
516.461	22.15
516.585	21.15
516.708	27.15
516.832	17.15
516.956	2.15
517.08	15.15
517.203	3.15
517.327	31.15
517.451	38.15
517.574	26.15
517.698	23.15
517.822	19.15
517.945	31.15
518.069	38.15
518.193	41.15
518.316	22.15
518.44	30.15
518.564	2.15
518.687	23.15
518.811	38.15
518.935	69.15
519.058	44.15
519.182	30.15
519.306	34.15
519.429	25.15
519.553	53.15
519.676	44.15
519.8	18.15
519.924	6.15
520.047	7.15
520.171	3.15
520.294	25.15
520.418	15.15
520.542	4.15
520.665	26.15
520.789	20.15
520.913	4.15
521.036	-2.85
521.16	3.15
521.283	16.15
521.407	1.15
521.53	13.15
521.654	-9.85
521.778	22.15
521.901	30.15
522.025	11.15
522.148	7.15
522.272	22.15
522.395	4.15
522.519	36.15
522.643	4.15
522.766	15.15
522.89	24.15
523.013	27.15
523.137	11.15
523.26	1.15
523.384	11.15
523.507	18.15
523.631	5.15
523.754	10.15
523.878	23.15
524.002	14.15
524.125	7.15
524.249	-9.85
524.372	11.15
524.496	21.15
524.619	11.15
524.743	14.15
524.866	5.15
524.99	11.15
525.113	-0.85
525.237	23.15
525.36	18.15
525.484	14.15
525.607	7.15
525.731	-2.85
525.854	5.15
525.978	32.15
526.101	1.15
526.224	6.15
526.348	26.15
526.471	14.15
526.595	5.15
526.718	5.15
526.842	-0.85
526.965	31.15
527.089	11.15
527.212	21.15
527.336	-1.85
527.459	27.15
527.582	5.15
527.706	19.15
527.829	14.15
527.953	16.15
528.076	-12.85
528.2	8.15
528.323	32.15
528.446	37.15
528.57	11.15
528.693	29.15
528.817	1.15
528.94	3.15
529.064	49.15
529.187	11.15
529.31	4.15
529.434	7.15
529.557	6.15
529.68	15.15
529.804	12.15
529.927	11.15
530.051	12.15
530.174	6.15
530.297	-3.85
530.421	28.15
530.544	15.15
530.668	13.15
530.791	11.15
530.914	7.15
531.038	13.15
531.161	13.15
531.284	19.15
531.408	6.15
531.531	11.15
531.654	3.15
531.778	19.15
531.901	4.15
532.024	16.15
532.148	-4.85
532.271	1.15
532.394	8.15
532.518	22.15
532.641	11.15
532.764	25.15
532.888	29.15
533.011	12.15
533.134	2.15
533.258	28.15
533.381	-5.85
533.504	4.15
533.628	12.15
533.751	14.15
533.874	10.15
533.997	3.15
534.121	11.15
534.244	-0.85
534.367	13.15
534.491	-1.85
534.614	17.15
534.737	15.15
534.86	13.15
534.984	2.15
535.107	7.15
535.23	4.15
535.354	-2.85
535.477	5.15
535.6	5.15
535.723	26.15
535.847	3.15
535.97	5.15
536.093	22.15
536.216	-12.85
536.34	3.15
536.463	6.15
536.586	23.15
536.709	10.15
536.833	7.15
536.956	16.15
537.079	4.15
537.202	8.15
537.325	2.15
537.449	8.15
537.572	12.15
537.695	-6.85
537.818	14.15
537.941	4.15
538.065	13.15
538.188	4.15
538.311	10.15
538.434	8.15
538.558	5.15
538.681	19.15
538.804	30.15
538.927	9.15
539.05	15.15
539.173	12.15
539.297	17.15
539.42	-2.85
539.543	10.15
539.666	7.15
539.789	26.15
539.913	5.15
540.036	6.15
540.159	22.15
540.282	8.15
540.405	-8.85
540.528	1.15
540.651	12.15
540.775	-8.85
540.898	12.15
541.021	3.15
541.144	8.15
541.267	19.15
541.39	10.15
541.513	7.15
541.637	7.15
541.76	1.15
541.883	3.15
542.006	26.15
542.129	29.15
542.252	12.15
542.375	15.15
542.498	13.15
542.622	10.15
542.745	30.15
542.868	9.15
542.991	20.15
543.114	27.15
543.237	37.15
543.36	36.15
543.483	14.15
543.606	43.15
543.73	19.15
543.853	-0.85
543.976	5.15
544.099	26.15
544.222	22.15
544.345	0.15
544.468	11.15
544.591	-5.85
544.714	28.15
544.837	39.15
544.96	24.15
545.083	20.15
545.206	25.15
545.329	29.15
545.453	11.15
545.576	10.15
545.699	25.15
545.822	17.15
545.945	34.15
546.068	8.15
546.191	12.15
546.314	-5.85
546.437	-1.85
546.56	14.15
546.683	18.15
546.806	13.15
546.929	-2.85
547.052	-2.85
547.175	3.15
547.298	14.15
547.421	29.15
547.544	-7.85
547.667	15.15
547.79	15.15
547.913	8.15
548.036	-3.85
548.159	20.15
548.282	15.15
548.405	20.15
548.528	7.15
548.651	3.15
548.774	8.15
548.897	17.15
549.02	33.15
549.143	18.15
549.266	10.15
549.389	37.15
549.512	11.15
549.635	23.15
549.758	18.15
549.881	16.15
550.004	13.15
550.127	17.15
550.25	0.15
550.373	6.15
550.496	22.15
550.619	15.15
550.742	-2.85
550.865	20.15
550.988	9.15
551.111	23.15
551.234	21.15
551.356	21.15
551.479	-0.85
551.602	15.15
551.725	17.15
551.848	18.15
551.971	16.15
552.094	8.15
552.217	1.15
552.34	21.15
552.463	-0.85
552.586	12.15
552.709	-6.85
552.832	19.15
552.955	17.15
553.077	20.15
553.2	14.15
553.323	-2.85
553.446	2.15
553.569	19.15
553.692	14.15
553.815	16.15
553.938	23.15
554.061	30.15
554.184	22.15
554.306	24.15
554.429	-1.85
554.552	21.15
554.675	1.15
554.798	23.15
554.921	29.15
555.044	-1.85
555.167	2.15
555.29	5.15
555.412	7.15
555.535	8.15
555.658	-6.85
555.781	14.15
555.904	14.15
556.027	18.15
556.15	9.15
556.272	-2.85
556.395	6.15
556.518	0.15
556.641	-5.85
556.764	19.15
556.887	14.15
557.01	-3.85
557.132	-9.85
557.255	12.15
557.378	27.15
557.501	21.15
557.624	0.15
557.747	13.15
557.869	25.15
557.992	25.15
558.115	27.15
558.238	15.15
558.361	17.15
558.483	38.15
558.606	19.15
558.729	2.15
558.852	19.15
558.975	15.15
559.098	28.15
559.22	22.15
559.343	25.15
559.466	-6.85
559.589	-2.85
559.712	-1.85
559.834	13.15
559.957	31.15
560.08	3.15
560.203	27.15
560.325	22.15
560.448	32.15
560.571	14.15
560.694	9.15
560.817	39.15
560.939	7.15
561.062	6.15
561.185	18.15
561.308	11.15
561.43	6.15
561.553	15.15
561.676	-9.85
561.799	8.15
561.921	13.15
562.044	3.15
562.167	3.15
562.29	33.15
562.413	25.15
562.535	27.15
562.658	0.15
562.781	11.15
562.903	13.15
563.026	25.15
563.149	33.15
563.272	7.15
563.394	22.15
563.517	13.15
563.64	-6.85
563.763	-5.85
563.885	22.15
564.008	31.15
564.131	8.15
564.254	12.15
564.376	20.15
564.499	-1.85
564.622	10.15
564.744	19.15
564.867	15.15
564.99	15.15
565.113	8.15
565.235	17.15
565.358	3.15
565.481	-13.85
565.603	-14.85
565.726	2.15
565.849	11.15
565.971	18.15
566.094	4.15
566.217	4.15
566.34	13.15
566.462	19.15
566.585	21.15
566.708	25.15
566.83	18.15
566.953	13.15
567.076	3.15
567.198	-3.85
567.321	-1.85
567.444	5.15
567.566	17.15
567.689	-4.85
567.812	18.15
567.934	8.15
568.057	12.15
568.18	15.15
568.302	16.15
568.425	-12.85
568.548	11.15
568.67	20.15
568.793	7.15
568.916	29.15
569.038	6.15
569.161	-6.85
569.283	19.15
569.406	12.15
569.529	6.15
569.651	2.15
569.774	-1.85
569.897	23.15
570.019	35.15
570.142	21.15
570.265	15.15
570.387	14.15
570.51	27.15
570.632	19.15
570.755	4.15
570.878	20.15
571	2.15
571.123	-2.85
571.246	26.15
571.368	-1.85
571.491	-0.85
571.613	4.15
571.736	-6.85
571.859	15.15
571.981	14.15
572.104	-1.85
572.226	8.15
572.349	-15.85
572.472	10.15
572.594	14.15
572.717	2.15
572.839	-8.85
572.962	11.15
573.085	13.15
573.207	9.15
573.33	7.15
573.452	36.15
573.575	11.15
573.697	17.15
573.82	14.15
573.943	6.15
574.065	2.15
574.188	16.15
574.31	22.15
574.433	9.15
574.555	17.15
574.678	14.15
574.801	18.15
574.923	15.15
575.046	24.15
575.168	9.15
575.291	13.15
575.413	16.15
575.536	13.15
575.659	4.15
575.781	3.15
575.904	17.15
576.026	22.15
576.149	17.15
576.271	14.15
576.394	13.15
576.516	11.15
576.639	-2.85
576.761	11.15
576.884	2.15
577.007	10.15
577.129	3.15
577.252	6.15
577.374	22.15
577.497	-1.85
577.619	5.15
577.742	-2.85
577.864	25.15
577.987	11.15
578.109	21.15
578.232	26.15
578.354	46.15
578.477	-1.85
578.599	4.15
578.722	1.15
578.844	5.15
578.967	22.15
579.089	-5.85
579.212	5.15
579.334	10.15
579.457	11.15
579.579	14.15
579.702	-6.85
579.824	16.15
579.947	4.15
580.069	3.15
580.192	-6.85
580.314	27.15
580.437	27.15
580.559	31.15
580.682	-0.85
580.804	17.15
580.927	15.15
581.049	24.15
581.172	6.15
581.294	10.15
581.417	17.15
581.539	7.15
581.662	16.15
581.784	18.15
581.907	20.15
582.029	13.15
582.152	4.15
582.274	20.15
582.396	11.15
582.519	19.15
582.641	20.15
582.764	20.15
582.886	41.15
583.009	25.15
583.131	14.15
583.254	21.15
583.376	24.15
583.499	24.15
583.621	5.15
583.743	34.15
583.866	37.15
583.988	1.15
584.111	27.15
584.233	15.15
584.356	13.15
584.478	15.15
584.601	-4.85
584.723	-3.85
584.845	33.15
584.968	2.15
585.09	-8.85
585.213	25.15
585.335	-5.85
585.458	5.15
585.58	4.15
585.702	27.15
585.825	11.15
585.947	20.15
586.07	-2.85
586.192	0.15
586.315	9.15
586.437	5.15
586.559	3.15
586.682	15.15
586.804	6.15
586.927	18.15
587.049	18.15
587.171	37.15
587.294	29.15
587.416	13.15
587.539	19.15
587.661	-4.85
587.783	-0.85
587.906	-1.85
588.028	13.15
588.151	27.15
588.273	27.15
588.395	20.15
588.518	13.15
588.64	16.15
588.763	22.15
588.885	10.15
589.007	10.15
589.13	2.15
589.252	-12.85
589.375	17.15
589.497	3.15
589.619	12.15
589.742	20.15
589.864	36.15
589.986	11.15
590.109	-3.85
590.231	6.15
590.354	12.15
590.476	-10.85
590.598	4.15
590.721	10.15
590.843	22.15
590.965	19.15
591.088	37.15
591.21	18.15
591.332	5.15
591.455	-8.85
591.577	5.15
591.7	5.15
591.822	17.15
591.944	7.15
592.067	13.15
592.189	8.15
592.311	18.15
592.434	-3.85
592.556	13.15
592.678	12.15
592.801	13.15
592.923	14.15
593.045	4.15
593.168	11.15
593.29	1.15
593.412	25.15
593.535	11.15
593.657	-10.85
593.779	0.15
593.902	35.15
594.024	19.15
594.146	7.15
594.269	29.15
594.391	7.15
594.513	9.15
594.636	11.15
594.758	10.15
594.88	14.15
595.003	10.15
595.125	6.15
595.247	26.15
595.37	10.15
595.492	7.15
595.614	18.15
595.737	16.15
595.859	5.15
595.981	-2.85
596.104	24.15
596.226	13.15
596.348	0.15
596.471	7.15
596.593	29.15
596.715	12.15
596.838	-3.85
596.96	-1.85
597.082	16.15
597.204	5.15
597.327	3.15
597.449	21.15
597.571	14.15
597.694	34.15
597.816	22.15
597.938	20.15
598.061	6.15
598.183	11.15
598.305	4.15
598.427	7.15
598.55	17.15
598.672	21.15
598.794	11.15
598.917	20.15
599.039	20.15
599.161	15.15
599.283	6.15
599.406	20.15
599.528	11.15
599.65	43.15
599.773	17.15
599.895	42.15
600.017	30.15
600.139	34.15
600.262	14.15
600.384	7.15
600.506	10.15
600.628	15.15
600.751	39.15
600.873	5.15
600.995	-6.85
601.118	16.15
601.24	-6.85
601.362	17.15
601.484	30.15
601.607	25.15
601.729	17.15
601.851	-0.85
601.973	24.15
602.096	13.15
602.218	27.15
602.34	11.15
602.462	27.15
602.585	23.15
602.707	5.15
602.829	24.15
602.951	8.15
603.074	10.15
603.196	38.15
603.318	6.15
603.44	15.15
603.563	6.15
603.685	-9.85
603.807	4.15
603.929	24.15
604.052	17.15
604.174	7.15
604.296	14.15
604.418	41.15
604.541	38.15
604.663	22.15
604.785	25.15
604.907	5.15
605.03	-1.85
605.152	35.15
605.274	7.15
605.396	8.15
605.519	15.15
605.641	14.15
605.763	6.15
605.885	23.15
606.008	-1.85
606.13	22.15
606.252	37.15
606.374	-10.85
606.496	-13.85
606.619	10.15
606.741	14.15
606.863	32.15
606.985	37.15
607.108	22.15
607.23	13.15
607.352	11.15
607.474	15.15
607.596	15.15
607.719	18.15
607.841	19.15
607.963	6.15
608.085	7.15
608.207	51.15
608.33	12.15
608.452	12.15
608.574	10.15
608.696	39.15
608.819	17.15
608.941	13.15
609.063	-2.85
609.185	-5.85
609.307	10.15
609.43	31.15
609.552	26.15
609.674	12.15
609.796	1.15
609.918	17.15
610.041	2.15
610.163	11.15
610.285	12.15
610.407	14.15
610.529	-2.85
610.652	8.15
610.774	15.15
610.896	7.15
611.018	-4.85
611.14	6.15
611.263	3.15
611.385	9.15
611.507	19.15
611.629	14.15
611.751	10.15
611.873	27.15
611.996	13.15
612.118	16.15
612.24	-2.85
612.362	12.15
612.484	15.15
612.607	28.15
612.729	22.15
612.851	23.15
612.973	-4.85
613.095	29.15
613.218	15.15
613.34	27.15
613.462	15.15
613.584	21.15
613.706	17.15
613.828	45.15
613.951	13.15
614.073	13.15
614.195	-1.85
614.317	25.15
614.439	21.15
614.561	27.15
614.684	8.15
614.806	25.15
614.928	15.15
615.05	19.15
615.172	26.15
615.294	16.15
615.417	29.15
615.539	15.15
615.661	12.15
615.783	10.15
615.905	35.15
616.027	61.15
616.15	113.15
616.272	91.15
616.394	58.15
616.516	50.15
616.638	7.15
616.76	-4.85
616.883	22.15
617.005	28.15
617.127	6.15
617.249	-7.85
617.371	7.15
617.493	-1.85
617.615	24.15
617.738	6.15
617.86	0.15
617.982	21.15
618.104	10.15
618.226	-6.85
618.348	-5.85
618.471	32.15
618.593	11.15
618.715	-2.85
618.837	12.15
618.959	18.15
619.081	21.15
619.203	15.15
619.326	15.15
619.448	-3.85
619.57	16.15
619.692	5.15
619.814	18.15
619.936	26.15
620.058	11.15
620.181	-5.85
620.303	5.15
620.425	19.15
620.547	3.15
620.669	9.15
620.791	20.15
620.913	13.15
621.036	-2.85
621.158	24.15
621.28	22.15
621.402	-3.85
621.524	14.15
621.646	9.15
621.768	4.15
621.891	5.15
622.013	12.15
622.135	7.15
622.257	-2.85
622.379	10.15
622.501	13.15
622.623	-1.85
622.745	14.15
622.868	1.15
622.99	10.15
623.112	2.15
623.234	3.15
623.356	22.15
623.478	-7.85
623.6	21.15
623.722	6.15
623.845	20.15
623.967	18.15
624.089	23.15
624.211	11.15
624.333	5.15
624.455	24.15
624.577	-0.85
624.699	22.15
624.822	-4.85
624.944	7.15
625.066	24.15
625.188	8.15
625.31	26.15
625.432	23.15
625.554	3.15
625.676	21.15
625.799	-5.85
625.921	1.15
626.043	9.15
626.165	2.15
626.287	-24.85
626.409	27.15
626.531	-12.85
626.653	1.15
626.775	1.15
626.898	4.15
627.02	1.15
627.142	22.15
627.264	26.15
627.386	5.15
627.508	5.15
627.63	12.15
627.752	35.15
627.874	22.15
627.997	17.15
628.119	24.15
628.241	33.15
628.363	26.15
628.485	27.15
628.607	5.15
628.729	-10.85
628.851	1.15
628.973	15.15
629.096	3.15
629.218	3.15
629.34	11.15
629.462	0.15
629.584	-0.85
629.706	3.15
629.828	26.15
629.95	6.15
630.072	1.15
630.195	8.15
630.317	18.15
630.439	4.15
630.561	1.15
630.683	1.15
630.805	8.15
630.927	32.15
631.049	18.15
631.171	-6.85
631.293	7.15
631.416	18.15
631.538	5.15
631.66	-10.85
631.782	11.15
631.904	3.15
632.026	-12.85
632.148	12.15
632.27	-6.85
632.392	21.15
632.514	16.15
632.637	25.15
632.759	-0.85
632.881	-9.85
633.003	2.15
633.125	-3.85
633.247	-8.85
633.369	6.15
633.491	18.15
633.613	19.15
633.735	-9.85
633.858	13.15
633.98	18.15
634.102	-6.85
634.224	3.15
634.346	15.15
634.468	-1.85
634.59	17.15
634.712	-5.85
634.834	21.15
634.956	5.15
635.078	-6.85
635.201	2.15
635.323	1.15
635.445	6.15
635.567	-11.85
635.689	12.15
635.811	3.15
635.933	16.15
636.055	9.15
636.177	-8.85
636.299	27.15
636.421	6.15
636.544	1.15
636.666	30.15
636.788	18.15
636.91	7.15
637.032	-5.85
637.154	-0.85
637.276	25.15
637.398	19.15
637.52	30.15
637.642	16.15
637.764	21.15
637.887	15.15
638.009	14.15
638.131	7.15
638.253	-2.85
638.375	-16.85
638.497	-19.85
638.619	7.15
638.741	7.15
638.863	-22.85
638.985	0.15
639.107	13.15
639.23	15.15
639.352	8.15
639.474	-4.85
639.596	9.15
639.718	7.15
639.84	19.15
639.962	14.15
640.084	19.15
640.206	29.15
640.328	2.15
640.45	14.15
640.573	4.15
640.695	-1.85
640.817	18.15
640.939	27.15
641.061	3.15
641.183	8.15
641.305	9.15
641.427	8.15
641.549	-1.85
641.671	-13.85
641.793	-7.85
641.915	13.15
642.038	14.15
642.16	-2.85
642.282	0.15
642.404	0.15
642.526	13.15
642.648	14.15
642.77	-2.85
642.892	-6.85
643.014	13.15
643.136	11.15
643.258	16.15
643.381	15.15
643.503	11.15
643.625	11.15
643.747	-5.85
643.869	14.15
643.991	20.15
644.113	19.15
644.235	10.15
644.357	11.15
644.479	19.15
644.601	23.15
644.723	7.15
644.846	-6.85
644.968	-15.85
645.09	0.15
645.212	1.15
645.334	5.15
645.456	-0.85
645.578	-6.85
645.7	13.15
645.822	15.15
645.944	9.15
646.066	22.15
646.188	-8.85
646.311	21.15
646.433	18.15
646.555	43.15
646.677	35.15
646.799	30.15
646.921	43.15
647.043	31.15
647.165	-5.85
647.287	2.15
647.409	10.15
647.531	26.15
647.654	4.15
647.776	25.15
647.898	10.15
648.02	1.15
648.142	6.15
648.264	27.15
648.386	-1.85
648.508	5.15
648.63	19.15
648.752	15.15
648.874	9.15
648.997	-2.85
649.119	30.15
649.241	2.15
649.363	24.15
649.485	28.15
649.607	7.15
649.729	-12.85
649.851	2.15
649.973	10.15
650.095	18.15
650.217	21.15
650.34	6.15
650.462	27.15
650.584	1.15
650.706	19.15
650.828	13.15
650.95	-5.85
651.072	20.15
651.194	-0.85
651.316	-6.85
651.438	12.15
651.56	0.15
651.683	-10.85
651.805	1.15
651.927	11.15
652.049	-2.85
652.171	14.15
652.293	14.15
652.415	-9.85
652.537	0.15
652.659	0.15
652.781	27.15
652.903	19.15
653.026	33.15
653.148	27.15
653.27	1.15
653.392	14.15
653.514	4.15
653.636	7.15
653.758	1.15
653.88	15.15
654.002	4.15
654.124	13.15
654.247	10.15
654.369	15.15
654.491	8.15
654.613	22.15
654.735	11.15
654.857	37.15
654.979	19.15
655.101	18.15
655.223	41.15
655.345	23.15
655.468	24.15
655.59	10.15
655.712	23.15
655.834	18.15
655.956	27.15
656.078	19.15
656.2	42.15
656.322	48.15
656.444	24.15
656.566	57.15
656.689	70.15
656.811	80.15
656.933	91.15
657.055	101.15
657.177	159.15
657.299	230.15
657.421	504.15
657.543	1874.15
657.665	12422.15
657.787	15156.15
657.91	15204.15
658.032	15664.15
658.154	4600.15
658.276	3163.15
658.398	1119.15
658.52	1028.15
658.642	461.15
658.764	575.15
658.886	257.15
659.009	396.15
659.131	223.15
659.253	292.15
659.375	170.15
659.497	255.15
659.619	136.15
659.741	189.15
659.863	89.15
659.985	149.15
660.108	94.15
660.23	152.15
660.352	78.15
660.474	144.15
660.596	73.15
660.718	129.15
660.84	56.15
660.962	124.15
661.084	52.15
661.207	88.15
661.329	57.15
661.451	95.15
661.573	31.15
661.695	112.15
661.817	53.15
661.939	109.15
662.061	66.15
662.184	78.15
662.306	39.15
662.428	73.15
662.55	47.15
662.672	73.15
662.794	51.15
662.916	59.15
663.038	19.15
663.161	78.15
663.283	36.15
663.405	65.15
663.527	23.15
663.649	74.15
663.771	23.15
663.893	64.15
664.015	30.15
664.138	46.15
664.26	20.15
664.382	52.15
664.504	25.15
664.626	21.15
664.748	10.15
664.87	49.15
664.992	40.15
665.115	50.15
665.237	28.15
665.359	17.15
665.481	24.15
665.603	53.15
665.725	14.15
665.847	34.15
665.97	24.15
666.092	50.15
666.214	40.15
666.336	35.15
666.458	25.15
666.58	37.15
666.702	-0.85
666.825	29.15
666.947	-1.85
667.069	45.15
667.191	10.15
667.313	36.15
667.435	3.15
667.557	26.15
667.68	9.15
667.802	26.15
667.924	24.15
668.046	44.15
668.168	23.15
668.29	50.15
668.412	19.15
668.535	36.15
668.657	25.15
668.779	26.15
668.901	22.15
669.023	47.15
669.145	5.15
669.267	21.15
669.39	10.15
669.512	37.15
669.634	19.15
669.756	18.15
669.878	21.15
670	29.15
670.123	-0.85
670.245	30.15
670.367	16.15
670.489	19.15
670.611	12.15
670.733	21.15
670.856	-0.85
670.978	22.15
671.1	17.15
671.222	58.15
671.344	16.15
671.466	8.15
671.589	3.15
671.711	31.15
671.833	14.15
671.955	14.15
672.077	3.15
672.199	30.15
672.322	41.15
672.444	34.15
672.566	25.15
672.688	24.15
672.81	18.15
672.932	29.15
673.055	13.15
673.177	5.15
673.299	9.15
673.421	10.15
673.543	31.15
673.665	49.15
673.788	33.15
673.91	17.15
674.032	2.15
674.154	15.15
674.276	20.15
674.399	13.15
674.521	13.15
674.643	23.15
674.765	-1.85
674.887	17.15
675.009	12.15
675.132	6.15
675.254	10.15
675.376	28.15
675.498	1.15
675.62	21.15
675.743	2.15
675.865	39.15
675.987	14.15
676.109	22.15
676.231	17.15
676.354	40.15
676.476	4.15
676.598	26.15
676.72	1.15
676.842	25.15
676.965	17.15
677.087	21.15
677.209	32.15
677.331	34.15
677.453	18.15
677.576	18.15
677.698	22.15
677.82	9.15
677.942	7.15
678.064	9.15
678.187	6.15
678.309	13.15
678.431	9.15
678.553	14.15
678.675	46.15
678.798	25.15
678.92	19.15
679.042	22.15
679.164	11.15
679.286	62.15
679.409	-2.85
679.531	2.15
679.653	2.15
679.775	23.15
679.898	12.15
680.02	21.15
680.142	1.15
680.264	15.15
680.386	11.15
680.509	21.15
680.631	25.15
680.753	11.15
680.875	5.15
680.998	11.15
681.12	5.15
681.242	31.15
681.364	16.15
681.486	20.15
681.609	-9.85
681.731	3.15
681.853	-1.85
681.975	4.15
682.098	16.15
682.22	13.15
682.342	8.15
682.464	14.15
682.587	7.15
682.709	12.15
682.831	-10.85
682.953	6.15
683.076	2.15
683.198	30.15
683.32	15.15
683.442	29.15
683.565	24.15
683.687	3.15
683.809	-2.85
683.931	-10.85
684.054	11.15
684.176	15.15
684.298	19.15
684.42	6.15
684.543	3.15
684.665	18.15
684.787	7.15
684.909	4.15
685.032	17.15
685.154	2.15
685.276	0.15
685.398	21.15
685.521	-9.85
685.643	19.15
685.765	20.15
685.887	20.15
686.01	13.15
686.132	17.15
686.254	15.15
686.377	31.15
686.499	10.15
686.621	18.15
686.743	18.15
686.866	27.15
686.988	39.15
687.11	23.15
687.232	8.15
687.355	-0.85
687.477	23.15
687.599	27.15
687.722	14.15
687.844	5.15
687.966	6.15
688.088	7.15
688.211	25.15
688.333	5.15
688.455	2.15
688.578	16.15
688.7	7.15
688.822	11.15
688.944	-5.85
689.067	44.15
689.189	6.15
689.311	4.15
689.434	27.15
689.556	16.15
689.678	10.15
689.801	1.15
689.923	8.15
690.045	28.15
690.167	28.15
690.29	18.15
690.412	5.15
690.534	17.15
690.657	5.15
690.779	5.15
690.901	15.15
691.024	25.15
691.146	11.15
691.268	-1.85
691.391	5.15
691.513	21.15
691.635	30.15
691.758	26.15
691.88	29.15
692.002	14.15
692.125	5.15
692.247	25.15
692.369	8.15
692.492	14.15
692.614	11.15
692.736	1.15
692.859	-7.85
692.981	11.15
693.103	-2.85
693.226	5.15
693.348	20.15
693.47	2.15
693.593	-16.85
693.715	-13.85
693.837	-12.85
693.96	19.15
694.082	-5.85
694.204	20.15
694.327	30.15
694.449	7.15
694.571	-8.85
694.694	11.15
694.816	24.15
694.938	5.15
695.061	17.15
695.183	21.15
695.305	17.15
695.428	10.15
695.55	3.15
695.672	23.15
695.795	28.15
695.917	20.15
696.04	10.15
696.162	4.15
696.284	15.15
696.407	4.15
696.529	10.15
696.651	29.15
696.774	7.15
696.896	26.15
697.019	3.15
697.141	-0.85
697.263	-2.85
697.386	-5.85
697.508	-2.85
697.63	19.15
697.753	30.15
697.875	16.15
697.998	-1.85
698.12	7.15
698.242	9.15
698.365	19.15
698.487	9.15
698.61	26.15
698.732	19.15
698.854	35.15
698.977	14.15
699.099	11.15
699.221	8.15
699.344	18.15
699.466	18.15
699.589	21.15
699.711	-3.85
699.834	9.15
699.956	16.15
700.078	15.15
700.201	-3.85
700.323	33.15
700.446	17.15
700.568	5.15
700.69	11.15
700.813	36.15
700.935	-1.85
701.058	19.15
701.18	-2.85
701.302	-6.85
701.425	-14.85
701.547	-3.85
701.67	11.15
701.792	25.15
701.915	-3.85
702.037	1.15
702.159	13.15
702.282	19.15
702.404	8.15
702.527	17.15
702.649	28.15
702.772	18.15
702.894	4.15
703.017	37.15
703.139	17.15
703.261	7.15
703.384	5.15
703.506	-11.85
703.629	-3.85
703.751	25.15
703.874	7.15
703.996	8.15
704.119	8.15
704.241	15.15
704.364	-10.85
704.486	20.15
704.608	12.15
704.731	-0.85
704.853	19.15
704.976	18.15
705.098	13.15
705.221	4.15
705.343	11.15
705.466	30.15
705.588	15.15
705.711	16.15
705.833	9.15
705.956	5.15
706.078	19.15
706.201	6.15
706.323	-0.85
706.446	7.15
