Data from LowRes_H2_15_26_11_07_2024_HR4C61881__60__15-28-19-637.txt Node

Date: Thu Nov 07 15:28:19 EST 2024
User: crc00042
Spectrometer: HR4C6188
Trigger mode: 4
Integration Time (sec): 1.000000E-1
Scans to average: 1
Electric dark correction enabled: true
Nonlinearity correction enabled: false
Boxcar width: 0
XAxis mode: Wavelengths
Number of Pixels in Spectrum: 3648
>>>>>Begin Spectral Data<<<<<
245.66	-112.62
245.797	-112.62
245.934	-112.62
246.071	-74.62
246.208	1.38
246.344	3.38
246.481	-21.62
246.618	-12.62
246.755	12.38
246.892	1.38
247.029	5.38
247.165	-20.62
247.302	-13.62
247.439	7.38
247.576	15.38
247.713	1.38
247.849	20.38
247.986	1.38
248.123	-6.62
248.26	-15.62
248.396	9.38
248.533	2.38
248.67	-6.62
248.806	2.38
248.943	-31.62
249.08	-10.62
249.216	19.38
249.353	-4.62
249.49	-4.62
249.626	-2.62
249.763	-3.62
249.9	-26.62
250.036	-1.62
250.173	-1.62
250.309	-0.62
250.446	15.38
250.582	6.38
250.719	-8.62
250.856	-5.62
250.992	-3.62
251.129	-10.62
251.265	-19.62
251.402	-15.62
251.538	14.38
251.675	-5.62
251.811	3.38
251.948	9.38
252.084	18.38
252.221	-0.62
252.357	8.38
252.493	15.38
252.63	3.38
252.766	9.38
252.903	6.38
253.039	-9.62
253.175	-7.62
253.312	0.38
253.448	-1.62
253.585	-25.62
253.721	11.38
253.857	-0.62
253.994	0.38
254.13	-0.62
254.266	12.38
254.403	-6.62
254.539	-7.62
254.675	20.38
254.811	9.38
254.948	11.38
255.084	3.38
255.22	-20.62
255.356	-3.62
255.493	12.38
255.629	5.38
255.765	3.38
255.901	17.38
256.037	15.38
256.174	1.38
256.31	-5.62
256.446	-16.62
256.582	8.38
256.718	18.38
256.854	8.38
256.991	-0.62
257.127	11.38
257.263	7.38
257.399	-5.62
257.535	-15.62
257.671	-12.62
257.807	-12.62
257.943	-23.62
258.079	-16.62
258.215	-11.62
258.351	16.38
258.487	-12.62
258.623	23.38
258.759	7.38
258.895	-11.62
259.031	-3.62
259.167	-19.62
259.303	16.38
259.439	18.38
259.575	-4.62
259.711	0.38
259.847	-10.62
259.983	14.38
260.119	-2.62
260.255	-13.62
260.391	13.38
260.527	5.38
260.663	-1.62
260.799	0.38
260.934	-10.62
261.07	-29.62
261.206	-19.62
261.342	-22.62
261.478	23.38
261.614	4.38
261.749	4.38
261.885	1.38
262.021	14.38
262.157	27.38
262.293	26.38
262.428	16.38
262.564	2.38
262.7	6.38
262.836	-20.62
262.971	6.38
263.107	21.38
263.243	2.38
263.378	3.38
263.514	-9.62
263.65	0.38
263.785	2.38
263.921	0.38
264.057	-0.62
264.192	-8.62
264.328	2.38
264.464	-15.62
264.599	1.38
264.735	20.38
264.871	0.38
265.006	7.38
265.142	-1.62
265.277	10.38
265.413	12.38
265.548	10.38
265.684	6.38
265.819	-7.62
265.955	-28.62
266.091	-7.62
266.226	-17.62
266.362	-0.62
266.497	1.38
266.633	-6.62
266.768	-12.62
266.903	3.38
267.039	-11.62
267.174	11.38
267.31	8.38
267.445	-14.62
267.581	-12.62
267.716	24.38
267.851	11.38
267.987	10.38
268.122	28.38
268.258	4.38
268.393	12.38
268.528	5.38
268.664	2.38
268.799	-7.62
268.934	12.38
269.07	-6.62
269.205	17.38
269.34	20.38
269.476	2.38
269.611	-14.62
269.746	-1.62
269.881	8.38
270.017	16.38
270.152	-3.62
270.287	-6.62
270.422	13.38
270.558	-9.62
270.693	13.38
270.828	-1.62
270.963	2.38
271.098	-12.62
271.234	-6.62
271.369	19.38
271.504	-5.62
271.639	-16.62
271.774	-17.62
271.909	3.38
272.045	-7.62
272.18	-19.62
272.315	0.38
272.45	23.38
272.585	-19.62
272.72	-4.62
272.855	3.38
272.99	9.38
273.125	2.38
273.26	-22.62
273.395	-6.62
273.53	10.38
273.665	4.38
273.8	9.38
273.935	4.38
274.07	1.38
274.205	-11.62
274.34	-13.62
274.475	-10.62
274.61	21.38
274.745	-27.62
274.88	10.38
275.015	-7.62
275.15	1.38
275.285	13.38
275.42	2.38
275.555	6.38
275.69	1.38
275.825	-0.62
275.959	14.38
276.094	-2.62
276.229	-13.62
276.364	2.38
276.499	14.38
276.634	8.38
276.768	-7.62
276.903	14.38
277.038	6.38
277.173	11.38
277.308	-19.62
277.442	-19.62
277.577	-23.62
277.712	4.38
277.847	0.38
277.981	12.38
278.116	-9.62
278.251	25.38
278.386	8.38
278.52	11.38
278.655	9.38
278.79	27.38
278.924	-0.62
279.059	2.38
279.194	-21.62
279.328	38.38
279.463	5.38
279.598	13.38
279.732	12.38
279.867	4.38
280.001	27.38
280.136	10.38
280.271	9.38
280.405	23.38
280.54	8.38
280.674	0.38
280.809	13.38
280.943	26.38
281.078	0.38
281.213	30.38
281.347	13.38
281.482	-5.62
281.616	1.38
281.751	15.38
281.885	-2.62
282.02	-6.62
282.154	14.38
282.288	0.38
282.423	2.38
282.557	-26.62
282.692	8.38
282.826	13.38
282.961	6.38
283.095	1.38
283.229	-1.62
283.364	-10.62
283.498	-14.62
283.633	11.38
283.767	13.38
283.901	-6.62
284.036	12.38
284.17	-8.62
284.304	1.38
284.439	-3.62
284.573	-9.62
284.707	10.38
284.842	-5.62
284.976	2.38
285.11	4.38
285.244	0.38
285.379	38.38
285.513	5.38
285.647	5.38
285.781	3.38
285.916	-1.62
286.05	-9.62
286.184	35.38
286.318	22.38
286.453	8.38
286.587	-19.62
286.721	-9.62
286.855	8.38
286.989	5.38
287.123	4.38
287.258	-1.62
287.392	7.38
287.526	7.38
287.66	2.38
287.794	-4.62
287.928	-22.62
288.062	-1.62
288.196	2.38
288.33	7.38
288.464	17.38
288.598	19.38
288.733	16.38
288.867	12.38
289.001	4.38
289.135	8.38
289.269	-12.62
289.403	1.38
289.537	13.38
289.671	-5.62
289.805	5.38
289.939	-6.62
290.073	-6.62
290.207	21.38
290.34	16.38
290.474	18.38
290.608	15.38
290.742	5.38
290.876	-1.62
291.01	-4.62
291.144	26.38
291.278	13.38
291.412	6.38
291.546	-6.62
291.679	-9.62
291.813	-10.62
291.947	-0.62
292.081	-3.62
292.215	1.38
292.349	13.38
292.482	15.38
292.616	-9.62
292.75	-0.62
292.884	4.38
293.018	10.38
293.151	-8.62
293.285	4.38
293.419	1.38
293.553	-6.62
293.686	-10.62
293.82	-11.62
293.954	17.38
294.088	28.38
294.221	-1.62
294.355	-3.62
294.489	18.38
294.622	1.38
294.756	13.38
294.89	3.38
295.023	9.38
295.157	7.38
295.291	12.38
295.424	12.38
295.558	20.38
295.691	12.38
295.825	-7.62
295.959	7.38
296.092	5.38
296.226	-2.62
296.359	9.38
296.493	17.38
296.627	4.38
296.76	11.38
296.894	-15.62
297.027	2.38
297.161	-2.62
297.294	-15.62
297.428	-13.62
297.561	24.38
297.695	-6.62
297.828	11.38
297.962	-6.62
298.095	-13.62
298.229	-9.62
298.362	-25.62
298.495	-11.62
298.629	-12.62
298.762	8.38
298.896	3.38
299.029	1.38
299.162	9.38
299.296	14.38
299.429	-3.62
299.563	9.38
299.696	17.38
299.829	5.38
299.963	10.38
300.096	2.38
300.229	20.38
300.363	-9.62
300.496	-10.62
300.629	-25.62
300.763	-23.62
300.896	-18.62
301.029	-0.62
301.162	6.38
301.296	-12.62
301.429	-19.62
301.562	-30.62
301.695	-5.62
301.829	-4.62
301.962	14.38
302.095	16.38
302.228	-7.62
302.362	5.38
302.495	-11.62
302.628	4.38
302.761	0.38
302.894	2.38
303.027	7.38
303.161	-15.62
303.294	-13.62
303.427	24.38
303.56	-1.62
303.693	-11.62
303.826	6.38
303.959	-5.62
304.092	-12.62
304.225	-8.62
304.359	-4.62
304.492	-0.62
304.625	-33.62
304.758	10.38
304.891	12.38
305.024	-3.62
305.157	-6.62
305.29	-19.62
305.423	-4.62
305.556	13.38
305.689	21.38
305.822	15.38
305.955	-2.62
306.088	10.38
306.221	-2.62
306.354	-3.62
306.487	-6.62
306.62	-25.62
306.752	-5.62
306.885	-12.62
307.018	5.38
307.151	11.38
307.284	19.38
307.417	-10.62
307.55	16.38
307.683	14.38
307.816	16.38
307.948	-14.62
308.081	3.38
308.214	14.38
308.347	19.38
308.48	-7.62
308.613	-21.62
308.745	2.38
308.878	-8.62
309.011	-2.62
309.144	-4.62
309.277	-0.62
309.409	21.38
309.542	-13.62
309.675	3.38
309.808	13.38
309.94	9.38
310.073	-5.62
310.206	-1.62
310.339	4.38
310.471	-14.62
310.604	18.38
310.737	-5.62
310.869	10.38
311.002	-4.62
311.135	-6.62
311.267	-11.62
311.4	5.38
311.533	20.38
311.665	-0.62
311.798	1.38
311.93	9.38
312.063	22.38
312.196	-2.62
312.328	6.38
312.461	7.38
312.593	8.38
312.726	9.38
312.859	9.38
312.991	13.38
313.124	-19.62
313.256	11.38
313.389	14.38
313.521	2.38
313.654	-10.62
313.786	-16.62
313.919	-14.62
314.051	5.38
314.184	15.38
314.316	-0.62
314.449	-14.62
314.581	4.38
314.714	-0.62
314.846	13.38
314.978	-1.62
315.111	5.38
315.243	4.38
315.376	8.38
315.508	11.38
315.641	7.38
315.773	31.38
315.905	0.38
316.038	-20.62
316.17	-2.62
316.302	15.38
316.435	2.38
316.567	-0.62
316.699	30.38
316.832	-11.62
316.964	-7.62
317.096	-8.62
317.229	-10.62
317.361	1.38
317.493	-8.62
317.625	-14.62
317.758	9.38
317.89	6.38
318.022	1.38
318.155	-21.62
318.287	2.38
318.419	5.38
318.551	-0.62
318.683	-11.62
318.816	-6.62
318.948	-6.62
319.08	-28.62
319.212	-5.62
319.344	14.38
319.477	-9.62
319.609	10.38
319.741	8.38
319.873	-1.62
320.005	-17.62
320.137	-16.62
320.269	-2.62
320.401	-1.62
320.534	-7.62
320.666	-12.62
320.798	-11.62
320.93	-10.62
321.062	-28.62
321.194	-7.62
321.326	-10.62
321.458	-2.62
321.59	-2.62
321.722	-13.62
321.854	7.38
321.986	-5.62
322.118	-20.62
322.25	-3.62
322.382	13.38
322.514	-12.62
322.646	-16.62
322.778	4.38
322.91	-10.62
323.042	4.38
323.174	-9.62
323.306	-7.62
323.438	-37.62
323.57	14.38
323.702	-12.62
323.834	-16.62
323.966	-7.62
324.097	-13.62
324.229	8.38
324.361	22.38
324.493	12.38
324.625	-26.62
324.757	16.38
324.889	-1.62
325.021	-6.62
325.152	12.38
325.284	17.38
325.416	-7.62
325.548	16.38
325.68	-4.62
325.811	11.38
325.943	4.38
326.075	-37.62
326.207	-5.62
326.339	8.38
326.47	0.38
326.602	3.38
326.734	19.38
326.866	14.38
326.997	-19.62
327.129	-1.62
327.261	-9.62
327.392	3.38
327.524	3.38
327.656	4.38
327.787	8.38
327.919	16.38
328.051	12.38
328.182	-3.62
328.314	20.38
328.446	1.38
328.577	13.38
328.709	8.38
328.841	0.38
328.972	-22.62
329.104	-7.62
329.235	3.38
329.367	4.38
329.499	19.38
329.63	31.38
329.762	3.38
329.893	11.38
330.025	-9.62
330.156	-17.62
330.288	7.38
330.419	8.38
330.551	4.38
330.683	1.38
330.814	-17.62
330.946	-7.62
331.077	-7.62
331.208	-15.62
331.34	-1.62
331.471	-9.62
331.603	-1.62
331.734	-14.62
331.866	-5.62
331.997	-3.62
332.129	-8.62
332.26	4.38
332.392	40.38
332.523	0.38
332.654	-11.62
332.786	-4.62
332.917	-1.62
333.048	26.38
333.18	20.38
333.311	-19.62
333.443	12.38
333.574	0.38
333.705	24.38
333.837	-3.62
333.968	3.38
334.099	22.38
334.231	8.38
334.362	-17.62
334.493	4.38
334.624	20.38
334.756	-0.62
334.887	0.38
335.018	7.38
335.15	15.38
335.281	1.38
335.412	3.38
335.543	-3.62
335.675	-0.62
335.806	10.38
335.937	-3.62
336.068	-0.62
336.199	19.38
336.331	-15.62
336.462	-8.62
336.593	15.38
336.724	-7.62
336.855	11.38
336.986	4.38
337.118	-9.62
337.249	9.38
337.38	5.38
337.511	-10.62
337.642	9.38
337.773	-0.62
337.904	5.38
338.035	-11.62
338.166	3.38
338.298	10.38
338.429	3.38
338.56	7.38
338.691	27.38
338.822	32.38
338.953	29.38
339.084	19.38
339.215	-0.62
339.346	-6.62
339.477	-9.62
339.608	-1.62
339.739	-15.62
339.87	-15.62
340.001	-14.62
340.132	5.38
340.263	-1.62
340.394	15.38
340.525	2.38
340.656	15.38
340.787	-2.62
340.918	22.38
341.049	11.38
341.179	9.38
341.31	-1.62
341.441	6.38
341.572	3.38
341.703	3.38
341.834	-15.62
341.965	-3.62
342.096	-8.62
342.227	2.38
342.357	-1.62
342.488	9.38
342.619	29.38
342.75	7.38
342.881	-6.62
343.012	6.38
343.142	30.38
343.273	-7.62
343.404	-4.62
343.535	18.38
343.666	23.38
343.796	21.38
343.927	10.38
344.058	21.38
344.189	6.38
344.319	16.38
344.45	23.38
344.581	11.38
344.712	0.38
344.842	-10.62
344.973	-9.62
345.104	12.38
345.234	2.38
345.365	-4.62
345.496	-11.62
345.626	-4.62
345.757	4.38
345.888	-5.62
346.018	16.38
346.149	-9.62
346.28	30.38
346.41	-11.62
346.541	2.38
346.672	-12.62
346.802	2.38
346.933	16.38
347.063	-6.62
347.194	-4.62
347.325	2.38
347.455	17.38
347.586	14.38
347.716	-0.62
347.847	13.38
347.977	13.38
348.108	11.38
348.238	13.38
348.369	16.38
348.499	0.38
348.63	-0.62
348.76	16.38
348.891	7.38
349.021	14.38
349.152	6.38
349.282	1.38
349.413	4.38
349.543	16.38
349.674	-15.62
349.804	12.38
349.935	-17.62
350.065	-8.62
350.196	0.38
350.326	7.38
350.456	6.38
350.587	27.38
350.717	3.38
350.848	-10.62
350.978	6.38
351.108	-2.62
351.239	12.38
351.369	-30.62
351.499	-30.62
351.63	2.38
351.76	23.38
351.89	20.38
352.021	9.38
352.151	-13.62
352.281	-0.62
352.412	10.38
352.542	6.38
352.672	-7.62
352.803	3.38
352.933	-9.62
353.063	-1.62
353.193	-9.62
353.324	-3.62
353.454	13.38
353.584	9.38
353.714	2.38
353.845	3.38
353.975	-10.62
354.105	-14.62
354.235	2.38
354.365	-2.62
354.496	0.38
354.626	14.38
354.756	11.38
354.886	19.38
355.016	-4.62
355.146	2.38
355.277	5.38
355.407	-14.62
355.537	-13.62
355.667	12.38
355.797	13.38
355.927	5.38
356.057	13.38
356.187	14.38
356.318	-13.62
356.448	18.38
356.578	18.38
356.708	7.38
356.838	15.38
356.968	1.38
357.098	12.38
357.228	2.38
357.358	-8.62
357.488	-5.62
357.618	21.38
357.748	1.38
357.878	13.38
358.008	2.38
358.138	1.38
358.268	-1.62
358.398	14.38
358.528	3.38
358.658	13.38
358.788	-1.62
358.918	-5.62
359.048	8.38
359.178	21.38
359.308	22.38
359.438	35.38
359.568	11.38
359.698	-0.62
359.827	3.38
359.957	-8.62
360.087	15.38
360.217	-7.62
360.347	3.38
360.477	17.38
360.607	-6.62
360.737	5.38
360.866	-4.62
360.996	15.38
361.126	-6.62
361.256	21.38
361.386	34.38
361.516	8.38
361.645	0.38
361.775	18.38
361.905	-9.62
362.035	20.38
362.165	29.38
362.294	3.38
362.424	21.38
362.554	22.38
362.684	-12.62
362.813	-4.62
362.943	26.38
363.073	15.38
363.203	4.38
363.332	12.38
363.462	-2.62
363.592	-17.62
363.721	5.38
363.851	6.38
363.981	12.38
364.111	12.38
364.24	4.38
364.37	4.38
364.5	13.38
364.629	14.38
364.759	0.38
364.888	-4.62
365.018	5.38
365.148	12.38
365.277	4.38
365.407	13.38
365.537	2.38
365.666	14.38
365.796	2.38
365.925	-0.62
366.055	13.38
366.184	-0.62
366.314	14.38
366.444	22.38
366.573	4.38
366.703	12.38
366.832	4.38
366.962	3.38
367.091	0.38
367.221	18.38
367.35	7.38
367.48	38.38
367.609	-10.62
367.739	3.38
367.868	2.38
367.998	7.38
368.127	30.38
368.257	14.38
368.386	22.38
368.516	14.38
368.645	3.38
368.775	0.38
368.904	-12.62
369.033	-3.62
369.163	-11.62
369.292	-7.62
369.422	9.38
369.551	2.38
369.68	-5.62
369.81	10.38
369.939	3.38
370.069	22.38
370.198	11.38
370.327	-8.62
370.457	-13.62
370.586	-2.62
370.715	8.38
370.845	10.38
370.974	28.38
371.103	17.38
371.233	17.38
371.362	2.38
371.491	6.38
371.621	12.38
371.75	-7.62
371.879	-8.62
372.008	6.38
372.138	-9.62
372.267	24.38
372.396	10.38
372.525	19.38
372.655	-0.62
372.784	2.38
372.913	4.38
373.042	16.38
373.172	24.38
373.301	-0.62
373.43	-12.62
373.559	0.38
373.688	12.38
373.818	16.38
373.947	12.38
374.076	16.38
374.205	25.38
374.334	4.38
374.463	-27.62
374.593	19.38
374.722	12.38
374.851	29.38
374.98	3.38
375.109	7.38
375.238	16.38
375.367	48.38
375.496	-4.62
375.625	-3.62
375.755	18.38
375.884	25.38
376.013	7.38
376.142	-18.62
376.271	-4.62
376.4	-0.62
376.529	-3.62
376.658	3.38
376.787	-6.62
376.916	-1.62
377.045	-1.62
377.174	6.38
377.303	4.38
377.432	-3.62
377.561	6.38
377.69	15.38
377.819	28.38
377.948	-4.62
378.077	-16.62
378.206	-12.62
378.335	-1.62
378.464	16.38
378.593	18.38
378.722	12.38
378.851	19.38
378.98	30.38
379.108	-8.62
379.237	-5.62
379.366	8.38
379.495	10.38
379.624	-4.62
379.753	4.38
379.882	17.38
380.011	-6.62
380.14	-20.62
380.268	10.38
380.397	-4.62
380.526	20.38
380.655	-16.62
380.784	-10.62
380.913	-0.62
381.041	-0.62
381.17	-19.62
381.299	-13.62
381.428	25.38
381.557	10.38
381.685	12.38
381.814	-0.62
381.943	4.38
382.072	-12.62
382.2	-7.62
382.329	0.38
382.458	16.38
382.587	16.38
382.715	17.38
382.844	13.38
382.973	24.38
383.102	-11.62
383.23	3.38
383.359	-15.62
383.488	-2.62
383.616	-7.62
383.745	1.38
383.874	1.38
384.003	-1.62
384.131	-15.62
384.26	-8.62
384.389	9.38
384.517	-24.62
384.646	-15.62
384.774	8.38
384.903	12.38
385.032	7.38
385.16	18.38
385.289	10.38
385.418	6.38
385.546	10.38
385.675	14.38
385.803	16.38
385.932	8.38
386.06	2.38
386.189	-1.62
386.318	8.38
386.446	3.38
386.575	7.38
386.703	2.38
386.832	-3.62
386.96	-8.62
387.089	27.38
387.217	9.38
387.346	-5.62
387.474	10.38
387.603	8.38
387.731	10.38
387.86	21.38
387.988	12.38
388.117	15.38
388.245	-7.62
388.374	6.38
388.502	12.38
388.631	3.38
388.759	9.38
388.888	8.38
389.016	-12.62
389.144	9.38
389.273	10.38
389.401	0.38
389.53	-22.62
389.658	4.38
389.786	-23.62
389.915	-10.62
390.043	-9.62
390.172	2.38
390.3	10.38
390.428	-1.62
390.557	3.38
390.685	19.38
390.813	-1.62
390.942	11.38
391.07	-5.62
391.198	-11.62
391.327	4.38
391.455	-5.62
391.583	27.38
391.712	4.38
391.84	-8.62
391.968	-1.62
392.096	-6.62
392.225	4.38
392.353	11.38
392.481	9.38
392.609	27.38
392.738	24.38
392.866	8.38
392.994	2.38
393.122	-12.62
393.251	-6.62
393.379	-6.62
393.507	-12.62
393.635	5.38
393.764	6.38
393.892	25.38
394.02	1.38
394.148	-0.62
394.276	-15.62
394.404	32.38
394.533	2.38
394.661	3.38
394.789	15.38
394.917	18.38
395.045	-3.62
395.173	-0.62
395.302	-16.62
395.43	4.38
395.558	0.38
395.686	15.38
395.814	8.38
395.942	12.38
396.07	12.38
396.198	2.38
396.326	12.38
396.454	22.38
396.582	6.38
396.711	-8.62
396.839	14.38
396.967	9.38
397.095	-17.62
397.223	11.38
397.351	23.38
397.479	1.38
397.607	6.38
397.735	-1.62
397.863	18.38
397.991	11.38
398.119	-2.62
398.247	-2.62
398.375	7.38
398.503	0.38
398.631	16.38
398.759	2.38
398.887	10.38
399.015	-3.62
399.143	-9.62
399.271	13.38
399.399	-6.62
399.526	11.38
399.654	10.38
399.782	2.38
399.91	18.38
400.038	30.38
400.166	13.38
400.294	11.38
400.422	6.38
400.55	13.38
400.678	12.38
400.805	2.38
400.933	17.38
401.061	10.38
401.189	-5.62
401.317	32.38
401.445	28.38
401.573	21.38
401.7	4.38
401.828	-4.62
401.956	-14.62
402.084	18.38
402.212	19.38
402.34	10.38
402.467	19.38
402.595	-6.62
402.723	12.38
402.851	26.38
402.978	-5.62
403.106	19.38
403.234	7.38
403.362	31.38
403.489	28.38
403.617	-0.62
403.745	8.38
403.873	-17.62
404	15.38
404.128	9.38
404.256	18.38
404.384	13.38
404.511	-0.62
404.639	-6.62
404.767	13.38
404.894	-6.62
405.022	10.38
405.15	1.38
405.277	-4.62
405.405	0.38
405.533	10.38
405.66	-12.62
405.788	-20.62
405.916	-36.62
406.043	-6.62
406.171	-14.62
406.299	17.38
406.426	13.38
406.554	5.38
406.681	29.38
406.809	7.38
406.937	-1.62
407.064	2.38
407.192	23.38
407.319	-3.62
407.447	-7.62
407.574	16.38
407.702	5.38
407.83	-10.62
407.957	4.38
408.085	23.38
408.212	5.38
408.34	19.38
408.467	6.38
408.595	15.38
408.722	11.38
408.85	29.38
408.977	19.38
409.105	9.38
409.232	21.38
409.36	2.38
409.487	16.38
409.615	20.38
409.742	15.38
409.87	20.38
409.997	43.38
410.125	30.38
410.252	51.38
410.379	41.38
410.507	31.38
410.634	8.38
410.762	16.38
410.889	16.38
411.017	11.38
411.144	11.38
411.271	-29.62
411.399	-3.62
411.526	-11.62
411.653	3.38
411.781	13.38
411.908	26.38
412.036	12.38
412.163	20.38
412.29	7.38
412.418	6.38
412.545	2.38
412.672	8.38
412.8	25.38
412.927	6.38
413.054	30.38
413.182	11.38
413.309	-4.62
413.436	-10.62
413.564	0.38
413.691	-0.62
413.818	31.38
413.945	16.38
414.073	3.38
414.2	8.38
414.327	8.38
414.454	10.38
414.582	3.38
414.709	-9.62
414.836	2.38
414.963	0.38
415.091	17.38
415.218	-9.62
415.345	-8.62
415.472	-6.62
415.6	10.38
415.727	0.38
415.854	6.38
415.981	7.38
416.108	5.38
416.236	15.38
416.363	7.38
416.49	-9.62
416.617	6.38
416.744	11.38
416.871	-0.62
416.998	-15.62
417.126	10.38
417.253	8.38
417.38	18.38
417.507	0.38
417.634	6.38
417.761	18.38
417.888	11.38
418.015	-0.62
418.143	12.38
418.27	24.38
418.397	-14.62
418.524	16.38
418.651	-7.62
418.778	17.38
418.905	36.38
419.032	7.38
419.159	11.38
419.286	27.38
419.413	10.38
419.54	22.38
419.667	0.38
419.794	2.38
419.921	11.38
420.048	13.38
420.175	15.38
420.302	-10.62
420.429	10.38
420.556	6.38
420.683	-15.62
420.81	-13.62
420.937	9.38
421.064	17.38
421.191	-3.62
421.318	9.38
421.445	27.38
421.572	-6.62
421.699	24.38
421.826	26.38
421.953	26.38
422.08	31.38
422.207	-12.62
422.334	-10.62
422.461	25.38
422.588	4.38
422.714	9.38
422.841	33.38
422.968	6.38
423.095	10.38
423.222	-9.62
423.349	28.38
423.476	6.38
423.603	3.38
423.729	-9.62
423.856	0.38
423.983	36.38
424.11	3.38
424.237	4.38
424.364	2.38
424.491	-1.62
424.617	9.38
424.744	-4.62
424.871	25.38
424.998	-7.62
425.125	-9.62
425.251	8.38
425.378	1.38
425.505	10.38
425.632	9.38
425.758	-13.62
425.885	19.38
426.012	9.38
426.139	21.38
426.266	17.38
426.392	21.38
426.519	-5.62
426.646	-5.62
426.772	20.38
426.899	1.38
427.026	20.38
427.153	-0.62
427.279	31.38
427.406	7.38
427.533	18.38
427.659	-2.62
427.786	17.38
427.913	15.38
428.039	-3.62
428.166	12.38
428.293	11.38
428.419	11.38
428.546	17.38
428.673	2.38
428.799	-15.62
428.926	0.38
429.053	15.38
429.179	15.38
429.306	2.38
429.433	16.38
429.559	16.38
429.686	-4.62
429.812	-9.62
429.939	9.38
430.066	8.38
430.192	14.38
430.319	14.38
430.445	-11.62
430.572	13.38
430.699	2.38
430.825	1.38
430.952	11.38
431.078	-6.62
431.205	13.38
431.331	7.38
431.458	5.38
431.584	-2.62
431.711	-0.62
431.837	-0.62
431.964	7.38
432.09	3.38
432.217	-14.62
432.343	10.38
432.47	21.38
432.596	10.38
432.723	9.38
432.849	-8.62
432.976	10.38
433.102	11.38
433.229	-2.62
433.355	21.38
433.482	82.38
433.608	151.38
433.735	146.38
433.861	121.38
433.987	161.38
434.114	231.38
434.24	191.38
434.367	52.38
434.493	0.38
434.62	33.38
434.746	33.38
434.872	4.38
434.999	15.38
435.125	-1.62
435.252	2.38
435.378	10.38
435.504	20.38
435.631	17.38
435.757	-4.62
435.883	18.38
436.01	24.38
436.136	14.38
436.262	22.38
436.389	14.38
436.515	20.38
436.641	-1.62
436.768	16.38
436.894	13.38
437.02	23.38
437.147	34.38
437.273	21.38
437.399	4.38
437.526	20.38
437.652	-3.62
437.778	18.38
437.904	5.38
438.031	15.38
438.157	9.38
438.283	0.38
438.409	-2.62
438.536	4.38
438.662	6.38
438.788	3.38
438.914	19.38
439.041	0.38
439.167	18.38
439.293	-9.62
439.419	1.38
439.546	13.38
439.672	-5.62
439.798	24.38
439.924	22.38
440.05	21.38
440.177	11.38
440.303	0.38
440.429	0.38
440.555	13.38
440.681	2.38
440.807	34.38
440.934	22.38
441.06	5.38
441.186	-1.62
441.312	-6.62
441.438	16.38
441.564	20.38
441.69	41.38
441.816	17.38
441.943	6.38
442.069	-4.62
442.195	16.38
442.321	5.38
442.447	-2.62
442.573	9.38
442.699	-13.62
442.825	-21.62
442.951	-5.62
443.077	22.38
443.203	28.38
443.33	2.38
443.456	-3.62
443.582	14.38
443.708	-4.62
443.834	13.38
443.96	18.38
444.086	15.38
444.212	33.38
444.338	39.38
444.464	29.38
444.59	31.38
444.716	25.38
444.842	24.38
444.968	2.38
445.094	-10.62
445.22	14.38
445.346	11.38
445.472	13.38
445.598	18.38
445.724	2.38
445.85	9.38
445.976	26.38
446.102	-1.62
446.228	8.38
446.354	14.38
446.48	7.38
446.605	7.38
446.731	11.38
446.857	-6.62
446.983	9.38
447.109	1.38
447.235	4.38
447.361	-6.62
447.487	19.38
447.613	13.38
447.739	-2.62
447.865	-6.62
447.99	1.38
448.116	29.38
448.242	7.38
448.368	-5.62
448.494	-7.62
448.62	24.38
448.746	14.38
448.872	-15.62
448.997	-1.62
449.123	2.38
449.249	30.38
449.375	26.38
449.501	-10.62
449.627	-6.62
449.752	31.38
449.878	-2.62
450.004	-5.62
450.13	21.38
450.256	4.38
450.381	29.38
450.507	11.38
450.633	15.38
450.759	20.38
450.884	-0.62
451.01	15.38
451.136	10.38
451.262	14.38
451.388	19.38
451.513	3.38
451.639	1.38
451.765	17.38
451.89	9.38
452.016	-10.62
452.142	8.38
452.268	10.38
452.393	14.38
452.519	-5.62
452.645	5.38
452.771	1.38
452.896	-1.62
453.022	-0.62
453.148	27.38
453.273	-0.62
453.399	6.38
453.525	-17.62
453.65	-3.62
453.776	31.38
453.902	15.38
454.027	23.38
454.153	6.38
454.279	27.38
454.404	31.38
454.53	17.38
454.656	33.38
454.781	8.38
454.907	11.38
455.032	-5.62
455.158	25.38
455.284	33.38
455.409	18.38
455.535	17.38
455.66	8.38
455.786	11.38
455.912	10.38
456.037	6.38
456.163	13.38
456.288	42.38
456.414	16.38
456.539	-1.62
456.665	14.38
456.791	14.38
456.916	-1.62
457.042	-2.62
457.167	0.38
457.293	15.38
457.418	-7.62
457.544	4.38
457.669	0.38
457.795	2.38
457.92	27.38
458.046	9.38
458.171	12.38
458.297	-4.62
458.422	-4.62
458.548	3.38
458.673	10.38
458.799	-5.62
458.924	-12.62
459.05	17.38
459.175	27.38
459.301	26.38
459.426	22.38
459.552	24.38
459.677	3.38
459.803	32.38
459.928	12.38
460.053	5.38
460.179	19.38
460.304	29.38
460.43	-7.62
460.555	-13.62
460.681	-15.62
460.806	-6.62
460.931	12.38
461.057	15.38
461.182	2.38
461.308	18.38
461.433	4.38
461.558	-9.62
461.684	22.38
461.809	21.38
461.934	16.38
462.06	15.38
462.185	-7.62
462.311	0.38
462.436	5.38
462.561	26.38
462.687	12.38
462.812	0.38
462.937	4.38
463.063	-10.62
463.188	6.38
463.313	14.38
463.439	16.38
463.564	15.38
463.689	18.38
463.814	9.38
463.94	11.38
464.065	19.38
464.19	22.38
464.316	5.38
464.441	-10.62
464.566	-4.62
464.692	13.38
464.817	13.38
464.942	0.38
465.067	10.38
465.193	5.38
465.318	-0.62
465.443	10.38
465.568	2.38
465.694	9.38
465.819	25.38
465.944	22.38
466.069	28.38
466.194	26.38
466.32	20.38
466.445	0.38
466.57	-10.62
466.695	-6.62
466.82	12.38
466.946	26.38
467.071	14.38
467.196	3.38
467.321	-1.62
467.446	-22.62
467.572	-4.62
467.697	1.38
467.822	-8.62
467.947	8.38
468.072	-3.62
468.197	0.38
468.323	-6.62
468.448	-1.62
468.573	-1.62
468.698	11.38
468.823	18.38
468.948	20.38
469.073	17.38
469.198	2.38
469.324	27.38
469.449	17.38
469.574	18.38
469.699	32.38
469.824	27.38
469.949	-4.62
470.074	12.38
470.199	42.38
470.324	48.38
470.449	26.38
470.574	6.38
470.7	-16.62
470.825	23.38
470.95	39.38
471.075	23.38
471.2	18.38
471.325	22.38
471.45	8.38
471.575	-1.62
471.7	10.38
471.825	-0.62
471.95	21.38
472.075	9.38
472.2	-9.62
472.325	14.38
472.45	-3.62
472.575	11.38
472.7	10.38
472.825	22.38
472.95	21.38
473.075	2.38
473.2	-3.62
473.325	12.38
473.45	-4.62
473.575	-1.62
473.7	2.38
473.825	13.38
473.95	20.38
474.075	7.38
474.2	14.38
474.325	19.38
474.45	27.38
474.574	12.38
474.699	29.38
474.824	37.38
474.949	4.38
475.074	9.38
475.199	16.38
475.324	20.38
475.449	22.38
475.574	9.38
475.699	6.38
475.824	20.38
475.949	15.38
476.073	11.38
476.198	4.38
476.323	8.38
476.448	0.38
476.573	1.38
476.698	24.38
476.823	26.38
476.947	29.38
477.072	18.38
477.197	12.38
477.322	6.38
477.447	6.38
477.572	8.38
477.697	3.38
477.821	10.38
477.946	5.38
478.071	16.38
478.196	35.38
478.321	24.38
478.445	4.38
478.57	3.38
478.695	-6.62
478.82	16.38
478.945	18.38
479.069	12.38
479.194	13.38
479.319	21.38
479.444	24.38
479.569	11.38
479.693	-4.62
479.818	20.38
479.943	21.38
480.068	12.38
480.192	17.38
480.317	33.38
480.442	15.38
480.567	25.38
480.691	35.38
480.816	20.38
480.941	-3.62
481.066	19.38
481.19	29.38
481.315	35.38
481.44	16.38
481.564	-4.62
481.689	36.38
481.814	28.38
481.938	28.38
482.063	10.38
482.188	15.38
482.313	35.38
482.437	28.38
482.562	14.38
482.687	34.38
482.811	25.38
482.936	25.38
483.061	30.38
483.185	24.38
483.31	33.38
483.435	18.38
483.559	11.38
483.684	8.38
483.808	25.38
483.933	14.38
484.058	19.38
484.182	28.38
484.307	21.38
484.432	23.38
484.556	26.38
484.681	22.38
484.805	26.38
484.93	19.38
485.055	23.38
485.179	77.38
485.304	130.38
485.428	392.38
485.553	1280.38
485.678	1775.38
485.802	1662.38
485.927	1833.38
486.051	2680.38
486.176	1662.38
486.3	443.38
486.425	161.38
486.549	74.38
486.674	70.38
486.799	55.38
486.923	25.38
487.048	22.38
487.172	26.38
487.297	28.38
487.421	27.38
487.546	31.38
487.67	38.38
487.795	6.38
487.919	16.38
488.044	8.38
488.168	19.38
488.293	25.38
488.417	3.38
488.542	14.38
488.666	21.38
488.791	27.38
488.915	13.38
489.04	31.38
489.164	23.38
489.289	32.38
489.413	4.38
489.538	10.38
489.662	24.38
489.786	6.38
489.911	6.38
490.035	27.38
490.16	7.38
490.284	12.38
490.409	-10.62
490.533	14.38
490.658	43.38
490.782	24.38
490.906	29.38
491.031	11.38
491.155	1.38
491.28	25.38
491.404	15.38
491.528	29.38
491.653	18.38
491.777	24.38
491.902	15.38
492.026	10.38
492.15	21.38
492.275	23.38
492.399	20.38
492.524	17.38
492.648	32.38
492.772	11.38
492.897	36.38
493.021	11.38
493.145	19.38
493.27	24.38
493.394	12.38
493.518	8.38
493.643	3.38
493.767	-0.62
493.891	8.38
494.016	16.38
494.14	0.38
494.264	22.38
494.389	6.38
494.513	4.38
494.637	3.38
494.762	19.38
494.886	9.38
495.01	-3.62
495.134	28.38
495.259	38.38
495.383	26.38
495.507	3.38
495.632	27.38
495.756	37.38
495.88	26.38
496.004	2.38
496.129	9.38
496.253	23.38
496.377	24.38
496.501	34.38
496.626	6.38
496.75	27.38
496.874	9.38
496.998	2.38
497.123	11.38
497.247	15.38
497.371	2.38
497.495	14.38
497.62	8.38
497.744	11.38
497.868	8.38
497.992	1.38
498.116	7.38
498.241	20.38
498.365	12.38
498.489	10.38
498.613	22.38
498.737	-7.62
498.862	18.38
498.986	-8.62
499.11	-1.62
499.234	14.38
499.358	8.38
499.482	11.38
499.607	26.38
499.731	13.38
499.855	25.38
499.979	13.38
500.103	31.38
500.227	21.38
500.351	-1.62
500.476	3.38
500.6	9.38
500.724	14.38
500.848	17.38
500.972	21.38
501.096	25.38
501.22	33.38
501.344	20.38
501.469	2.38
501.593	27.38
501.717	-0.62
501.841	20.38
501.965	4.38
502.089	4.38
502.213	19.38
502.337	3.38
502.461	-0.62
502.585	1.38
502.709	18.38
502.834	11.38
502.958	23.38
503.082	27.38
503.206	21.38
503.33	20.38
503.454	23.38
503.578	35.38
503.702	19.38
503.826	0.38
503.95	33.38
504.074	14.38
504.198	9.38
504.322	3.38
504.446	-9.62
504.57	24.38
504.694	9.38
504.818	20.38
504.942	21.38
505.066	8.38
505.19	9.38
505.314	16.38
505.438	31.38
505.562	6.38
505.686	3.38
505.81	7.38
505.934	34.38
506.058	21.38
506.182	12.38
506.306	19.38
506.43	-12.62
506.554	2.38
506.678	-0.62
506.802	7.38
506.926	21.38
507.05	19.38
507.174	41.38
507.298	25.38
507.422	12.38
507.546	20.38
507.67	29.38
507.794	-21.62
507.918	-8.62
508.042	23.38
508.165	13.38
508.289	8.38
508.413	14.38
508.537	7.38
508.661	12.38
508.785	14.38
508.909	25.38
509.033	11.38
509.157	9.38
509.281	9.38
509.405	4.38
509.528	16.38
509.652	21.38
509.776	12.38
509.9	36.38
510.024	14.38
510.148	16.38
510.272	9.38
510.396	41.38
510.519	6.38
510.643	19.38
510.767	18.38
510.891	6.38
511.015	13.38
511.139	16.38
511.263	36.38
511.386	19.38
511.51	17.38
511.634	3.38
511.758	2.38
511.882	8.38
512.006	13.38
512.129	20.38
512.253	23.38
512.377	16.38
512.501	10.38
512.625	20.38
512.748	0.38
512.872	12.38
512.996	7.38
513.12	15.38
513.244	6.38
513.367	20.38
513.491	6.38
513.615	9.38
513.739	5.38
513.862	4.38
513.986	3.38
514.11	19.38
514.234	10.38
514.358	18.38
514.481	33.38
514.605	10.38
514.729	0.38
514.853	21.38
514.976	2.38
515.1	-7.62
515.224	32.38
515.348	2.38
515.471	-6.62
515.595	10.38
515.719	15.38
515.842	20.38
515.966	15.38
516.09	30.38
516.214	4.38
516.337	16.38
516.461	27.38
516.585	30.38
516.708	18.38
516.832	7.38
516.956	12.38
517.08	16.38
517.203	-3.62
517.327	-2.62
517.451	25.38
517.574	28.38
517.698	6.38
517.822	8.38
517.945	26.38
518.069	34.38
518.193	41.38
518.316	34.38
518.44	23.38
518.564	14.38
518.687	12.38
518.811	33.38
518.935	49.38
519.058	32.38
519.182	38.38
519.306	46.38
519.429	24.38
519.553	53.38
519.676	37.38
519.8	20.38
519.924	10.38
520.047	20.38
520.171	15.38
520.294	0.38
520.418	22.38
520.542	3.38
520.665	28.38
520.789	26.38
520.913	-4.62
521.036	-13.62
521.16	-3.62
521.283	0.38
521.407	-5.62
521.53	5.38
521.654	-6.62
521.778	23.38
521.901	8.38
522.025	9.38
522.148	8.38
522.272	24.38
522.395	9.38
522.519	18.38
522.643	-0.62
522.766	0.38
522.89	9.38
523.013	25.38
523.137	-5.62
523.26	9.38
523.384	3.38
523.507	1.38
523.631	1.38
523.754	9.38
523.878	5.38
524.002	27.38
524.125	5.38
524.249	-5.62
524.372	0.38
524.496	6.38
524.619	11.38
524.743	31.38
524.866	-3.62
524.99	-6.62
525.113	-3.62
525.237	9.38
525.36	21.38
525.484	28.38
525.607	15.38
525.731	-21.62
525.854	2.38
525.978	15.38
526.101	-13.62
526.224	-2.62
526.348	1.38
526.471	15.38
526.595	25.38
526.718	-1.62
526.842	-0.62
526.965	16.38
527.089	15.38
527.212	3.38
527.336	-0.62
527.459	17.38
527.582	11.38
527.706	10.38
527.829	23.38
527.953	21.38
528.076	-0.62
528.2	-5.62
528.323	31.38
528.446	20.38
528.57	16.38
528.693	12.38
528.817	0.38
528.94	24.38
529.064	22.38
529.187	-4.62
529.31	-1.62
529.434	8.38
529.557	12.38
529.68	4.38
529.804	7.38
529.927	9.38
530.051	13.38
530.174	-15.62
530.297	16.38
530.421	26.38
530.544	1.38
530.668	20.38
530.791	3.38
530.914	15.38
531.038	9.38
531.161	11.38
531.284	-0.62
531.408	20.38
531.531	-4.62
531.654	16.38
531.778	-0.62
531.901	15.38
532.024	15.38
532.148	6.38
532.271	11.38
532.394	15.38
532.518	14.38
532.641	27.38
532.764	33.38
532.888	11.38
533.011	1.38
533.134	0.38
533.258	12.38
533.381	4.38
533.504	-7.62
533.628	-3.62
533.751	14.38
533.874	7.38
533.997	18.38
534.121	-5.62
534.244	0.38
534.367	6.38
534.491	9.38
534.614	7.38
534.737	23.38
534.86	29.38
534.984	-16.62
535.107	4.38
535.23	2.38
535.354	0.38
535.477	3.38
535.6	10.38
535.723	11.38
535.847	10.38
535.97	-20.62
536.093	5.38
536.216	6.38
536.34	12.38
536.463	-8.62
536.586	23.38
536.709	11.38
536.833	33.38
536.956	23.38
537.079	20.38
537.202	33.38
537.325	2.38
537.449	-13.62
537.572	15.38
537.695	-1.62
537.818	1.38
537.941	-1.62
538.065	12.38
538.188	6.38
538.311	23.38
538.434	12.38
538.558	29.38
538.681	6.38
538.804	18.38
538.927	23.38
539.05	11.38
539.173	-13.62
539.297	-3.62
539.42	-5.62
539.543	2.38
539.666	13.38
539.789	12.38
539.913	12.38
540.036	9.38
540.159	26.38
540.282	-5.62
540.405	-10.62
540.528	23.38
540.651	26.38
540.775	12.38
540.898	22.38
541.021	6.38
541.144	-0.62
541.267	22.38
541.39	12.38
541.513	12.38
541.637	22.38
541.76	16.38
541.883	-6.62
542.006	9.38
542.129	32.38
542.252	10.38
542.375	-1.62
542.498	0.38
542.622	15.38
542.745	9.38
542.868	2.38
542.991	14.38
543.114	35.38
543.237	22.38
543.36	11.38
543.483	13.38
543.606	12.38
543.73	26.38
543.853	24.38
543.976	5.38
544.099	9.38
544.222	13.38
544.345	-6.62
544.468	4.38
544.591	3.38
544.714	17.38
544.837	10.38
544.96	7.38
545.083	17.38
545.206	25.38
545.329	17.38
545.453	7.38
545.576	11.38
545.699	7.38
545.822	8.38
545.945	20.38
546.068	3.38
546.191	0.38
546.314	5.38
546.437	15.38
546.56	14.38
546.683	10.38
546.806	3.38
546.929	2.38
547.052	7.38
547.175	6.38
547.298	21.38
547.421	-14.62
547.544	0.38
547.667	8.38
547.79	14.38
547.913	-11.62
548.036	-8.62
548.159	6.38
548.282	19.38
548.405	8.38
548.528	8.38
548.651	12.38
548.774	17.38
548.897	20.38
549.02	42.38
549.143	25.38
549.266	14.38
549.389	-5.62
549.512	1.38
549.635	17.38
549.758	4.38
549.881	5.38
550.004	-0.62
550.127	-0.62
550.25	-9.62
550.373	6.38
550.496	5.38
550.619	4.38
550.742	-5.62
550.865	-1.62
550.988	22.38
551.111	15.38
551.234	23.38
551.356	-0.62
551.479	-1.62
551.602	-9.62
551.725	7.38
551.848	28.38
551.971	25.38
552.094	10.38
552.217	4.38
552.34	15.38
552.463	-11.62
552.586	11.38
552.709	-1.62
552.832	3.38
552.955	13.38
553.077	16.38
553.2	13.38
553.323	-4.62
553.446	9.38
553.569	-11.62
553.692	-1.62
553.815	7.38
553.938	7.38
554.061	13.38
554.184	4.38
554.306	1.38
554.429	2.38
554.552	-4.62
554.675	-4.62
554.798	3.38
554.921	0.38
555.044	-0.62
555.167	5.38
555.29	-10.62
555.412	-7.62
555.535	7.38
555.658	11.38
555.781	17.38
555.904	4.38
556.027	27.38
556.15	10.38
556.272	-14.62
556.395	3.38
556.518	-4.62
556.641	5.38
556.764	8.38
556.887	41.38
557.01	12.38
557.132	-10.62
557.255	17.38
557.378	8.38
557.501	12.38
557.624	13.38
557.747	13.38
557.869	17.38
557.992	5.38
558.115	15.38
558.238	-13.62
558.361	8.38
558.483	37.38
558.606	11.38
558.729	18.38
558.852	19.38
558.975	40.38
559.098	2.38
559.22	18.38
559.343	10.38
559.466	12.38
559.589	6.38
559.712	17.38
559.834	7.38
559.957	7.38
560.08	8.38
560.203	14.38
560.325	27.38
560.448	31.38
560.571	10.38
560.694	18.38
560.817	21.38
560.939	9.38
561.062	15.38
561.185	10.38
561.308	6.38
561.43	0.38
561.553	-4.62
561.676	-0.62
561.799	17.38
561.921	2.38
562.044	-10.62
562.167	-4.62
562.29	38.38
562.413	14.38
562.535	28.38
562.658	11.38
562.781	5.38
562.903	17.38
563.026	9.38
563.149	16.38
563.272	-0.62
563.394	8.38
563.517	0.38
563.64	-0.62
563.763	-7.62
563.885	34.38
564.008	36.38
564.131	28.38
564.254	-3.62
564.376	17.38
564.499	-9.62
564.622	-9.62
564.744	5.38
564.867	-1.62
564.99	-4.62
565.113	16.38
565.235	11.38
565.358	8.38
565.481	1.38
565.603	9.38
565.726	-3.62
565.849	11.38
565.971	20.38
566.094	3.38
566.217	9.38
566.34	9.38
566.462	2.38
566.585	18.38
566.708	19.38
566.83	5.38
566.953	25.38
567.076	7.38
567.198	13.38
567.321	12.38
567.444	17.38
567.566	10.38
567.689	-3.62
567.812	2.38
567.934	4.38
568.057	11.38
568.18	4.38
568.302	16.38
568.425	-9.62
568.548	-1.62
568.67	4.38
568.793	9.38
568.916	-1.62
569.038	-11.62
569.161	1.38
569.283	22.38
569.406	7.38
569.529	-12.62
569.651	0.38
569.774	10.38
569.897	5.38
570.019	17.38
570.142	18.38
570.265	19.38
570.387	12.38
570.51	16.38
570.632	14.38
570.755	14.38
570.878	12.38
571	17.38
571.123	-6.62
571.246	19.38
571.368	2.38
571.491	19.38
571.613	10.38
571.736	-6.62
571.859	-11.62
571.981	-6.62
572.104	-4.62
572.226	15.38
572.349	-5.62
572.472	8.38
572.594	12.38
572.717	13.38
572.839	3.38
572.962	22.38
573.085	16.38
573.207	-7.62
573.33	9.38
573.452	23.38
573.575	3.38
573.697	6.38
573.82	9.38
573.943	18.38
574.065	21.38
574.188	21.38
574.31	33.38
574.433	22.38
574.555	38.38
574.678	4.38
574.801	20.38
574.923	9.38
575.046	2.38
575.168	4.38
575.291	6.38
575.413	19.38
575.536	8.38
575.659	20.38
575.781	3.38
575.904	2.38
576.026	27.38
576.149	-3.62
576.271	34.38
576.394	18.38
576.516	14.38
576.639	9.38
576.761	12.38
576.884	6.38
577.007	7.38
577.129	22.38
577.252	23.38
577.374	43.38
577.497	11.38
577.619	5.38
577.742	-2.62
577.864	18.38
577.987	0.38
578.109	38.38
578.232	14.38
578.354	19.38
578.477	-0.62
578.599	12.38
578.722	24.38
578.844	1.38
578.967	15.38
579.089	-3.62
579.212	-5.62
579.334	24.38
579.457	12.38
579.579	-1.62
579.702	-3.62
579.824	21.38
579.947	0.38
580.069	3.38
580.192	2.38
580.314	20.38
580.437	13.38
580.559	25.38
580.682	-5.62
580.804	19.38
580.927	24.38
581.049	40.38
581.172	20.38
581.294	13.38
581.417	24.38
581.539	15.38
581.662	17.38
581.784	26.38
581.907	23.38
582.029	29.38
582.152	4.38
582.274	15.38
582.396	5.38
582.519	15.38
582.641	5.38
582.764	-0.62
582.886	16.38
583.009	8.38
583.131	16.38
583.254	9.38
583.376	27.38
583.499	25.38
583.621	15.38
583.743	23.38
583.866	20.38
583.988	1.38
584.111	17.38
584.233	15.38
584.356	9.38
584.478	3.38
584.601	-7.62
584.723	10.38
584.845	18.38
584.968	-8.62
585.09	-2.62
585.213	24.38
585.335	-1.62
585.458	1.38
585.58	0.38
585.702	29.38
585.825	15.38
585.947	9.38
586.07	0.38
586.192	-7.62
586.315	7.38
586.437	4.38
586.559	-2.62
586.682	2.38
586.804	24.38
586.927	11.38
587.049	-6.62
587.171	28.38
587.294	15.38
587.416	48.38
587.539	19.38
587.661	5.38
587.783	-2.62
587.906	3.38
588.028	14.38
588.151	17.38
588.273	15.38
588.395	27.38
588.518	-5.62
588.64	11.38
588.763	31.38
588.885	11.38
589.007	6.38
589.13	-1.62
589.252	4.38
589.375	14.38
589.497	8.38
589.619	38.38
589.742	14.38
589.864	23.38
589.986	14.38
590.109	-3.62
590.231	0.38
590.354	2.38
590.476	-8.62
590.598	-10.62
590.721	7.38
590.843	12.38
590.965	-3.62
591.088	28.38
591.21	18.38
591.332	8.38
591.455	-6.62
591.577	0.38
591.7	7.38
591.822	15.38
591.944	2.38
592.067	7.38
592.189	-6.62
592.311	22.38
592.434	14.38
592.556	6.38
592.678	11.38
592.801	10.38
592.923	14.38
593.045	-1.62
593.168	25.38
593.29	22.38
593.412	10.38
593.535	10.38
593.657	-4.62
593.779	23.38
593.902	7.38
594.024	21.38
594.146	21.38
594.269	12.38
594.391	-2.62
594.513	18.38
594.636	8.38
594.758	-4.62
594.88	35.38
595.003	26.38
595.125	7.38
595.247	31.38
595.37	6.38
595.492	-10.62
595.614	23.38
595.737	21.38
595.859	13.38
595.981	18.38
596.104	11.38
596.226	26.38
596.348	11.38
596.471	-2.62
596.593	15.38
596.715	1.38
596.838	3.38
596.96	-4.62
597.082	23.38
597.204	23.38
597.327	-1.62
597.449	-3.62
597.571	16.38
597.694	13.38
597.816	15.38
597.938	-1.62
598.061	0.38
598.183	16.38
598.305	14.38
598.427	20.38
598.55	-4.62
598.672	24.38
598.794	15.38
598.917	0.38
599.039	2.38
599.161	14.38
599.283	16.38
599.406	34.38
599.528	15.38
599.65	40.38
599.773	28.38
599.895	18.38
600.017	21.38
600.139	16.38
600.262	-3.62
600.384	20.38
600.506	12.38
600.628	23.38
600.751	17.38
600.873	18.38
600.995	12.38
601.118	28.38
601.24	6.38
601.362	22.38
601.484	33.38
601.607	30.38
601.729	23.38
601.851	0.38
601.973	0.38
602.096	9.38
602.218	19.38
602.34	22.38
602.462	19.38
602.585	10.38
602.707	2.38
602.829	36.38
602.951	19.38
603.074	11.38
603.196	9.38
603.318	-11.62
603.44	22.38
603.563	21.38
603.685	-0.62
603.807	19.38
603.929	0.38
604.052	20.38
604.174	18.38
604.296	28.38
604.418	23.38
604.541	46.38
604.663	7.38
604.785	17.38
604.907	24.38
605.03	6.38
605.152	31.38
605.274	0.38
605.396	13.38
605.519	6.38
605.641	19.38
605.763	24.38
605.885	4.38
606.008	-3.62
606.13	11.38
606.252	14.38
606.374	-6.62
606.496	-2.62
606.619	21.38
606.741	6.38
606.863	30.38
606.985	26.38
607.108	36.38
607.23	23.38
607.352	3.38
607.474	15.38
607.596	16.38
607.719	6.38
607.841	12.38
607.963	11.38
608.085	10.38
608.207	38.38
608.33	29.38
608.452	10.38
608.574	3.38
608.696	5.38
608.819	16.38
608.941	12.38
609.063	7.38
609.185	15.38
609.307	21.38
609.43	28.38
609.552	17.38
609.674	3.38
609.796	20.38
609.918	17.38
610.041	-11.62
610.163	18.38
610.285	2.38
610.407	5.38
610.529	-8.62
610.652	28.38
610.774	17.38
610.896	6.38
611.018	16.38
611.14	10.38
611.263	-1.62
611.385	8.38
611.507	8.38
611.629	1.38
611.751	4.38
611.873	35.38
611.996	8.38
612.118	11.38
612.24	6.38
612.362	20.38
612.484	21.38
612.607	19.38
612.729	23.38
612.851	15.38
612.973	-1.62
613.095	14.38
613.218	22.38
613.34	23.38
613.462	10.38
613.584	4.38
613.706	20.38
613.828	27.38
613.951	23.38
614.073	7.38
614.195	2.38
614.317	19.38
614.439	18.38
614.561	17.38
614.684	20.38
614.806	17.38
614.928	23.38
615.05	20.38
615.172	33.38
615.294	6.38
615.417	14.38
615.539	1.38
615.661	15.38
615.783	38.38
615.905	32.38
616.027	70.38
616.15	103.38
616.272	81.38
616.394	61.38
616.516	46.38
616.638	21.38
616.76	18.38
616.883	4.38
617.005	3.38
617.127	-1.62
617.249	4.38
617.371	0.38
617.493	1.38
617.615	13.38
617.738	3.38
617.86	10.38
617.982	6.38
618.104	11.38
618.226	-8.62
618.348	-4.62
618.471	14.38
618.593	23.38
618.715	-1.62
618.837	9.38
618.959	-11.62
619.081	14.38
619.203	4.38
619.326	-6.62
619.448	8.38
619.57	8.38
619.692	10.38
619.814	25.38
619.936	21.38
620.058	16.38
620.181	9.38
620.303	12.38
620.425	8.38
620.547	14.38
620.669	8.38
620.791	4.38
620.913	0.38
621.036	1.38
621.158	23.38
621.28	17.38
621.402	6.38
621.524	10.38
621.646	7.38
621.768	-11.62
621.891	-1.62
622.013	11.38
622.135	-11.62
622.257	-12.62
622.379	-0.62
622.501	2.38
622.623	19.38
622.745	4.38
622.868	11.38
622.99	4.38
623.112	2.38
623.234	7.38
623.356	11.38
623.478	-8.62
623.6	24.38
623.722	22.38
623.845	19.38
623.967	6.38
624.089	3.38
624.211	3.38
624.333	17.38
624.455	3.38
624.577	-8.62
624.699	17.38
624.822	11.38
624.944	8.38
625.066	-3.62
625.188	-3.62
625.31	7.38
625.432	33.38
625.554	-5.62
625.676	30.38
625.799	10.38
625.921	24.38
626.043	11.38
626.165	9.38
626.287	-0.62
626.409	15.38
626.531	2.38
626.653	19.38
626.775	15.38
626.898	-5.62
627.02	3.38
627.142	17.38
627.264	14.38
627.386	2.38
627.508	25.38
627.63	14.38
627.752	16.38
627.874	17.38
627.997	28.38
628.119	14.38
628.241	11.38
628.363	6.38
628.485	18.38
628.607	-1.62
628.729	15.38
628.851	-6.62
628.973	18.38
629.096	-18.62
629.218	-3.62
629.34	15.38
629.462	14.38
629.584	8.38
629.706	14.38
629.828	27.38
629.95	9.38
630.072	-6.62
630.195	11.38
630.317	6.38
630.439	7.38
630.561	10.38
630.683	-0.62
630.805	22.38
630.927	22.38
631.049	7.38
631.171	8.38
631.293	-11.62
631.416	10.38
631.538	7.38
631.66	11.38
631.782	15.38
631.904	26.38
632.026	23.38
632.148	12.38
632.27	0.38
632.392	3.38
632.514	17.38
632.637	-0.62
632.759	8.38
632.881	-5.62
633.003	4.38
633.125	-15.62
633.247	-1.62
633.369	6.38
633.491	6.38
633.613	9.38
633.735	12.38
633.858	10.38
633.98	3.38
634.102	7.38
634.224	8.38
634.346	11.38
634.468	17.38
634.59	8.38
634.712	3.38
634.834	8.38
634.956	6.38
635.078	-3.62
635.201	-6.62
635.323	-5.62
635.445	-6.62
635.567	-12.62
635.689	14.38
635.811	10.38
635.933	6.38
636.055	8.38
636.177	2.38
636.299	12.38
636.421	-12.62
636.544	6.38
636.666	28.38
636.788	13.38
636.91	7.38
637.032	8.38
637.154	11.38
637.276	43.38
637.398	32.38
637.52	9.38
637.642	10.38
637.764	5.38
637.887	-19.62
638.009	3.38
638.131	2.38
638.253	11.38
638.375	17.38
638.497	5.38
638.619	12.38
638.741	8.38
638.863	-3.62
638.985	-6.62
639.107	8.38
639.23	10.38
639.352	19.38
639.474	0.38
639.596	5.38
639.718	-8.62
639.84	2.38
639.962	9.38
640.084	23.38
640.206	21.38
640.328	-10.62
640.45	18.38
640.573	6.38
640.695	7.38
640.817	12.38
640.939	18.38
641.061	11.38
641.183	7.38
641.305	1.38
641.427	-1.62
641.549	6.38
641.671	3.38
641.793	7.38
641.915	7.38
642.038	-1.62
642.16	8.38
642.282	-0.62
642.404	4.38
642.526	-0.62
642.648	16.38
642.77	22.38
642.892	7.38
643.014	19.38
643.136	9.38
643.258	2.38
643.381	21.38
643.503	12.38
643.625	-7.62
643.747	-3.62
643.869	19.38
643.991	19.38
644.113	27.38
644.235	18.38
644.357	-1.62
644.479	14.38
644.601	-3.62
644.723	-10.62
644.846	4.38
644.968	15.38
645.09	22.38
645.212	-15.62
645.334	21.38
645.456	10.38
645.578	13.38
645.7	8.38
645.822	12.38
645.944	3.38
646.066	0.38
646.188	7.38
646.311	13.38
646.433	4.38
646.555	47.38
646.677	28.38
646.799	23.38
646.921	6.38
647.043	27.38
647.165	7.38
647.287	8.38
647.409	-0.62
647.531	27.38
647.654	-14.62
647.776	15.38
647.898	11.38
648.02	11.38
648.142	-6.62
648.264	14.38
648.386	-2.62
648.508	-20.62
648.63	-1.62
648.752	-3.62
648.874	-1.62
648.997	-0.62
649.119	16.38
649.241	5.38
649.363	34.38
649.485	2.38
649.607	0.38
649.729	-17.62
649.851	-7.62
649.973	-2.62
650.095	13.38
650.217	-1.62
650.34	11.38
650.462	11.38
650.584	3.38
650.706	8.38
650.828	10.38
650.95	-5.62
651.072	7.38
651.194	-1.62
651.316	-12.62
651.438	15.38
651.56	2.38
651.683	7.38
651.805	7.38
651.927	5.38
652.049	-4.62
652.171	4.38
652.293	-0.62
652.415	-5.62
652.537	-10.62
652.659	-5.62
652.781	8.38
652.903	25.38
653.026	12.38
653.148	8.38
653.27	15.38
653.392	4.38
653.514	0.38
653.636	1.38
653.758	12.38
653.88	6.38
654.002	5.38
654.124	3.38
654.247	13.38
654.369	12.38
654.491	-6.62
654.613	10.38
654.735	3.38
654.857	25.38
654.979	5.38
655.101	40.38
655.223	41.38
655.345	15.38
655.468	32.38
655.59	25.38
655.712	22.38
655.834	30.38
655.956	31.38
656.078	43.38
656.2	37.38
656.322	50.38
656.444	22.38
656.566	27.38
656.689	37.38
656.811	57.38
656.933	94.38
657.055	103.38
657.177	160.38
657.299	262.38
657.421	483.38
657.543	1865.38
657.665	12621.38
657.787	15179.38
657.91	15278.38
658.032	15661.38
658.154	4674.38
658.276	3669.38
658.398	1206.38
658.52	1057.38
658.642	489.38
658.764	597.38
658.886	271.38
659.009	416.38
659.131	220.38
659.253	314.38
659.375	162.38
659.497	241.38
659.619	137.38
659.741	199.38
659.863	112.38
659.985	151.38
660.108	89.38
660.23	136.38
660.352	75.38
660.474	137.38
660.596	76.38
660.718	139.38
660.84	57.38
660.962	117.38
661.084	41.38
661.207	91.38
661.329	59.38
661.451	84.38
661.573	46.38
661.695	103.38
661.817	27.38
661.939	97.38
662.061	77.38
662.184	80.38
662.306	46.38
662.428	71.38
662.55	51.38
662.672	50.38
662.794	16.38
662.916	67.38
663.038	22.38
663.161	84.38
663.283	41.38
663.405	79.38
663.527	25.38
663.649	66.38
663.771	39.38
663.893	60.38
664.015	27.38
664.138	55.38
664.26	38.38
664.382	51.38
664.504	19.38
664.626	44.38
664.748	11.38
664.87	30.38
664.992	21.38
665.115	33.38
665.237	19.38
665.359	35.38
665.481	26.38
665.603	53.38
665.725	23.38
665.847	13.38
665.97	21.38
666.092	44.38
666.214	26.38
666.336	32.38
666.458	36.38
666.58	51.38
666.702	24.38
666.825	25.38
666.947	-4.62
667.069	57.38
667.191	15.38
667.313	44.38
667.435	-3.62
667.557	3.38
667.68	8.38
667.802	18.38
667.924	11.38
668.046	41.38
668.168	36.38
668.29	32.38
668.412	24.38
668.535	18.38
668.657	14.38
668.779	36.38
668.901	17.38
669.023	47.38
669.145	17.38
669.267	37.38
669.39	22.38
669.512	30.38
669.634	22.38
669.756	11.38
669.878	9.38
670	12.38
670.123	18.38
670.245	26.38
670.367	27.38
670.489	32.38
670.611	4.38
670.733	0.38
670.856	23.38
670.978	40.38
671.1	21.38
671.222	44.38
671.344	13.38
671.466	18.38
671.589	-8.62
671.711	10.38
671.833	3.38
671.955	20.38
672.077	6.38
672.199	47.38
672.322	36.38
672.444	40.38
672.566	25.38
672.688	19.38
672.81	15.38
672.932	9.38
673.055	0.38
673.177	17.38
673.299	14.38
673.421	28.38
673.543	18.38
673.665	22.38
673.788	14.38
673.91	3.38
674.032	-20.62
674.154	9.38
674.276	20.38
674.399	15.38
674.521	14.38
674.643	28.38
674.765	3.38
674.887	28.38
675.009	-12.62
675.132	6.38
675.254	4.38
675.376	18.38
675.498	12.38
675.62	28.38
675.743	14.38
675.865	15.38
675.987	6.38
676.109	8.38
676.231	10.38
676.354	23.38
676.476	15.38
676.598	39.38
676.72	21.38
676.842	22.38
676.965	14.38
677.087	23.38
677.209	23.38
677.331	31.38
677.453	0.38
677.576	-14.62
677.698	14.38
677.82	28.38
677.942	5.38
678.064	17.38
678.187	18.38
678.309	29.38
678.431	4.38
678.553	10.38
678.675	19.38
678.798	28.38
678.92	18.38
679.042	19.38
679.164	6.38
679.286	19.38
679.409	2.38
679.531	9.38
679.653	-5.62
679.775	11.38
679.898	6.38
680.02	-0.62
680.142	6.38
680.264	33.38
680.386	-9.62
680.509	0.38
680.631	-2.62
680.753	-12.62
680.875	2.38
680.998	14.38
681.12	15.38
681.242	26.38
681.364	7.38
681.486	16.38
681.609	-2.62
681.731	-1.62
681.853	-3.62
681.975	7.38
682.098	2.38
682.22	17.38
682.342	-4.62
682.464	32.38
682.587	8.38
682.709	25.38
682.831	0.38
682.953	-2.62
683.076	10.38
683.198	13.38
683.32	17.38
683.442	14.38
683.565	2.38
683.687	0.38
683.809	-4.62
683.931	2.38
684.054	10.38
684.176	17.38
684.298	17.38
684.42	2.38
684.543	-12.62
684.665	-1.62
684.787	3.38
684.909	-12.62
685.032	18.38
685.154	17.38
685.276	0.38
685.398	1.38
685.521	-4.62
685.643	16.38
685.765	11.38
685.887	19.38
686.01	19.38
686.132	27.38
686.254	20.38
686.377	8.38
686.499	8.38
686.621	26.38
686.743	9.38
686.866	4.38
686.988	15.38
687.11	34.38
687.232	7.38
687.355	-3.62
687.477	-1.62
687.599	22.38
687.722	-7.62
687.844	11.38
687.966	-0.62
688.088	13.38
688.211	35.38
688.333	48.38
688.455	25.38
688.578	14.38
688.7	5.38
688.822	12.38
688.944	-17.62
689.067	46.38
689.189	4.38
689.311	0.38
689.434	-0.62
689.556	17.38
689.678	32.38
689.801	-0.62
689.923	14.38
690.045	30.38
690.167	28.38
690.29	19.38
690.412	-4.62
690.534	25.38
690.657	2.38
690.779	17.38
690.901	18.38
691.024	16.38
691.146	-0.62
691.268	2.38
691.391	19.38
691.513	19.38
691.635	6.38
691.758	19.38
691.88	1.38
692.002	7.38
692.125	7.38
692.247	-7.62
692.369	-13.62
692.492	22.38
692.614	6.38
692.736	18.38
692.859	-1.62
692.981	-6.62
693.103	-11.62
693.226	9.38
693.348	31.38
693.47	5.38
693.593	10.38
693.715	-11.62
693.837	-0.62
693.96	7.38
694.082	2.38
694.204	11.38
694.327	22.38
694.449	8.38
694.571	-1.62
694.694	18.38
694.816	15.38
694.938	2.38
695.061	17.38
695.183	15.38
695.305	13.38
695.428	23.38
695.55	-5.62
695.672	1.38
695.795	17.38
695.917	27.38
696.04	-3.62
696.162	4.38
696.284	0.38
696.407	14.38
696.529	-1.62
696.651	25.38
696.774	-1.62
696.896	15.38
697.019	10.38
697.141	4.38
697.263	-15.62
697.386	18.38
697.508	1.38
697.63	14.38
697.753	-4.62
697.875	24.38
697.998	4.38
698.12	0.38
698.242	15.38
698.365	23.38
698.487	0.38
698.61	5.38
698.732	38.38
698.854	21.38
698.977	-5.62
699.099	9.38
699.221	-4.62
699.344	8.38
699.466	6.38
699.589	10.38
699.711	-1.62
699.834	10.38
699.956	2.38
700.078	1.38
700.201	-10.62
700.323	7.38
700.446	0.38
700.568	7.38
700.69	25.38
700.813	15.38
700.935	-13.62
701.058	-0.62
701.18	4.38
701.302	10.38
701.425	-1.62
701.547	14.38
701.67	17.38
701.792	14.38
701.915	-13.62
702.037	-3.62
702.159	25.38
702.282	14.38
702.404	-0.62
702.527	16.38
702.649	24.38
702.772	25.38
702.894	10.38
703.017	15.38
703.139	17.38
703.261	30.38
703.384	12.38
703.506	6.38
703.629	6.38
703.751	9.38
703.874	8.38
703.996	10.38
704.119	0.38
704.241	3.38
704.364	-8.62
704.486	11.38
704.608	11.38
704.731	10.38
704.853	5.38
704.976	10.38
705.098	-0.62
705.221	-11.62
705.343	-0.62
705.466	14.38
705.588	19.38
705.711	12.38
705.833	14.38
705.956	7.38
706.078	3.38
706.201	10.38
706.323	8.38
706.446	-0.62
