Data from LowRes_H2_15_26_11_07_2024_HR4C61881__64__15-28-20-037.txt Node

Date: Thu Nov 07 15:28:20 EST 2024
User: crc00042
Spectrometer: HR4C6188
Trigger mode: 4
Integration Time (sec): 1.000000E-1
Scans to average: 1
Electric dark correction enabled: true
Nonlinearity correction enabled: false
Boxcar width: 0
XAxis mode: Wavelengths
Number of Pixels in Spectrum: 3648
>>>>>Begin Spectral Data<<<<<
245.66	-109.54
245.797	-109.54
245.934	-109.54
246.071	-85.54
246.208	-1.54
246.344	1.46
246.481	-10.54
246.618	-9.54
246.755	9.46
246.892	-23.54
247.029	-0.54
247.165	-5.54
247.302	4.46
247.439	2.46
247.576	17.46
247.713	-12.54
247.849	33.46
247.986	-6.54
248.123	-0.54
248.26	3.46
248.396	3.46
248.533	-8.54
248.67	-1.54
248.806	5.46
248.943	-17.54
249.08	-22.54
249.216	13.46
249.353	5.46
249.49	-8.54
249.626	10.46
249.763	6.46
249.9	3.46
250.036	-12.54
250.173	-0.54
250.309	9.46
250.446	6.46
250.582	6.46
250.719	-8.54
250.856	3.46
250.992	-16.54
251.129	-0.54
251.265	-6.54
251.402	21.46
251.538	-0.54
251.675	-6.54
251.811	21.46
251.948	26.46
252.084	7.46
252.221	6.46
252.357	-4.54
252.493	21.46
252.63	-2.54
252.766	12.46
252.903	1.46
253.039	0.46
253.175	-4.54
253.312	3.46
253.448	-3.54
253.585	-15.54
253.721	-0.54
253.857	-6.54
253.994	16.46
254.13	0.46
254.266	-0.54
254.403	8.46
254.539	-2.54
254.675	18.46
254.811	-0.54
254.948	-3.54
255.084	-1.54
255.22	-14.54
255.356	-6.54
255.493	4.46
255.629	-0.54
255.765	-9.54
255.901	0.46
256.037	-3.54
256.174	2.46
256.31	-6.54
256.446	-11.54
256.582	0.46
256.718	9.46
256.854	28.46
256.991	22.46
257.127	25.46
257.263	-5.54
257.399	8.46
257.535	-10.54
257.671	-1.54
257.807	-4.54
257.943	-17.54
258.079	-12.54
258.215	-8.54
258.351	21.46
258.487	4.46
258.623	10.46
258.759	0.46
258.895	7.46
259.031	-7.54
259.167	-6.54
259.303	20.46
259.439	-27.54
259.575	-0.54
259.711	-11.54
259.847	-9.54
259.983	14.46
260.119	-7.54
260.255	-14.54
260.391	17.46
260.527	3.46
260.663	31.46
260.799	-0.54
260.934	-4.54
261.07	-3.54
261.206	-19.54
261.342	-11.54
261.478	18.46
261.614	10.46
261.749	-6.54
261.885	-6.54
262.021	-11.54
262.157	13.46
262.293	9.46
262.428	3.46
262.564	-1.54
262.7	3.46
262.836	9.46
262.971	20.46
263.107	-0.54
263.243	3.46
263.378	-2.54
263.514	-22.54
263.65	2.46
263.785	-14.54
263.921	-17.54
264.057	4.46
264.192	9.46
264.328	25.46
264.464	-3.54
264.599	13.46
264.735	33.46
264.871	-15.54
265.006	23.46
265.142	5.46
265.277	8.46
265.413	12.46
265.548	17.46
265.684	-3.54
265.819	-3.54
265.955	-14.54
266.091	-0.54
266.226	-12.54
266.362	9.46
266.497	0.46
266.633	-0.54
266.768	-27.54
266.903	5.46
267.039	13.46
267.174	26.46
267.31	-11.54
267.445	-19.54
267.581	10.46
267.716	18.46
267.851	19.46
267.987	11.46
268.122	11.46
268.258	-3.54
268.393	-2.54
268.528	15.46
268.664	-0.54
268.799	-15.54
268.934	10.46
269.07	1.46
269.205	5.46
269.34	3.46
269.476	14.46
269.611	-10.54
269.746	18.46
269.881	6.46
270.017	-5.54
270.152	-4.54
270.287	18.46
270.422	16.46
270.558	-12.54
270.693	7.46
270.828	-6.54
270.963	-2.54
271.098	-3.54
271.234	-8.54
271.369	15.46
271.504	-3.54
271.639	-11.54
271.774	3.46
271.909	3.46
272.045	-7.54
272.18	-11.54
272.315	-7.54
272.45	11.46
272.585	-1.54
272.72	0.46
272.855	-6.54
272.99	8.46
273.125	-12.54
273.26	-12.54
273.395	0.46
273.53	-8.54
273.665	12.46
273.8	2.46
273.935	-11.54
274.07	-0.54
274.205	17.46
274.34	-14.54
274.475	-1.54
274.61	11.46
274.745	2.46
274.88	20.46
275.015	-15.54
275.15	-4.54
275.285	-0.54
275.42	6.46
275.555	7.46
275.69	-0.54
275.825	12.46
275.959	15.46
276.094	-10.54
276.229	-2.54
276.364	1.46
276.499	14.46
276.634	4.46
276.768	5.46
276.903	8.46
277.038	7.46
277.173	3.46
277.308	-10.54
277.442	14.46
277.577	-3.54
277.712	-2.54
277.847	9.46
277.981	-5.54
278.116	-17.54
278.251	5.46
278.386	3.46
278.52	8.46
278.655	5.46
278.79	16.46
278.924	-11.54
279.059	14.46
279.194	-3.54
279.328	24.46
279.463	3.46
279.598	20.46
279.732	27.46
279.867	6.46
280.001	19.46
280.136	-1.54
280.271	7.46
280.405	3.46
280.54	3.46
280.674	-14.54
280.809	15.46
280.943	7.46
281.078	10.46
281.213	19.46
281.347	8.46
281.482	5.46
281.616	-16.54
281.751	2.46
281.885	-17.54
282.02	8.46
282.154	4.46
282.288	0.46
282.423	-0.54
282.557	-14.54
282.692	-12.54
282.826	-3.54
282.961	9.46
283.095	-19.54
283.229	18.46
283.364	-2.54
283.498	6.46
283.633	35.46
283.767	12.46
283.901	-5.54
284.036	-16.54
284.17	-13.54
284.304	-8.54
284.439	5.46
284.573	-14.54
284.707	9.46
284.842	-23.54
284.976	-11.54
285.11	-13.54
285.244	16.46
285.379	55.46
285.513	1.46
285.647	9.46
285.781	-7.54
285.916	27.46
286.05	1.46
286.184	22.46
286.318	19.46
286.453	-0.54
286.587	-11.54
286.721	-2.54
286.855	16.46
286.989	16.46
287.123	3.46
287.258	-7.54
287.392	-6.54
287.526	8.46
287.66	13.46
287.794	35.46
287.928	18.46
288.062	-1.54
288.196	-10.54
288.33	2.46
288.464	8.46
288.598	13.46
288.733	0.46
288.867	9.46
289.001	-0.54
289.135	-12.54
289.269	-11.54
289.403	-0.54
289.537	9.46
289.671	8.46
289.805	-6.54
289.939	1.46
290.073	2.46
290.207	6.46
290.34	5.46
290.474	24.46
290.608	14.46
290.742	-9.54
290.876	1.46
291.01	10.46
291.144	4.46
291.278	24.46
291.412	17.46
291.546	6.46
291.679	-12.54
291.813	17.46
291.947	19.46
292.081	4.46
292.215	-1.54
292.349	15.46
292.482	3.46
292.616	-7.54
292.75	-7.54
292.884	-8.54
293.018	19.46
293.151	-6.54
293.285	3.46
293.419	6.46
293.553	8.46
293.686	-5.54
293.82	1.46
293.954	22.46
294.088	12.46
294.221	4.46
294.355	16.46
294.489	6.46
294.622	-17.54
294.756	-3.54
294.89	9.46
295.023	0.46
295.157	-7.54
295.291	18.46
295.424	19.46
295.558	2.46
295.691	-0.54
295.825	-1.54
295.959	-1.54
296.092	-2.54
296.226	7.46
296.359	7.46
296.493	-10.54
296.627	3.46
296.76	-8.54
296.894	-1.54
297.027	-6.54
297.161	10.46
297.294	-12.54
297.428	10.46
297.561	32.46
297.695	-5.54
297.828	4.46
297.962	-3.54
298.095	-3.54
298.229	-3.54
298.362	-5.54
298.495	-12.54
298.629	-4.54
298.762	10.46
298.896	-1.54
299.029	3.46
299.162	18.46
299.296	-3.54
299.429	-15.54
299.563	11.46
299.696	5.46
299.829	0.46
299.963	-2.54
300.096	-2.54
300.229	31.46
300.363	20.46
300.496	4.46
300.629	-29.54
300.763	-18.54
300.896	-7.54
301.029	10.46
301.162	11.46
301.296	-3.54
301.429	15.46
301.562	-6.54
301.695	13.46
301.829	18.46
301.962	11.46
302.095	-7.54
302.228	-19.54
302.362	3.46
302.495	-15.54
302.628	-2.54
302.761	2.46
302.894	8.46
303.027	17.46
303.161	-12.54
303.294	-15.54
303.427	7.46
303.56	-15.54
303.693	-4.54
303.826	-2.54
303.959	-9.54
304.092	-7.54
304.225	-16.54
304.359	17.46
304.492	7.46
304.625	-1.54
304.758	10.46
304.891	-12.54
305.024	-0.54
305.157	-4.54
305.29	10.46
305.423	2.46
305.556	8.46
305.689	27.46
305.822	-13.54
305.955	10.46
306.088	10.46
306.221	8.46
306.354	12.46
306.487	-6.54
306.62	-6.54
306.752	1.46
306.885	11.46
307.018	-4.54
307.151	17.46
307.284	19.46
307.417	-10.54
307.55	7.46
307.683	-7.54
307.816	10.46
307.948	-11.54
308.081	13.46
308.214	22.46
308.347	21.46
308.48	-12.54
308.613	-0.54
308.745	3.46
308.878	-4.54
309.011	-20.54
309.144	-8.54
309.277	-2.54
309.409	11.46
309.542	-10.54
309.675	17.46
309.808	5.46
309.94	18.46
310.073	-11.54
310.206	-17.54
310.339	2.46
310.471	-11.54
310.604	33.46
310.737	4.46
310.869	-20.54
311.002	2.46
311.135	0.46
311.267	-23.54
311.4	-0.54
311.533	6.46
311.665	7.46
311.798	0.46
311.93	3.46
312.063	8.46
312.196	-15.54
312.328	-12.54
312.461	-8.54
312.593	11.46
312.726	11.46
312.859	0.46
312.991	4.46
313.124	-11.54
313.256	13.46
313.389	9.46
313.521	-7.54
313.654	-2.54
313.786	-13.54
313.919	1.46
314.051	-3.54
314.184	7.46
314.316	6.46
314.449	-21.54
314.581	-14.54
314.714	-12.54
314.846	-7.54
314.978	-12.54
315.111	-6.54
315.243	-11.54
315.376	1.46
315.508	3.46
315.641	-5.54
315.773	25.46
315.905	10.46
316.038	-20.54
316.17	7.46
316.302	10.46
316.435	16.46
316.567	-4.54
316.699	16.46
316.832	-3.54
316.964	-7.54
317.096	-10.54
317.229	-15.54
317.361	-21.54
317.493	-21.54
317.625	-13.54
317.758	3.46
317.89	20.46
318.022	-3.54
318.155	-21.54
318.287	4.46
318.419	8.46
318.551	10.46
318.683	-10.54
318.816	-9.54
318.948	2.46
319.08	-12.54
319.212	2.46
319.344	9.46
319.477	6.46
319.609	6.46
319.741	15.46
319.873	18.46
320.005	21.46
320.137	9.46
320.269	2.46
320.401	-14.54
320.534	1.46
320.666	-16.54
320.798	-8.54
320.93	-3.54
321.062	-25.54
321.194	-5.54
321.326	7.46
321.458	14.46
321.59	14.46
321.722	-9.54
321.854	-8.54
321.986	2.46
322.118	-0.54
322.25	-13.54
322.382	-12.54
322.514	-0.54
322.646	-3.54
322.778	8.46
322.91	-2.54
323.042	-13.54
323.174	-6.54
323.306	-11.54
323.438	-16.54
323.57	-1.54
323.702	4.46
323.834	8.46
323.966	-19.54
324.097	-7.54
324.229	-4.54
324.361	11.46
324.493	2.46
324.625	-5.54
324.757	9.46
324.889	-2.54
325.021	30.46
325.152	22.46
325.284	11.46
325.416	-4.54
325.548	13.46
325.68	-13.54
325.811	21.46
325.943	8.46
326.075	4.46
326.207	5.46
326.339	9.46
326.47	-6.54
326.602	34.46
326.734	2.46
326.866	8.46
326.997	-21.54
327.129	-19.54
327.261	-12.54
327.392	-9.54
327.524	1.46
327.656	-0.54
327.787	1.46
327.919	19.46
328.051	8.46
328.182	30.46
328.314	35.46
328.446	6.46
328.577	8.46
328.709	10.46
328.841	-5.54
328.972	-10.54
329.104	0.46
329.235	-7.54
329.367	-2.54
329.499	-2.54
329.63	10.46
329.762	-3.54
329.893	9.46
330.025	-3.54
330.156	-21.54
330.288	3.46
330.419	-1.54
330.551	18.46
330.683	-8.54
330.814	-27.54
330.946	16.46
331.077	-6.54
331.208	-5.54
331.34	2.46
331.471	-13.54
331.603	-4.54
331.734	-28.54
331.866	0.46
331.997	15.46
332.129	3.46
332.26	-14.54
332.392	8.46
332.523	-6.54
332.654	0.46
332.786	-6.54
332.917	-13.54
333.048	6.46
333.18	35.46
333.311	-14.54
333.443	9.46
333.574	13.46
333.705	21.46
333.837	-10.54
333.968	-2.54
334.099	28.46
334.231	25.46
334.362	-15.54
334.493	2.46
334.624	20.46
334.756	18.46
334.887	-4.54
335.018	-12.54
335.15	17.46
335.281	0.46
335.412	14.46
335.543	4.46
335.675	1.46
335.806	19.46
335.937	7.46
336.068	8.46
336.199	37.46
336.331	10.46
336.462	5.46
336.593	26.46
336.724	5.46
336.855	19.46
336.986	14.46
337.118	9.46
337.249	21.46
337.38	-0.54
337.511	13.46
337.642	-0.54
337.773	-2.54
337.904	8.46
338.035	14.46
338.166	-3.54
338.298	13.46
338.429	24.46
338.56	8.46
338.691	20.46
338.822	17.46
338.953	17.46
339.084	15.46
339.215	7.46
339.346	-3.54
339.477	-0.54
339.608	6.46
339.739	4.46
339.87	5.46
340.001	-7.54
340.132	10.46
340.263	19.46
340.394	16.46
340.525	-11.54
340.656	-8.54
340.787	-22.54
340.918	10.46
341.049	8.46
341.179	27.46
341.31	13.46
341.441	22.46
341.572	24.46
341.703	13.46
341.834	10.46
341.965	7.46
342.096	4.46
342.227	5.46
342.357	11.46
342.488	15.46
342.619	3.46
342.75	11.46
342.881	0.46
343.012	7.46
343.142	18.46
343.273	-13.54
343.404	15.46
343.535	35.46
343.666	36.46
343.796	13.46
343.927	23.46
344.058	40.46
344.189	9.46
344.319	19.46
344.45	19.46
344.581	11.46
344.712	-6.54
344.842	20.46
344.973	12.46
345.104	4.46
345.234	-8.54
345.365	-3.54
345.496	-2.54
345.626	5.46
345.757	5.46
345.888	-2.54
346.018	6.46
346.149	12.46
346.28	26.46
346.41	-26.54
346.541	15.46
346.672	20.46
346.802	5.46
346.933	29.46
347.063	25.46
347.194	13.46
347.325	-12.54
347.455	18.46
347.586	-10.54
347.716	-11.54
347.847	-8.54
347.977	-7.54
348.108	7.46
348.238	6.46
348.369	-9.54
348.499	6.46
348.63	11.46
348.76	12.46
348.891	13.46
349.021	17.46
349.152	17.46
349.282	1.46
349.413	4.46
349.543	2.46
349.674	-4.54
349.804	2.46
349.935	-22.54
350.065	-5.54
350.196	-7.54
350.326	-7.54
350.456	7.46
350.587	10.46
350.717	-2.54
350.848	14.46
350.978	3.46
351.108	-0.54
351.239	5.46
351.369	11.46
351.499	1.46
351.63	21.46
351.76	3.46
351.89	-2.54
352.021	11.46
352.151	-5.54
352.281	6.46
352.412	17.46
352.542	18.46
352.672	5.46
352.803	-3.54
352.933	25.46
353.063	9.46
353.193	0.46
353.324	8.46
353.454	22.46
353.584	13.46
353.714	-8.54
353.845	7.46
353.975	1.46
354.105	-4.54
354.235	-9.54
354.365	15.46
354.496	6.46
354.626	-4.54
354.756	17.46
354.886	10.46
355.016	12.46
355.146	0.46
355.277	3.46
355.407	0.46
355.537	21.46
355.667	10.46
355.797	-0.54
355.927	-5.54
356.057	12.46
356.187	12.46
356.318	-0.54
356.448	4.46
356.578	8.46
356.708	6.46
356.838	8.46
356.968	-4.54
357.098	5.46
357.228	22.46
357.358	-13.54
357.488	-13.54
357.618	27.46
357.748	18.46
357.878	10.46
358.008	9.46
358.138	8.46
358.268	4.46
358.398	9.46
358.528	-4.54
358.658	11.46
358.788	15.46
358.918	9.46
359.048	-4.54
359.178	1.46
359.308	8.46
359.438	26.46
359.568	12.46
359.698	-9.54
359.827	-3.54
359.957	4.46
360.087	8.46
360.217	12.46
360.347	20.46
360.477	14.46
360.607	6.46
360.737	6.46
360.866	-1.54
360.996	-20.54
361.126	-15.54
361.256	32.46
361.386	39.46
361.516	29.46
361.645	-4.54
361.775	14.46
361.905	-19.54
362.035	9.46
362.165	-12.54
362.294	13.46
362.424	17.46
362.554	21.46
362.684	-12.54
362.813	-4.54
362.943	24.46
363.073	-14.54
363.203	14.46
363.332	2.46
363.462	6.46
363.592	-10.54
363.721	-4.54
363.851	-9.54
363.981	6.46
364.111	13.46
364.24	2.46
364.37	24.46
364.5	7.46
364.629	-3.54
364.759	-21.54
364.888	-18.54
365.018	6.46
365.148	1.46
365.277	13.46
365.407	20.46
365.537	9.46
365.666	13.46
365.796	1.46
365.925	9.46
366.055	9.46
366.184	4.46
366.314	9.46
366.444	10.46
366.573	9.46
366.703	-0.54
366.832	16.46
366.962	20.46
367.091	13.46
367.221	26.46
367.35	0.46
367.48	38.46
367.609	15.46
367.739	0.46
367.868	-8.54
367.998	-5.54
368.127	23.46
368.257	11.46
368.386	29.46
368.516	2.46
368.645	2.46
368.775	19.46
368.904	3.46
369.033	-16.54
369.163	-8.54
369.292	16.46
369.422	25.46
369.551	18.46
369.68	19.46
369.81	4.46
369.939	8.46
370.069	17.46
370.198	5.46
370.327	-13.54
370.457	4.46
370.586	13.46
370.715	1.46
370.845	-6.54
370.974	18.46
371.103	29.46
371.233	11.46
371.362	16.46
371.491	-0.54
371.621	17.46
371.75	8.46
371.879	-16.54
372.008	8.46
372.138	7.46
372.267	19.46
372.396	-0.54
372.525	11.46
372.655	10.46
372.784	6.46
372.913	20.46
373.042	19.46
373.172	14.46
373.301	-3.54
373.43	-1.54
373.559	6.46
373.688	-4.54
373.818	8.46
373.947	20.46
374.076	12.46
374.205	16.46
374.334	1.46
374.463	-15.54
374.593	16.46
374.722	24.46
374.851	30.46
374.98	-12.54
375.109	4.46
375.238	18.46
375.367	15.46
375.496	-21.54
375.625	-10.54
375.755	3.46
375.884	29.46
376.013	17.46
376.142	-25.54
376.271	1.46
376.4	0.46
376.529	13.46
376.658	-0.54
376.787	1.46
376.916	12.46
377.045	5.46
377.174	8.46
377.303	16.46
377.432	35.46
377.561	1.46
377.69	11.46
377.819	20.46
377.948	3.46
378.077	5.46
378.206	-9.54
378.335	-1.54
378.464	1.46
378.593	20.46
378.722	0.46
378.851	11.46
378.98	25.46
379.108	-21.54
379.237	-12.54
379.366	11.46
379.495	3.46
379.624	12.46
379.753	6.46
379.882	-2.54
380.011	-6.54
380.14	4.46
380.268	14.46
380.397	6.46
380.526	34.46
380.655	-18.54
380.784	-10.54
380.913	-5.54
381.041	-0.54
381.17	-0.54
381.299	-0.54
381.428	9.46
381.557	-5.54
381.685	-6.54
381.814	8.46
381.943	10.46
382.072	-3.54
382.2	5.46
382.329	14.46
382.458	15.46
382.587	22.46
382.715	31.46
382.844	17.46
382.973	-6.54
383.102	3.46
383.23	0.46
383.359	-20.54
383.488	3.46
383.616	7.46
383.745	-8.54
383.874	10.46
384.003	2.46
384.131	-7.54
384.26	-5.54
384.389	7.46
384.517	-9.54
384.646	2.46
384.774	1.46
384.903	15.46
385.032	16.46
385.16	14.46
385.289	-14.54
385.418	10.46
385.546	8.46
385.675	8.46
385.803	1.46
385.932	20.46
386.06	-5.54
386.189	-7.54
386.318	-10.54
386.446	-5.54
386.575	16.46
386.703	9.46
386.832	0.46
386.96	-2.54
387.089	23.46
387.217	10.46
387.346	0.46
387.474	12.46
387.603	7.46
387.731	8.46
387.86	11.46
387.988	-7.54
388.117	1.46
388.245	-0.54
388.374	-2.54
388.502	12.46
388.631	2.46
388.759	6.46
388.888	9.46
389.016	-7.54
389.144	6.46
389.273	5.46
389.401	-2.54
389.53	-4.54
389.658	15.46
389.786	-2.54
389.915	-15.54
390.043	-10.54
390.172	13.46
390.3	26.46
390.428	15.46
390.557	20.46
390.685	18.46
390.813	16.46
390.942	22.46
391.07	-5.54
391.198	4.46
391.327	4.46
391.455	-18.54
391.583	17.46
391.712	16.46
391.84	9.46
391.968	-13.54
392.096	9.46
392.225	1.46
392.353	17.46
392.481	6.46
392.609	12.46
392.738	13.46
392.866	5.46
392.994	19.46
393.122	21.46
393.251	-2.54
393.379	-6.54
393.507	-12.54
393.635	3.46
393.764	11.46
393.892	16.46
394.02	13.46
394.148	1.46
394.276	-4.54
394.404	16.46
394.533	-2.54
394.661	-1.54
394.789	19.46
394.917	19.46
395.045	1.46
395.173	-0.54
395.302	-19.54
395.43	13.46
395.558	26.46
395.686	20.46
395.814	12.46
395.942	10.46
396.07	0.46
396.198	0.46
396.326	-0.54
396.454	-3.54
396.582	24.46
396.711	-4.54
396.839	22.46
396.967	21.46
397.095	13.46
397.223	8.46
397.351	21.46
397.479	8.46
397.607	12.46
397.735	12.46
397.863	15.46
397.991	20.46
398.119	-18.54
398.247	0.46
398.375	1.46
398.503	0.46
398.631	13.46
398.759	-7.54
398.887	20.46
399.015	8.46
399.143	2.46
399.271	1.46
399.399	4.46
399.526	12.46
399.654	25.46
399.782	12.46
399.91	29.46
400.038	34.46
400.166	18.46
400.294	3.46
400.422	-6.54
400.55	5.46
400.678	5.46
400.805	3.46
400.933	3.46
401.061	8.46
401.189	4.46
401.317	28.46
401.445	25.46
401.573	3.46
401.7	-0.54
401.828	-1.54
401.956	-7.54
402.084	10.46
402.212	22.46
402.34	9.46
402.467	6.46
402.595	19.46
402.723	12.46
402.851	25.46
402.978	-10.54
403.106	12.46
403.234	0.46
403.362	24.46
403.489	21.46
403.617	15.46
403.745	18.46
403.873	-6.54
404	17.46
404.128	8.46
404.256	21.46
404.384	31.46
404.511	15.46
404.639	5.46
404.767	-9.54
404.894	15.46
405.022	-0.54
405.15	12.46
405.277	-19.54
405.405	-0.54
405.533	6.46
405.66	-1.54
405.788	-14.54
405.916	-6.54
406.043	5.46
406.171	19.46
406.299	12.46
406.426	0.46
406.554	14.46
406.681	20.46
406.809	8.46
406.937	15.46
407.064	-6.54
407.192	10.46
407.319	17.46
407.447	-0.54
407.574	-7.54
407.702	4.46
407.83	-27.54
407.957	-19.54
408.085	8.46
408.212	3.46
408.34	-5.54
408.467	-20.54
408.595	13.46
408.722	-12.54
408.85	5.46
408.977	-6.54
409.105	7.46
409.232	12.46
409.36	0.46
409.487	11.46
409.615	18.46
409.742	25.46
409.87	32.46
409.997	27.46
410.125	30.46
410.252	57.46
410.379	41.46
410.507	34.46
410.634	13.46
410.762	-5.54
410.889	10.46
411.017	1.46
411.144	9.46
411.271	7.46
411.399	7.46
411.526	10.46
411.653	10.46
411.781	20.46
411.908	13.46
412.036	5.46
412.163	25.46
412.29	9.46
412.418	7.46
412.545	18.46
412.672	10.46
412.8	28.46
412.927	18.46
413.054	11.46
413.182	9.46
413.309	8.46
413.436	3.46
413.564	-10.54
413.691	23.46
413.818	31.46
413.945	-11.54
414.073	13.46
414.2	15.46
414.327	3.46
414.454	7.46
414.582	-13.54
414.709	-11.54
414.836	-3.54
414.963	8.46
415.091	11.46
415.218	-8.54
415.345	11.46
415.472	19.46
415.6	-5.54
415.727	3.46
415.854	-9.54
415.981	-3.54
416.108	0.46
416.236	0.46
416.363	5.46
416.49	0.46
416.617	11.46
416.744	27.46
416.871	14.46
416.998	9.46
417.126	4.46
417.253	-0.54
417.38	15.46
417.507	4.46
417.634	19.46
417.761	32.46
417.888	25.46
418.015	18.46
418.143	7.46
418.27	18.46
418.397	4.46
418.524	9.46
418.651	-1.54
418.778	6.46
418.905	7.46
419.032	6.46
419.159	14.46
419.286	25.46
419.413	20.46
419.54	29.46
419.667	-22.54
419.794	1.46
419.921	7.46
420.048	7.46
420.175	21.46
420.302	0.46
420.429	2.46
420.556	13.46
420.683	-5.54
420.81	1.46
420.937	17.46
421.064	3.46
421.191	12.46
421.318	10.46
421.445	22.46
421.572	-10.54
421.699	21.46
421.826	25.46
421.953	17.46
422.08	-2.54
422.207	0.46
422.334	4.46
422.461	24.46
422.588	-11.54
422.714	5.46
422.841	18.46
422.968	28.46
423.095	21.46
423.222	-2.54
423.349	8.46
423.476	10.46
423.603	-1.54
423.729	-2.54
423.856	7.46
423.983	29.46
424.11	4.46
424.237	5.46
424.364	13.46
424.491	-5.54
424.617	-5.54
424.744	1.46
424.871	2.46
424.998	8.46
425.125	4.46
425.251	16.46
425.378	-4.54
425.505	1.46
425.632	18.46
425.758	0.46
425.885	11.46
426.012	25.46
426.139	7.46
426.266	-5.54
426.392	22.46
426.519	36.46
426.646	0.46
426.772	27.46
426.899	9.46
427.026	12.46
427.153	14.46
427.279	12.46
427.406	0.46
427.533	6.46
427.659	9.46
427.786	9.46
427.913	26.46
428.039	1.46
428.166	0.46
428.293	11.46
428.419	35.46
428.546	10.46
428.673	-3.54
428.799	-2.54
428.926	13.46
429.053	18.46
429.179	22.46
429.306	22.46
429.433	18.46
429.559	21.46
429.686	2.46
429.812	-11.54
429.939	-20.54
430.066	-0.54
430.192	1.46
430.319	5.46
430.445	11.46
430.572	5.46
430.699	-12.54
430.825	-3.54
430.952	17.46
431.078	10.46
431.205	14.46
431.331	-1.54
431.458	15.46
431.584	25.46
431.711	-2.54
431.837	7.46
431.964	1.46
432.09	-0.54
432.217	-4.54
432.343	4.46
432.47	17.46
432.596	12.46
432.723	-12.54
432.849	1.46
432.976	-0.54
433.102	7.46
433.229	-12.54
433.355	30.46
433.482	85.46
433.608	156.46
433.735	141.46
433.861	128.46
433.987	165.46
434.114	226.46
434.24	187.46
434.367	61.46
434.493	10.46
434.62	12.46
434.746	31.46
434.872	24.46
434.999	11.46
435.125	8.46
435.252	-13.54
435.378	6.46
435.504	7.46
435.631	20.46
435.757	-4.54
435.883	11.46
436.01	10.46
436.136	3.46
436.262	17.46
436.389	3.46
436.515	16.46
436.641	12.46
436.768	2.46
436.894	8.46
437.02	18.46
437.147	19.46
437.273	19.46
437.399	1.46
437.526	11.46
437.652	-9.54
437.778	19.46
437.904	0.46
438.031	21.46
438.157	18.46
438.283	20.46
438.409	1.46
438.536	-5.54
438.662	31.46
438.788	17.46
438.914	26.46
439.041	16.46
439.167	13.46
439.293	4.46
439.419	18.46
439.546	18.46
439.672	-4.54
439.798	9.46
439.924	23.46
440.05	36.46
440.177	30.46
440.303	4.46
440.429	-12.54
440.555	11.46
440.681	13.46
440.807	19.46
440.934	9.46
441.06	0.46
441.186	5.46
441.312	-0.54
441.438	19.46
441.564	11.46
441.69	18.46
441.816	22.46
441.943	15.46
442.069	11.46
442.195	26.46
442.321	-3.54
442.447	-4.54
442.573	-5.54
442.699	3.46
442.825	-11.54
442.951	-3.54
443.077	17.46
443.203	4.46
443.33	-5.54
443.456	-5.54
443.582	7.46
443.708	13.46
443.834	12.46
443.96	27.46
444.086	6.46
444.212	24.46
444.338	21.46
444.464	30.46
444.59	33.46
444.716	24.46
444.842	25.46
444.968	-11.54
445.094	2.46
445.22	-11.54
445.346	-11.54
445.472	3.46
445.598	5.46
445.724	7.46
445.85	-2.54
445.976	2.46
446.102	8.46
446.228	20.46
446.354	3.46
446.48	1.46
446.605	7.46
446.731	22.46
446.857	8.46
446.983	21.46
447.109	17.46
447.235	0.46
447.361	17.46
447.487	26.46
447.613	19.46
447.739	20.46
447.865	7.46
447.99	16.46
448.116	15.46
448.242	2.46
448.368	9.46
448.494	-2.54
448.62	25.46
448.746	1.46
448.872	9.46
448.997	-8.54
449.123	19.46
449.249	23.46
449.375	20.46
449.501	1.46
449.627	-7.54
449.752	42.46
449.878	-11.54
450.004	8.46
450.13	16.46
450.256	13.46
450.381	-1.54
450.507	0.46
450.633	6.46
450.759	22.46
450.884	11.46
451.01	13.46
451.136	14.46
451.262	12.46
451.388	8.46
451.513	-7.54
451.639	4.46
451.765	3.46
451.89	19.46
452.016	14.46
452.142	-3.54
452.268	21.46
452.393	11.46
452.519	-3.54
452.645	21.46
452.771	23.46
452.896	-9.54
453.022	2.46
453.148	12.46
453.273	-11.54
453.399	9.46
453.525	-5.54
453.65	6.46
453.776	24.46
453.902	34.46
454.027	9.46
454.153	7.46
454.279	15.46
454.404	8.46
454.53	36.46
454.656	25.46
454.781	-4.54
454.907	1.46
455.032	19.46
455.158	14.46
455.284	-2.54
455.409	2.46
455.535	11.46
455.66	5.46
455.786	16.46
455.912	1.46
456.037	-0.54
456.163	16.46
456.288	6.46
456.414	-8.54
456.539	6.46
456.665	19.46
456.791	13.46
456.916	-2.54
457.042	23.46
457.167	-7.54
457.293	26.46
457.418	14.46
457.544	12.46
457.669	9.46
457.795	0.46
457.92	5.46
458.046	-0.54
458.171	13.46
458.297	4.46
458.422	0.46
458.548	-9.54
458.673	4.46
458.799	17.46
458.924	6.46
459.05	0.46
459.175	6.46
459.301	3.46
459.426	16.46
459.552	20.46
459.677	6.46
459.803	34.46
459.928	25.46
460.053	20.46
460.179	4.46
460.304	29.46
460.43	-14.54
460.555	-5.54
460.681	-0.54
460.806	-6.54
460.931	12.46
461.057	12.46
461.182	11.46
461.308	35.46
461.433	23.46
461.558	-1.54
461.684	14.46
461.809	24.46
461.934	9.46
462.06	15.46
462.185	-5.54
462.311	5.46
462.436	13.46
462.561	24.46
462.687	3.46
462.812	-1.54
462.937	-3.54
463.063	-8.54
463.188	-4.54
463.313	3.46
463.439	14.46
463.564	-7.54
463.689	16.46
463.814	38.46
463.94	16.46
464.065	27.46
464.19	3.46
464.316	-5.54
464.441	7.46
464.566	-8.54
464.692	22.46
464.817	2.46
464.942	-5.54
465.067	0.46
465.193	-13.54
465.318	16.46
465.443	5.46
465.568	-3.54
465.694	4.46
465.819	37.46
465.944	-13.54
466.069	12.46
466.194	3.46
466.32	35.46
466.445	8.46
466.57	0.46
466.695	13.46
466.82	14.46
466.946	12.46
467.071	13.46
467.196	-19.54
467.321	2.46
467.446	-14.54
467.572	21.46
467.697	-0.54
467.822	11.46
467.947	18.46
468.072	2.46
468.197	-0.54
468.323	-14.54
468.448	15.46
468.573	-7.54
468.698	13.46
468.823	15.46
468.948	19.46
469.073	12.46
469.198	41.46
469.324	43.46
469.449	-1.54
469.574	22.46
469.699	24.46
469.824	38.46
469.949	18.46
470.074	27.46
470.199	33.46
470.324	32.46
470.449	20.46
470.574	5.46
470.7	6.46
470.825	17.46
470.95	33.46
471.075	0.46
471.2	9.46
471.325	14.46
471.45	2.46
471.575	1.46
471.7	14.46
471.825	-3.54
471.95	0.46
472.075	6.46
472.2	-10.54
472.325	10.46
472.45	-3.54
472.575	9.46
472.7	7.46
472.825	17.46
472.95	17.46
473.075	12.46
473.2	0.46
473.325	12.46
473.45	-3.54
473.575	7.46
473.7	16.46
473.825	1.46
473.95	9.46
474.075	17.46
474.2	-4.54
474.325	-4.54
474.45	28.46
474.574	13.46
474.699	3.46
474.824	6.46
474.949	1.46
475.074	17.46
475.199	24.46
475.324	33.46
475.449	27.46
475.574	24.46
475.699	17.46
475.824	-0.54
475.949	10.46
476.073	15.46
476.198	15.46
476.323	19.46
476.448	16.46
476.573	21.46
476.698	6.46
476.823	-11.54
476.947	2.46
477.072	10.46
477.197	15.46
477.322	1.46
477.447	14.46
477.572	3.46
477.697	0.46
477.821	-5.54
477.946	4.46
478.071	22.46
478.196	34.46
478.321	4.46
478.445	-3.54
478.57	3.46
478.695	-7.54
478.82	14.46
478.945	31.46
479.069	5.46
479.194	9.46
479.319	20.46
479.444	15.46
479.569	16.46
479.693	10.46
479.818	25.46
479.943	18.46
480.068	11.46
480.192	-0.54
480.317	15.46
480.442	5.46
480.567	7.46
480.691	17.46
480.816	20.46
480.941	10.46
481.066	13.46
481.19	39.46
481.315	12.46
481.44	20.46
481.564	7.46
481.689	35.46
481.814	16.46
481.938	8.46
482.063	21.46
482.188	14.46
482.313	22.46
482.437	12.46
482.562	10.46
482.687	31.46
482.811	28.46
482.936	14.46
483.061	32.46
483.185	25.46
483.31	27.46
483.435	17.46
483.559	19.46
483.684	-0.54
483.808	42.46
483.933	12.46
484.058	19.46
484.182	9.46
484.307	13.46
484.432	8.46
484.556	41.46
484.681	16.46
484.805	24.46
484.93	29.46
485.055	26.46
485.179	79.46
485.304	124.46
485.428	371.46
485.553	1247.46
485.678	1732.46
485.802	1635.46
485.927	1816.46
486.051	2665.46
486.176	1649.46
486.3	438.46
486.425	152.46
486.549	91.46
486.674	65.46
486.799	27.46
486.923	31.46
487.048	33.46
487.172	4.46
487.297	7.46
487.421	17.46
487.546	15.46
487.67	31.46
487.795	22.46
487.919	14.46
488.044	20.46
488.168	18.46
488.293	23.46
488.417	10.46
488.542	24.46
488.666	23.46
488.791	9.46
488.915	15.46
489.04	21.46
489.164	17.46
489.289	35.46
489.413	0.46
489.538	15.46
489.662	28.46
489.786	5.46
489.911	16.46
490.035	22.46
490.16	4.46
490.284	5.46
490.409	-3.54
490.533	16.46
490.658	15.46
490.782	28.46
490.906	23.46
491.031	18.46
491.155	9.46
491.28	34.46
491.404	4.46
491.528	31.46
491.653	23.46
491.777	33.46
491.902	8.46
492.026	10.46
492.15	8.46
492.275	31.46
492.399	23.46
492.524	35.46
492.648	27.46
492.772	18.46
492.897	26.46
493.021	25.46
493.145	25.46
493.27	23.46
493.394	-0.54
493.518	15.46
493.643	-19.54
493.767	28.46
493.891	-2.54
494.016	9.46
494.14	10.46
494.264	15.46
494.389	25.46
494.513	4.46
494.637	19.46
494.762	20.46
494.886	24.46
495.01	18.46
495.134	21.46
495.259	29.46
495.383	19.46
495.507	12.46
495.632	41.46
495.756	28.46
495.88	21.46
496.004	6.46
496.129	16.46
496.253	31.46
496.377	11.46
496.501	33.46
496.626	15.46
496.75	9.46
496.874	13.46
496.998	8.46
497.123	25.46
497.247	20.46
497.371	11.46
497.495	23.46
497.62	15.46
497.744	16.46
497.868	-3.54
497.992	8.46
498.116	0.46
498.241	17.46
498.365	6.46
498.489	1.46
498.613	24.46
498.737	4.46
498.862	4.46
498.986	-2.54
499.11	1.46
499.234	-1.54
499.358	-1.54
499.482	16.46
499.607	19.46
499.731	7.46
499.855	24.46
499.979	8.46
500.103	9.46
500.227	21.46
500.351	7.46
500.476	12.46
500.6	13.46
500.724	10.46
500.848	1.46
500.972	21.46
501.096	17.46
501.22	31.46
501.344	-0.54
501.469	-6.54
501.593	0.46
501.717	11.46
501.841	5.46
501.965	8.46
502.089	-1.54
502.213	14.46
502.337	12.46
502.461	12.46
502.585	15.46
502.709	16.46
502.834	8.46
502.958	7.46
503.082	14.46
503.206	20.46
503.33	35.46
503.454	20.46
503.578	22.46
503.702	12.46
503.826	9.46
503.95	28.46
504.074	11.46
504.198	7.46
504.322	5.46
504.446	4.46
504.57	28.46
504.694	24.46
504.818	8.46
504.942	19.46
505.066	7.46
505.19	7.46
505.314	14.46
505.438	16.46
505.562	-0.54
505.686	15.46
505.81	6.46
505.934	21.46
506.058	9.46
506.182	4.46
506.306	6.46
506.43	3.46
506.554	1.46
506.678	7.46
506.802	22.46
506.926	27.46
507.05	15.46
507.174	46.46
507.298	11.46
507.422	13.46
507.546	38.46
507.67	28.46
507.794	-9.54
507.918	11.46
508.042	2.46
508.165	-7.54
508.289	8.46
508.413	-4.54
508.537	-10.54
508.661	20.46
508.785	11.46
508.909	3.46
509.033	16.46
509.157	17.46
509.281	2.46
509.405	3.46
509.528	40.46
509.652	13.46
509.776	1.46
509.9	25.46
510.024	8.46
510.148	20.46
510.272	19.46
510.396	24.46
510.519	0.46
510.643	23.46
510.767	6.46
510.891	-0.54
511.015	1.46
511.139	32.46
511.263	29.46
511.386	15.46
511.51	7.46
511.634	3.46
511.758	16.46
511.882	6.46
512.006	13.46
512.129	19.46
512.253	38.46
512.377	11.46
512.501	12.46
512.625	21.46
512.748	17.46
512.872	8.46
512.996	1.46
513.12	13.46
513.244	-8.54
513.367	6.46
513.491	18.46
513.615	13.46
513.739	-11.54
513.862	0.46
513.986	15.46
514.11	26.46
514.234	21.46
514.358	40.46
514.481	12.46
514.605	9.46
514.729	2.46
514.853	26.46
514.976	6.46
515.1	14.46
515.224	18.46
515.348	0.46
515.471	4.46
515.595	7.46
515.719	-2.54
515.842	33.46
515.966	5.46
516.09	30.46
516.214	-7.54
516.337	40.46
516.461	28.46
516.585	15.46
516.708	30.46
516.832	36.46
516.956	8.46
517.08	11.46
517.203	-3.54
517.327	8.46
517.451	26.46
517.574	40.46
517.698	8.46
517.822	6.46
517.945	16.46
518.069	19.46
518.193	42.46
518.316	39.46
518.44	26.46
518.564	9.46
518.687	12.46
518.811	23.46
518.935	54.46
519.058	35.46
519.182	25.46
519.306	43.46
519.429	24.46
519.553	63.46
519.676	34.46
519.8	24.46
519.924	4.46
520.047	23.46
520.171	7.46
520.294	8.46
520.418	1.46
520.542	-10.54
520.665	36.46
520.789	6.46
520.913	3.46
521.036	-11.54
521.16	8.46
521.283	-13.54
521.407	0.46
521.53	1.46
521.654	-11.54
521.778	8.46
521.901	-5.54
522.025	14.46
522.148	8.46
522.272	17.46
522.395	4.46
522.519	21.46
522.643	11.46
522.766	32.46
522.89	4.46
523.013	25.46
523.137	2.46
523.26	9.46
523.384	19.46
523.507	22.46
523.631	16.46
523.754	8.46
523.878	11.46
524.002	32.46
524.125	15.46
524.249	9.46
524.372	6.46
524.496	-2.54
524.619	20.46
524.743	10.46
524.866	27.46
524.99	9.46
525.113	1.46
525.237	23.46
525.36	2.46
525.484	12.46
525.607	15.46
525.731	-12.54
525.854	18.46
525.978	39.46
526.101	13.46
526.224	9.46
526.348	16.46
526.471	12.46
526.595	23.46
526.718	5.46
526.842	12.46
526.965	14.46
527.089	6.46
527.212	12.46
527.336	0.46
527.459	22.46
527.582	9.46
527.706	16.46
527.829	13.46
527.953	10.46
528.076	8.46
528.2	6.46
528.323	19.46
528.446	17.46
528.57	18.46
528.693	28.46
528.817	-2.54
528.94	17.46
529.064	33.46
529.187	28.46
529.31	-0.54
529.434	9.46
529.557	3.46
529.68	16.46
529.804	12.46
529.927	7.46
530.051	0.46
530.174	-2.54
530.297	3.46
530.421	11.46
530.544	10.46
530.668	1.46
530.791	-7.54
530.914	24.46
531.038	8.46
531.161	3.46
531.284	20.46
531.408	15.46
531.531	7.46
531.654	25.46
531.778	7.46
531.901	5.46
532.024	15.46
532.148	-2.54
532.271	-0.54
532.394	14.46
532.518	20.46
532.641	22.46
532.764	33.46
532.888	33.46
533.011	4.46
533.134	-7.54
533.258	21.46
533.381	10.46
533.504	10.46
533.628	-5.54
533.751	21.46
533.874	7.46
533.997	1.46
534.121	7.46
534.244	-2.54
534.367	0.46
534.491	-0.54
534.614	0.46
534.737	8.46
534.86	-3.54
534.984	-0.54
535.107	0.46
535.23	14.46
535.354	3.46
535.477	-13.54
535.6	12.46
535.723	-0.54
535.847	19.46
535.97	3.46
536.093	4.46
536.216	0.46
536.34	22.46
536.463	-11.54
536.586	11.46
536.709	16.46
536.833	14.46
536.956	-16.54
537.079	5.46
537.202	21.46
537.325	6.46
537.449	22.46
537.572	29.46
537.695	4.46
537.818	3.46
537.941	-0.54
538.065	24.46
538.188	5.46
538.311	16.46
538.434	10.46
538.558	4.46
538.681	22.46
538.804	24.46
538.927	3.46
539.05	23.46
539.173	-0.54
539.297	-8.54
539.42	3.46
539.543	24.46
539.666	15.46
539.789	2.46
539.913	10.46
540.036	16.46
540.159	19.46
540.282	-8.54
540.405	-9.54
540.528	20.46
540.651	16.46
540.775	1.46
540.898	24.46
541.021	11.46
541.144	23.46
541.267	23.46
541.39	5.46
541.513	9.46
541.637	-8.54
541.76	9.46
541.883	10.46
542.006	18.46
542.129	29.46
542.252	-0.54
542.375	5.46
542.498	16.46
542.622	13.46
542.745	14.46
542.868	14.46
542.991	16.46
543.114	17.46
543.237	20.46
543.36	18.46
543.483	10.46
543.606	20.46
543.73	21.46
543.853	-5.54
543.976	4.46
544.099	6.46
544.222	15.46
544.345	11.46
544.468	13.46
544.591	-6.54
544.714	4.46
544.837	23.46
544.96	18.46
545.083	23.46
545.206	9.46
545.329	27.46
545.453	22.46
545.576	18.46
545.699	1.46
545.822	0.46
545.945	-0.54
546.068	15.46
546.191	16.46
546.314	-3.54
546.437	8.46
546.56	7.46
546.683	9.46
546.806	37.46
546.929	7.46
547.052	-6.54
547.175	9.46
547.298	18.46
547.421	-11.54
547.544	6.46
547.667	16.46
547.79	9.46
547.913	-9.54
548.036	-21.54
548.159	19.46
548.282	8.46
548.405	-2.54
548.528	14.46
548.651	5.46
548.774	25.46
548.897	24.46
549.02	43.46
549.143	38.46
549.266	13.46
549.389	15.46
549.512	-16.54
549.635	21.46
549.758	12.46
549.881	7.46
550.004	5.46
550.127	10.46
550.25	-11.54
550.373	-10.54
550.496	4.46
550.619	11.46
550.742	17.46
550.865	-0.54
550.988	-0.54
551.111	39.46
551.234	11.46
551.356	1.46
551.479	3.46
551.602	14.46
551.725	19.46
551.848	39.46
551.971	40.46
552.094	13.46
552.217	5.46
552.34	1.46
552.463	8.46
552.586	29.46
552.709	-7.54
552.832	5.46
552.955	20.46
553.077	26.46
553.2	14.46
553.323	7.46
553.446	0.46
553.569	-0.54
553.692	-7.54
553.815	1.46
553.938	28.46
554.061	27.46
554.184	15.46
554.306	27.46
554.429	9.46
554.552	3.46
554.675	-11.54
554.798	-7.54
554.921	13.46
555.044	3.46
555.167	-16.54
555.29	3.46
555.412	10.46
555.535	2.46
555.658	-1.54
555.781	-2.54
555.904	7.46
556.027	10.46
556.15	-0.54
556.272	-2.54
556.395	24.46
556.518	1.46
556.641	5.46
556.764	20.46
556.887	17.46
557.01	5.46
557.132	0.46
557.255	-5.54
557.378	20.46
557.501	6.46
557.624	10.46
557.747	12.46
557.869	20.46
557.992	13.46
558.115	29.46
558.238	18.46
558.361	11.46
558.483	24.46
558.606	9.46
558.729	-9.54
558.852	29.46
558.975	25.46
559.098	23.46
559.22	15.46
559.343	13.46
559.466	3.46
559.589	17.46
559.712	9.46
559.834	16.46
559.957	24.46
560.08	9.46
560.203	19.46
560.325	33.46
560.448	23.46
560.571	10.46
560.694	10.46
560.817	24.46
560.939	6.46
561.062	-5.54
561.185	3.46
561.308	28.46
561.43	11.46
561.553	7.46
561.676	20.46
561.799	38.46
561.921	20.46
562.044	-7.54
562.167	-0.54
562.29	16.46
562.413	13.46
562.535	19.46
562.658	0.46
562.781	5.46
562.903	5.46
563.026	6.46
563.149	37.46
563.272	12.46
563.394	1.46
563.517	17.46
563.64	5.46
563.763	0.46
563.885	16.46
564.008	21.46
564.131	4.46
564.254	-14.54
564.376	19.46
564.499	2.46
564.622	5.46
564.744	21.46
564.867	15.46
564.99	2.46
565.113	13.46
565.235	-1.54
565.358	-7.54
565.481	-0.54
565.603	18.46
565.726	0.46
565.849	26.46
565.971	26.46
566.094	-4.54
566.217	10.46
566.34	21.46
566.462	6.46
566.585	12.46
566.708	36.46
566.83	9.46
566.953	15.46
567.076	12.46
567.198	10.46
567.321	-3.54
567.444	16.46
567.566	-5.54
567.689	-9.54
567.812	9.46
567.934	3.46
568.057	3.46
568.18	-2.54
568.302	9.46
568.425	2.46
568.548	4.46
568.67	3.46
568.793	20.46
568.916	14.46
569.038	6.46
569.161	-3.54
569.283	9.46
569.406	3.46
569.529	7.46
569.651	11.46
569.774	14.46
569.897	8.46
570.019	22.46
570.142	20.46
570.265	10.46
570.387	5.46
570.51	6.46
570.632	15.46
570.755	10.46
570.878	-0.54
571	21.46
571.123	2.46
571.246	25.46
571.368	1.46
571.491	-0.54
571.613	5.46
571.736	-8.54
571.859	1.46
571.981	-4.54
572.104	-7.54
572.226	-3.54
572.349	-6.54
572.472	-3.54
572.594	13.46
572.717	0.46
572.839	12.46
572.962	5.46
573.085	9.46
573.207	6.46
573.33	17.46
573.452	13.46
573.575	20.46
573.697	-5.54
573.82	-9.54
573.943	1.46
574.065	9.46
574.188	-5.54
574.31	13.46
574.433	12.46
574.555	17.46
574.678	7.46
574.801	26.46
574.923	2.46
575.046	11.46
575.168	7.46
575.291	11.46
575.413	-1.54
575.536	-1.54
575.659	-2.54
575.781	4.46
575.904	-0.54
576.026	0.46
576.149	7.46
576.271	20.46
576.394	22.46
576.516	19.46
576.639	19.46
576.761	6.46
576.884	8.46
577.007	0.46
577.129	-6.54
577.252	14.46
577.374	21.46
577.497	14.46
577.619	-8.54
577.742	-2.54
577.864	16.46
577.987	16.46
578.109	22.46
578.232	17.46
578.354	35.46
578.477	-0.54
578.599	-6.54
578.722	12.46
578.844	11.46
578.967	19.46
579.089	10.46
579.212	-2.54
579.334	2.46
579.457	-2.54
579.579	17.46
579.702	-3.54
579.824	3.46
579.947	-8.54
580.069	5.46
580.192	6.46
580.314	13.46
580.437	11.46
580.559	44.46
580.682	6.46
580.804	15.46
580.927	15.46
581.049	41.46
581.172	19.46
581.294	7.46
581.417	22.46
581.539	15.46
581.662	13.46
581.784	35.46
581.907	15.46
582.029	11.46
582.152	1.46
582.274	19.46
582.396	-0.54
582.519	10.46
582.641	4.46
582.764	15.46
582.886	16.46
583.009	15.46
583.131	-2.54
583.254	4.46
583.376	29.46
583.499	17.46
583.621	10.46
583.743	32.46
583.866	19.46
583.988	25.46
584.111	16.46
584.233	20.46
584.356	21.46
584.478	16.46
584.601	-12.54
584.723	4.46
584.845	9.46
584.968	-11.54
585.09	5.46
585.213	23.46
585.335	15.46
585.458	9.46
585.58	3.46
585.702	24.46
585.825	13.46
585.947	9.46
586.07	-11.54
586.192	-0.54
586.315	21.46
586.437	0.46
586.559	-1.54
586.682	-8.54
586.804	18.46
586.927	0.46
587.049	7.46
587.171	10.46
587.294	11.46
587.416	32.46
587.539	16.46
587.661	15.46
587.783	-10.54
587.906	-2.54
588.028	10.46
588.151	18.46
588.273	24.46
588.395	20.46
588.518	19.46
588.64	16.46
588.763	15.46
588.885	12.46
589.007	5.46
589.13	5.46
589.252	-4.54
589.375	20.46
589.497	15.46
589.619	38.46
589.742	5.46
589.864	14.46
589.986	11.46
590.109	5.46
590.231	11.46
590.354	8.46
590.476	-2.54
590.598	8.46
590.721	3.46
590.843	13.46
590.965	8.46
591.088	-2.54
591.21	7.46
591.332	6.46
591.455	-5.54
591.577	2.46
591.7	12.46
591.822	2.46
591.944	14.46
592.067	15.46
592.189	16.46
592.311	3.46
592.434	13.46
592.556	7.46
592.678	-10.54
592.801	-7.54
592.923	-4.54
593.045	-6.54
593.168	2.46
593.29	14.46
593.412	20.46
593.535	5.46
593.657	1.46
593.779	8.46
593.902	25.46
594.024	21.46
594.146	37.46
594.269	33.46
594.391	-1.54
594.513	20.46
594.636	10.46
594.758	7.46
594.88	3.46
595.003	15.46
595.125	12.46
595.247	4.46
595.37	9.46
595.492	0.46
595.614	24.46
595.737	10.46
595.859	25.46
595.981	12.46
596.104	4.46
596.226	14.46
596.348	-5.54
596.471	0.46
596.593	25.46
596.715	7.46
596.838	6.46
596.96	0.46
597.082	4.46
597.204	9.46
597.327	23.46
597.449	11.46
597.571	3.46
597.694	31.46
597.816	24.46
597.938	17.46
598.061	9.46
598.183	8.46
598.305	17.46
598.427	11.46
598.55	2.46
598.672	11.46
598.794	17.46
598.917	12.46
599.039	17.46
599.161	24.46
599.283	22.46
599.406	27.46
599.528	12.46
599.65	26.46
599.773	16.46
599.895	34.46
600.017	14.46
600.139	12.46
600.262	0.46
600.384	-1.54
600.506	17.46
600.628	21.46
600.751	25.46
600.873	12.46
600.995	-5.54
601.118	18.46
601.24	3.46
601.362	36.46
601.484	30.46
601.607	13.46
601.729	3.46
601.851	-21.54
601.973	13.46
602.096	17.46
602.218	22.46
602.34	5.46
602.462	19.46
602.585	17.46
602.707	8.46
602.829	14.46
602.951	7.46
603.074	-0.54
603.196	9.46
603.318	14.46
603.44	15.46
603.563	8.46
603.685	-0.54
603.807	8.46
603.929	23.46
604.052	18.46
604.174	29.46
604.296	27.46
604.418	41.46
604.541	34.46
604.663	2.46
604.785	-4.54
604.907	17.46
605.03	2.46
605.152	43.46
605.274	17.46
605.396	13.46
605.519	9.46
605.641	11.46
605.763	15.46
605.885	13.46
606.008	7.46
606.13	17.46
606.252	24.46
606.374	-2.54
606.496	12.46
606.619	31.46
606.741	16.46
606.863	49.46
606.985	36.46
607.108	17.46
607.23	15.46
607.352	5.46
607.474	14.46
607.596	13.46
607.719	1.46
607.841	3.46
607.963	10.46
608.085	20.46
608.207	32.46
608.33	1.46
608.452	19.46
608.574	13.46
608.696	22.46
608.819	12.46
608.941	21.46
609.063	-0.54
609.185	0.46
609.307	-0.54
609.43	16.46
609.552	11.46
609.674	-14.54
609.796	9.46
609.918	19.46
610.041	3.46
610.163	7.46
610.285	8.46
610.407	32.46
610.529	8.46
610.652	8.46
610.774	18.46
610.896	0.46
611.018	11.46
611.14	-7.54
611.263	-0.54
611.385	-9.54
611.507	5.46
611.629	-2.54
611.751	34.46
611.873	37.46
611.996	8.46
612.118	-5.54
612.24	-3.54
612.362	23.46
612.484	16.46
612.607	29.46
612.729	26.46
612.851	39.46
612.973	-4.54
613.095	7.46
613.218	0.46
613.34	24.46
613.462	17.46
613.584	10.46
613.706	13.46
613.828	41.46
613.951	-11.54
614.073	-6.54
614.195	1.46
614.317	33.46
614.439	25.46
614.561	29.46
614.684	10.46
614.806	40.46
614.928	2.46
615.05	19.46
615.172	27.46
615.294	28.46
615.417	12.46
615.539	14.46
615.661	21.46
615.783	42.46
615.905	28.46
616.027	57.46
616.15	91.46
616.272	77.46
616.394	43.46
616.516	37.46
616.638	22.46
616.76	16.46
616.883	15.46
617.005	14.46
617.127	6.46
617.249	15.46
617.371	6.46
617.493	11.46
617.615	20.46
617.738	1.46
617.86	13.46
617.982	-0.54
618.104	10.46
618.226	6.46
618.348	1.46
618.471	15.46
618.593	15.46
618.715	-7.54
618.837	20.46
618.959	5.46
619.081	31.46
619.203	26.46
619.326	24.46
619.448	4.46
619.57	21.46
619.692	22.46
619.814	13.46
619.936	11.46
620.058	27.46
620.181	15.46
620.303	4.46
620.425	23.46
620.547	9.46
620.669	9.46
620.791	10.46
620.913	24.46
621.036	5.46
621.158	16.46
621.28	19.46
621.402	-0.54
621.524	6.46
621.646	-5.54
621.768	-0.54
621.891	-2.54
622.013	9.46
622.135	-6.54
622.257	-11.54
622.379	7.46
622.501	8.46
622.623	14.46
622.745	20.46
622.868	23.46
622.99	9.46
623.112	-7.54
623.234	11.46
623.356	25.46
623.478	3.46
623.6	20.46
623.722	-5.54
623.845	11.46
623.967	2.46
624.089	26.46
624.211	11.46
624.333	4.46
624.455	3.46
624.577	11.46
624.699	18.46
624.822	1.46
624.944	0.46
625.066	-5.54
625.188	13.46
625.31	20.46
625.432	29.46
625.554	23.46
625.676	17.46
625.799	3.46
625.921	3.46
626.043	20.46
626.165	10.46
626.287	1.46
626.409	17.46
626.531	13.46
626.653	21.46
626.775	23.46
626.898	19.46
627.02	12.46
627.142	14.46
627.264	5.46
627.386	13.46
627.508	3.46
627.63	8.46
627.752	8.46
627.874	21.46
627.997	13.46
628.119	15.46
628.241	12.46
628.363	26.46
628.485	23.46
628.607	8.46
628.729	-3.54
628.851	-9.54
628.973	23.46
629.096	9.46
629.218	20.46
629.34	29.46
629.462	2.46
629.584	10.46
629.706	6.46
629.828	29.46
629.95	-0.54
630.072	0.46
630.195	0.46
630.317	9.46
630.439	15.46
630.561	22.46
630.683	-0.54
630.805	-4.54
630.927	12.46
631.049	14.46
631.171	-12.54
631.293	8.46
631.416	18.46
631.538	3.46
631.66	10.46
631.782	16.46
631.904	27.46
632.026	0.46
632.148	22.46
632.27	3.46
632.392	17.46
632.514	22.46
632.637	7.46
632.759	12.46
632.881	5.46
633.003	4.46
633.125	-2.54
633.247	2.46
633.369	7.46
633.491	9.46
633.613	18.46
633.735	-1.54
633.858	16.46
633.98	10.46
634.102	10.46
634.224	9.46
634.346	16.46
634.468	3.46
634.59	3.46
634.712	7.46
634.834	8.46
634.956	1.46
635.078	7.46
635.201	-7.54
635.323	6.46
635.445	-3.54
635.567	-7.54
635.689	12.46
635.811	23.46
635.933	11.46
636.055	1.46
636.177	7.46
636.299	29.46
636.421	-4.54
636.544	4.46
636.666	17.46
636.788	27.46
636.91	4.46
637.032	-12.54
637.154	7.46
637.276	24.46
637.398	9.46
637.52	24.46
637.642	13.46
637.764	7.46
637.887	5.46
638.009	8.46
638.131	13.46
638.253	8.46
638.375	16.46
638.497	0.46
638.619	-4.54
638.741	23.46
638.863	-14.54
638.985	12.46
639.107	-1.54
639.23	8.46
639.352	14.46
639.474	9.46
639.596	7.46
639.718	16.46
639.84	0.46
639.962	4.46
640.084	22.46
640.206	8.46
640.328	0.46
640.45	21.46
640.573	17.46
640.695	-0.54
640.817	28.46
640.939	26.46
641.061	-0.54
641.183	10.46
641.305	2.46
641.427	-2.54
641.549	2.46
641.671	8.46
641.793	4.46
641.915	30.46
642.038	11.46
642.16	18.46
642.282	3.46
642.404	13.46
642.526	20.46
642.648	24.46
642.77	4.46
642.892	-7.54
643.014	28.46
643.136	23.46
643.258	8.46
643.381	28.46
643.503	23.46
643.625	2.46
643.747	0.46
643.869	6.46
643.991	22.46
644.113	20.46
644.235	12.46
644.357	14.46
644.479	17.46
644.601	8.46
644.723	21.46
644.846	12.46
644.968	-2.54
645.09	-4.54
645.212	-14.54
645.334	13.46
645.456	16.46
645.578	23.46
645.7	12.46
645.822	10.46
645.944	13.46
646.066	12.46
646.188	6.46
646.311	43.46
646.433	11.46
646.555	56.46
646.677	44.46
646.799	29.46
646.921	19.46
647.043	21.46
647.165	-11.54
647.287	-1.54
647.409	19.46
647.531	22.46
647.654	6.46
647.776	18.46
647.898	5.46
648.02	17.46
648.142	5.46
648.264	-0.54
648.386	12.46
648.508	-4.54
648.63	-8.54
648.752	6.46
648.874	11.46
648.997	5.46
649.119	15.46
649.241	-4.54
649.363	43.46
649.485	26.46
649.607	13.46
649.729	-19.54
649.851	-14.54
649.973	13.46
650.095	16.46
650.217	13.46
650.34	11.46
650.462	15.46
650.584	12.46
650.706	11.46
650.828	20.46
650.95	-10.54
651.072	-0.54
651.194	-0.54
651.316	0.46
651.438	18.46
651.56	8.46
651.683	-0.54
651.805	10.46
651.927	9.46
652.049	5.46
652.171	-4.54
652.293	-6.54
652.415	4.46
652.537	9.46
652.659	2.46
652.781	12.46
652.903	11.46
653.026	13.46
653.148	20.46
653.27	23.46
653.392	18.46
653.514	9.46
653.636	9.46
653.758	7.46
653.88	-3.54
654.002	8.46
654.124	12.46
654.247	19.46
654.369	30.46
654.491	2.46
654.613	16.46
654.735	-0.54
654.857	28.46
654.979	18.46
655.101	26.46
655.223	36.46
655.345	34.46
655.468	15.46
655.59	11.46
655.712	27.46
655.834	17.46
655.956	48.46
656.078	24.46
656.2	57.46
656.322	44.46
656.444	25.46
656.566	49.46
656.689	60.46
656.811	59.46
656.933	104.46
657.055	87.46
657.177	141.46
657.299	259.46
657.421	509.46
657.543	1904.46
657.665	12592.46
657.787	15179.46
657.91	15283.46
658.032	15662.46
658.154	4635.46
658.276	3764.46
658.398	1235.46
658.52	1026.46
658.642	469.46
658.764	597.46
658.886	277.46
659.009	419.46
659.131	219.46
659.253	325.46
659.375	167.46
659.497	245.46
659.619	125.46
659.741	194.46
659.863	98.46
659.985	158.46
660.108	107.46
660.23	143.46
660.352	89.46
660.474	148.46
660.596	95.46
660.718	139.46
660.84	64.46
660.962	118.46
661.084	48.46
661.207	84.46
661.329	69.46
661.451	76.46
661.573	48.46
661.695	104.46
661.817	56.46
661.939	111.46
662.061	67.46
662.184	71.46
662.306	42.46
662.428	73.46
662.55	60.46
662.672	69.46
662.794	43.46
662.916	64.46
663.038	35.46
663.161	87.46
663.283	36.46
663.405	60.46
663.527	34.46
663.649	63.46
663.771	27.46
663.893	50.46
664.015	23.46
664.138	56.46
664.26	39.46
664.382	71.46
664.504	25.46
664.626	16.46
664.748	19.46
664.87	47.46
664.992	39.46
665.115	74.46
665.237	33.46
665.359	32.46
665.481	25.46
665.603	44.46
665.725	15.46
665.847	39.46
665.97	14.46
666.092	38.46
666.214	19.46
666.336	52.46
666.458	25.46
666.58	24.46
666.702	4.46
666.825	31.46
666.947	0.46
667.069	30.46
667.191	24.46
667.313	36.46
667.435	6.46
667.557	28.46
667.68	18.46
667.802	23.46
667.924	5.46
668.046	53.46
668.168	39.46
668.29	50.46
668.412	21.46
668.535	37.46
668.657	12.46
668.779	24.46
668.901	11.46
669.023	39.46
669.145	13.46
669.267	40.46
669.39	19.46
669.512	24.46
669.634	12.46
669.756	23.46
669.878	36.46
670	30.46
670.123	3.46
670.245	47.46
670.367	21.46
670.489	35.46
670.611	21.46
670.733	16.46
670.856	8.46
670.978	34.46
671.1	26.46
671.222	31.46
671.344	15.46
671.466	10.46
671.589	12.46
671.711	31.46
671.833	25.46
671.955	28.46
672.077	-0.54
672.199	41.46
672.322	29.46
672.444	27.46
672.566	15.46
672.688	19.46
672.81	21.46
672.932	31.46
673.055	25.46
673.177	18.46
673.299	8.46
673.421	3.46
673.543	19.46
673.665	27.46
673.788	36.46
673.91	9.46
674.032	7.46
674.154	31.46
674.276	7.46
674.399	2.46
674.521	20.46
674.643	20.46
674.765	5.46
674.887	20.46
675.009	7.46
675.132	28.46
675.254	6.46
675.376	19.46
675.498	18.46
675.62	30.46
675.743	15.46
675.865	34.46
675.987	4.46
676.109	22.46
676.231	19.46
676.354	30.46
676.476	-4.54
676.598	12.46
676.72	6.46
676.842	30.46
676.965	17.46
677.087	25.46
677.209	21.46
677.331	27.46
677.453	22.46
677.576	17.46
677.698	16.46
677.82	19.46
677.942	4.46
678.064	19.46
678.187	16.46
678.309	11.46
678.431	-2.54
678.553	23.46
678.675	32.46
678.798	10.46
678.92	15.46
679.042	13.46
679.164	-10.54
679.286	34.46
679.409	5.46
679.531	11.46
679.653	7.46
679.775	9.46
679.898	0.46
680.02	1.46
680.142	5.46
680.264	31.46
680.386	-15.54
680.509	10.46
680.631	10.46
680.753	8.46
680.875	5.46
680.998	13.46
681.12	18.46
681.242	17.46
681.364	-12.54
681.486	19.46
681.609	-12.54
681.731	1.46
681.853	9.46
681.975	5.46
682.098	30.46
682.22	28.46
682.342	18.46
682.464	31.46
682.587	2.46
682.709	20.46
682.831	-6.54
682.953	-2.54
683.076	1.46
683.198	34.46
683.32	13.46
683.442	12.46
683.565	13.46
683.687	16.46
683.809	-11.54
683.931	0.46
684.054	26.46
684.176	9.46
684.298	6.46
684.42	-6.54
684.543	-7.54
684.665	7.46
684.787	5.46
684.909	0.46
685.032	22.46
685.154	-2.54
685.276	26.46
685.398	13.46
685.521	-4.54
685.643	10.46
685.765	25.46
685.887	32.46
686.01	12.46
686.132	24.46
686.254	9.46
686.377	8.46
686.499	5.46
686.621	6.46
686.743	19.46
686.866	36.46
686.988	31.46
687.11	11.46
687.232	23.46
687.355	6.46
687.477	-2.54
687.599	9.46
687.722	-4.54
687.844	11.46
687.966	2.46
688.088	5.46
688.211	30.46
688.333	9.46
688.455	26.46
688.578	26.46
688.7	17.46
688.822	18.46
688.944	-19.54
689.067	33.46
689.189	7.46
689.311	3.46
689.434	8.46
689.556	20.46
689.678	14.46
689.801	4.46
689.923	11.46
690.045	27.46
690.167	36.46
690.29	15.46
690.412	8.46
690.534	12.46
690.657	-3.54
690.779	-4.54
690.901	13.46
691.024	10.46
691.146	10.46
691.268	-5.54
691.391	-4.54
691.513	11.46
691.635	29.46
691.758	20.46
691.88	17.46
692.002	-18.54
692.125	8.46
692.247	12.46
692.369	-6.54
692.492	-0.54
692.614	1.46
692.736	6.46
692.859	1.46
692.981	18.46
693.103	-1.54
693.226	9.46
693.348	19.46
693.47	15.46
693.593	-12.54
693.715	0.46
693.837	-23.54
693.96	-7.54
694.082	-0.54
694.204	19.46
694.327	-1.54
694.449	5.46
694.571	12.46
694.694	7.46
694.816	13.46
694.938	9.46
695.061	15.46
695.183	11.46
695.305	13.46
695.428	3.46
695.55	-7.54
695.672	-0.54
695.795	30.46
695.917	22.46
696.04	13.46
696.162	8.46
696.284	5.46
696.407	16.46
696.529	9.46
696.651	37.46
696.774	10.46
696.896	5.46
697.019	11.46
697.141	20.46
697.263	7.46
697.386	13.46
697.508	5.46
697.63	12.46
697.753	7.46
697.875	18.46
697.998	3.46
698.12	14.46
698.242	-4.54
698.365	20.46
698.487	16.46
698.61	20.46
698.732	2.46
698.854	29.46
698.977	-3.54
699.099	21.46
699.221	14.46
699.344	20.46
699.466	5.46
699.589	0.46
699.711	-2.54
699.834	24.46
699.956	0.46
700.078	12.46
700.201	-20.54
700.323	33.46
700.446	31.46
700.568	15.46
700.69	2.46
700.813	9.46
700.935	-1.54
701.058	11.46
701.18	-0.54
701.302	1.46
701.425	-15.54
701.547	15.46
701.67	-2.54
701.792	31.46
701.915	4.46
702.037	22.46
702.159	0.46
702.282	6.46
702.404	7.46
702.527	21.46
702.649	15.46
702.772	24.46
702.894	12.46
703.017	19.46
703.139	16.46
703.261	28.46
703.384	19.46
703.506	-7.54
703.629	1.46
703.751	1.46
703.874	8.46
703.996	-16.54
704.119	1.46
704.241	18.46
704.364	1.46
704.486	12.46
704.608	13.46
704.731	8.46
704.853	12.46
704.976	-2.54
705.098	9.46
705.221	10.46
705.343	-0.54
705.466	1.46
705.588	19.46
705.711	23.46
705.833	11.46
705.956	13.46
706.078	19.46
706.201	19.46
706.323	0.46
706.446	4.46
