Data from LowRes_H2_15_26_11_07_2024_HR4C61881__66__15-28-20-236.txt Node

Date: Thu Nov 07 15:28:20 EST 2024
User: crc00042
Spectrometer: HR4C6188
Trigger mode: 4
Integration Time (sec): 1.000000E-1
Scans to average: 1
Electric dark correction enabled: true
Nonlinearity correction enabled: false
Boxcar width: 0
XAxis mode: Wavelengths
Number of Pixels in Spectrum: 3648
>>>>>Begin Spectral Data<<<<<
245.66	-77.15
245.797	-77.15
245.934	-77.15
246.071	-71.15
246.208	13.85
246.344	-3.15
246.481	3.85
246.618	-8.15
246.755	15.85
246.892	-11.15
247.029	-3.15
247.165	-21.15
247.302	5.85
247.439	3.85
247.576	2.85
247.713	-6.15
247.849	33.85
247.986	-13.15
248.123	6.85
248.26	-15.15
248.396	22.85
248.533	1.85
248.67	-3.15
248.806	5.85
248.943	15.85
249.08	4.85
249.216	5.85
249.353	-14.15
249.49	-5.15
249.626	17.85
249.763	-14.15
249.9	-9.15
250.036	-7.15
250.173	17.85
250.309	16.85
250.446	16.85
250.582	10.85
250.719	-1.15
250.856	-16.15
250.992	13.85
251.129	4.85
251.265	-2.15
251.402	7.85
251.538	1.85
251.675	13.85
251.811	20.85
251.948	1.85
252.084	5.85
252.221	5.85
252.357	-0.15
252.493	15.85
252.63	-0.15
252.766	21.85
252.903	5.85
253.039	8.85
253.175	18.85
253.312	1.85
253.448	-4.15
253.585	-23.15
253.721	8.85
253.857	-3.15
253.994	14.85
254.13	6.85
254.266	4.85
254.403	5.85
254.539	15.85
254.675	23.85
254.811	14.85
254.948	6.85
255.084	5.85
255.22	-6.15
255.356	-0.15
255.493	12.85
255.629	-10.15
255.765	10.85
255.901	9.85
256.037	12.85
256.174	10.85
256.31	1.85
256.446	-3.15
256.582	-2.15
256.718	22.85
256.854	16.85
256.991	25.85
257.127	14.85
257.263	-8.15
257.399	21.85
257.535	-1.15
257.671	-3.15
257.807	6.85
257.943	11.85
258.079	2.85
258.215	-6.15
258.351	31.85
258.487	-1.15
258.623	13.85
258.759	0.85
258.895	0.85
259.031	5.85
259.167	-3.15
259.303	25.85
259.439	13.85
259.575	7.85
259.711	8.85
259.847	-13.15
259.983	12.85
260.119	0.85
260.255	4.85
260.391	22.85
260.527	22.85
260.663	8.85
260.799	18.85
260.934	-12.15
261.07	-6.15
261.206	-18.15
261.342	13.85
261.478	12.85
261.614	21.85
261.749	9.85
261.885	-7.15
262.021	19.85
262.157	30.85
262.293	-9.15
262.428	-0.15
262.564	4.85
262.7	15.85
262.836	7.85
262.971	15.85
263.107	9.85
263.243	24.85
263.378	16.85
263.514	-15.15
263.65	-6.15
263.785	-11.15
263.921	12.85
264.057	-5.15
264.192	13.85
264.328	18.85
264.464	-17.15
264.599	21.85
264.735	43.85
264.871	3.85
265.006	8.85
265.142	15.85
265.277	-12.15
265.413	2.85
265.548	16.85
265.684	8.85
265.819	7.85
265.955	-9.15
266.091	-9.15
266.226	-1.15
266.362	4.85
266.497	4.85
266.633	1.85
266.768	0.85
266.903	6.85
267.039	22.85
267.174	24.85
267.31	11.85
267.445	2.85
267.581	10.85
267.716	18.85
267.851	7.85
267.987	10.85
268.122	23.85
268.258	-4.15
268.393	-6.15
268.528	27.85
268.664	5.85
268.799	-6.15
268.934	-7.15
269.07	-12.15
269.205	12.85
269.34	18.85
269.476	5.85
269.611	6.85
269.746	26.85
269.881	12.85
270.017	15.85
270.152	10.85
270.287	23.85
270.422	21.85
270.558	5.85
270.693	7.85
270.828	8.85
270.963	8.85
271.098	-1.15
271.234	0.85
271.369	11.85
271.504	-9.15
271.639	-2.15
271.774	0.85
271.909	3.85
272.045	-11.15
272.18	0.85
272.315	6.85
272.45	14.85
272.585	-1.15
272.72	17.85
272.855	-0.15
272.99	23.85
273.125	1.85
273.26	-3.15
273.395	17.85
273.53	-19.15
273.665	9.85
273.8	2.85
273.935	14.85
274.07	-8.15
274.205	12.85
274.34	-15.15
274.475	-2.15
274.61	12.85
274.745	-10.15
274.88	23.85
275.015	-9.15
275.15	-2.15
275.285	4.85
275.42	7.85
275.555	10.85
275.69	-2.15
275.825	1.85
275.959	14.85
276.094	-5.15
276.229	-2.15
276.364	-1.15
276.499	12.85
276.634	-5.15
276.768	0.85
276.903	9.85
277.038	25.85
277.173	11.85
277.308	4.85
277.442	-1.15
277.577	-7.15
277.712	0.85
277.847	7.85
277.981	12.85
278.116	-29.15
278.251	9.85
278.386	5.85
278.52	1.85
278.655	-3.15
278.79	16.85
278.924	2.85
279.059	6.85
279.194	-5.15
279.328	37.85
279.463	3.85
279.598	19.85
279.732	7.85
279.867	9.85
280.001	28.85
280.136	6.85
280.271	18.85
280.405	11.85
280.54	19.85
280.674	-9.15
280.809	24.85
280.943	-10.15
281.078	-4.15
281.213	8.85
281.347	13.85
281.482	3.85
281.616	-8.15
281.751	-13.15
281.885	-6.15
282.02	9.85
282.154	4.85
282.288	-25.15
282.423	-3.15
282.557	-20.15
282.692	12.85
282.826	7.85
282.961	10.85
283.095	-15.15
283.229	-6.15
283.364	-15.15
283.498	-1.15
283.633	2.85
283.767	9.85
283.901	2.85
284.036	-23.15
284.17	-21.15
284.304	7.85
284.439	10.85
284.573	-21.15
284.707	25.85
284.842	3.85
284.976	-12.15
285.11	3.85
285.244	0.85
285.379	61.85
285.513	-1.15
285.647	18.85
285.781	-1.15
285.916	15.85
286.05	5.85
286.184	34.85
286.318	11.85
286.453	13.85
286.587	-10.15
286.721	-11.15
286.855	13.85
286.989	13.85
287.123	9.85
287.258	-2.15
287.392	3.85
287.526	19.85
287.66	-0.15
287.794	3.85
287.928	10.85
288.062	10.85
288.196	1.85
288.33	6.85
288.464	25.85
288.598	21.85
288.733	7.85
288.867	8.85
289.001	-3.15
289.135	-1.15
289.269	-13.15
289.403	3.85
289.537	6.85
289.671	2.85
289.805	-24.15
289.939	4.85
290.073	9.85
290.207	14.85
290.34	-1.15
290.474	19.85
290.608	18.85
290.742	8.85
290.876	7.85
291.01	22.85
291.144	33.85
291.278	29.85
291.412	1.85
291.546	-9.15
291.679	6.85
291.813	-4.15
291.947	3.85
292.081	2.85
292.215	-2.15
292.349	10.85
292.482	11.85
292.616	-11.15
292.75	0.85
292.884	14.85
293.018	14.85
293.151	-23.15
293.285	12.85
293.419	8.85
293.553	-9.15
293.686	-17.15
293.82	7.85
293.954	16.85
294.088	18.85
294.221	-2.15
294.355	-8.15
294.489	-0.15
294.622	4.85
294.756	17.85
294.89	-10.15
295.023	-7.15
295.157	8.85
295.291	17.85
295.424	43.85
295.558	-0.15
295.691	-14.15
295.825	10.85
295.959	-11.15
296.092	-6.15
296.226	2.85
296.359	6.85
296.493	18.85
296.627	8.85
296.76	16.85
296.894	10.85
297.027	-2.15
297.161	0.85
297.294	-2.15
297.428	8.85
297.561	22.85
297.695	-2.15
297.828	12.85
297.962	0.85
298.095	2.85
298.229	5.85
298.362	1.85
298.495	-1.15
298.629	-7.15
298.762	16.85
298.896	8.85
299.029	-5.15
299.162	19.85
299.296	24.85
299.429	-0.15
299.563	-15.15
299.696	2.85
299.829	9.85
299.963	14.85
300.096	14.85
300.229	6.85
300.363	-6.15
300.496	2.85
300.629	-7.15
300.763	-4.15
300.896	0.85
301.029	7.85
301.162	5.85
301.296	4.85
301.429	7.85
301.562	-24.15
301.695	4.85
301.829	10.85
301.962	23.85
302.095	16.85
302.228	0.85
302.362	3.85
302.495	-3.15
302.628	10.85
302.761	1.85
302.894	14.85
303.027	20.85
303.161	-11.15
303.294	-2.15
303.427	15.85
303.56	6.85
303.693	-2.15
303.826	7.85
303.959	3.85
304.092	-10.15
304.225	-9.15
304.359	-9.15
304.492	4.85
304.625	1.85
304.758	22.85
304.891	22.85
305.024	6.85
305.157	0.85
305.29	3.85
305.423	8.85
305.556	7.85
305.689	13.85
305.822	11.85
305.955	6.85
306.088	7.85
306.221	-5.15
306.354	-2.15
306.487	-4.15
306.62	1.85
306.752	6.85
306.885	6.85
307.018	4.85
307.151	23.85
307.284	23.85
307.417	16.85
307.55	15.85
307.683	-7.15
307.816	13.85
307.948	11.85
308.081	8.85
308.214	13.85
308.347	17.85
308.48	-1.15
308.613	-14.15
308.745	20.85
308.878	3.85
309.011	17.85
309.144	21.85
309.277	9.85
309.409	12.85
309.542	5.85
309.675	13.85
309.808	2.85
309.94	23.85
310.073	-14.15
310.206	-5.15
310.339	15.85
310.471	-8.15
310.604	19.85
310.737	1.85
310.869	12.85
311.002	2.85
311.135	-9.15
311.267	-0.15
311.4	-2.15
311.533	36.85
311.665	7.85
311.798	3.85
311.93	14.85
312.063	6.85
312.196	8.85
312.328	-23.15
312.461	-6.15
312.593	1.85
312.726	14.85
312.859	9.85
312.991	21.85
313.124	-8.15
313.256	-0.15
313.389	20.85
313.521	3.85
313.654	13.85
313.786	-16.15
313.919	-0.15
314.051	-0.15
314.184	23.85
314.316	10.85
314.449	-15.15
314.581	0.85
314.714	7.85
314.846	21.85
314.978	3.85
315.111	13.85
315.243	18.85
315.376	11.85
315.508	3.85
315.641	10.85
315.773	28.85
315.905	17.85
316.038	3.85
316.17	-4.15
316.302	14.85
316.435	8.85
316.567	-0.15
316.699	28.85
316.832	4.85
316.964	1.85
317.096	12.85
317.229	-7.15
317.361	-9.15
317.493	6.85
317.625	-6.15
317.758	0.85
317.89	15.85
318.022	-1.15
318.155	6.85
318.287	17.85
318.419	-3.15
318.551	2.85
318.683	1.85
318.816	-10.15
318.948	-13.15
319.08	-0.15
319.212	-0.15
319.344	2.85
319.477	-1.15
319.609	5.85
319.741	32.85
319.873	6.85
320.005	3.85
320.137	12.85
320.269	18.85
320.401	2.85
320.534	-4.15
320.666	-19.15
320.798	-2.15
320.93	6.85
321.062	0.85
321.194	-4.15
321.326	21.85
321.458	18.85
321.59	11.85
321.722	4.85
321.854	2.85
321.986	6.85
322.118	10.85
322.25	-3.15
322.382	-1.15
322.514	-4.15
322.646	-8.15
322.778	15.85
322.91	3.85
323.042	9.85
323.174	2.85
323.306	-4.15
323.438	0.85
323.57	7.85
323.702	15.85
323.834	10.85
323.966	-4.15
324.097	8.85
324.229	-0.15
324.361	10.85
324.493	-7.15
324.625	7.85
324.757	19.85
324.889	9.85
325.021	22.85
325.152	12.85
325.284	10.85
325.416	0.85
325.548	20.85
325.68	-13.15
325.811	12.85
325.943	8.85
326.075	5.85
326.207	4.85
326.339	15.85
326.47	2.85
326.602	28.85
326.734	15.85
326.866	25.85
326.997	-0.15
327.129	-10.15
327.261	-9.15
327.392	-19.15
327.524	4.85
327.656	-13.15
327.787	8.85
327.919	13.85
328.051	0.85
328.182	26.85
328.314	15.85
328.446	1.85
328.577	24.85
328.709	1.85
328.841	-13.15
328.972	-0.15
329.104	5.85
329.235	-0.15
329.367	7.85
329.499	-2.15
329.63	19.85
329.762	7.85
329.893	-2.15
330.025	3.85
330.156	-4.15
330.288	3.85
330.419	9.85
330.551	14.85
330.683	20.85
330.814	-18.15
330.946	12.85
331.077	-5.15
331.208	-9.15
331.34	2.85
331.471	2.85
331.603	-4.15
331.734	-5.15
331.866	8.85
331.997	17.85
332.129	-1.15
332.26	-10.15
332.392	25.85
332.523	4.85
332.654	-11.15
332.786	-7.15
332.917	5.85
333.048	25.85
333.18	35.85
333.311	3.85
333.443	14.85
333.574	10.85
333.705	23.85
333.837	11.85
333.968	6.85
334.099	32.85
334.231	24.85
334.362	4.85
334.493	3.85
334.624	2.85
334.756	21.85
334.887	9.85
335.018	4.85
335.15	-1.15
335.281	4.85
335.412	5.85
335.543	-5.15
335.675	-2.15
335.806	12.85
335.937	17.85
336.068	26.85
336.199	37.85
336.331	3.85
336.462	11.85
336.593	22.85
336.724	11.85
336.855	-4.15
336.986	10.85
337.118	12.85
337.249	3.85
337.38	16.85
337.511	16.85
337.642	14.85
337.773	5.85
337.904	10.85
338.035	3.85
338.166	3.85
338.298	4.85
338.429	-0.15
338.56	12.85
338.691	17.85
338.822	8.85
338.953	25.85
339.084	14.85
339.215	25.85
339.346	0.85
339.477	7.85
339.608	-7.15
339.739	2.85
339.87	18.85
340.001	-0.15
340.132	15.85
340.263	-0.15
340.394	11.85
340.525	16.85
340.656	7.85
340.787	-5.15
340.918	28.85
341.049	1.85
341.179	-1.15
341.31	12.85
341.441	27.85
341.572	22.85
341.703	2.85
341.834	1.85
341.965	22.85
342.096	14.85
342.227	-7.15
342.357	-5.15
342.488	12.85
342.619	9.85
342.75	10.85
342.881	2.85
343.012	15.85
343.142	25.85
343.273	-18.15
343.404	7.85
343.535	39.85
343.666	25.85
343.796	10.85
343.927	43.85
344.058	34.85
344.189	23.85
344.319	16.85
344.45	27.85
344.581	5.85
344.712	-18.15
344.842	-2.15
344.973	-10.15
345.104	20.85
345.234	24.85
345.365	-16.15
345.496	14.85
345.626	-1.15
345.757	22.85
345.888	-8.15
346.018	7.85
346.149	4.85
346.28	31.85
346.41	-11.15
346.541	7.85
346.672	-11.15
346.802	22.85
346.933	16.85
347.063	5.85
347.194	14.85
347.325	26.85
347.455	26.85
347.586	9.85
347.716	-11.15
347.847	24.85
347.977	13.85
348.108	15.85
348.238	28.85
348.369	14.85
348.499	12.85
348.63	2.85
348.76	12.85
348.891	10.85
349.021	1.85
349.152	10.85
349.282	-1.15
349.413	-1.15
349.543	22.85
349.674	-5.15
349.804	1.85
349.935	1.85
350.065	1.85
350.196	-12.15
350.326	-2.15
350.456	-0.15
350.587	19.85
350.717	8.85
350.848	18.85
350.978	10.85
351.108	-6.15
351.239	13.85
351.369	-7.15
351.499	5.85
351.63	8.85
351.76	2.85
351.89	3.85
352.021	16.85
352.151	-0.15
352.281	20.85
352.412	27.85
352.542	4.85
352.672	20.85
352.803	8.85
352.933	19.85
353.063	23.85
353.193	5.85
353.324	-8.15
353.454	18.85
353.584	24.85
353.714	2.85
353.845	6.85
353.975	-6.15
354.105	-2.15
354.235	0.85
354.365	7.85
354.496	1.85
354.626	-5.15
354.756	11.85
354.886	6.85
355.016	8.85
355.146	10.85
355.277	1.85
355.407	6.85
355.537	20.85
355.667	11.85
355.797	-2.15
355.927	-15.15
356.057	-5.15
356.187	-13.15
356.318	-3.15
356.448	9.85
356.578	-1.15
356.708	13.85
356.838	10.85
356.968	1.85
357.098	7.85
357.228	15.85
357.358	10.85
357.488	-2.15
357.618	35.85
357.748	18.85
357.878	-1.15
358.008	14.85
358.138	-6.15
358.268	-7.15
358.398	15.85
358.528	-2.15
358.658	12.85
358.788	9.85
358.918	11.85
359.048	20.85
359.178	16.85
359.308	-1.15
359.438	33.85
359.568	25.85
359.698	21.85
359.827	-1.15
359.957	2.85
360.087	-0.15
360.217	-0.15
360.347	12.85
360.477	12.85
360.607	-11.15
360.737	14.85
360.866	2.85
360.996	-19.15
361.126	-17.15
361.256	20.85
361.386	30.85
361.516	27.85
361.645	-9.15
361.775	18.85
361.905	-24.15
362.035	3.85
362.165	-0.15
362.294	13.85
362.424	13.85
362.554	5.85
362.684	11.85
362.813	13.85
362.943	21.85
363.073	-2.15
363.203	8.85
363.332	20.85
363.462	-11.15
363.592	-4.15
363.721	-1.15
363.851	12.85
363.981	23.85
364.111	10.85
364.24	-15.15
364.37	10.85
364.5	19.85
364.629	18.85
364.759	-0.15
364.888	-12.15
365.018	9.85
365.148	9.85
365.277	16.85
365.407	14.85
365.537	9.85
365.666	2.85
365.796	-7.15
365.925	9.85
366.055	29.85
366.184	12.85
366.314	9.85
366.444	9.85
366.573	-1.15
366.703	-1.15
366.832	19.85
366.962	8.85
367.091	23.85
367.221	26.85
367.35	19.85
367.48	55.85
367.609	13.85
367.739	4.85
367.868	-4.15
367.998	1.85
368.127	19.85
368.257	2.85
368.386	26.85
368.516	28.85
368.645	-3.15
368.775	12.85
368.904	4.85
369.033	1.85
369.163	9.85
369.292	26.85
369.422	7.85
369.551	37.85
369.68	20.85
369.81	22.85
369.939	15.85
370.069	31.85
370.198	14.85
370.327	-14.15
370.457	16.85
370.586	12.85
370.715	8.85
370.845	-13.15
370.974	14.85
371.103	33.85
371.233	3.85
371.362	13.85
371.491	6.85
371.621	13.85
371.75	10.85
371.879	-7.15
372.008	-13.15
372.138	-8.15
372.267	-0.15
372.396	9.85
372.525	7.85
372.655	9.85
372.784	6.85
372.913	13.85
373.042	19.85
373.172	4.85
373.301	-11.15
373.43	-6.15
373.559	10.85
373.688	23.85
373.818	21.85
373.947	25.85
374.076	4.85
374.205	28.85
374.334	6.85
374.463	-12.15
374.593	28.85
374.722	19.85
374.851	29.85
374.98	12.85
375.109	6.85
375.238	0.85
375.367	29.85
375.496	-6.15
375.625	2.85
375.755	17.85
375.884	28.85
376.013	34.85
376.142	5.85
376.271	3.85
376.4	3.85
376.529	22.85
376.658	8.85
376.787	7.85
376.916	1.85
377.045	6.85
377.174	13.85
377.303	7.85
377.432	15.85
377.561	20.85
377.69	2.85
377.819	24.85
377.948	7.85
378.077	3.85
378.206	-15.15
378.335	-9.15
378.464	23.85
378.593	24.85
378.722	3.85
378.851	-10.15
378.98	27.85
379.108	-7.15
379.237	-6.15
379.366	15.85
379.495	23.85
379.624	24.85
379.753	-4.15
379.882	-8.15
380.011	-2.15
380.14	3.85
380.268	1.85
380.397	17.85
380.526	13.85
380.655	2.85
380.784	4.85
380.913	-17.15
381.041	5.85
381.17	-9.15
381.299	-2.15
381.428	13.85
381.557	7.85
381.685	-0.15
381.814	32.85
381.943	10.85
382.072	4.85
382.2	3.85
382.329	16.85
382.458	9.85
382.587	31.85
382.715	39.85
382.844	10.85
382.973	15.85
383.102	13.85
383.23	6.85
383.359	-12.15
383.488	2.85
383.616	11.85
383.745	0.85
383.874	9.85
384.003	26.85
384.131	5.85
384.26	-5.15
384.389	25.85
384.517	-17.15
384.646	-12.15
384.774	14.85
384.903	22.85
385.032	12.85
385.16	12.85
385.289	0.85
385.418	5.85
385.546	-3.15
385.675	26.85
385.803	10.85
385.932	9.85
386.06	-3.15
386.189	13.85
386.318	13.85
386.446	5.85
386.575	1.85
386.703	26.85
386.832	1.85
386.96	-6.15
387.089	8.85
387.217	13.85
387.346	-6.15
387.474	10.85
387.603	7.85
387.731	11.85
387.86	6.85
387.988	7.85
388.117	22.85
388.245	11.85
388.374	1.85
388.502	21.85
388.631	7.85
388.759	0.85
388.888	3.85
389.016	11.85
389.144	6.85
389.273	10.85
389.401	4.85
389.53	5.85
389.658	20.85
389.786	4.85
389.915	-16.15
390.043	-11.15
390.172	-13.15
390.3	25.85
390.428	23.85
390.557	3.85
390.685	31.85
390.813	32.85
390.942	6.85
391.07	10.85
391.198	28.85
391.327	13.85
391.455	-2.15
391.583	25.85
391.712	28.85
391.84	0.85
391.968	13.85
392.096	1.85
392.225	-0.15
392.353	18.85
392.481	-0.15
392.609	-2.15
392.738	8.85
392.866	19.85
392.994	-13.15
393.122	14.85
393.251	6.85
393.379	6.85
393.507	0.85
393.635	-9.15
393.764	16.85
393.892	20.85
394.02	-1.15
394.148	-16.15
394.276	-1.15
394.404	34.85
394.533	11.85
394.661	16.85
394.789	12.85
394.917	38.85
395.045	6.85
395.173	-1.15
395.302	4.85
395.43	7.85
395.558	21.85
395.686	22.85
395.814	7.85
395.942	24.85
396.07	5.85
396.198	6.85
396.326	12.85
396.454	20.85
396.582	7.85
396.711	27.85
396.839	16.85
396.967	30.85
397.095	8.85
397.223	26.85
397.351	12.85
397.479	5.85
397.607	8.85
397.735	19.85
397.863	28.85
397.991	9.85
398.119	2.85
398.247	0.85
398.375	2.85
398.503	12.85
398.631	4.85
398.759	-8.15
398.887	4.85
399.015	9.85
399.143	4.85
399.271	5.85
399.399	18.85
399.526	20.85
399.654	16.85
399.782	4.85
399.91	24.85
400.038	37.85
400.166	-0.15
400.294	-6.15
400.422	7.85
400.55	19.85
400.678	9.85
400.805	2.85
400.933	15.85
401.061	20.85
401.189	-0.15
401.317	11.85
401.445	18.85
401.573	19.85
401.7	3.85
401.828	-2.15
401.956	-9.15
402.084	24.85
402.212	38.85
402.34	9.85
402.467	4.85
402.595	8.85
402.723	0.85
402.851	15.85
402.978	1.85
403.106	24.85
403.234	11.85
403.362	44.85
403.489	28.85
403.617	31.85
403.745	18.85
403.873	1.85
404	15.85
404.128	22.85
404.256	16.85
404.384	23.85
404.511	18.85
404.639	9.85
404.767	9.85
404.894	17.85
405.022	5.85
405.15	15.85
405.277	2.85
405.405	-0.15
405.533	8.85
405.66	7.85
405.788	-20.15
405.916	-15.15
406.043	-3.15
406.171	-3.15
406.299	22.85
406.426	17.85
406.554	8.85
406.681	25.85
406.809	30.85
406.937	11.85
407.064	11.85
407.192	14.85
407.319	-3.15
407.447	-0.15
407.574	25.85
407.702	8.85
407.83	-9.15
407.957	-9.15
408.085	2.85
408.212	8.85
408.34	17.85
408.467	8.85
408.595	15.85
408.722	30.85
408.85	25.85
408.977	16.85
409.105	5.85
409.232	10.85
409.36	4.85
409.487	14.85
409.615	17.85
409.742	38.85
409.87	40.85
409.997	43.85
410.125	50.85
410.252	70.85
410.379	50.85
410.507	22.85
410.634	29.85
410.762	25.85
410.889	11.85
411.017	8.85
411.144	17.85
411.271	20.85
411.399	30.85
411.526	20.85
411.653	20.85
411.781	42.85
411.908	12.85
412.036	23.85
412.163	29.85
412.29	22.85
412.418	19.85
412.545	19.85
412.672	0.85
412.8	33.85
412.927	32.85
413.054	29.85
413.182	19.85
413.309	1.85
413.436	-4.15
413.564	20.85
413.691	14.85
413.818	26.85
413.945	-1.15
414.073	31.85
414.2	22.85
414.327	24.85
414.454	23.85
414.582	6.85
414.709	11.85
414.836	2.85
414.963	4.85
415.091	15.85
415.218	15.85
415.345	14.85
415.472	-8.15
415.6	2.85
415.727	13.85
415.854	16.85
415.981	10.85
416.108	15.85
416.236	14.85
416.363	20.85
416.49	17.85
416.617	22.85
416.744	23.85
416.871	18.85
416.998	11.85
417.126	12.85
417.253	3.85
417.38	4.85
417.507	14.85
417.634	4.85
417.761	19.85
417.888	27.85
418.015	10.85
418.143	6.85
418.27	32.85
418.397	23.85
418.524	15.85
418.651	-0.15
418.778	26.85
418.905	35.85
419.032	10.85
419.159	20.85
419.286	27.85
419.413	14.85
419.54	21.85
419.667	6.85
419.794	10.85
419.921	24.85
420.048	3.85
420.175	2.85
420.302	-1.15
420.429	10.85
420.556	9.85
420.683	-1.15
420.81	9.85
420.937	15.85
421.064	8.85
421.191	3.85
421.318	25.85
421.445	45.85
421.572	2.85
421.699	14.85
421.826	21.85
421.953	-2.15
422.08	-19.15
422.207	-20.15
422.334	-6.15
422.461	18.85
422.588	5.85
422.714	4.85
422.841	6.85
422.968	16.85
423.095	8.85
423.222	13.85
423.349	9.85
423.476	16.85
423.603	14.85
423.729	-10.15
423.856	1.85
423.983	25.85
424.11	-9.15
424.237	-0.15
424.364	8.85
424.491	4.85
424.617	-7.15
424.744	2.85
424.871	-7.15
424.998	23.85
425.125	-0.15
425.251	16.85
425.378	9.85
425.505	15.85
425.632	9.85
425.758	-22.15
425.885	0.85
426.012	10.85
426.139	22.85
426.266	25.85
426.392	20.85
426.519	22.85
426.646	-4.15
426.772	18.85
426.899	4.85
427.026	6.85
427.153	9.85
427.279	30.85
427.406	10.85
427.533	-2.15
427.659	4.85
427.786	13.85
427.913	40.85
428.039	12.85
428.166	10.85
428.293	5.85
428.419	11.85
428.546	18.85
428.673	-3.15
428.799	1.85
428.926	1.85
429.053	33.85
429.179	18.85
429.306	14.85
429.433	2.85
429.559	37.85
429.686	3.85
429.812	-12.15
429.939	-1.15
430.066	-1.15
430.192	8.85
430.319	22.85
430.445	-2.15
430.572	1.85
430.699	-6.15
430.825	7.85
430.952	22.85
431.078	-6.15
431.205	21.85
431.331	-0.15
431.458	32.85
431.584	13.85
431.711	-3.15
431.837	3.85
431.964	20.85
432.09	17.85
432.217	2.85
432.343	21.85
432.47	40.85
432.596	11.85
432.723	-10.15
432.849	-0.15
432.976	6.85
433.102	6.85
433.229	7.85
433.355	43.85
433.482	66.85
433.608	162.85
433.735	138.85
433.861	122.85
433.987	154.85
434.114	228.85
434.24	222.85
434.367	80.85
434.493	-2.15
434.62	20.85
434.746	19.85
434.872	14.85
434.999	6.85
435.125	26.85
435.252	6.85
435.378	14.85
435.504	1.85
435.631	26.85
435.757	7.85
435.883	21.85
436.01	11.85
436.136	10.85
436.262	12.85
436.389	11.85
436.515	9.85
436.641	16.85
436.768	28.85
436.894	15.85
437.02	14.85
437.147	25.85
437.273	-10.15
437.399	5.85
437.526	33.85
437.652	25.85
437.778	28.85
437.904	-3.15
438.031	4.85
438.157	13.85
438.283	22.85
438.409	4.85
438.536	3.85
438.662	32.85
438.788	23.85
438.914	-2.15
439.041	10.85
439.167	24.85
439.293	6.85
439.419	13.85
439.546	14.85
439.672	13.85
439.798	21.85
439.924	22.85
440.05	28.85
440.177	29.85
440.303	16.85
440.429	10.85
440.555	22.85
440.681	3.85
440.807	23.85
440.934	24.85
441.06	7.85
441.186	8.85
441.312	-1.15
441.438	23.85
441.564	46.85
441.69	27.85
441.816	21.85
441.943	3.85
442.069	26.85
442.195	21.85
442.321	11.85
442.447	-1.15
442.573	6.85
442.699	3.85
442.825	6.85
442.951	24.85
443.077	23.85
443.203	15.85
443.33	-3.15
443.456	-22.15
443.582	-2.15
443.708	2.85
443.834	11.85
443.96	32.85
444.086	34.85
444.212	35.85
444.338	28.85
444.464	28.85
444.59	29.85
444.716	4.85
444.842	8.85
444.968	9.85
445.094	-16.15
445.22	6.85
445.346	8.85
445.472	42.85
445.598	-3.15
445.724	-0.15
445.85	18.85
445.976	19.85
446.102	17.85
446.228	43.85
446.354	17.85
446.48	-5.15
446.605	6.85
446.731	28.85
446.857	10.85
446.983	14.85
447.109	-4.15
447.235	10.85
447.361	0.85
447.487	16.85
447.613	24.85
447.739	15.85
447.865	15.85
447.99	8.85
448.116	7.85
448.242	18.85
448.368	27.85
448.494	6.85
448.62	15.85
448.746	26.85
448.872	13.85
448.997	7.85
449.123	15.85
449.249	38.85
449.375	31.85
449.501	27.85
449.627	4.85
449.752	43.85
449.878	3.85
450.004	-7.15
450.13	20.85
450.256	0.85
450.381	20.85
450.507	19.85
450.633	14.85
450.759	29.85
450.884	13.85
451.01	19.85
451.136	-0.15
451.262	14.85
451.388	10.85
451.513	1.85
451.639	10.85
451.765	11.85
451.89	20.85
452.016	14.85
452.142	12.85
452.268	22.85
452.393	17.85
452.519	10.85
452.645	4.85
452.771	20.85
452.896	24.85
453.022	18.85
453.148	14.85
453.273	11.85
453.399	10.85
453.525	10.85
453.65	0.85
453.776	30.85
453.902	29.85
454.027	33.85
454.153	29.85
454.279	24.85
454.404	28.85
454.53	31.85
454.656	34.85
454.781	7.85
454.907	-7.15
455.032	9.85
455.158	37.85
455.284	19.85
455.409	7.85
455.535	22.85
455.66	11.85
455.786	16.85
455.912	7.85
456.037	6.85
456.163	15.85
456.288	19.85
456.414	12.85
456.539	7.85
456.665	11.85
456.791	9.85
456.916	-2.15
457.042	14.85
457.167	-1.15
457.293	20.85
457.418	2.85
457.544	-1.15
457.669	7.85
457.795	3.85
457.92	14.85
458.046	7.85
458.171	24.85
458.297	9.85
458.422	11.85
458.548	2.85
458.673	9.85
458.799	14.85
458.924	-5.15
459.05	12.85
459.175	-4.15
459.301	3.85
459.426	19.85
459.552	2.85
459.677	0.85
459.803	23.85
459.928	23.85
460.053	32.85
460.179	4.85
460.304	37.85
460.43	-19.15
460.555	24.85
460.681	18.85
460.806	27.85
460.931	10.85
461.057	20.85
461.182	12.85
461.308	35.85
461.433	15.85
461.558	26.85
461.684	19.85
461.809	6.85
461.934	-1.15
462.06	20.85
462.185	10.85
462.311	21.85
462.436	11.85
462.561	11.85
462.687	8.85
462.812	10.85
462.937	-3.15
463.063	2.85
463.188	3.85
463.313	32.85
463.439	13.85
463.564	3.85
463.689	16.85
463.814	35.85
463.94	3.85
464.065	22.85
464.19	38.85
464.316	7.85
464.441	0.85
464.566	11.85
464.692	12.85
464.817	14.85
464.942	-6.15
465.067	10.85
465.193	-16.15
465.318	-9.15
465.443	-3.15
465.568	26.85
465.694	4.85
465.819	34.85
465.944	15.85
466.069	28.85
466.194	14.85
466.32	16.85
466.445	11.85
466.57	-1.15
466.695	8.85
466.82	24.85
466.946	24.85
467.071	24.85
467.196	22.85
467.321	23.85
467.446	23.85
467.572	15.85
467.697	3.85
467.822	23.85
467.947	20.85
468.072	-0.15
468.197	-16.15
468.323	0.85
468.448	5.85
468.573	-0.15
468.698	1.85
468.823	14.85
468.948	6.85
469.073	19.85
469.198	25.85
469.324	32.85
469.449	14.85
469.574	14.85
469.699	10.85
469.824	24.85
469.949	7.85
470.074	16.85
470.199	49.85
470.324	29.85
470.449	31.85
470.574	2.85
470.7	9.85
470.825	20.85
470.95	38.85
471.075	4.85
471.2	13.85
471.325	29.85
471.45	13.85
471.575	7.85
471.7	26.85
471.825	-2.15
471.95	1.85
472.075	0.85
472.2	15.85
472.325	8.85
472.45	1.85
472.575	14.85
472.7	8.85
472.825	26.85
472.95	27.85
473.075	26.85
473.2	15.85
473.325	19.85
473.45	11.85
473.575	-3.15
473.7	21.85
473.825	-1.15
473.95	23.85
474.075	16.85
474.2	-1.15
474.325	20.85
474.45	38.85
474.574	24.85
474.699	27.85
474.824	12.85
474.949	10.85
475.074	5.85
475.199	34.85
475.324	21.85
475.449	6.85
475.574	36.85
475.699	37.85
475.824	10.85
475.949	20.85
476.073	16.85
476.198	17.85
476.323	16.85
476.448	7.85
476.573	17.85
476.698	25.85
476.823	27.85
476.947	21.85
477.072	22.85
477.197	17.85
477.322	2.85
477.447	12.85
477.572	14.85
477.697	23.85
477.821	8.85
477.946	19.85
478.071	40.85
478.196	31.85
478.321	16.85
478.445	2.85
478.57	2.85
478.695	5.85
478.82	25.85
478.945	35.85
479.069	13.85
479.194	4.85
479.319	28.85
479.444	11.85
479.569	18.85
479.693	11.85
479.818	7.85
479.943	24.85
480.068	16.85
480.192	7.85
480.317	9.85
480.442	14.85
480.567	5.85
480.691	6.85
480.816	16.85
480.941	-0.15
481.066	11.85
481.19	28.85
481.315	23.85
481.44	13.85
481.564	2.85
481.689	25.85
481.814	23.85
481.938	22.85
482.063	9.85
482.188	24.85
482.313	57.85
482.437	19.85
482.562	22.85
482.687	26.85
482.811	14.85
482.936	34.85
483.061	27.85
483.185	40.85
483.31	36.85
483.435	19.85
483.559	27.85
483.684	11.85
483.808	46.85
483.933	15.85
484.058	2.85
484.182	22.85
484.307	21.85
484.432	13.85
484.556	24.85
484.681	18.85
484.805	21.85
484.93	24.85
485.055	42.85
485.179	92.85
485.304	120.85
485.428	360.85
485.553	1240.85
485.678	1766.85
485.802	1637.85
485.927	1821.85
486.051	2700.85
486.176	1658.85
486.3	464.85
486.425	167.85
486.549	98.85
486.674	57.85
486.799	48.85
486.923	26.85
487.048	30.85
487.172	23.85
487.297	34.85
487.421	29.85
487.546	4.85
487.67	25.85
487.795	22.85
487.919	24.85
488.044	37.85
488.168	37.85
488.293	4.85
488.417	19.85
488.542	33.85
488.666	8.85
488.791	39.85
488.915	15.85
489.04	12.85
489.164	37.85
489.289	44.85
489.413	12.85
489.538	15.85
489.662	40.85
489.786	19.85
489.911	20.85
490.035	12.85
490.16	-3.15
490.284	10.85
490.409	5.85
490.533	15.85
490.658	26.85
490.782	18.85
490.906	28.85
491.031	-8.15
491.155	22.85
491.28	28.85
491.404	24.85
491.528	35.85
491.653	32.85
491.777	36.85
491.902	13.85
492.026	26.85
492.15	19.85
492.275	34.85
492.399	34.85
492.524	11.85
492.648	36.85
492.772	32.85
492.897	28.85
493.021	20.85
493.145	29.85
493.27	35.85
493.394	19.85
493.518	10.85
493.643	11.85
493.767	29.85
493.891	0.85
494.016	3.85
494.14	12.85
494.264	9.85
494.389	30.85
494.513	22.85
494.637	7.85
494.762	25.85
494.886	15.85
495.01	13.85
495.134	24.85
495.259	43.85
495.383	19.85
495.507	3.85
495.632	34.85
495.756	25.85
495.88	21.85
496.004	9.85
496.129	17.85
496.253	19.85
496.377	18.85
496.501	42.85
496.626	12.85
496.75	44.85
496.874	26.85
496.998	3.85
497.123	20.85
497.247	14.85
497.371	16.85
497.495	15.85
497.62	30.85
497.744	-0.15
497.868	18.85
497.992	21.85
498.116	12.85
498.241	16.85
498.365	14.85
498.489	-2.15
498.613	36.85
498.737	18.85
498.862	6.85
498.986	2.85
499.11	22.85
499.234	10.85
499.358	14.85
499.482	-4.15
499.607	12.85
499.731	16.85
499.855	27.85
499.979	15.85
500.103	9.85
500.227	10.85
500.351	28.85
500.476	4.85
500.6	8.85
500.724	0.85
500.848	15.85
500.972	13.85
501.096	16.85
501.22	21.85
501.344	12.85
501.469	8.85
501.593	14.85
501.717	16.85
501.841	23.85
501.965	25.85
502.089	9.85
502.213	2.85
502.337	0.85
502.461	8.85
502.585	18.85
502.709	16.85
502.834	6.85
502.958	11.85
503.082	11.85
503.206	9.85
503.33	31.85
503.454	32.85
503.578	23.85
503.702	22.85
503.826	19.85
503.95	35.85
504.074	20.85
504.198	22.85
504.322	4.85
504.446	-1.15
504.57	18.85
504.694	13.85
504.818	25.85
504.942	40.85
505.066	14.85
505.19	14.85
505.314	14.85
505.438	21.85
505.562	7.85
505.686	27.85
505.81	-4.15
505.934	29.85
506.058	-0.15
506.182	3.85
506.306	5.85
506.43	8.85
506.554	31.85
506.678	15.85
506.802	12.85
506.926	12.85
507.05	25.85
507.174	44.85
507.298	26.85
507.422	2.85
507.546	20.85
507.67	15.85
507.794	-11.15
507.918	16.85
508.042	7.85
508.165	5.85
508.289	6.85
508.413	13.85
508.537	19.85
508.661	16.85
508.785	12.85
508.909	15.85
509.033	10.85
509.157	2.85
509.281	-5.15
509.405	14.85
509.528	13.85
509.652	7.85
509.776	6.85
509.9	39.85
510.024	12.85
510.148	20.85
510.272	33.85
510.396	28.85
510.519	7.85
510.643	22.85
510.767	3.85
510.891	23.85
511.015	12.85
511.139	29.85
511.263	25.85
511.386	3.85
511.51	32.85
511.634	26.85
511.758	2.85
511.882	7.85
512.006	30.85
512.129	34.85
512.253	42.85
512.377	27.85
512.501	18.85
512.625	29.85
512.748	12.85
512.872	18.85
512.996	23.85
513.12	11.85
513.244	6.85
513.367	18.85
513.491	7.85
513.615	20.85
513.739	10.85
513.862	20.85
513.986	9.85
514.11	23.85
514.234	12.85
514.358	30.85
514.481	29.85
514.605	28.85
514.729	31.85
514.853	14.85
514.976	11.85
515.1	15.85
515.224	21.85
515.348	18.85
515.471	9.85
515.595	19.85
515.719	0.85
515.842	18.85
515.966	-0.15
516.09	28.85
516.214	18.85
516.337	49.85
516.461	46.85
516.585	44.85
516.708	16.85
516.832	20.85
516.956	22.85
517.08	22.85
517.203	-3.15
517.327	15.85
517.451	32.85
517.574	34.85
517.698	19.85
517.822	21.85
517.945	29.85
518.069	54.85
518.193	47.85
518.316	30.85
518.44	24.85
518.564	21.85
518.687	19.85
518.811	22.85
518.935	38.85
519.058	10.85
519.182	27.85
519.306	53.85
519.429	24.85
519.553	71.85
519.676	40.85
519.8	25.85
519.924	10.85
520.047	20.85
520.171	11.85
520.294	17.85
520.418	6.85
520.542	19.85
520.665	38.85
520.789	6.85
520.913	5.85
521.036	6.85
521.16	-1.15
521.283	3.85
521.407	4.85
521.53	1.85
521.654	11.85
521.778	31.85
521.901	5.85
522.025	2.85
522.148	8.85
522.272	31.85
522.395	11.85
522.519	10.85
522.643	5.85
522.766	7.85
522.89	18.85
523.013	32.85
523.137	-3.15
523.26	21.85
523.384	23.85
523.507	21.85
523.631	18.85
523.754	7.85
523.878	4.85
524.002	24.85
524.125	10.85
524.249	4.85
524.372	5.85
524.496	17.85
524.619	15.85
524.743	16.85
524.866	26.85
524.99	26.85
525.113	12.85
525.237	21.85
525.36	9.85
525.484	13.85
525.607	11.85
525.731	6.85
525.854	17.85
525.978	38.85
526.101	26.85
526.224	-7.15
526.348	12.85
526.471	0.85
526.595	32.85
526.718	17.85
526.842	16.85
526.965	31.85
527.089	10.85
527.212	12.85
527.336	15.85
527.459	11.85
527.582	12.85
527.706	29.85
527.829	3.85
527.953	22.85
528.076	-3.15
528.2	11.85
528.323	4.85
528.446	36.85
528.57	8.85
528.693	26.85
528.817	11.85
528.94	7.85
529.064	33.85
529.187	19.85
529.31	5.85
529.434	4.85
529.557	0.85
529.68	16.85
529.804	3.85
529.927	-3.15
530.051	-11.15
530.174	8.85
530.297	3.85
530.421	24.85
530.544	22.85
530.668	33.85
530.791	15.85
530.914	19.85
531.038	15.85
531.161	8.85
531.284	3.85
531.408	12.85
531.531	13.85
531.654	4.85
531.778	17.85
531.901	0.85
532.024	16.85
532.148	6.85
532.271	11.85
532.394	16.85
532.518	26.85
532.641	27.85
532.764	30.85
532.888	20.85
533.011	-5.15
533.134	26.85
533.258	40.85
533.381	8.85
533.504	8.85
533.628	8.85
533.751	21.85
533.874	7.85
533.997	20.85
534.121	-0.15
534.244	17.85
534.367	28.85
534.491	19.85
534.614	11.85
534.737	19.85
534.86	20.85
534.984	14.85
535.107	8.85
535.23	8.85
535.354	8.85
535.477	1.85
535.6	7.85
535.723	16.85
535.847	15.85
535.97	7.85
536.093	23.85
536.216	-5.15
536.34	27.85
536.463	3.85
536.586	24.85
536.709	10.85
536.833	16.85
536.956	16.85
537.079	5.85
537.202	27.85
537.325	19.85
537.449	3.85
537.572	8.85
537.695	3.85
537.818	9.85
537.941	-0.15
538.065	2.85
538.188	0.85
538.311	30.85
538.434	3.85
538.558	17.85
538.681	22.85
538.804	23.85
538.927	14.85
539.05	16.85
539.173	-4.15
539.297	-3.15
539.42	14.85
539.543	29.85
539.666	21.85
539.789	12.85
539.913	3.85
540.036	32.85
540.159	30.85
540.282	-8.15
540.405	3.85
540.528	14.85
540.651	21.85
540.775	14.85
540.898	15.85
541.021	10.85
541.144	16.85
541.267	13.85
541.39	21.85
541.513	32.85
541.637	-15.15
541.76	12.85
541.883	14.85
542.006	16.85
542.129	21.85
542.252	3.85
542.375	11.85
542.498	18.85
542.622	21.85
542.745	32.85
542.868	10.85
542.991	28.85
543.114	14.85
543.237	28.85
543.36	18.85
543.483	18.85
543.606	19.85
543.73	23.85
543.853	-12.15
543.976	14.85
544.099	17.85
544.222	17.85
544.345	12.85
544.468	3.85
544.591	17.85
544.714	8.85
544.837	20.85
544.96	22.85
545.083	29.85
545.206	24.85
545.329	16.85
545.453	9.85
545.576	23.85
545.699	12.85
545.822	0.85
545.945	21.85
546.068	-6.15
546.191	13.85
546.314	8.85
546.437	18.85
546.56	15.85
546.683	12.85
546.806	11.85
546.929	10.85
547.052	17.85
547.175	-2.15
547.298	22.85
547.421	13.85
547.544	10.85
547.667	14.85
547.79	4.85
547.913	5.85
548.036	5.85
548.159	17.85
548.282	26.85
548.405	7.85
548.528	28.85
548.651	14.85
548.774	12.85
548.897	18.85
549.02	26.85
549.143	30.85
549.266	10.85
549.389	30.85
549.512	4.85
549.635	19.85
549.758	22.85
549.881	-0.15
550.004	2.85
550.127	6.85
550.25	-3.15
550.373	-4.15
550.496	15.85
550.619	1.85
550.742	-8.15
550.865	-1.15
550.988	-9.15
551.111	23.85
551.234	21.85
551.356	-4.15
551.479	-17.15
551.602	17.85
551.725	19.85
551.848	25.85
551.971	17.85
552.094	8.85
552.217	9.85
552.34	0.85
552.463	3.85
552.586	17.85
552.709	-2.15
552.832	16.85
552.955	12.85
553.077	24.85
553.2	19.85
553.323	26.85
553.446	22.85
553.569	-8.15
553.692	13.85
553.815	20.85
553.938	27.85
554.061	37.85
554.184	9.85
554.306	-0.15
554.429	-0.15
554.552	9.85
554.675	-1.15
554.798	9.85
554.921	18.85
555.044	15.85
555.167	14.85
555.29	11.85
555.412	19.85
555.535	13.85
555.658	9.85
555.781	26.85
555.904	5.85
556.027	26.85
556.15	14.85
556.272	1.85
556.395	17.85
556.518	-12.15
556.641	7.85
556.764	15.85
556.887	25.85
557.01	-8.15
557.132	-5.15
557.255	13.85
557.378	16.85
557.501	13.85
557.624	29.85
557.747	27.85
557.869	19.85
557.992	25.85
558.115	24.85
558.238	7.85
558.361	14.85
558.483	35.85
558.606	24.85
558.729	4.85
558.852	30.85
558.975	31.85
559.098	34.85
559.22	37.85
559.343	28.85
559.466	45.85
559.589	1.85
559.712	7.85
559.834	27.85
559.957	4.85
560.08	22.85
560.203	34.85
560.325	35.85
560.448	39.85
560.571	22.85
560.694	3.85
560.817	19.85
560.939	12.85
561.062	-3.15
561.185	6.85
561.308	16.85
561.43	14.85
561.553	25.85
561.676	26.85
561.799	-5.15
561.921	12.85
562.044	4.85
562.167	14.85
562.29	47.85
562.413	31.85
562.535	23.85
562.658	9.85
562.781	-9.15
562.903	12.85
563.026	15.85
563.149	18.85
563.272	-3.15
563.394	14.85
563.517	5.85
563.64	0.85
563.763	3.85
563.885	27.85
564.008	40.85
564.131	14.85
564.254	0.85
564.376	9.85
564.499	9.85
564.622	7.85
564.744	14.85
564.867	15.85
564.99	20.85
565.113	21.85
565.235	12.85
565.358	-2.15
565.481	-9.15
565.603	-2.15
565.726	6.85
565.849	26.85
565.971	27.85
566.094	-0.15
566.217	19.85
566.34	6.85
566.462	8.85
566.585	14.85
566.708	20.85
566.83	15.85
566.953	28.85
567.076	4.85
567.198	17.85
567.321	-5.15
567.444	15.85
567.566	2.85
567.689	6.85
567.812	3.85
567.934	28.85
568.057	5.85
568.18	4.85
568.302	-0.15
568.425	11.85
568.548	7.85
568.67	9.85
568.793	10.85
568.916	1.85
569.038	8.85
569.161	0.85
569.283	17.85
569.406	19.85
569.529	13.85
569.651	0.85
569.774	-5.15
569.897	-4.15
570.019	17.85
570.142	28.85
570.265	9.85
570.387	15.85
570.51	20.85
570.632	22.85
570.755	14.85
570.878	5.85
571	24.85
571.123	11.85
571.246	26.85
571.368	1.85
571.491	9.85
571.613	-4.15
571.736	-22.15
571.859	13.85
571.981	3.85
572.104	9.85
572.226	15.85
572.349	7.85
572.472	20.85
572.594	14.85
572.717	2.85
572.839	-5.15
572.962	17.85
573.085	22.85
573.207	17.85
573.33	28.85
573.452	28.85
573.575	35.85
573.697	18.85
573.82	-0.15
573.943	-4.15
574.065	13.85
574.188	4.85
574.31	26.85
574.433	31.85
574.555	23.85
574.678	2.85
574.801	11.85
574.923	18.85
575.046	-9.15
575.168	4.85
575.291	9.85
575.413	6.85
575.536	8.85
575.659	10.85
575.781	0.85
575.904	7.85
576.026	15.85
576.149	13.85
576.271	2.85
576.394	15.85
576.516	6.85
576.639	23.85
576.761	9.85
576.884	5.85
577.007	0.85
577.129	15.85
577.252	23.85
577.374	30.85
577.497	19.85
577.619	20.85
577.742	14.85
577.864	18.85
577.987	11.85
578.109	27.85
578.232	2.85
578.354	32.85
578.477	14.85
578.599	3.85
578.722	-1.15
578.844	5.85
578.967	12.85
579.089	23.85
579.212	-6.15
579.334	25.85
579.457	6.85
579.579	19.85
579.702	-1.15
579.824	13.85
579.947	-4.15
580.069	6.85
580.192	15.85
580.314	27.85
580.437	13.85
580.559	60.85
580.682	11.85
580.804	19.85
580.927	17.85
581.049	45.85
581.172	2.85
581.294	22.85
581.417	28.85
581.539	14.85
581.662	9.85
581.784	17.85
581.907	6.85
582.029	6.85
582.152	0.85
582.274	24.85
582.396	20.85
582.519	16.85
582.641	-8.15
582.764	15.85
582.886	22.85
583.009	4.85
583.131	11.85
583.254	16.85
583.376	28.85
583.499	21.85
583.621	19.85
583.743	35.85
583.866	18.85
583.988	23.85
584.111	25.85
584.233	34.85
584.356	28.85
584.478	12.85
584.601	-13.15
584.723	2.85
584.845	28.85
584.968	21.85
585.09	13.85
585.213	23.85
585.335	2.85
585.458	6.85
585.58	23.85
585.702	31.85
585.825	26.85
585.947	21.85
586.07	1.85
586.192	4.85
586.315	27.85
586.437	3.85
586.559	5.85
586.682	2.85
586.804	26.85
586.927	19.85
587.049	9.85
587.171	11.85
587.294	10.85
587.416	30.85
587.539	13.85
587.661	8.85
587.783	-2.15
587.906	4.85
588.028	15.85
588.151	16.85
588.273	27.85
588.395	0.85
588.518	6.85
588.64	9.85
588.763	37.85
588.885	19.85
589.007	30.85
589.13	22.85
589.252	-3.15
589.375	12.85
589.497	5.85
589.619	13.85
589.742	20.85
589.864	22.85
589.986	-5.15
590.109	15.85
590.231	6.85
590.354	19.85
590.476	6.85
590.598	3.85
590.721	-4.15
590.843	16.85
590.965	26.85
591.088	11.85
591.21	-0.15
591.332	8.85
591.455	-3.15
591.577	14.85
591.7	13.85
591.822	25.85
591.944	24.85
592.067	18.85
592.189	14.85
592.311	34.85
592.434	11.85
592.556	23.85
592.678	16.85
592.801	17.85
592.923	25.85
593.045	0.85
593.168	12.85
593.29	7.85
593.412	19.85
593.535	3.85
593.657	7.85
593.779	15.85
593.902	18.85
594.024	29.85
594.146	26.85
594.269	31.85
594.391	6.85
594.513	19.85
594.636	16.85
594.758	1.85
594.88	21.85
595.003	28.85
595.125	6.85
595.247	37.85
595.37	19.85
595.492	13.85
595.614	24.85
595.737	9.85
595.859	6.85
595.981	-3.15
596.104	38.85
596.226	7.85
596.348	-1.15
596.471	-11.15
596.593	25.85
596.715	9.85
596.838	12.85
596.96	-11.15
597.082	9.85
597.204	9.85
597.327	11.85
597.449	0.85
597.571	19.85
597.694	36.85
597.816	24.85
597.938	14.85
598.061	6.85
598.183	-12.15
598.305	23.85
598.427	22.85
598.55	17.85
598.672	16.85
598.794	7.85
598.917	-1.15
599.039	23.85
599.161	9.85
599.283	7.85
599.406	3.85
599.528	31.85
599.65	27.85
599.773	29.85
599.895	46.85
600.017	25.85
600.139	26.85
600.262	7.85
600.384	1.85
600.506	14.85
600.628	29.85
600.751	22.85
600.873	25.85
600.995	12.85
601.118	5.85
601.24	-2.15
601.362	31.85
601.484	19.85
601.607	24.85
601.729	14.85
601.851	11.85
601.973	5.85
602.096	27.85
602.218	22.85
602.34	20.85
602.462	25.85
602.585	13.85
602.707	10.85
602.829	15.85
602.951	7.85
603.074	-5.15
603.196	9.85
603.318	-4.15
603.44	17.85
603.563	18.85
603.685	7.85
603.807	11.85
603.929	13.85
604.052	12.85
604.174	18.85
604.296	25.85
604.418	17.85
604.541	22.85
604.663	6.85
604.785	27.85
604.907	22.85
605.03	8.85
605.152	31.85
605.274	10.85
605.396	16.85
605.519	19.85
605.641	3.85
605.763	12.85
605.885	24.85
606.008	11.85
606.13	3.85
606.252	18.85
606.374	2.85
606.496	6.85
606.619	7.85
606.741	-9.15
606.863	8.85
606.985	38.85
607.108	19.85
607.23	3.85
607.352	15.85
607.474	-1.15
607.596	6.85
607.719	11.85
607.841	22.85
607.963	16.85
608.085	18.85
608.207	42.85
608.33	10.85
608.452	11.85
608.574	4.85
608.696	18.85
608.819	18.85
608.941	7.85
609.063	7.85
609.185	26.85
609.307	22.85
609.43	29.85
609.552	21.85
609.674	2.85
609.796	7.85
609.918	16.85
610.041	14.85
610.163	7.85
610.285	9.85
610.407	12.85
610.529	-8.15
610.652	12.85
610.774	21.85
610.896	16.85
611.018	8.85
611.14	18.85
611.263	9.85
611.385	7.85
611.507	29.85
611.629	-8.15
611.751	18.85
611.873	40.85
611.996	14.85
612.118	34.85
612.24	15.85
612.362	26.85
612.484	21.85
612.607	2.85
612.729	23.85
612.851	3.85
612.973	-11.15
613.095	-8.15
613.218	6.85
613.34	26.85
613.462	27.85
613.584	8.85
613.706	19.85
613.828	22.85
613.951	25.85
614.073	3.85
614.195	4.85
614.317	31.85
614.439	20.85
614.561	22.85
614.684	10.85
614.806	14.85
614.928	8.85
615.05	19.85
615.172	22.85
615.294	20.85
615.417	20.85
615.539	11.85
615.661	7.85
615.783	24.85
615.905	22.85
616.027	76.85
616.15	118.85
616.272	93.85
616.394	62.85
616.516	39.85
616.638	30.85
616.76	28.85
616.883	26.85
617.005	6.85
617.127	18.85
617.249	7.85
617.371	19.85
617.493	20.85
617.615	24.85
617.738	23.85
617.86	24.85
617.982	28.85
618.104	10.85
618.226	-0.15
618.348	-0.15
618.471	16.85
618.593	24.85
618.715	7.85
618.837	9.85
618.959	14.85
619.081	23.85
619.203	18.85
619.326	-3.15
619.448	19.85
619.57	22.85
619.692	17.85
619.814	5.85
619.936	13.85
620.058	28.85
620.181	18.85
620.303	17.85
620.425	24.85
620.547	12.85
620.669	-3.15
620.791	7.85
620.913	-1.15
621.036	8.85
621.158	0.85
621.28	28.85
621.402	4.85
621.524	6.85
621.646	17.85
621.768	-2.15
621.891	-8.15
622.013	14.85
622.135	-8.15
622.257	0.85
622.379	5.85
622.501	8.85
622.623	21.85
622.745	16.85
622.868	7.85
622.99	23.85
623.112	15.85
623.234	6.85
623.356	30.85
623.478	11.85
623.6	16.85
623.722	14.85
623.845	20.85
623.967	7.85
624.089	15.85
624.211	13.85
624.333	8.85
624.455	9.85
624.577	9.85
624.699	7.85
624.822	17.85
624.944	4.85
625.066	4.85
625.188	-1.15
625.31	0.85
625.432	19.85
625.554	13.85
625.676	26.85
625.799	9.85
625.921	24.85
626.043	32.85
626.165	9.85
626.287	5.85
626.409	14.85
626.531	7.85
626.653	0.85
626.775	26.85
626.898	25.85
627.02	32.85
627.142	43.85
627.264	29.85
627.386	-2.15
627.508	3.85
627.63	6.85
627.752	16.85
627.874	8.85
627.997	16.85
628.119	39.85
628.241	27.85
628.363	34.85
628.485	28.85
628.607	22.85
628.729	5.85
628.851	16.85
628.973	12.85
629.096	6.85
629.218	6.85
629.34	6.85
629.462	-11.15
629.584	-0.15
629.706	18.85
629.828	16.85
629.95	17.85
630.072	7.85
630.195	8.85
630.317	12.85
630.439	-3.15
630.561	20.85
630.683	7.85
630.805	36.85
630.927	16.85
631.049	16.85
631.171	11.85
631.293	15.85
631.416	22.85
631.538	14.85
631.66	25.85
631.782	18.85
631.904	26.85
632.026	12.85
632.148	5.85
632.27	0.85
632.392	20.85
632.514	19.85
632.637	14.85
632.759	16.85
632.881	-9.15
633.003	14.85
633.125	-2.15
633.247	-1.15
633.369	12.85
633.491	3.85
633.613	11.85
633.735	8.85
633.858	21.85
633.98	4.85
634.102	10.85
634.224	7.85
634.346	19.85
634.468	20.85
634.59	17.85
634.712	15.85
634.834	25.85
634.956	13.85
635.078	-1.15
635.201	2.85
635.323	15.85
635.445	2.85
635.567	-5.15
635.689	31.85
635.811	13.85
635.933	15.85
636.055	11.85
636.177	23.85
636.299	26.85
636.421	0.85
636.544	-3.15
636.666	11.85
636.788	27.85
636.91	32.85
637.032	2.85
637.154	19.85
637.276	29.85
637.398	39.85
637.52	19.85
637.642	4.85
637.764	12.85
637.887	5.85
638.009	16.85
638.131	7.85
638.253	4.85
638.375	16.85
638.497	20.85
638.619	-10.15
638.741	11.85
638.863	-11.15
638.985	-7.15
639.107	11.85
639.23	3.85
639.352	19.85
639.474	6.85
639.596	18.85
639.718	5.85
639.84	5.85
639.962	13.85
640.084	39.85
640.206	23.85
640.328	7.85
640.45	20.85
640.573	9.85
640.695	18.85
640.817	-2.15
640.939	43.85
641.061	14.85
641.183	2.85
641.305	8.85
641.427	-8.15
641.549	-15.15
641.671	17.85
641.793	11.85
641.915	17.85
642.038	27.85
642.16	24.85
642.282	-5.15
642.404	-9.15
642.526	16.85
642.648	2.85
642.77	15.85
642.892	12.85
643.014	23.85
643.136	14.85
643.258	18.85
643.381	24.85
643.503	34.85
643.625	21.85
643.747	-8.15
643.869	-4.15
643.991	24.85
644.113	19.85
644.235	8.85
644.357	16.85
644.479	11.85
644.601	13.85
644.723	-3.15
644.846	-0.15
644.968	19.85
645.09	-1.15
645.212	-0.15
645.334	21.85
645.456	24.85
645.578	10.85
645.7	22.85
645.822	23.85
645.944	17.85
646.066	-3.15
646.188	3.85
646.311	42.85
646.433	8.85
646.555	52.85
646.677	58.85
646.799	32.85
646.921	26.85
647.043	43.85
647.165	11.85
647.287	2.85
647.409	16.85
647.531	22.85
647.654	-24.15
647.776	18.85
647.898	24.85
648.02	16.85
648.142	8.85
648.264	10.85
648.386	8.85
648.508	6.85
648.63	8.85
648.752	16.85
648.874	1.85
648.997	19.85
649.119	38.85
649.241	11.85
649.363	22.85
649.485	14.85
649.607	0.85
649.729	8.85
649.851	21.85
649.973	14.85
650.095	17.85
650.217	9.85
650.34	8.85
650.462	1.85
650.584	12.85
650.706	15.85
650.828	18.85
650.95	4.85
651.072	6.85
651.194	10.85
651.316	6.85
651.438	19.85
651.56	5.85
651.683	0.85
651.805	12.85
651.927	6.85
652.049	-12.15
652.171	-0.15
652.293	6.85
652.415	-15.15
652.537	0.85
652.659	-0.15
652.781	18.85
652.903	23.85
653.026	23.85
653.148	10.85
653.27	15.85
653.392	28.85
653.514	11.85
653.636	11.85
653.758	15.85
653.88	12.85
654.002	11.85
654.124	12.85
654.247	-3.15
654.369	-0.15
654.491	13.85
654.613	19.85
654.735	12.85
654.857	25.85
654.979	8.85
655.101	46.85
655.223	61.85
655.345	30.85
655.468	38.85
655.59	30.85
655.712	43.85
655.834	27.85
655.956	27.85
656.078	42.85
656.2	48.85
656.322	37.85
656.444	11.85
656.566	60.85
656.689	53.85
656.811	55.85
656.933	103.85
657.055	105.85
657.177	160.85
657.299	245.85
657.421	502.85
657.543	1879.85
657.665	12618.85
657.787	15179.85
657.91	15302.85
658.032	15665.85
658.154	4677.85
658.276	3788.85
658.398	1224.85
658.52	1041.85
658.642	502.85
658.764	606.85
658.886	288.85
659.009	421.85
659.131	224.85
659.253	331.85
659.375	175.85
659.497	238.85
659.619	134.85
659.741	201.85
659.863	96.85
659.985	167.85
660.108	82.85
660.23	142.85
660.352	100.85
660.474	165.85
660.596	88.85
660.718	129.85
660.84	68.85
660.962	126.85
661.084	56.85
661.207	103.85
661.329	58.85
661.451	91.85
661.573	64.85
661.695	107.85
661.817	62.85
661.939	85.85
662.061	50.85
662.184	82.85
662.306	51.85
662.428	95.85
662.55	62.85
662.672	73.85
662.794	44.85
662.916	68.85
663.038	34.85
663.161	70.85
663.283	68.85
663.405	79.85
663.527	52.85
663.649	76.85
663.771	22.85
663.893	58.85
664.015	28.85
664.138	62.85
664.26	30.85
664.382	69.85
664.504	21.85
664.626	29.85
664.748	10.85
664.87	35.85
664.992	28.85
665.115	52.85
665.237	33.85
665.359	26.85
665.481	27.85
665.603	52.85
665.725	17.85
665.847	26.85
665.97	27.85
666.092	40.85
666.214	31.85
666.336	36.85
666.458	19.85
666.58	34.85
666.702	0.85
666.825	24.85
666.947	12.85
667.069	29.85
667.191	25.85
667.313	48.85
667.435	9.85
667.557	25.85
667.68	3.85
667.802	47.85
667.924	26.85
668.046	47.85
668.168	36.85
668.29	41.85
668.412	18.85
668.535	63.85
668.657	21.85
668.779	20.85
668.901	12.85
669.023	27.85
669.145	38.85
669.267	37.85
669.39	19.85
669.512	38.85
669.634	12.85
669.756	18.85
669.878	21.85
670	35.85
670.123	12.85
670.245	45.85
670.367	11.85
670.489	34.85
670.611	18.85
670.733	12.85
670.856	15.85
670.978	34.85
671.1	16.85
671.222	25.85
671.344	34.85
671.466	14.85
671.589	-4.15
671.711	28.85
671.833	10.85
671.955	37.85
672.077	0.85
672.199	50.85
672.322	50.85
672.444	31.85
672.566	23.85
672.688	34.85
672.81	22.85
672.932	32.85
673.055	15.85
673.177	5.85
673.299	23.85
673.421	16.85
673.543	13.85
673.665	42.85
673.788	13.85
673.91	6.85
674.032	-10.15
674.154	-0.15
674.276	18.85
674.399	11.85
674.521	10.85
674.643	19.85
674.765	11.85
674.887	8.85
675.009	7.85
675.132	9.85
675.254	12.85
675.376	16.85
675.498	20.85
675.62	28.85
675.743	16.85
675.865	23.85
675.987	-3.15
676.109	22.85
676.231	16.85
676.354	50.85
676.476	8.85
676.598	22.85
676.72	19.85
676.842	28.85
676.965	12.85
677.087	24.85
677.209	30.85
677.331	32.85
677.453	-0.15
677.576	20.85
677.698	5.85
677.82	8.85
677.942	2.85
678.064	14.85
678.187	10.85
678.309	25.85
678.431	3.85
678.553	4.85
678.675	29.85
678.798	30.85
678.92	26.85
679.042	15.85
679.164	-4.15
679.286	25.85
679.409	3.85
679.531	9.85
679.653	11.85
679.775	6.85
679.898	-9.15
680.02	-7.15
680.142	3.85
680.264	20.85
680.386	15.85
680.509	22.85
680.631	13.85
680.753	15.85
680.875	3.85
680.998	19.85
681.12	15.85
681.242	23.85
681.364	6.85
681.486	8.85
681.609	-4.15
681.731	5.85
681.853	-4.15
681.975	11.85
682.098	19.85
682.22	51.85
682.342	14.85
682.464	16.85
682.587	11.85
682.709	8.85
682.831	-7.15
682.953	18.85
683.076	23.85
683.198	9.85
683.32	6.85
683.442	18.85
683.565	16.85
683.687	7.85
683.809	-3.15
683.931	8.85
684.054	26.85
684.176	6.85
684.298	6.85
684.42	22.85
684.543	4.85
684.665	15.85
684.787	9.85
684.909	4.85
685.032	18.85
685.154	8.85
685.276	16.85
685.398	10.85
685.521	3.85
685.643	24.85
685.765	16.85
685.887	9.85
686.01	6.85
686.132	19.85
686.254	3.85
686.377	18.85
686.499	17.85
686.621	9.85
686.743	2.85
686.866	-0.15
686.988	27.85
687.11	29.85
687.232	14.85
687.355	6.85
687.477	-8.15
687.599	6.85
687.722	4.85
687.844	24.85
687.966	13.85
688.088	14.85
688.211	35.85
688.333	28.85
688.455	-1.15
688.578	21.85
688.7	26.85
688.822	9.85
688.944	-6.15
689.067	38.85
689.189	19.85
689.311	8.85
689.434	-2.15
689.556	10.85
689.678	30.85
689.801	2.85
689.923	11.85
690.045	39.85
690.167	18.85
690.29	5.85
690.412	-0.15
690.534	14.85
690.657	5.85
690.779	22.85
690.901	34.85
691.024	14.85
691.146	2.85
691.268	10.85
691.391	10.85
691.513	4.85
691.635	11.85
691.758	25.85
691.88	14.85
692.002	12.85
692.125	-5.15
692.247	6.85
692.369	6.85
692.492	16.85
692.614	6.85
692.736	3.85
692.859	-3.15
692.981	6.85
693.103	10.85
693.226	15.85
693.348	27.85
693.47	24.85
693.593	6.85
693.715	6.85
693.837	2.85
693.96	-11.15
694.082	-8.15
694.204	6.85
694.327	6.85
694.449	10.85
694.571	20.85
694.694	32.85
694.816	20.85
694.938	13.85
695.061	20.85
695.183	16.85
695.305	6.85
695.428	27.85
695.55	6.85
695.672	-5.15
695.795	12.85
695.917	30.85
696.04	0.85
696.162	7.85
696.284	8.85
696.407	25.85
696.529	0.85
696.651	29.85
696.774	-12.15
696.896	23.85
697.019	11.85
697.141	27.85
697.263	8.85
697.386	-6.15
697.508	3.85
697.63	23.85
697.753	14.85
697.875	4.85
697.998	18.85
698.12	4.85
698.242	13.85
698.365	22.85
698.487	4.85
698.61	8.85
698.732	23.85
698.854	24.85
698.977	1.85
699.099	29.85
699.221	8.85
699.344	-3.15
699.466	7.85
699.589	11.85
699.711	-10.15
699.834	2.85
699.956	15.85
700.078	17.85
700.201	13.85
700.323	15.85
700.446	28.85
700.568	14.85
700.69	17.85
700.813	11.85
700.935	0.85
701.058	18.85
701.18	20.85
701.302	17.85
701.425	10.85
701.547	18.85
701.67	5.85
701.792	24.85
701.915	3.85
702.037	-1.15
702.159	10.85
702.282	10.85
702.404	4.85
702.527	16.85
702.649	39.85
702.772	19.85
702.894	11.85
703.017	11.85
703.139	24.85
703.261	27.85
703.384	26.85
703.506	-9.15
703.629	4.85
703.751	15.85
703.874	21.85
703.996	-17.15
704.119	7.85
704.241	19.85
704.364	-7.15
704.486	4.85
704.608	10.85
704.731	4.85
704.853	12.85
704.976	-0.15
705.098	28.85
705.221	17.85
705.343	6.85
705.466	25.85
705.588	7.85
705.711	1.85
705.833	23.85
705.956	7.85
706.078	21.85
706.201	20.85
706.323	-5.15
706.446	11.85
