Data from LowRes_H2_15_26_11_07_2024_HR4C61881__13__15-28-14-937.txt Node

Date: Thu Nov 07 15:28:14 EST 2024
User: crc00042
Spectrometer: HR4C6188
Trigger mode: 4
Integration Time (sec): 1.000000E-1
Scans to average: 1
Electric dark correction enabled: true
Nonlinearity correction enabled: false
Boxcar width: 0
XAxis mode: Wavelengths
Number of Pixels in Spectrum: 3648
>>>>>Begin Spectral Data<<<<<
245.66	-86.38
245.797	-86.38
245.934	-86.38
246.071	-92.38
246.208	11.62
246.344	-10.38
246.481	-7.38
246.618	-7.38
246.755	16.62
246.892	-21.38
247.029	-2.38
247.165	-13.38
247.302	20.62
247.439	13.62
247.576	19.62
247.713	-14.38
247.849	8.62
247.986	-2.38
248.123	11.62
248.26	5.62
248.396	11.62
248.533	-2.38
248.67	-3.38
248.806	5.62
248.943	-11.38
249.08	-6.38
249.216	3.62
249.353	-21.38
249.49	-11.38
249.626	-5.38
249.763	-12.38
249.9	-18.38
250.036	-7.38
250.173	11.62
250.309	-1.38
250.446	-11.38
250.582	-15.38
250.719	-18.38
250.856	-7.38
250.992	0.62
251.129	9.62
251.265	-11.38
251.402	-10.38
251.538	-8.38
251.675	-11.38
251.811	-0.38
251.948	-0.38
252.084	4.62
252.221	17.62
252.357	-9.38
252.493	14.62
252.63	-4.38
252.766	22.62
252.903	-7.38
253.039	-14.38
253.175	2.62
253.312	7.62
253.448	4.62
253.585	-15.38
253.721	9.62
253.857	6.62
253.994	-6.38
254.13	5.62
254.266	9.62
254.403	-1.38
254.539	-6.38
254.675	8.62
254.811	-14.38
254.948	-5.38
255.084	3.62
255.22	-20.38
255.356	-11.38
255.493	-13.38
255.629	-5.38
255.765	-3.38
255.901	7.62
256.037	0.62
256.174	-2.38
256.31	-35.38
256.446	-25.38
256.582	-6.38
256.718	7.62
256.854	37.62
256.991	-4.38
257.127	16.62
257.263	-18.38
257.399	-3.38
257.535	-13.38
257.671	-24.38
257.807	-19.38
257.943	-38.38
258.079	-37.38
258.215	-5.38
258.351	6.62
258.487	-17.38
258.623	21.62
258.759	6.62
258.895	-14.38
259.031	2.62
259.167	-28.38
259.303	6.62
259.439	4.62
259.575	11.62
259.711	-8.38
259.847	2.62
259.983	-7.38
260.119	-3.38
260.255	-21.38
260.391	-2.38
260.527	17.62
260.663	13.62
260.799	1.62
260.934	7.62
261.07	-1.38
261.206	-9.38
261.342	-30.38
261.478	-7.38
261.614	16.62
261.749	-3.38
261.885	6.62
262.021	6.62
262.157	-3.38
262.293	-5.38
262.428	-9.38
262.564	-6.38
262.7	10.62
262.836	-12.38
262.971	5.62
263.107	8.62
263.243	-5.38
263.378	2.62
263.514	-24.38
263.65	4.62
263.785	-15.38
263.921	-11.38
264.057	8.62
264.192	4.62
264.328	-0.38
264.464	-15.38
264.599	0.62
264.735	7.62
264.871	-30.38
265.006	-3.38
265.142	-14.38
265.277	-16.38
265.413	13.62
265.548	7.62
265.684	1.62
265.819	-21.38
265.955	-20.38
266.091	-7.38
266.226	-20.38
266.362	8.62
266.497	-7.38
266.633	-19.38
266.768	-2.38
266.903	3.62
267.039	14.62
267.174	29.62
267.31	2.62
267.445	-8.38
267.581	-9.38
267.716	-5.38
267.851	4.62
267.987	9.62
268.122	2.62
268.258	-5.38
268.393	-15.38
268.528	6.62
268.664	-19.38
268.799	-21.38
268.934	-16.38
269.07	-12.38
269.205	-0.38
269.34	21.62
269.476	-12.38
269.611	-29.38
269.746	-1.38
269.881	11.62
270.017	17.62
270.152	7.62
270.287	11.62
270.422	21.62
270.558	-17.38
270.693	-8.38
270.828	1.62
270.963	-13.38
271.098	-10.38
271.234	-14.38
271.369	20.62
271.504	-9.38
271.639	-16.38
271.774	-6.38
271.909	-11.38
272.045	-9.38
272.18	-18.38
272.315	-20.38
272.45	4.62
272.585	-19.38
272.72	-0.38
272.855	7.62
272.99	10.62
273.125	-19.38
273.26	-9.38
273.395	-22.38
273.53	-11.38
273.665	11.62
273.8	-6.38
273.935	-15.38
274.07	-8.38
274.205	-5.38
274.34	-1.38
274.475	1.62
274.61	17.62
274.745	1.62
274.88	7.62
275.015	-25.38
275.15	-3.38
275.285	-19.38
275.42	-8.38
275.555	17.62
275.69	-4.38
275.825	-3.38
275.959	-1.38
276.094	-13.38
276.229	-14.38
276.364	-9.38
276.499	0.62
276.634	-5.38
276.768	-14.38
276.903	-5.38
277.038	6.62
277.173	-1.38
277.308	-15.38
277.442	-17.38
277.577	-32.38
277.712	-23.38
277.847	-20.38
277.981	6.62
278.116	-28.38
278.251	-3.38
278.386	-21.38
278.52	-13.38
278.655	0.62
278.79	21.62
278.924	2.62
279.059	5.62
279.194	-20.38
279.328	31.62
279.463	5.62
279.598	24.62
279.732	8.62
279.867	-12.38
280.001	-8.38
280.136	-12.38
280.271	-3.38
280.405	6.62
280.54	-7.38
280.674	-12.38
280.809	15.62
280.943	-7.38
281.078	-11.38
281.213	-3.38
281.347	8.62
281.482	-1.38
281.616	9.62
281.751	-9.38
281.885	-19.38
282.02	-7.38
282.154	-4.38
282.288	-24.38
282.423	-20.38
282.557	-10.38
282.692	-5.38
282.826	-0.38
282.961	-1.38
283.095	5.62
283.229	1.62
283.364	-16.38
283.498	-9.38
283.633	-1.38
283.767	-7.38
283.901	-6.38
284.036	2.62
284.17	-3.38
284.304	-15.38
284.439	8.62
284.573	-5.38
284.707	3.62
284.842	-17.38
284.976	1.62
285.11	-32.38
285.244	-17.38
285.379	40.62
285.513	-10.38
285.647	-13.38
285.781	15.62
285.916	9.62
286.05	-11.38
286.184	25.62
286.318	17.62
286.453	-3.38
286.587	-16.38
286.721	-32.38
286.855	-13.38
286.989	10.62
287.123	3.62
287.258	-16.38
287.392	9.62
287.526	18.62
287.66	0.62
287.794	-19.38
287.928	-22.38
288.062	-11.38
288.196	0.62
288.33	-14.38
288.464	12.62
288.598	3.62
288.733	10.62
288.867	24.62
289.001	-16.38
289.135	-6.38
289.269	-10.38
289.403	-6.38
289.537	7.62
289.671	-7.38
289.805	-9.38
289.939	-1.38
290.073	-6.38
290.207	-5.38
290.34	-4.38
290.474	25.62
290.608	12.62
290.742	-10.38
290.876	-17.38
291.01	-11.38
291.144	7.62
291.278	13.62
291.412	-12.38
291.546	-10.38
291.679	-16.38
291.813	4.62
291.947	11.62
292.081	-5.38
292.215	-12.38
292.349	-6.38
292.482	-5.38
292.616	7.62
292.75	-4.38
292.884	0.62
293.018	-11.38
293.151	-21.38
293.285	1.62
293.419	-20.38
293.553	-2.38
293.686	-27.38
293.82	6.62
293.954	19.62
294.088	27.62
294.221	1.62
294.355	-4.38
294.489	-13.38
294.622	-1.38
294.756	-4.38
294.89	-3.38
295.023	5.62
295.157	15.62
295.291	1.62
295.424	-0.38
295.558	-10.38
295.691	-15.38
295.825	-4.38
295.959	-14.38
296.092	-1.38
296.226	-3.38
296.359	1.62
296.493	5.62
296.627	11.62
296.76	-13.38
296.894	-8.38
297.027	-8.38
297.161	-2.38
297.294	-11.38
297.428	-1.38
297.561	12.62
297.695	-12.38
297.828	-13.38
297.962	-10.38
298.095	-12.38
298.229	-4.38
298.362	-13.38
298.495	-28.38
298.629	-13.38
298.762	-9.38
298.896	-8.38
299.029	-29.38
299.162	-3.38
299.296	-2.38
299.429	-5.38
299.563	-7.38
299.696	-4.38
299.829	3.62
299.963	-13.38
300.096	12.62
300.229	-1.38
300.363	17.62
300.496	5.62
300.629	-26.38
300.763	-1.38
300.896	-19.38
301.029	-6.38
301.162	-5.38
301.296	-22.38
301.429	-11.38
301.562	-31.38
301.695	-12.38
301.829	3.62
301.962	13.62
302.095	-5.38
302.228	-10.38
302.362	-8.38
302.495	-13.38
302.628	-7.38
302.761	16.62
302.894	-9.38
303.027	-10.38
303.161	-10.38
303.294	-14.38
303.427	-5.38
303.56	0.62
303.693	-8.38
303.826	5.62
303.959	-15.38
304.092	-14.38
304.225	-9.38
304.359	-3.38
304.492	-5.38
304.625	-22.38
304.758	-11.38
304.891	-13.38
305.024	-4.38
305.157	-9.38
305.29	-17.38
305.423	-9.38
305.556	-4.38
305.689	22.62
305.822	-19.38
305.955	-10.38
306.088	-6.38
306.221	-8.38
306.354	-15.38
306.487	-16.38
306.62	-8.38
306.752	-14.38
306.885	6.62
307.018	-12.38
307.151	-5.38
307.284	-1.38
307.417	-8.38
307.55	12.62
307.683	-3.38
307.816	8.62
307.948	-9.38
308.081	2.62
308.214	16.62
308.347	14.62
308.48	-2.38
308.613	-17.38
308.745	-6.38
308.878	-15.38
309.011	-8.38
309.144	-5.38
309.277	-22.38
309.409	8.62
309.542	-10.38
309.675	-2.38
309.808	7.62
309.94	24.62
310.073	-7.38
310.206	0.62
310.339	4.62
310.471	-14.38
310.604	13.62
310.737	-5.38
310.869	-8.38
311.002	-6.38
311.135	-3.38
311.267	-21.38
311.4	-5.38
311.533	13.62
311.665	-8.38
311.798	-9.38
311.93	-0.38
312.063	8.62
312.196	-11.38
312.328	-2.38
312.461	-19.38
312.593	-7.38
312.726	23.62
312.859	7.62
312.991	-11.38
313.124	-27.38
313.256	1.62
313.389	1.62
313.521	-7.38
313.654	-17.38
313.786	-25.38
313.919	-10.38
314.051	-8.38
314.184	-4.38
314.316	-1.38
314.449	-32.38
314.581	-33.38
314.714	-4.38
314.846	-3.38
314.978	-3.38
315.111	-17.38
315.243	2.62
315.376	8.62
315.508	-6.38
315.641	-1.38
315.773	25.62
315.905	-6.38
316.038	6.62
316.17	-6.38
316.302	-5.38
316.435	-14.38
316.567	-10.38
316.699	35.62
316.832	-7.38
316.964	-17.38
317.096	-9.38
317.229	-6.38
317.361	-13.38
317.493	-5.38
317.625	-20.38
317.758	-13.38
317.89	10.62
318.022	-7.38
318.155	-18.38
318.287	4.62
318.419	2.62
318.551	13.62
318.683	-9.38
318.816	-18.38
318.948	-12.38
319.08	-10.38
319.212	-9.38
319.344	4.62
319.477	-5.38
319.609	0.62
319.741	11.62
319.873	7.62
320.005	4.62
320.137	-18.38
320.269	-11.38
320.401	-4.38
320.534	-16.38
320.666	-22.38
320.798	-8.38
320.93	-7.38
321.062	-9.38
321.194	-8.38
321.326	-4.38
321.458	21.62
321.59	-2.38
321.722	-19.38
321.854	-15.38
321.986	9.62
322.118	1.62
322.25	-8.38
322.382	-2.38
322.514	-15.38
322.646	-17.38
322.778	12.62
322.91	5.62
323.042	-2.38
323.174	7.62
323.306	-18.38
323.438	-17.38
323.57	5.62
323.702	0.62
323.834	-4.38
323.966	-20.38
324.097	17.62
324.229	-2.38
324.361	-0.38
324.493	-3.38
324.625	-12.38
324.757	2.62
324.889	-28.38
325.021	0.62
325.152	8.62
325.284	4.62
325.416	-4.38
325.548	9.62
325.68	-5.38
325.811	0.62
325.943	-17.38
326.075	7.62
326.207	0.62
326.339	0.62
326.47	0.62
326.602	1.62
326.734	16.62
326.866	18.62
326.997	-15.38
327.129	-18.38
327.261	-16.38
327.392	-13.38
327.524	-8.38
327.656	-18.38
327.787	-2.38
327.919	-6.38
328.051	-13.38
328.182	4.62
328.314	8.62
328.446	4.62
328.577	18.62
328.709	14.62
328.841	-18.38
328.972	-20.38
329.104	-5.38
329.235	-13.38
329.367	-1.38
329.499	-23.38
329.63	15.62
329.762	14.62
329.893	10.62
330.025	11.62
330.156	-7.38
330.288	0.62
330.419	-4.38
330.551	-1.38
330.683	6.62
330.814	-14.38
330.946	19.62
331.077	12.62
331.208	-11.38
331.34	6.62
331.471	-24.38
331.603	1.62
331.734	-25.38
331.866	9.62
331.997	-27.38
332.129	-10.38
332.26	-15.38
332.392	10.62
332.523	-3.38
332.654	-34.38
332.786	-5.38
332.917	-9.38
333.048	9.62
333.18	19.62
333.311	-1.38
333.443	-8.38
333.574	-9.38
333.705	1.62
333.837	-23.38
333.968	2.62
334.099	5.62
334.231	5.62
334.362	-3.38
334.493	10.62
334.624	-1.38
334.756	-5.38
334.887	18.62
335.018	-1.38
335.15	25.62
335.281	-13.38
335.412	9.62
335.543	20.62
335.675	-1.38
335.806	-3.38
335.937	-20.38
336.068	20.62
336.199	31.62
336.331	-10.38
336.462	-17.38
336.593	18.62
336.724	5.62
336.855	8.62
336.986	0.62
337.118	3.62
337.249	-8.38
337.38	2.62
337.511	-2.38
337.642	-3.38
337.773	-7.38
337.904	-2.38
338.035	-14.38
338.166	-13.38
338.298	7.62
338.429	4.62
338.56	15.62
338.691	11.62
338.822	8.62
338.953	13.62
339.084	7.62
339.215	11.62
339.346	-10.38
339.477	-1.38
339.608	11.62
339.739	13.62
339.87	1.62
340.001	-17.38
340.132	6.62
340.263	1.62
340.394	-5.38
340.525	2.62
340.656	-2.38
340.787	-18.38
340.918	31.62
341.049	8.62
341.179	0.62
341.31	3.62
341.441	11.62
341.572	8.62
341.703	7.62
341.834	-15.38
341.965	-2.38
342.096	-29.38
342.227	0.62
342.357	-2.38
342.488	1.62
342.619	1.62
342.75	-1.38
342.881	-19.38
343.012	15.62
343.142	22.62
343.273	1.62
343.404	10.62
343.535	32.62
343.666	17.62
343.796	2.62
343.927	7.62
344.058	7.62
344.189	12.62
344.319	17.62
344.45	14.62
344.581	-1.38
344.712	-23.38
344.842	-16.38
344.973	-3.38
345.104	-0.38
345.234	1.62
345.365	-17.38
345.496	-10.38
345.626	6.62
345.757	11.62
345.888	-13.38
346.018	3.62
346.149	9.62
346.28	25.62
346.41	-5.38
346.541	2.62
346.672	-4.38
346.802	14.62
346.933	-5.38
347.063	-5.38
347.194	-0.38
347.325	15.62
347.455	13.62
347.586	-11.38
347.716	-32.38
347.847	13.62
347.977	8.62
348.108	1.62
348.238	-6.38
348.369	-0.38
348.499	-5.38
348.63	6.62
348.76	-1.38
348.891	-5.38
349.021	8.62
349.152	1.62
349.282	-12.38
349.413	-25.38
349.543	-3.38
349.674	2.62
349.804	-2.38
349.935	-10.38
350.065	-10.38
350.196	-10.38
350.326	6.62
350.456	-6.38
350.587	17.62
350.717	-1.38
350.848	2.62
350.978	3.62
351.108	2.62
351.239	-5.38
351.369	-13.38
351.499	-14.38
351.63	0.62
351.76	-2.38
351.89	-9.38
352.021	-10.38
352.151	-23.38
352.281	0.62
352.412	-8.38
352.542	4.62
352.672	-6.38
352.803	-18.38
352.933	12.62
353.063	9.62
353.193	19.62
353.324	5.62
353.454	11.62
353.584	2.62
353.714	-3.38
353.845	-2.38
353.975	-5.38
354.105	-19.38
354.235	4.62
354.365	-10.38
354.496	-10.38
354.626	-11.38
354.756	9.62
354.886	-14.38
355.016	8.62
355.146	2.62
355.277	1.62
355.407	7.62
355.537	0.62
355.667	-2.38
355.797	-3.38
355.927	-0.38
356.057	13.62
356.187	-18.38
356.318	-7.38
356.448	-9.38
356.578	0.62
356.708	-16.38
356.838	14.62
356.968	-3.38
357.098	-1.38
357.228	-2.38
357.358	-10.38
357.488	-26.38
357.618	24.62
357.748	14.62
357.878	-0.38
358.008	-5.38
358.138	-15.38
358.268	-14.38
358.398	10.62
358.528	-30.38
358.658	-1.38
358.788	-15.38
358.918	2.62
359.048	6.62
359.178	3.62
359.308	-7.38
359.438	18.62
359.568	14.62
359.698	-9.38
359.827	-9.38
359.957	-2.38
360.087	-5.38
360.217	-16.38
360.347	-6.38
360.477	23.62
360.607	-16.38
360.737	18.62
360.866	-10.38
360.996	-21.38
361.126	-27.38
361.256	16.62
361.386	9.62
361.516	12.62
361.645	-7.38
361.775	8.62
361.905	-15.38
362.035	3.62
362.165	-12.38
362.294	-3.38
362.424	4.62
362.554	-0.38
362.684	-10.38
362.813	-0.38
362.943	5.62
363.073	-10.38
363.203	4.62
363.332	5.62
363.462	-14.38
363.592	-0.38
363.721	-0.38
363.851	7.62
363.981	4.62
364.111	-0.38
364.24	-10.38
364.37	14.62
364.5	26.62
364.629	12.62
364.759	-8.38
364.888	-11.38
365.018	-6.38
365.148	-5.38
365.277	-0.38
365.407	17.62
365.537	1.62
365.666	1.62
365.796	-17.38
365.925	1.62
366.055	0.62
366.184	-2.38
366.314	-2.38
366.444	-0.38
366.573	7.62
366.703	-2.38
366.832	-5.38
366.962	9.62
367.091	9.62
367.221	3.62
367.35	-8.38
367.48	44.62
367.609	13.62
367.739	8.62
367.868	-14.38
367.998	-15.38
368.127	1.62
368.257	4.62
368.386	9.62
368.516	-2.38
368.645	-18.38
368.775	-18.38
368.904	-0.38
369.033	-22.38
369.163	-20.38
369.292	4.62
369.422	14.62
369.551	30.62
369.68	27.62
369.81	-5.38
369.939	1.62
370.069	17.62
370.198	7.62
370.327	-4.38
370.457	5.62
370.586	10.62
370.715	-5.38
370.845	-7.38
370.974	-13.38
371.103	-0.38
371.233	5.62
371.362	5.62
371.491	-5.38
371.621	0.62
371.75	-10.38
371.879	-11.38
372.008	2.62
372.138	-9.38
372.267	12.62
372.396	-10.38
372.525	5.62
372.655	-0.38
372.784	-5.38
372.913	-8.38
373.042	-10.38
373.172	19.62
373.301	-36.38
373.43	-11.38
373.559	-2.38
373.688	3.62
373.818	10.62
373.947	23.62
374.076	-10.38
374.205	3.62
374.334	-3.38
374.463	-18.38
374.593	16.62
374.722	-10.38
374.851	27.62
374.98	-3.38
375.109	-2.38
375.238	1.62
375.367	11.62
375.496	-28.38
375.625	-3.38
375.755	4.62
375.884	19.62
376.013	14.62
376.142	-2.38
376.271	-0.38
376.4	-5.38
376.529	-1.38
376.658	-9.38
376.787	-9.38
376.916	-6.38
377.045	-12.38
377.174	-10.38
377.303	-7.38
377.432	8.62
377.561	-3.38
377.69	-4.38
377.819	13.62
377.948	2.62
378.077	-30.38
378.206	-21.38
378.335	-2.38
378.464	3.62
378.593	36.62
378.722	-2.38
378.851	-0.38
378.98	-0.38
379.108	-19.38
379.237	-22.38
379.366	-0.38
379.495	5.62
379.624	3.62
379.753	11.62
379.882	-1.38
380.011	-7.38
380.14	-23.38
380.268	-9.38
380.397	2.62
380.526	17.62
380.655	-14.38
380.784	-21.38
380.913	-27.38
381.041	-21.38
381.17	-11.38
381.299	-15.38
381.428	8.62
381.557	2.62
381.685	-7.38
381.814	-1.38
381.943	6.62
382.072	-15.38
382.2	-4.38
382.329	-6.38
382.458	1.62
382.587	5.62
382.715	0.62
382.844	-4.38
382.973	20.62
383.102	-27.38
383.23	6.62
383.359	-22.38
383.488	14.62
383.616	-22.38
383.745	-12.38
383.874	-4.38
384.003	-1.38
384.131	-3.38
384.26	-4.38
384.389	6.62
384.517	-26.38
384.646	-22.38
384.774	1.62
384.903	10.62
385.032	7.62
385.16	2.62
385.289	-9.38
385.418	-9.38
385.546	-12.38
385.675	11.62
385.803	-8.38
385.932	6.62
386.06	13.62
386.189	1.62
386.318	-4.38
386.446	-13.38
386.575	-10.38
386.703	-3.38
386.832	-24.38
386.96	-25.38
387.089	14.62
387.217	3.62
387.346	-12.38
387.474	-9.38
387.603	-0.38
387.731	-5.38
387.86	4.62
387.988	-6.38
388.117	-2.38
388.245	14.62
388.374	-13.38
388.502	5.62
388.631	-22.38
388.759	-17.38
388.888	-5.38
389.016	-15.38
389.144	-11.38
389.273	-3.38
389.401	0.62
389.53	-20.38
389.658	11.62
389.786	-2.38
389.915	-8.38
390.043	-27.38
390.172	7.62
390.3	8.62
390.428	3.62
390.557	0.62
390.685	16.62
390.813	11.62
390.942	16.62
391.07	-20.38
391.198	-15.38
391.327	-12.38
391.455	-18.38
391.583	5.62
391.712	0.62
391.84	-8.38
391.968	-5.38
392.096	-14.38
392.225	-9.38
392.353	6.62
392.481	-1.38
392.609	5.62
392.738	2.62
392.866	-0.38
392.994	-2.38
393.122	18.62
393.251	-9.38
393.379	-11.38
393.507	-4.38
393.635	0.62
393.764	-8.38
393.892	4.62
394.02	-3.38
394.148	4.62
394.276	-4.38
394.404	6.62
394.533	4.62
394.661	2.62
394.789	10.62
394.917	13.62
395.045	10.62
395.173	-2.38
395.302	-19.38
395.43	-7.38
395.558	-9.38
395.686	-6.38
395.814	15.62
395.942	-19.38
396.07	-7.38
396.198	0.62
396.326	21.62
396.454	22.62
396.582	-3.38
396.711	-6.38
396.839	6.62
396.967	6.62
397.095	-0.38
397.223	3.62
397.351	5.62
397.479	0.62
397.607	-3.38
397.735	-2.38
397.863	0.62
397.991	8.62
398.119	-16.38
398.247	-10.38
398.375	-2.38
398.503	-10.38
398.631	10.62
398.759	-0.38
398.887	-1.38
399.015	-2.38
399.143	11.62
399.271	-1.38
399.399	0.62
399.526	10.62
399.654	27.62
399.782	9.62
399.91	9.62
400.038	14.62
400.166	-11.38
400.294	-9.38
400.422	-4.38
400.55	-5.38
400.678	-5.38
400.805	-7.38
400.933	-1.38
401.061	14.62
401.189	-16.38
401.317	8.62
401.445	18.62
401.573	1.62
401.7	4.62
401.828	-9.38
401.956	-1.38
402.084	10.62
402.212	17.62
402.34	3.62
402.467	-9.38
402.595	1.62
402.723	-0.38
402.851	6.62
402.978	-3.38
403.106	9.62
403.234	-14.38
403.362	5.62
403.489	14.62
403.617	0.62
403.745	13.62
403.873	-1.38
404	11.62
404.128	15.62
404.256	-1.38
404.384	9.62
404.511	20.62
404.639	1.62
404.767	-1.38
404.894	3.62
405.022	-6.38
405.15	10.62
405.277	-12.38
405.405	-6.38
405.533	-3.38
405.66	-4.38
405.788	-27.38
405.916	-1.38
406.043	-15.38
406.171	-20.38
406.299	13.62
406.426	-1.38
406.554	10.62
406.681	26.62
406.809	6.62
406.937	4.62
407.064	3.62
407.192	-1.38
407.319	-10.38
407.447	-3.38
407.574	24.62
407.702	2.62
407.83	-10.38
407.957	-9.38
408.085	-13.38
408.212	-10.38
408.34	6.62
408.467	-1.38
408.595	-8.38
408.722	3.62
408.85	8.62
408.977	-20.38
409.105	-8.38
409.232	15.62
409.36	7.62
409.487	1.62
409.615	19.62
409.742	22.62
409.87	28.62
409.997	33.62
410.125	26.62
410.252	44.62
410.379	50.62
410.507	21.62
410.634	3.62
410.762	-4.38
410.889	5.62
411.017	-3.38
411.144	24.62
411.271	-9.38
411.399	-15.38
411.526	-3.38
411.653	26.62
411.781	3.62
411.908	11.62
412.036	-10.38
412.163	15.62
412.29	10.62
412.418	-14.38
412.545	-2.38
412.672	-11.38
412.8	11.62
412.927	5.62
413.054	37.62
413.182	9.62
413.309	2.62
413.436	-15.38
413.564	13.62
413.691	18.62
413.818	13.62
413.945	-5.38
414.073	-21.38
414.2	-3.38
414.327	-1.38
414.454	4.62
414.582	-9.38
414.709	-15.38
414.836	-5.38
414.963	7.62
415.091	-5.38
415.218	8.62
415.345	5.62
415.472	3.62
415.6	-20.38
415.727	0.62
415.854	-7.38
415.981	1.62
416.108	-8.38
416.236	6.62
416.363	-2.38
416.49	-4.38
416.617	5.62
416.744	10.62
416.871	14.62
416.998	-15.38
417.126	-5.38
417.253	-9.38
417.38	3.62
417.507	3.62
417.634	2.62
417.761	15.62
417.888	19.62
418.015	0.62
418.143	2.62
418.27	0.62
418.397	8.62
418.524	18.62
418.651	6.62
418.778	8.62
418.905	17.62
419.032	22.62
419.159	4.62
419.286	14.62
419.413	-14.38
419.54	18.62
419.667	-11.38
419.794	-0.38
419.921	-9.38
420.048	17.62
420.175	9.62
420.302	-13.38
420.429	-7.38
420.556	0.62
420.683	-15.38
420.81	0.62
420.937	9.62
421.064	12.62
421.191	-9.38
421.318	9.62
421.445	25.62
421.572	3.62
421.699	14.62
421.826	-1.38
421.953	11.62
422.08	9.62
422.207	-25.38
422.334	-21.38
422.461	-8.38
422.588	-13.38
422.714	20.62
422.841	17.62
422.968	18.62
423.095	6.62
423.222	5.62
423.349	14.62
423.476	-9.38
423.603	-16.38
423.729	-16.38
423.856	7.62
423.983	8.62
424.11	-1.38
424.237	7.62
424.364	1.62
424.491	1.62
424.617	-7.38
424.744	-18.38
424.871	2.62
424.998	-9.38
425.125	-14.38
425.251	6.62
425.378	-17.38
425.505	-2.38
425.632	3.62
425.758	-10.38
425.885	-6.38
426.012	-12.38
426.139	13.62
426.266	1.62
426.392	-4.38
426.519	-4.38
426.646	-17.38
426.772	10.62
426.899	11.62
427.026	13.62
427.153	6.62
427.279	3.62
427.406	3.62
427.533	3.62
427.659	-2.38
427.786	-15.38
427.913	14.62
428.039	0.62
428.166	-3.38
428.293	-6.38
428.419	22.62
428.546	-9.38
428.673	-5.38
428.799	-12.38
428.926	-3.38
429.053	32.62
429.179	16.62
429.306	2.62
429.433	3.62
429.559	2.62
429.686	-25.38
429.812	-23.38
429.939	-16.38
430.066	9.62
430.192	-1.38
430.319	0.62
430.445	-22.38
430.572	-15.38
430.699	-17.38
430.825	0.62
430.952	10.62
431.078	15.62
431.205	2.62
431.331	-11.38
431.458	-4.38
431.584	-0.38
431.711	-12.38
431.837	-10.38
431.964	-13.38
432.09	-15.38
432.217	-22.38
432.343	-2.38
432.47	15.62
432.596	-14.38
432.723	-9.38
432.849	-16.38
432.976	0.62
433.102	6.62
433.229	11.62
433.355	43.62
433.482	77.62
433.608	139.62
433.735	137.62
433.861	121.62
433.987	134.62
434.114	219.62
434.24	193.62
434.367	77.62
434.493	11.62
434.62	23.62
434.746	7.62
434.872	-15.38
434.999	13.62
435.125	19.62
435.252	-18.38
435.378	-8.38
435.504	-2.38
435.631	15.62
435.757	19.62
435.883	2.62
436.01	1.62
436.136	3.62
436.262	12.62
436.389	16.62
436.515	17.62
436.641	20.62
436.768	8.62
436.894	-0.38
437.02	-5.38
437.147	19.62
437.273	10.62
437.399	-7.38
437.526	14.62
437.652	-14.38
437.778	13.62
437.904	4.62
438.031	6.62
438.157	5.62
438.283	1.62
438.409	-5.38
438.536	-1.38
438.662	13.62
438.788	0.62
438.914	15.62
439.041	14.62
439.167	19.62
439.293	-4.38
439.419	-9.38
439.546	1.62
439.672	9.62
439.798	6.62
439.924	4.62
440.05	16.62
440.177	21.62
440.303	-4.38
440.429	-0.38
440.555	-2.38
440.681	11.62
440.807	26.62
440.934	9.62
441.06	8.62
441.186	-4.38
441.312	4.62
441.438	5.62
441.564	5.62
441.69	-0.38
441.816	11.62
441.943	1.62
442.069	6.62
442.195	3.62
442.321	18.62
442.447	-0.38
442.573	-10.38
442.699	-20.38
442.825	3.62
442.951	-2.38
443.077	11.62
443.203	4.62
443.33	8.62
443.456	-1.38
443.582	4.62
443.708	5.62
443.834	17.62
443.96	11.62
444.086	1.62
444.212	20.62
444.338	10.62
444.464	3.62
444.59	28.62
444.716	4.62
444.842	3.62
444.968	1.62
445.094	4.62
445.22	1.62
445.346	-13.38
445.472	-3.38
445.598	-0.38
445.724	-14.38
445.85	0.62
445.976	2.62
446.102	23.62
446.228	22.62
446.354	8.62
446.48	3.62
446.605	-9.38
446.731	7.62
446.857	4.62
446.983	-0.38
447.109	1.62
447.235	-15.38
447.361	-4.38
447.487	14.62
447.613	7.62
447.739	-11.38
447.865	-27.38
447.99	-24.38
448.116	7.62
448.242	12.62
448.368	0.62
448.494	12.62
448.62	10.62
448.746	-10.38
448.872	13.62
448.997	-13.38
449.123	12.62
449.249	35.62
449.375	36.62
449.501	-9.38
449.627	19.62
449.752	22.62
449.878	4.62
450.004	-2.38
450.13	4.62
450.256	-8.38
450.381	-5.38
450.507	5.62
450.633	-6.38
450.759	4.62
450.884	0.62
451.01	-3.38
451.136	-9.38
451.262	9.62
451.388	7.62
451.513	-18.38
451.639	-0.38
451.765	8.62
451.89	-5.38
452.016	-5.38
452.142	1.62
452.268	12.62
452.393	-6.38
452.519	-1.38
452.645	5.62
452.771	4.62
452.896	-9.38
453.022	-14.38
453.148	5.62
453.273	7.62
453.399	-4.38
453.525	-30.38
453.65	-11.38
453.776	5.62
453.902	14.62
454.027	5.62
454.153	10.62
454.279	5.62
454.404	-7.38
454.53	10.62
454.656	34.62
454.781	22.62
454.907	2.62
455.032	-2.38
455.158	17.62
455.284	15.62
455.409	5.62
455.535	17.62
455.66	12.62
455.786	2.62
455.912	20.62
456.037	-9.38
456.163	2.62
456.288	15.62
456.414	-6.38
456.539	0.62
456.665	8.62
456.791	10.62
456.916	-16.38
457.042	6.62
457.167	-23.38
457.293	4.62
457.418	5.62
457.544	-12.38
457.669	3.62
457.795	-0.38
457.92	-7.38
458.046	-11.38
458.171	15.62
458.297	-5.38
458.422	-1.38
458.548	-10.38
458.673	16.62
458.799	-16.38
458.924	-10.38
459.05	12.62
459.175	2.62
459.301	0.62
459.426	10.62
459.552	-1.38
459.677	11.62
459.803	16.62
459.928	3.62
460.053	-6.38
460.179	2.62
460.304	30.62
460.43	4.62
460.555	-2.38
460.681	3.62
460.806	8.62
460.931	5.62
461.057	0.62
461.182	-13.38
461.308	9.62
461.433	17.62
461.558	5.62
461.684	35.62
461.809	12.62
461.934	14.62
462.06	22.62
462.185	-24.38
462.311	-8.38
462.436	-5.38
462.561	7.62
462.687	-5.38
462.812	12.62
462.937	10.62
463.063	-8.38
463.188	14.62
463.313	10.62
463.439	13.62
463.564	2.62
463.689	-10.38
463.814	21.62
463.94	-6.38
464.065	3.62
464.19	-1.38
464.316	-10.38
464.441	-4.38
464.566	-6.38
464.692	-2.38
464.817	-0.38
464.942	8.62
465.067	-0.38
465.193	1.62
465.318	-4.38
465.443	13.62
465.568	4.62
465.694	24.62
465.819	19.62
465.944	-11.38
466.069	12.62
466.194	22.62
466.32	4.62
466.445	-10.38
466.57	-14.38
466.695	-13.38
466.82	8.62
466.946	14.62
467.071	-0.38
467.196	-8.38
467.321	5.62
467.446	-1.38
467.572	1.62
467.697	0.62
467.822	12.62
467.947	-16.38
468.072	-5.38
468.197	-19.38
468.323	-2.38
468.448	-0.38
468.573	2.62
468.698	3.62
468.823	-1.38
468.948	23.62
469.073	18.62
469.198	3.62
469.324	20.62
469.449	-10.38
469.574	15.62
469.699	1.62
469.824	1.62
469.949	13.62
470.074	15.62
470.199	37.62
470.324	21.62
470.449	13.62
470.574	-4.38
470.7	-15.38
470.825	10.62
470.95	20.62
471.075	-20.38
471.2	-6.38
471.325	15.62
471.45	6.62
471.575	-9.38
471.7	2.62
471.825	0.62
471.95	-7.38
472.075	0.62
472.2	3.62
472.325	14.62
472.45	-5.38
472.575	-8.38
472.7	5.62
472.825	22.62
472.95	21.62
473.075	2.62
473.2	-8.38
473.325	-7.38
473.45	3.62
473.575	-9.38
473.7	-7.38
473.825	-4.38
473.95	3.62
474.075	26.62
474.2	1.62
474.325	5.62
474.45	31.62
474.574	19.62
474.699	5.62
474.824	-1.38
474.949	1.62
475.074	-4.38
475.199	14.62
475.324	9.62
475.449	-2.38
475.574	11.62
475.699	6.62
475.824	-4.38
475.949	-0.38
476.073	2.62
476.198	0.62
476.323	2.62
476.448	2.62
476.573	-2.38
476.698	12.62
476.823	1.62
476.947	-2.38
477.072	-1.38
477.197	15.62
477.322	13.62
477.447	6.62
477.572	3.62
477.697	-6.38
477.821	10.62
477.946	17.62
478.071	20.62
478.196	18.62
478.321	13.62
478.445	13.62
478.57	-2.38
478.695	2.62
478.82	17.62
478.945	9.62
479.069	2.62
479.194	-0.38
479.319	27.62
479.444	9.62
479.569	7.62
479.693	3.62
479.818	7.62
479.943	20.62
480.068	3.62
480.192	12.62
480.317	15.62
480.442	5.62
480.567	0.62
480.691	17.62
480.816	14.62
480.941	7.62
481.066	-0.38
481.19	16.62
481.315	13.62
481.44	-9.38
481.564	-14.38
481.689	1.62
481.814	14.62
481.938	10.62
482.063	-0.38
482.188	3.62
482.313	44.62
482.437	16.62
482.562	23.62
482.687	12.62
482.811	29.62
482.936	24.62
483.061	11.62
483.185	14.62
483.31	38.62
483.435	22.62
483.559	13.62
483.684	11.62
483.808	36.62
483.933	5.62
484.058	-0.38
484.182	-2.38
484.307	2.62
484.432	7.62
484.556	14.62
484.681	28.62
484.805	28.62
484.93	13.62
485.055	19.62
485.179	73.62
485.304	105.62
485.428	348.62
485.553	1173.62
485.678	1690.62
485.802	1598.62
485.927	1782.62
486.051	2610.62
486.176	1583.62
486.3	411.62
486.425	134.62
486.549	88.62
486.674	52.62
486.799	42.62
486.923	11.62
487.048	22.62
487.172	25.62
487.297	18.62
487.421	23.62
487.546	16.62
487.67	24.62
487.795	3.62
487.919	6.62
488.044	11.62
488.168	28.62
488.293	6.62
488.417	6.62
488.542	19.62
488.666	20.62
488.791	7.62
488.915	-6.38
489.04	9.62
489.164	8.62
489.289	12.62
489.413	-0.38
489.538	5.62
489.662	26.62
489.786	-2.38
489.911	9.62
490.035	17.62
490.16	5.62
490.284	3.62
490.409	-32.38
490.533	-4.38
490.658	36.62
490.782	5.62
490.906	10.62
491.031	23.62
491.155	22.62
491.28	23.62
491.404	11.62
491.528	38.62
491.653	15.62
491.777	20.62
491.902	3.62
492.026	15.62
492.15	12.62
492.275	34.62
492.399	9.62
492.524	-0.38
492.648	14.62
492.772	14.62
492.897	10.62
493.021	7.62
493.145	25.62
493.27	8.62
493.394	5.62
493.518	7.62
493.643	-5.38
493.767	12.62
493.891	-9.38
494.016	7.62
494.14	7.62
494.264	8.62
494.389	21.62
494.513	-8.38
494.637	-5.38
494.762	7.62
494.886	12.62
495.01	-6.38
495.134	-5.38
495.259	35.62
495.383	9.62
495.507	1.62
495.632	26.62
495.756	43.62
495.88	21.62
496.004	4.62
496.129	-9.38
496.253	3.62
496.377	3.62
496.501	26.62
496.626	6.62
496.75	-0.38
496.874	12.62
496.998	-11.38
497.123	10.62
497.247	-9.38
497.371	-4.38
497.495	-3.38
497.62	9.62
497.744	15.62
497.868	-1.38
497.992	-5.38
498.116	11.62
498.241	25.62
498.365	-0.38
498.489	-2.38
498.613	17.62
498.737	-4.38
498.862	1.62
498.986	-4.38
499.11	-0.38
499.234	1.62
499.358	-12.38
499.482	11.62
499.607	4.62
499.731	15.62
499.855	34.62
499.979	-8.38
500.103	13.62
500.227	29.62
500.351	6.62
500.476	-11.38
500.6	1.62
500.724	0.62
500.848	10.62
500.972	14.62
501.096	13.62
501.22	27.62
501.344	-5.38
501.469	9.62
501.593	-2.38
501.717	7.62
501.841	10.62
501.965	0.62
502.089	9.62
502.213	6.62
502.337	0.62
502.461	-5.38
502.585	-5.38
502.709	14.62
502.834	11.62
502.958	-12.38
503.082	5.62
503.206	1.62
503.33	6.62
503.454	12.62
503.578	5.62
503.702	15.62
503.826	18.62
503.95	25.62
504.074	11.62
504.198	-9.38
504.322	-14.38
504.446	-1.38
504.57	15.62
504.694	8.62
504.818	12.62
504.942	35.62
505.066	0.62
505.19	21.62
505.314	2.62
505.438	4.62
505.562	10.62
505.686	22.62
505.81	-13.38
505.934	7.62
506.058	7.62
506.182	18.62
506.306	9.62
506.43	5.62
506.554	11.62
506.678	-11.38
506.802	-9.38
506.926	-3.38
507.05	3.62
507.174	28.62
507.298	11.62
507.422	4.62
507.546	11.62
507.67	26.62
507.794	-10.38
507.918	0.62
508.042	14.62
508.165	-1.38
508.289	5.62
508.413	12.62
508.537	-8.38
508.661	18.62
508.785	-0.38
508.909	13.62
509.033	4.62
509.157	11.62
509.281	3.62
509.405	22.62
509.528	22.62
509.652	20.62
509.776	13.62
509.9	13.62
510.024	-0.38
510.148	16.62
510.272	5.62
510.396	14.62
510.519	-11.38
510.643	25.62
510.767	3.62
510.891	30.62
511.015	-8.38
511.139	1.62
511.263	15.62
511.386	-1.38
511.51	-6.38
511.634	1.62
511.758	-6.38
511.882	-12.38
512.006	7.62
512.129	4.62
512.253	21.62
512.377	4.62
512.501	14.62
512.625	9.62
512.748	-21.38
512.872	8.62
512.996	12.62
513.12	1.62
513.244	2.62
513.367	-4.38
513.491	19.62
513.615	22.62
513.739	1.62
513.862	-1.38
513.986	11.62
514.11	12.62
514.234	-4.38
514.358	11.62
514.481	14.62
514.605	9.62
514.729	14.62
514.853	20.62
514.976	-10.38
515.1	-4.38
515.224	17.62
515.348	8.62
515.471	-12.38
515.595	10.62
515.719	-7.38
515.842	34.62
515.966	12.62
516.09	37.62
516.214	5.62
516.337	26.62
516.461	25.62
516.585	4.62
516.708	-10.38
516.832	18.62
516.956	5.62
517.08	3.62
517.203	-5.38
517.327	-2.38
517.451	19.62
517.574	30.62
517.698	4.62
517.822	20.62
517.945	17.62
518.069	30.62
518.193	44.62
518.316	31.62
518.44	26.62
518.564	9.62
518.687	2.62
518.811	19.62
518.935	48.62
519.058	43.62
519.182	32.62
519.306	38.62
519.429	19.62
519.553	57.62
519.676	32.62
519.8	9.62
519.924	3.62
520.047	15.62
520.171	7.62
520.294	3.62
520.418	31.62
520.542	5.62
520.665	10.62
520.789	11.62
520.913	-16.38
521.036	-24.38
521.16	-10.38
521.283	13.62
521.407	-1.38
521.53	-5.38
521.654	-17.38
521.778	16.62
521.901	-2.38
522.025	6.62
522.148	-5.38
522.272	12.62
522.395	-6.38
522.519	6.62
522.643	1.62
522.766	-1.38
522.89	4.62
523.013	7.62
523.137	-13.38
523.26	-12.38
523.384	4.62
523.507	-2.38
523.631	-3.38
523.754	3.62
523.878	5.62
524.002	17.62
524.125	-3.38
524.249	-17.38
524.372	14.62
524.496	13.62
524.619	-14.38
524.743	7.62
524.866	11.62
524.99	11.62
525.113	1.62
525.237	27.62
525.36	9.62
525.484	-3.38
525.607	-16.38
525.731	-16.38
525.854	17.62
525.978	30.62
526.101	10.62
526.224	-1.38
526.348	8.62
526.471	11.62
526.595	3.62
526.718	-1.38
526.842	-4.38
526.965	2.62
527.089	-4.38
527.212	5.62
527.336	6.62
527.459	11.62
527.582	12.62
527.706	17.62
527.829	-3.38
527.953	5.62
528.076	-14.38
528.2	-5.38
528.323	20.62
528.446	7.62
528.57	5.62
528.693	8.62
528.817	4.62
528.94	9.62
529.064	32.62
529.187	7.62
529.31	9.62
529.434	-3.38
529.557	-3.38
529.68	2.62
529.804	20.62
529.927	2.62
530.051	-6.38
530.174	-0.38
530.297	-7.38
530.421	27.62
530.544	22.62
530.668	8.62
530.791	-13.38
530.914	5.62
531.038	2.62
531.161	-6.38
531.284	14.62
531.408	21.62
531.531	3.62
531.654	-5.38
531.778	20.62
531.901	-6.38
532.024	-6.38
532.148	-0.38
532.271	7.62
532.394	15.62
532.518	30.62
532.641	23.62
532.764	14.62
532.888	21.62
533.011	0.62
533.134	0.62
533.258	8.62
533.381	-9.38
533.504	-1.38
533.628	-6.38
533.751	3.62
533.874	-6.38
533.997	1.62
534.121	2.62
534.244	-7.38
534.367	9.62
534.491	8.62
534.614	21.62
534.737	22.62
534.86	7.62
534.984	-4.38
535.107	0.62
535.23	1.62
535.354	-11.38
535.477	-17.38
535.6	-7.38
535.723	-4.38
535.847	11.62
535.97	0.62
536.093	-5.38
536.216	-16.38
536.34	9.62
536.463	-16.38
536.586	5.62
536.709	32.62
536.833	-3.38
536.956	9.62
537.079	-6.38
537.202	2.62
537.325	-14.38
537.449	-10.38
537.572	1.62
537.695	-10.38
537.818	4.62
537.941	-11.38
538.065	0.62
538.188	-1.38
538.311	8.62
538.434	10.62
538.558	10.62
538.681	9.62
538.804	8.62
538.927	3.62
539.05	7.62
539.173	-2.38
539.297	9.62
539.42	-4.38
539.543	1.62
539.666	1.62
539.789	8.62
539.913	13.62
540.036	-15.38
540.159	5.62
540.282	2.62
540.405	3.62
540.528	8.62
540.651	10.62
540.775	-9.38
540.898	7.62
541.021	-6.38
541.144	10.62
541.267	12.62
541.39	9.62
541.513	13.62
541.637	3.62
541.76	1.62
541.883	-14.38
542.006	19.62
542.129	16.62
542.252	-4.38
542.375	-9.38
542.498	-2.38
542.622	14.62
542.745	19.62
542.868	1.62
542.991	21.62
543.114	16.62
543.237	17.62
543.36	5.62
543.483	-8.38
543.606	0.62
543.73	30.62
543.853	2.62
543.976	7.62
544.099	24.62
544.222	4.62
544.345	17.62
544.468	5.62
544.591	6.62
544.714	20.62
544.837	23.62
544.96	3.62
545.083	8.62
545.206	1.62
545.329	12.62
545.453	-1.38
545.576	-6.38
545.699	18.62
545.822	-0.38
545.945	0.62
546.068	-7.38
546.191	-2.38
546.314	7.62
546.437	8.62
546.56	-0.38
546.683	2.62
546.806	16.62
546.929	1.62
547.052	-2.38
547.175	-4.38
547.298	2.62
547.421	-15.38
547.544	11.62
547.667	3.62
547.79	2.62
547.913	-3.38
548.036	-6.38
548.159	3.62
548.282	13.62
548.405	-13.38
548.528	9.62
548.651	15.62
548.774	3.62
548.897	12.62
549.02	25.62
549.143	33.62
549.266	9.62
549.389	19.62
549.512	3.62
549.635	19.62
549.758	20.62
549.881	-5.38
550.004	2.62
550.127	11.62
550.25	-4.38
550.373	3.62
550.496	11.62
550.619	-3.38
550.742	-5.38
550.865	-18.38
550.988	22.62
551.111	11.62
551.234	4.62
551.356	5.62
551.479	-11.38
551.602	-5.38
551.725	-1.38
551.848	7.62
551.971	26.62
552.094	14.62
552.217	-1.38
552.34	-3.38
552.463	-0.38
552.586	6.62
552.709	-0.38
552.832	19.62
552.955	5.62
553.077	9.62
553.2	15.62
553.323	-22.38
553.446	1.62
553.569	-18.38
553.692	-0.38
553.815	6.62
553.938	10.62
554.061	9.62
554.184	16.62
554.306	0.62
554.429	8.62
554.552	16.62
554.675	13.62
554.798	1.62
554.921	1.62
555.044	9.62
555.167	15.62
555.29	-5.38
555.412	8.62
555.535	9.62
555.658	-8.38
555.781	9.62
555.904	11.62
556.027	5.62
556.15	4.62
556.272	6.62
556.395	14.62
556.518	-2.38
556.641	14.62
556.764	21.62
556.887	11.62
557.01	3.62
557.132	1.62
557.255	3.62
557.378	16.62
557.501	-1.38
557.624	-2.38
557.747	2.62
557.869	0.62
557.992	19.62
558.115	12.62
558.238	-9.38
558.361	6.62
558.483	17.62
558.606	7.62
558.729	-16.38
558.852	23.62
558.975	41.62
559.098	20.62
559.22	7.62
559.343	19.62
559.466	1.62
559.589	-19.38
559.712	12.62
559.834	31.62
559.957	7.62
560.08	13.62
560.203	-0.38
560.325	19.62
560.448	25.62
560.571	6.62
560.694	4.62
560.817	29.62
560.939	-0.38
561.062	-5.38
561.185	5.62
561.308	-8.38
561.43	-13.38
561.553	-6.38
561.676	-11.38
561.799	16.62
561.921	-8.38
562.044	-2.38
562.167	-9.38
562.29	21.62
562.413	16.62
562.535	0.62
562.658	-14.38
562.781	-0.38
562.903	14.62
563.026	0.62
563.149	15.62
563.272	-17.38
563.394	13.62
563.517	12.62
563.64	1.62
563.763	-17.38
563.885	5.62
564.008	12.62
564.131	13.62
564.254	-6.38
564.376	6.62
564.499	-13.38
564.622	-4.38
564.744	21.62
564.867	9.62
564.99	-10.38
565.113	11.62
565.235	2.62
565.358	4.62
565.481	-1.38
565.603	-4.38
565.726	-18.38
565.849	29.62
565.971	10.62
566.094	-10.38
566.217	-1.38
566.34	7.62
566.462	-0.38
566.585	3.62
566.708	8.62
566.83	-5.38
566.953	11.62
567.076	-4.38
567.198	7.62
567.321	-15.38
567.444	13.62
567.566	-10.38
567.689	-13.38
567.812	-2.38
567.934	-3.38
568.057	7.62
568.18	7.62
568.302	16.62
568.425	-1.38
568.548	4.62
568.67	28.62
568.793	15.62
568.916	-6.38
569.038	-6.38
569.161	7.62
569.283	-0.38
569.406	17.62
569.529	-1.38
569.651	-6.38
569.774	15.62
569.897	6.62
570.019	9.62
570.142	14.62
570.265	-5.38
570.387	-0.38
570.51	10.62
570.632	-1.38
570.755	6.62
570.878	-16.38
571	6.62
571.123	-21.38
571.246	17.62
571.368	-10.38
571.491	1.62
571.613	0.62
571.736	11.62
571.859	0.62
571.981	-1.38
572.104	-14.38
572.226	12.62
572.349	-6.38
572.472	12.62
572.594	5.62
572.717	14.62
572.839	-14.38
572.962	15.62
573.085	15.62
573.207	-0.38
573.33	-10.38
573.452	6.62
573.575	1.62
573.697	13.62
573.82	-0.38
573.943	7.62
574.065	3.62
574.188	10.62
574.31	15.62
574.433	0.62
574.555	22.62
574.678	-15.38
574.801	14.62
574.923	-0.38
575.046	7.62
575.168	5.62
575.291	-1.38
575.413	-14.38
575.536	2.62
575.659	18.62
575.781	12.62
575.904	-13.38
576.026	15.62
576.149	-10.38
576.271	5.62
576.394	6.62
576.516	-1.38
576.639	4.62
576.761	5.62
576.884	4.62
577.007	13.62
577.129	26.62
577.252	-9.38
577.374	14.62
577.497	30.62
577.619	14.62
577.742	-10.38
577.864	13.62
577.987	0.62
578.109	1.62
578.232	14.62
578.354	7.62
578.477	-8.38
578.599	-13.38
578.722	7.62
578.844	-0.38
578.967	7.62
579.089	2.62
579.212	5.62
579.334	11.62
579.457	11.62
579.579	4.62
579.702	-15.38
579.824	-18.38
579.947	-22.38
580.069	-20.38
580.192	2.62
580.314	15.62
580.437	-0.38
580.559	34.62
580.682	18.62
580.804	4.62
580.927	11.62
581.049	12.62
581.172	15.62
581.294	6.62
581.417	15.62
581.539	-0.38
581.662	9.62
581.784	10.62
581.907	11.62
582.029	2.62
582.152	5.62
582.274	0.62
582.396	16.62
582.519	1.62
582.641	11.62
582.764	1.62
582.886	5.62
583.009	12.62
583.131	1.62
583.254	19.62
583.376	31.62
583.499	34.62
583.621	-1.38
583.743	7.62
583.866	9.62
583.988	-0.38
584.111	3.62
584.233	13.62
584.356	33.62
584.478	21.62
584.601	-17.38
584.723	-12.38
584.845	8.62
584.968	2.62
585.09	-18.38
585.213	-9.38
585.335	-8.38
585.458	-6.38
585.58	5.62
585.702	5.62
585.825	10.62
585.947	13.62
586.07	-10.38
586.192	-9.38
586.315	29.62
586.437	-3.38
586.559	5.62
586.682	-14.38
586.804	6.62
586.927	2.62
587.049	9.62
587.171	31.62
587.294	5.62
587.416	13.62
587.539	0.62
587.661	-4.38
587.783	-1.38
587.906	-3.38
588.028	17.62
588.151	3.62
588.273	11.62
588.395	-13.38
588.518	-8.38
588.64	3.62
588.763	12.62
588.885	17.62
589.007	11.62
589.13	-4.38
589.252	-4.38
589.375	1.62
589.497	2.62
589.619	-6.38
589.742	1.62
589.864	20.62
589.986	9.62
590.109	-5.38
590.231	-3.38
590.354	2.62
590.476	-22.38
590.598	2.62
590.721	-3.38
590.843	13.62
590.965	-4.38
591.088	11.62
591.21	7.62
591.332	14.62
591.455	-31.38
591.577	-19.38
591.7	10.62
591.822	8.62
591.944	13.62
592.067	12.62
592.189	-2.38
592.311	19.62
592.434	10.62
592.556	1.62
592.678	16.62
592.801	3.62
592.923	-9.38
593.045	-0.38
593.168	7.62
593.29	9.62
593.412	9.62
593.535	5.62
593.657	-2.38
593.779	11.62
593.902	-4.38
594.024	10.62
594.146	7.62
594.269	2.62
594.391	-13.38
594.513	-3.38
594.636	3.62
594.758	1.62
594.88	33.62
595.003	10.62
595.125	-10.38
595.247	-6.38
595.37	13.62
595.492	-2.38
595.614	20.62
595.737	9.62
595.859	-12.38
595.981	5.62
596.104	2.62
596.226	2.62
596.348	-6.38
596.471	-5.38
596.593	14.62
596.715	4.62
596.838	-6.38
596.96	-4.38
597.082	4.62
597.204	7.62
597.327	2.62
597.449	3.62
597.571	0.62
597.694	21.62
597.816	11.62
597.938	10.62
598.061	-13.38
598.183	-6.38
598.305	3.62
598.427	4.62
598.55	-5.38
598.672	-0.38
598.794	6.62
598.917	-3.38
599.039	5.62
599.161	7.62
599.283	-8.38
599.406	11.62
599.528	11.62
599.65	30.62
599.773	9.62
599.895	41.62
600.017	18.62
600.139	4.62
600.262	-13.38
600.384	-6.38
600.506	18.62
600.628	11.62
600.751	10.62
600.873	10.62
600.995	-3.38
601.118	-1.38
601.24	2.62
601.362	17.62
601.484	18.62
601.607	19.62
601.729	1.62
601.851	-0.38
601.973	-13.38
602.096	8.62
602.218	21.62
602.34	13.62
602.462	19.62
602.585	17.62
602.707	-9.38
602.829	17.62
602.951	14.62
603.074	6.62
603.196	5.62
603.318	-6.38
603.44	30.62
603.563	5.62
603.685	-1.38
603.807	-1.38
603.929	9.62
604.052	7.62
604.174	11.62
604.296	1.62
604.418	21.62
604.541	28.62
604.663	0.62
604.785	5.62
604.907	10.62
605.03	-22.38
605.152	16.62
605.274	-9.38
605.396	5.62
605.519	0.62
605.641	6.62
605.763	12.62
605.885	0.62
606.008	6.62
606.13	17.62
606.252	17.62
606.374	-12.38
606.496	-12.38
606.619	9.62
606.741	18.62
606.863	18.62
606.985	35.62
607.108	25.62
607.23	3.62
607.352	1.62
607.474	-3.38
607.596	-0.38
607.719	-0.38
607.841	15.62
607.963	10.62
608.085	-3.38
608.207	21.62
608.33	-1.38
608.452	-9.38
608.574	-8.38
608.696	29.62
608.819	12.62
608.941	3.62
609.063	-3.38
609.185	-18.38
609.307	18.62
609.43	21.62
609.552	6.62
609.674	-11.38
609.796	12.62
609.918	17.62
610.041	10.62
610.163	6.62
610.285	12.62
610.407	-0.38
610.529	2.62
610.652	3.62
610.774	-5.38
610.896	5.62
611.018	6.62
611.14	-11.38
611.263	-11.38
611.385	1.62
611.507	-2.38
611.629	-14.38
611.751	10.62
611.873	22.62
611.996	8.62
612.118	17.62
612.24	-11.38
612.362	7.62
612.484	15.62
612.607	6.62
612.729	33.62
612.851	12.62
612.973	3.62
613.095	-6.38
613.218	13.62
613.34	9.62
613.462	-4.38
613.584	14.62
613.706	8.62
613.828	24.62
613.951	7.62
614.073	9.62
614.195	-20.38
614.317	27.62
614.439	23.62
614.561	20.62
614.684	11.62
614.806	14.62
614.928	9.62
615.05	9.62
615.172	5.62
615.294	14.62
615.417	-6.38
615.539	8.62
615.661	6.62
615.783	9.62
615.905	12.62
616.027	61.62
616.15	106.62
616.272	85.62
616.394	43.62
616.516	33.62
616.638	23.62
616.76	7.62
616.883	8.62
617.005	5.62
617.127	-8.38
617.249	1.62
617.371	9.62
617.493	15.62
617.615	5.62
617.738	7.62
617.86	-9.38
617.982	-6.38
618.104	-2.38
618.226	-8.38
618.348	-4.38
618.471	6.62
618.593	19.62
618.715	1.62
618.837	-13.38
618.959	8.62
619.081	21.62
619.203	21.62
619.326	2.62
619.448	-10.38
619.57	-3.38
619.692	3.62
619.814	5.62
619.936	4.62
620.058	18.62
620.181	20.62
620.303	-2.38
620.425	15.62
620.547	-4.38
620.669	7.62
620.791	3.62
620.913	3.62
621.036	5.62
621.158	1.62
621.28	4.62
621.402	-15.38
621.524	-1.38
621.646	2.62
621.768	0.62
621.891	-17.38
622.013	23.62
622.135	-9.38
622.257	-17.38
622.379	2.62
622.501	4.62
622.623	12.62
622.745	0.62
622.868	11.62
622.99	-1.38
623.112	11.62
623.234	1.62
623.356	7.62
623.478	-4.38
623.6	12.62
623.722	2.62
623.845	8.62
623.967	3.62
624.089	5.62
624.211	-6.38
624.333	13.62
624.455	5.62
624.577	7.62
624.699	9.62
624.822	4.62
624.944	-5.38
625.066	2.62
625.188	-26.38
625.31	14.62
625.432	21.62
625.554	-12.38
625.676	9.62
625.799	-12.38
625.921	-5.38
626.043	0.62
626.165	15.62
626.287	-20.38
626.409	9.62
626.531	-8.38
626.653	11.62
626.775	9.62
626.898	5.62
627.02	7.62
627.142	21.62
627.264	23.62
627.386	3.62
627.508	5.62
627.63	-7.38
627.752	5.62
627.874	8.62
627.997	20.62
628.119	9.62
628.241	23.62
628.363	25.62
628.485	7.62
628.607	1.62
628.729	-1.38
628.851	1.62
628.973	6.62
629.096	-0.38
629.218	-2.38
629.34	11.62
629.462	-0.38
629.584	-3.38
629.706	19.62
629.828	15.62
629.95	4.62
630.072	-11.38
630.195	-8.38
630.317	14.62
630.439	31.62
630.561	4.62
630.683	0.62
630.805	13.62
630.927	11.62
631.049	-4.38
631.171	-0.38
631.293	0.62
631.416	-6.38
631.538	19.62
631.66	11.62
631.782	15.62
631.904	22.62
632.026	-10.38
632.148	13.62
632.27	14.62
632.392	3.62
632.514	8.62
632.637	2.62
632.759	-5.38
632.881	1.62
633.003	-11.38
633.125	3.62
633.247	6.62
633.369	-5.38
633.491	8.62
633.613	8.62
633.735	0.62
633.858	8.62
633.98	1.62
634.102	-8.38
634.224	-10.38
634.346	7.62
634.468	10.62
634.59	7.62
634.712	1.62
634.834	3.62
634.956	-9.38
635.078	-11.38
635.201	4.62
635.323	1.62
635.445	-4.38
635.567	-12.38
635.689	-9.38
635.811	13.62
635.933	-6.38
636.055	2.62
636.177	-1.38
636.299	8.62
636.421	6.62
636.544	4.62
636.666	-0.38
636.788	-1.38
636.91	5.62
637.032	-3.38
637.154	15.62
637.276	11.62
637.398	8.62
637.52	9.62
637.642	9.62
637.764	0.62
637.887	11.62
638.009	-14.38
638.131	7.62
638.253	-8.38
638.375	2.62
638.497	-5.38
638.619	-13.38
638.741	-13.38
638.863	-23.38
638.985	3.62
639.107	-6.38
639.23	-8.38
639.352	13.62
639.474	-1.38
639.596	-11.38
639.718	-6.38
639.84	-9.38
639.962	2.62
640.084	21.62
640.206	15.62
640.328	-8.38
640.45	3.62
640.573	7.62
640.695	1.62
640.817	-6.38
640.939	6.62
641.061	-6.38
641.183	13.62
641.305	-10.38
641.427	-6.38
641.549	0.62
641.671	-10.38
641.793	-4.38
641.915	4.62
642.038	-10.38
642.16	-1.38
642.282	7.62
642.404	-6.38
642.526	7.62
642.648	5.62
642.77	-3.38
642.892	-0.38
643.014	9.62
643.136	4.62
643.258	-3.38
643.381	15.62
643.503	19.62
643.625	-14.38
643.747	-16.38
643.869	6.62
643.991	0.62
644.113	6.62
644.235	-13.38
644.357	5.62
644.479	-14.38
644.601	3.62
644.723	0.62
644.846	9.62
644.968	-3.38
645.09	-0.38
645.212	-10.38
645.334	16.62
645.456	8.62
645.578	4.62
645.7	15.62
645.822	15.62
645.944	-4.38
646.066	-9.38
646.188	-8.38
646.311	6.62
646.433	8.62
646.555	52.62
646.677	60.62
646.799	24.62
646.921	17.62
647.043	22.62
647.165	-6.38
647.287	-0.38
647.409	10.62
647.531	13.62
647.654	-13.38
647.776	9.62
647.898	15.62
648.02	-10.38
648.142	-12.38
648.264	3.62
648.386	-8.38
648.508	-0.38
648.63	15.62
648.752	3.62
648.874	-4.38
648.997	0.62
649.119	-0.38
649.241	-0.38
649.363	14.62
649.485	8.62
649.607	-2.38
649.729	-5.38
649.851	11.62
649.973	2.62
650.095	13.62
650.217	3.62
650.34	-4.38
650.462	7.62
650.584	3.62
650.706	16.62
650.828	12.62
650.95	-15.38
651.072	9.62
651.194	-14.38
651.316	-9.38
651.438	2.62
651.56	-14.38
651.683	-4.38
651.805	-2.38
651.927	-1.38
652.049	5.62
652.171	12.62
652.293	3.62
652.415	1.62
652.537	-14.38
652.659	2.62
652.781	-1.38
652.903	9.62
653.026	10.62
653.148	12.62
653.27	3.62
653.392	4.62
653.514	-8.38
653.636	-1.38
653.758	-6.38
653.88	-3.38
654.002	-8.38
654.124	4.62
654.247	3.62
654.369	11.62
654.491	12.62
654.613	8.62
654.735	5.62
654.857	3.62
654.979	6.62
655.101	8.62
655.223	27.62
655.345	26.62
655.468	17.62
655.59	3.62
655.712	8.62
655.834	27.62
655.956	23.62
656.078	33.62
656.2	35.62
656.322	33.62
656.444	15.62
656.566	43.62
656.689	36.62
656.811	53.62
656.933	75.62
657.055	70.62
657.177	142.62
657.299	234.62
657.421	493.62
657.543	1848.62
657.665	12381.62
657.787	15148.62
657.91	15189.62
658.032	15656.62
658.154	4577.62
658.276	3070.62
658.398	1075.62
658.52	976.62
658.642	446.62
658.764	572.62
658.886	271.62
659.009	414.62
659.131	211.62
659.253	299.62
659.375	142.62
659.497	237.62
659.619	124.62
659.741	187.62
659.863	88.62
659.985	154.62
660.108	79.62
660.23	126.62
660.352	59.62
660.474	115.62
660.596	72.62
660.718	117.62
660.84	54.62
660.962	106.62
661.084	41.62
661.207	101.62
661.329	56.62
661.451	83.62
661.573	30.62
661.695	97.62
661.817	46.62
661.939	93.62
662.061	53.62
662.184	76.62
662.306	37.62
662.428	76.62
662.55	41.62
662.672	65.62
662.794	43.62
662.916	55.62
663.038	27.62
663.161	84.62
663.283	34.62
663.405	58.62
663.527	11.62
663.649	46.62
663.771	10.62
663.893	54.62
664.015	25.62
664.138	44.62
664.26	19.62
664.382	38.62
664.504	11.62
664.626	5.62
664.748	10.62
664.87	32.62
664.992	38.62
665.115	45.62
665.237	26.62
665.359	8.62
665.481	18.62
665.603	35.62
665.725	11.62
665.847	18.62
665.97	-8.38
666.092	38.62
666.214	17.62
666.336	32.62
666.458	20.62
666.58	41.62
666.702	-2.38
666.825	7.62
666.947	3.62
667.069	39.62
667.191	12.62
667.313	27.62
667.435	6.62
667.557	6.62
667.68	7.62
667.802	18.62
667.924	-4.38
668.046	28.62
668.168	6.62
668.29	43.62
668.412	10.62
668.535	14.62
668.657	16.62
668.779	26.62
668.901	12.62
669.023	30.62
669.145	8.62
669.267	36.62
669.39	5.62
669.512	24.62
669.634	8.62
669.756	17.62
669.878	1.62
670	17.62
670.123	-10.38
670.245	15.62
670.367	12.62
670.489	19.62
670.611	6.62
670.733	-0.38
670.856	-3.38
670.978	33.62
671.1	-2.38
671.222	23.62
671.344	-11.38
671.466	3.62
671.589	4.62
671.711	15.62
671.833	-22.38
671.955	6.62
672.077	-3.38
672.199	34.62
672.322	15.62
672.444	6.62
672.566	7.62
672.688	11.62
672.81	9.62
672.932	33.62
673.055	4.62
673.177	-0.38
673.299	2.62
673.421	2.62
673.543	8.62
673.665	32.62
673.788	19.62
673.91	4.62
674.032	-19.38
674.154	11.62
674.276	5.62
674.399	-8.38
674.521	-6.38
674.643	4.62
674.765	-12.38
674.887	13.62
675.009	-0.38
675.132	20.62
675.254	0.62
675.376	16.62
675.498	-1.38
675.62	11.62
675.743	-5.38
675.865	21.62
675.987	0.62
676.109	23.62
676.231	12.62
676.354	17.62
676.476	-9.38
676.598	6.62
676.72	-2.38
676.842	7.62
676.965	-4.38
677.087	5.62
677.209	5.62
677.331	17.62
677.453	-4.38
677.576	2.62
677.698	3.62
677.82	5.62
677.942	-21.38
678.064	4.62
678.187	1.62
678.309	32.62
678.431	22.62
678.553	-0.38
678.675	15.62
678.798	17.62
678.92	14.62
679.042	-14.38
679.164	-16.38
679.286	22.62
679.409	-2.38
679.531	-4.38
679.653	1.62
679.775	11.62
679.898	1.62
680.02	1.62
680.142	-6.38
680.264	1.62
680.386	-9.38
680.509	22.62
680.631	2.62
680.753	-1.38
680.875	-19.38
680.998	-1.38
681.12	-5.38
681.242	13.62
681.364	-14.38
681.486	-1.38
681.609	-14.38
681.731	-2.38
681.853	-6.38
681.975	6.62
682.098	19.62
682.22	22.62
682.342	7.62
682.464	30.62
682.587	-2.38
682.709	-3.38
682.831	-1.38
682.953	-1.38
683.076	-0.38
683.198	12.62
683.32	-0.38
683.442	1.62
683.565	17.62
683.687	-1.38
683.809	-0.38
683.931	-17.38
684.054	9.62
684.176	26.62
684.298	23.62
684.42	11.62
684.543	-0.38
684.665	-1.38
684.787	4.62
684.909	0.62
685.032	-5.38
685.154	-6.38
685.276	12.62
685.398	-0.38
685.521	-5.38
685.643	-2.38
685.765	1.62
685.887	-2.38
686.01	1.62
686.132	-5.38
686.254	1.62
686.377	13.62
686.499	1.62
686.621	9.62
686.743	3.62
686.866	-10.38
686.988	20.62
687.11	33.62
687.232	-10.38
687.355	-15.38
687.477	7.62
687.599	10.62
687.722	-10.38
687.844	2.62
687.966	-2.38
688.088	2.62
688.211	10.62
688.333	25.62
688.455	10.62
688.578	14.62
688.7	2.62
688.822	2.62
688.944	-16.38
689.067	43.62
689.189	1.62
689.311	6.62
689.434	-6.38
689.556	0.62
689.678	-1.38
689.801	5.62
689.923	15.62
690.045	13.62
690.167	15.62
690.29	20.62
690.412	-6.38
690.534	-5.38
690.657	9.62
690.779	-0.38
690.901	11.62
691.024	5.62
691.146	-1.38
691.268	-16.38
691.391	-10.38
691.513	12.62
691.635	-10.38
691.758	25.62
691.88	7.62
692.002	-9.38
692.125	6.62
692.247	-0.38
692.369	-2.38
692.492	7.62
692.614	-1.38
692.736	1.62
692.859	-9.38
692.981	10.62
693.103	5.62
693.226	2.62
693.348	26.62
693.47	17.62
693.593	-12.38
693.715	-9.38
693.837	-0.38
693.96	4.62
694.082	-22.38
694.204	-1.38
694.327	-12.38
694.449	3.62
694.571	8.62
694.694	-2.38
694.816	12.62
694.938	10.62
695.061	-0.38
695.183	9.62
695.305	4.62
695.428	-2.38
695.55	3.62
695.672	10.62
695.795	1.62
695.917	13.62
696.04	-8.38
696.162	3.62
696.284	-14.38
696.407	-1.38
696.529	9.62
696.651	26.62
696.774	12.62
696.896	28.62
697.019	9.62
697.141	11.62
697.263	10.62
697.386	-6.38
697.508	11.62
697.63	17.62
697.753	9.62
697.875	-0.38
697.998	-11.38
698.12	11.62
698.242	-9.38
698.365	-8.38
698.487	0.62
698.61	21.62
698.732	3.62
698.854	5.62
698.977	8.62
699.099	15.62
699.221	1.62
699.344	5.62
699.466	-8.38
699.589	-3.38
699.711	-6.38
699.834	0.62
699.956	16.62
700.078	13.62
700.201	-10.38
700.323	12.62
700.446	9.62
700.568	15.62
700.69	1.62
700.813	3.62
700.935	-3.38
701.058	-0.38
701.18	-0.38
701.302	19.62
701.425	-0.38
701.547	-0.38
701.67	-8.38
701.792	4.62
701.915	8.62
702.037	-11.38
702.159	4.62
702.282	1.62
702.404	6.62
702.527	14.62
702.649	11.62
702.772	22.62
702.894	1.62
703.017	15.62
703.139	4.62
703.261	18.62
703.384	14.62
703.506	-25.38
703.629	-6.38
703.751	19.62
703.874	13.62
703.996	3.62
704.119	-18.38
704.241	11.62
704.364	-16.38
704.486	24.62
704.608	-0.38
704.731	-14.38
704.853	-6.38
704.976	-3.38
705.098	1.62
705.221	-6.38
705.343	-3.38
705.466	15.62
705.588	11.62
705.711	15.62
705.833	2.62
705.956	-5.38
706.078	21.62
706.201	14.62
706.323	-0.38
706.446	0.62
