Data from LowRes_H2_15_26_11_07_2024_HR4C61881__7__15-28-14-337.txt Node

Date: Thu Nov 07 15:28:14 EST 2024
User: crc00042
Spectrometer: HR4C6188
Trigger mode: 4
Integration Time (sec): 1.000000E-1
Scans to average: 1
Electric dark correction enabled: true
Nonlinearity correction enabled: false
Boxcar width: 0
XAxis mode: Wavelengths
Number of Pixels in Spectrum: 3648
>>>>>Begin Spectral Data<<<<<
245.66	-105.38
245.797	-105.38
245.934	-105.38
246.071	-73.38
246.208	3.62
246.344	3.62
246.481	-8.38
246.618	-12.38
246.755	-1.38
246.892	-13.38
247.029	2.62
247.165	-2.38
247.302	19.62
247.439	-5.38
247.576	23.62
247.713	-17.38
247.849	19.62
247.986	-8.38
248.123	5.62
248.26	0.62
248.396	-3.38
248.533	19.62
248.67	-6.38
248.806	-4.38
248.943	-6.38
249.08	-16.38
249.216	0.62
249.353	-9.38
249.49	2.62
249.626	-2.38
249.763	-1.38
249.9	1.62
250.036	-6.38
250.173	4.62
250.309	18.62
250.446	12.62
250.582	-8.38
250.719	-0.38
250.856	4.62
250.992	-3.38
251.129	7.62
251.265	-18.38
251.402	20.62
251.538	-7.38
251.675	-16.38
251.811	1.62
251.948	33.62
252.084	16.62
252.221	-0.38
252.357	3.62
252.493	23.62
252.63	27.62
252.766	31.62
252.903	19.62
253.039	3.62
253.175	17.62
253.312	17.62
253.448	-7.38
253.585	-11.38
253.721	2.62
253.857	-24.38
253.994	5.62
254.13	6.62
254.266	2.62
254.403	-4.38
254.539	-0.38
254.675	0.62
254.811	-3.38
254.948	10.62
255.084	-11.38
255.22	-3.38
255.356	-0.38
255.493	-0.38
255.629	8.62
255.765	9.62
255.901	11.62
256.037	12.62
256.174	15.62
256.31	-0.38
256.446	-3.38
256.582	14.62
256.718	7.62
256.854	18.62
256.991	8.62
257.127	14.62
257.263	2.62
257.399	10.62
257.535	14.62
257.671	2.62
257.807	-10.38
257.943	-5.38
258.079	-21.38
258.215	-23.38
258.351	17.62
258.487	-0.38
258.623	26.62
258.759	11.62
258.895	-2.38
259.031	-12.38
259.167	0.62
259.303	14.62
259.439	-8.38
259.575	18.62
259.711	-2.38
259.847	5.62
259.983	11.62
260.119	-5.38
260.255	-17.38
260.391	18.62
260.527	12.62
260.663	26.62
260.799	31.62
260.934	8.62
261.07	-22.38
261.206	-22.38
261.342	-8.38
261.478	17.62
261.614	3.62
261.749	27.62
261.885	-7.38
262.021	-3.38
262.157	9.62
262.293	9.62
262.428	4.62
262.564	9.62
262.7	21.62
262.836	-1.38
262.971	25.62
263.107	7.62
263.243	20.62
263.378	9.62
263.514	-5.38
263.65	-3.38
263.785	-1.38
263.921	-0.38
264.057	-19.38
264.192	-0.38
264.328	22.62
264.464	-16.38
264.599	-1.38
264.735	34.62
264.871	2.62
265.006	6.62
265.142	-1.38
265.277	-1.38
265.413	25.62
265.548	17.62
265.684	25.62
265.819	-6.38
265.955	-5.38
266.091	-8.38
266.226	-10.38
266.362	1.62
266.497	9.62
266.633	5.62
266.768	-9.38
266.903	-0.38
267.039	2.62
267.174	41.62
267.31	-2.38
267.445	-6.38
267.581	0.62
267.716	8.62
267.851	4.62
267.987	8.62
268.122	26.62
268.258	-2.38
268.393	-11.38
268.528	-8.38
268.664	-15.38
268.799	-6.38
268.934	-1.38
269.07	12.62
269.205	-1.38
269.34	15.62
269.476	14.62
269.611	-9.38
269.746	31.62
269.881	5.62
270.017	5.62
270.152	12.62
270.287	-4.38
270.422	12.62
270.558	-9.38
270.693	7.62
270.828	-3.38
270.963	-0.38
271.098	9.62
271.234	-6.38
271.369	22.62
271.504	14.62
271.639	-7.38
271.774	11.62
271.909	8.62
272.045	-14.38
272.18	18.62
272.315	12.62
272.45	29.62
272.585	-6.38
272.72	20.62
272.855	8.62
272.99	8.62
273.125	5.62
273.26	-5.38
273.395	-10.38
273.53	4.62
273.665	11.62
273.8	-0.38
273.935	12.62
274.07	-5.38
274.205	-2.38
274.34	-12.38
274.475	2.62
274.61	13.62
274.745	13.62
274.88	24.62
275.015	-0.38
275.15	21.62
275.285	23.62
275.42	-0.38
275.555	40.62
275.69	3.62
275.825	10.62
275.959	20.62
276.094	-3.38
276.229	6.62
276.364	-5.38
276.499	7.62
276.634	0.62
276.768	-2.38
276.903	8.62
277.038	15.62
277.173	28.62
277.308	-6.38
277.442	-9.38
277.577	-19.38
277.712	4.62
277.847	-0.38
277.981	1.62
278.116	-4.38
278.251	13.62
278.386	-0.38
278.52	4.62
278.655	12.62
278.79	17.62
278.924	15.62
279.059	-10.38
279.194	-23.38
279.328	30.62
279.463	15.62
279.598	27.62
279.732	6.62
279.867	21.62
280.001	-6.38
280.136	2.62
280.271	15.62
280.405	5.62
280.54	20.62
280.674	-1.38
280.809	18.62
280.943	6.62
281.078	-0.38
281.213	26.62
281.347	20.62
281.482	10.62
281.616	12.62
281.751	1.62
281.885	-13.38
282.02	-9.38
282.154	2.62
282.288	-9.38
282.423	-15.38
282.557	0.62
282.692	0.62
282.826	14.62
282.961	29.62
283.095	4.62
283.229	0.62
283.364	-2.38
283.498	1.62
283.633	5.62
283.767	2.62
283.901	0.62
284.036	0.62
284.17	3.62
284.304	-1.38
284.439	14.62
284.573	3.62
284.707	11.62
284.842	9.62
284.976	1.62
285.11	0.62
285.244	11.62
285.379	55.62
285.513	12.62
285.647	22.62
285.781	15.62
285.916	26.62
286.05	7.62
286.184	38.62
286.318	11.62
286.453	-19.38
286.587	11.62
286.721	-0.38
286.855	-1.38
286.989	18.62
287.123	-9.38
287.258	0.62
287.392	-3.38
287.526	11.62
287.66	1.62
287.794	-6.38
287.928	2.62
288.062	9.62
288.196	2.62
288.33	10.62
288.464	24.62
288.598	16.62
288.733	5.62
288.867	23.62
289.001	-5.38
289.135	2.62
289.269	13.62
289.403	10.62
289.537	-0.38
289.671	22.62
289.805	-6.38
289.939	-4.38
290.073	-1.38
290.207	19.62
290.34	-1.38
290.474	22.62
290.608	21.62
290.742	-7.38
290.876	-1.38
291.01	2.62
291.144	19.62
291.278	16.62
291.412	6.62
291.546	-0.38
291.679	3.62
291.813	-5.38
291.947	19.62
292.081	-2.38
292.215	6.62
292.349	10.62
292.482	15.62
292.616	12.62
292.75	4.62
292.884	-1.38
293.018	2.62
293.151	-11.38
293.285	4.62
293.419	1.62
293.553	-6.38
293.686	-0.38
293.82	18.62
293.954	12.62
294.088	37.62
294.221	-5.38
294.355	19.62
294.489	9.62
294.622	-8.38
294.756	-3.38
294.89	19.62
295.023	17.62
295.157	12.62
295.291	-1.38
295.424	19.62
295.558	4.62
295.691	2.62
295.825	-2.38
295.959	6.62
296.092	11.62
296.226	13.62
296.359	17.62
296.493	25.62
296.627	1.62
296.76	6.62
296.894	4.62
297.027	7.62
297.161	9.62
297.294	-8.38
297.428	2.62
297.561	25.62
297.695	6.62
297.828	13.62
297.962	1.62
298.095	-5.38
298.229	8.62
298.362	-14.38
298.495	-2.38
298.629	-14.38
298.762	2.62
298.896	-20.38
299.029	-38.38
299.162	9.62
299.296	4.62
299.429	0.62
299.563	5.62
299.696	17.62
299.829	0.62
299.963	22.62
300.096	14.62
300.229	17.62
300.363	7.62
300.496	10.62
300.629	-5.38
300.763	-15.38
300.896	-10.38
301.029	18.62
301.162	8.62
301.296	0.62
301.429	23.62
301.562	-32.38
301.695	21.62
301.829	-5.38
301.962	8.62
302.095	-0.38
302.228	-16.38
302.362	0.62
302.495	1.62
302.628	15.62
302.761	-5.38
302.894	13.62
303.027	17.62
303.161	-3.38
303.294	1.62
303.427	20.62
303.56	4.62
303.693	6.62
303.826	0.62
303.959	-5.38
304.092	12.62
304.225	-5.38
304.359	3.62
304.492	14.62
304.625	-0.38
304.758	17.62
304.891	-13.38
305.024	8.62
305.157	3.62
305.29	-3.38
305.423	3.62
305.556	16.62
305.689	18.62
305.822	0.62
305.955	12.62
306.088	5.62
306.221	14.62
306.354	2.62
306.487	-15.38
306.62	-21.38
306.752	-8.38
306.885	10.62
307.018	-4.38
307.151	21.62
307.284	25.62
307.417	0.62
307.55	21.62
307.683	0.62
307.816	7.62
307.948	-0.38
308.081	14.62
308.214	12.62
308.347	44.62
308.48	1.62
308.613	-4.38
308.745	-2.38
308.878	10.62
309.011	-1.38
309.144	32.62
309.277	-8.38
309.409	13.62
309.542	13.62
309.675	15.62
309.808	-4.38
309.94	26.62
310.073	4.62
310.206	15.62
310.339	12.62
310.471	-15.38
310.604	15.62
310.737	4.62
310.869	16.62
311.002	-7.38
311.135	7.62
311.267	-16.38
311.4	15.62
311.533	39.62
311.665	0.62
311.798	-7.38
311.93	21.62
312.063	10.62
312.196	16.62
312.328	-7.38
312.461	-2.38
312.593	8.62
312.726	5.62
312.859	-6.38
312.991	4.62
313.124	-21.38
313.256	7.62
313.389	-1.38
313.521	6.62
313.654	2.62
313.786	4.62
313.919	-8.38
314.051	-5.38
314.184	2.62
314.316	-10.38
314.449	-1.38
314.581	-12.38
314.714	13.62
314.846	4.62
314.978	-9.38
315.111	-0.38
315.243	-5.38
315.376	18.62
315.508	16.62
315.641	4.62
315.773	29.62
315.905	20.62
316.038	4.62
316.17	21.62
316.302	1.62
316.435	-11.38
316.567	-1.38
316.699	14.62
316.832	18.62
316.964	12.62
317.096	-2.38
317.229	-7.38
317.361	-23.38
317.493	15.62
317.625	-8.38
317.758	12.62
317.89	22.62
318.022	-2.38
318.155	-3.38
318.287	16.62
318.419	-5.38
318.551	-0.38
318.683	2.62
318.816	10.62
318.948	-6.38
319.08	-7.38
319.212	17.62
319.344	20.62
319.477	-1.38
319.609	27.62
319.741	18.62
319.873	-0.38
320.005	-5.38
320.137	1.62
320.269	12.62
320.401	2.62
320.534	-4.38
320.666	-28.38
320.798	-13.38
320.93	6.62
321.062	-1.38
321.194	20.62
321.326	22.62
321.458	10.62
321.59	4.62
321.722	9.62
321.854	9.62
321.986	3.62
322.118	-4.38
322.25	-4.38
322.382	12.62
322.514	0.62
322.646	6.62
322.778	17.62
322.91	-19.38
323.042	10.62
323.174	12.62
323.306	-19.38
323.438	-12.38
323.57	-4.38
323.702	-7.38
323.834	4.62
323.966	-4.38
324.097	11.62
324.229	23.62
324.361	13.62
324.493	5.62
324.625	-8.38
324.757	7.62
324.889	-6.38
325.021	11.62
325.152	10.62
325.284	29.62
325.416	11.62
325.548	23.62
325.68	-12.38
325.811	20.62
325.943	10.62
326.075	6.62
326.207	-3.38
326.339	9.62
326.47	-9.38
326.602	6.62
326.734	11.62
326.866	6.62
326.997	-6.38
327.129	-6.38
327.261	-10.38
327.392	-19.38
327.524	14.62
327.656	-4.38
327.787	11.62
327.919	6.62
328.051	5.62
328.182	23.62
328.314	39.62
328.446	3.62
328.577	30.62
328.709	23.62
328.841	-0.38
328.972	-3.38
329.104	11.62
329.235	-18.38
329.367	11.62
329.499	-3.38
329.63	18.62
329.762	11.62
329.893	15.62
330.025	8.62
330.156	-4.38
330.288	13.62
330.419	16.62
330.551	5.62
330.683	13.62
330.814	-12.38
330.946	2.62
331.077	1.62
331.208	-12.38
331.34	-17.38
331.471	3.62
331.603	3.62
331.734	-4.38
331.866	9.62
331.997	-4.38
332.129	-3.38
332.26	-1.38
332.392	23.62
332.523	29.62
332.654	-1.38
332.786	-15.38
332.917	11.62
333.048	8.62
333.18	22.62
333.311	5.62
333.443	9.62
333.574	16.62
333.705	19.62
333.837	-5.38
333.968	8.62
334.099	30.62
334.231	24.62
334.362	2.62
334.493	22.62
334.624	16.62
334.756	1.62
334.887	7.62
335.018	0.62
335.15	6.62
335.281	4.62
335.412	28.62
335.543	5.62
335.675	2.62
335.806	14.62
335.937	10.62
336.068	17.62
336.199	43.62
336.331	-0.38
336.462	4.62
336.593	8.62
336.724	13.62
336.855	-1.38
336.986	19.62
337.118	2.62
337.249	0.62
337.38	-9.38
337.511	10.62
337.642	21.62
337.773	3.62
337.904	-3.38
338.035	15.62
338.166	18.62
338.298	19.62
338.429	3.62
338.56	16.62
338.691	37.62
338.822	23.62
338.953	11.62
339.084	22.62
339.215	-2.38
339.346	9.62
339.477	-2.38
339.608	0.62
339.739	4.62
339.87	21.62
340.001	14.62
340.132	24.62
340.263	4.62
340.394	8.62
340.525	13.62
340.656	-26.38
340.787	-7.38
340.918	36.62
341.049	13.62
341.179	8.62
341.31	8.62
341.441	7.62
341.572	16.62
341.703	-12.38
341.834	-3.38
341.965	20.62
342.096	-8.38
342.227	-1.38
342.357	11.62
342.488	10.62
342.619	18.62
342.75	7.62
342.881	0.62
343.012	14.62
343.142	20.62
343.273	-0.38
343.404	12.62
343.535	36.62
343.666	30.62
343.796	17.62
343.927	24.62
344.058	18.62
344.189	26.62
344.319	19.62
344.45	11.62
344.581	37.62
344.712	-15.38
344.842	6.62
344.973	-0.38
345.104	19.62
345.234	14.62
345.365	7.62
345.496	13.62
345.626	2.62
345.757	15.62
345.888	-4.38
346.018	7.62
346.149	12.62
346.28	23.62
346.41	-1.38
346.541	-2.38
346.672	7.62
346.802	20.62
346.933	20.62
347.063	-2.38
347.194	26.62
347.325	9.62
347.455	31.62
347.586	3.62
347.716	-21.38
347.847	10.62
347.977	14.62
348.108	18.62
348.238	12.62
348.369	5.62
348.499	13.62
348.63	6.62
348.76	10.62
348.891	10.62
349.021	2.62
349.152	-0.38
349.282	11.62
349.413	-0.38
349.543	18.62
349.674	5.62
349.804	29.62
349.935	-9.38
350.065	-1.38
350.196	-1.38
350.326	4.62
350.456	6.62
350.587	14.62
350.717	10.62
350.848	13.62
350.978	9.62
351.108	-15.38
351.239	15.62
351.369	10.62
351.499	0.62
351.63	13.62
351.76	-3.38
351.89	-0.38
352.021	11.62
352.151	6.62
352.281	9.62
352.412	10.62
352.542	4.62
352.672	-3.38
352.803	-4.38
352.933	25.62
353.063	14.62
353.193	9.62
353.324	11.62
353.454	19.62
353.584	25.62
353.714	4.62
353.845	-5.38
353.975	1.62
354.105	7.62
354.235	12.62
354.365	-0.38
354.496	9.62
354.626	20.62
354.756	-9.38
354.886	5.62
355.016	9.62
355.146	3.62
355.277	4.62
355.407	2.62
355.537	13.62
355.667	20.62
355.797	3.62
355.927	0.62
356.057	-5.38
356.187	2.62
356.318	9.62
356.448	-1.38
356.578	18.62
356.708	4.62
356.838	4.62
356.968	11.62
357.098	12.62
357.228	11.62
357.358	11.62
357.488	-1.38
357.618	22.62
357.748	17.62
357.878	16.62
358.008	-4.38
358.138	2.62
358.268	3.62
358.398	34.62
358.528	-1.38
358.658	11.62
358.788	16.62
358.918	4.62
359.048	-1.38
359.178	21.62
359.308	15.62
359.438	32.62
359.568	29.62
359.698	23.62
359.827	12.62
359.957	15.62
360.087	16.62
360.217	6.62
360.347	-3.38
360.477	19.62
360.607	-7.38
360.737	20.62
360.866	4.62
360.996	-9.38
361.126	-11.38
361.256	13.62
361.386	15.62
361.516	25.62
361.645	8.62
361.775	22.62
361.905	-4.38
362.035	18.62
362.165	-8.38
362.294	7.62
362.424	3.62
362.554	17.62
362.684	-17.38
362.813	-4.38
362.943	6.62
363.073	5.62
363.203	6.62
363.332	10.62
363.462	-9.38
363.592	3.62
363.721	-11.38
363.851	-2.38
363.981	16.62
364.111	5.62
364.24	-7.38
364.37	17.62
364.5	38.62
364.629	17.62
364.759	-2.38
364.888	-3.38
365.018	16.62
365.148	15.62
365.277	9.62
365.407	20.62
365.537	19.62
365.666	7.62
365.796	-3.38
365.925	14.62
366.055	18.62
366.184	4.62
366.314	9.62
366.444	27.62
366.573	16.62
366.703	6.62
366.832	15.62
366.962	4.62
367.091	15.62
367.221	12.62
367.35	17.62
367.48	63.62
367.609	0.62
367.739	6.62
367.868	7.62
367.998	15.62
368.127	12.62
368.257	15.62
368.386	29.62
368.516	19.62
368.645	3.62
368.775	11.62
368.904	-3.38
369.033	6.62
369.163	7.62
369.292	18.62
369.422	-2.38
369.551	3.62
369.68	27.62
369.81	14.62
369.939	6.62
370.069	25.62
370.198	33.62
370.327	5.62
370.457	4.62
370.586	5.62
370.715	5.62
370.845	5.62
370.974	14.62
371.103	26.62
371.233	11.62
371.362	4.62
371.491	-1.38
371.621	21.62
371.75	13.62
371.879	5.62
372.008	-10.38
372.138	21.62
372.267	13.62
372.396	10.62
372.525	8.62
372.655	-1.38
372.784	3.62
372.913	14.62
373.042	-1.38
373.172	32.62
373.301	-12.38
373.43	4.62
373.559	-1.38
373.688	1.62
373.818	8.62
373.947	11.62
374.076	9.62
374.205	29.62
374.334	-0.38
374.463	-5.38
374.593	7.62
374.722	12.62
374.851	16.62
374.98	14.62
375.109	12.62
375.238	26.62
375.367	30.62
375.496	-7.38
375.625	-15.38
375.755	23.62
375.884	13.62
376.013	11.62
376.142	-15.38
376.271	6.62
376.4	10.62
376.529	0.62
376.658	17.62
376.787	8.62
376.916	10.62
377.045	5.62
377.174	5.62
377.303	6.62
377.432	15.62
377.561	21.62
377.69	16.62
377.819	15.62
377.948	-4.38
378.077	2.62
378.206	-25.38
378.335	-4.38
378.464	-1.38
378.593	24.62
378.722	-4.38
378.851	14.62
378.98	26.62
379.108	-2.38
379.237	-17.38
379.366	5.62
379.495	18.62
379.624	-4.38
379.753	2.62
379.882	9.62
380.011	5.62
380.14	6.62
380.268	19.62
380.397	1.62
380.526	29.62
380.655	8.62
380.784	-36.38
380.913	-9.38
381.041	-4.38
381.17	-11.38
381.299	-8.38
381.428	19.62
381.557	18.62
381.685	-0.38
381.814	12.62
381.943	15.62
382.072	3.62
382.2	9.62
382.329	16.62
382.458	8.62
382.587	20.62
382.715	26.62
382.844	-1.38
382.973	22.62
383.102	9.62
383.23	-8.38
383.359	-13.38
383.488	9.62
383.616	4.62
383.745	-0.38
383.874	-0.38
384.003	-8.38
384.131	-24.38
384.26	-8.38
384.389	7.62
384.517	-0.38
384.646	-1.38
384.774	7.62
384.903	24.62
385.032	16.62
385.16	0.62
385.289	9.62
385.418	4.62
385.546	10.62
385.675	8.62
385.803	9.62
385.932	-2.38
386.06	6.62
386.189	11.62
386.318	6.62
386.446	-2.38
386.575	10.62
386.703	13.62
386.832	9.62
386.96	-12.38
387.089	0.62
387.217	14.62
387.346	-6.38
387.474	11.62
387.603	8.62
387.731	6.62
387.86	30.62
387.988	12.62
388.117	11.62
388.245	8.62
388.374	-1.38
388.502	14.62
388.631	-10.38
388.759	-4.38
388.888	11.62
389.016	-14.38
389.144	11.62
389.273	0.62
389.401	-2.38
389.53	-9.38
389.658	21.62
389.786	-22.38
389.915	-26.38
390.043	-11.38
390.172	7.62
390.3	40.62
390.428	15.62
390.557	0.62
390.685	0.62
390.813	10.62
390.942	14.62
391.07	0.62
391.198	15.62
391.327	8.62
391.455	1.62
391.583	31.62
391.712	25.62
391.84	14.62
391.968	8.62
392.096	-11.38
392.225	3.62
392.353	6.62
392.481	7.62
392.609	20.62
392.738	14.62
392.866	9.62
392.994	-5.38
393.122	38.62
393.251	-7.38
393.379	-18.38
393.507	-17.38
393.635	5.62
393.764	8.62
393.892	27.62
394.02	8.62
394.148	8.62
394.276	6.62
394.404	21.62
394.533	-0.38
394.661	16.62
394.789	28.62
394.917	33.62
395.045	-7.38
395.173	-18.38
395.302	6.62
395.43	2.62
395.558	20.62
395.686	19.62
395.814	8.62
395.942	-5.38
396.07	-5.38
396.198	19.62
396.326	28.62
396.454	9.62
396.582	6.62
396.711	6.62
396.839	14.62
396.967	5.62
397.095	8.62
397.223	16.62
397.351	20.62
397.479	13.62
397.607	8.62
397.735	0.62
397.863	15.62
397.991	8.62
398.119	7.62
398.247	11.62
398.375	11.62
398.503	-4.38
398.631	21.62
398.759	4.62
398.887	-13.38
399.015	13.62
399.143	16.62
399.271	15.62
399.399	17.62
399.526	21.62
399.654	30.62
399.782	5.62
399.91	30.62
400.038	27.62
400.166	-0.38
400.294	10.62
400.422	8.62
400.55	13.62
400.678	-7.38
400.805	8.62
400.933	5.62
401.061	16.62
401.189	-2.38
401.317	18.62
401.445	31.62
401.573	25.62
401.7	11.62
401.828	-15.38
401.956	8.62
402.084	13.62
402.212	14.62
402.34	2.62
402.467	14.62
402.595	-2.38
402.723	0.62
402.851	33.62
402.978	7.62
403.106	20.62
403.234	20.62
403.362	25.62
403.489	13.62
403.617	1.62
403.745	30.62
403.873	5.62
404	7.62
404.128	1.62
404.256	41.62
404.384	29.62
404.511	8.62
404.639	5.62
404.767	3.62
404.894	8.62
405.022	13.62
405.15	15.62
405.277	9.62
405.405	-0.38
405.533	11.62
405.66	-1.38
405.788	-17.38
405.916	-10.38
406.043	12.62
406.171	-7.38
406.299	12.62
406.426	-2.38
406.554	2.62
406.681	17.62
406.809	8.62
406.937	17.62
407.064	1.62
407.192	29.62
407.319	15.62
407.447	8.62
407.574	27.62
407.702	19.62
407.83	9.62
407.957	4.62
408.085	7.62
408.212	18.62
408.34	23.62
408.467	9.62
408.595	13.62
408.722	6.62
408.85	27.62
408.977	17.62
409.105	4.62
409.232	6.62
409.36	6.62
409.487	10.62
409.615	-3.38
409.742	29.62
409.87	30.62
409.997	39.62
410.125	39.62
410.252	61.62
410.379	70.62
410.507	37.62
410.634	14.62
410.762	15.62
410.889	36.62
411.017	-2.38
411.144	17.62
411.271	2.62
411.399	3.62
411.526	26.62
411.653	20.62
411.781	29.62
411.908	2.62
412.036	-9.38
412.163	22.62
412.29	26.62
412.418	16.62
412.545	22.62
412.672	27.62
412.8	36.62
412.927	16.62
413.054	20.62
413.182	18.62
413.309	12.62
413.436	-9.38
413.564	2.62
413.691	-1.38
413.818	12.62
413.945	6.62
414.073	-2.38
414.2	18.62
414.327	8.62
414.454	12.62
414.582	4.62
414.709	-13.38
414.836	-1.38
414.963	5.62
415.091	16.62
415.218	11.62
415.345	14.62
415.472	19.62
415.6	0.62
415.727	26.62
415.854	20.62
415.981	4.62
416.108	12.62
416.236	7.62
416.363	17.62
416.49	4.62
416.617	-1.38
416.744	21.62
416.871	14.62
416.998	7.62
417.126	0.62
417.253	9.62
417.38	0.62
417.507	6.62
417.634	12.62
417.761	26.62
417.888	28.62
418.015	12.62
418.143	19.62
418.27	14.62
418.397	-4.38
418.524	10.62
418.651	0.62
418.778	20.62
418.905	44.62
419.032	18.62
419.159	11.62
419.286	21.62
419.413	9.62
419.54	37.62
419.667	-1.38
419.794	2.62
419.921	7.62
420.048	6.62
420.175	22.62
420.302	4.62
420.429	22.62
420.556	12.62
420.683	-1.38
420.81	6.62
420.937	10.62
421.064	14.62
421.191	-7.38
421.318	23.62
421.445	34.62
421.572	-7.38
421.699	17.62
421.826	26.62
421.953	16.62
422.08	8.62
422.207	4.62
422.334	6.62
422.461	14.62
422.588	8.62
422.714	6.62
422.841	18.62
422.968	3.62
423.095	16.62
423.222	9.62
423.349	6.62
423.476	8.62
423.603	18.62
423.729	5.62
423.856	1.62
423.983	27.62
424.11	6.62
424.237	12.62
424.364	28.62
424.491	14.62
424.617	-2.38
424.744	8.62
424.871	27.62
424.998	2.62
425.125	-1.38
425.251	7.62
425.378	-0.38
425.505	3.62
425.632	11.62
425.758	0.62
425.885	22.62
426.012	16.62
426.139	29.62
426.266	10.62
426.392	12.62
426.519	15.62
426.646	3.62
426.772	20.62
426.899	4.62
427.026	16.62
427.153	16.62
427.279	28.62
427.406	19.62
427.533	0.62
427.659	8.62
427.786	16.62
427.913	12.62
428.039	17.62
428.166	4.62
428.293	-5.38
428.419	16.62
428.546	4.62
428.673	0.62
428.799	6.62
428.926	16.62
429.053	37.62
429.179	36.62
429.306	8.62
429.433	-1.38
429.559	12.62
429.686	9.62
429.812	1.62
429.939	-3.38
430.066	5.62
430.192	23.62
430.319	22.62
430.445	2.62
430.572	-0.38
430.699	-6.38
430.825	-2.38
430.952	-0.38
431.078	15.62
431.205	11.62
431.331	5.62
431.458	9.62
431.584	22.62
431.711	-6.38
431.837	7.62
431.964	0.62
432.09	14.62
432.217	-13.38
432.343	2.62
432.47	14.62
432.596	5.62
432.723	0.62
432.849	3.62
432.976	25.62
433.102	20.62
433.229	4.62
433.355	42.62
433.482	68.62
433.608	142.62
433.735	147.62
433.861	134.62
433.987	142.62
434.114	216.62
434.24	183.62
434.367	63.62
434.493	10.62
434.62	39.62
434.746	32.62
434.872	15.62
434.999	7.62
435.125	13.62
435.252	5.62
435.378	24.62
435.504	25.62
435.631	16.62
435.757	14.62
435.883	14.62
436.01	9.62
436.136	19.62
436.262	37.62
436.389	30.62
436.515	16.62
436.641	28.62
436.768	29.62
436.894	4.62
437.02	15.62
437.147	22.62
437.273	14.62
437.399	-3.38
437.526	20.62
437.652	5.62
437.778	15.62
437.904	-5.38
438.031	10.62
438.157	11.62
438.283	11.62
438.409	5.62
438.536	13.62
438.662	26.62
438.788	15.62
438.914	27.62
439.041	17.62
439.167	43.62
439.293	3.62
439.419	5.62
439.546	23.62
439.672	-9.38
439.798	18.62
439.924	10.62
440.05	13.62
440.177	23.62
440.303	10.62
440.429	7.62
440.555	20.62
440.681	19.62
440.807	28.62
440.934	11.62
441.06	0.62
441.186	13.62
441.312	7.62
441.438	11.62
441.564	17.62
441.69	12.62
441.816	16.62
441.943	7.62
442.069	21.62
442.195	20.62
442.321	21.62
442.447	7.62
442.573	13.62
442.699	0.62
442.825	2.62
442.951	14.62
443.077	21.62
443.203	18.62
443.33	10.62
443.456	-14.38
443.582	12.62
443.708	3.62
443.834	27.62
443.96	9.62
444.086	26.62
444.212	28.62
444.338	35.62
444.464	25.62
444.59	39.62
444.716	-0.38
444.842	16.62
444.968	6.62
445.094	16.62
445.22	-3.38
445.346	-10.38
445.472	-0.38
445.598	20.62
445.724	17.62
445.85	16.62
445.976	33.62
446.102	29.62
446.228	34.62
446.354	22.62
446.48	2.62
446.605	23.62
446.731	6.62
446.857	-1.38
446.983	18.62
447.109	4.62
447.235	16.62
447.361	6.62
447.487	16.62
447.613	7.62
447.739	-5.38
447.865	1.62
447.99	-1.38
448.116	28.62
448.242	2.62
448.368	17.62
448.494	20.62
448.62	25.62
448.746	16.62
448.872	16.62
448.997	-2.38
449.123	-8.38
449.249	28.62
449.375	27.62
449.501	7.62
449.627	0.62
449.752	23.62
449.878	-16.38
450.004	-4.38
450.13	7.62
450.256	-0.38
450.381	15.62
450.507	35.62
450.633	10.62
450.759	25.62
450.884	11.62
451.01	27.62
451.136	-5.38
451.262	-2.38
451.388	6.62
451.513	-10.38
451.639	-3.38
451.765	9.62
451.89	16.62
452.016	23.62
452.142	7.62
452.268	22.62
452.393	27.62
452.519	9.62
452.645	12.62
452.771	7.62
452.896	-4.38
453.022	-2.38
453.148	20.62
453.273	35.62
453.399	23.62
453.525	-1.38
453.65	6.62
453.776	20.62
453.902	27.62
454.027	14.62
454.153	13.62
454.279	15.62
454.404	17.62
454.53	42.62
454.656	24.62
454.781	19.62
454.907	7.62
455.032	12.62
455.158	20.62
455.284	11.62
455.409	27.62
455.535	40.62
455.66	31.62
455.786	21.62
455.912	18.62
456.037	0.62
456.163	2.62
456.288	28.62
456.414	19.62
456.539	10.62
456.665	38.62
456.791	14.62
456.916	12.62
457.042	12.62
457.167	9.62
457.293	11.62
457.418	4.62
457.544	11.62
457.669	9.62
457.795	17.62
457.92	0.62
458.046	9.62
458.171	24.62
458.297	19.62
458.422	14.62
458.548	22.62
458.673	5.62
458.799	15.62
458.924	19.62
459.05	14.62
459.175	0.62
459.301	14.62
459.426	18.62
459.552	20.62
459.677	13.62
459.803	15.62
459.928	-5.38
460.053	25.62
460.179	17.62
460.304	37.62
460.43	18.62
460.555	10.62
460.681	-2.38
460.806	11.62
460.931	13.62
461.057	20.62
461.182	15.62
461.308	14.62
461.433	25.62
461.558	0.62
461.684	23.62
461.809	18.62
461.934	19.62
462.06	21.62
462.185	0.62
462.311	-9.38
462.436	24.62
462.561	12.62
462.687	7.62
462.812	17.62
462.937	11.62
463.063	15.62
463.188	-0.38
463.313	22.62
463.439	14.62
463.564	22.62
463.689	3.62
463.814	11.62
463.94	9.62
464.065	50.62
464.19	15.62
464.316	6.62
464.441	3.62
464.566	-11.38
464.692	9.62
464.817	8.62
464.942	-3.38
465.067	11.62
465.193	2.62
465.318	22.62
465.443	15.62
465.568	16.62
465.694	5.62
465.819	14.62
465.944	6.62
466.069	21.62
466.194	8.62
466.32	13.62
466.445	8.62
466.57	-13.38
466.695	-11.38
466.82	19.62
466.946	21.62
467.071	-1.38
467.196	3.62
467.321	5.62
467.446	6.62
467.572	10.62
467.697	-12.38
467.822	14.62
467.947	32.62
468.072	19.62
468.197	-2.38
468.323	-5.38
468.448	8.62
468.573	9.62
468.698	13.62
468.823	21.62
468.948	21.62
469.073	17.62
469.198	19.62
469.324	28.62
469.449	4.62
469.574	29.62
469.699	11.62
469.824	10.62
469.949	22.62
470.074	16.62
470.199	31.62
470.324	26.62
470.449	26.62
470.574	9.62
470.7	3.62
470.825	16.62
470.95	29.62
471.075	9.62
471.2	7.62
471.325	14.62
471.45	10.62
471.575	-6.38
471.7	10.62
471.825	-10.38
471.95	-5.38
472.075	-2.38
472.2	-10.38
472.325	2.62
472.45	-8.38
472.575	22.62
472.7	18.62
472.825	12.62
472.95	31.62
473.075	20.62
473.2	4.62
473.325	7.62
473.45	7.62
473.575	3.62
473.7	16.62
473.825	22.62
473.95	17.62
474.075	17.62
474.2	13.62
474.325	-3.38
474.45	30.62
474.574	16.62
474.699	24.62
474.824	22.62
474.949	14.62
475.074	-3.38
475.199	14.62
475.324	21.62
475.449	20.62
475.574	4.62
475.699	23.62
475.824	-1.38
475.949	-0.38
476.073	12.62
476.198	7.62
476.323	22.62
476.448	-6.38
476.573	-0.38
476.698	28.62
476.823	28.62
476.947	24.62
477.072	14.62
477.197	20.62
477.322	-2.38
477.447	6.62
477.572	25.62
477.697	26.62
477.821	14.62
477.946	22.62
478.071	15.62
478.196	23.62
478.321	18.62
478.445	25.62
478.57	18.62
478.695	2.62
478.82	22.62
478.945	19.62
479.069	20.62
479.194	11.62
479.319	36.62
479.444	20.62
479.569	12.62
479.693	30.62
479.818	32.62
479.943	23.62
480.068	20.62
480.192	32.62
480.317	14.62
480.442	-0.38
480.567	19.62
480.691	20.62
480.816	20.62
480.941	13.62
481.066	22.62
481.19	19.62
481.315	36.62
481.44	2.62
481.564	-7.38
481.689	23.62
481.814	28.62
481.938	16.62
482.063	0.62
482.188	20.62
482.313	35.62
482.437	22.62
482.562	31.62
482.687	34.62
482.811	26.62
482.936	12.62
483.061	31.62
483.185	23.62
483.31	31.62
483.435	8.62
483.559	26.62
483.684	26.62
483.808	43.62
483.933	13.62
484.058	13.62
484.182	5.62
484.307	18.62
484.432	18.62
484.556	22.62
484.681	24.62
484.805	18.62
484.93	29.62
485.055	42.62
485.179	80.62
485.304	127.62
485.428	347.62
485.553	1223.62
485.678	1697.62
485.802	1574.62
485.927	1753.62
486.051	2591.62
486.176	1617.62
486.3	419.62
486.425	139.62
486.549	86.62
486.674	53.62
486.799	53.62
486.923	33.62
487.048	20.62
487.172	22.62
487.297	23.62
487.421	13.62
487.546	24.62
487.67	24.62
487.795	-8.38
487.919	18.62
488.044	36.62
488.168	39.62
488.293	10.62
488.417	23.62
488.542	30.62
488.666	30.62
488.791	25.62
488.915	8.62
489.04	21.62
489.164	27.62
489.289	45.62
489.413	6.62
489.538	18.62
489.662	39.62
489.786	15.62
489.911	22.62
490.035	26.62
490.16	13.62
490.284	2.62
490.409	-3.38
490.533	14.62
490.658	31.62
490.782	19.62
490.906	21.62
491.031	36.62
491.155	15.62
491.28	22.62
491.404	29.62
491.528	27.62
491.653	5.62
491.777	21.62
491.902	1.62
492.026	18.62
492.15	25.62
492.275	48.62
492.399	17.62
492.524	-0.38
492.648	51.62
492.772	32.62
492.897	26.62
493.021	-0.38
493.145	30.62
493.27	21.62
493.394	8.62
493.518	13.62
493.643	3.62
493.767	25.62
493.891	4.62
494.016	4.62
494.14	-5.38
494.264	24.62
494.389	22.62
494.513	18.62
494.637	12.62
494.762	30.62
494.886	30.62
495.01	25.62
495.134	31.62
495.259	46.62
495.383	19.62
495.507	6.62
495.632	26.62
495.756	62.62
495.88	31.62
496.004	9.62
496.129	6.62
496.253	31.62
496.377	21.62
496.501	33.62
496.626	11.62
496.75	27.62
496.874	21.62
496.998	10.62
497.123	31.62
497.247	17.62
497.371	23.62
497.495	16.62
497.62	21.62
497.744	14.62
497.868	-1.38
497.992	7.62
498.116	13.62
498.241	23.62
498.365	12.62
498.489	13.62
498.613	31.62
498.737	3.62
498.862	28.62
498.986	-2.38
499.11	11.62
499.234	22.62
499.358	12.62
499.482	21.62
499.607	19.62
499.731	12.62
499.855	30.62
499.979	35.62
500.103	17.62
500.227	21.62
500.351	8.62
500.476	6.62
500.6	25.62
500.724	33.62
500.848	10.62
500.972	20.62
501.096	23.62
501.22	24.62
501.344	11.62
501.469	15.62
501.593	19.62
501.717	18.62
501.841	19.62
501.965	10.62
502.089	7.62
502.213	15.62
502.337	14.62
502.461	10.62
502.585	0.62
502.709	8.62
502.834	3.62
502.958	13.62
503.082	17.62
503.206	23.62
503.33	42.62
503.454	27.62
503.578	40.62
503.702	17.62
503.826	9.62
503.95	32.62
504.074	23.62
504.198	8.62
504.322	-3.38
504.446	8.62
504.57	32.62
504.694	20.62
504.818	25.62
504.942	39.62
505.066	13.62
505.19	15.62
505.314	13.62
505.438	18.62
505.562	14.62
505.686	30.62
505.81	13.62
505.934	14.62
506.058	3.62
506.182	13.62
506.306	19.62
506.43	2.62
506.554	30.62
506.678	7.62
506.802	4.62
506.926	26.62
507.05	34.62
507.174	17.62
507.298	20.62
507.422	16.62
507.546	10.62
507.67	34.62
507.794	4.62
507.918	4.62
508.042	13.62
508.165	6.62
508.289	4.62
508.413	19.62
508.537	-5.38
508.661	16.62
508.785	8.62
508.909	15.62
509.033	27.62
509.157	16.62
509.281	27.62
509.405	14.62
509.528	40.62
509.652	24.62
509.776	19.62
509.9	19.62
510.024	11.62
510.148	13.62
510.272	8.62
510.396	20.62
510.519	1.62
510.643	23.62
510.767	6.62
510.891	22.62
511.015	23.62
511.139	25.62
511.263	22.62
511.386	30.62
511.51	20.62
511.634	10.62
511.758	15.62
511.882	3.62
512.006	15.62
512.129	16.62
512.253	43.62
512.377	23.62
512.501	20.62
512.625	20.62
512.748	14.62
512.872	9.62
512.996	13.62
513.12	25.62
513.244	5.62
513.367	18.62
513.491	-0.38
513.615	5.62
513.739	5.62
513.862	4.62
513.986	4.62
514.11	18.62
514.234	3.62
514.358	-0.38
514.481	14.62
514.605	9.62
514.729	32.62
514.853	22.62
514.976	-3.38
515.1	7.62
515.224	14.62
515.348	4.62
515.471	-6.38
515.595	17.62
515.719	3.62
515.842	27.62
515.966	22.62
516.09	42.62
516.214	12.62
516.337	36.62
516.461	34.62
516.585	22.62
516.708	27.62
516.832	35.62
516.956	17.62
517.08	13.62
517.203	2.62
517.327	15.62
517.451	30.62
517.574	70.62
517.698	29.62
517.822	4.62
517.945	35.62
518.069	26.62
518.193	68.62
518.316	47.62
518.44	30.62
518.564	20.62
518.687	19.62
518.811	30.62
518.935	54.62
519.058	25.62
519.182	38.62
519.306	51.62
519.429	22.62
519.553	60.62
519.676	39.62
519.8	28.62
519.924	11.62
520.047	21.62
520.171	12.62
520.294	0.62
520.418	13.62
520.542	1.62
520.665	34.62
520.789	15.62
520.913	7.62
521.036	-11.38
521.16	-9.38
521.283	20.62
521.407	4.62
521.53	-1.38
521.654	-6.38
521.778	22.62
521.901	13.62
522.025	-5.38
522.148	6.62
522.272	24.62
522.395	11.62
522.519	11.62
522.643	-0.38
522.766	8.62
522.89	2.62
523.013	28.62
523.137	-1.38
523.26	12.62
523.384	33.62
523.507	25.62
523.631	3.62
523.754	0.62
523.878	16.62
524.002	27.62
524.125	14.62
524.249	18.62
524.372	11.62
524.496	28.62
524.619	31.62
524.743	8.62
524.866	1.62
524.99	7.62
525.113	-1.38
525.237	22.62
525.36	11.62
525.484	20.62
525.607	15.62
525.731	13.62
525.854	15.62
525.978	29.62
526.101	15.62
526.224	-2.38
526.348	3.62
526.471	15.62
526.595	7.62
526.718	22.62
526.842	0.62
526.965	18.62
527.089	-0.38
527.212	22.62
527.336	-2.38
527.459	10.62
527.582	17.62
527.706	15.62
527.829	5.62
527.953	23.62
528.076	-4.38
528.2	1.62
528.323	19.62
528.446	34.62
528.57	16.62
528.693	28.62
528.817	15.62
528.94	19.62
529.064	31.62
529.187	18.62
529.31	-6.38
529.434	8.62
529.557	2.62
529.68	3.62
529.804	7.62
529.927	12.62
530.051	9.62
530.174	12.62
530.297	9.62
530.421	27.62
530.544	25.62
530.668	16.62
530.791	2.62
530.914	37.62
531.038	17.62
531.161	5.62
531.284	12.62
531.408	15.62
531.531	8.62
531.654	16.62
531.778	-4.38
531.901	-13.38
532.024	3.62
532.148	15.62
532.271	12.62
532.394	18.62
532.518	34.62
532.641	41.62
532.764	35.62
532.888	27.62
533.011	18.62
533.134	-2.38
533.258	16.62
533.381	3.62
533.504	6.62
533.628	9.62
533.751	17.62
533.874	10.62
533.997	16.62
534.121	-2.38
534.244	14.62
534.367	3.62
534.491	8.62
534.614	9.62
534.737	11.62
534.86	13.62
534.984	-9.38
535.107	-4.38
535.23	14.62
535.354	20.62
535.477	-4.38
535.6	15.62
535.723	16.62
535.847	18.62
535.97	4.62
536.093	12.62
536.216	-11.38
536.34	17.62
536.463	7.62
536.586	22.62
536.709	8.62
536.833	8.62
536.956	11.62
537.079	3.62
537.202	24.62
537.325	22.62
537.449	4.62
537.572	32.62
537.695	14.62
537.818	8.62
537.941	-7.38
538.065	11.62
538.188	2.62
538.311	15.62
538.434	19.62
538.558	18.62
538.681	31.62
538.804	26.62
538.927	24.62
539.05	24.62
539.173	19.62
539.297	13.62
539.42	6.62
539.543	14.62
539.666	22.62
539.789	7.62
539.913	3.62
540.036	16.62
540.159	11.62
540.282	-5.38
540.405	11.62
540.528	13.62
540.651	14.62
540.775	-2.38
540.898	7.62
541.021	0.62
541.144	16.62
541.267	13.62
541.39	5.62
541.513	13.62
541.637	11.62
541.76	12.62
541.883	15.62
542.006	22.62
542.129	21.62
542.252	2.62
542.375	18.62
542.498	7.62
542.622	-1.38
542.745	10.62
542.868	13.62
542.991	11.62
543.114	11.62
543.237	33.62
543.36	29.62
543.483	15.62
543.606	22.62
543.73	23.62
543.853	11.62
543.976	12.62
544.099	21.62
544.222	11.62
544.345	0.62
544.468	2.62
544.591	6.62
544.714	17.62
544.837	19.62
544.96	19.62
545.083	24.62
545.206	32.62
545.329	20.62
545.453	-11.38
545.576	-3.38
545.699	20.62
545.822	34.62
545.945	12.62
546.068	6.62
546.191	19.62
546.314	12.62
546.437	14.62
546.56	8.62
546.683	15.62
546.806	32.62
546.929	12.62
547.052	5.62
547.175	12.62
547.298	21.62
547.421	-2.38
547.544	2.62
547.667	21.62
547.79	-6.38
547.913	-13.38
548.036	0.62
548.159	6.62
548.282	16.62
548.405	8.62
548.528	5.62
548.651	5.62
548.774	9.62
548.897	26.62
549.02	46.62
549.143	34.62
549.266	15.62
549.389	17.62
549.512	12.62
549.635	20.62
549.758	30.62
549.881	6.62
550.004	15.62
550.127	-2.38
550.25	-3.38
550.373	-4.38
550.496	21.62
550.619	5.62
550.742	2.62
550.865	-1.38
550.988	22.62
551.111	26.62
551.234	23.62
551.356	11.62
551.479	10.62
551.602	10.62
551.725	23.62
551.848	23.62
551.971	32.62
552.094	30.62
552.217	7.62
552.34	7.62
552.463	-13.38
552.586	18.62
552.709	-13.38
552.832	7.62
552.955	11.62
553.077	14.62
553.2	27.62
553.323	-0.38
553.446	-0.38
553.569	-1.38
553.692	27.62
553.815	16.62
553.938	30.62
554.061	18.62
554.184	22.62
554.306	11.62
554.429	17.62
554.552	7.62
554.675	-14.38
554.798	10.62
554.921	6.62
555.044	-4.38
555.167	21.62
555.29	6.62
555.412	0.62
555.535	11.62
555.658	17.62
555.781	16.62
555.904	14.62
556.027	10.62
556.15	11.62
556.272	12.62
556.395	12.62
556.518	5.62
556.641	10.62
556.764	25.62
556.887	10.62
557.01	8.62
557.132	-10.38
557.255	10.62
557.378	9.62
557.501	17.62
557.624	21.62
557.747	17.62
557.869	-3.38
557.992	6.62
558.115	22.62
558.238	7.62
558.361	15.62
558.483	27.62
558.606	21.62
558.729	-3.38
558.852	23.62
558.975	27.62
559.098	25.62
559.22	10.62
559.343	20.62
559.466	4.62
559.589	17.62
559.712	23.62
559.834	14.62
559.957	0.62
560.08	2.62
560.203	24.62
560.325	23.62
560.448	29.62
560.571	15.62
560.694	6.62
560.817	34.62
560.939	-2.38
561.062	6.62
561.185	18.62
561.308	3.62
561.43	-9.38
561.553	10.62
561.676	-6.38
561.799	24.62
561.921	1.62
562.044	8.62
562.167	-1.38
562.29	28.62
562.413	21.62
562.535	15.62
562.658	14.62
562.781	23.62
562.903	11.62
563.026	7.62
563.149	43.62
563.272	25.62
563.394	23.62
563.517	0.62
563.64	-5.38
563.763	5.62
563.885	7.62
564.008	29.62
564.131	9.62
564.254	4.62
564.376	11.62
564.499	4.62
564.622	13.62
564.744	22.62
564.867	1.62
564.99	25.62
565.113	0.62
565.235	14.62
565.358	-8.38
565.481	2.62
565.603	-5.38
565.726	12.62
565.849	2.62
565.971	12.62
566.094	-7.38
566.217	15.62
566.34	9.62
566.462	10.62
566.585	12.62
566.708	23.62
566.83	10.62
566.953	40.62
567.076	9.62
567.198	14.62
567.321	4.62
567.444	28.62
567.566	10.62
567.689	3.62
567.812	12.62
567.934	12.62
568.057	10.62
568.18	18.62
568.302	5.62
568.425	18.62
568.548	20.62
568.67	28.62
568.793	10.62
568.916	5.62
569.038	0.62
569.161	6.62
569.283	9.62
569.406	3.62
569.529	-5.38
569.651	-3.38
569.774	-8.38
569.897	10.62
570.019	32.62
570.142	35.62
570.265	16.62
570.387	20.62
570.51	23.62
570.632	30.62
570.755	14.62
570.878	2.62
571	14.62
571.123	7.62
571.246	37.62
571.368	27.62
571.491	13.62
571.613	3.62
571.736	1.62
571.859	7.62
571.981	15.62
572.104	10.62
572.226	18.62
572.349	-3.38
572.472	-1.38
572.594	8.62
572.717	19.62
572.839	-3.38
572.962	21.62
573.085	20.62
573.207	12.62
573.33	25.62
573.452	16.62
573.575	31.62
573.697	30.62
573.82	2.62
573.943	-0.38
574.065	14.62
574.188	13.62
574.31	27.62
574.433	40.62
574.555	38.62
574.678	3.62
574.801	30.62
574.923	4.62
575.046	21.62
575.168	13.62
575.291	12.62
575.413	25.62
575.536	-9.38
575.659	23.62
575.781	-2.38
575.904	8.62
576.026	11.62
576.149	0.62
576.271	26.62
576.394	8.62
576.516	9.62
576.639	14.62
576.761	0.62
576.884	15.62
577.007	-0.38
577.129	5.62
577.252	14.62
577.374	19.62
577.497	0.62
577.619	6.62
577.742	-0.38
577.864	32.62
577.987	22.62
578.109	15.62
578.232	11.62
578.354	31.62
578.477	16.62
578.599	6.62
578.722	9.62
578.844	13.62
578.967	1.62
579.089	6.62
579.212	9.62
579.334	19.62
579.457	5.62
579.579	16.62
579.702	-2.38
579.824	12.62
579.947	-8.38
580.069	-11.38
580.192	-6.38
580.314	36.62
580.437	10.62
580.559	27.62
580.682	12.62
580.804	16.62
580.927	26.62
581.049	23.62
581.172	25.62
581.294	19.62
581.417	33.62
581.539	8.62
581.662	7.62
581.784	22.62
581.907	12.62
582.029	29.62
582.152	23.62
582.274	26.62
582.396	14.62
582.519	25.62
582.641	10.62
582.764	12.62
582.886	24.62
583.009	10.62
583.131	-0.38
583.254	7.62
583.376	20.62
583.499	18.62
583.621	3.62
583.743	32.62
583.866	23.62
583.988	20.62
584.111	41.62
584.233	13.62
584.356	15.62
584.478	29.62
584.601	-9.38
584.723	-4.38
584.845	29.62
584.968	11.62
585.09	-6.38
585.213	12.62
585.335	18.62
585.458	13.62
585.58	15.62
585.702	20.62
585.825	29.62
585.947	5.62
586.07	-3.38
586.192	3.62
586.315	27.62
586.437	-2.38
586.559	12.62
586.682	13.62
586.804	15.62
586.927	10.62
587.049	10.62
587.171	16.62
587.294	35.62
587.416	36.62
587.539	15.62
587.661	4.62
587.783	21.62
587.906	18.62
588.028	24.62
588.151	14.62
588.273	27.62
588.395	7.62
588.518	20.62
588.64	10.62
588.763	40.62
588.885	13.62
589.007	21.62
589.13	-2.38
589.252	0.62
589.375	10.62
589.497	19.62
589.619	12.62
589.742	20.62
589.864	17.62
589.986	15.62
590.109	8.62
590.231	3.62
590.354	17.62
590.476	2.62
590.598	3.62
590.721	5.62
590.843	9.62
590.965	16.62
591.088	17.62
591.21	15.62
591.332	19.62
591.455	-16.38
591.577	-3.38
591.7	24.62
591.822	11.62
591.944	20.62
592.067	23.62
592.189	20.62
592.311	24.62
592.434	-3.38
592.556	-3.38
592.678	12.62
592.801	20.62
592.923	14.62
593.045	10.62
593.168	29.62
593.29	4.62
593.412	27.62
593.535	12.62
593.657	-0.38
593.779	19.62
593.902	18.62
594.024	3.62
594.146	20.62
594.269	36.62
594.391	16.62
594.513	31.62
594.636	9.62
594.758	-9.38
594.88	23.62
595.003	30.62
595.125	2.62
595.247	12.62
595.37	24.62
595.492	11.62
595.614	20.62
595.737	20.62
595.859	14.62
595.981	10.62
596.104	20.62
596.226	12.62
596.348	20.62
596.471	9.62
596.593	21.62
596.715	10.62
596.838	-11.38
596.96	9.62
597.082	16.62
597.204	-6.38
597.327	19.62
597.449	10.62
597.571	16.62
597.694	28.62
597.816	6.62
597.938	14.62
598.061	16.62
598.183	-4.38
598.305	22.62
598.427	25.62
598.55	10.62
598.672	17.62
598.794	42.62
598.917	1.62
599.039	31.62
599.161	24.62
599.283	7.62
599.406	36.62
599.528	25.62
599.65	23.62
599.773	17.62
599.895	39.62
600.017	15.62
600.139	17.62
600.262	-10.38
600.384	8.62
600.506	18.62
600.628	25.62
600.751	16.62
600.873	9.62
600.995	3.62
601.118	34.62
601.24	7.62
601.362	24.62
601.484	35.62
601.607	5.62
601.729	8.62
601.851	3.62
601.973	21.62
602.096	16.62
602.218	39.62
602.34	16.62
602.462	15.62
602.585	13.62
602.707	-4.38
602.829	7.62
602.951	11.62
603.074	8.62
603.196	18.62
603.318	11.62
603.44	28.62
603.563	5.62
603.685	-2.38
603.807	30.62
603.929	6.62
604.052	19.62
604.174	37.62
604.296	19.62
604.418	19.62
604.541	23.62
604.663	8.62
604.785	15.62
604.907	9.62
605.03	4.62
605.152	38.62
605.274	26.62
605.396	2.62
605.519	2.62
605.641	11.62
605.763	9.62
605.885	28.62
606.008	4.62
606.13	7.62
606.252	28.62
606.374	-13.38
606.496	8.62
606.619	4.62
606.741	13.62
606.863	33.62
606.985	41.62
607.108	28.62
607.23	2.62
607.352	8.62
607.474	9.62
607.596	16.62
607.719	26.62
607.841	34.62
607.963	11.62
608.085	1.62
608.207	39.62
608.33	24.62
608.452	27.62
608.574	15.62
608.696	16.62
608.819	15.62
608.941	15.62
609.063	12.62
609.185	11.62
609.307	9.62
609.43	23.62
609.552	13.62
609.674	4.62
609.796	16.62
609.918	24.62
610.041	23.62
610.163	7.62
610.285	14.62
610.407	14.62
610.529	-2.38
610.652	11.62
610.774	25.62
610.896	14.62
611.018	23.62
611.14	6.62
611.263	-5.38
611.385	-2.38
611.507	7.62
611.629	2.62
611.751	21.62
611.873	32.62
611.996	20.62
612.118	29.62
612.24	13.62
612.362	8.62
612.484	12.62
612.607	11.62
612.729	22.62
612.851	27.62
612.973	15.62
613.095	7.62
613.218	18.62
613.34	8.62
613.462	18.62
613.584	20.62
613.706	20.62
613.828	27.62
613.951	-2.38
614.073	11.62
614.195	-7.38
614.317	10.62
614.439	17.62
614.561	3.62
614.684	36.62
614.806	38.62
614.928	29.62
615.05	24.62
615.172	23.62
615.294	23.62
615.417	11.62
615.539	9.62
615.661	34.62
615.783	31.62
615.905	35.62
616.027	64.62
616.15	108.62
616.272	106.62
616.394	66.62
616.516	42.62
616.638	21.62
616.76	6.62
616.883	12.62
617.005	-4.38
617.127	11.62
617.249	21.62
617.371	11.62
617.493	22.62
617.615	23.62
617.738	-0.38
617.86	-1.38
617.982	6.62
618.104	13.62
618.226	-7.38
618.348	-3.38
618.471	9.62
618.593	12.62
618.715	7.62
618.837	5.62
618.959	16.62
619.081	18.62
619.203	16.62
619.326	10.62
619.448	22.62
619.57	8.62
619.692	6.62
619.814	18.62
619.936	15.62
620.058	16.62
620.181	18.62
620.303	2.62
620.425	32.62
620.547	3.62
620.669	6.62
620.791	11.62
620.913	10.62
621.036	-1.38
621.158	16.62
621.28	28.62
621.402	2.62
621.524	18.62
621.646	16.62
621.768	13.62
621.891	-0.38
622.013	7.62
622.135	-2.38
622.257	2.62
622.379	15.62
622.501	10.62
622.623	3.62
622.745	-1.38
622.868	18.62
622.99	13.62
623.112	13.62
623.234	-0.38
623.356	2.62
623.478	14.62
623.6	15.62
623.722	-2.38
623.845	19.62
623.967	-0.38
624.089	20.62
624.211	8.62
624.333	15.62
624.455	7.62
624.577	13.62
624.699	43.62
624.822	14.62
624.944	-3.38
625.066	8.62
625.188	3.62
625.31	20.62
625.432	34.62
625.554	7.62
625.676	29.62
625.799	7.62
625.921	5.62
626.043	-16.38
626.165	17.62
626.287	-11.38
626.409	20.62
626.531	-10.38
626.653	1.62
626.775	3.62
626.898	20.62
627.02	8.62
627.142	5.62
627.264	16.62
627.386	-2.38
627.508	14.62
627.63	-12.38
627.752	12.62
627.874	20.62
627.997	37.62
628.119	28.62
628.241	25.62
628.363	19.62
628.485	13.62
628.607	8.62
628.729	3.62
628.851	-0.38
628.973	17.62
629.096	7.62
629.218	10.62
629.34	24.62
629.462	5.62
629.584	-1.38
629.706	16.62
629.828	10.62
629.95	8.62
630.072	5.62
630.195	5.62
630.317	9.62
630.439	7.62
630.561	8.62
630.683	-4.38
630.805	0.62
630.927	22.62
631.049	14.62
631.171	4.62
631.293	8.62
631.416	27.62
631.538	16.62
631.66	5.62
631.782	13.62
631.904	13.62
632.026	-1.38
632.148	17.62
632.27	8.62
632.392	10.62
632.514	10.62
632.637	40.62
632.759	7.62
632.881	-11.38
633.003	10.62
633.125	-7.38
633.247	-2.38
633.369	2.62
633.491	8.62
633.613	26.62
633.735	-13.38
633.858	15.62
633.98	23.62
634.102	10.62
634.224	20.62
634.346	-1.38
634.468	4.62
634.59	17.62
634.712	6.62
634.834	1.62
634.956	-8.38
635.078	1.62
635.201	3.62
635.323	5.62
635.445	6.62
635.567	9.62
635.689	26.62
635.811	16.62
635.933	16.62
636.055	-1.38
636.177	2.62
636.299	20.62
636.421	-1.38
636.544	-13.38
636.666	-8.38
636.788	6.62
636.91	6.62
637.032	8.62
637.154	8.62
637.276	34.62
637.398	20.62
637.52	35.62
637.642	2.62
637.764	16.62
637.887	-4.38
638.009	-1.38
638.131	-2.38
638.253	-3.38
638.375	14.62
638.497	13.62
638.619	-3.38
638.741	17.62
638.863	2.62
638.985	-0.38
639.107	4.62
639.23	14.62
639.352	7.62
639.474	5.62
639.596	22.62
639.718	5.62
639.84	16.62
639.962	3.62
640.084	20.62
640.206	20.62
640.328	17.62
640.45	2.62
640.573	2.62
640.695	-2.38
640.817	12.62
640.939	13.62
641.061	-19.38
641.183	0.62
641.305	2.62
641.427	6.62
641.549	12.62
641.671	10.62
641.793	8.62
641.915	7.62
642.038	-0.38
642.16	-7.38
642.282	22.62
642.404	10.62
642.526	22.62
642.648	10.62
642.77	9.62
642.892	2.62
643.014	5.62
643.136	-6.38
643.258	11.62
643.381	32.62
643.503	31.62
643.625	15.62
643.747	-4.38
643.869	0.62
643.991	13.62
644.113	13.62
644.235	14.62
644.357	-13.38
644.479	21.62
644.601	-4.38
644.723	2.62
644.846	20.62
644.968	11.62
645.09	9.62
645.212	8.62
645.334	27.62
645.456	26.62
645.578	22.62
645.7	16.62
645.822	3.62
645.944	17.62
646.066	32.62
646.188	5.62
646.311	27.62
646.433	12.62
646.555	43.62
646.677	49.62
646.799	43.62
646.921	29.62
647.043	40.62
647.165	0.62
647.287	23.62
647.409	7.62
647.531	11.62
647.654	-9.38
647.776	24.62
647.898	18.62
648.02	-1.38
648.142	-7.38
648.264	3.62
648.386	7.62
648.508	6.62
648.63	-2.38
648.752	13.62
648.874	-2.38
648.997	7.62
649.119	26.62
649.241	-3.38
649.363	20.62
649.485	16.62
649.607	19.62
649.729	11.62
649.851	2.62
649.973	20.62
650.095	28.62
650.217	17.62
650.34	1.62
650.462	7.62
650.584	11.62
650.706	17.62
650.828	34.62
650.95	10.62
651.072	3.62
651.194	-11.38
651.316	2.62
651.438	4.62
651.56	11.62
651.683	13.62
651.805	4.62
651.927	6.62
652.049	1.62
652.171	0.62
652.293	10.62
652.415	0.62
652.537	-27.38
652.659	-1.38
652.781	16.62
652.903	21.62
653.026	42.62
653.148	27.62
653.27	4.62
653.392	24.62
653.514	-0.38
653.636	3.62
653.758	12.62
653.88	9.62
654.002	4.62
654.124	-6.38
654.247	13.62
654.369	31.62
654.491	5.62
654.613	22.62
654.735	14.62
654.857	31.62
654.979	24.62
655.101	32.62
655.223	43.62
655.345	24.62
655.468	28.62
655.59	23.62
655.712	38.62
655.834	35.62
655.956	37.62
656.078	25.62
656.2	42.62
656.322	43.62
656.444	20.62
656.566	53.62
656.689	54.62
656.811	72.62
656.933	88.62
657.055	96.62
657.177	151.62
657.299	242.62
657.421	494.62
657.543	1863.62
657.665	12364.62
657.787	15146.62
657.91	15171.62
658.032	15665.62
658.154	4530.62
658.276	2995.62
658.398	1069.62
658.52	989.62
658.642	472.62
658.764	579.62
658.886	281.62
659.009	394.62
659.131	226.62
659.253	314.62
659.375	154.62
659.497	236.62
659.619	133.62
659.741	196.62
659.863	94.62
659.985	160.62
660.108	96.62
660.23	137.62
660.352	74.62
660.474	134.62
660.596	77.62
660.718	140.62
660.84	59.62
660.962	138.62
661.084	40.62
661.207	99.62
661.329	45.62
661.451	94.62
661.573	53.62
661.695	107.62
661.817	59.62
661.939	96.62
662.061	67.62
662.184	74.62
662.306	29.62
662.428	86.62
662.55	71.62
662.672	70.62
662.794	42.62
662.916	67.62
663.038	31.62
663.161	69.62
663.283	44.62
663.405	69.62
663.527	40.62
663.649	77.62
663.771	41.62
663.893	56.62
664.015	37.62
664.138	66.62
664.26	37.62
664.382	53.62
664.504	11.62
664.626	44.62
664.748	19.62
664.87	42.62
664.992	40.62
665.115	59.62
665.237	18.62
665.359	29.62
665.481	18.62
665.603	56.62
665.725	40.62
665.847	40.62
665.97	19.62
666.092	46.62
666.214	29.62
666.336	29.62
666.458	44.62
666.58	37.62
666.702	4.62
666.825	18.62
666.947	14.62
667.069	35.62
667.191	16.62
667.313	42.62
667.435	3.62
667.557	18.62
667.68	14.62
667.802	20.62
667.924	-0.38
668.046	43.62
668.168	30.62
668.29	36.62
668.412	24.62
668.535	34.62
668.657	27.62
668.779	35.62
668.901	13.62
669.023	34.62
669.145	8.62
669.267	26.62
669.39	8.62
669.512	26.62
669.634	20.62
669.756	37.62
669.878	26.62
670	38.62
670.123	7.62
670.245	45.62
670.367	18.62
670.489	32.62
670.611	16.62
670.733	33.62
670.856	20.62
670.978	31.62
671.1	21.62
671.222	35.62
671.344	3.62
671.466	29.62
671.589	-4.38
671.711	2.62
671.833	2.62
671.955	35.62
672.077	10.62
672.199	34.62
672.322	36.62
672.444	35.62
672.566	26.62
672.688	34.62
672.81	37.62
672.932	45.62
673.055	14.62
673.177	-5.38
673.299	6.62
673.421	18.62
673.543	11.62
673.665	22.62
673.788	22.62
673.91	32.62
674.032	9.62
674.154	27.62
674.276	32.62
674.399	19.62
674.521	3.62
674.643	20.62
674.765	21.62
674.887	30.62
675.009	14.62
675.132	24.62
675.254	24.62
675.376	28.62
675.498	11.62
675.62	38.62
675.743	10.62
675.865	42.62
675.987	-1.38
676.109	23.62
676.231	23.62
676.354	38.62
676.476	6.62
676.598	16.62
676.72	26.62
676.842	31.62
676.965	9.62
677.087	37.62
677.209	16.62
677.331	21.62
677.453	14.62
677.576	18.62
677.698	21.62
677.82	11.62
677.942	4.62
678.064	-2.38
678.187	11.62
678.309	22.62
678.431	0.62
678.553	26.62
678.675	22.62
678.798	24.62
678.92	11.62
679.042	5.62
679.164	25.62
679.286	26.62
679.409	-7.38
679.531	0.62
679.653	15.62
679.775	8.62
679.898	21.62
680.02	1.62
680.142	-0.38
680.264	23.62
680.386	-4.38
680.509	34.62
680.631	19.62
680.753	17.62
680.875	4.62
680.998	16.62
681.12	16.62
681.242	27.62
681.364	20.62
681.486	26.62
681.609	7.62
681.731	6.62
681.853	-6.38
681.975	9.62
682.098	22.62
682.22	34.62
682.342	26.62
682.464	39.62
682.587	13.62
682.709	1.62
682.831	-0.38
682.953	-1.38
683.076	14.62
683.198	8.62
683.32	19.62
683.442	15.62
683.565	12.62
683.687	-1.38
683.809	2.62
683.931	-6.38
684.054	30.62
684.176	40.62
684.298	26.62
684.42	7.62
684.543	10.62
684.665	6.62
684.787	3.62
684.909	0.62
685.032	26.62
685.154	-3.38
685.276	8.62
685.398	3.62
685.521	2.62
685.643	15.62
685.765	19.62
685.887	8.62
686.01	22.62
686.132	18.62
686.254	8.62
686.377	12.62
686.499	12.62
686.621	24.62
686.743	10.62
686.866	-0.38
686.988	33.62
687.11	39.62
687.232	9.62
687.355	1.62
687.477	6.62
687.599	28.62
687.722	29.62
687.844	21.62
687.966	13.62
688.088	16.62
688.211	28.62
688.333	10.62
688.455	4.62
688.578	36.62
688.7	25.62
688.822	29.62
688.944	-3.38
689.067	59.62
689.189	17.62
689.311	-4.38
689.434	18.62
689.556	27.62
689.678	11.62
689.801	-10.38
689.923	11.62
690.045	26.62
690.167	38.62
690.29	42.62
690.412	10.62
690.534	29.62
690.657	10.62
690.779	9.62
690.901	23.62
691.024	18.62
691.146	10.62
691.268	-1.38
691.391	12.62
691.513	41.62
691.635	26.62
691.758	36.62
691.88	20.62
692.002	13.62
692.125	2.62
692.247	18.62
692.369	14.62
692.492	15.62
692.614	4.62
692.736	9.62
692.859	2.62
692.981	9.62
693.103	7.62
693.226	21.62
693.348	20.62
693.47	16.62
693.593	13.62
693.715	-2.38
693.837	-1.38
693.96	7.62
694.082	7.62
694.204	33.62
694.327	-1.38
694.449	-9.38
694.571	6.62
694.694	24.62
694.816	8.62
694.938	11.62
695.061	9.62
695.183	7.62
695.305	14.62
695.428	32.62
695.55	4.62
695.672	7.62
695.795	22.62
695.917	28.62
696.04	10.62
696.162	14.62
696.284	10.62
696.407	1.62
696.529	0.62
696.651	29.62
696.774	7.62
696.896	22.62
697.019	10.62
697.141	22.62
697.263	-11.38
697.386	-6.38
697.508	25.62
697.63	41.62
697.753	20.62
697.875	20.62
697.998	-0.38
698.12	18.62
698.242	10.62
698.365	6.62
698.487	4.62
698.61	25.62
698.732	18.62
698.854	26.62
698.977	3.62
699.099	19.62
699.221	-11.38
699.344	1.62
699.466	13.62
699.589	23.62
699.711	-3.38
699.834	0.62
699.956	3.62
700.078	-4.38
700.201	-11.38
700.323	26.62
700.446	-2.38
700.568	4.62
700.69	12.62
700.813	15.62
700.935	3.62
701.058	12.62
701.18	3.62
701.302	16.62
701.425	12.62
701.547	1.62
701.67	9.62
701.792	13.62
701.915	10.62
702.037	-6.38
702.159	4.62
702.282	24.62
702.404	26.62
702.527	11.62
702.649	34.62
702.772	23.62
702.894	1.62
703.017	28.62
703.139	31.62
703.261	28.62
703.384	10.62
703.506	6.62
703.629	-2.38
703.751	18.62
703.874	-2.38
703.996	1.62
704.119	1.62
704.241	24.62
704.364	-2.38
704.486	22.62
704.608	13.62
704.731	12.62
704.853	8.62
704.976	1.62
705.098	22.62
705.221	24.62
705.343	13.62
705.466	25.62
705.588	2.62
705.711	23.62
705.833	21.62
705.956	-4.38
706.078	-8.38
706.201	17.62
706.323	17.62
706.446	-0.38
