Data from LowRes_H2_15_26_11_07_2024_HR4C61881__34__15-28-17-037.txt Node

Date: Thu Nov 07 15:28:17 EST 2024
User: crc00042
Spectrometer: HR4C6188
Trigger mode: 4
Integration Time (sec): 1.000000E-1
Scans to average: 1
Electric dark correction enabled: true
Nonlinearity correction enabled: false
Boxcar width: 0
XAxis mode: Wavelengths
Number of Pixels in Spectrum: 3648
>>>>>Begin Spectral Data<<<<<
245.66	-80.46
245.797	-80.46
245.934	-80.46
246.071	-90.46
246.208	13.54
246.344	13.54
246.481	-19.46
246.618	-13.46
246.755	-4.46
246.892	11.54
247.029	-18.46
247.165	-18.46
247.302	19.54
247.439	-0.46
247.576	18.54
247.713	-4.46
247.849	30.54
247.986	-14.46
248.123	3.54
248.26	11.54
248.396	15.54
248.533	16.54
248.67	-3.46
248.806	-4.46
248.943	-27.46
249.08	5.54
249.216	17.54
249.353	0.54
249.49	-5.46
249.626	20.54
249.763	-4.46
249.9	-8.46
250.036	-0.46
250.173	11.54
250.309	7.54
250.446	-2.46
250.582	-0.46
250.719	-8.46
250.856	2.54
250.992	-8.46
251.129	-3.46
251.265	-7.46
251.402	3.54
251.538	-10.46
251.675	8.54
251.811	12.54
251.948	14.54
252.084	-12.46
252.221	-4.46
252.357	9.54
252.493	27.54
252.63	0.54
252.766	25.54
252.903	6.54
253.039	-8.46
253.175	0.54
253.312	16.54
253.448	3.54
253.585	-17.46
253.721	16.54
253.857	3.54
253.994	7.54
254.13	-10.46
254.266	-2.46
254.403	3.54
254.539	11.54
254.675	8.54
254.811	18.54
254.948	11.54
255.084	-12.46
255.22	4.54
255.356	4.54
255.493	5.54
255.629	6.54
255.765	9.54
255.901	0.54
256.037	21.54
256.174	9.54
256.31	-2.46
256.446	-0.46
256.582	-0.46
256.718	17.54
256.854	12.54
256.991	9.54
257.127	25.54
257.263	-5.46
257.399	7.54
257.535	-0.46
257.671	6.54
257.807	-3.46
257.943	-21.46
258.079	-9.46
258.215	-14.46
258.351	8.54
258.487	9.54
258.623	24.54
258.759	-11.46
258.895	3.54
259.031	7.54
259.167	-7.46
259.303	25.54
259.439	4.54
259.575	12.54
259.711	-22.46
259.847	-5.46
259.983	9.54
260.119	3.54
260.255	-2.46
260.391	10.54
260.527	-4.46
260.663	-3.46
260.799	-1.46
260.934	-9.46
261.07	-19.46
261.206	-29.46
261.342	-32.46
261.478	13.54
261.614	13.54
261.749	-2.46
261.885	-16.46
262.021	13.54
262.157	29.54
262.293	16.54
262.428	-17.46
262.564	-6.46
262.7	11.54
262.836	-2.46
262.971	1.54
263.107	2.54
263.243	8.54
263.378	-5.46
263.514	-36.46
263.65	-10.46
263.785	-18.46
263.921	-3.46
264.057	0.54
264.192	8.54
264.328	4.54
264.464	-17.46
264.599	-9.46
264.735	26.54
264.871	-6.46
265.006	6.54
265.142	5.54
265.277	2.54
265.413	22.54
265.548	10.54
265.684	13.54
265.819	9.54
265.955	-12.46
266.091	4.54
266.226	-8.46
266.362	-3.46
266.497	8.54
266.633	0.54
266.768	-12.46
266.903	1.54
267.039	-4.46
267.174	6.54
267.31	-5.46
267.445	-6.46
267.581	-7.46
267.716	12.54
267.851	4.54
267.987	15.54
268.122	16.54
268.258	6.54
268.393	-21.46
268.528	12.54
268.664	20.54
268.799	1.54
268.934	3.54
269.07	-5.46
269.205	-19.46
269.34	22.54
269.476	14.54
269.611	-23.46
269.746	5.54
269.881	5.54
270.017	12.54
270.152	0.54
270.287	13.54
270.422	3.54
270.558	2.54
270.693	1.54
270.828	3.54
270.963	7.54
271.098	-34.46
271.234	-11.46
271.369	18.54
271.504	-5.46
271.639	-19.46
271.774	4.54
271.909	-4.46
272.045	-20.46
272.18	-19.46
272.315	-8.46
272.45	12.54
272.585	-14.46
272.72	9.54
272.855	1.54
272.99	2.54
273.125	-10.46
273.26	-12.46
273.395	8.54
273.53	6.54
273.665	17.54
273.8	-4.46
273.935	-6.46
274.07	-12.46
274.205	17.54
274.34	-0.46
274.475	-12.46
274.61	14.54
274.745	-12.46
274.88	16.54
275.015	-20.46
275.15	-2.46
275.285	-14.46
275.42	-2.46
275.555	17.54
275.69	4.54
275.825	-4.46
275.959	18.54
276.094	-13.46
276.229	-1.46
276.364	-0.46
276.499	-2.46
276.634	2.54
276.768	-14.46
276.903	6.54
277.038	12.54
277.173	18.54
277.308	-6.46
277.442	4.54
277.577	-7.46
277.712	-1.46
277.847	1.54
277.981	5.54
278.116	-2.46
278.251	9.54
278.386	-2.46
278.52	-9.46
278.655	-0.46
278.79	10.54
278.924	11.54
279.059	14.54
279.194	4.54
279.328	43.54
279.463	12.54
279.598	32.54
279.732	10.54
279.867	-4.46
280.001	2.54
280.136	-4.46
280.271	-9.46
280.405	24.54
280.54	-12.46
280.674	-11.46
280.809	21.54
280.943	-6.46
281.078	0.54
281.213	27.54
281.347	-1.46
281.482	-3.46
281.616	-9.46
281.751	-0.46
281.885	-17.46
282.02	-8.46
282.154	13.54
282.288	-22.46
282.423	-27.46
282.557	-18.46
282.692	-2.46
282.826	6.54
282.961	8.54
283.095	8.54
283.229	-21.46
283.364	-25.46
283.498	-21.46
283.633	23.54
283.767	5.54
283.901	0.54
284.036	13.54
284.17	-17.46
284.304	-8.46
284.439	26.54
284.573	-0.46
284.707	9.54
284.842	-13.46
284.976	-14.46
285.11	-14.46
285.244	0.54
285.379	42.54
285.513	-3.46
285.647	17.54
285.781	-5.46
285.916	23.54
286.05	-7.46
286.184	14.54
286.318	26.54
286.453	-0.46
286.587	-11.46
286.721	-18.46
286.855	7.54
286.989	0.54
287.123	-9.46
287.258	-16.46
287.392	-8.46
287.526	-3.46
287.66	1.54
287.794	-3.46
287.928	-18.46
288.062	5.54
288.196	7.54
288.33	4.54
288.464	5.54
288.598	1.54
288.733	1.54
288.867	10.54
289.001	16.54
289.135	5.54
289.269	-20.46
289.403	-9.46
289.537	-15.46
289.671	-10.46
289.805	2.54
289.939	-7.46
290.073	-14.46
290.207	5.54
290.34	4.54
290.474	14.54
290.608	16.54
290.742	4.54
290.876	-7.46
291.01	-10.46
291.144	26.54
291.278	12.54
291.412	23.54
291.546	3.54
291.679	-4.46
291.813	12.54
291.947	1.54
292.081	-7.46
292.215	-9.46
292.349	-4.46
292.482	23.54
292.616	8.54
292.75	10.54
292.884	5.54
293.018	-1.46
293.151	-32.46
293.285	1.54
293.419	2.54
293.553	-3.46
293.686	-4.46
293.82	15.54
293.954	18.54
294.088	17.54
294.221	-5.46
294.355	1.54
294.489	6.54
294.622	-0.46
294.756	4.54
294.89	-12.46
295.023	-11.46
295.157	6.54
295.291	4.54
295.424	24.54
295.558	6.54
295.691	-4.46
295.825	4.54
295.959	-3.46
296.092	-7.46
296.226	9.54
296.359	18.54
296.493	28.54
296.627	-4.46
296.76	5.54
296.894	-12.46
297.027	6.54
297.161	-2.46
297.294	-3.46
297.428	8.54
297.561	28.54
297.695	-5.46
297.828	2.54
297.962	0.54
298.095	-6.46
298.229	13.54
298.362	6.54
298.495	-16.46
298.629	-18.46
298.762	-15.46
298.896	2.54
299.029	-5.46
299.162	12.54
299.296	9.54
299.429	-18.46
299.563	4.54
299.696	9.54
299.829	-1.46
299.963	22.54
300.096	18.54
300.229	9.54
300.363	8.54
300.496	3.54
300.629	-28.46
300.763	7.54
300.896	4.54
301.029	2.54
301.162	0.54
301.296	-6.46
301.429	12.54
301.562	-8.46
301.695	12.54
301.829	17.54
301.962	17.54
302.095	1.54
302.228	-2.46
302.362	17.54
302.495	-8.46
302.628	6.54
302.761	3.54
302.894	13.54
303.027	4.54
303.161	-9.46
303.294	-4.46
303.427	17.54
303.56	4.54
303.693	-4.46
303.826	16.54
303.959	-0.46
304.092	1.54
304.225	-24.46
304.359	7.54
304.492	6.54
304.625	-0.46
304.758	1.54
304.891	-2.46
305.024	7.54
305.157	8.54
305.29	-6.46
305.423	-11.46
305.556	9.54
305.689	19.54
305.822	9.54
305.955	-0.46
306.088	7.54
306.221	-7.46
306.354	-22.46
306.487	-0.46
306.62	-0.46
306.752	-7.46
306.885	-19.46
307.018	8.54
307.151	20.54
307.284	6.54
307.417	-9.46
307.55	5.54
307.683	-7.46
307.816	19.54
307.948	21.54
308.081	16.54
308.214	5.54
308.347	5.54
308.48	-7.46
308.613	-22.46
308.745	10.54
308.878	-15.46
309.011	1.54
309.144	18.54
309.277	16.54
309.409	8.54
309.542	-3.46
309.675	5.54
309.808	-4.46
309.94	-2.46
310.073	-15.46
310.206	-5.46
310.339	23.54
310.471	-6.46
310.604	15.54
310.737	-9.46
310.869	8.54
311.002	-20.46
311.135	0.54
311.267	-3.46
311.4	9.54
311.533	23.54
311.665	-9.46
311.798	-2.46
311.93	12.54
312.063	39.54
312.196	-5.46
312.328	-6.46
312.461	-6.46
312.593	1.54
312.726	8.54
312.859	-4.46
312.991	3.54
313.124	-20.46
313.256	6.54
313.389	34.54
313.521	-21.46
313.654	0.54
313.786	-14.46
313.919	-15.46
314.051	2.54
314.184	3.54
314.316	-3.46
314.449	-23.46
314.581	-9.46
314.714	-20.46
314.846	25.54
314.978	-21.46
315.111	2.54
315.243	3.54
315.376	0.54
315.508	3.54
315.641	11.54
315.773	7.54
315.905	9.54
316.038	-9.46
316.17	0.54
316.302	-1.46
316.435	8.54
316.567	13.54
316.699	28.54
316.832	-5.46
316.964	1.54
317.096	-18.46
317.229	-15.46
317.361	-15.46
317.493	-16.46
317.625	-17.46
317.758	13.54
317.89	20.54
318.022	-7.46
318.155	3.54
318.287	9.54
318.419	19.54
318.551	8.54
318.683	-3.46
318.816	3.54
318.948	-3.46
319.08	-12.46
319.212	0.54
319.344	11.54
319.477	11.54
319.609	36.54
319.741	29.54
319.873	1.54
320.005	1.54
320.137	-2.46
320.269	-0.46
320.401	5.54
320.534	-7.46
320.666	-26.46
320.798	-17.46
320.93	4.54
321.062	-18.46
321.194	-6.46
321.326	2.54
321.458	6.54
321.59	-21.46
321.722	7.54
321.854	-2.46
321.986	-2.46
322.118	2.54
322.25	3.54
322.382	4.54
322.514	4.54
322.646	-8.46
322.778	17.54
322.91	11.54
323.042	-14.46
323.174	-8.46
323.306	-8.46
323.438	-34.46
323.57	-3.46
323.702	-2.46
323.834	-8.46
323.966	16.54
324.097	9.54
324.229	11.54
324.361	2.54
324.493	1.54
324.625	-15.46
324.757	11.54
324.889	5.54
325.021	13.54
325.152	21.54
325.284	3.54
325.416	-19.46
325.548	18.54
325.68	-4.46
325.811	3.54
325.943	-0.46
326.075	-13.46
326.207	11.54
326.339	-5.46
326.47	13.54
326.602	8.54
326.734	8.54
326.866	1.54
326.997	14.54
327.129	1.54
327.261	-13.46
327.392	-4.46
327.524	6.54
327.656	-7.46
327.787	4.54
327.919	16.54
328.051	12.54
328.182	25.54
328.314	20.54
328.446	-4.46
328.577	12.54
328.709	16.54
328.841	-12.46
328.972	6.54
329.104	7.54
329.235	6.54
329.367	-0.46
329.499	-7.46
329.63	-5.46
329.762	-1.46
329.893	11.54
330.025	2.54
330.156	-23.46
330.288	1.54
330.419	18.54
330.551	-4.46
330.683	5.54
330.814	-11.46
330.946	7.54
331.077	-4.46
331.208	-24.46
331.34	2.54
331.471	-8.46
331.603	11.54
331.734	-11.46
331.866	2.54
331.997	13.54
332.129	17.54
332.26	7.54
332.392	17.54
332.523	3.54
332.654	-3.46
332.786	12.54
332.917	0.54
333.048	4.54
333.18	10.54
333.311	-28.46
333.443	-12.46
333.574	0.54
333.705	8.54
333.837	-36.46
333.968	10.54
334.099	8.54
334.231	14.54
334.362	-2.46
334.493	20.54
334.624	10.54
334.756	8.54
334.887	13.54
335.018	-0.46
335.15	-4.46
335.281	10.54
335.412	9.54
335.543	12.54
335.675	3.54
335.806	6.54
335.937	23.54
336.068	11.54
336.199	25.54
336.331	1.54
336.462	5.54
336.593	23.54
336.724	3.54
336.855	-0.46
336.986	21.54
337.118	4.54
337.249	6.54
337.38	-5.46
337.511	17.54
337.642	13.54
337.773	4.54
337.904	4.54
338.035	-1.46
338.166	9.54
338.298	10.54
338.429	-9.46
338.56	13.54
338.691	33.54
338.822	18.54
338.953	10.54
339.084	22.54
339.215	-1.46
339.346	-5.46
339.477	-13.46
339.608	9.54
339.739	-5.46
339.87	7.54
340.001	-10.46
340.132	0.54
340.263	16.54
340.394	6.54
340.525	-0.46
340.656	-14.46
340.787	-8.46
340.918	22.54
341.049	12.54
341.179	-6.46
341.31	-5.46
341.441	31.54
341.572	11.54
341.703	10.54
341.834	1.54
341.965	1.54
342.096	13.54
342.227	10.54
342.357	-15.46
342.488	9.54
342.619	-11.46
342.75	8.54
342.881	19.54
343.012	29.54
343.142	10.54
343.273	-8.46
343.404	9.54
343.535	28.54
343.666	1.54
343.796	14.54
343.927	23.54
344.058	24.54
344.189	26.54
344.319	1.54
344.45	-15.46
344.581	1.54
344.712	-10.46
344.842	7.54
344.973	-11.46
345.104	2.54
345.234	9.54
345.365	-5.46
345.496	2.54
345.626	-3.46
345.757	13.54
345.888	9.54
346.018	2.54
346.149	12.54
346.28	21.54
346.41	0.54
346.541	10.54
346.672	-6.46
346.802	2.54
346.933	1.54
347.063	2.54
347.194	-2.46
347.325	9.54
347.455	4.54
347.586	5.54
347.716	-6.46
347.847	-7.46
347.977	12.54
348.108	-5.46
348.238	16.54
348.369	-5.46
348.499	-0.46
348.63	-2.46
348.76	12.54
348.891	31.54
349.021	17.54
349.152	20.54
349.282	8.54
349.413	-8.46
349.543	13.54
349.674	-6.46
349.804	17.54
349.935	-9.46
350.065	2.54
350.196	-4.46
350.326	7.54
350.456	-2.46
350.587	24.54
350.717	2.54
350.848	-6.46
350.978	4.54
351.108	-0.46
351.239	25.54
351.369	9.54
351.499	-4.46
351.63	1.54
351.76	5.54
351.89	4.54
352.021	2.54
352.151	-8.46
352.281	12.54
352.412	-1.46
352.542	17.54
352.672	10.54
352.803	-0.46
352.933	-4.46
353.063	7.54
353.193	4.54
353.324	-23.46
353.454	22.54
353.584	8.54
353.714	0.54
353.845	15.54
353.975	18.54
354.105	11.54
354.235	17.54
354.365	-10.46
354.496	4.54
354.626	11.54
354.756	10.54
354.886	8.54
355.016	18.54
355.146	-3.46
355.277	-0.46
355.407	0.54
355.537	4.54
355.667	-7.46
355.797	12.54
355.927	9.54
356.057	8.54
356.187	-0.46
356.318	-18.46
356.448	-4.46
356.578	14.54
356.708	26.54
356.838	1.54
356.968	-4.46
357.098	13.54
357.228	-4.46
357.358	-5.46
357.488	-4.46
357.618	16.54
357.748	5.54
357.878	20.54
358.008	3.54
358.138	6.54
358.268	4.54
358.398	20.54
358.528	-27.46
358.658	-5.46
358.788	6.54
358.918	18.54
359.048	5.54
359.178	16.54
359.308	16.54
359.438	24.54
359.568	33.54
359.698	26.54
359.827	-4.46
359.957	-2.46
360.087	10.54
360.217	14.54
360.347	8.54
360.477	14.54
360.607	-10.46
360.737	21.54
360.866	-3.46
360.996	-6.46
361.126	-5.46
361.256	27.54
361.386	15.54
361.516	27.54
361.645	-14.46
361.775	13.54
361.905	-13.46
362.035	3.54
362.165	-6.46
362.294	1.54
362.424	24.54
362.554	13.54
362.684	-10.46
362.813	-0.46
362.943	10.54
363.073	12.54
363.203	21.54
363.332	17.54
363.462	-3.46
363.592	8.54
363.721	0.54
363.851	8.54
363.981	20.54
364.111	4.54
364.24	-9.46
364.37	17.54
364.5	9.54
364.629	15.54
364.759	1.54
364.888	-5.46
365.018	1.54
365.148	-6.46
365.277	12.54
365.407	3.54
365.537	9.54
365.666	20.54
365.796	-0.46
365.925	-4.46
366.055	-2.46
366.184	-1.46
366.314	-9.46
366.444	8.54
366.573	8.54
366.703	-4.46
366.832	25.54
366.962	21.54
367.091	10.54
367.221	21.54
367.35	10.54
367.48	31.54
367.609	25.54
367.739	-9.46
367.868	-21.46
367.998	-9.46
368.127	12.54
368.257	14.54
368.386	18.54
368.516	-2.46
368.645	13.54
368.775	14.54
368.904	11.54
369.033	6.54
369.163	-4.46
369.292	8.54
369.422	5.54
369.551	11.54
369.68	-3.46
369.81	18.54
369.939	6.54
370.069	28.54
370.198	17.54
370.327	-22.46
370.457	13.54
370.586	-0.46
370.715	6.54
370.845	8.54
370.974	9.54
371.103	38.54
371.233	32.54
371.362	-2.46
371.491	-3.46
371.621	15.54
371.75	8.54
371.879	1.54
372.008	15.54
372.138	6.54
372.267	-1.46
372.396	-15.46
372.525	12.54
372.655	7.54
372.784	-3.46
372.913	14.54
373.042	13.54
373.172	18.54
373.301	-7.46
373.43	3.54
373.559	4.54
373.688	19.54
373.818	33.54
373.947	18.54
374.076	11.54
374.205	-3.46
374.334	-12.46
374.463	2.54
374.593	6.54
374.722	1.54
374.851	9.54
374.98	7.54
375.109	0.54
375.238	13.54
375.367	21.54
375.496	-15.46
375.625	-15.46
375.755	19.54
375.884	21.54
376.013	22.54
376.142	-2.46
376.271	-12.46
376.4	-2.46
376.529	5.54
376.658	11.54
376.787	3.54
376.916	2.54
377.045	-9.46
377.174	3.54
377.303	-6.46
377.432	17.54
377.561	5.54
377.69	-0.46
377.819	23.54
377.948	0.54
378.077	12.54
378.206	-18.46
378.335	-5.46
378.464	-8.46
378.593	32.54
378.722	-8.46
378.851	-7.46
378.98	18.54
379.108	-7.46
379.237	-11.46
379.366	11.54
379.495	10.54
379.624	-6.46
379.753	-4.46
379.882	5.54
380.011	-17.46
380.14	1.54
380.268	10.54
380.397	-3.46
380.526	21.54
380.655	-4.46
380.784	-10.46
380.913	-14.46
381.041	0.54
381.17	-6.46
381.299	15.54
381.428	11.54
381.557	17.54
381.685	19.54
381.814	30.54
381.943	0.54
382.072	-3.46
382.2	-4.46
382.329	-1.46
382.458	-10.46
382.587	27.54
382.715	14.54
382.844	9.54
382.973	17.54
383.102	2.54
383.23	8.54
383.359	0.54
383.488	8.54
383.616	4.54
383.745	-0.46
383.874	1.54
384.003	9.54
384.131	13.54
384.26	-5.46
384.389	21.54
384.517	8.54
384.646	-14.46
384.774	-6.46
384.903	18.54
385.032	13.54
385.16	9.54
385.289	-16.46
385.418	-4.46
385.546	1.54
385.675	6.54
385.803	5.54
385.932	1.54
386.06	-7.46
386.189	-4.46
386.318	0.54
386.446	16.54
386.575	10.54
386.703	22.54
386.832	10.54
386.96	-8.46
387.089	31.54
387.217	-1.46
387.346	-3.46
387.474	20.54
387.603	8.54
387.731	-0.46
387.86	34.54
387.988	7.54
388.117	7.54
388.245	9.54
388.374	-24.46
388.502	3.54
388.631	-25.46
388.759	-3.46
388.888	10.54
389.016	-6.46
389.144	-1.46
389.273	18.54
389.401	3.54
389.53	-21.46
389.658	12.54
389.786	-1.46
389.915	-16.46
390.043	-13.46
390.172	12.54
390.3	24.54
390.428	8.54
390.557	12.54
390.685	-0.46
390.813	17.54
390.942	4.54
391.07	16.54
391.198	-1.46
391.327	15.54
391.455	-8.46
391.583	32.54
391.712	13.54
391.84	6.54
391.968	-2.46
392.096	2.54
392.225	5.54
392.353	13.54
392.481	14.54
392.609	7.54
392.738	-2.46
392.866	16.54
392.994	12.54
393.122	33.54
393.251	-5.46
393.379	0.54
393.507	-6.46
393.635	-4.46
393.764	10.54
393.892	20.54
394.02	7.54
394.148	-11.46
394.276	4.54
394.404	41.54
394.533	-2.46
394.661	20.54
394.789	35.54
394.917	36.54
395.045	-2.46
395.173	3.54
395.302	7.54
395.43	2.54
395.558	-0.46
395.686	0.54
395.814	12.54
395.942	-2.46
396.07	2.54
396.198	-1.46
396.326	4.54
396.454	34.54
396.582	14.54
396.711	1.54
396.839	3.54
396.967	-0.46
397.095	-13.46
397.223	17.54
397.351	17.54
397.479	12.54
397.607	3.54
397.735	26.54
397.863	14.54
397.991	1.54
398.119	-21.46
398.247	-11.46
398.375	-2.46
398.503	-5.46
398.631	7.54
398.759	10.54
398.887	19.54
399.015	-0.46
399.143	23.54
399.271	11.54
399.399	20.54
399.526	30.54
399.654	21.54
399.782	-3.46
399.91	24.54
400.038	32.54
400.166	3.54
400.294	-9.46
400.422	-10.46
400.55	8.54
400.678	5.54
400.805	13.54
400.933	4.54
401.061	21.54
401.189	-11.46
401.317	29.54
401.445	15.54
401.573	17.54
401.7	27.54
401.828	-8.46
401.956	11.54
402.084	27.54
402.212	17.54
402.34	18.54
402.467	9.54
402.595	21.54
402.723	-0.46
402.851	16.54
402.978	8.54
403.106	23.54
403.234	11.54
403.362	16.54
403.489	22.54
403.617	15.54
403.745	8.54
403.873	-8.46
404	-7.46
404.128	-0.46
404.256	12.54
404.384	12.54
404.511	23.54
404.639	4.54
404.767	0.54
404.894	-4.46
405.022	8.54
405.15	8.54
405.277	10.54
405.405	4.54
405.533	-1.46
405.66	1.54
405.788	-4.46
405.916	-1.46
406.043	-13.46
406.171	-21.46
406.299	16.54
406.426	21.54
406.554	19.54
406.681	28.54
406.809	13.54
406.937	4.54
407.064	-5.46
407.192	7.54
407.319	1.54
407.447	5.54
407.574	20.54
407.702	9.54
407.83	-3.46
407.957	1.54
408.085	7.54
408.212	7.54
408.34	-2.46
408.467	2.54
408.595	9.54
408.722	4.54
408.85	6.54
408.977	8.54
409.105	7.54
409.232	9.54
409.36	8.54
409.487	29.54
409.615	19.54
409.742	15.54
409.87	27.54
409.997	35.54
410.125	24.54
410.252	45.54
410.379	59.54
410.507	50.54
410.634	11.54
410.762	17.54
410.889	17.54
411.017	4.54
411.144	16.54
411.271	2.54
411.399	15.54
411.526	4.54
411.653	7.54
411.781	17.54
411.908	25.54
412.036	-1.46
412.163	21.54
412.29	5.54
412.418	-1.46
412.545	7.54
412.672	-6.46
412.8	29.54
412.927	22.54
413.054	24.54
413.182	-3.46
413.309	-0.46
413.436	4.54
413.564	-3.46
413.691	8.54
413.818	19.54
413.945	8.54
414.073	2.54
414.2	16.54
414.327	20.54
414.454	15.54
414.582	15.54
414.709	-22.46
414.836	-1.46
414.963	26.54
415.091	6.54
415.218	14.54
415.345	8.54
415.472	5.54
415.6	9.54
415.727	-2.46
415.854	10.54
415.981	9.54
416.108	7.54
416.236	21.54
416.363	23.54
416.49	5.54
416.617	10.54
416.744	25.54
416.871	24.54
416.998	-2.46
417.126	5.54
417.253	17.54
417.38	11.54
417.507	13.54
417.634	15.54
417.761	20.54
417.888	8.54
418.015	1.54
418.143	24.54
418.27	24.54
418.397	13.54
418.524	13.54
418.651	0.54
418.778	9.54
418.905	22.54
419.032	16.54
419.159	13.54
419.286	27.54
419.413	15.54
419.54	32.54
419.667	8.54
419.794	4.54
419.921	1.54
420.048	12.54
420.175	20.54
420.302	-7.46
420.429	1.54
420.556	0.54
420.683	-2.46
420.81	0.54
420.937	6.54
421.064	11.54
421.191	0.54
421.318	4.54
421.445	19.54
421.572	12.54
421.699	11.54
421.826	13.54
421.953	2.54
422.08	3.54
422.207	0.54
422.334	-6.46
422.461	16.54
422.588	7.54
422.714	-1.46
422.841	23.54
422.968	6.54
423.095	-4.46
423.222	-6.46
423.349	15.54
423.476	12.54
423.603	21.54
423.729	-0.46
423.856	1.54
423.983	22.54
424.11	16.54
424.237	12.54
424.364	9.54
424.491	13.54
424.617	2.54
424.744	2.54
424.871	11.54
424.998	6.54
425.125	2.54
425.251	11.54
425.378	1.54
425.505	14.54
425.632	-0.46
425.758	0.54
425.885	7.54
426.012	10.54
426.139	36.54
426.266	7.54
426.392	4.54
426.519	20.54
426.646	4.54
426.772	37.54
426.899	8.54
427.026	25.54
427.153	25.54
427.279	20.54
427.406	8.54
427.533	0.54
427.659	0.54
427.786	2.54
427.913	12.54
428.039	16.54
428.166	3.54
428.293	0.54
428.419	36.54
428.546	9.54
428.673	-4.46
428.799	-9.46
428.926	23.54
429.053	23.54
429.179	21.54
429.306	17.54
429.433	21.54
429.559	17.54
429.686	8.54
429.812	-1.46
429.939	-13.46
430.066	4.54
430.192	-18.46
430.319	20.54
430.445	5.54
430.572	15.54
430.699	-14.46
430.825	-17.46
430.952	13.54
431.078	10.54
431.205	6.54
431.331	19.54
431.458	17.54
431.584	8.54
431.711	6.54
431.837	20.54
431.964	5.54
432.09	15.54
432.217	-13.46
432.343	13.54
432.47	26.54
432.596	14.54
432.723	5.54
432.849	-0.46
432.976	13.54
433.102	19.54
433.229	11.54
433.355	30.54
433.482	53.54
433.608	173.54
433.735	154.54
433.861	136.54
433.987	140.54
434.114	224.54
434.24	203.54
434.367	65.54
434.493	15.54
434.62	19.54
434.746	25.54
434.872	25.54
434.999	12.54
435.125	0.54
435.252	1.54
435.378	2.54
435.504	6.54
435.631	32.54
435.757	14.54
435.883	4.54
436.01	23.54
436.136	1.54
436.262	11.54
436.389	1.54
436.515	13.54
436.641	4.54
436.768	-0.46
436.894	23.54
437.02	11.54
437.147	24.54
437.273	25.54
437.399	9.54
437.526	4.54
437.652	3.54
437.778	29.54
437.904	-0.46
438.031	16.54
438.157	12.54
438.283	5.54
438.409	7.54
438.536	4.54
438.662	22.54
438.788	13.54
438.914	12.54
439.041	16.54
439.167	20.54
439.293	5.54
439.419	9.54
439.546	14.54
439.672	8.54
439.798	18.54
439.924	15.54
440.05	27.54
440.177	20.54
440.303	30.54
440.429	11.54
440.555	24.54
440.681	8.54
440.807	10.54
440.934	29.54
441.06	14.54
441.186	4.54
441.312	11.54
441.438	22.54
441.564	13.54
441.69	33.54
441.816	10.54
441.943	7.54
442.069	3.54
442.195	5.54
442.321	11.54
442.447	4.54
442.573	-13.46
442.699	3.54
442.825	-19.46
442.951	28.54
443.077	13.54
443.203	4.54
443.33	3.54
443.456	-11.46
443.582	17.54
443.708	5.54
443.834	25.54
443.96	2.54
444.086	-2.46
444.212	21.54
444.338	32.54
444.464	33.54
444.59	22.54
444.716	3.54
444.842	22.54
444.968	-3.46
445.094	7.54
445.22	3.54
445.346	-14.46
445.472	-13.46
445.598	-3.46
445.724	3.54
445.85	12.54
445.976	7.54
446.102	4.54
446.228	8.54
446.354	11.54
446.48	0.54
446.605	-3.46
446.731	10.54
446.857	5.54
446.983	17.54
447.109	2.54
447.235	17.54
447.361	13.54
447.487	27.54
447.613	16.54
447.739	13.54
447.865	7.54
447.99	17.54
448.116	0.54
448.242	11.54
448.368	3.54
448.494	12.54
448.62	7.54
448.746	8.54
448.872	20.54
448.997	23.54
449.123	17.54
449.249	18.54
449.375	34.54
449.501	0.54
449.627	-22.46
449.752	8.54
449.878	-6.46
450.004	-0.46
450.13	9.54
450.256	-4.46
450.381	17.54
450.507	30.54
450.633	14.54
450.759	10.54
450.884	-7.46
451.01	16.54
451.136	9.54
451.262	4.54
451.388	-3.46
451.513	-5.46
451.639	5.54
451.765	18.54
451.89	8.54
452.016	18.54
452.142	4.54
452.268	-10.46
452.393	3.54
452.519	-2.46
452.645	0.54
452.771	3.54
452.896	0.54
453.022	-13.46
453.148	16.54
453.273	19.54
453.399	21.54
453.525	-2.46
453.65	0.54
453.776	38.54
453.902	23.54
454.027	25.54
454.153	26.54
454.279	32.54
454.404	3.54
454.53	20.54
454.656	41.54
454.781	23.54
454.907	-2.46
455.032	0.54
455.158	16.54
455.284	38.54
455.409	22.54
455.535	17.54
455.66	14.54
455.786	17.54
455.912	11.54
456.037	0.54
456.163	10.54
456.288	21.54
456.414	5.54
456.539	-6.46
456.665	21.54
456.791	22.54
456.916	13.54
457.042	22.54
457.167	-11.46
457.293	9.54
457.418	6.54
457.544	12.54
457.669	2.54
457.795	2.54
457.92	18.54
458.046	17.54
458.171	15.54
458.297	5.54
458.422	15.54
458.548	-10.46
458.673	13.54
458.799	16.54
458.924	3.54
459.05	18.54
459.175	5.54
459.301	7.54
459.426	11.54
459.552	7.54
459.677	-4.46
459.803	17.54
459.928	3.54
460.053	10.54
460.179	11.54
460.304	22.54
460.43	1.54
460.555	12.54
460.681	2.54
460.806	17.54
460.931	22.54
461.057	4.54
461.182	-7.46
461.308	16.54
461.433	14.54
461.558	1.54
461.684	24.54
461.809	16.54
461.934	1.54
462.06	21.54
462.185	1.54
462.311	6.54
462.436	8.54
462.561	12.54
462.687	6.54
462.812	15.54
462.937	8.54
463.063	-10.46
463.188	-3.46
463.313	11.54
463.439	17.54
463.564	-7.46
463.689	6.54
463.814	24.54
463.94	1.54
464.065	17.54
464.19	26.54
464.316	-11.46
464.441	-3.46
464.566	-0.46
464.692	-4.46
464.817	9.54
464.942	1.54
465.067	-1.46
465.193	-6.46
465.318	-0.46
465.443	17.54
465.568	9.54
465.694	6.54
465.819	30.54
465.944	7.54
466.069	20.54
466.194	15.54
466.32	20.54
466.445	15.54
466.57	7.54
466.695	7.54
466.82	23.54
466.946	18.54
467.071	15.54
467.196	11.54
467.321	11.54
467.446	-12.46
467.572	-8.46
467.697	-12.46
467.822	2.54
467.947	20.54
468.072	-4.46
468.197	3.54
468.323	3.54
468.448	15.54
468.573	10.54
468.698	16.54
468.823	22.54
468.948	21.54
469.073	11.54
469.198	26.54
469.324	15.54
469.449	-5.46
469.574	12.54
469.699	1.54
469.824	19.54
469.949	11.54
470.074	22.54
470.199	45.54
470.324	34.54
470.449	26.54
470.574	9.54
470.7	15.54
470.825	19.54
470.95	19.54
471.075	0.54
471.2	4.54
471.325	17.54
471.45	8.54
471.575	-1.46
471.7	12.54
471.825	12.54
471.95	4.54
472.075	13.54
472.2	18.54
472.325	15.54
472.45	1.54
472.575	13.54
472.7	9.54
472.825	19.54
472.95	6.54
473.075	-3.46
473.2	6.54
473.325	0.54
473.45	9.54
473.575	8.54
473.7	7.54
473.825	11.54
473.95	13.54
474.075	15.54
474.2	20.54
474.325	14.54
474.45	20.54
474.574	19.54
474.699	17.54
474.824	22.54
474.949	-4.46
475.074	8.54
475.199	24.54
475.324	31.54
475.449	20.54
475.574	12.54
475.699	3.54
475.824	-7.46
475.949	-0.46
476.073	18.54
476.198	10.54
476.323	17.54
476.448	4.54
476.573	1.54
476.698	30.54
476.823	12.54
476.947	12.54
477.072	27.54
477.197	4.54
477.322	8.54
477.447	-2.46
477.572	8.54
477.697	11.54
477.821	8.54
477.946	13.54
478.071	16.54
478.196	14.54
478.321	5.54
478.445	21.54
478.57	11.54
478.695	21.54
478.82	17.54
478.945	21.54
479.069	16.54
479.194	9.54
479.319	15.54
479.444	15.54
479.569	0.54
479.693	14.54
479.818	17.54
479.943	17.54
480.068	11.54
480.192	38.54
480.317	20.54
480.442	31.54
480.567	10.54
480.691	-1.46
480.816	14.54
480.941	6.54
481.066	15.54
481.19	30.54
481.315	34.54
481.44	13.54
481.564	6.54
481.689	23.54
481.814	12.54
481.938	15.54
482.063	20.54
482.188	19.54
482.313	32.54
482.437	7.54
482.562	29.54
482.687	24.54
482.811	33.54
482.936	20.54
483.061	38.54
483.185	25.54
483.31	37.54
483.435	29.54
483.559	12.54
483.684	17.54
483.808	44.54
483.933	17.54
484.058	7.54
484.182	17.54
484.307	16.54
484.432	20.54
484.556	6.54
484.681	10.54
484.805	5.54
484.93	40.54
485.055	38.54
485.179	65.54
485.304	112.54
485.428	354.54
485.553	1208.54
485.678	1725.54
485.802	1620.54
485.927	1788.54
486.051	2642.54
486.176	1629.54
486.3	429.54
486.425	155.54
486.549	85.54
486.674	51.54
486.799	36.54
486.923	21.54
487.048	27.54
487.172	34.54
487.297	37.54
487.421	44.54
487.546	28.54
487.67	36.54
487.795	16.54
487.919	11.54
488.044	32.54
488.168	17.54
488.293	25.54
488.417	-12.46
488.542	17.54
488.666	30.54
488.791	15.54
488.915	34.54
489.04	28.54
489.164	32.54
489.289	22.54
489.413	-15.46
489.538	33.54
489.662	37.54
489.786	2.54
489.911	6.54
490.035	9.54
490.16	5.54
490.284	14.54
490.409	2.54
490.533	17.54
490.658	38.54
490.782	17.54
490.906	18.54
491.031	14.54
491.155	9.54
491.28	27.54
491.404	27.54
491.528	30.54
491.653	17.54
491.777	13.54
491.902	5.54
492.026	28.54
492.15	38.54
492.275	18.54
492.399	15.54
492.524	1.54
492.648	26.54
492.772	24.54
492.897	25.54
493.021	10.54
493.145	31.54
493.27	32.54
493.394	8.54
493.518	1.54
493.643	3.54
493.767	16.54
493.891	-0.46
494.016	17.54
494.14	-1.46
494.264	15.54
494.389	14.54
494.513	-1.46
494.637	0.54
494.762	16.54
494.886	27.54
495.01	21.54
495.134	13.54
495.259	35.54
495.383	12.54
495.507	16.54
495.632	27.54
495.756	36.54
495.88	20.54
496.004	29.54
496.129	-3.46
496.253	27.54
496.377	14.54
496.501	25.54
496.626	-10.46
496.75	14.54
496.874	15.54
496.998	5.54
497.123	11.54
497.247	17.54
497.371	16.54
497.495	34.54
497.62	32.54
497.744	9.54
497.868	10.54
497.992	19.54
498.116	12.54
498.241	17.54
498.365	12.54
498.489	-0.46
498.613	25.54
498.737	10.54
498.862	10.54
498.986	6.54
499.11	21.54
499.234	7.54
499.358	7.54
499.482	16.54
499.607	4.54
499.731	33.54
499.855	37.54
499.979	35.54
500.103	16.54
500.227	8.54
500.351	-0.46
500.476	19.54
500.6	28.54
500.724	3.54
500.848	7.54
500.972	22.54
501.096	11.54
501.22	24.54
501.344	3.54
501.469	7.54
501.593	23.54
501.717	21.54
501.841	21.54
501.965	4.54
502.089	0.54
502.213	28.54
502.337	12.54
502.461	19.54
502.585	15.54
502.709	38.54
502.834	20.54
502.958	-4.46
503.082	16.54
503.206	24.54
503.33	21.54
503.454	14.54
503.578	27.54
503.702	24.54
503.826	26.54
503.95	33.54
504.074	1.54
504.198	1.54
504.322	12.54
504.446	5.54
504.57	26.54
504.694	18.54
504.818	22.54
504.942	29.54
505.066	8.54
505.19	18.54
505.314	19.54
505.438	11.54
505.562	-1.46
505.686	32.54
505.81	5.54
505.934	6.54
506.058	7.54
506.182	18.54
506.306	28.54
506.43	19.54
506.554	4.54
506.678	-3.46
506.802	-9.46
506.926	2.54
507.05	13.54
507.174	13.54
507.298	16.54
507.422	8.54
507.546	15.54
507.67	41.54
507.794	-0.46
507.918	-6.46
508.042	17.54
508.165	6.54
508.289	2.54
508.413	11.54
508.537	4.54
508.661	2.54
508.785	20.54
508.909	5.54
509.033	14.54
509.157	16.54
509.281	5.54
509.405	2.54
509.528	31.54
509.652	37.54
509.776	8.54
509.9	14.54
510.024	10.54
510.148	11.54
510.272	7.54
510.396	-0.46
510.519	-12.46
510.643	23.54
510.767	9.54
510.891	0.54
511.015	6.54
511.139	24.54
511.263	20.54
511.386	9.54
511.51	17.54
511.634	11.54
511.758	13.54
511.882	9.54
512.006	19.54
512.129	23.54
512.253	52.54
512.377	2.54
512.501	16.54
512.625	8.54
512.748	1.54
512.872	-0.46
512.996	12.54
513.12	33.54
513.244	-2.46
513.367	12.54
513.491	19.54
513.615	9.54
513.739	2.54
513.862	2.54
513.986	2.54
514.11	16.54
514.234	-7.46
514.358	12.54
514.481	5.54
514.605	11.54
514.729	17.54
514.853	23.54
514.976	12.54
515.1	20.54
515.224	14.54
515.348	4.54
515.471	8.54
515.595	24.54
515.719	16.54
515.842	33.54
515.966	11.54
516.09	18.54
516.214	8.54
516.337	36.54
516.461	17.54
516.585	19.54
516.708	21.54
516.832	6.54
516.956	7.54
517.08	16.54
517.203	6.54
517.327	16.54
517.451	22.54
517.574	44.54
517.698	5.54
517.822	27.54
517.945	24.54
518.069	45.54
518.193	46.54
518.316	33.54
518.44	29.54
518.564	17.54
518.687	11.54
518.811	24.54
518.935	69.54
519.058	38.54
519.182	48.54
519.306	47.54
519.429	11.54
519.553	63.54
519.676	33.54
519.8	26.54
519.924	0.54
520.047	10.54
520.171	2.54
520.294	19.54
520.418	13.54
520.542	2.54
520.665	13.54
520.789	5.54
520.913	-3.46
521.036	-12.46
521.16	7.54
521.283	10.54
521.407	3.54
521.53	-0.46
521.654	-12.46
521.778	31.54
521.901	11.54
522.025	26.54
522.148	11.54
522.272	13.54
522.395	3.54
522.519	20.54
522.643	19.54
522.766	-5.46
522.89	17.54
523.013	26.54
523.137	-1.46
523.26	-0.46
523.384	19.54
523.507	11.54
523.631	13.54
523.754	15.54
523.878	20.54
524.002	19.54
524.125	1.54
524.249	0.54
524.372	17.54
524.496	28.54
524.619	10.54
524.743	8.54
524.866	-7.46
524.99	15.54
525.113	2.54
525.237	24.54
525.36	24.54
525.484	21.54
525.607	-5.46
525.731	-12.46
525.854	2.54
525.978	35.54
526.101	16.54
526.224	12.54
526.348	17.54
526.471	20.54
526.595	22.54
526.718	16.54
526.842	-0.46
526.965	6.54
527.089	6.54
527.212	19.54
527.336	15.54
527.459	24.54
527.582	0.54
527.706	15.54
527.829	6.54
527.953	25.54
528.076	-1.46
528.2	5.54
528.323	8.54
528.446	24.54
528.57	2.54
528.693	11.54
528.817	8.54
528.94	28.54
529.064	27.54
529.187	10.54
529.31	5.54
529.434	3.54
529.557	3.54
529.68	9.54
529.804	-1.46
529.927	4.54
530.051	-3.46
530.174	4.54
530.297	18.54
530.421	43.54
530.544	16.54
530.668	21.54
530.791	-4.46
530.914	22.54
531.038	13.54
531.161	-0.46
531.284	1.54
531.408	15.54
531.531	0.54
531.654	1.54
531.778	4.54
531.901	-10.46
532.024	0.54
532.148	-0.46
532.271	2.54
532.394	19.54
532.518	21.54
532.641	31.54
532.764	27.54
532.888	16.54
533.011	3.54
533.134	3.54
533.258	24.54
533.381	-2.46
533.504	7.54
533.628	10.54
533.751	9.54
533.874	22.54
533.997	21.54
534.121	-6.46
534.244	18.54
534.367	3.54
534.491	-3.46
534.614	3.54
534.737	13.54
534.86	15.54
534.984	-3.46
535.107	-10.46
535.23	15.54
535.354	5.54
535.477	-7.46
535.6	3.54
535.723	8.54
535.847	20.54
535.97	-3.46
536.093	-0.46
536.216	-15.46
536.34	9.54
536.463	11.54
536.586	15.54
536.709	6.54
536.833	2.54
536.956	2.54
537.079	13.54
537.202	16.54
537.325	-7.46
537.449	-3.46
537.572	16.54
537.695	-2.46
537.818	-0.46
537.941	13.54
538.065	15.54
538.188	4.54
538.311	25.54
538.434	21.54
538.558	4.54
538.681	13.54
538.804	29.54
538.927	19.54
539.05	7.54
539.173	5.54
539.297	1.54
539.42	9.54
539.543	2.54
539.666	26.54
539.789	20.54
539.913	28.54
540.036	12.54
540.159	20.54
540.282	11.54
540.405	0.54
540.528	9.54
540.651	37.54
540.775	18.54
540.898	33.54
541.021	7.54
541.144	22.54
541.267	19.54
541.39	-3.46
541.513	-0.46
541.637	9.54
541.76	11.54
541.883	19.54
542.006	14.54
542.129	27.54
542.252	0.54
542.375	14.54
542.498	4.54
542.622	9.54
542.745	0.54
542.868	7.54
542.991	35.54
543.114	15.54
543.237	22.54
543.36	24.54
543.483	16.54
543.606	12.54
543.73	18.54
543.853	-0.46
543.976	3.54
544.099	21.54
544.222	13.54
544.345	-2.46
544.468	-2.46
544.591	11.54
544.714	4.54
544.837	24.54
544.96	24.54
545.083	11.54
545.206	6.54
545.329	19.54
545.453	12.54
545.576	3.54
545.699	23.54
545.822	18.54
545.945	15.54
546.068	17.54
546.191	24.54
546.314	6.54
546.437	25.54
546.56	2.54
546.683	1.54
546.806	24.54
546.929	-0.46
547.052	-6.46
547.175	-17.46
547.298	28.54
547.421	2.54
547.544	17.54
547.667	1.54
547.79	-3.46
547.913	-10.46
548.036	-10.46
548.159	-2.46
548.282	-8.46
548.405	-27.46
548.528	-0.46
548.651	12.54
548.774	4.54
548.897	8.54
549.02	25.54
549.143	26.54
549.266	11.54
549.389	-8.46
549.512	-18.46
549.635	19.54
549.758	14.54
549.881	3.54
550.004	5.54
550.127	7.54
550.25	-10.46
550.373	13.54
550.496	8.54
550.619	11.54
550.742	7.54
550.865	-8.46
550.988	16.54
551.111	23.54
551.234	4.54
551.356	5.54
551.479	1.54
551.602	3.54
551.725	19.54
551.848	19.54
551.971	19.54
552.094	14.54
552.217	16.54
552.34	16.54
552.463	-15.46
552.586	9.54
552.709	12.54
552.832	3.54
552.955	23.54
553.077	16.54
553.2	-3.46
553.323	-10.46
553.446	6.54
553.569	10.54
553.692	16.54
553.815	9.54
553.938	7.54
554.061	0.54
554.184	17.54
554.306	-0.46
554.429	22.54
554.552	10.54
554.675	-21.46
554.798	7.54
554.921	9.54
555.044	-15.46
555.167	0.54
555.29	0.54
555.412	-23.46
555.535	4.54
555.658	26.54
555.781	13.54
555.904	-1.46
556.027	5.54
556.15	15.54
556.272	-7.46
556.395	25.54
556.518	5.54
556.641	15.54
556.764	16.54
556.887	20.54
557.01	1.54
557.132	17.54
557.255	17.54
557.378	11.54
557.501	6.54
557.624	31.54
557.747	16.54
557.869	21.54
557.992	15.54
558.115	17.54
558.238	-0.46
558.361	13.54
558.483	24.54
558.606	24.54
558.729	-2.46
558.852	34.54
558.975	45.54
559.098	25.54
559.22	25.54
559.343	5.54
559.466	12.54
559.589	2.54
559.712	13.54
559.834	7.54
559.957	7.54
560.08	5.54
560.203	22.54
560.325	34.54
560.448	26.54
560.571	15.54
560.694	-9.46
560.817	19.54
560.939	20.54
561.062	0.54
561.185	2.54
561.308	9.54
561.43	1.54
561.553	4.54
561.676	-5.46
561.799	13.54
561.921	-0.46
562.044	11.54
562.167	16.54
562.29	14.54
562.413	-2.46
562.535	17.54
562.658	-0.46
562.781	15.54
562.903	10.54
563.026	2.54
563.149	15.54
563.272	19.54
563.394	22.54
563.517	9.54
563.64	11.54
563.763	-2.46
563.885	26.54
564.008	24.54
564.131	13.54
564.254	-0.46
564.376	7.54
564.499	6.54
564.622	-9.46
564.744	12.54
564.867	5.54
564.99	19.54
565.113	20.54
565.235	5.54
565.358	9.54
565.481	6.54
565.603	11.54
565.726	15.54
565.849	19.54
565.971	18.54
566.094	-10.46
566.217	-1.46
566.34	4.54
566.462	6.54
566.585	20.54
566.708	8.54
566.83	7.54
566.953	34.54
567.076	10.54
567.198	0.54
567.321	-4.46
567.444	25.54
567.566	2.54
567.689	-8.46
567.812	6.54
567.934	19.54
568.057	5.54
568.18	6.54
568.302	-2.46
568.425	3.54
568.548	-10.46
568.67	4.54
568.793	13.54
568.916	18.54
569.038	8.54
569.161	-3.46
569.283	27.54
569.406	19.54
569.529	-5.46
569.651	6.54
569.774	-12.46
569.897	-9.46
570.019	7.54
570.142	22.54
570.265	13.54
570.387	14.54
570.51	20.54
570.632	40.54
570.755	9.54
570.878	15.54
571	32.54
571.123	-7.46
571.246	18.54
571.368	-8.46
571.491	5.54
571.613	-12.46
571.736	-9.46
571.859	1.54
571.981	-3.46
572.104	4.54
572.226	20.54
572.349	-0.46
572.472	8.54
572.594	27.54
572.717	17.54
572.839	25.54
572.962	5.54
573.085	29.54
573.207	10.54
573.33	27.54
573.452	27.54
573.575	27.54
573.697	10.54
573.82	9.54
573.943	8.54
574.065	11.54
574.188	9.54
574.31	24.54
574.433	22.54
574.555	14.54
574.678	0.54
574.801	29.54
574.923	23.54
575.046	23.54
575.168	7.54
575.291	0.54
575.413	3.54
575.536	9.54
575.659	11.54
575.781	13.54
575.904	8.54
576.026	16.54
576.149	13.54
576.271	32.54
576.394	8.54
576.516	11.54
576.639	23.54
576.761	-0.46
576.884	-7.46
577.007	19.54
577.129	23.54
577.252	12.54
577.374	43.54
577.497	9.54
577.619	20.54
577.742	3.54
577.864	23.54
577.987	5.54
578.109	15.54
578.232	19.54
578.354	29.54
578.477	2.54
578.599	12.54
578.722	7.54
578.844	15.54
578.967	17.54
579.089	11.54
579.212	-5.46
579.334	20.54
579.457	7.54
579.579	5.54
579.702	6.54
579.824	21.54
579.947	-6.46
580.069	-2.46
580.192	-10.46
580.314	16.54
580.437	10.54
580.559	39.54
580.682	4.54
580.804	6.54
580.927	10.54
581.049	40.54
581.172	16.54
581.294	21.54
581.417	31.54
581.539	13.54
581.662	32.54
581.784	30.54
581.907	14.54
582.029	22.54
582.152	4.54
582.274	11.54
582.396	12.54
582.519	4.54
582.641	-3.46
582.764	13.54
582.886	10.54
583.009	10.54
583.131	26.54
583.254	5.54
583.376	23.54
583.499	25.54
583.621	15.54
583.743	15.54
583.866	25.54
583.988	11.54
584.111	11.54
584.233	4.54
584.356	3.54
584.478	8.54
584.601	-13.46
584.723	3.54
584.845	22.54
584.968	2.54
585.09	9.54
585.213	8.54
585.335	0.54
585.458	11.54
585.58	11.54
585.702	13.54
585.825	21.54
585.947	8.54
586.07	-6.46
586.192	-8.46
586.315	13.54
586.437	5.54
586.559	3.54
586.682	-6.46
586.804	-0.46
586.927	-7.46
587.049	5.54
587.171	8.54
587.294	12.54
587.416	35.54
587.539	20.54
587.661	9.54
587.783	1.54
587.906	8.54
588.028	12.54
588.151	12.54
588.273	10.54
588.395	5.54
588.518	-6.46
588.64	7.54
588.763	26.54
588.885	17.54
589.007	15.54
589.13	-4.46
589.252	-12.46
589.375	4.54
589.497	6.54
589.619	-0.46
589.742	9.54
589.864	18.54
589.986	4.54
590.109	-13.46
590.231	-0.46
590.354	23.54
590.476	-5.46
590.598	11.54
590.721	-6.46
590.843	18.54
590.965	9.54
591.088	3.54
591.21	3.54
591.332	12.54
591.455	-22.46
591.577	-4.46
591.7	4.54
591.822	12.54
591.944	14.54
592.067	2.54
592.189	8.54
592.311	16.54
592.434	0.54
592.556	21.54
592.678	9.54
592.801	11.54
592.923	9.54
593.045	2.54
593.168	6.54
593.29	3.54
593.412	13.54
593.535	7.54
593.657	5.54
593.779	22.54
593.902	23.54
594.024	13.54
594.146	3.54
594.269	24.54
594.391	2.54
594.513	13.54
594.636	2.54
594.758	-0.46
594.88	12.54
595.003	15.54
595.125	1.54
595.247	7.54
595.37	-0.46
595.492	8.54
595.614	35.54
595.737	21.54
595.859	23.54
595.981	11.54
596.104	2.54
596.226	9.54
596.348	11.54
596.471	0.54
596.593	7.54
596.715	-14.46
596.838	16.54
596.96	3.54
597.082	15.54
597.204	16.54
597.327	11.54
597.449	4.54
597.571	19.54
597.694	31.54
597.816	18.54
597.938	0.54
598.061	5.54
598.183	9.54
598.305	21.54
598.427	20.54
598.55	15.54
598.672	9.54
598.794	21.54
598.917	21.54
599.039	21.54
599.161	18.54
599.283	22.54
599.406	14.54
599.528	9.54
599.65	24.54
599.773	17.54
599.895	31.54
600.017	20.54
600.139	6.54
600.262	4.54
600.384	-0.46
600.506	13.54
600.628	14.54
600.751	10.54
600.873	9.54
600.995	3.54
601.118	17.54
601.24	13.54
601.362	16.54
601.484	28.54
601.607	28.54
601.729	15.54
601.851	2.54
601.973	19.54
602.096	18.54
602.218	34.54
602.34	21.54
602.462	31.54
602.585	21.54
602.707	-11.46
602.829	15.54
602.951	4.54
603.074	-1.46
603.196	4.54
603.318	-9.46
603.44	25.54
603.563	-3.46
603.685	1.54
603.807	11.54
603.929	1.54
604.052	16.54
604.174	15.54
604.296	15.54
604.418	19.54
604.541	33.54
604.663	9.54
604.785	22.54
604.907	9.54
605.03	9.54
605.152	37.54
605.274	7.54
605.396	8.54
605.519	17.54
605.641	9.54
605.763	15.54
605.885	11.54
606.008	15.54
606.13	21.54
606.252	17.54
606.374	-2.46
606.496	9.54
606.619	13.54
606.741	3.54
606.863	33.54
606.985	38.54
607.108	15.54
607.23	26.54
607.352	14.54
607.474	13.54
607.596	33.54
607.719	18.54
607.841	34.54
607.963	5.54
608.085	-2.46
608.207	23.54
608.33	22.54
608.452	12.54
608.574	5.54
608.696	19.54
608.819	4.54
608.941	-3.46
609.063	3.54
609.185	-2.46
609.307	17.54
609.43	31.54
609.552	12.54
609.674	-3.46
609.796	15.54
609.918	8.54
610.041	12.54
610.163	43.54
610.285	7.54
610.407	17.54
610.529	-6.46
610.652	1.54
610.774	20.54
610.896	11.54
611.018	11.54
611.14	16.54
611.263	6.54
611.385	3.54
611.507	16.54
611.629	9.54
611.751	12.54
611.873	23.54
611.996	9.54
612.118	27.54
612.24	-0.46
612.362	10.54
612.484	35.54
612.607	7.54
612.729	37.54
612.851	26.54
612.973	4.54
613.095	20.54
613.218	22.54
613.34	33.54
613.462	7.54
613.584	19.54
613.706	0.54
613.828	36.54
613.951	9.54
614.073	7.54
614.195	-4.46
614.317	39.54
614.439	18.54
614.561	18.54
614.684	9.54
614.806	41.54
614.928	20.54
615.05	19.54
615.172	25.54
615.294	11.54
615.417	10.54
615.539	7.54
615.661	15.54
615.783	24.54
615.905	15.54
616.027	59.54
616.15	102.54
616.272	100.54
616.394	48.54
616.516	43.54
616.638	29.54
616.76	21.54
616.883	19.54
617.005	3.54
617.127	17.54
617.249	7.54
617.371	9.54
617.493	12.54
617.615	27.54
617.738	18.54
617.86	-10.46
617.982	19.54
618.104	12.54
618.226	-2.46
618.348	-2.46
618.471	10.54
618.593	16.54
618.715	10.54
618.837	26.54
618.959	23.54
619.081	13.54
619.203	22.54
619.326	11.54
619.448	8.54
619.57	5.54
619.692	3.54
619.814	22.54
619.936	29.54
620.058	20.54
620.181	16.54
620.303	4.54
620.425	14.54
620.547	27.54
620.669	17.54
620.791	16.54
620.913	18.54
621.036	-2.46
621.158	30.54
621.28	23.54
621.402	-6.46
621.524	9.54
621.646	10.54
621.768	6.54
621.891	-12.46
622.013	2.54
622.135	7.54
622.257	-6.46
622.379	3.54
622.501	12.54
622.623	3.54
622.745	21.54
622.868	1.54
622.99	8.54
623.112	1.54
623.234	6.54
623.356	15.54
623.478	-8.46
623.6	39.54
623.722	3.54
623.845	28.54
623.967	9.54
624.089	9.54
624.211	-1.46
624.333	16.54
624.455	28.54
624.577	5.54
624.699	19.54
624.822	9.54
624.944	13.54
625.066	4.54
625.188	17.54
625.31	8.54
625.432	22.54
625.554	6.54
625.676	28.54
625.799	17.54
625.921	10.54
626.043	21.54
626.165	7.54
626.287	-8.46
626.409	12.54
626.531	7.54
626.653	15.54
626.775	4.54
626.898	8.54
627.02	7.54
627.142	29.54
627.264	8.54
627.386	-4.46
627.508	11.54
627.63	10.54
627.752	21.54
627.874	-4.46
627.997	13.54
628.119	13.54
628.241	47.54
628.363	31.54
628.485	12.54
628.607	-0.46
628.729	9.54
628.851	-0.46
628.973	12.54
629.096	0.54
629.218	8.54
629.34	18.54
629.462	7.54
629.584	5.54
629.706	-1.46
629.828	27.54
629.95	1.54
630.072	3.54
630.195	21.54
630.317	32.54
630.439	8.54
630.561	8.54
630.683	1.54
630.805	13.54
630.927	19.54
631.049	13.54
631.171	20.54
631.293	18.54
631.416	27.54
631.538	4.54
631.66	13.54
631.782	16.54
631.904	19.54
632.026	0.54
632.148	16.54
632.27	3.54
632.392	3.54
632.514	4.54
632.637	17.54
632.759	11.54
632.881	3.54
633.003	-4.46
633.125	7.54
633.247	3.54
633.369	-3.46
633.491	-4.46
633.613	23.54
633.735	-4.46
633.858	17.54
633.98	20.54
634.102	0.54
634.224	3.54
634.346	10.54
634.468	15.54
634.59	13.54
634.712	-5.46
634.834	20.54
634.956	11.54
635.078	5.54
635.201	9.54
635.323	9.54
635.445	12.54
635.567	-12.46
635.689	17.54
635.811	18.54
635.933	24.54
636.055	11.54
636.177	17.54
636.299	23.54
636.421	9.54
636.544	2.54
636.666	1.54
636.788	10.54
636.91	-3.46
637.032	2.54
637.154	11.54
637.276	33.54
637.398	22.54
637.52	-7.46
637.642	0.54
637.764	7.54
637.887	12.54
638.009	17.54
638.131	-3.46
638.253	5.54
638.375	11.54
638.497	4.54
638.619	8.54
638.741	2.54
638.863	-5.46
638.985	12.54
639.107	13.54
639.23	11.54
639.352	11.54
639.474	-16.46
639.596	-2.46
639.718	14.54
639.84	8.54
639.962	15.54
640.084	16.54
640.206	14.54
640.328	11.54
640.45	-7.46
640.573	-6.46
640.695	-16.46
640.817	2.54
640.939	-2.46
641.061	5.54
641.183	0.54
641.305	-3.46
641.427	2.54
641.549	19.54
641.671	6.54
641.793	11.54
641.915	13.54
642.038	-3.46
642.16	3.54
642.282	15.54
642.404	0.54
642.526	17.54
642.648	-3.46
642.77	9.54
642.892	4.54
643.014	17.54
643.136	8.54
643.258	6.54
643.381	13.54
643.503	24.54
643.625	-9.46
643.747	-4.46
643.869	6.54
643.991	13.54
644.113	10.54
644.235	3.54
644.357	11.54
644.479	-0.46
644.601	8.54
644.723	-2.46
644.846	-9.46
644.968	8.54
645.09	4.54
645.212	-1.46
645.334	21.54
645.456	28.54
645.578	10.54
645.7	9.54
645.822	13.54
645.944	9.54
646.066	11.54
646.188	1.54
646.311	15.54
646.433	34.54
646.555	52.54
646.677	43.54
646.799	43.54
646.921	26.54
647.043	38.54
647.165	6.54
647.287	9.54
647.409	28.54
647.531	13.54
647.654	0.54
647.776	21.54
647.898	11.54
648.02	1.54
648.142	10.54
648.264	19.54
648.386	4.54
648.508	-20.46
648.63	3.54
648.752	5.54
648.874	-12.46
648.997	16.54
649.119	25.54
649.241	15.54
649.363	32.54
649.485	16.54
649.607	0.54
649.729	20.54
649.851	-0.46
649.973	14.54
650.095	20.54
650.217	0.54
650.34	8.54
650.462	7.54
650.584	23.54
650.706	24.54
650.828	6.54
650.95	-11.46
651.072	20.54
651.194	1.54
651.316	10.54
651.438	8.54
651.56	2.54
651.683	-2.46
651.805	9.54
651.927	7.54
652.049	-11.46
652.171	19.54
652.293	17.54
652.415	15.54
652.537	-2.46
652.659	-2.46
652.781	11.54
652.903	11.54
653.026	33.54
653.148	8.54
653.27	27.54
653.392	7.54
653.514	17.54
653.636	15.54
653.758	11.54
653.88	1.54
654.002	13.54
654.124	16.54
654.247	23.54
654.369	34.54
654.491	8.54
654.613	27.54
654.735	9.54
654.857	20.54
654.979	6.54
655.101	33.54
655.223	46.54
655.345	21.54
655.468	12.54
655.59	31.54
655.712	40.54
655.834	19.54
655.956	28.54
656.078	40.54
656.2	41.54
656.322	34.54
656.444	31.54
656.566	46.54
656.689	47.54
656.811	54.54
656.933	93.54
657.055	90.54
657.177	140.54
657.299	245.54
657.421	474.54
657.543	1881.54
657.665	12527.54
657.787	15170.54
657.91	15241.54
658.032	15662.54
658.154	4615.54
658.276	3389.54
658.398	1143.54
658.52	1032.54
658.642	472.54
658.764	583.54
658.886	270.54
659.009	406.54
659.131	208.54
659.253	305.54
659.375	175.54
659.497	243.54
659.619	141.54
659.741	191.54
659.863	97.54
659.985	189.54
660.108	109.54
660.23	136.54
660.352	75.54
660.474	132.54
660.596	80.54
660.718	106.54
660.84	66.54
660.962	119.54
661.084	50.54
661.207	98.54
661.329	59.54
661.451	97.54
661.573	47.54
661.695	108.54
661.817	57.54
661.939	104.54
662.061	55.54
662.184	61.54
662.306	40.54
662.428	77.54
662.55	48.54
662.672	66.54
662.794	41.54
662.916	54.54
663.038	21.54
663.161	77.54
663.283	36.54
663.405	70.54
663.527	20.54
663.649	64.54
663.771	29.54
663.893	40.54
664.015	36.54
664.138	60.54
664.26	34.54
664.382	31.54
664.504	20.54
664.626	48.54
664.748	30.54
664.87	43.54
664.992	25.54
665.115	65.54
665.237	23.54
665.359	28.54
665.481	22.54
665.603	42.54
665.725	18.54
665.847	28.54
665.97	22.54
666.092	37.54
666.214	27.54
666.336	42.54
666.458	21.54
666.58	43.54
666.702	15.54
666.825	38.54
666.947	0.54
667.069	56.54
667.191	26.54
667.313	40.54
667.435	5.54
667.557	24.54
667.68	5.54
667.802	37.54
667.924	19.54
668.046	57.54
668.168	13.54
668.29	43.54
668.412	5.54
668.535	23.54
668.657	25.54
668.779	17.54
668.901	13.54
669.023	45.54
669.145	20.54
669.267	37.54
669.39	25.54
669.512	39.54
669.634	19.54
669.756	23.54
669.878	15.54
670	38.54
670.123	4.54
670.245	37.54
670.367	21.54
670.489	23.54
670.611	-7.46
670.733	19.54
670.856	17.54
670.978	39.54
671.1	26.54
671.222	27.54
671.344	11.54
671.466	34.54
671.589	7.54
671.711	8.54
671.833	8.54
671.955	29.54
672.077	8.54
672.199	47.54
672.322	26.54
672.444	18.54
672.566	8.54
672.688	29.54
672.81	29.54
672.932	19.54
673.055	16.54
673.177	11.54
673.299	14.54
673.421	24.54
673.543	22.54
673.665	34.54
673.788	15.54
673.91	13.54
674.032	3.54
674.154	6.54
674.276	17.54
674.399	10.54
674.521	9.54
674.643	23.54
674.765	4.54
674.887	16.54
675.009	0.54
675.132	3.54
675.254	5.54
675.376	34.54
675.498	15.54
675.62	27.54
675.743	19.54
675.865	31.54
675.987	-5.46
676.109	11.54
676.231	26.54
676.354	28.54
676.476	7.54
676.598	25.54
676.72	5.54
676.842	19.54
676.965	9.54
677.087	27.54
677.209	8.54
677.331	25.54
677.453	2.54
677.576	13.54
677.698	-3.46
677.82	25.54
677.942	-7.46
678.064	10.54
678.187	9.54
678.309	9.54
678.431	19.54
678.553	36.54
678.675	26.54
678.798	31.54
678.92	10.54
679.042	4.54
679.164	-3.46
679.286	35.54
679.409	9.54
679.531	-8.46
679.653	-11.46
679.775	0.54
679.898	8.54
680.02	5.54
680.142	2.54
680.264	20.54
680.386	-11.46
680.509	18.54
680.631	6.54
680.753	19.54
680.875	16.54
680.998	20.54
681.12	11.54
681.242	29.54
681.364	3.54
681.486	16.54
681.609	-0.46
681.731	-10.46
681.853	-12.46
681.975	9.54
682.098	21.54
682.22	26.54
682.342	7.54
682.464	30.54
682.587	24.54
682.709	26.54
682.831	-14.46
682.953	-8.46
683.076	6.54
683.198	18.54
683.32	15.54
683.442	24.54
683.565	16.54
683.687	1.54
683.809	-0.46
683.931	-12.46
684.054	17.54
684.176	25.54
684.298	11.54
684.42	8.54
684.543	-3.46
684.665	15.54
684.787	-1.46
684.909	3.54
685.032	12.54
685.154	15.54
685.276	9.54
685.398	0.54
685.521	-9.46
685.643	8.54
685.765	12.54
685.887	33.54
686.01	2.54
686.132	24.54
686.254	36.54
686.377	15.54
686.499	7.54
686.621	6.54
686.743	9.54
686.866	-4.46
686.988	8.54
687.11	9.54
687.232	12.54
687.355	9.54
687.477	9.54
687.599	12.54
687.722	7.54
687.844	12.54
687.966	7.54
688.088	20.54
688.211	19.54
688.333	26.54
688.455	1.54
688.578	21.54
688.7	21.54
688.822	23.54
688.944	-20.46
689.067	43.54
689.189	4.54
689.311	-4.46
689.434	5.54
689.556	6.54
689.678	18.54
689.801	9.54
689.923	7.54
690.045	39.54
690.167	13.54
690.29	21.54
690.412	-6.46
690.534	22.54
690.657	8.54
690.779	-2.46
690.901	17.54
691.024	8.54
691.146	-2.46
691.268	-0.46
691.391	22.54
691.513	7.54
691.635	22.54
691.758	28.54
691.88	17.54
692.002	0.54
692.125	15.54
692.247	0.54
692.369	7.54
692.492	-10.46
692.614	4.54
692.736	8.54
692.859	-2.46
692.981	4.54
693.103	7.54
693.226	15.54
693.348	20.54
693.47	15.54
693.593	-9.46
693.715	-10.46
693.837	9.54
693.96	4.54
694.082	-0.46
694.204	9.54
694.327	20.54
694.449	7.54
694.571	9.54
694.694	-4.46
694.816	16.54
694.938	7.54
695.061	5.54
695.183	3.54
695.305	-3.46
695.428	32.54
695.55	16.54
695.672	11.54
695.795	21.54
695.917	23.54
696.04	6.54
696.162	6.54
696.284	10.54
696.407	11.54
696.529	9.54
696.651	29.54
696.774	9.54
696.896	17.54
697.019	3.54
697.141	-0.46
697.263	-8.46
697.386	-16.46
697.508	7.54
697.63	16.54
697.753	3.54
697.875	20.54
697.998	5.54
698.12	23.54
698.242	-5.46
698.365	17.54
698.487	-1.46
698.61	16.54
698.732	4.54
698.854	23.54
698.977	14.54
699.099	5.54
699.221	12.54
699.344	-0.46
699.466	11.54
699.589	17.54
699.711	-12.46
699.834	17.54
699.956	13.54
700.078	16.54
700.201	-1.46
700.323	22.54
700.446	0.54
700.568	5.54
700.69	17.54
700.813	16.54
700.935	-2.46
701.058	14.54
701.18	16.54
701.302	-4.46
701.425	4.54
701.547	8.54
701.67	4.54
701.792	3.54
701.915	-4.46
702.037	-3.46
702.159	4.54
702.282	8.54
702.404	-2.46
702.527	16.54
702.649	10.54
702.772	9.54
702.894	11.54
703.017	22.54
703.139	9.54
703.261	35.54
703.384	17.54
703.506	20.54
703.629	1.54
703.751	22.54
703.874	10.54
703.996	3.54
704.119	-2.46
704.241	8.54
704.364	-19.46
704.486	0.54
704.608	16.54
704.731	17.54
704.853	10.54
704.976	-11.46
705.098	12.54
705.221	14.54
705.343	3.54
705.466	1.54
705.588	15.54
705.711	6.54
705.833	9.54
705.956	1.54
706.078	9.54
706.201	15.54
706.323	11.54
706.446	-6.46
